Bandpass,0,0.25173,268.01746,-3472.6909,-5049.9717,-4188.4287,-1749.23,625.25549,1537.6969,726.32031,-851.44122,-1790.314,-1280.0184,341.6825,1900.4845,2292.4004,1296.5787,-294.94519,-1294.6814,-1000.4048,315.30212,1646.7629,2019.8236,1198.9745,-175.60217,-1095.0441,-933.95178,112.01548,1208.0514,1520.788,829.14917,-339.43372,-1126.0371,-981.664,-54.892197,946.11835,1293.5048,769.88501,-197.44576,-878.49933,-787.86298,-28.536299,809.74194,1103.7203,654.79565,-182.99338,-784.5188,-721.47321,-66.960632,678.64478,970.3078,617.11121,-94.24189,-629.24701,-605.77289,-65.459846,575.74451,847.60663,570.86194,-25.146358,-488.10883,-482.81226,-30.72567,521.23706,768.07086,544.74481,36.210953,-372.65155,-386.362,-10.424816,465.59097,691.04462,511.7146,72.785019,-300.5737,-347.80209,-58.723389,332.16516,529.72565,397.74994,51.738354,-237.48993,-250.54285,19.735868,369.59656,540.68219,411.09409,80.391533,-209.38011,-252.86568,-26.85323,301.73965,504.89178,459.85986,230.89261,11.449992,-24.107233,152.87471,411.35654,563.79352,505.56839,287.31503,70.718361,5.7152548,122.49756,316.38071,432.01077,380.47095,201.94418,30.548014,-8.3760977,109.88172,295.31174,413.78854,386.89484,246.50252,106.06198,73.275307,170.76604,322.67282,414.31213,378.15744,241.99829,105.45789,64.890457,143.63474,278.33701,368.95209,353.17313,249.8622,141.11385,108.81023,174.19751,284.75488,356.07291,335.6998,241.01109,144.0318,116.13914,174.66574,270.69986,325.97284,290.60254,179.13736,59.451839,3.9874105,39.582912,131.66939,212.38184,230.23297,184.6942,121.84538,96.629089,131.11398,199.50325,249.53621,242.82559,183.56409,114.84,86.354027,118.09756,186.57498,242.76418,247.675,199.26892,131.90082,90.078217,96.662079,138.52525,178.84007,185.46065,153.87546,108.42735,82.267563,92.008148,126.03482,154.40289,151.95685,116.97515,71.754044,45.448704,52.525986,82.827438,110.02856,111.50726,84.601196,47.566093,25.277561,30.862728,56.867832,81.900299,87.040558,69.44046,43.252213,27.894703,33.048817,51.746677,66.343933,62.288006,38.92239,9.1895647,-11.219694,-16.671583,-16.36698,-27.300556,-60.609867,-111.57098,-160.88596,-186.65234,-178.63321,-144.81535,-105.82222,-81.358093,-78.254028,-88.124298,-95.509422,-89.991974,-73.407883,-57.373119,-53.638668,-64.855095,-82.618828,-93.976204,-91.25116,-77.773018,-65.324005,-65.331894,-80.37085,-102.161,-117.40707,-117.14474,-102.88036,-85.300171,-76.717834,-82.765991,-99.093803,-115.03571,-121.26347,-115.88387,-104.93507,-97.447708,-99.002136,-108.40932,-119.50723,-126.24664,-127.06335,-125.43397,-126.58672,-133.17442,-143.25539,-151.94374,-155.23903,-153.00436,-148.89813,-147.4953,-150.9373,-157.65753,-163.9939,-167.24403,-167.69073,-168.05762,-170.94548,-176.3932,-181.57545,-182.93446,-179.09845,-172.28236,-166.9996,-166.968,-172.49535,-180.3105,-185.99919,-187.26495,-185.61345,-185.21454,-189.76938,-199.66901,-211.51353,-220.34328,-222.98482,-220.14439,-215.81819,-214.51393,-218.28729,-225.62955,-232.84215,-236.75925,-236.81721,-235.08005,-234.39087,-236.15172,-239.38905,-241.70105,-241.25328,-238.26028,-234.85959,-233.53824,-235.342,-239.20064,-242.81152,-244.35011,-243.70609,-242.37065,-242.15489,-243.78178,-246.42686,-248.50221,-249.01105,-248.39003,-248.1897,-249.86214,-253.60796,-258.17105,-261.72849,-263.18893,-262.92337,-262.40646,-263.07993,-265.31216,-268.20911,-270.34842,-270.81079,-269.70557,-267.84723,-265.94135,-264.01581,-261.58572,-258.38351,-254.96925,-252.60274,-252.37535,-254.27438,-257.00815,-258.87598,-259.10764,-258.60474,-259.35101,-262.75195,-268.10522,-272.53314,-272.80188,-268.05933,-261.62106,-260.25806,-270.91827,-296.54791,-333.50629,-372.35364,-401.8819,-414.30893,-408.79761,-391.38669,-371.48486,-357.00854,-350.88861,-350.68945,-351.15726,-347.86127,-339.68289,-328.88321,-319.10767,-312.89905,-310.37457,-309.74484,-309.0499,-307.7395,-306.96912,-308.47696,-312.92709,-318.96268,-323.69696,-324.36523,-320.05228,-312.33615,-304.38821,-299.07535,-297.26572,-297.42465,-296.76886,-293.25409,-287.12073,-280.97751,-278.30469,-281.25812,-289.12607,-298.43152,-304.69,-304.81955,-298.78577,-289.50922,-281.10767,-276.54443,-276.09485,-277.5051,-277.65131,-274.58173,-268.63452,-261.97839,-256.98428,-254.59943,-253.85266,-252.80678,-250.24741,-246.86705,-245.03842,-247.25568,-254.27606,-264.25482,-273.53256,-278.63022,-278.18332,-273.57816,-267.91602,-264.04108,-262.95471,-263.61078,-264.08945,-263.19037,-261.2532,-259.6485,-259.41507,-260.18161,-260.30688,-258.23865,-254.10663,-250.26848,-250.17336,-256.07327,-266.98529,-278.25812,-283.1358,-275.48288,-252.16774,-213.91911,-164.50587,-109.08559,-52.840065,-0.44886503,43.934654,76.996758,97.293739,106.52752,109.92506,114.79936,127.48578,150.13861,179.36165,207.81567,228.17986,237.25365,237.67801,236.07167,238.57646,246.50943,254.89058,254.93231,239.15384,206.13263,162.07391,118.26308,85.88649,71.165947,73.398155,86.630112,103.56287,119.18426,132.16054,143.67889,155.06053,166.02379,174.72559,179.29327,179.5067,177.29083,175.64168,176.77992,180.86234,186.13422,190.34827,192.38635,192.92943,193.75682,196.26245,200.32043,204.34109,206.46338,205.99107,204.00336,202.67212,203.75912,207.36528,211.83496,214.90155,215.27985,213.58894,211.95413,212.55746,216.13792,221.47333,226.19092,228.33601,227.6176,225.49519,224.08905,224.70648,227.01724,229.42383,230.31766,229.29559,227.46741,226.65598,228.09264,231.56123,235.60179,238.60301,239.96437,240.46616,241.58171,244.26086,248.12036,251.68315,253.51978,253.43909,252.79005,253.5643,256.89276,262.04425,266.74487,268.70688,267.33484,264.34811,262.74741,264.72177,269.92599,275.42349,277.50723,274.28525,267.27023,260.75333,259.17615,264.10898,272.83569,279.61459,278.98709,269.14694,253.26936,237.9407,229.63269,231.36586,241.52548,255.37117,268.06693,277.18201,283.1243,287.47742,290.67596,290.871,284.94547,271.06274,250.96106,230.24854,216.20183,214.20097,224.87849,243.69963,263.25827,276.97684,282.12814,280.58551,277.0968,276.28214,280.14471,287.3909,294.67978,298.82709,298.5936,295.12616,291.01163,288.67599,289.09421,291.44687,293.75345,294.01392,291.23184,285.86536,279.58591,274.52542,272.35922,273.59164,277.32379,281.61423,284.31876,284.07846,281.00528,276.6918,273.45679,273.12103,275.89304,279.95041,282.00119,278.63242,267.85028,250.1008,228.29152,206.79568,189.87033,180.1611,177.8934,181.03278,186.28633,190.48967,191.79774,190.20461,187.21217,184.82693,184.35938,185.59714,186.77197,185.38066,179.5078,169.02174,156.0239,144.24501,137.56828,138.29314,145.92805,157.11684,166.83359,170.41777,165.60997,153.67488,139.02646,127.39561,123.26333,127.71265,137.78349,147.78848,152.09207,148.0211,137.34251,125.35709,117.89418,117.73969,122.5352,125.55341,119.20321,99.482117,68.854897,35.743153,10.664393,1.024166,7.4497604,23.754335,40.538467,50.306049,51.093636,46.562519,42.701488,43.377083,47.621334,50.362728,46.047409,32.726021,13.898799,-3.1146727,-11.262199,-7.7222414,4.7067122,19.547365,30.553442,35.068176,34.824974,33.954433,35.772846,40.581455,45.848129,48.428078,47.116722,43.706081,41.852856,44.60902,52.342594,62.428383,70.827049,74.417229,72.546776,66.936371,60.24651,54.453323,50.115437,46.795345,43.999161,41.704781,40.045441,38.560326,35.91164,30.663383,22.817003,14.988677,12.069211,19.079277,38.192245,66.681854,97.25164,120.90946,131.02621,126.41893,111.75548,95.044868,83.587776,80.567497,84.017479,88.513481,88.450195,81.019096,67.363457,51.541313,38.15134,30.076351,27.516401,28.588003,30.846674,32.675987,33.752899,34.504162,35.139397,35.071842,33.207138,28.924706,23.02236,17.805504,15.965803,18.664301,23.859676,26.001942,17.628845,-7.5829406,-51.630051,-110.43271,-174.54401,-232.21295,-273.55807,-294.04706,-295.785,-286.12805,-274.33987,-267.80533,-269.37024,-276.74353,-283.96082,-284.12061,-272.25949,-247.35246,-212.84145,-175.59605,-143.6653,-123.53016,-117.76833,-124.00538,-135.66356,-144.36374,-143.10979,-128.94691,-103.92986,-73.978035,-46.19556,-25.966803,-15.184737,-12.298818,-13.872027,-16.595276,-18.63319,-19.754467,-20.51553,-21.286304,-21.835674,-21.653152,-20.599083,-19.265598,-18.711052,-19.754286,-22.371042,-25.660078,-28.412687,-29.867805,-30.110304,-29.85821,-29.853807,-30.355953,-31.113178,-31.780605,-32.370251,-33.301212,-34.97163,-37.221394,-39.211983,-39.950111,-39.1273,-37.582359,-36.866119,-38.052345,-40.638977,-42.552517,-41.655949,-38.076588,-35.835159,-42.336365,-65.391922,-109.00801,-170.20558,-238.90558,-301.39206,-345.87399,-367.37085,-369.36871,-361.38248,-353.77869,-352.69504,-357.77469,-363.78903,-365.00446,-359.63135,-351.72601,-349.44058,-360.62906,-388.30948,-428.53552,-471.86258,-507.61151,-528.65198,-534.23376,-529.53986,-522.43207,-519.30414,-522.27972,-529.08246,-535.32593,-537.646,-535.75488,-532.29517,-530.79181,-533.17261,-538.54169,-544.01733,-547.03497,-547.46954,-547.95685,-551.92908,-560.45697,-569.98352,-572.73846,-560.09491,-527.25397,-476.59268,-417.52878,-362.65045,-322.04843,-298.9379,-289.00967,-283.82892,-276.2453,-264.61819,-253.40688,-249.88326,-259.047,-279.85352,-305.00317,-324.36035,-329.93604,-319.56262,-297.32895,-270.84918,-247.22147,-230.03838,-218.86324,-210.92747,-203.55138,-195.67223,-187.79156,-180.85843,-175.22678,-170.5127,-166.28384,-162.78827,-160.92912,-161.38469,-163.57918,-165.46155,-164.50696,-159.39542,-151.17679,-142.93245,-137.92473,-137.3277,-139.06685,-138.69562,-131.94754,-117.46576,-97.998894,-79.240707,-66.930786,-63.902378,-68.784279,-77.032677,-83.563179,-85.359642,-82.584351,-77.745132,-73.683731,-71.768051,-71.363327,-70.709732,-68.414948,-64.469467,-60.14241,-56.942719,-55.450768,-54.844471,-53.406643,-49.617085,-43.07515,-34.673794,-25.988111,-18.35104,-12.232555,-7.2588654,-2.7427163,1.7214782,6.0141234,9.7033911,12.476308,14.423882,15.973078,17.556229,19.311512,21.069126,22.635717,24.135769,26.09783,29.146694,33.459499,38.354801,42.350597,43.75832,41.538776,35.951321,28.605886,21.841923,17.726698,17.178059,19.653555,23.548475,27.074745,29.151197,29.844379,30.147532,31.237301,33.621902,36.652161,38.681976,37.831161,32.988491,24.554161,14.530149,5.8738599,1.3850369,2.6238632,9.3457918,19.692776,31.02438,40.983795,48.312073,53.080311,56.312252,59.259781,62.725872,66.753281,70.770561,74.043655,76.14772,77.207191,77.813721,78.716759,80.486786,83.327072,87.090782,91.429298,95.939095,100.2177,103.8429,106.37169,107.4501,107.02701,105.54533,103.93549,103.31916,104.51217,107.58289,111.75018,115.74326,118.47074,119.62747,119.8623,120.3742,122.16235,125.39963,129.34799,132.89284,135.35022,136.98326,138.8271,141.88806,146.25136,150.76506,153.63298,153.62991,151.1609,148.38474,148.1718,152.44086,160.90498,171.08496,179.67749,184.46669,185.54752,185.01038,185.22208,186.80392,187.69972,184.10248,172.82616,153.71822,130.57101,109.83248,97.734459,97.421959,107.6705,123.8219,140.26746,152.98082,160.73967,164.62503,166.48311,167.55486,168.13464,168.22751,168.40984,170.0074,174.32268,181.48076,189.8683,196.78189,200.01067,199.30208,196.59384,194.6563,194.90038,195.8067,193.1958,182.46968,161.67307,133.57329,105.38968,86.092926,82.577599,96.664963,124.43903,158.1503,189.59344,213.22501,227.62622,234.94359,238.99881,243.26424,249.66631,258.48196,268.93399,279.85461,290.02054,298.19531,303.19293,304.20505,301.3096,295.78568,289.85519,285.7998,284.85156,286.50983,288.78275,289.33743,286.96442,282.48254,278.44104,277.62918,281.12576,286.98767,290.43826,285.66153,268.42917,238.27162,199.06548,157.6844,121.34546,94.936188,79.57148,72.930588,70.971283,69.956551,67.720955,63.709209,58.126572,51.032013,42.08659,31.062138,18.567896,6.2397909,-3.972295,-11.052806,-15.79654,-20.486925,-27.27944,-36.128078,-43.598438,-43.580612,-29.862703,0.63900369,45.74361,98.247063,148.57092,188.52356,214.27203,227.09375,231.73788,233.51743,235.81807,239.26184,242.64078,244.67201,245.26755,245.52036,246.58516,248.40205,249.28123,246.72821,239.0067,226.41208,211.40401,197.48341,187.49529,182.3734,181.02063,181.28082,181.30324,180.44069,179.21965,178.5677,178.93666,179.93776,180.67126,180.423,179.17151,177.54004,176.26534,175.61041,175.16847,174.19327,172.19106,169.31908,166.28789,163.83929,162.18796,160.84164,158.93881,155.86696,151.72656,147.32013,143.6828,141.4812,140.67093,140.59074,140.35854,139.25928,136.89832,133.14238,128.06128,122.04101,115.99305,111.35102,109.57244,111.20186,114.99643,117.81012,115.64404,105.58396,87.671211,65.567749,45.400436,33.167309,31.981165,40.632763,54.293156,66.990662,74.496819,76.045486,74.027908,72.010078,72.369888,74.976929,77.595825,77.58596,73.707581,66.884071,59.533817,54.031879,51.367226,50.828033,50.789268,49.938999,48.059902,45.888504,44.278042,43.37476,42.451843,40.507336,37.138069,32.990231,29.407097,27.500124,27.309616,27.67227,26.909735,23.865839,18.574013,12.109681,5.7680364,0.18050158,-4.9997363,-10.651884,-17.355957,-24.821474,-32.005741,-37.816055,-41.845352,-44.572571,-46.879627,-49.274681,-51.449329,-52.54731,-51.964344,-50.061932,-48.203541,-48.013515,-50.352768,-54.751057,-59.727657,-63.785984,-66.36245,-68.037651,-69.874283,-72.420959,-75.194237,-77.093109,-77.460098,-76.943138,-77.388504,-80.696022,-87.393616,-96.004356,-103.79459,-108.50848,-109.91613,-110.03476,-111.76207,-116.79904,-124.31319,-131.35098,-134.81471,-133.70105,-130.06192,-127.98957,-131.27126,-141.25471,-156.27838,-172.8914,-187.84935,-199.43327,-207.30432,-211.35184,-210.82126,-204.75226,-193.56194,-180.41463,-170.83569,-170.14894,-180.04008,-196.57938,-211.47609,-216.35648,-207.71841,-189.43758,-170.97125,-162.04886,-166.95555,-181.93559,-197.39108,-203.56578,-196.22017,-178.84297,-160.19527,-148.94131,-148.86107,-157.55119,-169.08496,-178.48927,-184.8588,-191.08043,-200.61575,-213.83801,-226.67891,-232.67786,-227.1521,-210.72467,-189.84059,-173.82327,-170.17821,-180.84569,-201.41125,-223.47565,-238.6692,-242.16197,-234.14609,-219.03656,-203.20116,-192.37991,-189.69803,-194.73135,-203.79868,-211.48343,-213.0946,-207.2579,-197.3759,-190.81909,-195.67497,-216.33929,-250.2924,-288.1886,-317.74377,-329.6568,-322.34946,-302.71329,-282.25708,-270.79459,-271.3681,-279.41425,-286.58636,-286.75583,-280.36493,-274.37192,-277.84314,-296.00021,-326.46976,-360.04245,-385.40311,-394.89316,-387.90701,-370.1897,-349.91132,-333.22253,-321.94974,-314.37207,-307.91425,-301.52112,-296.06165,-292.77658,-291.27356,-288.83707,-281.75153,-267.77164,-247.9716,-226.59389,-208.89243,-198.33099,-194.9071,-195.57808,-196.36394,-194.6703,-190.38266,-185.24153,-181.18845,-178.95345,-177.8,-176.39973,-174.004,-170.97472,-168.33636,-166.80579,-166.1313,-165.2737,-163.2589,-159.99249,-156.36549,-153.55348,-152.06122,-151.27907,-149.92929,-147.08478,-142.97954,-138.96019,-136.56493,-136.3835,-137.5434,-138.2267,-136.86818,-133.17677,-128.24323,-123.66688,-120.36197,-117.94611,-115.17849,-111.11435,-106.06959,-101.5873,-99.32666,-99.640747,-100.94715,-100.53391,-96.457794,-89.346542,-82.817833,-81.996925,-90.791595,-109.41798,-133.62051,-156.11137,-169.53067,-169.43616,-155.90926,-133.1987,-107.85447,-86.420219,-73.67395,-71.828751,-80.50248,-97.038231,-116.95732,-134.66737,-144.65181,-143.0798,-129.29434,-106.36762,-80.167053,-57.102444,-41.515774,-34.005371,-31.574287,-29.532461,-24.116011,-14.396992,-2.4922514,7.9168296,13.778416,14.25966,10.88011,6.2943745,2.6544583,0.65414208,-0.20843217,-0.51442993,0.071095102,2.8070519,8.7915907,17.569586,26.587046,32.179497,31.721256,25.609863,17.608042,12.939472,14.973595,22.438992,29.094263,26.510548,8.7585011,-23.549162,-62.322697,-95.045227,-110.43697,-103.77065,-78.935959,-46.102413,-16.296989,4.056756,15.627082,24.477394,37.439308,57.468216,81.744873,103.47444,116.01437,116.60123,107.38119,93.334221,78.768242,64.944672,50.515652,34.386116,18.780748,9.9775333,15.648703,40.115486,80.490242,126.48225,164.55388,184.40665,184.14755,171.06419,157.43056,153.70889,163.06645,180.32724,195.78734,201.4146,195.61003,183.74036,174.36137,173.72026,182.07404,194.05305,202.62381,203.91621,199.72331,196.10385,199.11014,210.52946,226.45959,239.63826,243.97099,238.29318,226.9425,216.83469,213.00793,215.55426,219.88391,220.0475,212.84215,199.96342,186.81688,178.85678,177.97636,181.43146,184.06551,182.34828,177.44164,175.04831,181.8717,200.80145,227.94186,253.63194,267.20245,262.85498,243.20171,218.24295,200.17453,196.85712,207.59576,223.58401,232.73885,226.22173,203.09499,170.72136,140.92918,124.21801,125.12418,140.95428,164.08957,186.18832,201.88168,210.22572,213.66811,215.64871,218.44022,222.3271,226.20265,228.82922,229.81281,229.76674,229.77866,230.69949,232.73938,235.51613,238.36832,240.65192,241.88814,241.83221,240.58624,238.74446,237.38132,237.67271,240.15694,243.9706,246.58278,244.41115,234.25769,214.99318,188.66257,160.36075,136.76982,123.87685,124.78143,138.47388,160.05873,182.32671,198.09491,202.50456,194.52267,177.17978,156.48161,139.35617,131.32451,134.70813,148.02477,166.79416,185.41382,199.31551,206.49858,207.83955,206.16228,204.62753,205.26691,208.32033,212.55058,216.19203,217.92525,217.37404,214.98412,211.52048,207.58429,203.4398,199.16783,194.93088,191.09251,188.08337,186.12204,185.01868,184.23271,183.17052,181.53163,179.46753,177.43825,175.85513,174.74738,173.68275,172.013,169.30074,165.65602,161.75246,158.48248,156.43925,155.53319,154.98897,153.75119,151.08037,146.99591,142.29924,138.15012,135.43471,134.29109,134.06871,133.73901,132.50438,130.23616,127.4846,125.07281,123.54401,122.81204,122.22309,120.96716,118.56042,115.09391,111.11707,107.27159,103.93977,101.1279,98.614227,96.198944,93.843132,91.601334,89.438698,87.125732,84.337624,80.903542,77.002815,73.120132,69.752441,67.071083,64.808563,62.487896,59.841408,57.084904,54.784534,53.356293,52.560329,51.43322,48.8344,44.317654,38.706554,33.834469,31.420803,31.689634,32.655666,30.725521,22.495594,6.8264222,-14.030698,-35.036636,-50.509731,-56.708965,-53.459015,-43.955811,-32.93433,-24.295321,-19.520645,-17.642269,-16.551937,-14.67455,-11.936033,-9.5382156,-8.8794489,-10.473735,-13.615975,-16.944408,-19.412344,-20.94141,-22.321186,-24.496218,-27.810966,-31.767538,-35.431282,-38.127411,-39.876312,-41.249699,-42.799839,-44.553123,-46.004036,-46.63763,-46.56205,-46.7006,-48.297535,-52.023651,-57.329254,-62.588997,-66.050774,-66.999588,-66.317642,-65.968903,-67.6633,-71.578033,-76.078835,-78.791611,-78.47084,-76.479568,-76.788139,-84.220139,-101.7599,-128.42062,-159.00185,-186.08704,-203.38313,-208.70045,-204.98909,-198.8414,-197.19794,-203.93002,-218.01373,-234.15311,-245.43628,-246.60565,-236.30481,-217.30116,-194.78589,-173.81296,-157.25858,-145.24782,-136.1003,-128.01859,-120.42936,-114.22074,-110.85863,-111.05704,-113.92352,-117.18223,-118.40616,-116.57211,-113.03987,-111.35724,-115.91561,-130.07358,-154.61824,-187.24278,-223.22256,-256.94128,-283.60153,-300.45563,-307.16162,-305.2558,-297.07571,-284.65625,-269.09598,-250.66151,-229.53214,-206.73106,-184.62276,-166.51952,-155.41367,-152.42241,-155.85536,-161.62694,-165.04234,-163.13924,-156.28455,-147.99205,-142.87979,-143.82376,-149.96408,-156.84753,-158.77338,-152.0544,-137.26291,-119.05829,-103.62862,-95.24292,-93.982681,-96.000389,-96.078728,-90.836716,-80.570412,-68.665924,-59.150505,-54.165733,-53.139988,-54.191833,-56.670738,-62.845913,-77.262398,-103.88428,-142.79356,-188.74782,-232.88861,-266.90067,-287.23694,-296.76797,-302.66269,-311.60123,-325.15735,-338.22464,-341.62662,-327.54092,-294.61682,-249.7403,-205.29384,-173.34514,-159.95906,-162.72829,-172.75282,-179.78755,-177.58847,-166.56378,-152.53998,-142.72224,-141.41043,-147.92955,-157.70854,-165.50462,-168.59193,-167.96841,-167.03021,-168.78836,-173.5392,-178.48404,-179.46178,-173.6017,-161.17749,-145.53282,-131.21625,-121.56591,-117.23083,-116.40521,-116.40807,-115.43597,-113.35247,-111.16132,-109.75471,-108.97076,-107.663,-104.66444,-99.842812,-94.390038,-90.089218,-88.092491,-88.124573,-88.71138,-88.259117,-86.164154,-83.112595,-80.357559,-78.565514,-77.178238,-74.847931,-70.64534,-65.073166,-59.98875,-57.350178,-57.663525,-59.366154,-59.784138,-57.118736,-52.017895,-47.414047,-46.490829,-50.095577,-55.559631,-58.125019,-54.391056,-45.579109,-38.171734,-40.958782,-59.87122,-93.662476,-133.29265,-165.76511,-180.42426,-174.11337,-152.20468,-125.01729,-101.94871,-86.961281,-78.048866,-70.649025,-62.41428,-55.968773,-57.723694,-73.506424,-103.89366,-142.35548,-177.53165,-198.38457,-199.26227,-182.08131,-154.66588,-126.51302,-104.51152,-90.790527,-83.342377,-78.442543,-73.149284,-66.565689,-59.592655,-53.805393,-50.34227,-49.348053,-49.996147,-50.835789,-50.254688,-46.998852,-40.699638,-32.205467,-23.41473,-16.484421,-12.71362,-11.762075,-11.799947,-10.629468,-7.1109962,-1.9091583,3.0357349,6.0063863,6.9008174,7.4092565,9.694519,14.442463,19.770767,22.040077,18.308371,8.8842754,-1.8835579,-7.4512501,-2.7058315,12.787593,34.033649,53.005116,62.87841,61.59874,52.658775,42.709297,37.575909,39.164806,45.047665,50.721104,52.854549,51.352158,49.008705,49.215328,53.42112,60.080605,65.697754,67.13665,63.603481,57.051052,50.900826,48.061466,49.55056,54.445801,60.923717,67.479034,73.48922,78.927818,83.707924,87.337547,89.201973,89.194374,88.089882,87.25267,87.810898,89.891151,92.504005,94.210587,94.122543,92.532349,90.729454,90.139412,91.39975,94.014458,96.798706,98.760223,99.773735,100.58719,102.20025,105.10167,108.92312,112.73206,115.70988,117.69768,119.2221,121.0194,123.44502,126.21643,128.66148,130.25438,131.01537,131.47398,132.24278,133.54518,135.06464,136.22258,136.65706,136.52338,136.3847,136.78609,137.85359,139.23668,140.43587,141.24409,141.93178,143.00424,144.71147,146.71649,148.23856,148.62959,147.97639,147.23775,147.71794,150.16193,154.08331,157.84837,159.55936,158.22238,154.44133,150.14246,147.45573,147.44618,149.51125,151.83899,152.62463,151.24022,148.5853,146.40105,146.03226,147.49281,149.47583,150.29443,149.09531,146.49713,144.20462,143.85925,145.91835,149.33473,152.25264,153.2308,152.14197,150.13565,148.71701,148.62105,149.3008,149.39923,147.85672,144.83188,141.7321,140.28571,141.29187,143.94728,146.26801,146.35725,143.65904,139.3262,135.4424,133.64357,134.108,135.61208,136.5704,136.25493,135.25914,134.85072,135.72705,137.19777,137.55,135.45107,131.35539,127.69772,127.40316,131.47983,137.32182,139.15752,130.82965,109.53408,78.306335,45.561279,21.635651,14.074652,24.214958,46.912422,73.455742,95.908455,110.42514,117.87752,121.84518,125.56284,129.8382,133.08939,133.15883,129.44481,123.83589,119.86832,120.7506,127.58266,138.85205,151.37735,161.96663,168.74873,171.53523,171.29651,169.34267,166.78377,164.42931,162.87306,162.43712,162.925,163.46721,162.79506,159.96696,155.13873,149.7941,146.13271,145.88666,149.28694,154.86835,160.27054,163.52654,164.00623,162.44415,160.13808,157.97717,156.02132,153.86723,151.38016,149.05685,147.5816,146.83342,145.16832,139.76178,128.11128,109.91439,88.092239,68.095924,55.638107,54.003067,62.435234,76.536453,90.45488,99.637352,102.65574,101.23641,98.695984,97.84446,99.571159,102.76943,105.40102,105.89445,104.02551,100.87479,98.045647,96.697021,96.939857,97.858543,98.068466,96.489731,92.963058,88.419487,84.487549,82.645798,83.262276,85.011444,85.094826,80.354904,68.869225,51.22245,30.668192,11.906734,-1.015265,-6.5910015,-6.4542584,-4.3105812,-3.7933526,-6.5010691,-11.373013,-15.729952,-17.261084,-15.653819,-12.8264,-11.661703,-14.129494,-20.063274,-27.381756,-33.549416,-37.241177,-39.074997,-40.95583,-44.548626,-49.985489,-55.714878,-59.57494,-60.310413,-58.458328,-55.99419,-55.012852,-56.384941,-59.318642,-62.091969,-63.389603,-63.272186,-63.100327,-64.502289,-68.154831,-73.25975,-78.078041,-81.118301,-82.118996,-82.133675,-82.688095,-84.641129,-87.574181,-90.129402,-91.022797,-89.980972,-87.928459,-86.315048,-86.099449,-87.140137,-88.424667,-88.940086,-88.516052,-88.002121,-88.643768,-91.122719,-94.980942,-98.868652,-101.44971,-102.31064,-102.2112,-102.49348,-104.08273,-106.81303,-109.57192,-111.14967,-111.15024,-110.26544,-109.68807,-110.10345,-111.06207,-111.30605,-109.93095,-107.59064,-106.79333,-110.85349,-121.95245,-139.43575,-159.46388,-176.39705,-185.27005,-184.03972,-174.3903,-160.70422,-147.83813,-138.96484,-134.59576,-133.12294,-132.32304,-130.79861,-128.53334,-126.41385,-125.24429,-125.02419,-124.96608,-124.14896,-122.2593,-119.85266,-117.95739,-117.33401,-117.94673,-119.03303,-119.71025,-119.66375,-119.40067,-119.87093,-121.72104,-124.72633,-127.83566,-129.83392,-130.17799,-129.41321,-128.845,-129.65204,-132.03058,-134.9686,-136.83998,-136.45021,-133.83878,-130.28557,-127.49744,-126.51651,-127.09895,-128.00327,-127.99245,-126.82886,-125.50337,-125.45473,-127.2764,-129.8665,-130.79358,-127.88327,-121.14363,-113.73627,-111.10239,-118.39967,-137.49345,-165.19112,-193.87933,-214.46721,-220.25563,-209.79352,-187.28503,-160.40466,-136.72768,-120.63541,-112.17148,-108.17107,-104.75145,-99.631409,-93.04039,-86.933319,-83.240677,-82.363876,-82.850296,-82.38237,-79.409225,-74.40583,-70.017921,-70.024834,-77.704895,-94.457932,-119.32513,-149.5262,-181.62637,-212.71207,-241.0641,-266.14993,-288.10172,-307.04056,-322.59882,-333.83984,-339.57935,-338.95261,-331.98682,-319.92664,-305.13239,-290.50928,-278.61765,-270.78366,-266.59705,-264.07025,-260.46564,-253.47289,-242.21356,-227.59015,-211.79391,-197.20581,-185.24309,-175.74179,-167.18512,-157.63405,-145.83994,-131.93028,-117.31095,-103.87526,-92.994209,-84.863281,-78.547668,-72.646774,-66.145584,-58.942066,-51.77095,-45.629532,-41.105831,-38.036133,-35.67498,-33.217064,-30.294006,-27.115767,-24.192467,-21.868689,-20.024956,-18.167753,-15.838092,-13.025259,-10.253579,-8.234376,-7.2923608,-6.9624286,-6.071909,-3.3157802,2.0002253,9.507349,17.907024,25.624083,31.589563,35.686481,38.612156,41.28265,44.183788,47.082436,49.254822,50.045673,49.370491,47.837864,46.43906,46.034382,46.969608,49.027691,51.669811,54.336281,56.586235,58.033787,58.233425,56.719517,53.266254,48.213223,42.578934,37.777176,35.016006,34.71302,36.307369,38.626675,40.604935,41.889732,42.915409,44.353073,46.272789,47.584942,46.195621,39.879036,27.405485,9.2678528,-12.439057,-34.934311,-55.933121,-74.411469,-90.533493,-104.84306,-117.27247,-126.62577,-130.89034,-128.2139,-117.9743,-101.31356,-80.827263,-59.589962,-40.055668,-23.397219,-9.5475988,2.21453,12.571917,21.788059,29.787094,36.514385,42.23056,47.48175,52.757523,58.099483,62.980537,66.596153,68.416611,68.644485,68.251938,68.52877,70.392365,73.881844,78.160645,82.037102,84.682144,86.093559,87.019043,88.403252,90.736679,93.744682,96.618713,98.61483,99.585907,100.05802,100.78739,102.11868,103.63271,104.38592,103.61796,101.43336,98.928009,97.588196,98.314911,100.7487,103.43204,104.79813,104.36945,103.31985,103.90743,108.03299,115.83256,125.29613,133.29878,137.48468,137.78381,136.45447,136.43645,138.9415,141.85287,140.17113,128.55766,104.68555,71.457581,36.648941,9.9365053,-1.2327088,5.2043858,25.354225,51.548923,75.986084,93.867645,104.55879,110.53731,115.12434,120.46898,126.81596,133.11758,138.23459,141.79288,144.22778,146.22884,148.18324,150.07549,151.8176,153.58907,155.77864,158.51924,161.24336,162.77118,162.06049,159.16226,155.60268,153.664,154.76721,157.89134,159.15918,153.15533,135.51283,105.43775,66.720757,26.535412,-7.4672093,-30.308153,-41.485462,-44.602516,-45.166924,-47.818905,-54.404209,-63.696751,-72.628052,-78.159828,-78.792198,-75.094337,-69.242355,-63.980053,-61.513592,-62.692688,-66.628525,-70.7938,-71.623627,-65.567894,-50.363602,-26.079365,4.5806999,36.996887,66.188515,88.550476,102.96645,110.78835,114.7698,117.59035,120.77212,124.47794,128.10564,131.13173,133.59631,135.96506,138.58629,141.23753,143.1485,143.49814,142.01442,139.22757,136.1897,133.87025,132.66811,132.37599,132.57584,133.10899,134.21143,136.17888,138.82373,141.2011,141.93192,140.02386,135.68523,130.54608,127.03154,127.16924,131.50201,138.74721,146.40697,151.96986,154.01591,152.64487,149.09795,144.92717,141.27069,138.6174,137.04774,136.61642,137.50986,139.8584,143.39798,147.31502,150.47234,151.91722,151.34512,149.20888,146.40683,143.77205,141.70461,140.15926,138.92728,137.9446,137.3688,137.37874,137.88802,138.44107,138.4144,137.39439,135.44449,133.0424,130.71506,128.63928,126.51771,123.84181,120.35789,116.38491,112.72674,110.21727,109.21304,109.39456,110.01073,110.36884,110.19148,109.57839,108.64516,107.19958,104.81645,101.35034,97.510376,94.947403,95.559433,100.28275,108.12069,116.18163,120.95225,120.21799,114.49398,106.96358,101.7438,101.3428,104.79147,107.67937,104.2904,90.797295,67.774406,40.567673,17.18656,4.7230487,6.0996203,18.766991,35.941631,49.68541,54.280373,48.343349,34.876385,19.492352,7.8373404,3.418426,6.6561155,15.309563,25.830479,34.925587,40.682064,42.915863,42.766335,41.84309,41.356037,41.608223,42.032814,41.687908,39.901176,36.692829,32.745235,28.963987,25.928276,23.595947,21.4559,19.010778,16.2335,13.643756,11.910841,11.23665,10.965193,9.7509737,6.2570415,-0.018206548,-8.3094063,-16.847464,-23.684504,-27.593294,-28.517824,-27.357374,-25.301075,-23.195679,-21.346205,-19.790663,-18.722504,-18.633934,-19.995506,-22.697203,-25.739985,-27.566643,-26.99206,-24.219418,-21.24942,-21.266468,-27.178465,-40.034878,-58.198158,-77.782684,-94.202858,-104.07731,-106.55878,-103.48238,-98.344788,-94.687584,-94.672493,-98.438583,-104.38561,-110.09901,-113.42207,-113.23702,-109.73624,-104.20428,-98.481415,-94.325401,-92.864441,-94.281837,-97.810013,-102.02956,-105.3795,-106.70748,-105.67039,-102.84531,-99.517128,-97.220261,-97.189026,-99.894073,-104.81604,-110.54693,-115.21754,-117.13608,-115.41517,-110.32141,-103.15798,-95.690109,-89.367111,-84.737808,-81.388489,-78.449532,-75.369507,-72.459915,-70.824226,-71.66214,-75.364311,-80.998337,-86.587624,-90.096382,-90.562187,-88.67775,-86.430328,-85.98175,-88.447563,-93.298279,-98.711754,-102.61172,-103.72426,-102.03431,-98.475677,-94.21817,-90.148819,-86.924911,-85.469696,-87.368279,-94.619377,-108.63789,-128.99263,-152.68787,-174.60529,-189.10333,-192.10336,-182.6929,-163.52385,-139.9101,-118.14001,-103.76677,-100.43866,-109.39925,-129.45456,-157.17761,-187.33713,-213.7356,-230.57639,-234.13132,-224.0853,-203.82982,-179.33949,-156.95938,-141.05978,-132.67075,-129.74263,-128.82269,-127.17951,-124.19476,-121.30636,-120.65224,-123.31709,-128.28217,-132.71867,-133.43933,-128.63289,-118.85798,-106.73643,-95.562279,-87.660919,-83.432449,-81.557953,-80.133797,-77.964897,-75.206848,-73.00489,-72.439316,-73.541412,-75.112488,-75.576912,-74.425774,-73.363838,-76.333122,-88.141907,-112.19127,-148.35225,-192.09796,-235.48457,-269.73837,-288.43991,-289.96667,-278.12509,-260.65582,-246.20213,-240.98489,-246.54546,-259.44449,-272.95602,-279.94955,-275.69055,-259.40948,-234.11755,-204.96831,-177.07422,-153.80495,-136.2032,-123.50532,-114.21899,-107.06422,-101.34998,-96.812523,-93.267258,-90.431091,-88.006897,-85.8321,-83.826141,-81.687416,-78.603912,-73.36554,-65.034798,-53.863632,-41.786301,-31.906673,-26.982725,-27.66474,-31.636965,-34.478821,-32.086899,-23.439936,-12.044764,-4.9583139,-9.6060419,-29.954868,-64.11293,-104.74536,-142.16798,-168.50116,-180.71558,-181.10178,-175.19766,-168.58994,-164.45064,-162.98439,-162.66226,-162.07101,-161.0426,-160.45433,-161.12427,-162.82959,-164.26947,-163.99254,-161.53958,-157.88326,-154.7874,-153.53868,-153.99739,-154.69849,-153.95995,-151.19147,-147.41139,-144.53227,-143.88432,-145.06218,-146.03548,-144.61862,-140.40709,-135.83777,-135.46397,-143.60941,-161.6147,-186.24359,-210.24329,-224.8936,-223.32278,-203.01401,-166.43016,-119.69375,-70.172951,-24.168392,14.414552,44.194454,65.626213,80.102188,89.285568,94.787582,98.053467,100.28178,102.31388,104.55228,106.99038,109.36575,111.36349,112.77496,113.56617,113.87558,113.98341,114.26501,115.10686,116.77374,119.2732,122.31158,125.41315,128.172,130.49193,132.64162,135.05402,137.97856,141.22275,144.18875,146.22121,147.0551,147.05415,147.04736,147.83957,149.7095,152.24167,154.62656,156.24281,157.12704,157.99533,159.77803,162.96742,167.2209,171.50215,174.68422,176.22119,176.44449,176.29048,176.65228,177.80067,179.26602,180.24857,180.2571,179.51959,178.87344,179.21001,180.86221,183.3636,185.74823,187.18475,187.5094,187.29832,187.44295,188.53452,190.48511,192.63513,194.25166,195.05417,195.39937,196.0096,197.45129,199.73578,202.31104,204.42938,205.61845,205.93491,205.85725,205.9379,206.48174,207.45929,208.65503,209.87555,211.02948,212.04291,212.74548,212.90062,212.41301,211.54793,210.92053,211.15862,212.41913,214.12831,215.22958,214.87682,213.13393,211.13919,210.49644,212.20522,215.85175,219.71443,221.85852,221.55702,220.00224,219.60179,222.06033,226.37662,228.18213,221.21284,200.43768,165.2267,120.68291,76.137825,41.368496,22.423689,19.234377,26.228954,35.523003,40.876305,40.297455,36.070084,32.493416,32.858009,37.430309,43.44165,46.827106,44.514645,35.934322,23.059839,9.2160006,-2.4986892,-10.316183,-14.044199,-14.627574,-13.48539,-11.997699,-11.236264,-11.829004,-13.855678,-16.816973,-19.808273,-21.93763,-22.813919,-22.790609,-22.744844,-23.479858,-25.147299,-27.143871,-28.650801,-29.518515,-30.874123,-34.907303,-43.770569,-58.130638,-76.233055,-94.150291,-107.24931,-112.20387,-108.51473,-98.717552,-87.135857,-77.798195,-72.560127,-70.340424,-67.789871,-60.996498,-47.361992,-26.771986,-1.5892717,24.414862,47.604107,65.758652,78.562988,87.199059,93.377563,98.371803,102.54694,105.55531,106.97354,106.91093,106.16373,105.80428,106.4884,107.9844,109.31304,109.48804,108.40942,107.28876,108.22428,113.07648,122.28538,134.37849,146.53891,155.95053,161.13541,162.4866,161.71049,160.5947,159.94266,159.3672,158.00935,155.57649,152.85413,151.22412,151.46803,152.72292,152.45006,147.63742,136.59697,120.2264,101.84596,85.573601,74.127998,67.34687,62.312798,55.03717,42.755352,25.574297,6.6393013,-9.1633425,-17.211216,-14.874993,-2.3037996,17.839745,41.366562,63.815559,81.623215,92.981239,98.189384,99.32869,99.241982,100.15539,102.60982,105.37968,106.56749,105.27933,102.7252,101.74709,104.72258,111.0054,115.70692,111.10518,90.428528,52.096024,1.8327348,-48.979374,-88.223206,-108.69186,-111.27336,-103.80146,-96.243988,-95.115456,-100.45832,-107.09424,-109.11717,-104.53213,-96.888817,-92.772835,-96.795273,-107.44693,-116.71242,-113.96375,-91.909088,-51.031673,0.135876,49.013824,84.837196,103.03096,105.91141,99.907509,91.501007,84.479706,79.796844,77.372353,77.946754,83.372963,95.167542,112.60585,132.05446,148.32413,157.30785,158.17186,153.61891,148.05272,144.89127,144.8027,145.92412,145.7173,143.02617,138.87921,135.58197,134.90344,136.7572,139.3235,140.43692,139.13748,136.22458,133.47003,132.18347,132.28429,132.57954,131.95081,130.4055,129.05122,128.94063,129.7213,129.30983,125.10639,116.05053,104.00932,93.264236,88.132439,90.162918,96.854759,102.98512,103.89915,98.659706,90.832565,86.087334,87.881134,93.903023,95.712509,82.179131,45.024124,-16.581623,-94.951454,-176.95186,-249.51346,-304.6507,-341.5434,-365.04166,-381.92709,-397.24768,-412.5918,-426.74338,-437.73926,-444.76678,-448.79504,-451.85175,-455.71066,-460.93909,-466.79846,-471.82578,-474.53439,-473.76218,-468.59412,-458.1438,-441.53494,-418.19379,-388.2666,-352.85419,-313.87646,-273.62607,-234.24318,-197.33774,-163.84636,-134.07542,-107.84861,-84.726784,-64.304222,-46.532021,-31.914604,-21.388277,-15.817763,-15.301463,-18.688158,-23.689634,-27.674644,-28.804497,-26.896534,-23.48822,-21.006952,-21.475185,-25.467003,-31.889105,-38.672073,-43.931358,-46.919235,-48.270134,-49.502121,-52.167999,-57.185703,-64.670197,-74.21637,-85.313133,-97.567368,-110.64275,-124.0758,-137.22144,-149.44864,-160.47021,-170.54424,-180.34563,-190.53461,-201.27493,-212.01338,-221.67558,-229.16948,-233.89789,-235.98761,-236.13248,-235.18585,-233.76686,-232.09518,-230.09521,-227.64192,-224.76534,-221.70349,-218.81944,-216.47762,-214.96191,-214.44453,-214.95724,-216.32979,-218.127,-219.67262,-220.22653,-219.28323,-216.84689,-213.50314,-210.19476,-207.77728,-206.57779,-206.20483,-205.73186,-204.16847,-200.96718,-196.28922,-190.88879,-185.69051,-181.30385,-177.74438,-174.50351,-170.90506,-166.52843,-161.4507,-156.17789,-151.32147,-147.22488,-143.76822,-140.46796,-136.80792,-132.59473,-128.11171,-123.96381,-120.69614,-118.41726,-116.67126,-114.66404,-111.73317,-107.78786,-103.44024,-99.718224,-97.499733,-96.989723,-97.554825,-98.031013,-97.338417,-95.048927,-91.575333,-87.878014,-84.878242,-82.9403,-81.729973,-80.507912,-78.638466,-75.967445,-72.829865,-69.712975,-66.839592,-63.985306,-60.667355,-56.566528,-51.862591,-47.212795,-43.353031,-40.58123,-38.489922,-36.165215,-32.753468,-28.032225,-22.59568,-17.508404,-13.636555,-11.092496,-9.1666222,-6.8023767,-3.3074644,1.1685083,5.7088132,9.2097816,11.084288,11.627785,11.815905,12.683034,14.702868,17.573904,20.523329,22.887762,24.553776,25.962872,27.710445,30.061239,32.756523,35.263412,37.279747,39.101933,41.544853,45.418835,50.900513,57.241978,63.061783,67.078941,68.846748,69.025551,69.02018,70.208786,73.239281,77.80629,82.994942,87.914619,92.186638,95.991028,99.705772,103.45132,106.89362,109.44283,110.68067,110.6783,109.95225,109.08175,108.27164,107.19866,105.28069,102.1987,98.302773,94.59288,92.249756,92.003319,93.748589,96.661209,99.732689,102.36575,104.63564,107.05764,110.04223,113.43291,116.46234,118.17224,118.02265,116.28322,113.94177,112.17986,111.73888,112.55224,113.82932,114.48554,113.6225,110.78938,105.95806,99.356308,91.367294,82.585175,73.922287,66.563675,61.653374,59.817806,60.81715,63.603798,66.836754,69.59169,71.836723,74.350716,78.100426,83.451889,89.729935,95.449471,99.12854,100.21461,99.555,99.091965,100.91443,106.17678,114.47467,124.00825,132.42957,137.91827,139.94844,139.41542,138.13741,138.03204,140.3587,145.313,152.06184,159.13132,164.97,168.49615,169.46356,168.52574,166.95593,166.09848,166.75893,168.80852,171.216,172.52122,171.5262,167.84285,162.00645,155.11342,148.22803,141.93652,136.3168,131.30173,127.13779,124.56872,124.56279,127.72831,133.80081,141.56674,149.31573,155.56927,159.65216,161.78036,162.66321,162.9323,162.79964,162.15187,160.9512,159.57922,158.799,159.29802,161.10509,163.30801,164.32935,162.65685,157.61453,149.71895,140.41742,131.3855,123.80965,118.04884,113.78969,110.49407,107.79558,105.61056,103.9799,102.85247,102.01966,101.24026,100.40807,99.574654,98.77755,97.820091,96.229309,93.495682,89.458168,84.533806,79.55777,75.276566,71.827011,68.602577,64.668846,59.487034,53.432621,47.681225,43.457897,41.12759,39.788342,37.741825,33.617233,27.419384,20.738619,15.872018,14.348755,15.82159,18.125006,18.568943,15.697399,10.364186,5.3531041,3.6900637,6.6707492,12.872497,18.841263,21.094549,18.228739,11.823832,5.5711112,3.1472962,6.1234369,13.149109,20.840868,25.760065,26.251387,23.08893,18.682098,15.481254,14.629526,15.622217,17.007826,17.510036,16.782051,15.37709,14.11499,13.412074,13.073701,12.627385,11.842763,10.968089,10.478515,10.5554,10.759568,10.229813,8.3253613,5.2494812,2.1410625,0.46277195,1.0221319,3.2735484,5.4283381,5.4027638,2.082535,-3.8556192,-10.082924,-13.663396,-12.41295,-5.8161106,4.9582629,17.847872,30.950167,43.217236,54.482338,64.96904,74.733856,83.454041,90.658112,96.152092,100.26293,103.68022,106.99474,110.26855,112.95734,114.2544,113.62237,111.14182,107.43291,103.20838,98.778976,93.870834,87.898163,80.512314,72.0438,63.510963,56.154324,50.778011,47.320652,44.938042,42.549995,39.501034,35.91254,32.510765,30.064621,28.8248,28.349272,27.831648,26.699652,25.057659,23.646,23.319357,24.387585,26.279556,27.794359,27.814377,26.028748,23.178579,20.626955,19.498137,19.932503,20.958675,21.103935,19.384291,16.046865,12.56409,10.835664,12.057003,15.942303,20.791653,24.38312,25.166582,23.052658,19.340822,15.856831,13.841838,13.263453,12.935074,11.32351,7.5188599,1.7783738,-4.6441579,-10.220604,-13.946753,-15.750112,-16.33534,-16.660248,-17.429047,-18.905355,-21.073488,-23.922022,-27.566492,-32.094944,-37.272491,-42.385201,-46.425823,-48.577076,-48.708324,-47.547009,-46.368267,-46.351513,-47.978745,-50.840378,-53.968842,-56.492504,-58.202782,-59.68362,-61.928452,-65.689156,-70.963966,-76.938408,-82.409874,-86.432426,-88.795166,-90.062592,-91.178185,-92.889542,-95.341431,-98.059708,-100.30221,-101.53871,-101.76632,-101.48803,-101.39615,-101.97102,-103.23618,-104.79689,-106.11226,-106.82267,-106.94267,-106.82868,-106.96824,-107.7289,-109.20376,-111.21294,-113.42515,-115.51023,-117.24406,-118.5404,-119.43344,-120.0488,-120.5784,-121.24623,-122.24671,-123.66334,-125.40931,-127.23965,-128.8512,-130.02869,-130.75427,-131.20959,-131.66306,-132.31096,-133.17653,-134.13515,-135.04684,-135.89795,-136.84087,-138.0883,-139.72598,-141.57661,-143.22803,-144.23172,-144.35783,-143.74048,-142.80882,-142.03671,-141.66861,-141.60155,-141.50246,-141.08167,-140.33354,-139.57433,-139.24428,-139.6066,-140.55173,-141.64912,-142.42006,-142.65059,-142.53232,-142.5325,-143.07866,-144.26871,-145.79799,-147.14548,-147.88652,-147.92265,-147.48921,-146.96526,-146.64342,-146.62575,-146.8923,-147.44104,-148.33826,-149.60312,-151.01155,-152.01631,-151.93298,-150.35153,-147.52791,-144.45213,-142.45102,-142.4839,-144.53032,-147.47333,-149.61465,-149.57088,-147.03922,-142.96837,-139.01457,-136.5976,-136.12126,-136.825,-137.34256,-136.60745,-134.53732,-132.08022,-130.61232,-131.07726,-133.40091,-136.5217,-138.98419,-139.70911,-138.48087,-135.91013,-132.97054,-130.44966,-128.64973,-127.45673,-126.63432,-126.07526,-125.82578,-125.90685,-126.12633,-126.08013,-125.38462,-123.98531,-122.30246,-121.06879,-120.92657,-122.03082,-123.92274,-125.77411,-126.86417,-126.99496,-126.58278,-126.36508,-126.90208,-128.18141,-129.57002,-130.1458,-129.21469,-126.71384,-123.27508,-119.92255,-117.58038,-116.65685,-116.90997,-117.63361,-118.0369,-117.60932,-116.30145,-114.4678,-112.64128,-111.2737,-110.56358,-110.42513,-110.57643,-110.68113,-110.47627,-109.84715,-108.84113,-107.63117,-106.44376,-105.46857,-104.77428,-104.26685,-103.72522,-102.92249,-101.78993,-100.53304,-99.600883,-99.466545,-100.28315,-101.58398,-102.22466,-100.68098,-95.638069,-86.625725,-74.377594,-60.686913,-47.767853,-37.391991,-30.20509,-25.552284,-21.881668,-17.498308,-11.273643,-2.975275,6.8732986,17.419205,27.878027,37.675636,46.342556,53.380566,58.350586,61.246548,62.945992,65.365379,71.039139,82.16452,99.521141,121.84442,146.06779,168.41388,185.84988,197.20204,203.38831,206.69304,209.5079,213.2169,217.77397,222.10178,224.98415,225.89473,225.3112,224.41321,224.42403,226.01875,229.11349,233.07454,237.13477,240.73064,243.59573,245.65169,246.87299,247.27512,247.02699,246.54129,246.37625,246.91367,247.97325,248.63602,247.47917,243.19402,235.30418,224.58855,212.93373,202.63817,195.49811,192.13733,191.91505,193.42834,195.30156,196.81618,198.05737,199.55882,201.72588,204.42772,207.01181,208.70432,209.10751,208.45174,207.43396,206.75977,206.70602,207.00424,207.11971,206.7216,205.99713,205.563,206.0098,207.38853,209.02228,209.83211,209.02107,206.68735,203.93079,202.3007,202.84177,205.27539,207.82069,207.81975,202.88437,191.99013,175.97302,157.20811,138.66664,122.82341,110.88954,102.61955,96.648521,91.122116,84.353622,75.326378,63.956764,51.081638,38.156887,26.710754,17.7108,11.114773,5.872777,0.46599749,-6.2326713,-14.231401,-22.278597,-28.465359,-31.28507,-30.547325,-27.578259,-24.540688,-23.245344,-24.160042,-26.225876,-27.601225,-26.874939,-23.991051,-20.306662,-17.753366,-17.6394,-19.850561,-22.943209,-25.049242,-25.003325,-22.981344,-20.271067,-18.354076,-17.899645,-18.29846,-18.003147,-15.44247,-9.9535751,-2.2093577,6.0521631,12.794349,16.517897,16.7815,14.248857,10.343941,6.7201166,4.7385039,5.0812054,7.572392,11.259062,14.766394,16.849312,16.938374,15.416987,13.451688,12.4202,13.221158,15.843283,19.435738,22.823734,25.143726,26.212322,26.437412,26.394548,26.406693,26.429144,26.285957,26.021599,26.037792,26.856342,28.659437,30.971947,32.789993,33.150917,31.797081,29.467136,27.56049,27.336126,29.140942,32.174446,34.96225,36.248772,35.743153,34.251183,33.13348,33.467701,35.464237,38.483513,41.579277,44.147385,46.225933,48.278416,50.676144,53.300758,55.571743,56.866337,56.99799,56.378197,55.732533,55.585152,55.907074,56.202667,55.974331,55.20755,54.485577,54.608707,55.968834,58.138229,60.009411,60.443733,59.014896,56.336479,53.721359,52.364433,52.568024,53.513863,53.736076,52.000435,48.045177,42.745232,37.638649,34.141117,32.921192,33.745369,35.771667,38.013504,39.674171,40.238598,39.428791,37.201336,33.848392,30.077759,26.877453,25.101828,24.966125,25.798065,26.307957,25.318342,22.548544,18.936331,16.217394,15.948427,18.548853,22.97312,27.255886,29.620939,29.471695,27.644005,25.771788,25.189775,26.094736,27.507067,28.035757,26.911793,24.578278,22.428883,21.864494,23.302065,25.808374,27.619329,27.22044,24.294992,19.936308,16.001476,14.034001,14.439933,16.408247,18.565058,19.882769,20.235594,20.270243,20.742435,21.824932,22.889326,22.917639,21.256365,18.185642,14.896699,12.862599,12.987479,15.065278,17.883972,19.908598,20.128153,18.570354,16.210249,14.368784,13.982295,15.160556,17.241611,19.246525,20.426073,20.586092,20.052597,19.363285,18.909714,18.739321,18.595875,18.128235,17.119947,15.613303,13.885521,12.317666,11.235155,10.78808,10.906026,11.332397,11.725364,11.798109,11.452004,10.842337,10.327019,10.296527,10.95235,12.149933,13.410118,14.121129,13.842196,12.546927,10.663661,8.8796015,7.8138461,7.7446594,8.5431347,9.8357401,11.273412,12.721311,14.245224,15.91899,17.610462,18.927567,19.397017,18.777756,17.296309,15.620038,14.546449,14.579,15.649004,17.160469,18.326967,18.574501,17.738823,15.930018,13.178617,9.1498003,3.1844976,-5.2970638,-16.270096,-28.83325,-41.446449,-52.61916,-61.674629,-69.116829,-76.331451,-84.75032,-94.954514,-106.25681,-117.03374,-125.62692,-131.28285,-134.57108,-137.03532,-140.29614,-145.14732,-151.1757,-157.09918,-161.58176,-164.01729,-164.83232,-165.18364,-166.29555,-168.86324,-172.8459,-177.68564,-182.72217,-187.50153,-191.81937,-195.56813,-198.59346,-200.71765,-201.90965,-202.42557,-202.74306,-203.27399,-204.03981,-204.57027,-204.16164,-202.37883,-199.48457,-196.48209,-194.68428,-195.03128,-197.56044,-201.36061,-205.05196,-207.51088,-208.41484,-208.30441,-208.16472,-208.81299,-210.46532,-212.705,-214.80447,-216.15018,-216.50542,-216.00394,-214.96127,-213.6835,-212.39349,-211.25789,-210.40779,-209.87669,-209.49585,-208.87634,-207.57344,-205.38287,-202.57149,-199.83195,-197.91409,-197.12619,-197.04195,-196.66309,-195.00197,-191.74423,-187.54823,-183.73416,-181.50517,-181.17365,-181.90239,-182.16754,-180.68741,-177.24226,-172.85457,-169.19092,-167.5407,-167.99963,-169.36108,-169.77232,-167.73964,-162.86893,-155.92609,-148.25208,-140.96519,-134.47281,-128.55441,-122.86446,-117.42689,-112.736,-109.39566,-107.58288,-106.76039,-105.88754,-104.01913,-100.89378,-97.102287,-93.702759,-91.521729,-90.594727,-90.109108,-88.881783,-86.058769,-81.592186,-76.212082,-70.94593,-66.519302,-63.015179,-59.967026,-56.763062,-53.054577,-48.901531,-44.606152,-40.411583,-36.317123,-32.144035,-27.77618,-23.361013,-19.289579,-15.951498,-13.443477,-11.459423,-9.4646187,-7.0467119,-4.1952929,-1.2971538,1.172556,3.0642633,4.7836518,7.1533194,10.958589,16.440453,23.046255,29.601295,34.818439,37.871487,38.735325,38.141644,37.213062,36.989452,38.073219,40.513504,43.908947,47.622177,50.997124,53.522762,54.935349,55.263672,54.80798,54.039635,53.43819,53.327522,53.793304,54.727455,55.967758,57.433582,59.157803,61.18935,63.442989,65.62616,67.330681,68.259621,68.448212,68.314995,68.474045,69.393974,71.102821,73.128082,74.727348,75.289963,74.684631,73.358589,72.137924,71.84404,72.927666,75.289124,78.338486,81.232628,83.172562,83.661041,82.666763,80.670265,78.569611,77.431702,78.123634,80.941559,85.415627,90.437943,94.715904,97.360886,98.304344,98.289757,98.414749,99.470627,101.47031,103.66268,105.03844,105.01766,103.87825,102.63427,102.42113,103.76971,106.23826,108.65421,109.82883,109.29896,107.62363,106.04263,105.70896,106.97736,109.19137,111.09109,111.57305,110.32461,107.95585,105.58385,104.16515,104.00218,104.69955,105.53532,105.95525,105.85954,105.5364,105.356,105.48647,105.83638,106.22672,106.61107,107.13659,107.98386,109.12138,110.2012,110.7255,110.39802,109.40287,108.37026,107.99879,108.56911,109.70192,110.5818,110.55075,109.68883,108.94952,109.67479,112.72713,117.77724,123.25436,127.0901,127.88401,125.80708,122.65746,120.95677,122.55148,127.5068,133.94246,138.92947,139.95905,136.17081,128.68349,119.90497,112.28062,107.22196,104.77985,104.12731,104.41524,105.38311,107.33714,110.58482,114.80409,118.87223,121.34885,121.33171,119.10301,116.07909,114.0141,113.91375,115.34776,116.64543,115.92207,112.34809,106.8772,101.93546,100.17836,102.99158,109.59454,117.28812,122.74947,123.68773,119.97235,113.63993,107.802,105.05928,106.26297,110.23756,114.54425,116.82121,115.97788,112.65385,108.77691,106.52231,107.24479,110.90924,116.24268,121.44914,125.07098,126.5582,126.30893,125.24177,124.19285,123.48354,122.86906,121.84138,120.06281,117.65257,115.16242,113.27689,112.43903,112.63251,113.43731,114.29703,114.81236,114.88109,114.63076,114.23778,113.79245,113.3078,112.83427,112.54234,112.65443,113.23891,114.02154,114.40289,113.74787,111.80595,108.97954,106.2045,104.43696,104.01527,104.29308,103.81236,100.96339,94.765137,85.304291,73.5728,60.82,47.844212,34.682373,20.887939,6.1910124,-8.9263296,-23.157763,-34.893692,-43.035,-47.601868,-49.762375,-51.261608,-53.588749,-57.352268,-62.17535,-67.096085,-71.17807,-73.97081,-75.61454,-76.627602,-77.578453,-78.84346,-80.529259,-82.511765,-84.505852,-86.130333,-86.996086,-86.843979,-85.690689,-83.874939,-81.919167,-80.242012,-78.893234,-77.51516,-75.607613,-72.954964,-69.921249,-67.36451,-66.162849,-66.629128,-68.212173,-69.731514,-70.048386,-68.766945,-66.507439,-64.55265,-64.077705,-65.45459,-68.078308,-70.814362,-72.751526,-73.747627,-74.413322,-75.578903,-77.647568,-80.303345,-82.770424,-84.413216,-85.219528,-85.801903,-86.914993,-88.851791,-91.178055,-93.017731,-93.692474,-93.246933,-92.463791,-92.34053,-93.396767,-95.312836,-97.165421,-98.091072,-97.893044,-97.145981,-96.724159,-97.110245,-98.012321,-98.591751,-98.142555,-96.706589,-95.13253,-94.490791,-95.2528,-96.86087,-98.069008,-97.878448,-96.416183,-95.071091,-95.670219,-99.150139,-104.58938,-109.31028,-110.10289,-104.88951,-93.827835,-79.171501,-63.975899,-50.456795,-39.011909,-28.470169,-17.335005,-5.1582398,6.8768172,16.545708,21.957521,22.821152,20.789215,18.655474,18.892351,22.397242,28.154142,33.942295,37.614971,38.19371,36.209217,33.208862,30.821228,29.950148,30.502947,31.691793,32.626732,32.816784,32.32748,31.586151,31.022007,30.778801,30.649734,30.235531,29.20706,27.514862,25.430323,23.395943,21.761042,20.544538,19.366329,17.614483,14.789449,10.849549,6.3466897,2.2287199,-0.63211244,-1.9456347,-2.2451763,-2.6816969,-4.4358206,-8.0506315,-13.065254,-18.182425,-21.906225,-23.311647,-22.522343,-20.633852,-19.131819,-19.134331,-20.870167,-23.651917,-26.315115,-27.847132,-27.859474,-26.685059,-25.11112,-23.945982,-23.665545,-24.29211,-25.503693,-26.856581,-27.981884,-28.676228,-28.890017,-28.668543,-28.102154,-27.309298,-26.442669,-25.694805,-25.284304,-25.417074,-26.228014,-27.718592,-29.71476,-31.874657,-33.76564,-35.001228,-35.390663,-35.031567,-34.291042,-33.672157,-33.623943,-34.385006,-35.931133,-38.036953,-40.40078,-42.758919,-44.942177,-46.877472,-48.57093,-50.101601,-51.619675,-53.316734,-55.348267,-57.734745,-60.307487,-62.757374,-64.78141,-66.244667,-67.24585,-68.027077,-68.776962,-69.464439,-69.837982,-69.618858,-68.773499,-67.671928,-66.991997,-67.390472,-69.126556,-71.875992,-74.868134,-77.277328,-78.636597,-79.027382,-78.946487,-78.961502,-79.394806,-80.238266,-81.323952,-82.589607,-84.212891,-86.492638,-89.552437,-93.088936,-96.376312,-98.571205,-99.153923,-98.234856,-96.526794,-94.987267,-94.337021,-94.730553,-95.752945,-96.715721,-97.056259,-96.608383,-95.616455,-94.529137,-93.725937,-93.337822,-93.237404,-93.165237,-92.894135,-92.33976,-91.577118,-90.776917,-90.104424,-89.625748,-89.25824,-88.790085,-87.974274,-86.667809,-84.949944,-83.142097,-81.691109,-80.957375,-81.023399,-81.648338,-82.417023,-83.007217,-83.409622,-83.950668,-85.090378,-87.118759,-89.948853,-93.143814,-96.156212,-98.612671,-100.4516,-101.838,-102.95107,-103.83612,-104.4536,-104.88338,-105.4894,-106.84627,-109.40096,-113.07029,-117.08439,-120.26949,-121.67418,-121.17543,-119.6547,-118.57214,-119.1505,-121.65648,-125.23598,-128.42284,-130.01009,-129.73453,-128.34656,-127.04059,-126.64135,-127.09393,-127.58858,-127.21476,-125.67983,-123.59091,-122.10356,-122.17482,-123.92455,-126.52838,-128.70453,-129.46484,-128.64516,-126.90226,-125.23225,-124.36724,-124.44586,-125.12254,-125.96289,-126.79715,-127.78004,-129.15752,-130.96674,-132.92914,-134.62411,-135.79572,-136.53377,-137.16875,-137.95044,-138.76064,-139.09943,-138.38333,-136.35364,-133.29607,-129.89857,-126.83391,-124.35756,-122.20595,-119.86514,-117.01035,-113.7907,-110.74555,-108.41115,-106.90846,-105.8251,-104.49343,-102.47495,-99.8993,-97.39782,-95.657181,-94.897408,-94.649002,-94.008438,-92.220001,-89.192711,-85.583641,-82.354691,-80.059441,-78.307922,-75.764717,-70.718544,-61.920509,-49.2328,-33.743172,-17.298656,-1.7095476,11.991903,23.928638,35.288147,47.863373,63.43071,83.168816,107.26411,134.78915,163.89142,192.2682,217.81281,239.22215,256.32513,269.97372,281.52774,292.16595,302.35416,311.72433,319.39984,324.56339,326.94595,326.98129,325.57782,323.67462,321.8497,320.18509,318.42099,316.26764,313.67514,310.91907,308.48236,306.82309,306.15768,306.35611,306.98108,307.44489,307.22507,306.06723,304.10281,301.82251,299.89053,298.85367,298.86853,299.58887,300.29492,300.22394,298.94058,296.54913,293.62576,290.90564,288.90042,287.65976,286.8006,285.76816,284.1651,281.96408,279.51001,277.34866,276,275.78738,276.75931,278.67609,281.02637,283.08524,284.06247,283.3631,280.88925,277.22168,273.52075,271.11313,270.92282,273.03812,276.67175,280.56601,283.63336,285.47156,286.45923,287.39069,288.89093,290.98065,293.05429,294.26031,294.01691,292.32376,289.68469,286.72333,283.77005,280.69437,277.06503,272.48779,266.86255,260.3884,253.35066,245.8905,237.95552,229.46873,220.55882,211.62697,203.1454,195.30524,187.78296,179.84624,170.78412,160.38969,149.13928,137.88791,127.23252,116.95676,105.96458,92.814606,76.566292,57.415218,36.700531,16.260117,-2.4666553,-19.019737,-33.823902,-47.515553,-60.183083,-71.0755,-79.0131,-83.241158,-84.139534,-83.26815,-82.656776,-83.755547,-86.706154,-90.403008,-93.307587,-94.490425,-94.229042,-93.783813,-94.514572,-96.930733,-100.3055,-103.11006,-103.98632,-102.63098,-100.02821,-97.892258,-97.68026,-99.788094,-103.39878,-107.02572,-109.36928,-109.95167,-109.18748,-107.9334,-106.87693,-106.17495,-105.53373,-104.60414,-103.36847,-102.23727,-101.80296,-102.43981,-104.03303,-106.01379,-107.6634,-108.47903,-108.3759,-107.6285,-106.62816,-105.63373,-104.66554,-103.57519,-102.20776,-100.53349,-98.672974,-96.826103,-95.172775,-93.811996,-92.761574,-91.994896,-91.477654,-91.183395,-91.090286,-91.168571,-91.361366,-91.556931,-91.562714,-91.110481,-89.92424,-87.849174,-84.986427,-81.743195,-78.731567,-76.531166,-75.42556,-75.260345,-75.516472,-75.567268,-74.972862,-73.639297,-71.757225,-69.581245,-67.216629,-64.57074,-61.504684,-58.071011,-54.651596,-51.870174,-50.307289,-50.186394,-51.22863,-52.770336,-54.071175,-54.627594,-54.319431,-53.342823,-52.024239,-50.668636,-49.532238,-48.884903,-49.040215,-50.256531,-52.531895,-55.436386,-58.145515,-59.72649,-59.555832,-57.633572,-54.596893,-51.410137,-48.908306,-47.461666,-46.94606,-47.00071,-47.370274,-48.085251,-49.363155,-51.319485,-53.718761,-55.970783,-57.40535,-57.657578,-56.90855,-55.812283,-55.143448,-55.382099,-56.490257,-58.006954,-59.381283,-60.316624,-60.906269,-61.490215,-62.349148,-63.452129,-64.428139,-64.779503,-64.200569,-62.80727,-61.146259,-59.986431,-60.008572,-61.541683,-64.44471,-68.151154,-71.835068,-74.641769,-75.934036,-75.504768,-73.690445,-71.313889,-69.424049,-68.891724,-70.020782,-72.372673,-74.92968,-76.557022,-76.552368,-74.999527,-72.729729,-70.901146,-70.41996,-71.517189,-73.70578,-76.122673,-78.039688,-79.238121,-80.035179,-80.967957,-82.347916,-83.972519,-85.178543,-85.210495,-83.685875,-80.880966,-77.666283,-75.123329,-74.052071,-74.630875,-76.393791,-78.507744,-80.173515,-80.928421,-80.712738,-79.715599,-78.143547,-76.080055,-73.519661,-70.527176,-67.380058,-64.562393,-62.584232,-61.729797,-61.901577,-62.677185,-63.558483,-64.258682,-64.835533,-65.573112,-66.684494,-68.041939,-69.141106,-69.359016,-68.360909,-66.386635,-64.198318,-62.679356,-62.311501,-62.861023,-63.493279,-63.267376,-61.708496,-59.090221,-56.237408,-53.975109,-52.591579,-51.683361,-50.496246,-48.531158,-45.984535,-43.686638,-42.538837,-42.811008,-43.792179,-44.08474,-42.413788,-38.461563,-33.181583,-28.350657,-25.594557,-25.465265,-27.129669,-28.856024,-28.995872,-26.867092,-23.031797,-18.860748,-15.717019,-14.289413,-14.449355,-15.620605,-17.313202,-19.406485,-21.998541,-24.98793,-27.76346,-29.300661,-28.661364,-25.585403,-20.772581,-15.642616,-11.698538,-9.8710461,-10.219778,-12.122728,-14.773281,-17.637581,-20.60293,-23.79578,-27.278418,-30.886757,-34.326107,-37.42136,-40.293762,-43.298004,-46.74699,-50.625237,-54.511837,-57.785145,-59.975697,-61.025143,-61.277504,-61.222496,-61.185581,-61.186962,-61.055305,-60.685932,-60.225071,-60.022324,-60.376156,-61.264221,-62.274708,-62.815498,-62.475124,-61.292191,-59.745312,-58.466614,-57.871723,-57.95332,-58.365353,-58.719383,-58.869942,-58.984695,-59.360031,-60.131645,-61.105995,-61.847427,-61.965584,-61.396534,-60.469078,-59.696857,-59.431679,-59.615322,-59.804321,-59.457767,-58.299397,-56.514317,-54.649879,-53.284355,-52.675293,-52.607628,-52.529778,-51.885933,-50.439899,-48.404781,-46.320068,-44.765205,-44.077652,-44.2174,-44.82217,-45.394901,-45.515953,-44.987728,-43.873367,-42.442574,-41.063911,-40.084251,-39.727306,-40.034081,-40.858749,-41.918159,-42.874634,-43.420387,-43.338642,-42.537739,-41.073315,-39.170422,-37.231659,-35.790745,-35.375919,-36.297226,-38.442486,-41.206612,-43.64336,-44.817818,-44.209438,-41.95303,-38.76424,-35.56004,-32.963177,-30.962015,-28.922045,-25.947386,-21.384163,-15.170657,-7.8298683,-0.11736773,7.4513502,14.896996,22.712328,31.484468,41.45303,52.298351,63.308819,73.829422,83.70076,93.385765,103.66589,115.06262,127.33326,139.37683,149.66068,156.96834,161.05946,162.85503,164.0157,166.12508,169.92322,175.01523,180.21095,184.28677,186.71463,187.92563,188.95593,190.69797,193.2233,195.60728,196.38672,194.39894,189.51485,182.83069,176.19591,171.33563,169.05267,168.9334,169.68095,169.84639,168.53108,165.69823,161.99406,158.26854,155.12231,152.73096,150.9794,149.73761,149.0464,149.08282,149.94952,151.45642,153.0602,154.01341,153.64079,151.59383,147.96703,143.25047,138.17262,133.50836,129.90128,127.71622,126.93755,127.15051,127.65161,127.69223,126.78105,124.90614,122.54793,120.45219,119.26745,119.23687,120.10958,121.30972,122.25242,122.61925,122.44614,122.0033,121.56966,121.24947,120.92578,120.34747,119.27307,117.58806,115.35661,112.81479,110.32329,108.28144,106.99662,106.5332,106.61337,106.65843,106.00217,104.19681,101.24397,97.59697,93.913559,90.706703,88.123077,85.99556,84.113655,82.479362,81.312706,80.765427,80.561234,79.899406,77.811279,73.818985,68.45401,63.193531,59.720314,58.898136,60.132992,61.617588,61.398407,58.618408,54.099758,49.818222,47.563122,47.67028,48.721794,48.47393,45.41259,39.8517,33.759708,29.378407,27.585163,27.197075,25.797192,21.572645,14.85954,8.1975298,4.6988034,5.7688746,9.797677,12.892596,11.353333,4.3111072,-5.3106151,-12.346126,-12.614298,-5.7823143,4.0588732,10.610102,9.0533094,-1.103478,-15.829563,-29.115793,-36.577435,-37.782932,-35.884438,-34.964554,-37.03265,-40.764004,-42.796497,-40.572227,-34.619385,-28.561293,-26.750154,-31.120243,-39.465145,-46.426743,-46.667973,-38.213326,-23.798639,-9.3594189,-0.63391507,-0.032156985,-5.6689057,-13.000969,-17.844532,-18.782671,-17.54026,-17.348795,-20.615667,-27.515676,-36.307323,-44.899757,-52.367283,-59.280636,-66.70079,-74.719627,-81.775261,-85.392189,-83.92778,-78.117516,-71.263702,-67.769615,-70.805809,-80.481834,-93.618851,-105.27091,-111.14153,-109.59058,-102.24137,-93.020355,-86.262611,-84.870239,-89.310226,-97.715149,-106.84486,-113.40982,-115.26329,-112.11298,-105.56961,-98.513275,-93.95369,-93.782669,-97.95314,-104.52921,-110.67869,-114.17357,-114.61552,-113.67099,-114.11777,-118.19711,-126.21824,-136.25896,-145.17682,-150.35382,-151.13672,-149.10721,-147.02718,-147.11694,-149.72948,-153.2261,-155.10359,-153.64583,-149.05984,-143.39539,-139.31386,-138.48262,-140.58559,-143.54283,-144.78279,-142.77715,-137.91147,-132.18452,-127.93313,-126.33889,-126.56972,-126.01367,-121.43716,-110.41238,-92.27401,-68.190018,-40.445652,-11.435537,17.067963,44.05444,68.902985,90.875038,108.88882,121.77453,128.88242,130.67551,128.91719,126.26666,125.40531,128.06793,134.41568,143.03601,151.56883,157.67834,159.94981,158.34515,154.06743,148.94992,144.67789,142.18802,141.47008,141.78874,142.15723,141.81026,140.4706,138.33714,135.86601,133.49779,131.47247,129.79437,128.31596,126.85666,125.2813,123.5144,121.52094,119.3044,116.94864,114.68332,112.91589,112.17603,112.96049,115.52586,119.71876,124.93147,130.2253,134.59178,137.25989,137.9321,136.85681,134.7084,132.32344,130.39839,129.26888,128.8539,128.77582,128.58961,128.00766,127.01221,125.80893,124.65868,123.69176,122.81763,121.78676,120.36755,118.5246,116.47464,114.56766,113.05518,111.89629,110.74982,109.19459,107.06183,104.65337,102.64078,101.60826,101.4379,100.89797,97.765633,89.571358,74.7034,53.348175,27.738058,1.4739664,-21.844507,-40.058823,-53.253254,-63.504501,-73.699257,-86.029655,-100.94524,-117.08437,-132.16486,-144.28975,-152.91866,-158.98372,-164.14978,-169.71902,-175.86214,-181.62338,-185.6496,-187.14803,-186.45815,-184.8905,-183.96115,-184.52571,-186.35883,-188.41852,-189.59068,-189.4144,-188.32814,-187.30956,-187.17857,-188.03731,-189.20836,-189.69447,-188.84886,-186.82872,-184.564,-183.28516,-183.90787,-186.61812,-190.83928,-195.52403,-199.56294,-202.10866,-202.73457,-201.46231,-198.71997,-195.24278,-191.88199,-189.3188,-187.7784,-186.91307,-185.9805,-184.27283,-181.5623,-178.26994,-175.21149,-173.05708,-171.86444,-171.03302,-169.75453,-167.67253,-165.26859,-163.63332,-163.69177,-165.36938,-167.30157,-167.3904,-163.96136,-156.83255,-147.59361,-138.84706,-132.81744,-130.15805,-129.68927,-129.2285,-126.98638,-122.6506,-117.49315,-113.47527,-111.96509,-112.90504,-114.93553,-116.33126,-116.08347,-114.40809,-112.39307,-111.10191,-110.80178,-110.85294,-110.29226,-108.63893,-106.30373,-104.29121,-103.41604,-103.62197,-103.92845,-103.08059,-100.46471,-96.642586,-93.104179,-91.372093,-92.038361,-94.366287,-96.712616,-97.483086,-95.997581,-92.731636,-88.839417,-85.338142,-82.520195,-79.950462,-76.970566,-73.288216,-69.212212,-65.39325,-62.311985,-59.935829,-57.820251,-55.576782,-53.336147,-51.821037,-51.921135,-54.032082,-57.613441,-61.295734,-63.508129,-63.252739,-60.555164,-56.334866,-51.812031,-47.846336,-44.608147,-41.727291,-38.736862,-35.454964,-32.034538,-28.683195,-25.310614,-21.419792,-16.381618,-9.9460192,-2.6457467,4.2201624,9.092083,10.907635,9.7004232,6.693717,3.812458,2.8521035,4.7254004,9.1586056,14.962621,20.702682,25.398108,28.897736,31.777763,34.876396,38.763962,43.450806,48.467876,53.222748,57.378353,61.011559,64.470963,68.056419,71.75367,75.204636,77.919014,79.561333,80.104446,79.75489,78.743217,77.184113,75.153603,72.936615,71.216148,70.963531,72.987122,77.380646,83.266098,89.101738,93.467674,95.881248,97.101257,98.661865,101.87947,106.96211,112.83309,117.8301,120.84172,122.1089,123.10986,125.56338,130.21693,136.27806,141.93472,145.64961,147.3325,148.52527,151.39357,157.17204,165.15144,172.97987,178.15561,179.72029,178.94531,178.43933,180.19075,183.85513,186.52153,184.24559,174.43431,157.53046,136.84375,116.57838,99.324585,84.67749,69.929268,52.4016,31.863546,11.377084,-4.0830464,-10.428758,-6.9226627,3.2595663,14.73094,22.796722,25.775949,25.387287,25.113241,27.71261,33.492279,40.337536,45.29771,46.548027,44.41853,40.915657,38.210403,37.208733,37.160271,36.471413,34.051189,30.204283,26.469007,24.566504,25.228855,27.711044,30.280533,31.306583,30.205778,27.661356,25.065878,23.645855,23.871284,25.474379,27.937922,31.008001,34.835487,39.683056,45.480602,51.617489,57.164055,61.381851,64.163986,66.098328,68.115952,70.970711,74.8908,79.59581,84.605362,89.578079,94.438622,99.244164,103.95149,108.313,112.01063,114.93094,117.35424,119.87766,123.08398,127.16326,131.74823,136.09489,139.51367,141.78969,143.33524,144.98647,147.57443,151.52585,156.70819,162.5692,168.44736,173.8567,178.60684,182.74802,186.4364,189.83122,193.07274,196.30809,199.69794,203.36745,207.32828,211.4359,215.43062,219.05324,222.17421,224.86577,227.38318,230.07397,233.26379,237.16187,241.80348,247.02933,252.50452,257.7915,262.48361,266.37131,269.57047,272.53271,275.90115,280.25983,285.89526,292.69144,300.20755,307.88046,315.22873,321.95352,327.92383,333.12186,337.64658,341.80045,346.18213,351.65558,359.1246,369.17667,381.77408,396.16882,411.08478,425.03281,436.53738,444.13309,446.19528,440.84836,426.19846,400.9274,364.98642,319.957,268.75259,214.6971,160.41348,107.12644,54.777351,2.8747852,-48.455208,-97.892746,-143.20705,-182.24095,-213.98651,-239.07617,-259.38275,-276.98599,-293.15344,-307.94772,-320.6395,-330.57416,-337.86566,-343.44962,-348.50027,-353.66403,-358.68002,-362.66583,-364.85953,-365.2739,-364.77591,-364.51425,-365.09253,-366.08682,-366.28528,-364.5325,-360.63019,-355.68204,-351.62177,-350.19785,-352.04462,-356.40982,-361.67633,-366.30521,-369.57803,-371.68665,-373.18176,-374.22403,-374.19647,-371.96533,-366.61612,-358.15756,-347.7038,-336.98923,-327.50839,-319.80768,-313.34714,-306.97827,-299.70685,-291.26279,-282.16284,-273.29489,-265.34134,-258.41779,-252.11859,-245.87717,-239.362,-232.64482,-226.0634,-219.91264,-214.19559,-208.59909,-202.6918,-196.19667,-189.15724,-181.90311,-174.85376,-168.29146,-162.23296,-156.45506,-150.63708,-144.5318,-138.08195,-131.44252,-124.91545,-118.83099,-113.4184,-108.70764,-104.49819,-100.41661,-96.053963,-91.135277,-85.646011,-79.847816,-74.164162,-68.983467,-64.475945,-60.518414,-56.766712,-52.836613,-48.49662,-43.771637,-38.906857,-34.217823,-29.912748,-25.986387,-22.244791,-18.449018,-14.499049,-10.55135,-6.990912,-4.2521658,-2.5690811,-1.78812,-1.363345,-0.56756973,1.1654731,3.9410949,7.3175683,10.502933,12.747289,13.72348,13.68349,13.300618,13.290655,14.037116,15.439365,17.058199,18.442099,19.405884,20.077234,20.697388,21.341053,21.78063,21.613928,20.575615,18.803091,16.841459,15.348936,14.683215,14.652309,14.617697,13.900128,12.223105,9.890748,7.5720596,5.8352857,4.7553635,3.872714,2.5390127,0.41165489,-2.2520068,-4.7149982,-6.2214847,-6.4840474,-5.8637271,-5.1243896,-4.9405475,-5.504766,-6.4979386,-7.4150786,-7.980104,-8.3273087,-8.816741,-9.6439905,-10.578632,-11.07997,-10.746534,-9.7708349,-9.0159988,-9.569438,-12.008707,-15.865654,-19.700462,-21.821022,-21.246325,-18.315628,-14.537292,-11.742751,-11.056076,-12.313145,-14.278857,-15.501605,-15.244636,-13.90407,-12.674681,-12.717973,-14.395048,-17.055079,-19.481726,-20.665947,-20.382517,-19.213512,-18.053766,-17.47574,-17.396395,-17.248663,-16.496023,-15.09705,-13.581305,-12.687531,-12.82938,-13.772759,-14.756392,-14.976237,-14.104182,-12.491869,-10.928798,-10.124966,-10.266045,-10.928272,-11.389936,-11.112306,-10.061977,-8.6703472,-7.4812102,-6.7476387,-6.2634053,-5.5427594,-4.2169104,-2.3643947,-0.53602755,0.55885392,0.50880599,-0.49673674,-1.720852,-2.2674508,-1.5737989,0.28579339,2.658375,4.685205,5.7602901,5.8126082,5.2751164,4.7976995,4.9001064,5.765192,7.25595,9.0904884,11.026943,12.939445,14.770487,16.440952,17.817627,18.773773,19.288385,19.488853,19.583614,19.723787,19.900957,19.973907,19.823071,19.525599,19.408752,19.911009,21.315857,23.528217,26.056505,28.239086,29.590498,30.053349,29.99308,29.937143,30.228901,30.824417,31.364464,31.467733,31.040611,30.3876,30.042633,30.431696,31.591454,33.129646,34.450359,35.093849,34.973907,34.375927,33.74371,33.415398,33.480846,33.826527,34.295197,34.818527,35.425858,36.146717,36.914478,37.572636,37.991402,38.199127,38.40723,38.88393,39.754696,40.878029,41.902847,42.483383,42.505424,42.15934,41.801628,41.702881,41.869389,42.075512,42.086128,41.898014,41.802723,42.199112,43.275288,44.79491,46.168243,46.79195,46.440216,45.432064,44.438717,44.042336,44.340816,44.877708,44.961411,44.167698,42.681335,41.229633,40.633198,41.263531,42.770512,44.270535,44.88163,44.260632,42.795208,41.332462,40.629879,40.89093,41.680988,42.260788,42.100773,41.23241,40.215122,39.758717,40.26178,41.564995,43.061146,44.067715,44.212143,43.597458,42.67778,41.958923,41.72662,41.951923,42.386173,42.741081,42.826309,42.584179,42.051094,41.316235,40.51757,39.852856,39.550579,39.775551,40.510746,41.502293,42.332848,42.60799,42.157372,41.130032,39.922539,38.98027,38.587429,38.759605,39.280228,39.832962,40.138519,40.028698,39.453876,38.466713,37.219639,35.968693,35.039497,34.723919,35.135929,36.113911,37.257526,38.112934,38.414738,38.232525,37.909756,37.808578,38.006886,38.140347,37.502476,35.355602,31.270372,25.293756,17.860659,9.5346756,0.77256382,-8.1224375,-16.84174,-24.853992,-31.337336,-35.37886,-36.372543,-34.389797,-30.279608,-25.397503,-21.078838,-18.125456,-16.569111,-15.814748,-15.05384,-13.702456,-11.636134,-9.1389999,-6.6567969,-4.534893,-2.8892362,-1.6415687,-0.63949257,0.24988078,1.1292402,2.1130054,3.3449378,4.9419127,6.8901439,8.9792614,10.851061,12.16398,12.785832,12.892323,12.898335,13.252693,14.215546,15.749282,17.580259,19.379305,20.937624,22.228531,23.332081,24.296978,25.054352,25.454147,25.399899,24.979683,24.4865,24.294594,24.659206,25.56591,26.730917,27.760035,28.373013,28.557568,28.561047,28.728273,29.287199,30.211958,31.241049,32.032829,32.361343,32.238949,31.902266,31.67893,31.815243,32.356251,33.132107,33.845924,34.212349,34.082008,33.502499,32.697147,31.973255,31.594269,31.663788,32.069565,32.519424,32.66584,32.272385,31.344387,30.150871,29.11232,28.599272,28.742107,29.355545,30.024908,30.312113,29.970686,29.05209,27.848391,26.710972,25.855597,25.266678,24.748518,24.07954,23.165489,22.094896,21.0679,20.251921,19.662039,19.144165,18.470497,17.485569,16.211479,14.849146,13.676764,12.906077,12.576198,12.536992,12.520877,12.257386,11.572356,10.433619,8.9390774,7.2683444,5.6246977,4.1841917,3.056716,2.2601004,1.7122643,1.2504911,0.68149525,-0.14805201,-1.2867166,-2.6499317,-4.0471511,-5.258688,-6.1312008,-6.6488967,-6.9460154,-7.2525401,-7.7961597,-8.7054777,-9.9601021,-11.41216,-12.868764,-14.193428,-15.372276,-16.507502,-17.739529,-19.141685,-20.651674,-22.087603,-23.247816,-24.039423,-24.554447,-25.035719,-25.738659,-26.763929,-27.965128,-29.001171,-29.51899,-29.367727,-28.714817,-27.98271,-27.628838,-27.889938,-28.642139,-29.467188,-29.895384,-29.688875,-29.000576,-28.313366,-28.191137,-28.981155,-30.632355,-32.723434,-34.67345,-36.009846,-36.550098,-36.417797,-35.915195,-35.348175,-34.905304,-34.637615,-34.514015,-34.488052,-34.525238,-34.587521,-34.611778,-34.5219,-34.279289,-33.935146,-33.634979,-33.554745,-33.799152,-34.327583,-34.96286,-35.486103,-35.761574,-35.810684,-35.784397,-35.849735,-36.065182,-36.330322,-36.447746,-36.260368,-35.774376,-35.183857,-34.775269,-34.76825,-35.192425,-35.877747,-36.563271,-37.052731,-37.316635,-37.478024,-37.698257,-38.046284,-38.444435,-38.728569,-38.777939,-38.617359,-38.410034,-38.33556,-38.433964,-38.531277,-38.317123,-37.5434,-36.222424,-34.686409,-33.446934,-32.919666,-33.175526,-33.878235,-34.462315,-34.457237,-33.765179,-32.7192,-31.878565,-31.681171,-32.166256,-32.941692,-33.42041,-33.182053,-32.235653,-31.019424,-30.137346,-29.996248,-30.567375,-31.415796,-31.972027,-31.871151,-31.149607,-30.187103,-29.445185,-29.177311,-29.292297,-29.444374,-29.275688,-28.646957,-27.713707,-26.815817,-26.269058,-26.198746,-26.511086,-26.996103,-27.471441,-27.863976,-28.186272,-28.447319,-28.580122,-28.445932,-27.909056,-26.921276,-25.551716,-23.945705,-22.253435,-20.589834,-19.054588,-17.783478,-16.967342,-16.794949,-17.338364,-18.457003,-19.801409,-20.939993,-21.548216,-21.549791,-21.121876,-20.559498,-20.083666,-19.712175,-19.269125,-18.518282,-17.328863,-15.769279,-14.079302,-12.551531,-11.403507,-10.712499,-10.43081,-10.445143,-10.627439,-10.85179,-10.992611,-10.936825,-10.622802,-10.081683,-9.4383173,-8.8507433,-8.4152441,-8.1002607,-7.7632518,-7.2508621,-6.5210586,-5.7031446,-5.0479984,-4.7937102,-5.0299478,-5.6461267,-6.3924847,-7.0097528,-7.3438854,-7.382596,-7.2104187,-6.9321904,-6.6226406,-6.323349,-6.0625858,-5.8595176,-5.7015834,-5.5246792,-5.2376518,-4.797513,-4.2856898,-3.9097869,-3.8941545,-4.3082609,-4.9512386,-5.4009514,-5.2360725,-4.3111901,-2.9018426,-1.5979594,-0.9831416,-1.2897153,-2.2545977,-3.2815816,-3.8143811,-3.6781294,-3.1622026,-2.7908411,-2.9430883,-3.5885489,-4.3224211,-4.6683431,-4.4236922,-3.7914279,-3.2008536,-2.9540122,-2.9711628,-2.8418427,-2.1594727,-0.89370751,0.49418381,1.3134127,1.1246562,0.10006544,-1.0177734,-1.366326,-0.53374404,1.1458473,2.7950776,3.5743172,3.2486844,2.344353,1.7759712,2.1985273,3.5394366,5.0484142,5.8389072,5.538053,4.5693669,3.8392048,4.0197053,4.9226565,5.4213872,4.0168986,-0.29685125,-7.4283252,-16.239189,-25.208145,-33.25618,-40.182606,-46.441818,-52.456116,-57.986134,-62.04002,-63.421143,-61.55727,-57.038029,-51.465054,-46.670681,-43.780605,-42.700439,-42.329075,-41.333691,-38.976383,-35.48204,-31.765724,-28.761078,-26.825304,-25.598896,-24.359306,-22.572712,-20.243309,-17.837952,-15.880759,-14.537292,-13.491355,-12.187832,-10.248611,-7.7555199,-5.204504,-3.1773593,-1.97227,-1.4479902,-1.1712655,-0.74051625,-0.047034018,0.70211327,1.1940458,1.2854142,1.1435744,1.1640602,1.7358252,3.0212145,4.8875494,7.0087852,9.0432014,10.765701,12.096048,13.054622,13.719265,14.224064,14.773027,15.606853,16.89646,18.615038,20.490818,22.111153,23.145576,23.555197,23.640312,23.872778,24.606236,25.852146,27.277893,28.438271,29.089758,29.37262,29.728939,30.602806,32.120842,33.970928,35.568329,36.407345,36.372746,35.811646,35.324364,35.414036,36.219299,37.489513,38.797798,39.835884,40.595024,41.327065,42.330875,43.718483,45.314583,46.744354,47.640736,47.836758,47.435333,46.737614,46.095535,45.780605,45.924709,46.528034,47.492462,48.647129,49.767948,50.617496,51.020481,50.952133,50.584873,50.245037,50.278839,50.886703,52.015263,53.37315,54.569904,55.30703,55.51825,55.382828,55.205349,55.228767,55.484547,55.764923,55.738281,55.152111,54.017452,52.670326,51.661457,51.511524,52.444752,54.237667,56.274559,57.800964,58.261066,57.550617,56.051609,54.42601,53.276363,52.856033,52.984322,53.203865,53.077576,52.444893,51.48941,50.591618,50.073421,50.001518,50.168289,50.246952,50.005486,49.434727,48.715,48.060837,47.563118,47.139385,46.616997,45.876129,44.940979,43.95406,43.061234,42.303635,41.604431,40.861362,40.06897,39.366081,38.957306,38.955116,39.257046,39.558426,39.509766,38.924225,37.898304,36.761517,35.882576,35.454147,35.389671,35.38839,35.114189,34.367634,33.150547,31.608582,29.921883,28.235567,26.669779,25.369272,24.512518,24.23414,24.497417,25.018225,25.330463,24.993261,23.832151,22.060286,20.184288,18.731621,17.956749,17.706995,17.534439,16.984861,15.88082,14.419372,13.025785,12.063632,11.594393,11.345083,10.903601,10.010703,8.753561,7.5302334,6.8036242,6.8001394,7.3440418,7.9328284,8.0085411,7.2614708,5.7887244,4.0246115,2.4989722,1.575083,1.3153902,1.5306492,1.9510136,2.391537,2.8064926,3.2154951,3.5759084,3.7102566,3.3542306,2.303247,0.56380248,-1.5924693,-3.714886,-5.3566294,-6.2543325,-6.4116983,-6.0577798,-5.5244865,-5.1238656,-5.0838017,-5.5430889,-6.5602822,-8.091733,-9.9415283,-11.739608,-13.015148,-13.379894,-12.749028,-11.467461,-10.231143,-9.7986002,-10.620525,-12.588064,-15.056046,-17.149061,-18.190996,-18.018023,-16.998672,-15.760269,-14.80064,-14.232464,-13.81673,-13.247756,-12.480857,-11.860808,-11.941208,-13.098273,-15.196296,-17.548119,-19.234512,-19.611938,-18.702543,-17.215601,-16.167969,-16.316483,-17.733625,-19.773607,-21.442383,-21.947931,-21.111189,-19.416107,-17.69973,-16.688438,-16.652517,-17.351332,-18.253326,-18.86211,-18.950357,-18.596058,-18.053795,-17.582052,-17.339195,-17.381004,-17.711412,-18.31477,-19.138969,-20.060465,-20.888321,-21.433193,-21.60531,-21.467548,-21.190903,-20.929857,-20.701363,-20.360966,-19.708313,-18.661705,-17.382603,-16.251587,-15.688938,-15.916935,-16.808271,-17.921389,-18.714878,-18.825983,-18.258801,-17.378443,-16.716404,-16.694742,-17.415981,-18.624748,-19.853996,-20.675322,-20.925125,-20.794271,-20.736197,-21.234331,-22.537788,-24.495646,-26.582966,-28.125877,-28.631721,-28.062195,-26.895151,-25.915092,-25.816006,-26.817514,-28.512255,-30.052237,-30.594831,-29.769363,-27.895628,-25.81683,-24.433912,-24.211924,-24.953096,-25.972427,-26.561695,-26.445305,-25.935318,-25.687542,-26.22193,-27.528633,-29.027966,-29.919321,-29.692934,-28.463911,-26.901154,-25.792805,-25.537153,-25.905676,-26.250111,-26.030258,-25.318964,-24.943077,-26.14567,-29.95797,-36.65226,-45.591515,-55.539772,-65.216118,-73.749123,-80.789879,-86.291992,-90.189041,-92.244911,-92.197502,-90.078903,-86.446671,-82.30825,-78.731255,-76.359169,-75.13559,-74.418968,-73.423187,-71.711105,-69.437401,-67.20208,-65.627052,-64.938713,-64.822472,-64.628548,-63.779823,-62.113205,-59.945522,-57.845509,-56.280991,-55.374481,-54.906887,-54.533089,-54.037037,-53.446278,-52.941399,-52.647148,-52.471786,-52.119362,-51.270622,-49.806919,-47.920815,-46.03532,-44.582825,-43.784863,-43.566727,-43.646198,-43.722313,-43.634365,-43.395813,-43.101967,-42.795368,-42.392746,-41.723755,-40.648617,-39.167934,-37.448658,-35.751259,-34.30864,-33.232018,-32.491081,-31.962042,-31.498274,-30.97867,-30.320568,-29.475782,-28.434345,-27.239132,-25.990059,-24.814465,-23.807047,-22.975948,-22.240149,-21.492622,-20.692318,-19.916275,-19.321291,-19.027554,-19.00119,-19.02796,-18.816353,-18.176456,-17.156025,-16.029341,-15.127781,-14.613288,-14.347994,-13.960336,-13.078982,-11.585767,-9.7143383,-7.9166865,-6.5760894,-5.7558618,-5.1580143,-4.3281479,-2.9734907,-1.1772527,0.6429804,2.0114424,2.7187648,2.9686863,3.2384968,3.9429362,5.133194,6.4463539,7.35182,7.5334334,7.1434798,6.7435021,6.9573894,8.0627766,9.7972918,11.518092,12.616555,12.915731,12.785854,12.900107,13.792855,15.513344,17.601072,19.391361,20.440239,20.785002,20.877399,21.253017,22.175611,23.499664,24.830404,25.847311,26.545898,27.220118,28.202572,29.560682,30.983326,31.957472,32.123119,31.55834,30.783663,30.463737,30.995066,32.254402,33.681805,34.65078,34.88517,34.64856,34.579803,35.279343,36.911934,39.078388,41.034355,42.115288,42.104904,41.332054,40.458126,40.103935,40.544754,41.63525,42.969639,44.144119,44.952351,45.418278,45.690147,45.900246,46.090523,46.232986,46.297764,46.296803,46.268562,46.230591,46.159573,46.035133,45.922825,46.023643,46.623714,47.941463,49.949085,52.284527,54.335739,55.485546,55.406494,54.25185,52.630131,51.357891,51.100876,52.075356,53.955536,56.032848,57.549255,58.042374,57.536667,56.49379,55.555813,55.217464,55.5952,56.406376,57.158768,57.439354,57.141182,56.506447,55.970757,55.907425,56.425278,57.336334,58.302982,59.063057,59.584797,60.05162,60.689724,61.557076,62.441963,62.950768,62.740917,61.754444,60.298023,58.905254,58.05267,57.895756,58.184872,58.414547,58.119671,57.14439,55.728245,54.365875,53.530769,53.428555,53.917515,54.62648,55.18153,55.397018,55.321831,55.131233,54.951366,54.738491,54.290775,53.380386,51.917381,50.040188,48.077541,46.406891,45.29451,44.806332,44.829636,45.176563,45.695999,46.324657,47.055077,47.854706,48.601078,49.085278,49.089565,48.49622,47.362312,45.913593,44.456409,43.252899,42.423805,41.925617,41.605751,41.297375,40.898266,40.394245,39.825523,39.2295,38.604706,37.921928,37.173176,36.42033,35.801968,35.481907,35.560593,35.997646,36.592686,37.042091,37.048851,36.434368,35.201271,33.523033,31.672754,29.928192,28.491722,27.446011,26.744547,26.226042,25.646894,24.736418,23.280508,21.222284,18.741623,16.259619,14.329939,13.428937,13.720437,14.910575,16.291496,16.994284,16.363491,14.284187,11.289103,8.3633242,6.5114317,6.2826233,7.4899912,9.2779598,10.520845,10.36181,8.6203918,5.8587766,3.0744638,1.1862426,0.5900411,1.017826,1.7585473,2.0948074,1.6919687,0.71711302,-0.36146691,-1.1437582,-1.5836668,-1.998562,-2.7970185,-4.1142282,-5.6203384,-6.6692324,-6.7377019,-5.9026566,-5.0472574,-5.6213837,-9.0341749,-15.978094,-26.040033,-37.808544,-49.420723,-59.262398,-66.471977,-71.031204,-73.467773,-74.399254,-74.199074,-72.948372,-70.63826,-67.434151,-63.798019,-60.380116,-57.755081,-56.1782,-55.516335,-55.387627,-55.409573,-55.394817,-55.381809,-55.504253,-55.808716,-56.155163,-56.270363,-55.916405,-55.059479,-53.925472,-52.903587,-52.354935,-52.438778,-53.052605,-53.910015,-54.700603,-55.237762,-55.520271,-55.692085,-55.94146,-56.40266,-57.106205,-57.985836,-58.920788,-59.784843,-60.485386,-60.989426,-61.336742,-61.634144,-62.021854,-62.613884,-63.435692,-64.397865,-65.335541,-66.106934,-66.700294,-67.278046,-68.111893,-69.425766,-71.228706,-73.242752,-74.988686,-76.003693,-76.080566,-75.39357,-74.432045,-73.770538,-73.79995,-74.567657,-75.809166,-77.13945,-78.279427,-79.180069,-79.979881,-80.842209,-81.793701,-82.677483,-83.251579,-83.362999,-83.077957,-82.680351,-82.53994,-82.935707,-83.94265,-85.440498,-87.218819,-89.095161,-90.969269,-92.795784,-94.522858,-96.064514,-97.337845,-98.334465,-99.15921,-99.989571,-100.97157,-102.12304,-103.31892,-104.37684,-105.18739,-105.79542,-106.3711,-107.08937,-108.00701,-109.03303,-110.02164,-110.92413,-111.8851,-113.20074,-115.15266,-117.82444,-121.02972,-124.41122,-127.65471,-130.67953,-133.67653,-136.96097,-140.72809,-144.86211,-148.9158,-152.27182,-154.39082,-155.01158,-154.21214,-152.33049,-149.81354,-147.07553,-144.40799,-141.93596,-139.60002,-137.16429,-134.27473,-130.58476,-125.91722,-120.38023,-114.34795,-108.28078,-102.46085,-96.791451,-90.792465,-83.815971,-75.370033,-65.364677,-54.136784,-42.247753,-30.190104,-18.191122,-6.2272034,5.7878265,17.798599,29.553984,40.755501,51.306602,61.474743,71.824501,82.930878,95.035583,107.85896,120.69009,132.70512,143.32428,152.4024,160.16377,166.95775,173.01636,178.37193,182.96519,186.83644,190.23984,193.58638,197.25211,201.38806,205.86623,210.39502,214.71507,218.73148,222.49174,226.04031,229.27814,231.95676,233.83415,234.88905,235.4279,235.97647,236.99486,238.58861,240.41463,241.86794,242.45448,242.12117,241.32422,240.77058,240.97243,241.88129,242.83092,242.8371,241.08672,237.33206,231.96098,225.70464,219.15784,212.39314,204.89127,195.82661,184.54805,170.99512,155.83627,140.27124,125.61021,112.83837,102.35577,93.976974,87.149094,81.262024,75.911583,71.021553,66.802299,63.587147,61.625221,60.915859,61.148865,61.773434,62.167603,61.836983,60.556736,58.395756,55.619305,52.52779,49.320461,46.053513,42.702408,39.273914,35.884552,32.747257,30.070633,27.934921,26.226753,24.679602,23.001804,21.021021,18.765329,16.440138,14.31984,12.616327,11.390686,10.542673,9.8697929,9.1588125,8.2680988,7.1723399,5.9581752,4.7725148,3.7368684,2.8558831,1.9629354,0.74601626,-1.1303735,-3.8439846,-7.2619534,-10.916032,-14.156054,-16.435492,-17.592476,-17.96557,-18.254786,-19.175083,-21.075972,-23.736576,-26.460537,-28.431076,-29.137951,-28.643938,-27.547789,-26.671423,-26.650686,-27.652969,-29.360424,-31.200663,-32.674168,-33.593246,-34.12075,-34.621651,-35.437332,-36.710533,-38.33379,-40.014687,-41.400269,-42.20105,-42.283295,-41.722248,-40.809578,-39.997562,-39.768291,-40.45261,-42.071842,-44.294323,-46.557034,-48.312267,-49.2742,-49.523678,-49.406006,-49.284836,-49.312477,-49.371643,-49.229656,-48.795956,-48.290474,-48.180004,-48.897621,-50.522858,-52.6516,-54.577282,-55.699574,-55.908554,-55.681141,-55.794331,-56.80743,-58.633121,-60.487907,-61.292423,-60.31321,-57.674381,-54.428478,-52.127563,-52.126751,-55.004139,-60.402805,-67.344246,-74.789307,-82.098251,-89.135239,-96.004509,-102.63985,-108.54881,-112.89841,-114.89979,-114.25372,-111.378,-107.26991,-103.07465,-99.59951,-97.034264,-95.008125,-92.917587,-90.316185,-87.145569,-83.702461,-80.400215,-77.497086,-74.963882,-72.560867,-70.056412,-67.432747,-64.937141,-62.937435,-61.666973,-61.017654,-60.51841,-59.530773,-57.565941,-54.55175,-50.899269,-47.325008,-44.517368,-42.819504,-42.089546,-41.800797,-41.316917,-40.191971,-38.346718,-36.053097,-33.765114,-31.904388,-30.707611,-30.185125,-30.170135,-30.402199,-30.600328,-30.517433,-29.991045,-28.995087,-27.66674,-26.26721,-25.061737,-24.163578,-23.436123,-22.53882,-21.125347,-19.09651,-16.749508,-14.701836,-13.596038,-13.735833,-14.870008,-16.272917,-17.100523,-16.829287,-15.523529,-13.770439,-12.319224,-11.639887,-11.665255,-11.865075,-11.595802,-10.503635,-8.7348232,-6.8364725,-5.42629,-4.8449793,-4.9994912,-5.4709754,-5.7934589,-5.7157536,-5.2934537,-4.7839241,-4.4444437,-4.3781137,-4.5154295,-4.7121162,-4.8671064,-4.9678073,-5.0418501,-5.0735102,-4.9688573,-4.6092458,-3.9565449,-3.1256309,-2.3577642,-1.8989129,-1.8571312,-2.1313846,-2.457773,-2.5425568,-2.1988289,-1.4099356,-0.29841796,0.9590593,2.2062011,3.3317873,4.2537727,4.9029331,5.2363534,5.273386,5.1159463,4.9205699,4.8277483,4.8938279,5.0762043,5.2859287,5.469202,5.6531506,5.9155636,6.2977772,6.7296147,7.0342259,7.0249715,6.6351509,5.9887652,5.3548717,5.0081615,5.0863934,5.5396428,6.2012124,6.9220524,7.6657157,8.4940376,9.4617834,10.513688,11.479715,12.187026,12.607116,12.912909,13.375589,14.152336,15.115822,15.872212,15.99511,15.34292,14.241597,13.376139,13.417187,14.596626,16.50761,18.284466,19.082859,18.579565,17.180538,15.795443,15.304691,16.041021,17.603451,19.116585,19.771849,19.31488,18.183573,17.224308,17.17536,18.240042,20.000179,21.697372,22.684702,22.764942,22.228352,21.606613,21.331886,21.523113,22.008886,22.5259,22.924107,23.230797,23.548956,23.894627,24.119757,23.99515,23.3995,22.471291,21.596786,21.219599,21.585796,22.592556,23.846699,24.90242,25.526825,25.820339,26.113178,26.707497,27.639482,28.625912,29.240351,29.211533,28.649874,28.045139,28.017879,28.962593,30.794424,32.956242,34.691864,35.435066,35.096596,34.091633,33.099754,32.698853,33.077305,33.97327,34.855373,35.226883,34.880615,33.977329,32.930012,32.181225,32.002125,32.406918,33.197945,34.087105,34.81699,35.230675,35.284393,35.02747,34.573921,34.071373,33.659389,33.416553,33.316658,33.227463,32.971439,32.430016,31.635736,30.790642,30.185474,30.054375,30.445343,31.184765,31.962133,32.489159,32.641659,32.502888,32.287468,32.197155,32.298409,32.493576,32.596306,32.458015,32.064667,31.547157,31.103964,30.88661,30.91548,31.070807,31.15881,31.014175,30.586164,29.968363,29.359812,28.97402,28.932816,29.190336,29.525934,29.621843,29.20421,28.188147,26.750267,25.274689,24.17952,23.702641,23.764357,23.997761,23.949104,23.347267,22.287218,21.208832,20.666687,21.012768,22.174253,23.65929,24.792009,25.043188,24.269749,22.737411,20.935909,19.317221,18.117462,17.348171,16.919594,16.774168,16.919687,17.344788,17.902359,18.280272,18.116653,17.203505,15.642748,13.835105,12.288615,11.356888,11.06948,11.157907,11.250243,11.095967,10.670156,10.100576,9.4942989,8.8136616,7.9091973,6.6887589,5.282505,4.0462189,3.3519912,3.276149,3.3939748,2.8499274,0.70733613,-3.601995,-9.984971,-17.721472,-25.798096,-33.333828,-39.847195,-45.235123,-49.533718,-52.672359,-54.418877,-54.558372,-53.163498,-50.734009,-48.066795,-45.908218,-44.603397,-43.974483,-43.514229,-42.770271,-41.664825,-40.53717,-39.885384,-39.990368,-40.686825,-41.444004,-41.703979,-41.244968,-40.317799,-39.459579,-39.112343,-39.310989,-39.657845,-39.602581,-38.832802,-37.501858,-36.131905,-35.256374,-35.049751,-35.20507,-35.149536,-34.452881,-33.144829,-31.715788,-30.791389,-30.698992,-31.224855,-31.735645,-31.590322,-30.566505,-29.009377,-27.595116,-26.862455,-26.828041,-26.951706,-26.486992,-24.993217,-22.671627,-20.29707,-18.77733,-18.613573,-19.599316,-20.942415,-21.726782,-21.422804,-20.138308,-18.478785,-17.134216,-16.468313,-16.358959,-16.357151,-16.024319,-15.211034,-14.106691,-13.06085,-12.328049,-11.919773,-11.649132,-11.306702,-10.817862,-10.261765,-9.7499237,-9.2760706,-8.6728735,-7.728065,-6.384583,-4.8722405,-3.6517351,-3.1763964,-3.6083336,-4.6718745,-5.753252,-6.2064824,-5.6963053,-4.3818607,-2.8354924,-1.7428124,-1.5505604,-2.2501638,-3.4012332,-4.3662019,-4.6215487,-3.9863186,-2.6670907,-1.1194561,0.18696618,0.97868341,1.2685695,1.2972047,1.3687252,1.6726297,2.1867533,2.714771,3.0396485,3.1060266,3.1166422,3.4642704,4.5118389,6.333281,8.5749874,10.551184,11.559366,11.261539,9.912406,8.2793179,7.2677655,7.4449348,8.7307711,10.443086,11.681067,11.82946,10.890507,9.4533291,8.3305893,8.092001,8.778264,9.9536333,11.035332,11.6669,11.891718,12.033005,12.3922,12.995992,13.575099,13.781626,13.474477,12.851099,12.316127,12.174065,12.37151,12.492116,12.033573,10.790136,9.0726547,7.5921154,7.0548778,7.7192669,9.2036228,10.682117,11.35511,10.901019,9.627655,8.2358551,7.3580656,7.1733961,7.340096,7.2702837,6.5481086,5.2084551,3.6996925,2.5718758,2.1116753,2.1691875,2.2814345,1.9952362,1.1665695,0.043688316,-0.90303361,-1.2737482,-0.9565689,-0.14318846,0.83576673,1.7170181,2.4064929,2.9272377,3.2860522,3.3874092,3.0760796,2.2798498,1.1369306,-0.0055261669,-0.74586856,-0.84804732,-0.38725084,0.27563259,0.6789782,0.49426481,-0.32575598,-1.5580029,-2.8529994,-3.9149344,-4.619575,-5.0279474,-5.3206096,-5.708591,-6.3629694,-7.3701673,-8.7011337,-10.193347,-11.56768,-12.505212,-12.776834,-12.370075,-11.533481,-10.689335,-10.240973,-10.374247,-10.969916,-11.685191,-12.160691,-12.229557,-12.00249,-11.78055,-11.856218,-12.33091,-13.06076,-13.754785,-14.152199,-14.162217,-13.886304,-13.527392,-13.262683,-13.167354,-13.225333,-13.393319,-13.649459,-13.98256,-14.33825,-14.584747,-14.552835,-14.145607,-13.447164,-12.739649,-12.386856,-12.632926,-13.434807,-14.444593,-15.175671,-15.272559,-14.730582,-13.928753,-13.442287,-13.730121,-14.870366,-16.494572,-17.961718,-18.678791,-18.394079,-17.307503,-15.946638,-14.885688,-14.464676,-14.654937,-15.126898,-15.46244,-15.382879,-14.870556,-14.136201,-13.475758,-13.114315,-13.123658,-13.438738,-13.932146,-14.478433,-14.966004,-15.269458,-15.235171,-14.725646,-13.716652,-12.383981,-11.09976,-10.302805,-10.28987,-11.04082,-12.190351,-13.183236,-13.540734,-13.091919,-12.036283,-10.80078,-9.7774687,-9.0999537,-8.5912247,-7.9073997,-6.7805052,-5.2053285,-3.4564321,-1.9317054,-0.92610061,-0.4752818,-0.35582286,-0.22689232,0.18304217,0.95288807,1.9616829,2.9732668,3.745393,4.1080999,4.0016756,3.49735,2.8157902,2.3209074,2.4428339,3.5100191,5.5411525,8.1121759,10.412052,11.511617,10.737064,7.9500084,3.563076,-1.7353655,-7.3918996,-13.278353,-19.663391,-26.861395,-34.770061,-42.60498,-49.044086,-52.754246,-53.02993,-50.182899,-45.446369,-40.428925,-36.409878,-33.854336,-32.390617,-31.219604,-29.682243,-27.642654,-25.483839,-23.765192,-22.79484,-22.401989,-22.045332,-21.16744,-19.550364,-17.439112,-15.361793,-13.775814,-12.777422,-12.060946,-11.144104,-9.7016888,-7.7854271,-5.7900743,-4.1962886,-3.2646387,-2.8804405,-2.643609,-2.1353338,-1.1818389,0.05504252,1.2110888,1.9803625,2.3285127,2.522203,2.962399,3.9352677,5.4406786,7.1998968,8.8254108,10.036919,10.790442,11.255424,11.676333,12.220681,12.907563,13.643213,14.316848,14.880308,15.363689,15.83567,16.35634,16.963894,17.695936,18.609056,19.759592,21.145718,22.654169,24.065172,25.132742,25.699379,25.770245,25.49292,25.054832,24.573507,24.065029,23.518923,23.021254,22.816513,23.228247,24.457369,26.379694,28.494389,30.099033,30.625488,29.954048,28.513985,27.092525,26.44578,26.926868,28.339157,30.088322,31.530037,32.301235,32.44804,32.301514,32.210251,32.315208,32.503967,32.548847,32.310047,31.85236,31.397341,31.155121,31.163788,31.254072,31.164518,30.725821,29.986586,29.195795,28.656071,28.546532,28.828465,29.285919,29.663437,29.806547,29.721788,29.536842,29.407824,29.444227,29.691582,30.158255,30.839695,31.705908,32.662029,33.528828,34.08614,34.176552,33.812626,33.211754,32.718452,32.644646,33.116646,34.020622,35.080437,36.018726,36.69944,37.163704,37.543354,37.919666,38.232777,38.312767,38.01804,37.386581,36.686314,36.3083,36.548065,37.401276,38.506405,39.289429,39.246872,38.215328,36.47274,34.606045,33.211079,32.588818,32.607304,32.806671,32.685719,32.004345,30.926201,29.919056,29.4711,29.789541,30.658289,31.538883,31.857161,31.310863,30.023615,28.462257,27.172241,26.487167,26.375174,26.496939,26.423607,25.876129,24.84886,23.563211,22.304058,21.254841,20.431307,19.736492,19.076725,18.445599,17.917019,17.561323,17.355824,17.164156,16.806988,16.179111,15.332381,14.464859,13.818246,13.545257,13.626318,13.881562,14.064522,13.978311,13.550632,12.837339,11.969192,11.082126,10.267462,9.5552311,8.9232206,8.3189478,7.687984,7.006043,6.3054571,5.6762028,5.2239947,4.9922276,4.8893113,4.6803513,4.0784841,2.909837,1.2634001,-0.47956014,-1.7874706,-2.2407537,-1.7748486,-0.75383556,0.18990649,0.47613788,-0.12172626,-1.3736873,-2.7552485,-3.7798421,-4.2985792,-4.5809464,-5.1246853,-6.3128667,-8.1330471,-10.135628,-11.660195,-12.194383,-11.652969,-10.420332,-9.1464043,-8.428669,-8.5627317,-9.4798145,-10.863692,-12.339793,-13.615332,-14.516889,-14.959806,-14.923965,-14.478282,-13.825925,-13.297997,-13.247604,-13.875505,-15.091118,-16.516621,-17.661865,-18.183697,-18.074341,-17.655565,-17.374128,-17.524122,-18.073774,-18.709238,-19.065666,-18.990725,-18.663065,-18.484734,-18.818548,-19.74605,-21.008417,-22.169983,-22.895323,-23.156202,-23.234192,-23.52281,-24.266043,-25.407862,-26.647371,-27.652905,-28.283724,-28.669069,-29.097105,-29.797087,-30.766981,-31.761448,-32.441902,-32.582142,-32.193302,-31.495905,-30.7747,-30.225658,-29.895247,-29.733231,-29.694483,-29.796753,-30.08811,-30.559826,-31.091274,-31.491528,-31.622938,-31.517187,-31.384804,-31.489136,-31.957464,-32.661266,-33.265926,-33.443138,-33.127827,-32.662178,-32.731533,-34.119129,-37.408298,-42.776524,-49.953568,-58.313885,-67.016151,-75.124519,-81.715096,-86.018181,-87.620461,-86.665367,-83.91658,-80.567741,-77.807785,-76.318298,-75.969566,-75.913475,-75.060287,-72.694313,-68.880371,-64.420876,-60.387897,-57.515514,-55.825802,-54.713684,-53.421238,-51.580486,-49.461109,-47.757675,-47.061298,-47.377735,-48.030396,-48.034206,-46.709686,-44.136993,-41.142906,-38.812565,-37.827076,-38.044243,-38.585995,-38.372375,-36.760941,-33.892712,-30.545734,-27.617981,-25.591118,-24.317951,-23.244091,-21.879288,-20.175621,-18.54899,-17.53747,-17.345757,-17.605757,-17.536449,-16.413403,-14.044666,-10.937913,-8.0405502,-6.2081256,-5.727973,-6.1851645,-6.738524,-6.6208487,-5.5519447,-3.8278928,-2.0662787,-0.79940897,-0.1818129,0.021357317,0.19494407,0.57236362,1.0831635,1.4422849,1.4028503,0.98649347,0.52704549,0.49280256,1.2001052,2.600662,4.2775679,5.6555958,6.3040814,6.1607308,5.5557013,5.0299268,5.0510726,5.7766547,6.9804087,8.1704168,8.834691,8.6941595,7.8450408,6.7252097,5.9187317,5.8860559,6.7448368,8.2090874,9.7247124,10.743981,11.005081,10.669238,10.23322,10.253267,11.025315,12.40089,13.850251,14.745894,14.709148,13.819992,12.566554,11.563838,11.209454,11.481191,11.992937,12.265368,12.037264,11.423543,10.829126,10.684453,11.178041,12.15401,13.227532,14.027985,14.403931,14.462852,14.43966,14.504692,14.653814,14.752151,14.683845,14.481197,14.324773,14.407401,14.764047,15.20397,15.412971,15.168357,14.518291,13.789394,13.399059,13.586577,14.242849,14.962346,15.29637,15.050028,14.42958,13.93899,14.08475,15.071035,16.672237,18.355656,19.570541,20.023615,19.783497,19.175913,18.562382,18.152884,17.956539,17.867331,17.793272,17.7264,17.715471,17.786734,17.895592,17.957615,17.933197,17.888107,17.965784,18.277525,18.789263,19.298986,19.541096,19.360823,18.842663,18.296759,18.09767,18.469431,19.350636,20.424673,21.295805,21.701384,21.633593,21.308193,21.016098,20.959784,21.170698,21.538084,21.90556,22.16012,22.263699,22.231682,22.100657,21.921915,21.7794,21.797451,22.10618,22.769547,23.721703,24.764286,25.640551,26.147156,26.214127,25.904011,25.339701,24.622675,23.80769,22.950024,22.174866,21.689043,21.692354,22.227198,23.071785,23.7773,23.865612,23.091976,21.614899,19.953279,18.7342,18.367083,18.834297,19.723953,20.485334,20.751945,20.538595,20.200853,20.194044,20.788301,21.912622,23.209244,24.24527,24.739611,24.672277,24.234425,23.682236,23.205282,22.885143,22.738276,22.773838,22.998594,23.361406,23.69685,23.744179,23.266169,22.208281,20.787304,19.425449,18.541119,18.309858,18.545439,18.790115,18.576822,17.714712,16.425831,15.244818,14.734063,15.17733,16.425846,17.977654,19.232761,19.770555,19.497429,18.604929,17.397161,16.115173,14.866312,13.679017,12.612298,11.815464,11.477757,11.694387,12.344598,13.079506,13.451922,13.128842,12.070025,10.568551,9.1239777,8.2102728,8.0562057,8.5465202,9.2874155,9.7977686,9.7309341,9.0249004,7.9180174,6.8302875,6.1672592,6.1339717,6.6406617,7.3437696,7.8076854,7.7161789,7.0324316,6.0220971,5.1164284,4.6767693,4.7844057,5.1793981,5.3985329,5.0487776,4.0631866,2.7806339,1.7828505,1.566255,2.2357402,3.4104578,4.4150496,4.6580777,3.9770176,2.7378802,1.6198102,1.2083557,1.6444762,2.5483809,3.269134,3.3055818,2.6314609,1.7130891,1.2009097,1.4864663,2.4094136,3.3122351,3.4244273,2.3474848,0.33965519,-1.786799,-3.1126797,-3.1532891,-2.1870487,-1.1873726,-1.3995216,-3.795193,-8.6850405,-15.6573,-23.818541,-32.160748,-39.850201,-46.327038,-51.244541,-54.368706,-55.551407,-54.803555,-52.399269,-48.905731,-45.077499,-41.643337,-39.084972,-37.515049,-36.705399,-36.237026,-35.689457,-34.785931,-33.452141,-31.7957,-30.041109,-28.452732,-27.261606,-26.601017,-26.459864,-26.671904,-26.95734,-27.013214,-26.620983,-25.723356,-24.432783,-22.967552,-21.548466,-20.307056,-19.245356,-18.256807,-17.18791,-15.907663,-14.35874,-12.579998,-10.701084,-8.9122047,-7.4115224,-6.3380227,-5.7100248,-5.3989539,-5.1617475,-4.7297525,-3.9192238,-2.7101967,-1.2518678,0.20939505,1.4409416,2.3152249,2.8382962,3.11164,3.2609675,3.3772974,3.497304,3.6185384,3.7254512,3.8061368,3.8595474,3.9066679,4.0127459,4.305223,4.9568467,6.1149869,7.7974052,9.8139009,11.780038,13.246314,13.894849,13.700528,12.957547,12.141567,11.674086,11.718728,12.124794,12.547635,12.669482,12.38644,11.852611,11.364642,11.16774,11.306746,11.60864,11.795645,11.649378,11.125028,10.357001,9.5689878,8.9532566,8.5872335,8.4188404,8.308176,8.0921221,7.6451459,6.9265556,6.0101905,5.0842609,4.4029999,4.1877313,4.5113969,5.2320032,6.0327234,6.5706072,6.6603847,6.3794994,6.0141153,5.8642459,6.0278192,6.3142462,6.3643866,5.9147897,5.03196,4.1414976,3.801003,4.3402605,5.5990982,6.9511595,7.6267443,7.1500669,5.6194763,3.6486123,2.0004325,1.1449739,1.0215124,1.1498412,1.0026907,0.37898159,-0.47704133,-1.085777,-1.1158581,-0.66466951,-0.23188843,-0.39910051,-1.4376601,-3.121295,-4.8790851,-6.1856627,-6.9159355,-7.4120407,-8.209856,-9.6127157,-11.413775,-12.972198,-13.606875,-13.049065,-11.647961,-10.184692,-9.4120579,-9.6202459,-10.508799,-11.436687,-11.869661,-11.719201,-11.353015,-11.289676,-11.806463,-12.740855,-13.620315,-14.018134,-13.872177,-13.531172,-13.488335,-13.987361,-14.782543,-15.235411,-14.702301,-12.966883,-10.434658,-7.9573069,-6.3909469,-6.1574101,-7.0664692,-8.4840803,-9.7167234,-10.36445,-10.443056,-10.243192,-10.062153,-10.003268,-9.9618721,-9.7717237,-9.3777199,-8.8994837,-8.5456009,-8.4529982,-8.5773525,-8.716444,-8.6478691,-8.2807789,-7.7149878,-7.1696944,-6.834805,-6.7469912,-6.7693644,-6.6806183,-6.3097119,-5.6315646,-4.774138,-3.947062,-3.3439741,-3.0722687,-3.1338997,-3.4473426,-3.8870783,-4.3241749,-4.6640697,-4.8790035,-5.0228705,-5.2098465,-5.5504637,-6.0679517,-6.6434498,-7.0361075,-6.9862223,-6.3559871,-5.2294354,-3.9072313,-2.7894099,-2.2053409,-2.282202,-2.9194522,-3.872642,-4.8870301,-5.8003135,-6.5648155,-7.1984725,-7.7187181,-8.1147404,-8.3745327,-8.534936,-8.7020702,-9.0106888,-9.5381746,-10.227052,-10.871367,-11.185563,-10.924285,-9.9910851,-8.4815702,-6.6448565,-4.7903748,-3.1890469,-2.0095949,-1.3032955,-1.0247515,-1.0667472,-1.29466,-1.5780768,-1.8223002,-1.9966215,-2.1473126,-2.3820455,-2.8231053,-3.5443308,-4.5191474,-5.6058636,-6.5809484,-7.2098765,-7.3293142,-6.9101338,-6.0782452,-5.0841479,-4.2278404,-3.7596238,-3.7878881,-4.2286758,-4.824194,-5.2354174,-5.1820545,-4.5743241,-3.5728433,-2.5362091,-1.8661532,-1.814984,-2.3492868,-3.146419,-3.7386878,-3.7429833,-3.0621195,-1.9504362,-0.90183872,-0.4121705,-0.73808718,-1.7806633,-3.1559122,-4.4110513,-5.2624483,-5.7184725,-6.0176864,-6.4232469,-7.0026517,-7.5343666,-7.6086764,-6.8717775,-5.2704296,-3.1463318,-1.1127212,0.22800122,0.57259053,0.052978504,-0.85138518,-1.5702896,-1.7235708,-1.2779311,-0.51224387,0.16499977,0.42867351,0.16563246,-0.52797133,-1.4447538,-2.3788326,-3.1872663,-3.7875416,-4.1268353,-4.168467,-3.911469,-3.4198322,-2.8232656,-2.272944,-1.875321,-1.6502477,-1.5457839,-1.4990125,-1.4940245,-1.5661538,-1.7419693,-1.9593251,-2.0397921,-1.761386,-1.0137384,0.046848942,0.94386476,0.98504889,-0.50271404,-3.9093726,-9.1691132,-15.754677,-22.832735,-29.503662,-35.024811,-38.94342,-41.11972,-41.669132,-40.872772,-39.096573,-36.736423,-34.185703,-31.81105,-29.921682,-28.724291,-28.268002,-28.400351,-28.768145,-28.894182,-28.332197,-26.854383,-24.584583,-21.988956,-19.692333,-18.182974,-17.54899,-17.399355,-17.039125,-15.828415,-13.537826,-10.496964,-7.4386821,-5.1160116,-3.9068894,-3.6356394,-3.713588,-3.5091844,-2.7184167,-1.509535,-0.36069152,0.29522026,0.38401181,0.25871915,0.48221999,1.4686586,3.2169547,5.3045292,7.1367564,8.2835217,8.6865416,8.6178322,8.441062,8.3560114,8.305912,8.1029644,7.6675496,7.1939192,7.1058908,7.8146124,9.4336205,11.645242,13.820117,15.329556,15.866864,15.588664,15.001143,14.671919,14.944582,15.81404,17.007145,18.186537,19.136169,19.825254,20.343929,20.787779,21.184351,21.50334,21.719915,21.864214,22.011936,22.22773,22.515091,22.820477,23.090916,23.335703,23.634483,24.075998,24.670815,25.310303,25.815376,26.05085,26.024199,25.888435,25.832329,25.926018,26.033495,25.869413,25.182615,23.955645,22.484247,21.266779,20.752529,21.093216,22.049593,23.115923,23.793962,23.857109,23.452126,22.985327,22.869431,23.285831,24.099073,24.960854,25.525568,25.639545,25.394646,25.029863,24.759447,24.643957,24.582016,24.41592,24.070223,23.62562,23.277819,23.209072,23.45756,23.871367,24.180204,24.144413,23.692827,22.967684,22.250088,21.809959,21.767153,22.041937,22.418962,22.682526,22.740887,22.666328,22.629503,22.770317,23.086086,23.408287,23.487234,23.139828,22.375769,21.426533,20.653818,20.381166,20.735739,21.582876,22.586687,23.363768,23.650509,23.402462,22.784367,22.068012,21.498392,21.195831,21.133266,21.184597,21.2073,21.115282,20.91387,20.692492,20.587105,20.728014,21.185997,21.928572,22.802652,23.561533,23.943604,23.784277,23.113451,22.180048,21.368889,21.029621,21.294558,21.985334,22.674219,22.885868,22.342073,21.117313,19.613867,18.363863,17.765942,17.903843,18.546154,19.316605,19.921038,20.285841,20.525593,20.774427,21.010031,21.006037,20.461119,19.227205,17.480795,15.706342,14.477937,14.159608,14.705708,15.687,16.528357,16.811451,16.457956,15.691618,14.824954,14.029213,13.247394,12.301128,11.099422,9.7822342,8.6783504,8.0933542,8.0734711,8.3200493,8.3335562,7.7082419,6.3889151,4.7183447,3.2390404,2.3763247,2.207469,2.461122,2.7327611,2.7564149,2.5410793,2.2837214,2.1358676,2.0092223,1.5798227,0.50561839,-1.2884043,-3.4660578,-5.4006391,-6.5074768,-6.5855384,-5.9473314,-5.2452722,-5.0950942,-5.7256899,-6.8664994,-7.932065,-8.3797731,-8.0189037,-7.0943871,-6.1183782,-5.5752068,-5.6841507,-6.3441973,-7.2574348,-8.1236639,-8.7800283,-9.2238836,-9.5459051,-9.8488474,-10.209427,-10.684499,-11.320437,-12.130946,-13.052551,-13.92585,-14.544889,-14.766746,-14.616527,-14.308714,-14.15158,-14.379852,-15.015419,-15.845149,-16.532675,-16.79604,-16.543951,-15.896266,-15.093836,-14.371572,-13.879143,-13.683767,-13.821099,-14.327577,-15.214252,-16.404215,-17.699858,-18.832966,-19.586212,-19.908689,-19.936016,-19.884563,-19.8822,-19.855701,-19.569128,-18.807085,-17.588764,-16.260639,-15.382315,-15.45286,-16.636503,-18.658298,-20.939425,-22.891531,-24.189692,-24.861195,-25.152206,-25.282038,-25.26609,-24.934559,-24.131655,-22.946516,-21.795002,-21.265314,-21.800022,-23.406727,-25.588779,-27.563189,-28.661722,-28.699503,-28.110222,-27.777212,-28.654034,-31.37114,-36.013126,-42.142708,-49.014782,-55.843349,-61.991825,-67.032234,-70.705528,-72.860909,-73.438492,-72.507706,-70.32238,-67.334671,-64.130043,-61.288422,-59.217873,-58.027115,-57.494377,-57.157017,-56.499214,-55.170296,-53.142174,-50.727581,-48.435165,-46.715988,-45.721169,-45.202339,-44.62561,-43.458328,-41.483147,-38.960796,-36.531479,-34.886681,-34.380962,-34.802792,-35.44706,-35.466114,-34.314114,-32.039032,-29.256992,-26.822208,-25.377907,-25.038158,-25.369333,-25.663681,-25.332375,-24.189068,-22.475945,-20.647018,-19.065161,-17.805353,-16.67226,-15.395804,-13.858453,-12.199048,-10.729301,-9.7257586,-9.2389917,-9.0452366,-8.7696991,-8.1012239,-6.9648805,-5.5523477,-4.202199,-3.2122307,-2.6975884,-2.5686479,-2.6225004,-2.67577,-2.652406,-2.5808067,-2.5176075,-2.459336,-2.3038051,-1.886224,-1.0678031,0.17465504,1.7076927,3.2718291,4.5731649,5.3994279,5.7135506,5.6835723,5.6278772,5.8860536,6.660778,7.900209,9.2864752,10.355717,10.71029,10.226116,9.1441298,7.9824033,7.2971649,7.4080853,8.2333202,9.3284369,10.114882,10.178242,9.4768906,8.3520565,7.3421192,6.9105668,7.2370715,8.1738119,9.3684025,10.463224,11.252615,11.72323,11.984365,12.157928,12.306143,12.431103,12.521917,12.594729,12.686615,12.809751,12.91011,12.876282,12.607501,12.102737,11.509531,11.089811,11.109408,11.70621,12.80822,14.147083,15.361167,16.136116,16.315271,15.933492,15.170414,14.258242,13.394895,12.70106,12.229256,12.002632,12.0466,12.38485,12.997763,13.771475,14.481505,14.843987,14.630672,13.799142,12.563745,11.347676,10.613292,10.639606,11.361163,12.366558,13.077503,13.028172,12.09981,10.580696,9.0157614,7.9302077,7.5852494,7.9025259,8.5879698,9.3611097,10.132507,11.01278,12.155268,13.55223,14.940462,15.899823,16.094013,15.498187,14.456482,13.519003,13.152635,13.505033,14.367241,15.348809,16.139452,16.678692,17.126173,17.670071,18.327591,18.896093,19.101313,18.838802,18.324722,18.024088,18.377811,19.499249,21.049505,22.394447,22.961777,22.577208,21.562551,20.527647,19.986917,20.046869,20.365561,20.406305,19.814875,18.669436,17.439272,16.682856,16.688274,17.294846,18.011715,18.350796,18.150234,17.673462,17.419939,17.774937,18.731152,19.866608,20.59528,20.530224,19.727659,18.657715,17.921095,17.888439,18.483351,19.237186,19.576405,19.166162,18.107798,16.881765,16.079329,16.083319,16.876383,18.071692,19.132061,19.644579,19.501209,18.90156,18.197941,17.684269,17.448284,17.358465,17.17605,16.715971,15.961825,15.074953,14.301482,13.837493,13.73037,13.867928,14.053446,14.116856,13.996239,13.747173,13.483316,13.292152,13.180437,13.08079,12.90987,12.636233,12.311642,12.044331,11.929677,11.97951,12.091821,12.079514,11.745933,10.973021,9.7845421,8.3586388,6.982903,5.9633946,5.5143833,5.6668034,6.2361617,6.8776011,7.2229195,7.050796,6.4096031,5.6177683,5.1189308,5.2486534,6.0319643,7.1325531,8.0018845,8.1630449,7.4758797,6.2262483,4.9757137,4.2492909,4.2423081,4.7240925,5.2004442,5.2362781,4.7352095,3.9951782,3.4999812,3.5788896,4.1585126,4.7781873,4.8713751,4.1377759,2.7622669,1.3276631,0.46483043,0.45950651,1.0720456,1.6945678,1.7504578,1.0771091,0.035044108,-0.73942924,-0.78485548,-0.17138357,0.48569924,0.38925594,-0.91456628,-3.1839359,-5.5436144,-6.9509325,-6.7981672,-5.2871604,-3.3400075,-2.0864983,-2.2257247,-3.63784,-5.4754033,-6.682301,-6.6419287,-5.588779,-4.5604563,-4.9271545,-7.7572021,-13.340704,-21.080256,-29.752611,-37.971325,-44.62413,-49.123875,-51.434372,-51.932487,-51.202168,-49.835178,-48.277775,-46.743359,-45.209137,-43.505302,-41.472378,-39.117668,-36.681305,-34.55619,-33.087685,-32.360943,-32.108555,-31.811253,-30.95022,-29.271904,-26.911335,-24.30283,-21.936485,-20.112118,-18.837175,-17.916233,-17.152193,-16.509439,-16.122231,-16.144108,-16.548698,-17.030806,-17.093676,-16.285318,-14.445855,-11.814572,-8.9274826,-6.3604059,-4.4610486,-3.2145846,-2.3052719,-1.3254414,-0.0089065563,1.6337986,3.3354719,4.7188959,5.4837337,5.5424972,5.053741,4.3549118,3.8372281,3.8172927,4.4487562,5.6948299,7.3605146,9.1673126,10.844115,12.205642,13.194664,13.876114,14.38696,14.861361,15.359954,15.832731,16.134985,16.097336,15.627201,14.798745,13.881493,13.274846,13.356198,14.300179,15.957934,17.87315,19.450909,20.212254,20.009109,19.081749,17.920349,17.002535,16.554338,16.471563,16.442722,16.190285,15.672701,15.116344,14.858664,15.109093,15.78861,16.555332,16.997999,16.867542,16.195705,15.232579,14.2621,13.435077,12.736629,12.09681,11.540807,11.242773,11.421743,12.144771,13.187688,14.078644,14.326576,13.700485,12.37571,10.841439,9.6198702,8.9751034,8.7980661,8.7353973,8.4652596,7.9264884,7.3450961,7.0471892,7.1967936,7.6471648,8.0115452,7.9043078,7.1862025,6.0483708,4.8849001,4.0481224,3.6535738,3.5549781,3.4841328,3.2392964,2.7873671,2.2253413,1.6590451,1.1143948,0.55740708,-0.0017297032,-0.42478582,-0.47842163,0.012404057,0.99389744,2.1344388,2.963768,3.1333833,2.6325765,1.8078377,1.1580275,1.030607,1.4180732,1.9916006,2.3493397,2.307961,2.0327947,1.910676,2.2485681,3.0074918,3.7658076,3.9552574,3.22668,1.7064639,-0.033478424,-1.2878011,-1.6241199,-1.1314955,-0.35556859,0.038871303,-0.33191288,-1.3526629,-2.5003161,-3.1774938,-3.0758543,-2.3475351,-1.4905605,-1.0328593,-1.2171674,-1.8766276,-2.5633883,-2.8354368,-2.5178442,-1.7839487,-1.0229036,-0.59252077,-0.61791986,-0.9545545,-1.3214258,-1.5019186,-1.4732141,-1.3807411,-1.3826923,-1.4805826,-1.4658188,-1.0389504,-0.041864816,1.3436223,2.5770175,2.9722652,2.056303,-0.11553218,-2.8776274,-5.1866298,-6.0822458,-5.1556478,-2.7815936,0.020941513,2.0464532,2.4571459,1.1564951,-1.2038976,-3.5790679,-5.0545297,-5.2651687,-4.503139,-3.4850936,-2.932723,-3.2080972,-4.1924253,-5.4415197,-6.4904127,-7.1080441,-7.3573232,-7.4535937,-7.5442529,-7.5722804,-7.3168502,-6.5763235,-5.3601766,-3.9512889,-2.7891924,-2.2459199,-2.4372478,-3.1866968,-4.1573277,-5.0573497,-5.7834148,-6.4159064,-7.086453,-7.8245249,-8.498868,-8.896595,-8.8815556,-8.5154057,-8.0503426,-7.7923832,-7.9246378,-8.4078569,-9.0220776,-9.5168047,-9.7655401,-9.8225584,-9.8518782,-9.9877052,-10.229486,-10.444098,-10.467684,-10.229058,-9.8054075,-9.3741894,-9.1013861,-9.0490026,-9.1646528,-9.3510704,-9.5541964,-9.7993774,-10.150867,-10.633389,-11.185071,-11.685475,-12.040264,-12.255714,-12.440511,-12.727804,-13.17449,-13.715897,-14.213764,-14.562424,-14.769445,-14.942965,-15.189926,-15.503572,-15.735309,-15.687271,-15.267379,-14.590227,-13.934339,-13.566994,-13.551405,-13.678619,-13.589619,-13.019543,-12.000041,-10.871087,-10.078024,-9.880476,-10.170654,-10.533495,-10.519234,-9.9498129,-9.0502024,-8.3099766,-8.1645222,-8.7118111,-9.6598988,-10.542686,-11.054613,-11.26905,-11.582867,-12.419864,-13.898193,-15.700525,-17.254574,-18.121973,-18.347673,-18.538488,-19.608109,-22.333971,-26.982405,-33.203976,-40.224499,-47.181431,-53.394367,-58.441895,-62.072964,-64.093582,-64.360931,-62.903301,-60.057877,-56.47961,-52.955647,-50.102779,-48.124302,-46.78096,-45.598686,-44.183113,-42.44376,-40.596657,-38.965965,-37.737862,-36.840942,-36.026451,-35.072769,-33.950462,-32.819111,-31.858356,-31.066263,-30.190643,-28.86694,-26.882898,-24.386,-21.872692,-19.938946,-18.935612,-18.746689,-18.838818,-18.559946,-17.505831,-15.730944,-13.682002,-11.909249,-10.745424,-10.149138,-9.7899923,-9.2926836,-8.4644403,-7.3616261,-6.1765733,-5.0519032,-3.9692204,-2.7895885,-1.4018203,0.14800957,1.6553962,2.8929107,3.7814202,4.4620113,5.2020807,6.1920991,7.3777452,8.4582901,9.071455,9.0521679,8.5912724,8.1765146,8.3378925,9.3501072,11.077598,13.058945,14.775042,15.929848,16.569839,16.978579,17.432138,17.989424,18.462088,18.582523,18.250828,17.684092,17.352077,17.722717,18.968443,20.818027,22.656445,23.827759,23.974501,23.223806,22.118696,21.33709,21.356644,22.24519,23.677244,25.147419,26.24745,26.851707,27.121861,27.351135,27.756424,28.344805,28.9247,29.240221,29.136347,28.652933,27.998182,27.430351,27.130045,27.142393,27.413782,27.880772,28.534714,29.408226,30.492252,31.651251,32.615124,33.07877,32.86338,32.040562,30.931522,29.966251,29.476986,29.54632,29.999369,30.539036,30.932285,31.125042,31.215614,31.316774,31.415672,31.342636,30.880831,29.943117,28.684984,27.457584,26.612724,26.27973,26.265636,26.15835,25.580862,24.440371,23.010933,21.789923,21.212019,21.396673,22.084188,22.795578,23.110683,22.889156,22.30381,21.682028,21.273552,21.101341,20.985651,20.709316,20.199127,19.594944,19.162378,19.114836,19.470192,20.038433,20.54282,20.786806,20.752625,20.571493,20.396891,20.277643,20.121601,19.771904,19.136982,18.279423,17.401009,16.735287,16.422424,16.449009,16.686577,16.992317,17.295864,17.611891,17.977074,18.367046,18.664066,18.708548,18.405214,17.811615,17.143394,16.682703,16.638544,17.039692,17.721903,18.415213,18.87957,19.013069,18.878113,18.640951,18.467548,18.436754,18.514233,18.591431,18.558212,18.364025,18.035339,17.645651,17.261894,16.902987,16.537428,16.122704,15.662698,15.245017,15.027333,15.169206,15.740081,16.655529,17.686363,18.548777,19.035711,19.118744,18.958029,18.805983,18.852951,19.102522,19.353111,19.303438,18.726137,17.610697,16.192314,14.849091,13.925914,13.582867,13.745827,14.172479,14.581457,14.766017,14.639726,14.215249,13.559027,12.765276,11.958631,11.296412,10.934848,10.955173,11.292082,11.726535,11.975529,11.845282,11.358113,10.761252,10.389882,10.450565,10.854217,11.21261,11.021782,9.9413776,8.013525,5.6908479,3.648859,2.4793839,2.427021,3.3024349,4.6048827,5.7748523,6.4394269,6.5350289,6.27073,5.979013,5.9433169,6.2805295,6.9120884,7.6134963,8.109911,8.1839581,7.7664804,6.9817519,6.1210132,5.53546,5.4765334,5.9516487,6.6772938,7.1771789,6.9989762,5.9488254,4.2173176,2.3182137,0.86088812,0.27217638,0.61411387,1.5901567,2.7249045,3.6073,4.0612011,4.1625929,4.1199784,4.1103487,4.1732912,4.2118826,4.0745411,3.6482694,2.904397,1.8860495,0.67017066,-0.65531552,-1.9873886,-3.1996963,-4.161767,-4.7909513,-5.1046376,-5.2260919,-5.3237896,-5.5149188,-5.7980285,-6.0670557,-6.202724,-6.178638,-6.1045156,-6.1748223,-6.5661864,-7.3732419,-8.6478796,-10.521642,-13.305311,-17.444525,-23.291418,-30.787176,-39.247272,-47.423717,-53.879196,-57.523804,-58.0504,-56.038925,-52.670963,-49.204655,-46.481804,-44.703651,-43.546436,-42.498375,-41.199844,-39.607269,-37.937531,-36.485256,-35.456223,-34.908291,-34.791809,-35.013145,-35.453098,-35.937706,-36.219322,-36.026859,-35.183586,-33.719376,-31.885157,-30.033899,-28.428766,-27.102011,-25.866253,-24.479599,-22.856531,-21.175806,-19.799698,-19.046028,-18.959766,-19.239788,-19.379698,-18.943184,-17.806395,-16.22121,-14.667354,-13.591249,-13.19006,-13.356695,-13.791592,-14.187548,-14.368277,-14.315852,-14.108065,-13.839132,-13.584332,-13.412149,-13.399442,-13.607164,-14.022014,-14.518631,-14.899327,-15.013769,-14.888081,-14.762595,-14.983213,-15.79108,-17.139778,-18.672819,-19.902052,-20.494694,-20.491768,-20.308233,-20.495481,-21.400782,-22.933964,-24.59531,-25.7605,-26.056784,-25.602318,-24.958914,-24.820005,-25.614388,-27.255564,-29.178572,-30.637604,-31.091436,-30.463633,-29.147568,-27.774904,-26.890936,-26.7131,-27.08285,-27.605494,-27.877594,-27.675554,-27.022953,-26.13155,-25.272747,-24.655333,-24.361631,-24.352762,-24.519636,-24.744244,-24.943075,-25.080364,-25.153791,-25.165007,-25.091858,-24.878696,-24.454311,-23.774061,-22.867899,-21.867571,-20.991297,-20.482851,-20.525209,-21.164125,-22.274931,-23.587914,-24.763466,-25.490286,-25.574678,-24.995398,-23.909792,-22.608551,-21.427509,-20.637854,-20.348803,-20.462946,-20.712988,-20.7778,-20.434849,-19.678368,-18.738285,-17.979294,-17.722483,-18.078926,-18.885065,-19.778549,-20.376783,-20.462856,-20.07917,-19.482088,-18.989492,-18.81098,-18.953388,-19.243555,-19.439522,-19.355478,-18.930058,-18.214506,-17.310785,-16.313965,-15.29472,-14.315589,-13.443398,-12.725621,-12.135632,-11.531553,-10.679868,-9.3576097,-7.4869633,-5.2175918,-2.8878562,-0.86507326,0.65378851,1.7605004,2.7883699,4.1103892,5.8930821,7.9552159,9.8290405,11.005129,11.229027,10.67852,9.9117689,9.6051531,10.219781,11.776473,13.856694,15.820288,17.115011,17.513744,17.169544,16.487286,15.905748,15.713345,15.977231,16.5874,17.356943,18.110018,18.723146,19.129278,19.312859,19.310427,19.204966,19.093269,19.02589,18.952454,18.719318,18.1416,17.11899,15.722838,14.187405,12.796337,11.73006,10.976658,10.374298,9.7639818,9.1465874,8.7224817,8.7651272,9.3997498,10.441169,11.426206,11.856182,11.517281,10.672392,9.9771757,10.139014,11.507281,13.844049,16.42732,18.43865,19.408159,19.449478,19.144674,19.156683,19.815401,20.935602,21.97287,22.406855,22.099623,21.400253,20.936188,21.234152,22.416864,24.162994,25.940487,27.34754,28.335173,29.175413,30.213871,31.586557,33.097023,34.334919,34.952469,34.910683,34.529888,34.309216,34.629818,35.528267,36.678047,37.583477,37.860989,37.437252,36.556084,35.609287,34.910828,34.554256,34.425957,34.339779,34.185078,33.983303,33.822266,33.727581,33.577309,33.137112,32.209023,30.80278,29.211456,27.922922,27.397673,27.830269,29.030865,30.499811,31.65826,32.107624,31.77632,30.88308,29.758133,28.645914,27.613411,26.607534,25.598345,24.685814,24.078453,23.952141,24.295849,24.873295,25.352943,25.531878,25.493221,25.562754,26.062731,27.015158,28.011259,28.378536,27.583206,25.627766,23.169226,21.234377,20.661915,21.595638,23.352156,24.774651,24.885118,23.450644,21.117022,19.019577,18.098869,18.52688,19.576155,19.988871,18.605051,14.876498,9.001442,1.6773137,-6.2964687,-14.28158,-21.795362,-28.332857,-33.249706,-35.884174,-35.892448,-33.57291,-29.915096,-26.26729,-23.768803,-22.864191,-23.183226,-23.849522,-24.01853,-23.31641,-21.93734,-20.39242,-19.124273,-18.260155,-17.644457,-17.074867,-16.524796,-16.166931,-16.185266,-16.54081,-16.901098,-16.820629,-16.059261,-14.801748,-13.592814,-13.000101,-13.22188,-13.91587,-14.387877,-14.033196,-12.740439,-10.979876,-9.5047731,-8.857192,-9.0073557,-9.3708458,-9.1950159,-8.0569086,-6.1400485,-4.1078629,-2.6643374,-2.1009035,-2.1318955,-2.119694,-1.5256383,-0.27572927,1.2016412,2.2776141,2.5453658,2.0720623,1.319963,0.8121438,0.79090202,1.1081219,1.409103,1.4569968,1.3480479,1.4558005,2.1469989,3.4831312,5.1337624,6.5731001,7.4222288,7.6898432,7.7350764,7.9779735,8.5697622,9.2696505,9.6282129,9.3527098,8.58846,7.8983583,7.9309773,8.9919252,10.813157,12.6895,13.903525,14.160433,13.743799,13.291161,13.34682,13.999172,14.847733,15.313853,15.07109,14.291013,13.534008,13.365756,13.972908,15.049147,16.029263,16.500387,16.493687,16.445284,16.853062,17.87664,19.17448,20.107843,20.180401,19.407663,18.348104,17.756178,18.080605,19.146952,20.248173,20.596014,19.841719,18.322914,16.870375,16.295643,16.887173,18.233,19.47287,19.807957,18.943037,17.198498,15.255583,13.730955,12.863077,12.487712,12.268367,11.981403,11.644921,11.419811,11.390886,11.422626,11.218581,10.548464,9.4680376,8.3486614,7.6654963,7.67238,8.1878128,8.6565533,8.471076,7.357255,5.5738311,3.7861581,2.6818435,2.5632739,3.1700554,3.8410358,3.9132574,3.110348,1.6852406,0.24037601,-0.65151578,-0.78683913,-0.42782688,-0.11233675,-0.30991319,-1.1433609,-2.3425803,-3.4465051,-4.1166735,-4.3639183,-4.5496054,-5.1624227,-6.5049825,-8.4749308,-10.569036,-12.112391,-12.591566,-11.916164,-10.473087,-8.9470091,-7.9998794,-7.971704,-8.7502117,-9.8685656,-10.772962,-11.116115,-10.922021,-10.538407,-10.40903,-10.796715,-11.614917,-12.464262,-12.853864,-12.481153,-11.410388,-10.049141,-8.9395857,-8.4869795,-8.7785053,-9.5847473,-10.523485,-11.273013,-11.706044,-11.881041,-11.926921,-11.921781,-11.855093,-11.689221,-11.456227,-11.299336,-11.413513,-11.921826,-12.780746,-13.793254,-14.731618,-15.486941,-16.134756,-16.860064,-17.786573,-18.831415,-19.699701,-20.042007,-19.681995,-18.762342,-17.70096,-16.97105,-16.838335,-17.223383,-17.780119,-18.140709,-18.165897,-18.033909,-18.10622,-18.656691,-19.643639,-20.680321,-21.232731,-20.926844,-19.775463,-18.18347,-16.727423,-15.843588,-15.611085,-15.754183,-15.852142,-15.621774,-15.100882,-14.627307,-14.633504,-15.382733,-16.800262,-18.490808,-19.924362,-20.681641,-20.626881,-19.927126,-18.927647,-17.969975,-17.259069,-16.843426,-16.694588,-16.809443,-17.247906,-18.068293,-19.201733,-20.364473,-21.100338,-20.97049,-19.804611,-17.8631,-15.78473,-14.307894,-13.895451,-14.474437,-15.459603,-16.07461,-15.802219,-14.700364,-13.383661,-12.664816,-13.061679,-14.469571,-16.206005,-17.406923,-17.530922,-16.656326,-15.386587,-14.43201,-14.146062,-14.32205,-14.379909,-13.808954,-12.558557,-11.103938,-10.137238,-10.093328,-10.837585,-11.735678,-12.064797,-11.490189,-10.283532,-9.1349506,-8.6885777,-9.1199493,-10.041687,-10.793497,-10.905158,-10.403691,