Bandpass,0,0.25173,41.623787,1329.1344,1864.1437,1553.8263,699.95245,-126.41434,-442.04019,-159.6393,385.42758,705.00726,520.50366,-46.861217,-586.86517,-716.9386,-364.06625,192.40634,537.86176,429.59158,-34.10577,-500.45688,-630.36609,-344.9256,128.41022,434.9111,356.61533,-34.74802,-442.5213,-570.92639,-340.50656,63.120556,335.33945,278.65906,-58.896099,-429.49374,-573.48602,-406.51654,-70.066078,184.42494,185.21364,-38.174973,-286.86288,-347.37793,-150.38145,182.90039,435.48944,455.26654,261.40912,21.72662,-76.458504,37.231724,272.09982,452.03296,449.62131,277.66782,73.103859,-9.7213879,86.289757,283.06375,430.66104,420.73654,264.36395,78.287636,-6.5497408,56.438141,197.07964,284.05457,224.81892,35.024342,-172.60216,-269.51645,-201.75316,-24.167995,143.53308,203.71788,146.27544,47.015667,4.3802114,64.252312,188.55823,288.29529,293.20413,204.60777,92.780037,42.872173,91.353188,200.39418,287.92258,289.40796,204.89998,97.259491,44.489471,82.576157,180.89084,266.89581,280.31131,216.18181,125.94144,77.389923,104.39137,183.37918,252.75832,259.41312,197.40233,110.96091,60.953659,80.489258,152.22302,222.83574,242.63809,200.64284,130.08304,81.89035,86.920334,134.83038,184.05334,194.0188,155.02335,94.055641,53.451523,59.247272,102.86681,148.97696,162.62926,134.96301,88.640198,59.785973,70.565353,112.8951,154.94214,165.01991,134.96306,85.965515,53.049263,59.801136,101.56411,148.5858,166.09761,136.64996,69.37458,-9.0062189,-73.531105,-116.3097,-147.60423,-183.63049,-231.53685,-283.13724,-321.48611,-334.40399,-324.13754,-305.8382,-296.37729,-302.30151,-316.06412,-323.09982,-314.03171,-292.59177,-273.30988,-270.86298,-289.18106,-318.42365,-341.93472,-347.89642,-337.12152,-321.5325,-314.858,-322.65961,-338.93802,-351.37286,-350.77417,-337.40457,-319.51068,-305.4939,-296.00571,-282.26477,-252.1469,-199.6992,-131.07019,-62.349163,-10.586753,15.911057,21.499838,18.973692,20.506865,30.167339,42.893848,49.996407,46.680763,36.013771,26.695269,26.637144,37.259678,52.621574,63.795395,65.115341,57.781776,48.463493,44.243816,47.752411,55.898762,62.779469,64.285057,60.904232,56.819382,56.268711,60.117386,65.243851,67.08754,63.300968,55.690639,49.004135,47.516411,51.975887,59.139584,64.174423,64.115349,59.868507,55.377167,54.639973,58.76474,65.128769,69.163414,67.451767,60.005066,50.25581,42.902035,41.107708,44.830132,51.16058,56.246849,57.507015,54.888187,50.658463,48.049847,49.509178,55.279217,62.767181,66.915527,61.602825,41.828678,6.0158634,-42.595181,-96.40094,-145.94591,-183.57106,-206.43616,-217.24971,-222.20773,-227.263,-234.89993,-243.32411,-248.47528,-247.4686,-241.14952,-234.04695,-231.74829,-237.4415,-249.91515,-264.31735,-275.13284,-279.3996,-278.11026,-275.0372,-273.95633,-276.23151,-280.32022,-283.32941,-283.32681,-280.69495,-277.62967,-276.29129,-277.07535,-278.31409,-277.60861,-273.76706,-267.88324,-262.73227,-260.8963,-262.95581,-267.03403,-270.01663,-269.59149,-265.70416,-260.46622,-256.64456,-255.81422,-257.41968,-259.29535,-259.17386,-256.09283,-250.78951,-244.96059,-240.05403,-236.49371,-233.80376,-231.37491,-229.16251,-227.74001,-227.70668,-228.98849,-230.65453,-231.446,-230.62949,-228.50677,-226.16513,-224.63922,-224.12271,-223.84506,-222.72374,-220.29742,-217.20679,-214.81598,-214.22203,-215.39165,-217.10637,-217.81085,-216.76907,-214.66238,-213.13994,-213.6033,-216.11205,-219.26317,-221.20654,-221.0817,-219.74278,-219.03624,-219.89943,-220.49374,-215.79117,-199.27824,-166.14142,-116.26519,-55.293396,7.0192056,60.458279,98.19281,118.91877,126.38538,126.81245,125.74802,126.00909,127.52974,128.77267,128.55701,127.13263,125.9968,126.80562,130.23944,135.57849,141.18768,145.50812,147.88962,148.78606,149.29228,150.39876,152.44424,155.041,157.41435,158.87007,159.09816,158.19565,156.48921,154.33076,151.9888,149.64496,147.42651,145.41446,143.62991,142.04698,140.65915,139.56183,138.96809,139.1042,140.02283,141.4585,142.85191,143.57141,143.22136,141.84926,139.91278,138.02101,136.61783,135.81664,135.48848,135.51662,135.99901,137.20677,139.28929,141.9305,144.24864,145.10793,143.73624,140.29649,136.01805,132.71791,131.90871,133.97522,137.90771,141.78369,143.75525,142.99535,140.0744,136.57443,134.1956,133.8913,135.51138,138.0881,140.49557,142.0172,142.48296,141.98721,140.51257,137.84077,133.88501,129.20796,125.2712,124.07471,127.24303,135.03638,145.91493,157.02554,165.44572,169.53894,169.66171,167.81252,166.4232,166.99651,169.37364,172.02417,173.12982,171.76863,168.47847,164.89308,162.72696,162.77014,164.50829,166.55943,167.59825,167.15808,165.81976,164.71875,164.73781,165.92551,167.49506,168.36011,167.82234,165.96103,163.50578,161.32909,159.92917,159.24141,158.85805,158.44603,158.03194,157.94637,158.48741,159.57626,160.68596,161.12206,160.47139,158.89972,157.07335,155.73698,155.22481,155.23622,155.03423,153.93678,151.77124,148.98566,146.34769,144.44414,143.32916,142.55859,141.57071,140.1244,138.4653,137.09166,136.29445,135.83176,135.0201,133.2272,130.43608,127.45159,125.53197,125.62228,127.6774,130.55705,132.62787,132.73201,130.90111,128.32074,126.52852,126.35429,127.32293,127.9678,126.89865,123.92385,120.42365,118.61473,120.07772,124.46423,129.27882,131.0146,127.07545,117.37685,104.64574,93.18145,86.748489,86.783981,91.901703,98.891228,104.53921,107.17743,107.12629,105.94762,105.14901,105.23507,105.65623,105.53884,104.55989,103.2938,102.79608,103.76436,105.91977,108.08022,108.8921,107.71544,105.05171,102.22549,100.54505,100.51012,101.57896,102.60793,102.62646,101.41653,99.543831,97.886978,97.038254,96.987991,97.255096,97.295311,96.8517,96.010674,94.988548,93.881516,92.607635,91.073769,89.386681,87.878273,86.874435,86.374535,85.922928,84.83548,82.670547,79.615349,76.477028,74.232483,73.415443,73.761856,74.374069,74.305298,73.166054,71.336044,69.649292,68.799988,68.910789,69.56797,70.260323,70.843437,71.632568,73.030891,74.993019,76.796181,77.385101,76.107849,73.305359,70.251884,68.383255,68.295189,69.235725,69.534134,67.761215,63.848473,59.336918,56.470406,56.653564,59.300163,61.91692,61.472931,56.212589,46.697174,35.301273,24.390554,14.314287,2.5449686,-15.372975,-43.523369,-83.27388,-132.22333,-184.98407,-235.25818,-277.99219,-310.52905,-332.45901,-344.7171,-348.80692,-346.66675,-340.98032,-335.24829,-333.07507,-336.79028,-346.20877,-358.47589,-369.36893,-375.48135,-376.04996,-373.29602,-371.02408,-372.30893,-377.68991,-384.9794,-390.76578,-392.61377,-390.5379,-386.8223,-384.35468,-384.61853,-386.70959,-388.0694,-386.48911,-382.05823,-377.67603,-377.56198,-384.41711,-396.79193,-408.27213,-409.25101,-390.74353,-348.58942,-286.05545,-213.46419,-144.78027,-92.485992,-62.930836,-54.224979,-57.665588,-62.078873,-59.06472,-46.635464,-29.469589,-15.670963,-11.741625,-18.476559,-30.072422,-37.039677,-31.392418,-11.240712,17.855894,45.649345,62.616016,64.994202,56.577625,46.239063,42.631161,49.160736,62.159233,73.268723,74.558029,63.289242,43.515892,23.644423,11.51877,10.026999,15.819762,21.779234,21.604216,13.679319,1.9538641,-6.5423388,-5.8963442,5.3391457,23.519186,42.115879,55.19973,60.059055,57.615253,50.821739,42.4576,33.878643,25.370741,17.477249,11.961138,11.392122,17.459631,29.191017,42.513824,51.81427,52.809284,45.058445,32.483257,21.369289,16.836632,19.749582,25.871647,27.844603,18.993578,-3.049356,-34.798336,-68.208298,-94.094635,-105.94479,-102.32745,-86.939285,-66.535164,-47.923191,-35.455318,-29.994591,-29.518267,-30.764225,-30.975948,-28.938473,-24.983814,-20.20793,-15.510124,-11.076502,-6.5926809,-1.9700022,2.0089245,3.7293546,1.6565629,-4.3262763,-12.063973,-17.600754,-17.140841,-9.6950912,1.0681301,7.1307516,-1.0417382,-30.183908,-80.49408,-144.50848,-209.42728,-261.97598,-293.52582,-303.02444,-296.4281,-283.14835,-271.50531,-265.51236,-264.37836,-264.51846,-262.56207,-257.53864,-251.17476,-246.48213,-245.76938,-249.35251,-255.60612,-262.09085,-266.90344,-269.43213,-270.22443,-270.27426,-270.31177,-270.52441,-270.74002,-270.78098,-270.66013,-270.49997,-270.31738,-269.91565,-269.01331,-267.52628,-265.78235,-264.48602,-264.42471,-266.07938,-269.35538,-273.56778,-277.66907,-280.60306,-281.64578,-280.63361,-278.02151,-274.74313,-271.87637,-270.18912,-269.73178,-269.69385,-268.66901,-265.28064,-258.89386,-250.03845,-240.28114,-231.57831,-225.44057,-222.35492,-221.75487,-222.49651,-223.50729,-224.21059,-224.52937,-224.58513,-224.40741,-223.91508,-223.16763,-222.61592,-223.01711,-224.88745,-227.71794,-229.43028,-226.51569,-214.9726,-191.72542,-155.92015,-109.51732,-56.918156,-3.7837915,44.476433,83.996414,113.12914,132.38702,143.78923,149.9238,153.07703,154.71747,155.4686,155.50075,155.08311,154.95239,156.24535,159.9928,166.45973,174.76311,183.08389,189.44936,192.68971,193.01614,191.85271,190.99475,191.58795,193.54755,195.76552,196.95117,196.54176,195.08322,193.84189,193.92914,195.54521,197.85664,199.57603,199.82645,198.68439,197.03586,195.87854,195.60083,195.77823,195.63943,194.8432,193.94936,194.16081,196.43961,200.59088,205.00439,207.34958,205.88255,200.57257,193.30836,186.99266,184.02798,185.08792,188.89702,193.11609,195.75285,196.2213,195.43684,194.97174,195.8857,198.01418,200.15205,200.96028,199.95226,197.88791,196.31517,196.56944,198.89308,202.25122,204.96387,205.75098,204.53061,202.47456,201.29501,202.20969,205.21904,209.12408,212.25473,213.45441,212.72878,211.18678,210.3363,211.17599,213.62811,216.63148,218.80858,219.28221,218.14804,216.34131,215.01703,214.85599,215.73241,216.92644,217.70273,217.84253,217.76357,218.15761,219.41974,221.29857,223.04755,223.99812,224.15024,224.32283,225.68396,228.9164,233.57249,238.10689,240.66127,240.16873,237.08856,233.26788,230.95801,231.55531,234.82861,239.10257,242.26884,242.98549,241.33064,238.5562,236.17755,235.0401,234.9612,235.10814,234.76059,233.87547,233.06854,233.0829,234.18678,235.96284,237.623,238.57027,238.75226,238.54181,238.27997,237.9023,237.00446,235.32597,233.24184,231.77559,231.98418,234.08459,236.99307,238.75566,237.74524,233.88992,229.03964,226.04196,226.92245,231.21056,235.46886,234.42677,223.19287,199.40775,164.27255,122.06406,78.563873,39.27747,8.1887903,-12.713793,-23.369495,-25.375116,-21.629787,-15.754485,-11.158076,-9.9363689,-12.132562,-15.897214,-18.637306,-18.593451,-15.908729,-12.490981,-10.728971,-11.902496,-15.360368,-19.024927,-20.852802,-20.202482,-18.134996,-16.469946,-16.353868,-17.466106,-18.486406,-18.436707,-17.762672,-18.155945,-21.100916,-26.246899,-31.065622,-32.460991,-29.515446,-25.440458,-26.962915,-40.898163,-69.623489,-108.23654,-145.51215,-168.62912,-169.31354,-148.02486,-113.80734,-79.871597,-57.370785,-50.733849,-56.827248,-67.900688,-76.207298,-77.584274,-72.331612,-63.576744,-54.709171,-47.618229,-42.501781,-38.781406,-36.048897,-34.283207,-33.400368,-32.798794,-31.483671,-28.742691,-24.776241,-20.66375,-17.595255,-15.945739,-14.958141,-13.34537,-10.37429,-6.5666499,-3.4149854,-2.2844219,-3.3453538,-5.4012055,-6.7901149,-6.6720996,-5.6614475,-5.2472506,-6.4217081,-8.6418753,-10.085223,-9.1804037,-6.3190169,-4.3367443,-7.1230855,-17.082333,-33.130604,-50.709583,-63.992649,-68.946968,-65.290436,-56.130421,-45.679081,-36.748501,-29.774958,-23.87254,-18.812952,-16.104013,-18.081921,-25.610735,-36.303646,-45.052517,-47.040192,-41.433418,-33.109875,-30.822407,-42.548183,-70.804482,-110.94734,-153.62614,-189.84531,-215.35963,-231.63136,-242.98595,-252.24187,-258.09341,-256.17001,-242.94614,-219.50882,-192.19443,-169.31844,-156.08411,-151.20386,-147.71283,-137.58989,-117.13392,-89.469742,-62.520638,-43.919147,-36.435158,-37.080273,-40.396542,-43.426147,-48.632278,-62.48468,-90.53759,-132.418,-180.36562,-222.62778,-249.70766,-259.46902,-257.7915,-254.37825,-256.47113,-264.51282,-272.40356,-271.93506,-258.33026,-233.30315,-203.89095,-178.1521,-160.72769,-151.05206,-144.98718,-138.34195,-129.69501,-120.74625,-114.34142,-111.91589,-112.30698,-112.6833,-110.71716,-106.28087,-101.42343,-98.734657,-99.383926,-102.28506,-104.93279,-105.21033,-102.80772,-99.261482,-96.690521,-96.241882,-97.393745,-98.547234,-98.35257,-96.706764,-94.679054,-93.485825,-93.369797,-93.292038,-91.69973,-87.795013,-82.33522,-77.33123,-74.818398,-75.550125,-78.51944,-81.622658,-82.985199,-82.042572,-79.693413,-77.519203,-76.69278,-77.336151,-78.683983,-79.79892,-80.229439,-80.134827,-79.878464,-79.515999,-78.653976,-76.810768,-73.969521,-70.832588,-68.513237,-67.85215,-68.863487,-70.740608,-72.435333,-73.383278,-73.826729,-74.48645,-75.834953,-77.544518,-78.570946,-77.860039,-75.177063,-71.42823,-68.182739,-66.677994,-66.986183,-67.939377,-67.898262,-65.861717,-62.167614,-58.30798,-55.984417,-56.042828,-57.993359,-60.40506,-61.863342,-61.815041,-60.743984,-59.61948,-59.074009,-58.930687,-58.409718,-56.82209,-54.191772,-51.304749,-49.121304,-47.987862,-47.276649,-45.810608,-42.870358,-39.11422,-36.707291,-38.404766,-45.999699,-59.004112,-74.382187,-87.603455,-94.548317,-93.305641,-84.939095,-72.842819,-61.050392,-52.393631,-47.447056,-44.735226,-41.985497,-37.659126,-31.880322,-26.258007,-22.746796,-22.259531,-23.9049,-25.376476,-24.344957,-20.07839,-14.30661,-10.707158,-13.148205,-23.56148,-40.599812,-59.867981,-75.682686,-83.483711,-81.666046,-71.938843,-58.142975,-44.283501,-32.87817,-24.413498,-17.967873,-12.384719,-7.1665306,-2.5966241,0.80074972,2.910135,4.2388377,5.5522556,7.2605467,9.0738392,10.219209,10.064618,8.6717491,6.8485527,5.6524091,5.7136312,6.8847117,8.4686375,9.8324289,10.914073,12.216322,14.289063,17.120842,19.958576,21.760832,21.989584,21.141247,20.560734,21.592768,24.635168,28.781721,32.359581,34.033337,33.719368,32.654346,32.540825,34.347942,37.605919,40.700768,41.97681,40.882488,38.360569,36.213932,35.896652,37.574615,40.093002,41.835876,41.839851,40.374939,38.624519,37.761623,38.136162,39.158985,39.908596,39.932224,39.588894,39.676857,40.684612,42.324917,43.786747,44.530743,44.940922,46.165337,49.07444,53.021984,55.4221,52.737118,42.521202,25.324537,5.1582518,-11.99575,-20.935238,-19.708784,-10.372437,2.3822849,13.855926,21.629944,26.226412,29.94949,34.87101,41.366783,48.095173,53.240936,55.987614,57.110931,58.305672,60.816807,64.443085,67.676132,68.874878,67.597527,65.087814,63.526531,64.560127,68.153656,72.596298,75.673225,76.189484,74.780113,73.441551,74.115517,77.31588,81.752037,85.204796,86.045052,84.35408,81.89373,80.96814,82.960098,87.511978,92.85051,96.973686,98.871185,98.990433,98.724579,99.366936,101.28817,103.86145,106.09017,107.40626,108.03924,108.72387,110.02229,111.80973,113.3247,113.74321,112.83872,111.22462,109.98502,109.94818,111.11856,112.67208,113.52012,113.04984,111.53086,109.91712,109.19215,109.71222,110.98737,112.03117,112.02734,110.8677,109.22685,108.1571,108.48222,110.35045,113.14852,115.72607,116.7257,114.8541,109.09319,98.970047,84.949905,68.811226,53.67646,43.396866,41.287655,48.639057,63.718334,81.897461,97.067749,103.85907,99.720039,85.912811,66.959473,48.804386,36.546223,32.744564,36.960011,46.552486,58.183563,69.231323,78.507332,86.116104,92.748032,98.91581,104.55871,109.14638,112.10818,113.261,112.96626,111.94817,110.91589,110.23329,109.82719,109.36611,108.57563,107.48022,106.41521,105.80095,105.82638,106.25595,106.507,105.97864,104.44395,102.25539,100.20751,99.107384,99.296867,100.42433,101.6264,102.02831,101.26012,99.66153,98.037903,97.120308,97.082329,97.43438,97.365677,96.300255,94.28553,91.949615,90.067902,89.057411,88.764862,88.692482,88.471153,88.195702,88.335686,89.268463,90.800858,92.098373,92.158478,90.537613,87.792412,85.241585,84.129456,84.74633,86.166573,86.875488,85.906181,83.660957,81.714363,81.570267,83.14476,84.093933,80.687355,69.943054,51.814034,29.999538,10.669549,-0.35628673,-0.42990258,8.7322989,22.177752,34.469902,42.401192,46.080868,47.880524,50.086758,52.89241,54.064117,50.471943,40.428593,25.268305,9.1123085,-3.0532587,-7.8056536,-4.7784104,3.5681055,13.591002,22.409882,29.002552,33.981857,38.467224,42.959599,46.964989,49.485397,49.886501,48.464699,46.337982,44.798412,44.605858,45.667614,47.225864,48.341888,48.350883,47.086864,44.875053,42.379372,40.337837,39.149872,38.346245,36.179115,29.730398,15.821606,-7.4369712,-39.161503,-75.212227,-109.29542,-135.38158,-150.30934,-155.15564,-154.51762,-154.00945,-157.33896,-164.61137,-172.78842,-177.9343,-177.81447,-173.25552,-167.51625,-164.2018,-165.13673,-169.54105,-174.91243,-178.875,-180.67789,-181.37839,-182.72797,-185.68558,-189.6781,-193.11006,-194.66742,-194.36794,-193.50751,-193.48465,-194.34296,-194.12848,-189.62564,-178.08601,-158.86922,-133.95624,-107.0349,-81.772575,-60.354233,-43.088879,-29.110661,-17.493643,-7.9454255,-0.69771737,4.1162734,6.9402561,8.6680241,10.022237,11.017402,11.05655,9.688611,7.4430299,5.9627318,7.0855584,11.314313,16.698746,19.064775,13.753708,-1.9477861,-27.046291,-56.822594,-84.668304,-104.84576,-114.74706,-115.5649,-111.20581,-106.19495,-103.71845,-104.67639,-107.94698,-111.44144,-113.28632,-112.62143,-109.82851,-106.25985,-103.63199,-103.26482,-105.39632,-108.88342,-111.57712,-111.40848,-107.78712,-102.5537,-99.753334,-104.02792,-118.23202,-141.47876,-168.78339,-192.71721,-206.399,-206.36696,-193.88345,-174.04869,-153.26534,-136.42702,-125.23637,-118.32207,-112.79935,-106.21348,-97.782021,-88.429169,-79.863335,-73.423294,-69.388802,-67.034798,-65.228081,-63.11367,-60.504383,-57.848705,-55.903217,-55.336758,-56.441887,-59.015625,-62.387985,-65.55439,-67.378311,-66.835693,-63.263172,-56.56189,-47.311092,-36.752785,-26.610561,-18.715967,-14.468023,-14.264265,-17.165321,-21.080236,-23.588612,-23.168068,-20.248774,-17.425211,-18.474041,-26.461636,-41.83218,-61.545433,-79.891479,-90.736214,-90.137527,-78.017281,-58.061329,-35.972713,-17.055767,-4.3614068,1.831579,3.2513659,2.2935107,0.93155408,0.30178824,0.83809954,2.5455208,5.1222897,7.9729738,10.353625,11.761046,12.350181,12.973922,14.634388,17.623964,21.023417,23.118496,22.655069,20.095453,17.779522,18.472456,22.929531,28.058903,27.247896,13.258159,-17.584827,-62.286514,-111.23553,-151.80472,-173.80029,-173.87016,-156.49786,-131.16052,-107.41684,-90.756149,-81.350349,-75.917061,-71.014503,-65.450874,-60.41843,-57.709442,-57.681976,-58.639198,-58.060425,-54.636402,-49.429134,-45.15625,-44.072392,-46.073147,-48.593445,-48.598984,-45.36858,-42.003387,-44.287239,-57.261795,-81.515465,-111.5871,-137.72755,-150.24992,-144.10869,-121.18252,-89.08123,-57.289375,-32.872219,-18.00061,-10.298262,-5.3401952,0.43508416,8.0538855,16.214788,22.815199,26.594435,27.883936,28.203821,29.185307,31.586979,34.941994,37.890442,38.873138,36.781479,31.32229,23.075562,13.341812,3.870944,-3.483465,-7.1545835,-6.240027,-0.78989297,8.0516033,18.072033,26.205574,28.998796,23.396677,7.7997746,-16.902996,-46.848709,-75.767784,-96.723778,-104.51266,-97.690765,-79.181137,-55.018017,-31.750917,-13.790595,-2.0414281,5.5586033,12.066454,19.404345,27.34268,34.077641,37.836025,38.321136,37.014362,36.196789,37.446507,40.688,44.42321,46.909271,47.39484,46.54224,45.804321,46.299942,48.064758,50.214508,51.824295,52.770523,53.830914,55.952774,59.29813,62.90028,65.316597,65.860733,65.461731,66.376816,70.797798,79.258842,90.009705,99.912514,106.33682,108.74215,108.7626,108.62778,108.9903,107.79166,101.21806,86.391884,64.145218,39.946102,22.066669,17.790201,29.755228,54.560516,84.456001,111.13165,129.43181,138.99051,143.14557,146.13498,150.46246,155.95013,160.72429,163.11348,163.00249,161.78114,161.13808,161.75534,162.92087,163.29213,162.14249,160.07431,158.62404,159.05919,161.30777,163.88788,164.96596,163.8084,161.53322,160.49709,162.58316,167.45685,171.97069,171.23792,160.87665,139.20476,108.18204,72.620674,38.149834,9.0480165,-12.985922,-28.672131,-39.933182,-48.450001,-54.797081,-58.514912,-58.908138,-55.983425,-50.925072,-45.807899,-42.685711,-42.548973,-44.753105,-47.318573,-48.067673,-46.079102,-42.660488,-41.160255,-45.481228,-57.892704,-77.264702,-98.807793,-115.71175,-122.04681,-115.49525,-98.430939,-76.675446,-56.524185,-41.632919,-31.468904,-22.155071,-9.1617556,9.7571163,33.091156,56.365074,74.636703,85.163742,88.680107,88.635956,89.003685,92.057266,97.429993,102.86832,106.03123,106.10745,104.25739,102.71766,103.26482,106.07982,109.71144,112.08031,111.80385,108.96593,104.86253,100.93391,97.608734,93.833069,87.634018,77.443306,63.442196,48.135349,35.735542,30.542337,35.027325,48.537643,67.298035,85.816574,99.131569,104.8853,104.21647,100.97082,99.536652,102.33416,108.23454,112.78065,110.18726,96.167091,70.168625,35.893761,-0.14352791,-31.243891,-52.989799,-64.389099,-67.328789,-64.902351,-59.691002,-52.920448,-44.740875,-35.151459,-24.769547,-14.884896,-6.8254399,-1.1633811,2.6228836,5.7743044,9.4287977,13.924963,18.696102,22.786959,25.590998,27.273155,28.594114,30.292524,32.494518,34.586521,35.643887,35.105583,33.210354,30.880163,29.126644,28.389227,28.261663,27.797649,26.194363,23.39835,20.226646,17.90661,17.304562,18.306507,19.726828,19.822269,17.160963,11.416342,3.6939027,-3.7900674,-8.588809,-9.1492252,-5.7478056,-0.82274842,1.5523095,-2.9834177,-17.300312,-41.250591,-71.117561,-100.47446,-122.30359,-131.59911,-127.33482,-112.85732,-94.444138,-78.637283,-69.57399,-67.545189,-69.390144,-70.408562,-66.737206,-56.990818,-42.460121,-25.98914,-10.333045,3.0400605,14.141399,23.758944,32.488602,40.190899,46.181847,49.924702,51.65469,52.447762,53.658081,56.101189,59.541401,62.837776,64.659889,64.307381,62.107872,59.159977,56.626583,55.070019,54.2645,53.570023,52.554199,51.383537,50.68742,50.997013,52.190258,53.390591,53.444363,51.661129,48.261032,44.131958,39.979202,35.434402,28.827387,17.969862,1.6416222,-19.076315,-40.526123,-57.623577,-65.971001,-63.848057,-52.989643,-37.707272,-22.837141,-11.646853,-4.8071928,-0.85922933,2.2908497,5.8750029,9.6761217,12.582743,13.743054,13.420112,12.929875,13.73938,16.413733,20.200254,23.562435,25.274231,25.266121,24.588541,24.509699,25.42417,26.426733,25.943729,23.019644,18.299042,13.859258,11.813985,12.525481,13.687771,11.121584,1.0649657,-17.286377,-40.545811,-62.104389,-74.931526,-74.744728,-61.847782,-40.704632,-17.611252,2.1500864,16.141087,24.807535,30.083393,33.684994,36.190697,37.280186,36.646561,34.691006,32.397049,30.499229,28.659441,25.406664,19.055159,9.0830688,-2.9493628,-13.645247,-19.179577,-17.139809,-7.7784858,6.0163913,20.005604,30.438215,35.507729,35.770382,33.462212,31.19079,30.698463,32.244728,34.786705,36.76025,37.037773,35.606499,33.646847,32.936588,34.799557,39.063118,43.571911,44.630325,38.334461,22.27371,-3.1965325,-34.784954,-67.350281,-95.744286,-116.50737,-128.61183,-133.00894,-131.4196,-125.19081,-114.89201,-100.76194,-83.528557,-64.902779,-47.323555,-33.087288,-23.430399,-18.148764,-15.948333,-15.231445,-14.793091,-14.077194,-13.051249,-12.051612,-11.884176,-14.096612,-20.995636,-35.003716,-57.400246,-87.074333,-120.16811,-151.12691,-174.84616,-188.83662,-194.17337,-194.63211,-194.49129,-196.30176,-199.93398,-203.37695,-204.62106,-203.27785,-200.83395,-199.43629,-200.16263,-202.09973,-202.95949,-200.82603,-195.75642,-190.00253,-186.58698,-187.18716,-190.87604,-194.75858,-196.22318,-195.29272,-195.30547,-201.14346,-215.86403,-237.79926,-260.11526,-273.43365,-270.24686,-248.69504,-213.56776,-173.98825,-139.13757,-114.41394,-99.997292,-92.236702,-86.624359,-80.386993,-73.285187,-66.57486,-61.288322,-57.255032,-53.522572,-49.675491,-46.842552,-47.421009,-53.528946,-65.19857,-79.619431,-92.110168,-98.367371,-96.67675,-88.755173,-78.727188,-70.872971,-67.487862,-68.047241,-70.016693,-70.662247,-68.709351,-64.927795,-61.457184,-60.427105,-62.727486,-67.548561,-72.778374,-75.896111,-74.87056,-68.742546,-57.827869,-43.62204,-28.473547,-15.033364,-5.5208354,-0.9922322,-0.933442,-3.4577613,-6.1229749,-7.021594,-5.5871177,-2.6722722,0.14110468,1.5872346,1.4919293,0.82896668,1.0599868,3.1983588,7.1816783,11.910224,15.876597,17.965799,17.957375,16.508381,14.739458,13.744948,14.294484,16.772541,21.213562,27.28039,34.187622,40.730614,45.579075,47.804176,47.369564,45.238926,42.938553,41.766148,42.109974,43.31805,44.21772,43.94854,42.544838,40.866943,39.936558,40.165966,41.061386,41.64336,41.287006,40.334915,39.952576,41.230442,44.12434,47.033962,47.458248,43.446037,34.965149,24.274799,14.969983,10.209179,11.175224,16.681688,24.102381,30.962025,36.147346,40.030689,43.595051,47.339787,50.837093,53.243801,54.275417,54.727386,55.928509,58.351387,60.380138,58.341011,48.174915,28.003168,0.068321288,-29.304813,-52.007561,-61.634369,-56.31337,-39.349598,-17.379444,2.8718388,17.427855,26.067923,31.250387,35.907299,41.57093,47.857594,53.330982,56.893093,58.65126,59.730804,61.315155,63.712826,66.153313,67.425842,66.853958,64.881752,62.857185,62.180553,63.416622,65.96283,68.459892,69.634323,69.016167,67.117439,65.046867,63.883263,64.211388,66.031181,68.965569,72.529579,76.272491,79.779984,82.657204,84.598877,85.524902,85.651207,85.388,85.09938,84.897163,84.645424,84.196838,83.68203,83.594902,84.544518,86.801659,89.964668,93.039246,94.964294,95.290749,94.5672,94.133087,95.390373,98.974602,104.33772,110.01259,114.40675,116.64394,116.95136,116.38889,116.13206,116.78413,118.13947,119.50013,120.28018,120.45872,120.56565,121.21315,122.49854,123.70268,123.53127,120.80865,115.24063,107.78843,100.38638,95.089096,93.061028,93.94545,95.992973,96.952888,95.310326,91.20636,86.464798,83.572693,84.044662,87.040512,89.122223,85.539001,72.614021,50.09301,22.141087,-3.7730975,-19.803234,-21.135437,-8.171464,13.688412,36.608208,53.912865,62.842968,65.074173,64.882042,66.163635,70.127945,74.978325,77.632889,76.24852,71.825424,67.776756,67.674644,72.596794,79.827652,83.890739,79.469604,64.584297,42.162094,19.024864,2.7840643,-1.6861316,5.6779704,20.523834,36.568245,48.702408,55.048862,57.049622,57.847015,60.117908,64.651566,70.334602,75.282684,78.221817,79.21814,79.402855,80.029678,81.584694,83.538742,84.834435,84.698349,83.193298,81.158127,79.630821,79.19323,79.690552,80.47892,80.968964,81.033737,80.970856,81.056145,81.05088,80.092072,77.146919,71.803413,64.872345,58.303326,54.283989,53.896595,56.052437,57.387302,53.368565,40.244278,16.980053,-13.756327,-46.121986,-73.019745,-88.64032,-90.541496,-80.367081,-62.917645,-44.031631,-28.265236,-17.415062,-10.480576,-4.9356809,1.4614508,9.3134317,17.368011,23.457363,25.953932,24.835653,21.723919,18.904333,17.971169,18.96143,20.519335,20.958433,19.497673,16.830276,14.630094,14.327594,16.011137,18.260281,19.09882,17.462603,14.15166,11.50249,11.844784,15.670538,20.75312,22.951372,18.393147,5.8053226,-12.438731,-31.278013,-45.456284,-52.132015,-52.103634,-48.985218,-46.905479,-48.162727,-52.218437,-56.509674,-58.406902,-56.983017,-53.489918,-50.36293,-49.547985,-51.325367,-54.370705,-56.888523,-57.923798,-57.898243,-58.043606,-59.242443,-61.229759,-62.836304,-63.161587,-62.81974,-64.247337,-70.636719,-83.990685,-103.45973,-125.05918,-143.08815,-152.5649,-151.38477,-141.06728,-125.77175,-110.2169,-97.670364,-89.006355,-83.126831,-78.264297,-73.286537,-68.277985,-64.210602,-62.071701,-62.069897,-63.399288,-64.652252,-64.589424,-62.807598,-59.944092,-57.328583,-56.28101,-57.420868,-60.336018,-63.777077,-66.281845,-66.912033,-65.714043,-63.64922,-62.025848,-61.757168,-62.888271,-64.684296,-66.218842,-67.061081,-67.568611,-68.545258,-70.479904,-72.9366,-74.643921,-74.390152,-72.228477,-70.14193,-71.505196,-79.365227,-94.355896,-113.45499,-130.48412,-138.36328,-132.15096,-111.39816,-80.625237,-47.647713,-20.528767,-4.5633087,-0.6052056,-5.3432426,-13.219634,-19.01779,-19.984987,-16.682079,-12.347566,-11.157308,-16.152693,-27.700136,-43.123352,-57.680599,-66.489952,-66.560463,-57.993999,-43.78577,-28.340065,-15.484576,-7.0219769,-2.5194445,-0.28393298,1.2346649,2.5659959,3.3668439,3.2948663,2.7362366,2.6084929,3.2000628,2.885983,-2.0949886,-16.154072,-41.668839,-76.640381,-114.36037,-145.76189,-163.52545,-165.78926,-157.29962,-147.15076,-144.17783,-152.44666,-169.27876,-186.84219,-196.35358,-192.54091,-175.99741,-152.36185,-129.06363,-111.60951,-101.41073,-96.064598,-91.551697,-84.852287,-75.495667,-65.38459,-57.293587,-53.097538,-52.75367,-54.481403,-55.876076,-55.249252,-52.476044,-48.960079,-46.777466,-47.426144,-50.770855,-54.707134,-55.792103,-50.67709,-37.7663,-18.311377,3.6997645,22.977627,35.121529,38.519901,34.965782,28.618279,23.833525,23.03446,25.778706,29.487862,31.323195,30.028316,26.626854,23.61718,23.264277,26.13303,30.796965,34.846874,36.465412,35.496758,33.334564,31.78595,31.761909,32.722355,33.229919,32.158283,29.63542,27.008648,25.846186,26.714502,28.663363,29.857002,28.946127,26.183922,23.393618,22.66398,24.575413,27.198063,26.711954,19.48632,4.4625831,-15.628241,-35.076851,-47.720604,-49.837868,-41.825775,-27.770668,-13.224525,-2.4829869,3.1513574,5.3105068,6.9798746,10.487845,16.259693,22.920757,28.458473,31.567743,32.330898,31.926527,31.716482,32.398659,33.760719,35.089401,35.839703,36.045811,36.206928,36.794662,37.800293,38.68903,38.809185,37.956039,36.661861,35.963448,36.761494,39.183353,42.389267,44.996559,45.90144,45.002762,43.352436,42.570713,43.794704,46.728333,49.357494,48.576157,41.499722,26.863771,5.819418,-18.305012,-41.220089,-59.335312,-71.097908,-77.385178,-80.779236,-84.103439,-88.968369,-95.065727,-100.5528,-103.28691,-102.2058,-98.063118,-93.0783,-89.665382,-88.935677,-89.823441,-89.366356,-84.049431,-71.537254,-51.898884,-27.696333,-2.9087548,18.734489,35.165501,46.475418,54.359123,60.917366,67.505585,74.204735,80.085068,83.994034,85.36515,84.613945,82.974236,81.940933,82.652061,85.504257,90.121025,95.606644,100.92104,105.2182,108.05709,109.45819,109.81656,109.7072,109.65092,109.94116,110.62496,111.65452,113.09903,115.21333,118.19207,121.62594,123.93343,122.19917,112.75674,92.495949,60.415524,18.657112,-27.635599,-71.778221,-107.79709,-132.47401,-146.22226,-152.38934,-155.37909,-158.58099,-163.14764,-168.14081,-171.77382,-172.87831,-171.66234,-169.32649,-166.85027,-163.79497,-157.97037,-146.28702,-126.38841,-98.165123,-64.286064,-29.40947,1.5548124,25.273615,41.042446,50.635288,57.146214,63.475746,71.195206,80.234009,89.375092,97.167549,102.74207,106.15983,108.21965,109.92475,111.94229,114.33788,116.68563,118.44493,119.36205,119.66042,119.91805,120.72005,122.30997,124.46293,126.6598,128.44197,129.69908,130.68329,131.73578,132.92867,133.9081,134.0952,133.13484,131.26718,129.30858,128.19067,128.34833,129.41324,130.49867,130.93271,130.90337,131.43768,133.5457,136.99205,139.575,137.64154,127.8495,109.31754,84.863602,60.390606,42.49913,35.498993,39.449673,50.345276,62.33918,70.719124,73.938354,73.643456,72.906677,73.950935,76.859856,79.987808,81.579575,81.304672,80.549789,81.274857,84.327843,88.544037,91.40461,90.873917,87.100349,82.64698,80.883995,83.490906,88.766014,92.054466,88.275528,75.107002,54.828552,33.553143,18.165487,12.732828,16.518848,24.761665,31.676849,33.791607,31.561094,28.347721,27.527273,29.652311,31.529722,27.830687,14.25036,-9.7222013,-40.10461,-70.200584,-93.796211,-107.93897,-113.81355,-115.41479,-116.97704,-120.70428,-125.97945,-130.2354,-130.70592,-125.91295,-116.11681,-102.7272,-87.304344,-70.893997,-54.042179,-37.269203,-21.461939,-7.7716112,2.9516838,10.746918,16.646812,22.123425,28.186207,34.732288,40.619938,44.460976,45.629642,44.809681,43.687511,43.964714,46.331615,50.087837,53.672459,55.751686,56.123436,55.813042,56.287739,58.339199,61.436359,64.041687,64.705048,63.168316,60.655556,59.065498,59.57692,61.666348,63.337128,62.547619,58.926998,54.518009,52.799736,56.358093,64.581841,72.963043,74.750824,64.293617,40.276707,6.9610138,-27.416494,-54.313763,-68.66552,-70.768112,-65.380424,-58.75119,-55.381882,-56.302361,-59.56448,-62.277618,-62.694229,-61.057987,-58.918247,-57.671215,-57.505695,-57.491982,-56.634552,-54.994328,-53.967331,-55.461533,-60.542488,-68.520943,-77.153954,-83.856468,-87.128403,-87.273712,-85.992493,-85.191223,-85.843285,-87.623497,-89.449959,-90.435715,-90.525459,-90.397621,-90.793152,-91.848061,-92.964172,-93.30825,-92.535194,-91.159859,-90.273712,-90.802032,-92.845039,-95.584152,-97.817108,-98.729462,-98.354179,-97.422058,-96.763954,-96.740921,-97.119011,-97.430084,-97.470261,-97.491379,-97.913742,-98.811577,-99.650322,-99.585388,-98.17572,-95.972389,-94.443611,-95.139122,-98.582436,-103.67154,-108.10867,-109.70204,-107.74227,-103.52294,-99.584686,-98.104523,-99.457977,-101.91783,-102.73203,-99.912804,-93.58268,-85.999016,-80.241539,-78.418655,-80.541832,-84.74279,-88.598999,-90.618431,-90.897659,-90.612297,-90.851143,-91.748734,-92.590042,-92.764328,-92.724899,-94.019958,-98.105629,-104.60813,-110.28307,-109.66258,-97.383026,-71.062859,-33.097286,9.7779894,49.07983,78.033348,94.11528,99.453102,99.062683,98.052536,99.338722,102.92669,106.80816,108.64453,107.15856,102.57464,96.159538,89.419792,83.533081,79.224861,76.896614,76.681519,78.300453,80.897995,83.16153,83.840881,82.433075,79.571831,76.776062,75.617805,76.786987,79.644653,82.564255,83.850769,82.653282,79.310272,74.968956,70.809906,67.438927,64.824432,62.71545,61.111473,60.347351,60.703171,61.875954,62.814243,62.171822,59.152866,54.165585,48.765587,44.83894,43.522789,44.580528,46.656883,48.225117,48.545876,47.956646,47.321964,47.127617,46.99868,46.101776,44.158188,42.189903,42.151718,45.345623,50.509064,52.999119,46.079884,24.093924,-14.015166,-62.886993,-111.98061,-149.577,-167.64948,-165.09898,-147.66991,-124.66223,-104.29031,-90.195496,-80.836761,-71.765541,-59.178928,-42.572433,-25.044634,-11.315182,-4.8531618,-5.9004488,-11.473357,-17.157896,-19.490801,-17.520319,-12.788689,-7.9838176,-5.2278805,-5.0201535,-6.3017292,-7.3829818,-7.0315008,-5.0715528,-2.2676814,0.27217719,1.722862,1.8501045,0.93473148,-0.51488382,-2.0323083,-3.3179977,-4.2357512,-4.7641606,-4.9582348,-4.9140258,-4.7098565,-4.3374238,-3.6847894,-2.6243865,-1.1805298,0.33947918,1.383051,1.397406,0.16807574,-1.9638402,-4.181376,-5.5718303,-5.6110163,-4.4651279,-2.9134686,-1.9181871,-2.0832188,-3.3168025,-4.8920035,-5.8642597,-5.5984769,-4.103929,-1.9966522,-0.12646189,0.91084468,1.103009,1.0142319,1.4429353,2.9155722,5.2717624,7.5628657,8.3555231,6.3509111,1.0704616,-6.7142096,-15.061782,-21.502001,-24.014,-21.911438,-16.188007,-9.1018181,-3.1549985,0.04036409,0.4288123,-0.63670588,-1.2605113,-0.086682416,3.0164537,7.0329285,10.530274,12.54679,13.070013,12.841159,12.68176,12.851136,12.895525,12.079897,10.064746,7.3088837,4.8783441,3.7805057,4.3041849,5.8599982,7.4579544,8.4816761,9.1726856,10.423057,12.978617,16.623522,19.994673,21.271597,19.358871,14.767789,9.5292597,6.0883927,5.8411832,8.2788296,11.358542,12.915633,12.19857,10.459521,10.110966,12.915602,18.385422,23.530876,24.300217,17.966476,5.0471301,-10.469227,-22.851118,-27.411263,-22.81402,-11.630114,1.1268984,10.612261,14.446736,13.505697,10.932398,10.10673,12.794664,18.457512,24.93152,29.89686,32.195168,32.277699,31.665302,31.882284,33.558456,36.194782,38.633835,39.862129,39.627098,38.522869,37.549549,37.463341,38.33604,39.591618,40.482559,40.688904,40.632454,41.259846,43.381504,46.969471,50.910732,53.489235,53.420391,50.842861,47.56871,46.23632,48.661182,54.268559,59.623653,59.584881,49.705139,28.701689,-0.38218468,-31.099512,-56.270596,-71.07328,-74.946701,-71.339241,-65.528519,-61.798805,-61.552383,-63.297131,-64.296432,-62.705898,-58.830994,-54.798508,-52.990276,-54.356194,-57.735447,-60.60165,-60.703213,-57.510437,-52.546291,-48.425377,-47.248852,-49.375015,-53.297161,-56.635326,-57.569328,-55.826317,-52.680477,-50.064617,-49.410069,-50.922688,-53.658527,-56.245453,-57.737442,-58.082836,-57.988117,-58.343895,-59.609589,-61.521126,-63.252316,-63.892647,-62.952175,-60.627956,-57.718483,-55.255569,-54.046532,-54.34248,-55.775578,-57.579365,-58.975128,-59.529793,-59.306225,-58.736099,-58.299683,-58.210411,-58.301384,-58.184601,-57.573109,-56.539383,-55.515808,-55.016079,-55.257729,-55.954422,-56.448833,-56.12775,-54.854156,-53.11591,-51.763687,-51.484638,-52.347008,-53.721661,-54.650124,-54.439743,-53.115215,-51.44133,-50.495163,-51.034668,-53.018997,-55.532936,-57.139202,-56.477283,-52.850471,-46.593552,-39.115131,-32.586994,-29.304125,-30.812868,-37.036053,-45.759293,-52.855621,-53.40855,-43.477367,-21.829504,9.1838999,44.150448,76.42408,100.50338,113.89433,117.63429,115.33195,111.3125,108.83456,109.17519,111.80601,115.28269,118.19334,119.67297,119.40738,117.40095,113.83756,109.14247,104.07597,99.607468,96.499573,94.826622,93.801552,92.13784,88.808464,83.744644,77.995857,73.19664,70.645782,70.578255,72.095169,73.781303,74.581398,74.347633,73.72007,73.481232,73.890198,74.49131,74.521736,73.586098,72.063194,70.910774,70.990761,72.410126,74.379501,75.7201,75.669678,74.406319,72.904037,72.221001,72.74202,73.93647,74.811447,74.715614,73.874008,73.226044,73.669762,75.290466,77.201241,78.177971,77.641624,76.199883,75.204552,75.488503,76.132629,74.260483,66.285683,50.069294,26.71648,0.78569198,-21.453907,-34.899689,-38.054886,-33.633171,-26.965136,-23.112822,-24.325766,-29.217943,-33.986759,-34.803219,-29.904337,-20.240608,-8.5091496,2.6164861,11.872283,19.621565,26.970993,34.557514,41.898411,47.708992,50.879948,51.36636,50.346626,49.547867,50.208248,52.368603,54.932281,56.408649,55.828213,53.257622,49.653561,46.234955,43.823009,42.545494,42.004768,41.697762,41.358936,41.019394,40.814423,40.741814,40.567982,39.932194,38.544308,36.323681,33.405636,30.060169,26.62281,23.487457,21.114035,19.956602,20.275858,21.923,24.26371,26.365238,27.40572,27.092245,25.825733,24.481752,23.914404,24.476852,25.853146,27.300123,28.131876,28.123125,27.571754,27.001825,26.739866,26.680632,26.413429,25.60787,24.355928,23.186899,22.709494,23.124752,23.98123,24.400469,23.669083,21.802519,19.654106,18.422686,18.833078,20.537323,22.197643,22.285267,20.125582,16.484699,13.220083,12.104523,13.516197,15.871567,16.293858,12.255087,3.2635276,-8.4637537,-18.870041,-24.083923,-22.475607,-15.532598,-6.9997697,-0.756091,1.3260128,0.26414227,-0.92640102,0.6707589,5.8934503,12.893591,18.300085,19.426723,16.111786,10.96651,7.778934,8.9802141,13.716364,17.775841,15.56321,3.1068664,-19.542709,-47.85915,-74.605225,-92.896988,-98.995522,-93.48008,-80.383476,-64.940643,-51.223797,-40.821323,-33.01075,-26.032297,-18.56424,-10.558397,-3.0996947,2.4407811,5.3332295,5.924963,5.3831134,4.9767962,5.3746595,6.3743711,7.187407,7.0650234,5.8633022,4.2006793,3.1152766,3.430099,5.2103686,7.6490145,9.4695587,9.6298561,7.9233685,5.1222019,2.5684772,1.4464705,2.1597874,4.1723771,6.3850937,7.7901917,7.9877439,7.2642193,6.2442236,5.414794,4.8830566,4.5178971,4.302053,4.5346332,5.6363668,7.6563568,9.8978329,11.094591,10.206573,7.3813839,4.3370442,3.6434519,7.0637441,13.852328,20.172718,20.316011,9.3704615,-13.984261,-46.161373,-79.750885,-106.61702,-121.45135,-123.91119,-118.2416,-110.69132,-106.24537,-106.48907,-109.64031,-112.44925,-112.60538,-110.13875,-107.08578,-105.85281,-107.48919,-111.01414,-114.14259,-114.80609,-112.40173,-107.98701,-103.41676,-100.12106,-98.3815,-97.517433,-96.707413,-95.748428,-95.176651,-95.711037,-97.513664,-99.891457,-101.70982,-102.22717,-101.71668,-101.37511,-102.53295,-105.69778,-110.10676,-114.12494,-116.24355,-116.01695,-114.31781,-112.75427,-112.65128,-114.26904,-116.74122,-118.71548,-119.22379,-118.20449,-116.38645,-114.7008,-113.68008,-113.25229,-113.00576,-112.65456,-112.32024,-112.42673,-113.32208,-114.94592,-116.80937,-118.29963,-119.06983,-119.21853,-119.13615,-119.15665,-119.29697,-119.28632,-118.85005,-118.00565,-117.11449,-116.62251,-116.67281,-116.88978,-116.52787,-114.92058,-111.94497,-108.19135,-104.71432,-102.50811,-102.01368,-102.92867,-104.39468,-105.42578,-105.34637,-104.05548,-102.054,-100.26065,-99.665123,-100.86644,-103.59102,-106.38117,-106.70585,-101.65228,-89.082817,-68.805183,-43.136375,-16.414886,6.4863739,22.027617,29.343668,30.362988,28.639666,27.534681,28.731308,31.844969,35.221565,37.319885,37.773533,37.500511,37.881771,39.634628,42.176441,43.917007,43.285461,39.812107,34.556427,29.602812,26.939867,27.411543,30.354128,34.085285,36.894146,37.91943,37.434288,36.461426,36.043591,36.648518,38.033028,39.565567,40.73262,41.489849,42.266178,43.663868,46.064091,49.365044,52.972862,56.023712,57.721226,57.652451,55.975807,53.420067,51.081497,50.062706,51.062363,54.07373,58.339771,62.620712,65.685165,66.812706,66.072044,64.240631,62.409779,61.475018,61.75914,62.932552,64.237785,64.881699,64.401215,62.848206,60.736904,58.796665,57.637829,57.461304,57.930504,58.278957,57.645756,55.525288,52.128998,48.447384,45.908577,45.731388,48.265369,52.677032,57.208786,59.951981,59.784534,56.999619,53.281342,51.008789,52.214123,57.693516,66.679581,77.191193,86.851089,93.774521,97.158897,97.393822,95.735405,93.736107,92.651604,92.998474,94.368401,95.546196,94.916603,91.057098,83.317169,72.139122,58.945667,45.609512,33.744026,24.176289,16.885233,11.428525,7.5841017,5.7837749,7.0254016,12.268091,21.653006,34.037193,47.177582,58.535358,66.304688,70.124916,71.100578,71.131577,71.925285,74.213196,77.552689,80.755554,82.651321,82.746872,81.446571,79.768234,78.765121,78.995834,80.318657,82.082397,83.565453,84.396072,84.721779,85.053215,85.895058,87.394005,89.218445,90.74646,91.453384,91.262054,90.626938,90.272621,90.719467,91.878822,92.986565,92.959503,91.001976,87.116348,82.199493,77.636719,74.605408,73.487144,73.734573,74.26976,74.167572,73.202995,71.931145,71.26532,71.834846,73.535866,75.553963,76.829323,76.657722,75.052162,72.665375,70.365028,68.761208,67.97805,67.760658,67.768204,67.798378,67.781654,67.595963,66.913231,65.273613,62.397728,58.53212,54.545353,51.625977,50.69894,51.892994,54.401356,56.859062,58.046604,57.521366,55.812794,54.074387,53.405308,54.239449,56.143105,58.108696,59.143818,58.803661,57.378323,55.667595,54.512337,54.366199,55.133457,56.321484,57.375076,57.976948,58.148861,58.12722,58.125706,58.156158,58.027439,57.517681,56.594509,55.518398,54.733604,54.593887,55.096169,55.81752,56.138054,55.642639,54.448929,53.217316,52.781246,53.592152,55.333172,56.992001,57.407043,55.97847,53.087154,49.916725,47.753132,47.199505,47.831894,48.546555,48.376183,47.205341,45.857277,45.458172,46.524048,48.467693,49.968117,50.018177,48.896996,48.240471,49.932896,54.396999,59.437073,60.630398,53.370613,35.563194,9.3807831,-19.137991,-42.668407,-56.065159,-58.811249,-55.063072,-51.268185,-52.725197,-61.029064,-73.75737,-86.385551,-95.127716,-98.965187,-99.76545,-100.64767,-103.80074,-109.17136,-114.74851,-118.0922,-118.00296,-115.25339,-112.0103,-110.44569,-111.49137,-114.48734,-117.81781,-119.99975,-120.4901,-119.7778,-118.85417,-118.52644,-119.03433,-120.12051,-121.36472,-122.46734,-123.30604,-123.8306,-123.98802,-123.78971,-123.44136,-123.34414,-123.86136,-124.96767,-126.06564,-126.20028,-124.63148,-121.42493,-117.63462,-114.8713,-114.45638,-116.66725,-120.56046,-124.50268,-127.07986,-127.80742,-127.20567,-126.24191,-125.56986,-125.11942,-124.3177,-122.75179,-120.74825,-119.39032,-119.89362,-122.73747,-127.16319,-131.43967,-133.79395,-133.44656,-131.09384,-128.51413,-127.52824,-128.95184,-132.17468,-135.5963,-137.60876,-137.49515,-135.70392,-133.38948,-131.58153,-130.55638,-129.80667,-128.58055,-126.5771,-124.29595,-122.79027,-122.9873,-125.03762,-128.14017,-130.97757,-132.49269,-132.50427,-131.74522,-131.2605,-131.50107,-131.65744,-129.66339,-122.93912,-109.53851,-89.143501,-63.423481,-35.593109,-9.3830118,12.11372,27.248466,36.015339,39.674683,40.065369,38.937538,37.54393,36.551914,36.182972,36.420864,37.162231,38.268356,39.554169,40.77927,41.683453,42.062969,41.848595,41.141968,40.189625,39.305218,38.771481,38.755177,39.256966,40.104149,40.985905,41.52676,41.38855,40.380379,38.542931,36.168434,33.731106,31.735849,30.534077,30.182791,30.418009,30.770096,30.782911,30.241076,29.293331,28.39934,28.109457,28.77356,30.320145,32.222786,33.684662,33.964859,32.697502,30.055283,26.683472,23.439541,21.06056,19.90379,19.859169,20.447735,21.042963,21.117111,20.425219,19.076672,17.483332,16.203493,15.725698,16.261723,17.635,19.337328,20.765562,21.552233,21.819523,22.177279,23.388552,25.808735,28.872784,30.948503,29.737049,23.131321,10.176764,-8.3271255,-29.911583,-51.214458,-69.107925,-81.662346,-88.52327,-90.592758,-89.267273,-85.693115,-80.445213,-73.755989,-66.085114,-58.619015,-53.330986,-52.484867,-57.779644,-69.535187,-86.309021,-105.13066,-122.26231,-134.18555,-138.46091,-134.20853,-122.1339,-104.18149,-82.97789,-61.227722,-41.186916,-24.298584,-11.049974,-1.0771662,6.5115581,12.697808,18.163271,23.105253,27.327942,30.541889,32.690296,34.102543,35.375832,37.053345,39.301666,41.802624,43.948242,45.234417,45.6119,45.565308,45.85416,47.064518,49.247105,51.869732,54.114643,55.331146,55.357494,54.51973,53.336697,52.158176,50.998863,49.678402,48.143955,46.706856,45.978634,46.514324,48.40374,51.120453,53.777828,55.653107,56.627487,57.216759,58.135075,59.669659,61.309631,61.933716,60.4935,56.772339,51.706532,47.007877,44.274303,44.122993,45.890003,48.091408,49.356743,49.243431,48.423122,48.143616,49.339699,51.982849,55.084721,57.328461,57.893459,56.932709,55.415657,54.478024,54.730705,55.971725,57.445126,58.418491,58.664188,58.538109,58.655544,59.43811,60.86071,62.545364,64.081863,65.305054,66.324928,67.320992,68.30101,69.041603,69.267601,68.922829,68.300003,67.901733,68.116661,68.950508,70.025192,70.867493,71.290649,71.593925,72.424675,74.381042,77.61158,81.666534,85.682137,88.763779,90.329704,90.241653,88.717918,86.15892,83.024406,79.800179,76.985512,75.017632,74.134087,74.270561,75.099564,76.21212,77.315849,78.291893,79.06781,79.441093,79.068222,77.715462,75.613457,73.574394,72.613197,73.171814,74.44558,74.421089,70.877014,62.929314,52.16325,42.430309,38.103268,41.601154,51.648018,63.497215,71.25647,71.115356,63.573467,53.233776,46.163704,46.366501,53.539124,63.542881,71.295502,74.193657,73.761719,74.326675,79.478378,88.625793,96.056633,93.419724,74.381424,38.738293,-6.5411143,-50.104897,-81.341347,-94.996338,-92.820168,-81.600853,-69.036583,-59.98175,-55.078087,-52.104645,-48.691242,-44.40057,-40.896561,-40.380924,-43.655586,-49.29586,-54.504135,-56.969055,-56.367176,-54.454807,-53.732059,-55.657333,-59.658741,-63.581219,-65.191917,-63.665359,-60.049282,-56.469383,-54.702629,-55.126034,-56.705887,-57.920303,-57.876026,-56.820625,-55.760956,-55.572609,-56.324348,-57.322906,-57.799885,-57.666061,-57.716156,-59.097435,-62.424881,-67.2062,-72.024208,-75.373878,-76.573059,-76.108322,-75.182251,-74.799644,-75.055946,-75.138878,-74.037628,-71.442917,-68.180283,-65.843079,-65.849487,-68.546051,-72.947914,-77.275383,-79.924843,-80.255157,-78.737717,-76.46817,-74.445526,-73.115036,-72.412155,-72.15136,-72.371162,-73.333435,-75.1931,-77.646072,-79.89991,-81.064697,-80.721519,-79.255653,-77.681381,-77.040482,-77.769623,-79.468353,-81.224083,-82.257309,-82.423485,-82.216194,-82.285507,-82.848694,-83.458313,-83.331512,-82.016022,-79.885468,-78.040077,-77.599831,-78.835686,-80.757889,-81.519707,-79.45327,-74.092026,-66.481522,-58.502647,-51.574219,-45.545876,-38.532757,-27.891102,-11.82554,9.3023891,32.7561,54.468285,70.795486,80.039154,82.955177,82.073822,80.310753,79.676704,80.727478,82.884895,85.245392,87.284698,89.050407,90.842331,92.724937,94.281807,94.800438,93.745941,91.177612,87.809891,84.668091,82.55822,81.680557,81.607887,81.608513,81.085777,79.859108,78.140411,76.266663,74.396957,72.385437,69.91111,66.773544,63.156361,59.676456,57.158791,56.231609,56.942719,58.602146,59.960255,59.677158,56.89687,51.672043,45.028969,38.609684,34.020882,32.169796,32.89386,35.066849,37.137016,37.83659,36.712791,34.225815,31.390871,29.183918,28.045118,27.737335,27.597944,26.994934,25.697948,23.954361,22.259974,21.002211,20.214689,19.587799,18.703451,17.322599,15.53797,13.709524,12.247018,11.39253,11.13564,11.290949,11.659423,12.152616,12.800725,13.65254,14.645292,15.535058,15.936674,15.460909,13.891289,11.327481,8.2303982,5.3278818,3.3796747,2.8596077,3.6772535,5.092001,5.9252768,5.0432944,1.9170401,-3.0301473,-8.5185022,-12.965901,-15.24765,-15.25505,-13.922397,-12.681097,-12.640443,-13.973742,-15.87891,-17.136467,-16.91601,-15.323068,-13.341226,-12.210495,-12.64459,-14.390692,-16.40984,-17.552288,-17.286699,-16.018646,-14.811729,-14.712789,-16.124842,-18.617609,-21.266985,-23.280487,-24.511787,-25.573212,-27.523394,-31.34535,-37.496971,-45.705997,-55.015079,-63.988266,-71.0093,-74.660774,-74.167595,-69.788315,-62.929623,-55.782993,-50.498325,-48.22472,-48.543617,-49.709774,-49.696594,-47.539612,-44.208847,-42.427799,-45.427509,-55.251411,-71.523758,-91.361076,-110.47589,-124.8726,-132.25757,-132.52328,-127.24084,-118.62866,-108.64256,-98.595528,-89.282173,-81.269333,-75.012474,-70.713058,-68.109779,-66.473793,-64.907799,-62.78529,-60.031128,-57.049084,-54.362385,-52.241192,-50.583122,-49.099018,-47.611774,-46.200806,-45.077976,-44.334141,-43.828857,-43.383064,-43.149185,-43.808121,-46.287926,-51.02692,-57.198006,-62.468662,-63.633175,-57.934883,-44.429241,-24.643692,-2.1522825,18.721722,34.409626,43.108639,44.971786,41.640404,35.562233,29.453878,25.952501,27.253777,34.571079,47.539566,63.967033,80.317657,92.940186,99.542679,100.14272,96.926193,93.047958,91.033302,91.674995,94.000809,96.213997,96.926895,95.892319,93.843079,91.680748,89.671684,87.242577,83.493393,78.018311,71.4161,65.111221,60.602474,58.64716,58.908409,60.253242,61.450489,61.791325,61.274784,60.343323,59.452148,58.802807,58.371971,58.105595,58.04208,58.240818,58.607697,58.826534,58.519863,57.54509,56.177151,54.982697,54.430553,54.518078,54.722134,54.35696,53.101082,51.293602,49.744228,49.163406,49.6283,50.505981,50.926376,50.468296,49.524357,49.022076,49.667965,51.285,52.803406,53.004238,51.520931,49.328102,48.243191,49.673264,53.460129,57.725834,59.98777,58.890266,55.3386,52.082066,51.786213,54.734276,57.736076,55.219158,42.139229,17.109629,-16.15556,-50.098915,-76.710632,-91.193413,-93.859787,-89.276634,-83.307755,-79.897247,-79.458031,-79.612854,-77.533401,-72.204391,-65.152214,-59.312565,-56.96944,-58.245823,-61.146244,-63.028965,-62.414745,-59.870884,-57.415081,-56.936283,-58.787949,-61.53669,-63.000549,-61.802341,-58.329304,-54.442368,-52.174484,-52.356388,-54.127781,-55.639126,-55.402809,-53.313587,-50.625309,-48.938332,-48.962963,-49.973888,-50.35833,-48.86002,-45.606709,-42.15099,-40.455936,-41.523052,-44.646347,-47.870617,-49.405159,-49.062702,-48.729603,-51.480846,-59.829662,-74.166214,-92.323616,-110.50282,-124.96334,-133.48029,-135.8131,-133.12395,-126.93607,-118.40584,-108.31925,-97.610985,-87.798538,-80.807739,-78.160522,-80.029587,-84.842949,-89.808807,-92.140282,-90.296555,-84.536751,-76.51387,-68.223267,-60.975185,-54.969257,-49.604652,-44.183609,-38.474533,-32.790401,-27.635576,-23.278456,-19.610296,-16.378338,-13.560645,-11.530221,-10.824837,-11.662136,-13.56752,-15.435486,-16.049929,-14.754726,-11.836129,-8.3514004,-5.4984941,-3.9227545,-3.3925004,-3.0268798,-1.8985862,0.39327791,3.5361753,6.7806139,9.4512568,11.334067,12.702103,14.011488,15.520889,17.113665,18.43037,19.185759,19.418818,19.488043,19.820778,20.606199,21.658817,22.551672,22.9242,22.747692,22.364946,22.279819,22.842527,24.040293,25.523275,26.834171,27.680532,28.07601,28.279116,28.598322,29.210894,30.113297,31.211874,32.458447,33.909615,35.656567,37.67979,39.751312,41.482906,42.518494,42.760098,42.477348,42.2118,42.514027,43.661736,45.527451,47.677315,49.640213,51.179237,52.395966,53.606117,55.075165,56.796314,58.466942,59.686432,60.245121,60.304779,60.337872,60.85627,62.109909,63.965164,66.051567,68.070961,70.031822,72.206581,74.803719,77.573341,79.660851,79.898582,77.440308,72.379471,65.93924,60.043022,56.449078,55.925289,57.948135,61.108124,63.972698,65.872711,67.132355,68.626892,70.994156,74.050529,76.819374,78.159859,77.570091,75.609238,73.631737,72.986794,74.199493,76.668785,79.079117,80.252235,79.880798,78.672974,77.83461,78.251175,79.915771,81.966476,83.280762,83.212303,81.983681,80.501923,79.75502,80.208817,81.589149,83.148682,84.192673,84.495415,84.358368,84.334648,84.863884,86.077301,87.853065,89.982552,92.225708,94.15535,94.919327,93.20134,87.596222,77.34938,63.111282,47.234772,33.307606,24.994205,24.650509,32.346111,45.774387,61.126724,74.560249,83.620049,88.010338,89.4105,90.451721,93.316132,98.558846,104.64204,108.3728,106.07426,95.031746,74.647446,46.847523,15.576484,-14.428192,-39.10424,-56.210423,-65.731934,-69.448097,-69.917778,-69.363365,-68.935501,-68.62352,-67.754501,-65.751152,-62.725468,-59.603649,-57.741337,-58.256992,-61.451527,-66.625542,-72.387787,-77.285957,-80.424461,-81.751686,-81.89106,-81.647209,-81.495903,-81.358978,-80.780426,-79.364876,-77.174942,-74.811279,-73.106987,-72.624733,-73.285606,-74.385704,-75.012047,-74.607185,-73.325813,-71.950005,-71.408386,-72.198509,-74.075386,-76.199112,-77.642181,-77.932434,-77.295639,-76.464088,-76.196892,-76.829193,-78.125847,-79.499214,-80.41407,-80.700554,-80.586502,-80.465958,-80.594009,-80.925377,-81.191269,-81.134811,-80.724319,-80.197533,-79.920418,-80.169342,-80.980293,-82.143135,-83.314293,-84.159065,-84.449295,-84.10347,-83.201454,-81.995903,-80.896538,-80.377106,-80.790237,-82.156769,-84.05899,-85.746071,-86.449608,-85.77079,-83.934456,-81.761391,-80.359444,-80.681511,-83.149963,-87.480537,-92.713264,-97.370415,-99.666862,-97.768799,-90.146629,-76.027191,-55.829182,-31.358898,-5.5600901,18.21191,37.167194,49.907703,56.729469,59.266518,59.666378,59.707672,60.264267,61.299549,62.28215,62.72039,62.514889,61.992035,61.683228,62.031219,63.19051,64.989334,67.022316,68.803673,69.925995,70.195084,69.712631,68.86409,68.178452,68.083054,68.656281,69.520561,69.967682,69.280098,67.083519,63.530491,59.208759,54.836742,50.938999,47.694984,45.024841,42.808266,41.049007,39.856152,39.268032,39.076408,38.817547,37.975067,36.278542,33.901516,31.422256,29.563545,28.863615,29.455847,31.046881,33.059261,34.838509,35.844482,35.804218,34.820889,33.390553,32.234081,31.899113,32.249805,32.145439,29.641998,22.826551,10.984426,-4.5427051,-20.444365,-32.663414,-38.259075,-36.920601,-31.201914,-25.213568,-22.422876,-23.806091,-27.451897,-29.86772,-28.193367,-21.948967,-13.233355,-5.2857113,-0.39350578,1.4354929,2.1263828,3.7404461,6.4704456,7.8781991,4.0540729,-7.8909664,-27.531195,-50.540951,-70.333031,-81.080292,-80.423286,-70.348213,-55.817738,-42.053879,-32.090641,-25.921041,-21.495445,-16.696383,-10.925216,-5.3450689,-1.7990376,-1.2932125,-3.14568,-5.3682861,-5.9724536,-4.2746229,-1.313482,0.88125718,0.65566891,-2.1805403,-6.244833,-9.4887877,-10.500083,-9.3485088,-7.4509592,-6.5775018,-7.662889,-10.187749,-12.510049,-12.921577,-10.761865,-6.9059887,-3.3420687,-2.1066391,-4.2129989,-9.1806622,-15.391838,-21.009911,-24.891724,-26.977907,-28.000977,-28.778496,-29.59453,-30.080038,-29.650599,-28.176197,-26.388828,-25.6905,-27.413074,-31.957872,-38.363506,-44.625416,-48.646408,-49.30431,-47.028049,-43.545891,-40.948654,-40.606731,-42.549706,-45.624699,-48.279411,-49.464104,-49.122425,-48.040672,-47.238136,-47.338779,-48.313744,-49.687851,-50.981354,-52.032757,-52.987423,-54.017853,-55.047234,-55.72876,-55.714024,-54.999199,-54.059414,-53.631668,-54.273159,-56.001373,-58.275608,-60.336796,-61.664124,-62.226086,-62.36393,-62.425415,-62.454437,-62.190483,-61.377777,-60.122665,-58.976669,-58.623001,-59.363266,-60.794144,-61.966827,-61.984291,-60.651112,-58.707123,-57.434021,-57.858269,-60.077633,-63.181717,-65.84053,-67.168297,-67.265701,-67.058975,-67.547668,-68.998337,-70.670303,-71.286758,-69.929535,-66.7211,-62.797508,-59.578815,-57.853275,-57.335342,-57.021893,-56.086845,-54.644413,-53.781654,-54.78109,-58.060165,-62.608021,-66.398087,-67.588402,-65.747696,-62.275749,-59.686985,-60.170105,-64.317215,-70.806618,-77.198486,-81.291397,-82.170311,-80.353249,-77.096375,-73.472992,-69.913849,-66.456558,-63.348831,-61.349052,-61.305092,-63.20129,-65.384956,-64.701447,-57.71888,-42.462566,-19.638376,7.4585018,34.382893,57.530033,75.537628,89.338966,100.95866,111.90837,122.22228,130.67467,135.90036,137.55653,136.69978,135.15155,134.35223,134.54803,134.89091,134.36053,132.8215,131.42633,132.03343,136.00388,143.18729,151.79834,159.29863,163.73763,164.71527,163.39348,161.61314,160.73582,160.9588,161.48398,161.32776,160.14871,158.50819,157.41525,157.52242,158.57632,159.53386,159.27637,157.42928,154.71115,152.54749,152.17514,153.80472,156.37831,158.08656,157.3383,153.60956,147.69061,141.2269,135.8611,132.48219,130.9706,130.50102,130.14378,129.38092,128.27365,127.26906,126.84587,127.24428,128.40891,130.1028,132.05038,133.99632,135.67828,136.80476,137.12515,136.58313,135.43938,134.22984,133.52345,133.59819,134.24915,134.89281,134.94685,134.26277,133.31171,132.95125,133.87021,136.05339,138.65057,140.41376,140.49522,139.10545,137.52814,137.32388,139.06108,141.28891,140.45909,132.06339,112.59521,81.43148,41.672302,-0.56399357,-38.145775,-65.349556,-79.629082,-82.019257,-76.150894,-66.493011,-56.702168,-48.748814,-42.982746,-38.811821,-35.461636,-32.417347,-29.469942,-26.559086,-23.661882,-20.832262,-18.299839,-16.456673,-15.654386,-15.916544,-16.786253,-17.470655,-17.243303,-15.864947,-13.738451,-11.669773,-10.367598,-9.9986191,-10.09183,-9.8606462,-8.7353601,-6.7568555,-4.5730481,-3.0416505,-2.6997519,-3.4414725,-4.5995288,-5.3590622,-5.2247939,-4.2496834,-2.9122157,-1.7668989,-1.124692,-0.96421659,-1.0867267,-1.3506848,-1.7838538,-2.4892313,-3.4394927,-4.3522887,-4.7819738,-4.3934836,-3.2306154,-1.7706343,-0.69154376,-0.47466591,-1.0866047,-1.9458263,-2.2083826,-1.2196975,1.1036723,4.1375542,6.6882067,7.3105459,4.6806412,-2.0569973,-12.997413,-27.278822,-43.080387,-57.937294,-69.408188,-75.932899,-77.525536,-75.913399,-73.937347,-74.400742,-78.883736,-87.112755,-97.212074,-106.69776,-113.67269,-117.59013,-119.22914,-119.99554,-121.03558,-122.7007,-124.6185,-126.2114,-127.23743,-127.97105,-128.94159,-130.47636,-132.42177,-134.25876,-135.51831,-136.17166,-136.68793,-137.70404,-139.54759,-141.97289,-144.32228,-146.01418,-147.01228,-147.92978,-149.67226,-152.84749,-157.33777,-162.31972,-166.70747,-169.70692,-171.10538,-171.12399,-169.97948,-167.50621,-163.13435,-156.24944,-146.67125,-134.8979,-121.92799,-108.77805,-96.033142,-83.742287,-71.719604,-60.015106,-49.191559,-40.177277,-33.764347,-30.077206,-28.370052,-27.303345,-25.546343,-22.357716,-17.830727,-12.711325,-7.9475636,-4.246017,-1.8456192,-0.5493077,0.088485353,0.5515638,1.2013124,2.1695783,3.3014128,4.1843605,4.3174648,3.4061632,1.6455216,-0.22113791,-1.2072664,-0.66878003,1.1498069,2.9980714,3.1235557,0.21090999,-5.7545214,-13.246616,-19.812607,-23.271492,-22.851452,-19.621567,-15.964503,-14.384382,-16.309597,-21.516615,-28.407822,-34.888561,-39.308361,-41.001049,-40.279495,-38.067757,-35.475929,-33.511581,-32.920422,-34.04697,-36.676155,-39.968037,-42.656971,-43.557571,-42.175022,-39.054642,-35.589146,-33.319141,-33.108635,-34.697483,-36.914101,-38.405186,-38.399113,-37.014011,-34.963867,-32.960587,-31.325457,-30.136644,-29.778242,-31.368643,-36.551044,-46.569031,-61.138134,-77.924805,-93.189941,-103.4505,-107.30235,-106.31712,-104.37984,-105.72706,-112.73364,-124.67638,-138.14902,-148.85059,-153.69998,-152.10519,-145.78247,-137.40334,-128.99271,-121.03893,-112.73582,-103.0366,-91.733719,-79.846992,-69.1129,-60.963108,-55.682774,-52.28651,-49.17181,-45.124378,-40.050804,-35.002899,-31.497957,-30.559134,-32.056553,-34.742558,-36.959812,-37.598545,-36.720966,-35.453835,-35.18346,-36.529446,-38.75824,-40.084488,-38.781757,-34.474953,-28.76235,-24.610401,-24.671751,-29.404293,-36.151897,-39.934612,-35.751102,-21.244459,1.7773463,27.951838,50.918724,66.486076,74.644165,79.270325,85.685509,97.475754,114.41892,132.68579,147.1216,154.19194,153.84076,149.24028,144.73012,143.31015,145.21902,148.34291,150.00468,148.86346,145.70287,142.71259,141.88258,143.65802,146.73563,149.05095,149.20479,147.33684,144.89896,143.56165,144.05692,145.74513,147.14571,146.9986,145.09521,142.33325,140.02496,139.00017,139.14217,139.63931,139.70439,139.19621,138.68694,138.95236,140.29498,142.224,143.74103,144.02431,143.00391,141.39505,140.15034,139.72096,139.66931,138.93971,136.62869,132.72995,128.32031,125.01638,124.02357,125.38589,127.92923,129.94679,130.1967,128.58495,126.11912,124.19408,123.6943,124.49273,125.64076,126.07587,125.34153,123.83199,122.42226,121.77511,121.83581,121.88293,121.10169,119.26489,117.01592,115.5182,115.68777,117.54477,120.17092,122.35381,123.49463,124.10404,125.41249,128.18764,131.43781,131.89635,124.84385,106.08705,74.194328,31.822504,-14.652859,-57.156143,-88.694229,-105.64007,-108.53777,-101.2189,-88.838058,-75.862518,-64.898499,-56.654324,-50.707024,-46.41188,-43.408871,-41.587711,-40.770481,-40.50441,-40.18375,-39.405636,-38.256916,-37.273083,-37.060505,-37.834335,-39.201061,-40.350121,-40.53307,-39.507782,-37.652004,-35.683689,-34.19685,-33.337723,-32.828938,-32.287674,-31.572544,-30.88485,-30.548895,-30.651157,-30.837812,-30.459307,-28.988155,-26.415741,-23.326937,-20.572384,-18.753124,-17.881395,-17.466362,-16.965643,-16.265369,-15.813308,-16.275597,-17.948519,-20.368372,-22.452265,-23.129978,-22.050497,-19.849531,-17.742289,-16.68371,-16.67872,-16.763874,-15.730056,-13.112037,-9.7262373,-7.2995124,-7.3545918,-10.084972,-14.047841,-17.015192,-17.53998,-16.238111,-15.862859,-19.95632,-30.774008,-47.701057,-67.149986,-84.067802,-94.220322,-95.971535,-90.619194,-81.252373,-70.974327,-61.624802,-53.682182,-47.163589,-42.665459,-41.647942,-45.665703,-55.054817,-68.032982,-80.950821,-89.694252,-91.482529,-86.036407,-75.47506,-63.072296,-51.652489,-42.532116,-35.476513,-29.472887,-23.670826,-17.872509,-12.381883,-7.5024819,-3.1682453,0.99949223,5.3048825,9.6283588,13.437551,16.17178,17.696709,18.454088,19.161797,20.274685,21.62031,22.513617,22.302694,20.961071,19.271227,18.402184,19.097633,20.976706,22.410797,21.104729,15.100708,3.6983802,-12.137263,-30.010782,-46.797058,-59.490051,-65.935898,-65.328201,-58.43475,-47.519779,-35.895256,-27.08959,-23.796667,-26.965935,-35.449909,-46.437748,-56.534916,-63.008625,-64.62664,-61.747578,-55.738766,-48.143147,-40.078224,-32.112068,-24.507797,-17.509491,-11.397334,-6.2972245,-1.9748924,2.1214457,6.5093279,11.229719,15.659926,18.785265,19.810623,18.723814,16.415955,14.242444,13.286235,13.795229,15.153949,16.388451,16.844774,16.577154,16.203602,16.372066,17.251881,18.428865,19.268312,19.451361,19.253267,19.322418,20.101578,21.327738,22.028509,21.098272,18.111628,13.818229,9.9263306,8.2318792,9.5921383,13.380158,17.785103,20.80867,21.37351,19.880928,17.88072,17.042786,18.0268,19.895966,20.401054,16.975746,7.9185252,-6.820363,-25.577991,-45.590729,-63.926376,-78.307808,-87.54039,-91.494919,-90.793762,-86.417618,-79.399544,-70.667854,-61.010551,-51.096439,-41.497169,-32.682793,-24.990526,-18.583979,-13.42895,-9.3119621,-5.9138823,-2.9251387,-0.16033089,2.3808353,4.5405378,6.1076016,6.9456482,7.0752473,6.6684527,5.9686255,5.1946025,4.493392,3.9657042,3.7299592,3.956758,4.8227773,6.3933935,8.5050211,10.73689,12.519098,13.343445,12.977771,11.576459,9.6357441,7.8235731,6.7673912,6.8769908,8.2294903,10.498593,12.914337,14.291156,13.207667,8.3965254,-0.71667111,-13.540389,-28.202559,-41.990383,-52.276711,-57.560719,-58.099907,-55.746662,-52.998638,-51.723446,-52.251247,-53.369305,-53.254578,-50.81768,-46.647949,-42.942707,-42.389675,-46.611462,-55.08326,-65.196312,-73.484901,-77.349709,-76.31179,-72.103462,-67.582779,-65.133308,-65.475563,-67.525352,-69.283516,-69.141983,-66.801712,-63.305759,-60.27124,-58.878376,-59.259171,-60.605778,-61.830898,-62.285332,-62.064522,-61.762974,-61.918839,-62.572128,-63.237373,-63.276058,-62.375378,-60.785419,-59.155895,-58.10067,-57.800442,-57.914021,-57.846725,-57.180134,-55.966228,-54.689888,-53.930904,-53.954456,-54.501602,-54.917915,-54.541241,-53.107101,-50.920403,-48.685368,-47.09182,-46.402683,-46.289848,-46.024002,-44.918694,-42.775795,-40.067009,-37.726971,-36.654312,-37.195038,-38.909908,-40.776936,-41.728474,-41.216049,-39.466827,-37.276218,-35.47086,-34.394115,-33.760662,-32.984791,-31.754553,-30.427727,-29.916233,-31.071476,-33.961781,-37.576664,-40.26506,-40.729301,-38.963902,-36.459965,-35.390652,-37.139919,-41.032085,-44.115417,-42.301353,-32.362984,-13.737183,10.885751,36.558617,58.158901,72.465271,79.180267,80.481903,79.513016,78.744293,79.088593,80.089645,80.838142,80.899635,80.660263,80.969543,82.4412,84.952492,87.681976,89.62336,90.198578,89.564957,88.453583,87.695816,87.770859,88.642326,89.922966,91.189995,92.211388,92.953583,93.419739,93.482323,92.854713,91.229309,88.488091,84.848351,80.853996,77.214554,74.567139,73.259026,73.229393,74.032272,75.003052,75.523796,75.291862,74.466408,73.595467,73.326988,74.038208,75.595284,77.406143,78.759956,79.254166,79.030296,78.648026,78.669121,79.236946,79.962624,80.224686,79.685562,78.641815,77.910561,78.277206,79.871422,81.94355,83.272354,82.987297,81.240829,79.191704,78.18766,78.608681,79.157417,77.201805,70.149017,57.136688,40.021442,22.96291,10.688936,6.3184361,9.9223318,18.616272,28.121964,34.914856,37.780102,37.986866,38.113152,40.308258,45.032429,50.947659,55.906796,58.349491,58.228283,56.927124,56.261604,57.184143,58.965694,59.33691,55.53743,45.743221,30.158712,11.237576,-7.0816956,-20.787872,-27.242037,-26.04694,-19.001276,-9.2056837,0.24894978,7.416914,11.974308,14.888845,17.53302,20.751982,24.385666,27.465128,28.911762,28.288296,26.143997,23.761816,22.485565,23.049423,25.302341,28.446175,31.576691,34.149769,36.093502,37.567039,38.621948,39.066219,38.637978,37.31501,35.439659,33.454765,31.359579,28.278996,22.566298,12.565619,-2.2888784,-20.667034,-39.393299,-54.4757,-62.668133,-62.777657,-56.035194,-45.355026,-33.916664,-23.848501,-15.676411,-8.710659,-1.9947299,4.835053,11.285269,16.404499,19.484184,20.550636,20.338367,19.819326,19.656221,19.959131,20.468081,20.961195,21.53371,22.514301,24.083847,25.914339,27.159685,26.887451,24.70739,21.168966,17.608116,15.46732,15.469293,17.152479,19.079212,19.621777,17.873224,14.148078,9.7859745,6.3914137,4.9716167,5.4709964,6.9354663,8.1506939,8.3343458,7.4762688,6.1815152,5.1914024,4.9290657,5.3431764,6.0828357,6.8083291,7.3829589,7.8239717,8.1013031,7.9955468,7.1715188,5.4366732,2.984323,0.40509686,-1.5909165,-2.5785513,-2.6701274,-2.4227879,-2.443749,-2.9579599,-3.6458349,-3.880614,-3.2137539,-1.7702291,-0.26235566,0.41238537,-0.26711488,-2.1019382,-4.2838645,-5.8892341,-6.4240069,-6.0587578,-5.4153028,-5.0824089,-5.2202706,-5.5315332,-5.5933571,-5.2707543,-4.8722987,-4.9113727,-5.6503539,-6.7914853,-7.5883069,-7.3404188,-5.9310412,-4.0035563,-2.6135056,-2.5711737,-3.9293654,-5.98454,-7.7959232,-8.8475723,-9.3658161,-10.055528,-11.456946,-13.425014,-15.157785,-15.787542,-15.09792,-13.791274,-13.036333,-13.5762,-15.063629,-16.195843,-15.664066,-13.29048,-10.476764,-9.4720163,-11.774036,-16.667757,-20.964554,-20.326368,-11.539104,5.5877781,27.883797,50.310532,68.419189,80.294502,86.833305,90.273598,92.010674,91.179916,84.96386,70.440742,46.781132,16.370674,-15.877331,-44.620789,-66.354462,-80.562447,-89.228714,-95.189865,-100.43417,-105.32726,-109.03387,-110.62651,-110.02972,-108.20652,-106.59534,-106.30235,-107.62466,-110.14347,-113.18314,-116.21851,-118.95235,-121.12025,-122.31892,-122.10824,-120.36029,-117.56342,-114.76649,-113.10191,-113.16154,-114.65302,-116.59835,-117.96301,-118.29274,-117.923,-117.62818,-117.97945,-118.88858,-119.67562,-119.61132,-118.53046,-117.05007,-116.20449,-116.72977,-118.49219,-120.47061,-121.32828,-120.20874,-117.24085,-113.43934,-110.09422,-108.07124,-107.47502,-107.85014,-108.71487,-110.0056,-112.09792,-115.39165,-119.76975,-124.34372,-127.71416,-128.63396,-126.69109,-122.60145,-117.92676,-114.36246,-112.97305,-113.76287,-115.77313,-117.61846,-118.1728,-117.07303,-114.8257,-112.49908,-111.16487,-111.35213,-112.76147,-114.37206,-114.8985,-113.3858,-109.64692,-104.30184,-98.369316,-92.606705,-86.960571,-80.467415,-71.717201,-59.671677,-44.399117,-27.29566,-10.62679,3.4006453,13.555009,20.005497,24.054062,27.359634,31.108828,35.579784,40.279335,44.483154,47.79208,50.357674,52.681038,55.175545,57.821083,60.148529,61.554054,61.720654,60.863514,59.644981,58.826218,58.884819,59.829865,61.298943,62.834816,64.138786,65.143112,65.893158,66.370926,66.427071,65.895561,64.813438,63.566059,62.803398,63.116726,64.63839,66.815742,68.545341,68.660683,66.550797,62.578705,58.040539,54.636143,53.688789,55.508202,59.239468,63.295082,66.154617,67.107948,66.539162,65.597595,65.449356,66.548721,68.365776,69.743195,69.675629,68.031052,65.73806,64.259529,64.60331,66.43309,67.844513,66.040298,58.64669,45.032516,26.940266,8.054203,-7.3483343,-16.063265,-17.19129,-12.398603,-5.132772,0.81087404,2.7247055,-0.16014689,-6.6799946,-14.481617,-21.093439,-24.842817,-25.278126,-23.015759,-19.186975,-14.800833,-10.324616,-5.6372685,-0.31260642,5.9678431,13.116793,20.617682,27.770601,34.047619,39.338856,43.942116,48.307858,52.703075,57.007229,60.769451,63.489269,64.940315,65.329163,65.189117,65.081429,65.300346,65.772057,66.205116,66.379959,66.37114,66.541901,67.304779,68.802544,70.723495,72.385178,73.053955,72.321953,70.329361,67.714645,65.333199,63.905697,63.773846,64.856377,66.776909,69.056374,71.264465,73.087143,74.334824,74.940308,74.969246,74.622498,74.192253,73.960503,74.079437,74.505699,75.042068,75.476997,75.74276,75.986748,76.49073,77.462265,78.808815,80.036697,80.366272,79.045593,75.72963,70.737221,65.035393,59.923576,56.538834,55.40485,56.242409,58.141552,60.017517,61.125134,61.371498,61.27129,61.581783,62.830063,65.000977,67.554474,69.742653,71.018707,71.284142,70.834602,70.066589,69.162704,67.979256,66.211746,63.712505,60.721222,57.825371,55.658024,54.532551,54.269341,54.343517,54.259228,53.892204,53.558849,53.759556,54.775875,56.40926,58.052517,59.049709,59.094582,58.39085,57.471249,56.82003,56.58197,56.566414,56.5214,56.438541,56.620594,57.431232,58.910618,60.575459,61.609188,61.355797,59.7747,57.49947,55.406265,53.962147,52.820213,50.991791,47.5294,42.271786,36.120052,30.613752,27.062548,25.815929,26.17234,26.979155,27.473169,27.729673,28.379995,29.825758,31.603111,32.488071,31.386805,28.396057,25.150173,23.953924,26.040045,30.028553,31.75131,25.887592,8.7311325,-19.413181,-53.653126,-86.246986,-109.8376,-120.49934,-119.02914,-109.93278,-98.848183,-89.926895,-84.530884,-81.671196,-79.555267,-77.082123,-74.390022,-72.344185,-71.574959,-71.868088,-72.31488,-72.004112,-70.656853,-68.718292,-66.892059,-65.542747,-64.465408,-63.192905,-61.559658,-60.025749,-59.455299,-60.48513,-62.964672,-65.921913,-68.125114,-68.855652,-68.332741,-67.475197,-67.174034,-67.617714,-68.180267,-67.966713,-66.61393,-64.736496,-63.648197,-64.512184,-67.49958,-71.555832,-74.965446,-76.357056,-75.489334,-73.312988,-71.300224,-70.517715,-71.059242,-72.168854,-72.89505,-72.773453,-72.067245,-71.451988,-71.435043,-71.961128,-72.477005,-72.369499,-71.426575,-69.987366,-68.705826,-68.139404,-68.471252,-69.527481,-71.000458,-72.644791,-74.283981,-75.675186,-76.434265,-76.179474,-74.839783,-72.875671,-71.164299,-70.534668,-71.23291,-72.711739,-73.948997,-74.122444,-73.17881,-71.871796,-71.208908,-71.688721,-72.892967,-73.763962,-73.393738,-71.747055,-69.753044,-68.651573,-69.055603,-70.453644,-71.595757,-71.546402,-70.620201,-70.38855,-72.544357,-77.26342,-82.206024,-83.04895,-75.518112,-57.871681,-32.350685,-4.6048512,18.739243,33.084476,37.793045,36.013435,32.609447,31.469419,33.739258,37.854378,41.107487,41.610256,39.409615,36.193989,33.977276,33.747303,34.966057,36.14587,35.99041,34.27084,31.875149,30.084469,29.648672,30.314743,31.092068,31.010096,29.807936,28.087526,26.863647,26.857342,28.024641,29.61722,30.696127,30.7309,29.894951,28.901377,28.530472,29.175009,30.674881,32.494865,34.079552,35.138863,35.705521,35.979698,36.109631,36.071201,35.714428,34.91964,33.736298,32.40033,31.214487,30.36804,29.81061,29.262877,28.36734,26.901829,24.93947,22.861914,21.206636,20.418268,20.631144,21.60108,22.827272,23.798735,24.226068,24.127516,23.730074,23.265703,22.809532,22.268425,21.506243,20.471682,19.175175,17.475239,14.815831,10.169601,2.3778498,-9.1621704,-23.793102,-39.334972,-52.573944,-60.427956,-61.301987,-55.956692,-47.391743,-39.719143,-36.519531,-39.444813,-47.700733,-58.587173,-68.753059,-75.51786,-77.669113,-75.49176,-70.198288,-63.176361,-55.450729,-47.535118,-39.596317,-31.717739,-24.076742,-16.973385,-10.758298,-5.7386832,-2.1034532,0.13594751,1.1953031,1.5288339,1.7494369,2.4368126,3.892524,5.9709883,8.1095791,9.5830374,9.8708496,8.942791,7.3003578,5.7478218,5.0214024,5.4797959,7.008914,9.1565943,11.382884,13.269928,14.597588,15.299432,15.386698,14.918871,14.02954,12.950795,11.974704,11.348211,11.165844,11.341345,11.684466,12.024404,12.277316,12.395906,12.241055,11.500942,9.7762213,6.8385644,2.9229066,-1.1601268,-4.236928,-5.2658596,-3.8774524,-0.65164697,3.0609624,5.7218943,6.305644,4.7542973,1.9504309,-0.76360899,-2.2485728,-2.0597618,-0.53368193,1.5207838,3.3023434,4.3797765,4.76056,4.692832,4.389226,3.8814075,3.0923712,2.0403903,0.98527133,0.36557871,0.52929723,1.4258518,2.4871609,2.8297806,1.709661,-1.0179842,-4.7189865,-8.223444,-10.388333,-10.673743,-9.4001684,-7.5305595,-6.1014919,-5.6422753,-5.9308777,-6.2276325,-5.8264384,-4.5600967,-2.9254115,-1.7436327,-1.583728,-2.3435271,-3.2881544,-3.5400841,-2.6998072,-1.1668169,0.084709816,0.15269512,-1.1555951,-3.158273,-4.7780337,-5.4019971,-5.5629492,-6.9389243,-11.565685,-20.657101,-33.712299,-48.462933,-61.741425,-70.818047,-74.48835,-73.354439,-69.225494,-64.059662,-59.080376,-54.51598,-49.979092,-45.112717,-40.025379,-35.253746,-31.352037,-28.457989,-26.167034,-23.799397,-20.860773,-17.376431,-13.888958,-11.151609,-9.7404356,-9.8222237,-11.167106,-13.315323,-15.736245,-17.891111,-19.245861,-19.345863,-17.997795,-15.461437,-12.470447,-9.9715528,-8.6691418,-8.6410303,-9.299427,-9.7697535,-9.4730692,-8.5301085,-7.6947856,-7.832006,-9.2748032,-11.500889,-13.372025,-13.80684,-12.46563,-10.018452,-7.8509741,-7.4306746,-9.7455196,-15.106294,-23.278,-33.638786,-45.08144,-55.67635,-62.469849,-61.88773,-50.904747,-28.582119,2.854903,38.180187,70.767319,95.011566,108.41421,112.26733,110.60057,107.98907,107.41603,109.28171,111.93092,113.18813,111.87913,108.46016,104.52761,101.69368,100.63692,100.90834,101.50028,101.6794,101.47197,101.50522,102.3937,104.16637,106.16175,107.45379,107.48746,106.46828,105.24051,104.74996,105.46025,107.09753,108.85816,109.90792,109.83985,108.8261,107.42389,106.20751,105.46657,105.12033,104.84241,104.28082,103.24894,101.82005,100.31586,99.20153,98.903519,99.590515,101.00762,102.48227,103.16886,102.4616,100.36134,97.550209,95.06926,93.747284,93.723862,94.390411,94.815941,94.388031,93.223114,92.036011,91.539963,91.814163,92.144966,91.531273,89.539909,86.868446,85.09816,85.667999,88.714745,92.6483,94.935562,93.747276,89.41552,84.583443,82.649071,85.224724,90.141052,91.434769,81.722862,55.946255,14.522611,-35.900307,-84.678268,-121.37051,-139.82164,-140.13716,-127.74355,-110.27991,-94.101456,-82.147865,-73.955193,-67.325996,-60.374073,-52.722229,-45.383789,-39.742092,-36.498779,-35.286667,-35.060848,-34.843765,-34.251534,-33.499943,-33.015652,-33.033543,-33.486954,-34.201996,-35.147251,-36.468567,-38.251984,-40.218662,-41.646339,-41.6567,-39.724617,-36.073048,-31.665031,-27.764057,-25.320316,-24.553066,-24.962687,-25.724213,-26.18294,-26.143635,-25.817549,-25.529882,-25.426804,-25.377371,-25.097616,-24.367119,-23.170448,-21.684034,-20.156372,-18.793337,-17.723389,-17.02721,-16.759762,-16.916357,-17.370955,-17.866636,-18.110636,-17.934967,-17.4076,-16.791662,-16.35673,-16.169104,-16.026161,-15.608633,-14.760669,-13.692082,-12.927077,-12.992927,-14.03746,-15.642631,-16.995718,-17.351788,-16.523954,-15.10793,-14.306745,-15.461335,-19.551561,-26.910519,-37.225327,-49.714165,-63.305912,-76.736893,-88.628365,-97.678802,-103.02346,-104.63483,-103.50893,-101.43049,-100.33491,-101.54685,-105.28838,-110.71606,-116.43903,-121.18752,-124.23575,-125.3783,-124.58049,-121.64239,-116.18096,-107.97038,-97.383041,-85.563103,-74.129097,-64.531891,-57.452595,-52.622093,-49.172485,-46.275665,-43.636379,-41.520119,-40.333176,-40.094402,-40.21526,-39.77935,-38.142754,-35.427822,-32.535805,-30.629391,-30.407267,-31.650364,-33.34705,-34.320015,-33.943413,-32.485386,-30.870579,-30.047907,-30.399698,-31.574003,-32.810455,-33.489487,-33.502907,-33.204334,-33.021645,-33.059555,-33.010437,-32.439964,-31.213507,-29.709633,-28.620607,-28.458586,-29.12974,-29.920248,-29.954584,-28.836262,-27.017673,-25.601519,-25.657043,-27.48138,-30.303015,-32.651691,-33.1833,-31.442587,-28.082018,-24.411427,-21.591757,-20.010395,-19.234993,-18.536621,-17.580851,-16.777363,-17.02647,-19.033056,-22.673346,-26.879295,-30.159,-31.435883,-30.661592,-28.796539,-27.165829,-26.610332,-26.98587,-27.330048,-26.573105,-24.311995,-21.131647,-18.262257,-16.801083,-17.010305,-18.148216,-18.941462,-18.395878,-16.435371,-13.97795,-12.413759,-12.809833,-15.308246,-19.041285,-22.570101,-24.568949,-24.384769,-22.225208,-18.957027,-15.683224,-13.31976,-12.32585,-12.634015,-13.752059,-14.984738,-15.715456,-15.666197,-15.027375,-14.366073,-14.313348,-15.16856,-16.650131,-17.978643,-18.292946,-17.174309,-14.945754,-12.521773,-10.865885,-10.390388,-10.705606,-10.916313,-10.290475,-8.8402252,-7.3746119,-6.928165,-7.9267368,-9.7026272,-10.806364,-10.045549,-7.632154,-5.621242,-7.1620603,-14.799322,-28.727419,-46.071442,-61.781937,-70.827499,-70.575783,-62.061977,-49.408672,-37.680996,-30.351397,-27.779125,-27.531553,-26.311121,-22.318869,-16.627604,-12.710775,-14.351378,-23.11854,-36.892933,-50.370022,-57.379765,-53.840797,-39.790009,-19.403782,1.0036726,15.947554,23.15629,24.175545,22.986238,23.505919,27.409639,33.461994,38.649105,40.359806,38.28035,34.863575,34.086132,39.215286,50.882683,66.577164,81.841026,92.47728,96.52298,94.927399,90.662277,86.897949,85.361717,85.788803,86.641602,86.489586,85.092705,83.508408,83.233154,85.029495,88.268196,91.237,92.204178,90.523048,87.049744,83.613945,81.907928,82.52475,84.749001,87.184059,88.747009,89.344826,89.797218,91.105835,93.616417,96.67733,99.036705,99.697403,98.626747,96.817848,95.647804,95.966362,97.539253,99.233322,99.825783,98.892807,97.172035,96.142357,97.08709,100.25093,104.63899,108.58112,110.68648,110.57237,108.92419,106.90018,105.32427,104.22048,102.97511,100.96103,98.144203,95.227257,93.235802,92.8591,94.027542,96.023949,98.024986,99.64991,101.09589,102.76492,104.69483,106.28497,106.60327,105.10775,102.24621,99.4114,98.157066,99.143898,101.56889,103.58543,103.55668,101.33666,98.61866,97.907066,100.58288,105.25534,107.60356,102.11642,84.975288,56.510098,21.745989,-11.44332,-35.711121,-47.385178,-47.7407,-41.809338,-35.506992,-32.735867,-33.996433,-37.053558,-38.980335,-38.19445,-35.287235,-32.329037,-31.3088,-32.817982,-35.793591,-38.358025,-39.0849,-37.826786,-35.631161,-33.921093,-33.569534,-34.473587,-35.812943,-36.693008,-36.668419,-35.82309,-34.466827,-32.787975,-30.775999,-28.448792,-26.130203,-24.464205,-24.070833,-25.068151,-26.842167,-28.302246,-28.50835,-27.259823,-25.227467,-23.513763,-22.929884,-23.487213,-24.455833,-24.939114,-24.542597,-23.64764,-23.090757,-23.488781,-24.716988,-25.941538,-26.201046,-25.120161,-23.226505,-21.620911,-21.2232,-22.135578,-23.592283,-24.540117,-24.425261,-23.595127,-22.996605,-23.378305,-24.602839,-25.639992,-25.341684,-23.512186,-21.503534,-21.812292,-26.791586,-37.200668,-51.477802,-66.215469,-77.598969,-83.006187,-81.917763,-75.760628,-66.967384,-57.934666,-50.466415,-45.811562,-44.9296,-48.497498,-56.480556,-67.571793,-79.065712,-87.539803,-90.177399,-86.056198,-76.629929,-65.052696,-54.679565,-47.575718,-43.846249,-42.074871,-40.481003,-38.017052,-34.764435,-31.521284,-29.018812,-27.387875,-26.226543,-25.12422,-24.154495,-23.902739,-24.985592,-27.439245,-30.477608,-32.854424,-33.605595,-32.646343,-30.784622,-29.131203,-28.331348,-28.181118,-27.912842,-26.936247,-25.46903,-24.550049,-25.369507,-28.361528,-32.712696,-36.682648,-38.578373,-37.759827,-35.011478,-32.03072,-30.374481,-30.560856,-31.899006,-33.109413,-33.260715,-32.360855,-31.221605,-30.752356,-31.24139,-32.165291,-32.653248,-32.234344,-31.281498,-30.793831,-31.659369,-33.941437,-36.732914,-38.715641,-39.042408,-37.90937,-36.398548,-35.696308,-36.252769,-37.497898,-38.325394,-37.984287,-36.701267,-35.53994,-35.570541,-36.966591,-38.75523,-39.511868,-38.593414,-37.03912,-37.393784,-42.382713,-53.159916,-68.220825,-83.739891,-95.246132,-99.721176,-96.931183,-89.265518,-80.255882,-72.713387,-67.574257,-64.019699,-60.602726,-56.523533,-52.205353,-48.880108,-47.587631,-48.352802,-50.116066,-51.424862,-51.361847,-50.052975,-48.431095,-47.469006,-47.454117,-47.815498,-47.598045,-46.216503,-43.938541,-41.75589,-40.740986,-41.339924,-43.080376,-44.874222,-45.690304,-45.144707,-43.645428,-42.050514,-41.115871,-41.10751,-41.788521,-42.706806,-43.518394,-44.108448,-44.472763,-44.526352,-44.053696,-42.876476,-41.107838,-39.256832,-38.035583,-37.94471,-38.905231,-40.214687,-40.910141,-40.346802,-38.637215,-36.661118,-35.614498,-36.351845,-38.903801,-42.443504,-45.704105,-47.592545,-47.656746,-46.184536,-43.946442,-41.786003,-40.298794,-39.727398,-40.033226,-41.009354,-42.325443,-43.508999,-43.963631,-43.124699,-40.745884,-37.173462,-33.400105,-30.760817,-30.31724,-32.176479,-35.090202,-36.607784,-33.829845,-24.523563,-8.1530905,13.64321,37.403214,58.952564,74.867462,83.693306,86.397392,85.852905,85.57917,88.299446,94.951965,104.55826,114.92881,123.78803,129.73711,132.62189,133.2379,132.66876,131.70856,130.69022,129.73006,129.1134,129.47029,131.56166,135.79297,141.78783,148.34436,153.8672,157.06779,157.55099,155.96556,153.64742,151.96638,151.7307,152.93512,154.92191,156.80339,157.89449,157.9575,157.20213,156.10965,155.19724,154.81178,154.99751,155.45912,155.64386,154.95053,153.01932,149.98163,146.5188,143.64313,142.26276,142.73895,144.68431,147.1366,149.02855,149.69386,149.12404,147.84586,146.52599,145.57164,144.97643,144.47499,143.85402,143.17183,142.72885,142.83275,143.56024,144.71133,145.9864,147.22433,148.47968,149.84752,151.1759,151.94888,151.53909,149.74342,147.22072,145.3867,145.59285,147.90009,150.15086,148.05261,136.53212,111.9178,73.954597,26.602579,-22.904894,-66.4254,-97.665504,-114.11459,-117.36418,-111.82516,-102.59547,-93.532021,-86.327965,-80.784279,-75.852844,-70.735825,-65.454308,-60.710835,-57.295879,-55.495796,-54.874786,-54.524181,-53.586185,-51.724045,-49.276516,-47.034576,-45.787201,-45.890896,-47.083355,-48.619949,-49.64537,-49.603058,-48.480206,-46.7789,-45.243904,-44.493988,-44.741177,-45.725784,-46.878242,-47.605072,-47.545879,-46.682365,-45.273148,-43.681416,-42.204044,-40.98465,-40.026932,-39.265652,-38.63549,-38.10302,-37.664661,-37.33345,-37.129086,-37.067169,-37.137421,-37.276424,-37.359657,-37.236305,-36.799564,-36.046993,-35.076687,-34.004074,-32.850811,-31.497677,-29.765858,-27.599222,-25.226347,-23.161375,-21.991014,-22.044863,-23.154198,-24.681223,-25.841381,-26.142626,-25.664879,-24.984299,-24.77067,-25.308397,-26.257023,-26.821198,-26.233454,-24.244011,-21.305187,-18.339304,-16.250957,-15.498825,-15.977355,-17.228876,-18.783848,-20.371168,-21.882147,-23.190432,-24.04722,-24.190935,-23.59733,-22.630486,-21.891129,-21.794922,-22.177828,-22.295851,-21.362516,-19.368607,-17.632402,-18.580046,-24.680708,-37.020817,-54.330181,-73.121544,-89.019646,-98.669594,-101.24365,-98.748215,-94.97123,-93.632584,-96.69342,-103.63909,-111.99122,-118.66964,-121.46214,-119.91982,-115.37357,-110.20997,-106.82149,-106.67789,-109.82021,-114.88369,-119.59632,-121.58646,-119.2474,-112.35719,-102.19149,-91.035515,-81.263275,-74.381523,-70.484291,-68.370781,-66.235229,-62.541107,-56.625908,-48.78389,-39.903465,-30.97394,-22.775057,-15.850153,-10.618139,-7.3922315,-6.2048373,-6.5708704,-7.4538116,-7.602006,-6.1506667,-3.1396401,0.41915777,3.0360303,3.5446048,1.7338374,-1.5750561,-5.0404954,-7.5583978,-8.7805395,-9.094327,-9.1438351,-9.2733068,-9.2910957,-8.6864986,-7.09097,-4.6113424,-1.7888705,0.75477982,2.6788731,3.9950485,4.8046441,4.9521513,3.9404798,1.2583013,-3.079381,-8.2096815,-12.668267,-15.179037,-15.548642,-15.074174,-16.116295,-20.992817,-30.785578,-44.732853,-60.542194,-75.421059,-87.228104,-95.136948,-99.556091,-101.51088,-101.96238,-101.46599,-100.25505,-98.521805,-96.578148,-94.746437,-93.099007,-91.313141,-88.824409,-85.216171,-80.574089,-75.528549,-70.917694,-67.277618,-64.50312,-61.919151,-58.729191,-54.553288,-49.709908,-45.066761,-41.56546,-39.721249,-39.391376,-39.913979,-40.488277,-40.5476,-39.931263,-38.824242,-37.57729,-36.550797,-36.047615,-36.29752,-37.419369,-39.339714,-41.730503,-44.059357,-45.783089,-46.601444,-46.614677,-46.264519,-46.071087,-46.318226,-46.88488,-47.331089,-47.181606,-46.221359,-44.614796,-42.786133,-41.159679,-39.945122,-39.103832,-38.489582,-38.02845,-37.78302,-37.848965,-38.17738,-38.491032,-38.402695,-37.687172,-36.517818,-35.466904,-35.209511,-36.080383,-37.765446,-39.362938,-39.833118,-38.599659,-35.938335,-32.885811,-30.681419,-30.051159,-30.768553,-31.787924,-31.910311,-30.6057,-28.486681,-27.101936,-28.107922,-32.26228,-38.829742,-45.796143,-50.840195,-52.560974,-51.263924,-48.800377,-47.451828,-48.392063,-50.550236,-50.561954,-43.981537,-27.287443,0.22981191,35.620426,72.952797,105.3135,127.31715,137.06728,136.73892,131.55238,127.59847,129.45239,138.56868,153.07335,168.93907,181.93248,189.42343,191.27075,189.47791,186.90933,185.78616,186.73123,188.79187,190.32141,190.14142,188.28741,185.92319,184.52536,184.88498,186.57765,188.25078,188.54887,187.07678,184.75664,183.31067,184.16689,187.47876,191.90759,195.34755,196.16782,194.19493,190.8,188.01389,187.21823,188.24396,189.46152,188.81783,185.16743,179.05336,172.44409,167.59763,165.77316,166.58954,168.39731,169.37889,168.64815,166.66579,164.76898,164.19702,165.28796,167.35097,169.22572,170.08002,169.87993,169.24866,168.88675,169.01765,169.2514,168.89606,167.38167,164.38034,159.47502,151.64909,139.10907,119.8035,92.531769,58.060715,19.530285,-18.238153,-50.298996,-73.25753,-86.233421,-90.690491,-89.349319,-84.868675,-79.005478,-72.561737,-65.894455,-59.454391,-53.914211,-49.837357,-47.225105,-45.380642,-43.283371,-40.263485,-36.50581,-32.989845,-30.844307,-30.506439,-31.242477,-31.384674,-29.195293,-23.865679,-16.057335,-7.6555629,-0.86798775,2.8254366,3.2981176,1.6719366,-0.40079975,-1.626448,-1.6391908,-0.98856157,-0.63200772,-1.2785089,-2.9647017,-5.065906,-6.6780829,-7.1124406,-6.2183928,-4.3838739,-2.2582321,-0.38685751,1.033282,2.1646276,3.3390176,4.8055201,6.5688086,8.3956194,9.9566736,10.995852,11.419744,11.271873,10.642922,9.6106262,8.268878,6.821034,5.6397266,5.1967816,5.8518653,7.6055827,9.9858875,12.186956,13.432384,13.378432,12.317021,11.034838,10.38735,10.829499,12.184895,13.795817,14.959466,15.373322,15.306565,15.392418,16.183218,17.761992,19.661879,21.137941,21.606581,20.968554,19.623913,18.19873,17.185043,16.725876,16.64995,16.678757,16.627995,16.468336,16.248693,15.99726,15.711963,15.441927,15.349215,15.634371,16.331017,17.128403,17.424484,16.675049,14.860066,12.718842,11.471799,12.055633,14.270388,16.408689,15.746524,9.7891121,-2.3325026,-19.103765,-37.015156,-51.990211,-61.154205,-64.033356,-62.578064,-60.045937,-59.383816,-61.966324,-67.280998,-73.584152,-79.037613,-82.6576,-84.62133,-85.90451,-87.585045,-90.252518,-93.801292,-97.612259,-100.92778,-103.19351,-104.24239,-104.3208,-104.01287,-104.1014,-105.3681,-108.34569,-113.09013,-119.08958,-125.4035,-131.01935,-135.28384,-138.19881,-140.42271,-142.96468,-146.71439,-152.02846,-158.55428,-165.34906,-171.21912,-175.12605,-176.50496,-175.39436,-172.35374,-168.21635,-163.77855,-159.55122,-155.67813,-152.0531,-148.56534,-145.32231,-142.70073,-141.17685,-141.03404,-142.14534,-143.99875,-145.97897,-147.7368,-149.39754,-151.45287,-154.39528,-158.34279,-162.92194,-167.49982,-171.59924,-175.18184,-178.56322,-181.99052,-185.17796,-187.16165,-186.6331,-182.57478,-174.78766,-163.95193,-151.17314,-137.327,-122.66132,-106.93267,-89.966248,-72.212082,-54.859268,-39.381985,-26.804031,-17.182297,-9.6645384,-3.0746164,3.3869331,9.80056,15.731283,20.752069,24.835463,28.29821,31.375366,33.834511,35.039421,34.511524,32.586586,30.58782,30.218098,32.447659,36.628014,40.527477,41.425259,37.671207,29.732533,20.013643,11.512597,6.1534643,3.8668079,2.9966536,1.7127784,-0.58038187,-2.8371618,-3.2540581,-0.80710119,3.6768639,7.7312503,8.6669569,5.2640328,-1.4101851,-8.6193342,-13.596395,-15.099029,-13.867917,-11.772484,-10.362275,-9.940526,-9.8483486,-9.7018051,-10.549177,-14.896016,-25.329269,-42.527584,-64.018196,-84.690468,-98.990273,-103.60832,-99.087013,-89.384521,-79.664803,-73.634933,-71.958504,-72.533051,-72.24511,-68.978592,-62.65694,-54.867607,-47.575733,-41.932671,-37.94146,-35.010483,-32.77483,-31.457701,-31.507215,-32.884338,-34.682755,-35.499245,-34.351997,-31.456583,-28.20933,-26.291651,-26.486338,-28.069643,-29.276316,-28.565372,-25.796457,-22.432962,-20.554451,-21.338362,-24.11904,-26.791401,-27.379383,-25.686615,-23.745153,-24.501169,-29.393188,-36.386421,-39.957817,-33.432972,-12.588972,21.501034,62.15263,99.694633,125.76231,136.99818,136.2066,130.43591,127.1583,130.68593,140.6703,153.2193,163.66501,169.21558,170.03244,168.39664,166.80714,166.3679,166.42981,165.50908,162.66673,158.33209,154.04965,151.42235,151.0565,152.24762,153.57523,153.92929,153.21782,152.27376,152.0708,152.84673,153.78403,153.4904,150.95383,146.31386,140.91353,136.57973,134.58949,134.9747,136.58337,137.82387,137.60135,135.87474,133.54315,131.80435,131.42473,132.35141,133.82823,134.85664,134.6805,133.0428,130.16815,126.59442,123.00233,120.09277,118.4596,118.40498,119.74525,121.75546,123.38297,123.70238,122.39016,119.92413,117.34534,115.69259,115.44626,116.3289,117.57877,118.49268,118.85254,118.9445,119.18713,119.68153,120.05576,119.74532,118.49673,116.67826,115.10204,114.43759,114.64953,114.93546,114.30232,112.42081,110.11195,109.00211,110.45591,114.47691,119.40862,122.80555,123.02965,120.51582,117.71162,117.482,120.8188,125.31335,125.56413,115.59543,92.099731,56.687305,15.773105,-21.97234,-49.301617,-63.266342,-65.856087,-62.266518,-57.960148,-56.209862,-57.319107,-59.586315,-61.074192,-60.957699,-59.740856,-58.50676,-57.972385,-58.088509,-58.36871,-58.522003,-58.764637,-59.516464,-60.754108,-61.631046,-60.80584,-57.362064,-51.683216,-45.577549,-41.41922,-40.769463,-43.364365,-47.181507,-49.614281,-49.044189,-45.812572,-41.963268,-39.91851,-40.938618,-44.346771,-47.99287,-49.62738,-48.287251,-44.821991,-41.270409,-39.537312,-40.234684,-42.3955,-44.177185,-44.049488,-41.704796,-38.166706,-35.111656,-33.889488,-34.847195,-37.294388,-40.017963,-41.950623,-42.595879,-42.059288,-40.82449,-39.536224,-38.950851,-39.996967,-43.741978,-51.105,-62.365063,-76.73027,-92.292847,-106.53054,-117.21342,-123.31403,-125.46303,-125.68581,-126.5029,-129.79356,-135.94444,-143.66975,-150.5699,-154.1517,-152.83423,-146.49802,-136.37662,-124.40768,-112.39968,-101.41638,-91.624672,-82.590302,-73.782387,-64.979012,-56.373909,-48.389896,-41.378201,-35.422676,-30.363804,-25.989496,-22.226006,-19.175982,-16.97595,-15.587244,-14.690239,-13.780548,-12.41936,-10.474034,-8.1838322,-6.0022621,-4.3197532,-3.25105,-2.6231058,-2.1566801,-1.700119,-1.3427991,-1.3293208,-1.8448317,-2.8377805,-4.0184994,-5.0404544,-5.7316532,-6.1998339,-6.72193,-7.4865031,-8.3745508,-8.9518938,-8.7082596,-7.4047685,-5.302628,-3.1053898,-1.6217546,-1.3339957,-2.1240911,-3.3228765,-4.0603848,-3.7232909,-2.2683823,-0.22782265,1.5859903,2.5108817,2.3760464,1.5875773,0.9264639,1.1638125,2.6759477,5.2348933,8.0704832,10.183439,10.779261,9.6316032,7.2011981,4.4363585,2.3308702,1.4477056,1.656583,2.2408297,2.3356266,1.4654562,-0.12926209,-1.5849955,-1.8981396,-0.52902687,2.2332904,5.3794699,7.7159371,8.5190916,7.9169321,6.7685828,6.1198058,6.5740275,7.966116,9.5283937,10.423729,10.292612,9.4672461,8.7358217,8.8373575,10.03214,12.01937,14.220302,16.191202,17.852901,19.372889,20.803675,21.775532,21.521219,19.284136,14.880626,9.0470667,3.3028924,-0.65398312,-1.7142336,0.13010067,3.8087211,7.7182245,10.496428,11.628554,11.600676,11.564214,12.712726,15.682672,20.241621,25.373554,29.698017,32.037357,31.903233,29.707743,26.601667,23.980789,22.84337,23.271379,24.288347,24.201195,21.312357,14.698958,4.7045217,-7.0849128,-18.365871,-26.900848,-31.222288,-30.995672,-26.963274,-20.566378,-13.428036,-6.8647938,-1.5408754,2.6615064,6.5024047,10.969906,16.698351,23.467161,30.089502,34.875313,36.545605,35.138489,32.318035,30.729643,32.576996,38.134117,45.093174,49.295876,46.643501,35.251808,16.672218,-4.5604491,-22.887218,-34.175552,-37.367928,-34.508186,-29.265312,-24.910231,-22.928452,-22.956884,-23.856459,-25.043612,-27.128481,-31.459282,-38.955307,-49.097462,-59.823853,-68.453835,-73.069969,-73.487732,-71.221611,-68.508675,-67.035675,-67.156616,-68.02005,-68.417656,-67.728638,-66.337479,-65.308319,-65.609962,-67.455841,-70.197105,-72.798615,-74.534027,-75.416374,-76.093651,-77.316566,-79.364052,-81.815338,-83.804176,-84.567581,-83.923347,-82.380524,-80.837021,-80.075066,-80.366318,-81.400269,-82.535713,-83.189896,-83.129753,-82.523148,-81.766273,-81.223289,-81.034309,-81.07827,-81.076988,-80.758606,-79.990822,-78.832626,-77.502655,-76.293472,-75.467804,-75.16581,-75.34581,-75.777733,-76.102432,-75.951447,-75.092941,-73.544319,-71.590668,-69.681526,-68.237617,-67.455132,-67.211975,-67.139107,-66.832596,-66.094604,-65.058777,-64.109367,-63.624172,-63.691162,-63.987183,-63.925461,-63.011806,-61.198704,-58.996994,-57.235722,-56.584042,-57.124084,-58.261238,-59.057468,-58.787571,-57.33741,-55.127949,-52.548176,-49.236454,-43.725636,-33.815151,-17.613125,5.2552762,32.962509,61.787563,87.368614,106.32167,117.42884,121.82525,122.15371,121.19395,120.70119,120.99525,121.37054,120.94348,119.37926,117.10726,115.00034,113.8092,113.72895,114.32247,114.77258,114.26126,112.2662,108.68439,103.81749,98.2938,92.954262,88.674477,86.107506,85.417984,86.158516,87.419762,88.243134,88.100037,87.153198,86.111351,85.734627,86.28759,87.302437,87.837212,87.094498,85.008453,82.395134,80.51918,80.306343,81.684059,83.48877,84.050354,82.146988,77.774666,72.25502,67.571175,65.262314,65.466049,66.629791,66.062813,61.07069,50.134399,33.601013,13.613354,-6.632513,-23.935547,-36.000568,-41.895214,-41.976006,-37.433735,-29.728323,-20.164379,-9.733037,0.81466734,10.813381,19.61632,26.697828,31.868141,35.433205,38.129925,40.791424,43.885124,47.19939,49.923069,51.151012,50.561558,48.832184,47.433777,47.777977,50.116772,52.847942,52.768055,46.344547,31.486368,8.9232273,-17.594658,-42.503082,-60.53038,-68.702751,-67.281197,-59.220673,-48.51403,-38.335674,-29.929415,-22.697201,-15.245034,-6.6436763,2.8621225,12.037311,19.492668,24.560202,27.639118,29.84087,32.228584,35.180626,38.277313,40.730354,42.013859,42.252235,42.12307,42.384247,43.384541,44.900631,46.387905,47.430428,48.043644,48.610435,49.516865,50.785629,52.010513,52.667,52.57822,52.171158,52.282597,53.591938,56.048588,58.71101,60.169773,59.339268,56.133724,51.584778,47.298107,44.569244,43.703869,43.961235,44.139278,43.407486,41.842075,40.325207,39.896626,41.005482,43.16507,45.233055,46.118649,45.442081,43.719929,41.980461,41.09243,41.262173,42.010029,42.592625,42.537945,41.910709,41.147575,40.624474,40.307922,39.765839,38.535515,36.571884,34.42868,33.00724,33.012112,34.462631,36.581833,38.142319,38.063549,35.915859,32.072182,27.478951,23.227802,20.169237,18.713957,18.81892,20.073082,21.8202,23.322268,23.982351,23.576799,22.359327,20.902958,19.69006,18.668541,17.099669,13.902385,8.3815308,0.91056812,-6.9336104,-13.009578,-15.759336,-15.209792,-13.169781,-12.400773,-15.167218,-21.989119,-31.336348,-40.449585,-46.79126,-49.261063,-48.491875,-46.148407,-43.773258,-41.954414,-40.289955,-38.033623,-34.845718,-31.065157,-27.342621,-23.997601,-20.681997,-16.679474,-11.635116,-6.10992,-1.4206604,1.254599,1.9162651,2.1084561,4.1592455,9.6115046,17.806143,25.629065,28.789076,24.035488,11.06918,-7.0011477,-24.985312,-38.006939,-43.642578,-42.674252,-38.183475,-33.680599,-31.434404,-31.889288,-34.268246,-37.707985,-42.038841,-47.706039,-55.013424,-63.360352,-71.115845,-76.286316,-77.555504,-75.014359,-70.117752,-64.923065,-61.112175,-59.376816,-59.441818,-60.559338,-62.04771,-63.526882,-64.813377,-65.717613,-66.019241,-65.678749,-65.073837,-64.965271,-66.085648,-68.567192,-71.623123,-73.791824,-73.688461,-70.834579,-66.029922,-60.991673,-57.454399,-56.282276,-57.141945,-58.913521,-60.527481,-61.642807,-62.712345,-64.423943,-66.950546,-69.579605,-71.025581,-70.244118,-67.200394,-63.051517,-59.582176,-58.225502,-59.275707,-61.773483,-64.111656,-64.960205,-63.940273,-61.67971,-59.300232,-57.728352,-57.271488,-57.656567,-58.389187,-59.105282,-59.666,-60.002296,-59.932095,-59.180355,-57.632027,-55.610298,-53.898777,-53.393028,-54.556679,-57.048031,-59.810764,-61.618797,-61.740372,-60.284,-57.999489,-55.69416,-53.708714,-51.858448,-49.891781,-48.092922,-47.478275,-49.26878,-53.838852,-59.800083,-63.936119,-62.272083,-51.875408,-32.472641,-6.9715953,19.470903,41.413292,55.153542,59.845509,57.276894,50.609215,42.869251,35.969028,30.585873,26.677334,24.093578,22.837471,22.89168,23.891291,25.021273,25.314508,24.190895,21.863817,19.300535,17.711689,17.859488,19.600994,21.942366,23.570017,23.546713,21.78133,19.033255,16.48506,15.142786,15.382004,16.84322,18.681353,20.007286,20.299589,19.613085,18.521286,17.841362,18.266418,20.055115,22.904287,26.061852,28.641037,30.005785,30.053526,29.257832,28.443436,28.399527,29.521568,31.656515,34.216053,36.480446,37.922264,38.388287,38.074211,37.34903,36.555363,35.896976,35.443188,35.197182,35.14539,35.24308,35.361801,35.270973,34.711414,33.550194,31.931231,30.310322,29.311914,29.44738,30.830362,33.053619,35.324158,36.819134,37.093048,36.317112,35.202621,34.625832,35.14468,36.67606,38.528595,39.789181,39.850128,38.767483,37.230423,36.154118,36.145332,37.176456,38.672775,39.944565,40.658886,41.014393,41.492786,42.378277,43.434845,44.045403,43.776516,42.961151,42.773499,44.542709,48.58762,53.305569,55.269535,50.578651,36.923084,15.24965,-10.036009,-32.665733,-47.211197,-51.49004,-47.350719,-39.385586,-32.302158,-28.46139,-26.978718,-24.831028,-19.195194,-9.5144606,1.9999453,11.707359,16.815977,17.11274,15.028411,14.007171,16.247004,21.277876,26.294186,28.01852,24.88554,18.13588,11.120398,7.2673159,8.0099421,11.97368,15.894707,16.640623,13.039948,6.4128003,-0.42523661,-4.9389234,-6.2488122,-5.2873774,-3.7896409,-2.9429855,-2.6762612,-2.0333385,-0.25711027,2.3048711,4.2108641,3.8914473,0.87560368,-3.6561644,-7.4756298,-8.7227554,-7.1678305,-4.3997474,-2.7336869,-3.5395169,-6.1609483,-8.2686949,-7.546679,-3.6631308,0.82523167,1.4039631,-5.9991646,-22.481829,-45.01664,-67.443939,-83.137093,-87.910423,-81.631447,-67.784546,-51.408119,-36.674431,-25.422146,-17.233248,-10.672581,-4.6977267,0.66931337,4.6758885,6.7242141,7.0342541,6.5586834,6.2209926,6.0542469,4.8945527,0.9014309,-7.3810472,-20.064404,-35.631802,-51.483837,-64.984528,-74.433136,-79.502319,-81.037895,-80.463959,-79.173103,-78.172813,-78.027985,-78.964478,-80.972,-83.840843,-87.173653,-90.443138,-93.111031,-94.752419,-95.113083,-94.083443,-91.643486,-87.853874,-82.911751,-77.20752,-71.28466,-65.663422,-60.602737,-55.95517,-51.241623,-45.94067,-39.838005,-33.22401,-26.810892,-21.414856,-17.594755,-15.455852,-14.706161,-14.881994,-15.561863,-16.429834,-17.192097,-17.479458,-16.881767,-15.144707,-12.404114,-9.2623453,-6.5910249,-5.1290827,-5.1044612,-6.12257,-7.4105349,-8.2808056,-8.5302467,-8.5254326,-8.9212189,-10.192028,-12.270967,-14.520017,-16.044983,-16.160141,-14.729439,-12.202766,-9.3573675,-6.9193025,-5.2832241,-4.4598036,-4.2319794,-4.3886623,-4.8864245,-5.8561029,-7.4682245,-9.741828,-12.400833,-14.85834,-16.361406,-16.269377,-14.374193,-11.118282,-7.5593796,-5.0067229,-4.4077282,-5.7363939,-7.7192569,-8.1460161,-4.7501931,3.6747971,16.459621,31.016811,43.714237,51.352509,52.596207,48.678463,43.011139,39.84,42.530399,52.232944,67.487282,84.884605,100.44652,111.10318,115.67143,115.00144,111.33533,107.23215,104.54482,103.85614,104.54569,105.37607,105.27013,103.89171,101.76233,99.89328,99.165482,99.817909,101.33428,102.77862,103.35966,102.86477,101.69054,100.46415,99.527748,98.661797,97.268608,94.915001,91.85598,89.128906,88.065636,89.464828,92.936913,96.882767,99.201622,98.36483,94.237862,88.158928,82.222443,78.192711,76.683792,77.052422,77.991531,78.386223,77.876144,76.818985,75.781731,74.995026,74.187088,72.896065,70.985909,68.933754,67.629341,67.799065,69.464241,71.842484,73.797638,74.551567,74.173714,73.507027,73.575737,74.879623,77.056953,79.139793,80.21373,80.019669,79.087311,78.325699,78.372772,79.158813,79.969551,79.935364,78.588463,76.114235,73.172447,70.476303,68.459618,67.239975,66.814201,67.229843,68.521988,70.449547,72.300613,73.046021,71.865486,68.731712,64.59584,60.927582,58.819233,58.241814,58.032917,56.740788,53.820549,50.319511,48.405418,49.816429,54.103256,57.852459,55.644238,42.508064,16.676451,-18.886517,-57.143269,-89.633125,-109.83615,-115.591,-109.44344,-96.925087,-83.812546,-73.814423,-67.715149,-64.090843,-60.877087,-56.768112,-51.748154,-46.704788,-42.611996,-39.898186,-38.339039,-37.393284,-36.632412,-35.94474,-35.436203,-35.191753,-35.128773,-35.050514,-34.82024,-34.48177,-34.213921,-34.159138,-34.277374,-34.355953,-34.175205,-33.697762,-33.123722,-32.756557,-32.774685,-33.084049,-33.372288,-33.335114,-32.9118,-32.351902,-32.053383,-32.279076,-32.953156,-33.690186,-34.04916,-33.844486,-33.298431,-32.920033,-33.177761,-34.1745,-35.539402,-36.616901,-36.845913,-36.101501,-34.792221,-33.653,-33.353565,-34.146801,-35.751747,-37.525269,-38.812153,-39.270386,-38.99654,-38.403137,-37.949024,-37.90786,-38.33091,-39.232872,-40.876972,-43.947342,-49.434372,-58.213905,-70.497055,-85.450294,-101.24973,-115.63353,-126.74562,-133.87128,-137.67668,-139.79767,-141.96857,-145.14569,-149.10118,-152.70905,-154.75023,-154.75674,-153.38466,-152.08395,-152.25842,-154.4254,-157.89322,-161.16331,-162.81987,-162.36975,-160.52434,-158.75627,-158.40149,-159.84048,-162.22203,-163.85051,-162.96716,-158.46472,-150.1826,-138.7361,-125.115,-110.35909,-95.460114,-81.3992,-69.106171,-59.218578,-51.747749,-45.929214,-40.484974,-34.259163,-26.887655,-19.060623,-12.144744,-7.341537,-4.8977113,-3.9034977,-2.8667433,-0.74144948,2.246022,4.5500293,4.1456065,-0.20806205,-8.0463619,-17.212578,-24.845345,-28.790911,-28.634443,-25.778431,-22.565783,-20.992929,-21.75238,-24.091864,-26.46368,-27.495703,-26.700075,-24.575605,-22.161442,-20.397499,-19.68067,-19.807188,-20.230843,-20.417418,-20.097193,-19.340818,-18.491936,-18.017376,-18.309937,-19.471359,-21.148197,-22.543636,-22.697113,-20.975489,-17.529806,-13.393482,-10.043529,-8.5790472,-8.987896,-10.031255,-9.9684134,-7.8118801,-4.3744984,-2.3620086,-5.2508883,-15.422861,-32.558231,-53.257813,-72.234344,-84.534012,-87.641327,-82.364319,-72.080109,-60.837639,-51.418308,-44.395123,-38.570927,-32.342182,-25.040903,-17.429554,-11.139857,-7.5344672,-6.7927914,-7.8048558,-8.8835182,-8.7736464,-7.2879224,-5.1990414,-3.5349264,-2.8012691,-2.6557598,-2.2115986,-0.71088874,1.9193108,4.9990187,7.5292659,8.8036022,8.7799807,7.992938,7.1163635,6.5148211,6.0958676,5.5329108,4.6516275,3.6626742,3.0507748,3.1970561,4.0210743,4.9289775,5.1429014,4.2112575,2.3555171,0.40036201,-0.69465792,-0.41524488,0.98731822,2.6466854,3.6123052,3.4248807,2.3742054,1.2857839,0.9882077,1.8135917,3.4479444,5.2050138,6.5122533,7.2647595,7.8101864,8.5982342,9.7710543,11.01307,11.786028,11.781617,11.241689,10.868254,11.337534,12.747439,14.432657,15.374481,15.024655,14.022398,14.260825,18.109459,27.130486,41.002338,57.324528,72.510956,83.351997,88.419556,88.563141,86.262878,84.25425,84.223701,86.269699,89.31501,92.078705,93.93309,95.137924,96.416077,98.277664,100.61894,102.86323,104.48233,105.45521,106.2847,107.54549,109.31161,110.92812,111.35839,109.9168,106.89112,103.59353,101.74301,102.52881,105.92951,110.70888,115.08176,117.62891,117.91048,116.45751,114.23657,112.0005,109.95344,107.88901,105.6137,103.29099,101.44074,100.61079,100.98243,102.20885,103.60038,104.51707,104.6949,104.30456,103.74989,103.38943,103.38288,103.7282,104.39016,105.36402,106.60854,107.93185,108.98378,109.42823,109.19913,108.63137,108.31404,108.71637,109.8341,111.1312,111.86189,111.57703,110.45836,109.22308,108.64536,109.03374,110.05594,111.05548,111.62771,112.0005,112.88566,114.867,117.7822,120.6255,122.15273,121.82607,120.38925,119.51029,120.52898,123.02093,124.16222,119.50613,104.95113,78.903976,43.436707,3.7621155,-33.702843,-63.641132,-83.336632,-92.775238,-93.621109,-87.936035,-77.466652,-63.738941,-48.5327,-34.049038,-22.400045,-14.677178,-10.300065,-7.2520685,-3.2186253,3.0211446,10.847544,18.219425,23.017826,24.444618,23.55534,22.575979,23.462662,26.659824,30.86307,33.908573,34.166527,31.515253,27.301571,23.400963,21.07799,20.418221,20.638933,20.941891,21.212435,22.036251,24.054895,27.197803,30.432817,32.295765,31.873104,29.547516,26.941,26.022751,27.921164,32.196701,37.047729,40.329384,40.760315,38.596691,35.407757,33.141796,33.067627,35.187782,38.383274,41.111366,42.209194,41.380993,39.189697,36.649109,34.665699,33.575745,32.930809,31.588268,28.091152,21.247997,10.728529,-2.5849519,-16.72364,-29.286322,-38.391521,-43.478672,-45.51989,-46.485798,-48.323181,-51.996166,-57.116272,-62.33746,-66.234009,-68.105293,-68.239998,-67.555,-66.937103,-66.774834,-66.97567,-67.371445,-68.116867,-69.703148,-72.528961,-76.351532,-80.090256,-82.241478,-81.724663,-78.628876,-74.331543,-70.841278,-69.728493,-71.299179,-74.528496,-77.783516,-79.852089,-80.604614,-80.87574,-81.687759,-83.381271,-85.271812,-86.080223,-84.845772,-81.693169,-77.914955,-75.286644,-75.042114,-77.160934,-80.412933,-83.114067,-84.101395,-83.321815,-81.708527,-80.488365,-80.408714,-81.377136,-82.692902,-83.64563,-84.035645,-84.266022,-84.980202,-86.536156,-88.705109,-90.80748,-92.186356,-92.688942,-92.829651,-93.528793,-95.599899,-99.308853,-104.26065,-109.64731,-114.66971,-118.86983,-122.20757,-124.90359,-127.20819,-129.26265,-131.10931,-132.77747,-134.32327,-135.76323,-136.95416,-137.54385,-137.08392,-135.27953,-132.23534,-128.52879,-125.03076,-122.54357,-121.44302,-121.51767,-122.09169,-122.36295,-121.77946,-120.2715,-118.24709,-116.38404,-115.33974,-115.51268,-116.93813,-119.32595,-122.19373,-125.03001,-127.4338,-129.19716,-130.31966,-130.96143,-131.35994,-131.74667,-132.29654,-133.12029,-134.27914,-135.7858,-137.56969,-139.42575,-141.00081,-141.86996,-141.70421,-140.4581,-138.46394,-136.3468,-134.76863,-134.11671,-134.30032,-134.77193,-134.76581,-133.62492,-131.0417,-127.10117,-122.14059,-116.5451,-110.61353,-104.54958,-98.525551,-92.710571,-87.198845,-81.877937,-76.360847,-70.09201,-62.624619,-53.928612,-44.530327,-35.360794,-27.36396,-21.07527,-16.415359,-12.819883,-9.6212301,-6.4437184,-3.3741083,-0.82230502,0.81069583,1.4261905,1.297949,0.90254146,0.65861571,0.76856631,1.2539811,2.1105812,3.4111676,5.2353387,7.4675031,9.6506586,11.085869,11.20079,9.9829388,8.1572409,6.8970995,7.1541338,8.990344,11.382121,12.741436,11.967794,9.4619055,7.4530129,9.3042746,18.013906,34.614529,57.300991,81.79705,102.86646,116.30927,120.55563,117.18308,110.20107,104.4883,104.07208,110.90021,124.45781,142.21268,160.60425,176.1944,186.6384,191.23914,190.96693,187.95901,184.66154,182.91606,183.34814,185.31963,187.45959,188.49883,187.9617,186.33833,184.65536,183.72226,183.53313,183.21376,181.5619,177.84703,172.35707,166.32916,161.29111,158.21928,157.04166,156.79259,156.30423,154.97253,153.09529,151.57266,151.19237,152.00087,153.20047,153.65048,152.63368,150.36108,147.85991,146.30583,146.24094,147.20161,148.01012,147.53934,145.4444,142.38013,139.56978,138.02225,137.91956,138.56628,138.90587,138.23285,136.62019,134.80124,133.62926,133.51436,134.21936,135.11424,135.6577,135.73604,135.63321,135.70792,136.0753,136.56209,136.95216,137.27541,137.83829,138.91292,140.32553,141.34465,141.09204,139.27725,136.69556,134.94725,135.30473,137.3074,138.04541,132.86397,117.42745,90.178154,53.80056,14.700505,-19.432644,-42.804325,-53.780727,-55.070011,-51.817608,-48.776108,-48.160156,-49.278946,-49.902874,-48.292969,-44.53389,-40.397522,-37.995567,-38.258701,-40.314854,-42.151661,-42.042786,-39.716148,-36.467003,-34.180927,-33.987041,-35.490501,-37.099083,-37.184746,-35.251976,-32.3046,-30.176041,-30.301704,-32.773418,-36.293514,-39.018681,-39.695534,-38.336853,-36.044926,-34.181587,-33.494915,-33.777641,-34.213406,-34.084198,-33.304047,-32.427086,-32.187756,-32.955246,-34.502922,-36.222515,-37.577248,-38.437424,-39.06929,-39.831036,-40.842365,-41.882202,-42.562984,-42.60799,-41.99659,-40.87886,-39.370632,-37.44241,-35.024803,-32.246513,-29.576172,-27.688641,-27.092428,-27.770472,-29.11891,-30.274067,-30.630686,-30.194096,-29.509306,-29.211096,-29.522045,-30.075161,-30.205389,-29.504894,-28.227825,-27.223927,-27.415535,-29.167789,-31.99025,-34.78138,-36.450268,-36.495872,-35.175648,-33.204964,-31.259651,-29.65943,-28.421501,-27.552227,-27.252441,-27.805479,-29.220125,-30.95962,-32.073109,-31.74041,-29.872774,-27.285995,-25.219931,-24.466732,-24.730656,-24.771711,-23.375879,-20.573252,-18.239237,-19.513695,-27.207998,-42.070419,-61.962402,-82.508743,-98.915207,-107.95422,-109.04675,-103.95256,-95.425613,-85.745728,-75.969742,-66.156609,-56.151775,-46.226765,-37.113552,-29.516394,-23.593269,-18.878021,-14.711135,-10.805009,-7.4505405,-5.1741643,-4.1357923,-3.8230639,-3.4083958,-2.6077085,-2.4096093,-5.0149112,-12.812614,-26.907162,-46.113129,-67.132576,-85.923927,-99.517929,-107.24251,-110.68517,-112.50563,-114.88902,-118.5685,-122.88587,-126.65165,-129.10016,-130.30122,-130.87947,-131.41154,-132.03938,-132.56641,-132.84859,-133.03401,-133.35422,-133.59811,-132.74628,-129.20053,-121.6101,-109.79023,-95.056671,-79.637756,-65.466095,-53.13596,-41.76189,-29.883366,-16.821724,-3.5349796,7.6849284,14.548888,16.287649,14.327947,11.63518,11.105163,14.014354,19.489925,25.276714,29.232782,30.553946,29.985229,29.013981,28.722614,29.138794,29.478428,28.98822,27.673109,26.336191,25.929581,26.765228,28.240458,29.319189,29.399689,28.871801,28.884329,30.452343,33.570862,37.041855,39.209713,39.104965,37.145195,34.827297,33.585918,33.650795,33.800724,32.29068,28.339432,23.058367,18.992258,18.387201,21.268366,24.70273,23.972836,15.170635,-2.2719777,-24.689766,-45.584377,-58.611549,-60.496704,-52.281006,-38.31694,-23.750309,-12.02072,-3.7358932,2.6867344,9.2999334,17.041039,25.203955,32.080952,36.143063,36.919056,35.103436,32.025444,28.989269,26.929188,26.446613,27.958578,31.65778,37.252728,43.759251,49.668327,53.549976,54.776134,53.871479,52.201126,51.154613,51.357162,52.440338,53.514919,53.983349,54.080402,54.730091,56.815426,60.403183,64.516487,67.65905,68.748344,67.810852,65.955711,64.653717,64.832947,66.408409,68.5233,70.256943,71.243584,71.769958,72.364052,73.290253,74.403976,75.462357,76.537773,78.03019,80.091988,81.845131,81.123672,75.259933,62.710533,44.57531,24.881805,9.1382599,1.766082,3.8762305,12.807481,23.822454,32.968155,39.275845,44.821827,52.545296,63.257202,73.93174,78.648918,71.850945,51.983658,23.180096,-6.2566457,-27.862169,-37.231098,-35.995987,-30.457689,-27.772097,-32.006927,-42.325535,-54.134079,-62.200657,-63.690849,-59.362152,-52.511257,-46.695717,-43.836086,-43.760464,-45.106258,-46.603588,-47.733372,-48.475216,-48.69138,-47.948063,-46.076065,-43.968029,-43.710606,-47.557583,-56.208271,-67.616776,-77.448975,-81.268745,-77.245308,-67.580589,-57.496052,-52.177395,-53.52528,-58.868542,-62.641605,-60.1022,-50.732018,-39.031498,-32.021606,-34.897968,-47.550674,-64.206741,-76.5271,-78.328575,-69.084274,-54.130997,-41.550602,-37.686348,-43.9552,-56.659431,-69.587051,-77.580986,-78.922531,-75.38842,-70.410355,-66.825745,-65.651176,-66.343086,-67.919891,-69.879227,-72.256393,-75.008499,-77.467873,-78.484024,-77.211349,-73.884186,-69.862198,-66.792847,-65.468788,-65.266228,-64.658905,-62.483112,-59.007748,-55.939259,-55.253448,-57.646484,-61.760056,-64.847076,-64.521637,-60.406853,-54.488228,-49.84362,-48.577427,-50.401699,-52.915272,-53.455395,-51.243511,-48.240162,-47.929417,-52.669907,-61.323383,-68.852997,-68.423615,-54.96051,-28.138092,6.9757004,42.052292,69.247963,84.522499,88.83577,86.818626,83.923141,83.747833,86.881393,91.550217,95.312119,96.621986,95.442978,92.833725,90.060661,87.909019,86.530571,85.703796,85.143372,84.597748,83.759468,82.209702,79.569748,75.803642,71.425117,67.383629,64.632469,63.633915,64.12822,65.320213,66.348671,66.717384,66.420425,65.737823,64.918251,64.018288,63.00296,61.972523,61.267319,61.309116,62.276901,63.884613,65.477356,66.417076,66.481354,65.95826,65.340912,64.850159,64.184135,62.750114,60.257217,57.216309,54.882626,54.54269,56.556244,59.839966,62.276146,61.930237,58.354053,53.075871,48.812923,47.750809,49.901798,52.616165,51.690052,43.555687,27.351845,5.695838,-16.290972,-33.164715,-41.366882,-40.352257,-32.229248,-20.356405,-7.8159285,3.4542375,12.665644,19.693956,24.665344,27.912788,30.146872,32.426353,35.660336,39.812496,43.358654,43.547848,37.578552,24.191181,4.8062129,-16.521292,-34.456673,-44.461193,-44.597179,-36.214104,-23.254959,-10.60402,-2.296103,-0.34587717,-4.5349393,-12.99965,-23.165897,-32.583786,-39.432568,-42.705856,-42.20261,-38.421032,-32.369316,-25.272839,-18.2104,-11.798326,-6.0729303,-0.64755976,4.9252782,10.781317,16.57279,21.598679,25.164635,26.9676,27.287521,26.879845,26.630043,27.157446,28.572227,30.495478,32.306927,33.472519,33.780651,33.385632,32.669815,32.026257,31.684145,31.650566,31.763941,31.798962,31.559317,30.931406,29.91214,28.630516,27.354815,26.446402,26.229357,26.803446,27.900124,28.90452,29.097696,28.036308,25.865063,23.348347,21.544903,21.267132,22.626865,24.951525,27.14699,28.304314,28.180573,27.251635,26.308228,25.870703,25.825199,25.536562,24.36363,22.213213,19.728481,17.952135,17.673618,18.901972,20.833221,22.34388,22.675924,21.843834,20.493654,19.338673,18.602674,17.893255,16.603527,14.534076,12.240105,10.79174,11.067754,13.073349,15.799828,17.787115,18.050379,16.746195,15.10096,14.617581,16.07847,19.016554,22.014893,23.629498,23.304186,21.660175,19.986496,19.315241,19.743082,20.463615,20.452005,19.274279,17.416508,15.895802,15.452343,15.935842,16.358511,15.595573,13.232361,9.9395618,7.0917711,5.8874073,6.5849004,8.3828888,10.008285,10.575734,10.108001,9.3774548,9.2349033,9.9553652,11.086401,11.878787,11.927131,11.496596,11.273232,11.743986,12.719464,13.41225,13.04463,11.521266,9.615593,8.4729624,8.7725286,10.195321,11.655583,12.174548,11.734288,11.376307,12.316326,14.606996,16.341194,14.16317,5.0242391,-11.784179,-33.629658,-55.363991,-71.672028,-79.655571,-80.146187,-76.967224,-74.597244,-75.64624,-79.633987,-83.71463,-84.775551,-81.52787,-75.296959,-69.114388,-65.802139,-66.321365,-69.395569,-72.534744,-73.692406,-72.455444,-70.065277,-68.381439,-68.565224,-70.363831,-72.400169,-73.182259,-72.108589,-69.819893,-67.732605,-67.127907,-68.409325,-70.964546,-73.638313,-75.449188,-76.091881,-75.970871,-75.833641,-76.290169,-77.507416,-79.199905,-80.845009,-81.95623,-82.276268,-81.839417,-80.923004,-79.926857,-79.215569,-78.965065,-79.077332,-79.225845,-79.038979,-78.335358,-77.26252,-76.225632,-75.62542,-75.570717,-75.774673,-75.732536,-75.075371,-73.846344,-72.478165,-71.460724,-70.933281,-70.525291,-69.613976,-67.854393,-65.595444,-63.820236,-63.560875,-65.133583,-67.732841,-69.740807,-69.640305,-66.976677,-62.717533,-58.714661,-56.565151,-56.600517,-57.688263,-58.01046,-56.323624,-52.85537,-49.213196,-47.339569,-48.204159,-51.122715,-54.179958,-55.482258,-54.388863,-51.876568,-49.789837,-49.509884,-50.994041,-52.884449,-53.622204,-52.756783,-51.447132,-51.676483,-54.613293,-59.223988,-62.191029,-59.402386,-48.246536,-29.35083,-6.6537743,14.327656,29.089966,36.133587,37.26749,36.165886,36.134766,38.436806,42.074638,44.971561,45.644459,44.253193,42.417637,42.040245,43.994305,47.555496,50.906082,52.322826,51.248188,48.576401,46.033787,45.108818,46.225315,48.631775,50.988598,52.209572,52.016315,50.915344,49.706741,48.908928,48.478432,47.957592,46.886814,45.16769,43.135677,41.320797,40.082912,39.373428,38.774303,37.779022,36.132404,34.0201,31.996918,30.698099,30.498363,31.308817,32.623989,33.795391,34.384247,34.398216,34.274258,34.607765,35.778187,37.695751,39.838253,41.575462,42.584877,43.070133,43.58326,44.495869,45.42556,45.027115,41.405117,33.050606,19.846867,3.5583124,-12.57488,-25.050993,-31.582909,-32.101704,-28.767706,-24.975512,-23.855703,-27.010399,-34.051033,-43.049664,-51.546707,-57.540035,-60.00592,-58.849888,-54.517872,-47.617962,-38.776424,-28.706696,-18.29631,-8.5274677,-0.21147671,6.3042207,11.244273,15.227186,18.890205,22.540545,26.039045,28.970585,30.976049,32.031818,32.513214,33.021706,34.091927,35.943138,38.389153,40.923389,42.91853,43.856293,43.518082,42.089043,40.139442,38.464069,37.803696,38.540291,40.506126,43.025715,45.20348,46.329792,46.193527,45.128868,43.776836,42.714214,42.178207,42.040108,42.005505,41.867981,41.625416,41.394543,41.22966,41.029964,40.640087,40.069695,39.627159,39.799236,40.906128,42.774178,44.717484,45.931515,46.084774,45.679996,45.833817,47.490051,50.512257,53.288857,53.253551,48.174465,37.533878,23.167625,8.6984587,-2.0142787,-6.5944781,-5.1063509,0.24534245,6.4397202,11.19418,13.891565,15.471047,17.517805,21.211395,26.756014,33.49968,40.476681,46.902473,52.313824,56.403351,58.8498,59.401215,58.187397,55.968548,54.008057,53.523708,55.022182,57.973991,61.09621,63.098454,63.411926,62.420662,61.062801,60.11903,59.721855,59.435638,58.808292,57.920391,57.452091,58.168926,60.211086,62.776123,64.527534,64.507835,62.898102,61.002857,60.369061,61.609638,63.800819,64.990364,63.578018,59.642925,55.217426,53.156113,55.225883,60.672142,66.324127,68.349632,64.661751,56.459084,47.836742,43.582634,46.428791,55.40847,66.31871,74.013382,75.161636,69.877472,61.370228,53.976524,50.83593,52.538746,57.339825,62.538841,66.018944,67.04451,66.066292,63.964401,61.415489,58.7962,56.509995,55.274399,55.975533,59.098072,64.12706,69.396385,72.565292,71.480606,64.938034,52.966255,36.609116,17.49453,-2.4790196,-21.241026,-36.621754,-46.672119,-50.288319,-47.853954,-41.422916,-34.134644,-29.004168,-27.672478,-29.808418,-33.518112,-36.531895,-37.480572,-36.539581,-35.131992,-34.962925,-37.031357,-41.204609,-46.51865,-51.889202,-56.705105,-60.941322,-64.820816,-68.375992,-71.28933,-73.133904,-73.799843,-73.738708,-73.793068,-74.695465,-76.579117,-78.851295,-80.533836,-80.853828,-79.69973,-77.658707,-75.639343,-74.353424,-73.995697,-74.291641,-74.815453,-75.310295,-75.782951,-76.346809,-76.988045,-77.476891,-77.510719,-76.972939,-76.083366,-75.291977,-74.970749,-75.13092,-75.395302,-75.273735,-74.554428,-73.512672,-72.747681,-72.723366,-73.324265,-73.766808,-72.989075,-70.315353,-65.9776,-61.132515,-57.318123,-55.655067,-56.273884,-58.318718,-60.516178,-61.941101,-62.491844,-62.787041,-63.581768,-65.119576,-66.875824,-67.8806,-67.412178,-65.589005,-63.436928,-62.342747,-63.210613,-65.850792,-69.007141,-71.043053,-70.894173,-68.718712,-65.843094,-64.01149,-64.354141,-66.649712,-69.285103,-69.92437,-66.521851,-58.164555,-45.367889,-29.7686,-13.459073,1.6757017,14.355196,23.984238,30.542671,34.445992,36.448784,37.544094,38.771374,40.91824,44.225494,48.273186,52.16571,54.967159,56.17075,55.937462,54.957024,54.006298,53.468483,53.107632,52.239868,50.198265,46.805477,42.563824,38.448639,35.43438,34.038872,34.143951,35.16544,36.428963,37.501057,38.28957,38.905571,39.440605,39.845818,39.990238,39.815926,39.424496,38.989704,38.548573,37.852455,36.44696,33.98624,30.584148,26.919434,23.932526,22.221766,21.490345,20.432177,17.219027,10.385341,-0.3689689,-13.932281,-28.262938,-41.345737,-52.087749,-60.658428,-68.1175,-75.598732,-83.561447,-91.542114,-98.500877,-103.49083,-106.21304,-107.14383,-107.22451,-107.37061,-108.11946,-109.57848,-111.60262,-113.99572,-116.57966,-119.14133,-121.39719,-123.09454,-124.21702,-125.11623,-126.39237,-128.5228,-131.46259,-134.52985,-136.73647,-137.41075,-136.70108,-135.56094,-135.1282,-135.83939,-136.86305,-136.29686,-132.10318,-123.25692,-110.38858,-95.486946,-80.81691,-67.728256,-56.119946,-44.902805,-33.135086,-21.038094,-10.158377,-2.5098586,0.76727253,0.32958367,-1.5291897,-2.0869644,0.28387758,5.2466006,10.844044,14.830818,16.121521,15.409278,14.564911,15.24627,17.683256,20.494158,21.698877,20.27902,17.235481,15.382187,17.910299,26.547865,40.417896,56.288139,70.074982,78.736786,81.511086,79.8965,76.541969,73.796349,72.750511,73.180809,74.199852,75.039268,75.439735,75.509567,75.324249,74.685425,73.266563,71.017937,68.468231,66.618797,66.430168,68.219322,71.381371,74.649376,76.750198,77.053696,75.825287,73.962509,72.428841,71.764061,71.945023,72.589241,73.252319,73.54657,73.011963,70.933701,66.405731,58.779041,48.305447,36.531738,26.034252,19.440926,18.165808,21.564291,27.082005,31.446432,32.327789,29.557241,25.173567,22.202616,22.805407,26.828194,31.602018,33.160107,28.252529,16.091002,-1.0948197,-18.958456,-32.892529,-39.876881,-39.442265,-33.413296,