Bandpass,0,0.25173,60.44036,111.5976,150.1113,169.2049,167.9262,151.4633,129.4577,112.7916,109.844,123.5333,150.3539,181.948,208.6827,223.6922,225.5075,217.9901,207.689,200.175,197.4404,197.8222,198.2726,197.2974,196.3771,198.6851,205.7814,214.4894,216.37,200.7444,159.995,94.26217,12.75395,-69.34119,-136.8438,-180.3773,-199.0553,-199.0303,-189.2202,-176.9047,-165.5408,-155.4179,-145.9556,-137.6232,-132.1582,-131.2188,-134.8009,-140.7616,-145.8267,-147.1443,-143.1561,-133.1165,-115.9503,-89.77768,-53.08225,-7.03025,42.81754,87.24277,116.9461,127.2543,120.9864,107.1886,95.92733,92.03767,91.83958,85.34191,63.08479,23.57125,-23.56714,-61.25986,-73.93479,-56.62201,-18.62706,20.8194,42.78246,38.90926,15.78676,-9.200688,-18.07513,-2.565054,31.39238,67.26605,87.17992,81.20391,51.48737,9.478052,-31.34313,-62.44415,-82.97672,-97.43485,-110.6887,-124.1255,-135.3299,-140.9344,-140.0427,-135.4877,-131.9963,-132.8078,-137.4377,-142.4257,-144.6086,-144.4234,-146.5394,-156.8985,-177.8341,-204.5585,-225.7359,-228.3384,-204.2538,-154.818,-90.58099,-26.40013,25.29678,59.32245,78.21012,88.68086,96.73123,104.4739,110.3698,112.0947,109.6237,106.1799,106.3438,112.6659,123.1817,131.6462,130.5559,115.2315,86.60333,51.14393,18.07915,-4.522631,-12.74462,-7.618455,6.241688,23.06894,38.09229,48.57958,53.75068,54.10038,50.70985,44.84446,37.80131,30.85485,25.20993,21.97513,22.13427,26.4061,34.86988,46.41431,58.36359,66.76298,67.58572,58.5496,40.68023,18.62006,-0.7971051,-11.25,-9.633808,2.655423,20.57563,37.98405,50.48041,57.02899,59.61015,61.33666,64.33155,68.66504,72.84381,75.30726,75.76478,75.44118,76.12688,78.78532,82.75522,86.13351,87.05647,84.98586,81.09577,77.52531,76.0213,76.92467,79.14867,81.09882,81.83456,81.63248,81.60527,82.70975,84.91386,87.14608,88.04305,86.92545,84.2641,81.3046,79.14359,77.97734,77.09904,75.64706,73.50429,71.60719,71.33403,73.37565,76.93768,79.98174,80.50381,78.05064,74.39315,72.74749,75.87476,84.21892,95.3167,104.9781,109.6028,108.2378,103.0842,98.11976,96.69567,99.60762,104.8326,109.038,109.813,107.1531,103.2415,100.7523,100.8912,102.5657,103.2703,101.0826,96.33291,91.67461,90.3181,93.48176,98.73717,100.5134,92.72752,72.18111,40.80352,5.417434,-24.92048,-42.61881,-44.41619,-32.12513,-11.22402,11.62186,30.7047,42.2412,44.28266,36.34507,19.46327,-3.328806,-26.79031,-44.36835,-50.37312,-42.58018,-23.76281,-0.9321772,17.72714,26.80986,26.36031,21.60805,19.70347,25.18145,36.75536,47.43605,48.1107,32.70903,2.04899,-35.88213,-69.50835,-89.2346,-92.02522,-82.56644,-70.53272,-65.57071,-72.7819,-90.9965,-114.4286,-136.3982,-152.8243,-163.5831,-171.3614,-179.069,-187.667,-195.7042,-200.6418,-200.8737,-196.9854,-191.465,-187.1209,-185.344,-185.3735,-184.9922,-182.1349,-176.327,-169.0323,-162.7693,-159.6246,-160.1042,-162.9779,-166.0683,-167.384,-165.9051,-161.677,-155.3788,-147.8277,-139.7279,-131.6904,-124.2241,-117.505,-111.0158,-103.4276,-93.07478,-78.97394,-61.83651,-44.34296,-30.27181,-22.77194,-22.719,-28.16211,-35.29814,-40.46661,-41.98124,-40.6698,-38.79003,-38.05614,-38.11524,-36.55819,-30.53725,-18.96615,-3.799832,10.57658,19.62958,21.28398,17.22531,12.01762,10.51075,15.08792,24.42445,34.49292,41.15104,42.67342,40.64835,38.73125,40.08701,45.18646,51.34477,54.28085,50.70435,40.32568,26.09556,12.60234,3.6677,0.5850836,1.936783,4.894103,7.022112,7.437191,6.731634,5.965846,5.609437,5.233866,4.115227,2.187451,0.4987417,0.6727971,3.6181,8.341752,11.78129,10.00023,0.2385428,-17.28337,-38.87322,-58.58218,-70.60327,-71.6872,-62.40434,-46.67762,-29.9041,-16.62801,-8.884968,-5.89486,-5.074212,-3.709804,-0.3980078,4.420116,8.970874,11.30861,10.43719,6.7889,1.849455,-2.800355,-6.430903,-9.518237,-13.27253,-18.60586,-25.18096,-31.19545,-34.17314,-32.43093,-26.41121,-19.03629,-14.69832,-17.263,-28.08396,-45.1216,-63.73158,-78.78319,-87.0181,-88.38385,-85.65424,-82.60626,-81.86008,-83.6412,-86.13966,-87.13859,-85.78533,-83.3199,-82.26019,-84.58659,-90.1853,-96.70038,-101.0554,-101.7601,-100.4461,-101.397,-108.9825,-124.2953,-143.0006,-155.9756,-152.8873,-127.1483,-79.79239,-20.11896,37.45142,78.95012,96.26153,89.83949,67.64116,41.07258,20.1544,10.22193,11.41039,20.52479,33.70665,48.18247,62.30704,74.42062,81.85224,81.22747,70.19803,49.54092,24.08456,1.468356,-10.94307,-9.436521,4.284069,24.02836,42.30363,53.98797,58.44588,58.98303,60.14042,64.6071,71.67889,78.14066,80.83781,79.13711,75.52406,73.88,76.52336,82.01953,85.34848,80.56157,64.44064,38.94558,10.90195,-11.0221,-20.36849,-15.7188,-0.813493,17.89152,34.63295,46.70995,54.65616,60.5199,65.69646,69.84151,71.47329,69.61576,65.12671,60.62622,59.02252,61.63475,67.26048,72.87095,75.52361,74.21346,70.44923,67.19172,66.89319,69.95524,74.59266,78.11073,78.66171,76.27905,72.5572,69.33062,67.37205,66.05784,64.17729,61.19357,57.9196,56.02882,56.70292,59.4257,61.89317,61.24279,55.86156,46.54496,36.18659,28.13812,24.31261,24.27035,25.86613,26.95002,26.8931,26.85148,28.6068,32.86493,38.32648,42.31176,42.6048,39.24202,34.90185,33.4593,37.51995,46.53805,56.81505,63.49743,63.36394,56.65148,46.76939,38.11981,33.46806,32.57055,32.87814,31.71764,28.34862,24.40236,22.3664,23.17803,24.70361,22.36198,11.7431,-8.316231,-34.17649,-58.50025,-73.56137,-74.95264,-63.61681,-45.11711,-26.66944,-13.68107,-7.683917,-6.576222,-6.68199,-5.17569,-1.438278,3.215426,6.918957,8.6427,8.700461,8.245605,8.342617,9.377818,11.1604,13.42278,16.09663,18.96117,20.88061,19.36548,11.1739,-5.972793,-31.35244,-60.17815,-84.5209,-96.22298,-90.61707,-69.21471,-39.81713,-13.71819,-1.120987,-6.850198,-28.36814,-57.0124,-81.83096,-94.18127,-90.97659,-75.2244,-53.86769,-34.2103,-20.76371,-13.94867,-11.00536,-8.313072,-3.685352,2.606121,8.48008,11.77125,11.85515,10.13874,9.13704,10.75782,14.91798,19.42217,21.25943,18.59098,12.2439,5.771723,3.961327,10.5521,26.38205,48.92068,73.36663,94.65618,109.3246,116.3826,117.0156,113.5551,108.4249,103.5613,100.3242,99.60158,101.7777,106.5328,112.722,118.6321,122.6471,123.9888,123.0583,121.1039,119.4068,118.5297,118.1689,117.7097,117.0391,116.9284,118.563,122.4607,127.5712,131.3987,131.3546,126.6309,119.3169,113.709,113.8087,120.2142,128.29,129.0279,112.6363,73.29194,12.68001,-59.63964,-129.4012,-182.938,-212.1325,-216.7829,-203.526,-182.1882,-161.5535,-146.5495,-137.84,-133.4476,-131.1205,-130.0101,-130.8959,-135.172,-143.4002,-154.4278,-165.5604,-173.692,-176.7558,-174.7472,-169.7691,-165.068,-163.4576,-165.8877,-170.8448,-174.9652,-174.6314,-167.829,-155.3005,-140.3148,-127.0935,-118.6837,-115.4694,-115.2232,-114.7166,-111.9533,-107.5898,-104.5335,-105.8163,-111.9818,-119.7194,-122.8375,-115.3044,-94.73188,-64.25098,-31.52521,-5.30037,8.680018,10.12932,3.741865,-3.811697,-7.566232,-6.476136,-3.021312,-0.7153572,-1.271038,-3.264789,-3.069801,2.665807,14.67029,30.33485,45.0335,54.58241,57.31343,54.59058,49.66468,45.74883,44.53536,45.89668,48.64745,51.61726,54.26725,56.5977,58.67212,60.3069,61.20087,61.32266,61.10957,61.20909,61.93646,62.94315,63.47254,63.09029,62.26943,62.18683,63.60007,65.477,64.46877,55.99663,36.73036,7.177986,-27.26513,-57.77497,-75.638,-76.14452,-60.76133,-36.37261,-11.98687,5.311605,13.04516,13.42552,11.1293,10.29079,12.46653,16.51133,20.04969,21.34955,20.39029,18.64619,18.00672,19.70897,23.94008,30.15576,37.64487,45.82018,54.08919,61.60261,67.29215,70.34169,70.76812,69.61391,68.46275,68.51138,69.83178,71.37814,71.79855,70.49847,68.17955,66.42386,66.59071,68.81641,71.87664,74.04945,74.37004,73.33565,72.4917,73.17222,75.32895,77.41029,77.49207,74.90591,71.10707,68.94723,70.61362,75.54532,79.85816,77.95932,65.6253,42.75991,14.09694,-12.69391,-30.47544,-35.70154,-29.39338,-15.71204,0.6944431,16.75073,31.20748,43.28145,51.07545,51.30791,40.86704,19.2495,-9.893919,-39.47527,-61.88696,-72.55133,-72.00006,-65.20519,-58.56288,-56.37995,-58.96583,-63.34949,-65.95354,-65.34992,-63.29757,-63.48096,-68.91256,-79.79601,-93.24103,-104.945,-111.6544,-112.8109,-110.4225,-107.4433,-105.8773,-105.8683,-106.2286,-105.8272,-104.717,-104.1834,-105.7597,-109.9986,-115.9407,-121.6292,-125.2638,-126.1284,-124.6714,-121.7911,-117.9861,-113.0837,-106.7595,-99.369,-92.31504,-87.48053,-85.99329,-87.17216,-88.51077,-86.87942,-80.31277,-69.25156,-56.42954,-45.42343,-38.74932,-36.66728,-37.38664,-38.45884,-38.42679,-37.72156,-38.34525,-42.66826,-52.1286,-66.52715,-84.09396,-102.0254,-117.0715,-126.0433,-126.4001,-117.1339,-99.75227,-78.72745,-60.67762,-52.10119,-56.42478,-71.85136,-91.41293,-105.6096,-106.5651,-91.65121,-64.63381,-33.71322,-7.501834,8.870629,15.49178,16.5188,17.10089,20.33206,25.97142,31.4169,34.00386,32.99035,29.99814,27.81692,28.55346,32.43474,37.97357,43.21008,47.03325,49.64576,51.95974,54.51792,56.85615,57.82485,56.6206,53.69366,50.76974,49.85671,51.88674,55.95524,59.74892,60.94764,58.70287,54.21351,50.01596,48.44333,50.25467,54.28521,58.28717,60.34213,59.91572,57.91995,55.86921,54.79596,54.69013,54.77654,54.31327,53.24488,52.19679,51.84958,52.20996,52.40917,51.25084,48.16013,43.83227,40.03835,38.62274,40.30367,44.09283,47.7761,49.21866,47.6893,44.35783,41.60996,41.58039,44.79879,49.7984,53.9364,54.94378,52.26629,47.39407,42.99475,41.37662,43.20225,47.2095,51.07839,52.89879,52.33543,50.76421,50.25877,52.0087,55.1232,56.61898,52.76184,41.1565,22.48411,0.8742469,-17.46904,-26.84041,-24.58219,-12.3019,4.923068,20.99617,31.65057,36.18236,37.13483,38.1258,41.09011,44.58724,44.27977,35.45375,16.23031,-10.37581,-36.87623,-54.21426,-55.80693,-40.71104,-14.31916,13.76873,33.65647,39.00314,29.14167,8.751308,-14.45827,-32.81206,-41.17757,-38.12613,-25.68097,-8.093447,9.741943,23.75419,31.73176,33.74624,31.85685,29.14194,28.35108,30.71261,35.46507,40.39033,43.10619,42.42957,39.03503,35.03323,32.7238,33.29613,36.25734,39.90211,42.45965,43.1387,42.39954,41.35133,40.77267,40.50523,39.66107,37.47017,34.10498,30.8183,29.22562,30.19919,33.16452,36.34411,37.83665,36.82886,34.10428,31.4906,30.61024,31.79018,33.8886,35.15663,34.53596,32.47973,30.71089,31.07335,34.26047,39.30164,44.1582,47.02394,47.44063,46.48531,45.93114,46.99004,49.51281,52.16675,53.4317,52.68185,50.60366,48.69619,48.24511,49.50915,51.65991,53.44154,54.02502,53.4315,52.28227,51.16311,50.16204,48.95542,47.33561,45.68679,44.93393,45.93478,48.7697,52.54366,55.94841,58.23211,59.81818,62.00428,65.83877,70.97689,75.48055,76.92203,74.19456,68.73097,64.04383,63.53904,67.8272,73.3452,73.50737,62.07392,36.93364,2.004222,-34.06762,-61.85769,-75.57935,-75.44666,-66.69997,-56.0518,-47.85109,-42.33925,-36.92612,-29.39425,-20.68908,-15.26606,-18.6392,-33.68526,-58.13808,-84.98152,-105.6051,-113.8547,-108.5881,-93.40126,-73.99298,-55.09138,-38.89804,-25.78725,-16.31412,-12.67151,-18.20163,-35.06324,-61.63849,-91.66795,-116.1187,-127.0279,-121.2282,-101.7848,-76.30051,-53.07687,-37.33658,-29.53874,-26.46379,-24.04899,-20.05697,-14.99953,-11.03965,-9.920256,-11.47723,-13.72033,-14.29245,-12.1709,-8.382286,-5.26137,-4.818306,-7.371668,-11.36218,-14.41544,-14.86887,-12.70882,-9.332575,-6.389384,-4.570403,-3.203256,-0.8945264,3.28765,8.96421,14.54585,18.21908,19.13339,17.96228,16.45069,16.24086,17.75331,19.85476,20.52342,18.07895,12.20907,4.179265,-3.853784,-9.960306,-13.31075,-14.33899,-14.20958,-14.00733,-14.17463,-14.48579,-14.4705,-13.92793,-13.16794,-12.84192,-13.51321,-15.27468,-17.66204,-19.90637,-21.35501,-21.80491,-21.56233,-21.2183,-21.28511,-21.90331,-22.77289,-23.33548,-23.10927,-22.00455,-20.46229,-19.33337,-19.53791,-21.64672,-25.57212,-30.53129,-35.32117,-38.80304,-40.37561,-40.20315,-39.06859,-37.91787,-37.32986,-37.22018,-36.98418,-36.05818,-34.62798,-34.06839,-36.75699,-45.1761,-60.58084,-81.82368,-104.9834,-124.2103,-133.6748,-129.9601,-113.8731,-90.75691,-68.92625,-56.69255,-59.16178,-76.18789,-102.4584,-129.6879,-149.9315,-158.4823,-155.0687,-142.9959,-126.9426,-110.7593,-96.46902,-84.76869,-76.36325,-72.90121,-76.62072,-88.76434,-107.7846,-128.7232,-144.5291,-148.9323,-139.3888,-118.4481,-92.65704,-69.50849,-54.07362,-47.12437,-45.65889,-45.32832,-43.19487,-39.17772,-35.47436,-34.551,-37.15203,-41.65008,-45.09062,-45.1386,-41.57576,-36.36212,-32.29071,-31.20402,-32.99315,-36.00055,-38.4517,-39.83289,-41.20777,-44.24914,-49.69868,-56.40345,-61.69205,-62.92943,-59.24849,-52.28983,-45.40847,-41.8101,-42.78107,-47.10991,-52.02303,-54.9742,-55.12035,-53.57104,-52.35246,-52.86256,-54.89594,-56.86337,-56.99596,-54.65979,-50.86059,-47.60294,-46.56317,-47.99152,-50.5923,-52.45255,-52.38263,-50.75328,-49.25259,-49.68688,-52.57706,-56.42465,-58.12387,-54.31354,-42.93649,-24.20889,-0.5611852,24.31909,46.8089,64.42728,76.30283,83.0078,86.00636,87.01221,87.48791,88.3625,89.97137,92.17104,94.55827,96.70844,98.33872,99.3417,99.70704,99.42693,98.49055,96.97773,95.16862,93.53455,92.53025,92.30167,92.5119,92.48633,91.64866,90.00742,88.32178,87.74893,89.10348,92.17723,95.60828,97.49836,96.48258,92.62646,87.55305,83.64124,82.72547,85.06232,89.20424,92.8636,94.24521,93.02676,90.41214,88.26441,87.91733,89.42796,91.71278,93.40892,93.83022,93.38718,93.21079,94.29234,96.75134,99.71743,101.8684,102.2217,100.6428,97.78324,94.56757,91.6357,89.12885,86.87629,84.74696,82.83142,81.31534,80.20567,79.21803,77.99052,76.49661,75.27985,75.22272,76.902,79.94683,82.93945,84.05457,82.14168,77.56065,72.15989,68.31613,67.57425,69.75388,73.10286,75.42509,75.4363,73.47324,71.10098,69.92471,70.46214,71.86096,72.6457,71.92566,70.16801,68.93977,69.77892,72.99557,77.29569,80.53517,81.12375,79.09739,76.09348,74.23345,74.67844,76.88295,79.06709,79.56835,78.09641,75.96583,75.13867,76.75157,80.21441,83.56784,84.87853,83.67844,81.38712,80.36733,82.23978,86.66398,91.47677,94.14833,93.54256,90.73559,88.27145,88.3524,91.23978,95.02029,96.93514,95.34921,90.95597,86.32996,84.13236,85.25447,88.24897,90.49498,90.23803,87.98257,86.12634,87.04369,91.01517,95.66817,97.55148,94.86573,89.33501,85.54246,87.73344,95.94798,104.1877,102.3105,81.10767,37.83337,-21.11502,-82.22325,-130.7257,-157.162,-161.0408,-149.7508,-133.6792,-120.6238,-112.7565,-107.5684,-101.5977,-94.11505,-88.18943,-88.5372,-97.81332,-114.056,-131.1707,-142.2675,-143.7218,-137.3528,-129.3437,-126.6246,-132.9907,-147.2784,-164.4949,-178.9124,-187.0653,-188.918,-186.8928,-183.8201,-181.4064,-180.0925,-179.9343,-181.3584,-184.8444,-189.643,-192.6829,-188.9458,-173.6778,-145.3948,-107.784,-68.99505,-38.32228,-21.93513,-20.05426,-27.21926,-35.49643,-38.73573,-35.42504,-28.61513,-23.23126,-22.62444,-26.53943,-31.61593,-33.856,-31.29677,-25.1353,-18.69787,-15.09367,-15.19739,-17.27881,-18.43356,-16.78668,-12.99743,-10.13392,-12.06427,-21.39644,-38.14575,-59.71945,-81.96612,-100.5266,-111.8333,-113.5955,-105.0839,-87.51318,-64.43935,-41.64939,-26.01395,-23.29754,-35.71017,-60.44922,-90.22178,-115.8071,-129.5876,-128.4115,-114.4077,-93.46702,-72.29777,-55.61329,-44.78965,-38.38472,-33.86338,-29.35333,-24.45684,-19.90353,-16.56343,-14.62958,-13.50409,-12.33026,-10.66607,-8.759614,-7.247383,-6.554824,-6.491109,-6.369122,-5.566577,-4.107896,-2.808975,-2.835176,-4.931621,-8.833282,-13.25686,-16.51049,-17.35973,-15.64,-12.26949,-8.696527,-6.145408,-5.101346,-5.282739,-6.024709,-6.762978,-7.304347,-7.764362,-8.2978,-8.870508,-9.246063,-9.177087,-8.624702,-7.817224,-7.088481,-6.617416,-6.272429,-5.695741,-4.58507,-2.976327,-1.315443,-0.2406125,-0.2015586,-1.165322,-2.61134,-3.837707,-4.38654,-4.314181,-4.12346,-4.398703,-5.380014,-6.758853,-7.834853,-7.936188,-6.831275,-4.865059,-2.732252,-1.043791,0.02836959,0.7943631,1.761238,3.222772,5.008981,6.566321,7.305506,6.972378,5.787624,4.269987,2.896326,1.858134,1.099981,0.589552,0.5733685,1.552896,3.923106,7.502786,11.33529,14.01903,14.47401,12.70265,10.00943,8.425349,9.579031,13.66768,19.19748,23.7373,25.2916,23.47796,19.75381,16.52176,15.64967,17.35148,20.16162,22.03052,21.80341,20.04491,18.5668,18.88719,20.63455,21.07565,16.31551,3.654218,-16.24861,-38.80113,-57.06236,-64.80658,-59.46735,-43.3753,-22.59218,-3.991982,7.832574,12.23275,12.00781,11.25688,12.94112,17.52154,23.26752,27.79282,29.72663,29.48989,28.82495,29.52829,32.26626,36.19201,39.51367,40.5674,38.72255,34.6319,29.8125,25.89257,23.98513,24.43679,26.93863,30.79918,35.19361,39.3322,42.58854,44.62511,45.47905,45.51808,45.23406,44.96999,44.75176,44.3616,43.60776,42.58697,41.70697,41.40407,41.73883,42.18899,41.87022,40.11848,37.07622,33.85817,32.09714,33.08065,36.98174,42.67472,48.27193,52.06873,53.32871,52.45364,50.50987,48.49057,46.83912,45.50845,44.40829,43.79397,44.20363,45.94446,48.54219,50.68317,50.87612,48.49754,44.50328,41.1616,40.74641,43.84406,48.33714,49.86279,43.75987,27.60769,3.018278,-24.36431,-46.80315,-57.50168,-53.3327,-36.06152,-11.60812,12.1762,28.19802,32.21354,23.71172,5.546833,-17.30404,-39.33671,-56.01618,-64.85173,-65.83781,-61.1573,-54.22093,-48.33569,-45.5047,-45.84953,-47.90317,-49.60553,-49.48105,-47.39049,-44.50432,-42.57217,-42.93929,-45.85586,-50.40897,-55.04648,-58.36608,-59.7634,-59.65526,-59.22468,-59.81089,-62.16179,-65.81258,-68.8488,-68.27277,-61.01504,-45.34492,-22.09277,5.002088,30.25301,48.11012,55.49458,53.19284,45.47437,37.98437,34.97398,37.36367,42.7293,47.18319,47.98768,45.27897,41.84498,41.13995,44.85923,51.68786,58.05869,60.42493,57.54309,51.25177,45.24607,42.69274,44.3006,48.11309,51.08915,51.29303,49.12847,46.7714,46.29644,47.95308,49.94843,49.95582,47.21244,43.50555,42.06003,44.88557,50.44366,53.54736,48.03767,30.84946,4.881919,-21.43838,-38.05727,-38.57158,-23.76509,-1.194318,19.01669,29.67771,30.05035,25.37006,22.89048,27.10781,37.20803,48.19732,54.69607,54.68782,50.67321,47.57675,49.00897,54.5981,60.29992,61.46407,56.46469,48.2522,42.5843,43.98665,52.11876,61.06264,62.19923,49.0168,20.9457,-16.07912,-52.57475,-80.11903,-94.90244,-98.41686,-95.38612,-90.67589,-87.21481,-85.88347,-86.78995,-90.42936,-97.62962,-108.3703,-120.6984,-130.9879,-135.8006,-134.213,-128.8607,-124.6467,-125.6061,-131.8695,-138.8253,-139.3124,-127.7564,-103.76,-72.92463,-44.26242,-25.67157,-20.09768,-24.53784,-32.26728,-36.74258,-34.78875,-27.34401,-17.72493,-8.89937,-1.681221,5.089801,12.77957,21.03493,27.12592,27.01415,17.44164,-2.258018,-29.61744,-59.88344,-87.59871,-108.0655,-118.2313,-117.0592,-105.6657,-87.28959,-66.81739,-49.55016,-39.36293,-37.05097,-39.90762,-43.10847,-42.40245,-36.62868,-28.45083,-22.64027,-22.77637,-28.37141,-34.34879,-33.44997,-20.30635,5.234986,37.6036,68.22442,89.90512,100.3053,102.4906,102.382,104.7985,110.5739,116.4208,117.4226,110.4162,96.10493,78.69731,63.51169,54.20345,51.30519,52.74961,55.6987,58.28736,60.20034,61.99122,63.97548,65.68422,66.27473,65.41584,63.77589,62.57338,62.48813,62.84249,61.85259,57.95187,51.26396,44.0349,39.4431,39.37488,42.64045,45.00672,41.33915,28.71832,8.63239,-13.2246,-29.57368,-35.10968,-28.92202,-14.43345,2.906338,18.54556,30.47635,38.71521,43.32661,42.75834,34.04834,15.08054,-12.55285,-42.2498,-64.09267,-69.15773,-54.28339,-24.56338,8.125588,30.12614,32.12893,13.34717,-18.32608,-50.14673,-70.28921,-72.68254,-58.73831,-35.54295,-11.84437,5.942406,15.8567,19.99822,22.32246,26.08112,32.25909,39.58214,45.7649,49.09024,49.40377,48.0736,47.07451,47.80701,50.33155,53.40804,55.27577,54.69615,51.66877,47.42514,43.7213,41.85386,41.97916,43.13264,43.91819,43.42696,41.80365,40.10832,39.57584,40.77476,43.22823,45.74096,47.18915,47.20948,46.30668,45.31966,44.68453,44.0807,42.77518,40.42345,37.67802,36.02241,36.79883,40.05899,44.1291,46.4066,45.03334,40.36251,35.07189,32.54949,34.37224,38.49584,39.57658,31.64012,11.77674,-17.32213,-47.72379,-69.64478,-76.16661,-66.65202,-46.86276,-25.6723,-10.27396,-2.694764,0.3662637,4.391572,12.63999,23.31064,30.1373,26.13774,8.275708,-19.82734,-48.86679,-68.08289,-70.42081,-55.78435,-30.70385,-4.780845,13.99283,22.51186,22.91813,20.29182,19.32703,21.95605,27.03393,31.84493,34.19037,33.71172,31.80952,30.48634,31.02933,33.37564,36.40485,38.78151,39.70945,39.16655,37.64134,35.71952,33.86486,32.46995,31.95799,32.67052,34.48733,36.43409,36.67405,33.10014,24.35461,10.74947,-5.486429,-20.89121,-32.12804,-37.36168,-36.96444,-33.19728,-29.06124,-26.91542,-27.55115,-30.12026,-32.85762,-34.14954,-33.39247,-31.2531,-29.28717,-29.18498,-32.03057,-37.90125,-45.90984,-54.59342,-62.42392,-68.23093,-71.41765,-71.9752,-70.36776,-67.38651,-64.00889,-61.27454,-60.14297,-61.31849,-65.07191,-71.11835,-78.62312,-86.36802,-93.05127,-97.63104,-99.6102,-99.16615,-97.09832,-94.60849,-92.9817,-93.24837,-95.90475,-100.7673,-107.0076,-113.3784,-118.5822,-121.6658,-122.3127,-120.9199,-118.4301,-115.9956,-114.5992,-114.7613,-116.4086,-118.909,-121.2699,-122.4805,-121.9627,-120.0263,-118.1008,-118.4698,-123.3643,-133.6131,-147.4221,-160.0945,-165.2348,-157.331,-134.7121,-101.4053,-66.59827,-41.48228,-34.59701,-47.82595,-75.09954,-104.6917,-124.1797,-125.7094,-109.0027,-80.7049,-50.60178,-26.86604,-12.8469,-6.867367,-4.666355,-2.652905,0.1080343,2.20506,1.89507,-0.8649712,-3.933125,-4.397288,-0.8098168,5.483494,11.0305,12.6311,9.73775,5.087847,2.876555,5.490536,10.96892,13.10701,4.543926,-18.76281,-54.30973,-93.13697,-123.4223,-135.7252,-127.0789,-101.8323,-69.03754,-38.08326,-15.01569,-1.253471,5.224956,7.560973,8.239668,8.724238,10.12933,13.82806,21.14915,32.29031,45.44099,57.13955,64.00864,64.87498,61.74018,58.67747,59.10426,63.13182,66.88648,64.56969,52.2641,31.20433,8.36561,-6.298424,-4.608808,15.68587,49.66753,87.56781,119.3095,138.7866,145.7538,144.6886,141.7019,141.3815,145.1592,151.6041,157.941,161.714,161.7612,158.4551,153.4422,149.144,147.947,150.9727,156.6942,160.2085,154.1548,131.5564,89.68481,32.93133,-27.3146,-76.4581,-102.7534,-102.6391,-82.38876,-54.9478,-33.5084,-25.2822,-28.88563,-36.65258,-40.28162,-36.2799,-27.90512,-22.57184,-26.56135,-40.53746,-58.78653,-72.65376,-75.94859,-68.82433,-57.64009,-50.87849,-53.66716,-64.30189,-74.85944,-75.45437,-59.53791,-27.17534,15.33241,58.86407,95.65156,121.8595,137.5964,145.0967,146.7773,144.4483,139.7593,134.8758,132.3024,133.6967,138.6007,144.3722,147.8522,147.8439,146.6026,148.817,158.1822,173.4949,186.9886,186.6338,161.8265,109.5912,37.72189,-37.29597,-96.90604,-128.3544,-129.7554,-109.8096,-82.61285,-60.58602,-49.37045,-47.07708,-47.61185,-45.5405,-39.41829,-31.86747,-26.91813,-26.77968,-30.29795,-33.96109,-34.49933,-31.10054,-25.66698,-21.01274,-18.37773,-16.1035,-10.49983,1.605012,20.32333,41.91972,60.41095,70.65932,71.11849,64.60857,56.73186,52.92739,55.91065,64.85374,76.51984,87.40362,95.49282,100.7115,104.1098,106.6238,108.3946,109.0279,108.4384,107.4568,107.6169,110.1882,115.1457,120.8878,125.0262,125.8347,123.4304,119.8754,118.0381,119.8203,124.8075,130.1423,131.743,126.2303,112.5291,92.39481,69.67233,48.77494,33.14819,24.34124,21.89048,23.82878,27.46577,30.15928,29.95828,26.0763,19.11815,10.91609,3.897053,0.1067478,0.2806373,3.444629,7.341191,9.546265,8.725563,5.337786,1.357224,-0.8669296,0.006480888,3.464947,7.313663,8.765236,5.834585,-1.72242,-12.39127,-23.72977,-33.52391,-40.63402,-45.1624,-48.00135,-50.1438,-52.17911,-54.17076,-55.84645,-56.86153,-56.96409,-56.04428,-54.15736,-51.60018,-48.96642,-47.04369,-46.47494,-47.32467,-48.85234,-49.77724,-49.02184,-46.54612,-43.68987,-42.61814,-45.00372,-50.62616,-56.79499,-59.15195,-53.63511,-38.64158,-16.1769,8.762925,30.35699,44.56115,50.73648,51.42808,50.47246,50.57275,51.7663,51.65375,47.17648,36.82182,21.90118,6.144412,-6.11382,-12.06601,-11.65716,-7.290132,-2.32186,0.6743974,0.8923696,-0.8855581,-3.277553,-5.318574,-6.853903,-8.207065,-9.563258,-10.66333,-11.09045,-10.90362,-11.04157,-13.04522,-18.14516,-26.27977,-35.75294,-43.88758,-48.38273,-48.58088,-45.85186,-42.82029,-41.88086,-43.89811,-47.8694,-51.71727,-53.6667,-53.31705,-51.74936,-50.65707,-51.13032,-52.91703,-54.6439,-54.81713,-52.90607,-49.76862,-47.12973,-46.47014,-48.07271,-50.86395,-53.15494,-53.78269,-52.89222,-51.8391,-52.2723,-54.99673,-59.36208,-63.57689,-65.76274,-65.08717,-62.28167,-59.23321,-57.91061,-59.28361,-62.85175,-67.01064,-69.98737,-70.76616,-69.5011,-67.26304,-65.36347,-64.69181,-65.41071,-67.08224,-69.03571,-70.69715,-71.72927,-71.99674,-71.49602,-70.35366,-68.884,-67.58363,-66.97739,-67.35004,-68.52727,-69.90006,-70.72668,-70.57363,-69.6107,-68.54525,-68.20059,-68.98885,-70.61449,-72.23783,-72.99553,-72.57285,-71.41328,-70.42957,-70.35859,-71.21304,-72.1991,-72.21709,-70.63732,-67.83192,-65.06933,-63.76958,-64.56571,-66.79945,-68.84743,-69.15152,-67.33217,-64.62158,-63.20583,-64.7512,-68.94571,-73.02169,-72.72838,-64.38965,-46.99685,-23.14253,1.822463,22.06987,33.85876,37.04425,34.76588,31.55484,30.95405,33.95905,39.04084,43.55439,45.55611,44.89364,42.99055,41.61403,41.54834,42.09611,41.71415,39.29277,35.1418,30.94925,28.70313,29.30057,31.83526,34.11362,34.12185,31.46792,27.76846,25.5965,26.57575,29.84946,32.0299,28.86933,17.80397,-0.1177227,-20.14823,-35.80569,-41.90529,-37.02212,-24.05854,-8.644814,3.69443,10.04212,10.97846,9.567306,9.223921,11.7853,16.82382,22.3956,26.54527,28.53708,29.09078,29.62408,31.13513,33.50967,35.67617,36.41982,35.24936,32.73253,30.11829,28.55517,28.45786,29.41871,30.65585,31.62609,32.34542,33.21756,34.53459,36.06368,37.06308,36.74858,34.90794,32.21366,29.97613,29.44111,31.0419,34.07495,37.02336,38.36393,37.4045,34.67805,31.66443,30.00065,30.60106,33.16153,36.28763,38.17042,37.45597,33.89064,28.4516,22.92977,19.17334,18.32008,20.31601,23.88297,26.91694,27.1636,22.9501,13.7628,0.5078703,-14.6325,-28.74832,-39.05395,-43.82975,-43.14394,-39.03409,-34.9545,-34.55422,-40.18622,-51.77299,-66.62165,-80.43288,-89.17313,-90.9749,-87.08222,-81.23824,-77.67156,-78.6563,-82.93875,-86.01804,-82.29212,-68.06393,-43.81556,-14.46953,12.62522,30.99753,37.93435,35.43112,28.76524,23.54654,22.90801,26.33897,30.6569,32.36334,29.88785,24.41174,18.90605,16.13666,16.95919,19.94577,22.47949,22.51469,19.83789,16.06442,13.46755,13.47602,15.82896,18.87625,20.73666,20.49418,18.66035,16.68049,15.9075,16.77336,18.67379,20.54176,21.61507,21.83647,21.65621,21.4862,21.30166,20.7345,19.58545,18.31731,18.07674,20.12709,25.03359,32.1618,39.86884,46.3019,50.29738,51.80745,51.61336,50.57536,48.9895,46.50064,42.6031,37.31142,31.46146,26.37738,23.12294,21.87496,21.87862,22.02173,21.60592,20.74715,20.11862,20.24879,20.94656,21.33864,20.54421,18.49373,16.23203,15.37427,17.01202,20.81697,25.03869,27.5095,27.04827,24.31647,21.4861,20.85977,23.32666,27.69469,31.39631,32.1408,29.42822,24.89999,21.26549,20.51306,22.60549,25.55151,26.80643,25.04768,21.10746,17.42128,16.37507,18.69569,23.00064,26.80798,28.28153,27.46239,26.10288,26.21702,28.40982,31.24214,32.18579,29.56859,24.12231,18.9201,17.52456,21.44048,28.56299,33.80459,31.75019,19.86285,0.3186268,-20.69694,-35.9068,-40.44334,-33.99168,-20.48282,-5.706153,5.654881,11.89159,14.21515,15.17759,16.79612,19.56261,22.73412,25.39586,27.35638,29.22551,31.735,34.94402,38.01163,39.73275,39.42796,37.49363,35.18694,33.79865,33.82081,34.71621,35.43478,35.2702,34.40476,33.74016,34.1651,35.8349,38.02875,39.70487,40.32813,40.31802,40.74991,42.49686,45.45964,48.49094,50.12661,49.62169,47.53284,45.37959,44.60023,45.54862,47.29707,48.4361,48.29626,47.64408,48.20331,51.19876,55.9057,59.34225,57.58559,48.09682,31.64363,12.49143,-3.496355,-11.90372,-12.21624,-8.197959,-5.885029,-10.29471,-22.70978,-40.05383,-56.6375,-67.19901,-69.48894,-65.03445,-57.86022,-52.11533,-50.05077,-51.40591,-54.29567,-56.80688,-58.22485,-59.20763,-60.97115,-64.13927,-68.01349,-70.66441,-69.71896,-63.38824,-51.24048,-34.46925,-15.63352,2.003962,15.37287,22.53684,23.4049,19.8852,15.25668,12.86318,14.6508,20.29614,27.48494,33.29405,35.94184,35.8534,35.30378,36.75574,40.87962,45.56013,46.68101,40.40079,25.6309,5.173227,-15.30664,-30.02503,-36.01989,-34.58686,-30.3693,-28.64011,-32.37261,-40.78508,-50.11885,-56.05879,-56.26812,-51.54753,-45.0565,-40.25734,-38.94151,-40.52209,-42.85874,-43.90239,-42.99926,-41.05612,-39.61259,-39.5968,-40.67564,-41.61568,-41.30967,-39.66402,-37.68378,-36.70101,-37.32402,-38.90107,-39.90754,-39.01215,-36.0804,-32.39117,-29.88505,-29.91573,-32.33704,-35.53252,-37.38652,-36.57681,-33.36859,-29.42649,-26.78917,-26.67734,-28.86226,-31.93312,-34.22269,-34.7608,-33.67869,-31.89172,-30.35546,-29.43404,-28.77213,-27.69172,-25.77986,-23.24491,-20.81433,-19.27637,-18.99084,-19.69033,-20.67105,-21.22041,-21.00024,-20.16721,-19.20281,-18.59546,-18.57104,-19.00203,-19.50092,-19.61582,-19.03653,-17.7401,-16.04372,-14.53771,-13.88967,-14.55291,-16.48884,-19.06415,-21.23872,-22.02245,-20.99173,-18.5746,-15.88937,-14.17297,-14.08997,-15.32714,-16.73865,-16.98618,-15.311,-11.97485,-8.103332,-5.026384,-3.529159,-3.470719,-3.992223,-4.151206,-3.553729,-2.571351,-2.019688,-2.535007,-4.08032,-5.912932,-7.027712,-6.774558,-5.242682,-3.175122,-1.497269,-0.7878942,-1.033669,-1.787242,-2.56882,-3.200795,-3.849102,-4.784092,-6.084081,-7.532268,-8.787528,-9.676898,-10.3464,-11.10879,-12.07579,-12.86267,-12.65277,-10.67079,-6.808112,-1.971377,2.151243,3.868258,2.402178,-1.590909,-6.241697,-9.346622,-9.438639,-6.466962,-1.732086,2.85114,5.723892,6.358721,5.327801,3.81956,2.947337,3.245498,4.565918,6.323558,7.8643,8.731257,8.744748,7.954291,6.572621,4.942507,3.498692,2.657851,2.63358,3.272597,4.047234,4.271217,3.454447,1.598436,-0.7615602,-2.817147,-3.908501,-3.858304,-3.020741,-2.028844,-1.412183,-1.325941,-1.539125,-1.650571,-1.354916,-0.5781882,0.5749572,1.967875,3.517979,5.141239,6.622027,7.568592,7.5695,6.503831,4.797142,3.391785,3.356526,5.305108,8.959871,13.15622,16.33683,17.28925,15.71844,12.34058,8.467354,5.348651,3.657514,3.372296,4.034245,5.131875,6.334154,7.46624,8.350172,8.733457,8.429179,7.566422,6.699284,6.572895,7.602915,9.395089,10.70264,9.99151,6.374035,0.3589253,-6.119673,-10.53644,-11.07359,-7.640399,-1.974525,3.289179,6.066416,5.931487,4.218174,3.06043,3.979105,6.905864,10.25578,11.98909,10.9711,7.752637,4.272311,2.680051,4.04051,7.738907,11.93765,14.74365,15.29838,14.08287,12.28501,10.72036,9.10085,6.200726,0.8404452,-6.976857,-15.58822,-22.2632,-24.57773,-21.75148,-15.11664,-7.409521,-1.299752,1.959403,2.9685,3.497294,5.167015,8.357767,12.01558,14.43127,14.43873,12.2329,9.285841,7.436204,7.759214,9.944066,12.55279,13.95834,13.33588,11.07843,8.409761,6.50098,5.701625,5.397602,4.564852,2.621504,-0.01781175,-2.081691,-2.208803,0.1405439,4.216579,8.273643,10.47204,9.858704,6.854297,2.972636,-0.04263898,-1.148659,-0.4726653,0.9118531,1.716472,1.210724,-0.4179257,-2.294511,-3.489301,-3.638765,-3.172965,-3.025693,-4.023446,-6.3318,-9.293511,-11.74845,-12.64429,-11.58538,-9.01472,-5.946648,-3.419895,-1.988685,-1.528389,-1.435732,-1.076833,-0.2049069,0.8938428,1.59669,1.345854,0.009043218,-2.015712,-4.001425,-5.270273,-5.522122,-4.926518,-3.946916,-3.02378,-2.322239,-1.696472,-0.8772165,0.2523905,1.482641,2.327065,2.275211,1.099761,-0.9666838,-3.297119,-5.14925,-6.014375,-5.855282,-5.116422,-4.509978,-4.685981,-5.938877,-8.078389,-10.51089,-12.4933,-13.45327,-13.24605,-12.23303,-11.13309,-10.69145,-11.30244,-12.77375,-14.37615,-15.19228,-14.60946,-12.69299,-10.20701,-8.236216,-7.597217,-8.385081,-9.943759,-11.30358,-11.82233,-11.60858,-11.42058,-12.07707,-13.76777,-15.77631,-16.88928,-16.29819,-14.39883,-12.86242,-13.76358,-18.19446,-25.24177,-32.11458,-35.56238,-33.86935,-28.19837,-22.28335,-20.38205,-24.50534,-32.5449,-38.5846,-35.51773,-18.72383,11.16334,48.00903,82.72262,107.3209,118.3794,118.0681,112.3352,107.3766,106.4216,108.563,110.0874,107.3013,99.04912,87.46211,76.63215,70.18206,69.2776,72.25269,75.92538,77.65623,76.8226,74.85841,73.97711,75.50588,78.93642,82.25853,83.29131,81.11687,76.70649,72.37914,70.46243,71.97363,76.07983,80.59479,83.18063,82.5771,79.22114,74.99363,72.24214,72.55168,75.79635,79.87858,81.31696,76.52745,63.3721,42.35541,16.87331,-7.76449,-26.28153,-35.56146,-35.93261,-30.89394,-25.31918,-23.01356,-24.92363,-29.00143,-31.80408,-30.87924,-26.48015,-21.52685,-19.79523,-23.44881,-31.49563,-40.22685,-45.46388,-45.26799,-41.39556,-38.49922,-41.45064,-52.3471,-69.00694,-85.89165,-96.94011,-98.67924,-91.82777,-80.57432,-70.1009,-63.89178,-62.36167,-63.40131,-64.22742,-63.22122,-60.63379,-57.92149,-56.39592,-56.23139,-56.4771,-55.92713,-54.09448,-51.54701,-49.41278,-48.52507,-48.92032,-50.08266,-51.66641,-54.01862,-57.93456,-63.71999,-70.2878,-75.15262,-75.65011,-70.80179,-62.60968,-55.73163,-55.39386,-64.55666,-81.94518,-102.1931,-118.1649,-124.261,-118.929,-105.0842,-88.35265,-74.25026,-65.86809,-63.1279,-63.63704,-64.28378,-62.52479,-56.83171,-46.52494,-31.60353,-12.96357,7.192521,25.38941,37.83734,42.11886,38.69129,31.14025,24.72988,23.86988,29.90055,40.53854,51.36317,58.458,60.58474,59.5592,58.67788,60.31865,64.34982,68.40681,69.78072,67.53889,63.33582,60.28891,60.69175,64.20235,67.89809,68.31474,64.16266,57.83755,54.53865,59.35359,74.07365,95.77851,118.1646,134.8727,142.7828,143.2766,140.7972,139.7314,141.7115,145.0157,146.3134,143.3946,136.9346,130.0726,126.1541,126.3368,128.812,130.2703,128.5859,124.6913,122.0978,124.0738,130.2556,135.1083,129.7105,106.2897,63.07999,6.62089,-50.12759,-93.10922,-113.2316,-110.0131,-91.01657,-67.59998,-49.4433,-40.75755,-39.86724,-41.83467,-42.18179,-39.44265,-35.3207,-32.82146,-33.88781,-38.12147,-43.24421,-46.75282,-47.52044,-46.30368,-44.95647,-45.03599,-46.80003,-49.21255,-50.83701,-50.89217,-49.73561,-48.48845,-48.15652,-48.9057,-49.99652,-50.37843,-49.483,-47.64738,-45.8888,-45.21987,-45.98958,-47.69511,-49.35303,-50.14293,-49.87501,-48.99976,-48.19848,-47.88977,-47.98869,-48.05918,-47.7007,-46.86263,-45.86095,-45.09879,-44.7151,-44.42582,-43.68007,-42.01985,-39.40525,-36.29043,-33.41599,-31.46062,-30.76716,-31.28465,-32.70629,-34.66899,-36.87661,-39.09706,-41.09396,-42.59631,-43.3601,-43.27696,-42.4472,-41.13947,-39.65993,-38.21238,-36.84981,-35.53006,-34.22636,-32.98779,-31.89953,-30.97951,-30.10744,-29.06843,-27.70466,-26.07463,-24.49204,-23.38702,-23.05011,-23.42077,-24.06072,-24.35576,-23.8413,-22.46276,-20.62048,-18.96808,-18.07998,-18.17173,-19.018,-20.09081,-20.82895,-20.8833,-20.23093,-19.12337,-17.92648,-16.93952,-16.26868,-15.78994,-15.20316,-14.15203,-12.37826,-9.856091,-6.853609,-3.871654,-1.467497,-0.02741124,0.4003402,0.1171902,-0.3889506,-0.6985633,-0.6660634,-0.4591309,-0.4159809,-0.8178514,-1.724961,-2.973304,-4.315047,-5.582551,-6.745068,-7.814643,-8.68443,-9.052124,-8.53264,-6.926698,-4.475173,-1.899775,-0.1448318,0.07509241,-1.328512,-3.719662,-6.019524,-7.223041,-6.867691,-5.200925,-2.979375,-1.045693,0.05795747,0.2413948,-0.2429172,-1.030468,-1.814397,-2.36704,-2.473282,-1.91561,-0.5932842,1.287156,3.127599,4.117947,3.663495,1.839112,-0.4437018,-1.749804,-0.8250843,2.665043,7.801975,12.73114,15.51525,15.08716,11.78565,7.180149,3.282587,1.579483,2.397585,4.906047,7.690185,9.533719,9.977654,9.403538,8.681261,8.642921,9.68328,11.6498,13.99433,16.03665,17.19389,17.1166,15.75192,13.37094,10.54568,8.033009,6.541755,6.452287,7.630795,9.473579,11.19989,12.25341,12.58423,12.63323,13.01914,14.11847,15.8009,17.48751,18.48782,18.39152,17.26098,15.51272,13.59625,11.71404,9.78773,7.686518,5.529508,3.803786,3.16564,4.02328,6.180146,8.808597,10.82189,11.44496,10.63726,9.097567,7.839889,7.599864,8.439506,9.783234,10.83762,11.10509,10.65465,9.992791,9.650895,9.791123,10.10504,10.06367,9.329351,8.029692,6.695089,5.901935,5.873009,6.318921,6.63908,6.350735,5.45331,4.470338,4.124087,4.840353,6.400187,7.970145,8.510921,7.339213,4.527314,0.9244484,-2.205206,-3.733752,-3.142931,-0.7166381,2.598322,5.572443,7.149767,6.817101,4.771723,1.838346,-0.8428034,-2.261516,-1.951709,-0.1944107,2.111285,3.87951,4.3778,3.594841,2.221792,1.238392,1.330121,2.478215,3.97654,4.870783,4.549462,3.111338,1.26983,-0.1437045,-0.7473568,-0.8627957,-1.271585,-2.626671,-4.913644,-7.342232,-8.772758,-8.425959,-6.422097,-3.786309,-1.894365,-1.688115,-3.145052,-5.328162,-6.979324,-7.285926,-6.356473,-5.136272,-4.84251,-6.274633,-9.392253,-13.35527,-16.93647,-19.03508,-19.03355,-16.90087,-13.11156,-8.499028,-4.099842,-0.9496133,0.2088571,-0.7551955,-3.194478,-5.860685,-7.443194,-7.23879,-5.55931,-3.570486,-2.582548,-3.183424,-4.769828,-5.83621,-4.916752,-1.623391,2.900998,6.479597,7.124408,4.270482,-0.7557359,-5.378831,-7.192209,-5.321805,-0.9147213,3.545171,5.681068,4.554028,1.094151,-2.583216,-4.50997,-4.002836,-1.933601,-0.03389613,0.255116,-1.368841,-4.034546,-6.425826,-7.730869,-8.151298,-8.630069,-9.983041,-12.01107,-13.1867,-11.16273,-3.868313,9.366689,27.22723,46.65284,63.80271,75.35639,79.66117,77.31583,70.99199,64.49162,61.32971,63.30027,69.60764,77.02634,81.17209,78.45016,67.8298,51.52931,34.1679,20.67186,13.95316,13.55625,16.01593,16.75954,12.53388,3.043736,-9.053265,-19.71543,-25.69744,-26.10687,-22.5437,-17.90972,-14.72435,-13.96858,-15.02565,-16.54555,-17.51768,-17.8285,-18.04879,-18.76365,-20.03473,-21.39461,-22.30829,-22.67051,-22.90267,-23.56853,-24.83983,-26.27772,-27.14796,-27.03863,-26.27188,-25.72494,-26.14179,-27.46437,-28.7692,-28.97183,-27.83227,-26.43989,-26.61041,-29.38147,-33.55448,-35.42236,-30.20821,-14.64205,10.77102,41.26126,69.60902,89.41086,98.01027,97.41395,92.707,88.95806,88.50167,90.18983,90.90776,88.215,82.28979,75.90575,72.50873,73.7677,78.28796,82.40217,82.52408,77.5088,69.4586,62.43851,59.9535,62.82673,68.82168,74.17573,75.97658,73.82215,69.75738,66.67245,66.33708,68.39109,70.88241,71.81787,70.57153,68.16364,66.31342,66.04223,66.91337,67.43901,66.32725,63.57662,60.57275,59.08834,59.92896,62.25905,64.15187,64.00053,61.75575,59.03376,57.95494,59.51325,62.69718,65.09612,64.66635,61.43066,57.79284,57.04476,60.88036,67.55425,72.05694,68.47274,53.28067,27.65919,-2.632808,-29.82553,-47.74147,-54.43751,-52.5233,-47.18525,-43.24874,-43.00327,-45.85126,-49.62223,-52.42414,-53.77499,-54.449,-55.4247,-56.88765,-58.0569,-57.90255,-56.12122,-53.57834,-51.84879,-52.18383,-54.66074,-58.12862,-60.99099,-62.25423,-62.11386,-61.68646,-62.12573,-63.7747,-65.95739,-67.51365,-67.66312,-66.54982,-65.10382,-64.35339,-64.72094,-65.81557,-66.83585,-67.23777,-67.14356,-67.18333,-67.91864,-69.32195,-70.73217,-71.33636,-70.79771,-69.53293,-68.40516,-68.05009,-68.36749,-68.59683,-67.94382,-66.28826,-64.39298,-63.38578,-63.86112,-65.29635,-66.31359,-65.73725,-63.73453,-62.18396,-63.82162,-70.5546,-81.96784,-95.04415,-105.42,-109.5403,-106.4577,-98.22206,-88.63828,-81.18489,-77.34808,-76.31001,-76.01427,-74.77737,-72.33974,-69.74915,-68.31312,-68.49039,-69.55733,-70.24021,-69.77668,-68.53793,-67.70644,-68.241,-69.94028,-71.38345,-70.90163,-67.91892,-63.6649,-60.63127,-61.00285,-65.08376,-70.82806,-74.9106,-74.73743,-70.12212,-63.51483,-58.57754,-58.00158,-61.95347,-68.14217,-73.41904,-75.81924,-75.67037,-75.05925,-76.07716,-79.11733,-82.45271,-83.44698,-80.57517,-74.82316,-69.37962,-67.65312,-70.8134,-76.46118,-79.42183,-74.36116,-58.77556,-34.63061,-7.669877,15.22551,29.17238,33.23877,30.29652,25.07067,21.62546,21.67431,24.44658,27.87829,30.19404,30.90929,30.79806,31.0787,32.48088,34.80201,37.1445,38.56251,38.65671,37.76436,36.71227,36.34778,37.1429,39.04567,41.57545,44.05528,45.85981,46.61365,46.31105,45.32143,44.2491,43.6644,43.80604,44.42286,44.89437,44.60359,43.36795,41.64293,40.32241,40.21157,41.48146,43.47279,45.02131,45.14483,43.68016,41.45251,39.83785,39.96101,42.00315,45.05023,47.57491,48.26277,46.69761,43.52446,40.03885,37.49547,36.55017,37.11677,38.62702,40.44416,42.14938,43.57095,44.64397,45.28676,45.4153,45.05735,44.42032,43.79595,43.34077,42.91152,42.12689,40.6643,38.60352,36.53947,35.31287,35.48067,36.86343,38.51268,39.19861,38.15295,35.60721,32.74273,31.02967,31.3318,33.33355,35.67132,36.72021,35.5741,32.61721,29.33751,27.4873,28.10032,30.94522,34.71646,37.80935,39.18867,38.84158,37.59702,36.49912,36.16068,36.49428,36.92721,36.89351,36.24414,35.31472,34.64778,34.59391,35.07409,35.64826,35.81874,35.34539,34.37093,33.29792,32.5276,32.25174,32.41935,32.87557,33.548,34.53948,36.06927,38.30408,41.19667,44.42863,47.48504,49.82021,51.03645,51.0134,49.95885,48.37789,46.95507,46.37075,47.07874,49.11707,52.04432,55.05215,57.2434,57.96577,57.05392,54.87234,52.13845,49.62617,47.89269,47.14388,47.2603,47.92961,48.78531,49.49467,49.79742,49.53315,48.6871,47.43441,46.12902,45.20312,44.98575,45.53233,46.56932,47.6082,48.19457,48.1669,47.77909,47.59382,48.15882,49.59396,51.27379,51.7716,49.16173,41.6283,28.2133,9.421422,-12.59375,-34.43732,-52.42091,-63.74983,-67.48405,-64.83433,-58.61733,-52.08079,-47.61934,-45.9904,-46.37742,-47.21028,-47.24597,-46.28441,-45.13881,-44.9393,-46.25443,-48.61562,-50.75216,-51.37633,-49.99712,-47.22508,-44.37098,-42.60665,-42.25146,-42.65009,-42.71473,-41.74726,-39.98047,-38.46505,-38.3832,-40.2538,-43.57204,-47.11444,-49.69614,-50.86005,-51.0433,-51.13514,-51.7617,-52.80586,-53.48632,-52.91502,-50.71923,-47.2948,-43.53918,-40.30381,-37.98519,-36.53575,-35.83038,-36.01528,-37.48801,-40.46245,-44.45617,-48.1818,-50.08385,-49.27205,-46.23575,-42.76228,-40.97312,-42.01464,-45.27149,-48.70607,-50.22093,-49.21951,-47.30041,-47.51495,-52.51537,-62.69094,-75.49969,-86.5121,-91.64368,-89.28966,-81.10345,-70.97044,-62.83337,-58.68977,-57.9205,-58.22404,-57.422,-54.90926,-51.85091,-50.12279,-50.83848,-53.51803,-56.45596,-57.95769,-57.51605,-56.05587,-55.08201,-55.37591,-56.24386,-55.94796,-53.10064,-48.06005,-43.26756,-42.10245,-46.82378,-56.83096,-68.38914,-76.13181,-75.59914,-65.42658,-48.01329,-28.32865,-11.57791,-0.9818264,3.236549,3.328979,2.472656,3.143672,6.217423,11.05398,16.2641,20.59704,23.50623,25.26426,26.75907,29.16961,33.62793,40.88601,50.99998,63.14239,75.69859,86.716,94.58052,98.60337,99.21784,97.66581,95.36755,93.34184,91.97462,91.18979,90.79712,90.70938,90.90041,91.21445,91.30187,90.84678,89.95224,89.34019,90.03716,92.57442,96.16444,98.47338,96.40301,87.63988,72.21812,53.12323,35.44999,24.36892,22.89478,30.58618,43.8175,57.42596,66.828,69.56343,65.67442,57.0394,46.29138,35.97573,28.20091,24.58266,26.10114,32.73299,43.10169,54.60865,64.283,70.08067,71.9049,71.65263,72.09752,75.19102,80.8226,86.86665,90.57838,90.49107,87.5779,84.8194,85.31365,90.03313,96.64668,100.2643,95.82076,80.80475,56.80467,28.98501,3.784677,-13.89463,-22.53486,-24.0389,-22.16965,-20.43028,-20.56613,-22.33665,-24.38112,-25.43443,-25.1191,-23.97193,-22.91414,-22.65203,-23.39699,-24.96246,-27.01127,-29.19424,-31.11679,-32.28305,-32.20932,-30.72946,-28.28814,-25.93428,-24.89554,-25.9202,-28.7915,-32.36841,-35.18412,-36.26196,-35.6469,-34.31255,-33.51671,-34.02951,-35.73443,-37.83708,-39.49944,-40.43709,-41.06748,-42.1314,-44.08501,-46.71681,-49.26154,-50.9248,-51.42616,-51.17394,-50.94163,-51.29797,-52.2007,-53.05144,-53.1657,-52.30999,-50.90491,-49.74762,-49.44833,-49.98975,-50.73387,-50.87578,-50.02728,-48.51815,-47.20509,-46.92764,-47.98489,-49.98684,-52.14643,-53.77969,-54.63906,-54.87769,-54.71869,-54.14549,-52.88824,-50.7332,-47.89918,-45.13589,-43.39221,-43.23298,-44.41141,-45.94059,-46.6735,-46.03642,-44.41982,-42.93835,-42.70359,-44.08926,-46.48848,-48.72821,-49.84787,-49.69457,-48.92608,-48.44024,-48.66606,-49.2613,-49.44946,-48.74541,-47.49806,-46.78186,-47.64541,-50.22824,-53.42784,-55.45919,-55.02065,-52.28677,-48.98788,-47.39569,-48.81105,-52.55872,-56.25375,-57.29859,-54.70584,-50.02548,-46.62204,-47.57657,-53.42312,-61.15551,-65.27457,-60.45543,-44.40188,-19.29325,9.019773,33.64409,49.68013,56.07091,55.42523,52.13274,49.97557,50.55956,53.22728,56.18494,57.91929,58.00688,56.97017,55.53223,53.94623,51.90614,49.02257,45.40598,41.83981,39.3694,38.5948,39.20917,40.14903,40.29037,39.21052,37.47642,36.23805,36.39294,37.89954,39.72673,40.49853,39.42273,36.87268,34.22808,33.05062,34.11584,36.90948,39.90241,41.42303,40.58074,37.69297,34.00367,30.93112,29.33578,29.22949,30.01472,30.99228,31.7533,32.21728,32.37947,32.05365,30.8769,28.60945,25.50078,22.39308,20.39458,20.26282,21.8799,24.19508,25.74037,25.45829,23.35195,20.54617,18.68296,18.98005,21.49374,25.02101,27.70777,28.02864,25.59057,21.32799,17.00399,14.31496,14.09007,15.98875,18.80223,21.13563,22.07945,21.53181,20.06949,18.50937,17.44341,16.98838,16.8368,16.51293,15.65881,14.1922,12.29078,10.26201,8.404341,6.934813,5.993862,5.671818,6.004406,6.918666,8.170571,9.342163,9.943892,9.605235,8.269445,6.283715,4.312206,3.083517,3.071716,4.262682,6.127,7.83134,8.601316,8.071236,6.449883,4.420351,2.817599,2.241045,2.791433,4.059711,5.364676,6.110977,6.078073,5.492301,4.852707,4.61577,4.919643,5.505166,5.879715,5.633638,4.727483,3.578415,2.876927,3.21629,4.725763,6.912082,8.821296,9.463319,8.30445,5.575865,2.227943,-0.4724777,-1.52006,-0.6429796,1.570548,3.963947,5.384096,5.24551,3.799557,1.968947,0.8398215,1.081678,2.608583,4.657861,6.234779,6.664433,5.93766,4.654501,3.60924,3.266801,3.449678,3.430052,2.379936,-0.0838552,-3.587464,-7.119017,-9.525561,-10.1147,-9.022056,-7.138796,-5.648675,-5.436412,-6.698701,-8.94952,-11.37908,-13.3225,-14.55139,-15.23706,-15.6517,-15.8425,-15.52073,-14.25681,-11.85801,-8.671277,-5.58535,-3.683722,-3.720913,-5.716751,-8.909415,-12.10957,-14.27013,-14.96508,-14.52921,-13.80109,-13.63778,-14.47526,-16.16487,-18.13821,-19.76353,-20.66789,-20.8508,-20.56248,-20.07235,-19.49951,-18.81065,-17.95934,-17.03282,-16.27557,-15.95056,-16.13293,-16.59156,-16.87141,-16.55251,-15.52909,-14.11772,-12.89352,-12.33186,-12.47137,-12.82675,-12.63928,-11.33948,-8.941072,-6.106303,-3.80654,-2.761761,-3.008073,-3.887615,-4.511702,-4.435223,-4.10614,-4.747797,-7.658645,-13.29849,-20.73251,-27.85783,-32.41679,-33.29576,-31.36209,-29.2589,-30.12138,-35.81213,-45.63319,-56.30495,-63.36558,-63.35421,-55.64993,-42.93254,-29.93648,-21.08467,-18.2481,-19.86478,-21.95894,-20.56818,-14.28403,-5.488118,0.4812547,-2.098179,-16.29625,-40.59483,-69.08025,-93.71218,-107.5747,-107.5505,-95.21049,-75.63141,-54.90496,-37.63185,-25.56233,-17.825,-12.31241,-7.284482,-2.290087,1.954625,4.442504,4.820612,3.779887,2.691077,2.782174,4.416562,6.922634,9.054064,9.765902,8.825667,6.912847,5.188285,4.629372,5.52964,7.426867,9.448679,10.82876,11.28505,11.07657,10.75951,10.8279,11.44912,12.41363,13.27726,13.58569,13.06409,11.70984,9.791997,7.78782,6.277954,5.80962,6.741013,9.10867,12.5774,16.51535,20.17732,22.92372,24.3755,24.45607,23.33426,21.34588,18.95147,16.73269,15.35142,15.40412,17.17076,20.38288,24.18471,27.40102,29.05419,28.88217,27.55646,26.41332,26.78684,29.27755,33.36697,37.62178,40.39653,40.65187,38.43316,34.74477,30.93174,27.96138,26.04608,24.81044,23.83077,23.12633,23.21148,24.62717,27.2492,29.87771,30.4807,27.07264,18.78579,6.524457,-7.21828,-19.34017,-27.41222,-30.60822,-29.83182,-27.05183,-24.28072,-22.76487,-22.75048,-23.79029,-25.23849,-26.54097,-27.16754,-26.36172,-23.06442,-16.25053,-5.590994,7.960348,22.12157,33.97593,41.156,42.925,40.54609,36.68373,34.12617,34.48978,37.59964,41.83999,45.23405,46.6024,46.14375,45.14982,45.08435,46.62215,49.23269,51.54159,52.21176,50.79227,48.01092,45.34259,44.13297,44.81209,46.67009,48.31353,48.51863,46.96177,44.4018,42.2167,41.58818,42.81564,45.16011,47.2873,48.03046,47.03069,44.87937,42.72438,41.58713,41.81056,42.94347,44.08943,44.47125,43.8462,42.53559,41.0957,39.90328,38.96493,38.09861,37.33608,37.19934,38.54663,41.94521,46.90012,51.46151,52.62059,47.49739,34.82707,15.97962,-5.130196,-23.3619,-34.37896,-36.45346,-31.16544,-22.64161,-15.70095,-13.81005,-17.8113,-25.95532,-35.08546,-42.27112,-46.04784,-46.73462,-45.85183,-45.11497,-45.60569,-47.49346,-50.28596,-53.29994,-56.00219,-58.07454,-59.29812,-59.46632,-58.45802,-56.40161,-53.74926,-51.13105,-49.05631,-47.69664,-46.97912,-46.98324,-48.3567,-52.33524,-60.14759,-71.99714,-86.21896,-99.26252,-106.7764,-105.4225,-94.50617,-76.47765,-55.89247,-37.27827,-23.03985,-12.56619,-3.080998,8.238743,22.11189,36.26587,46.39517,48.4739,41.11317,26.61776,10.12732,-2.671135,-7.990763,-5.253839,3.305976,14.30776,25.04049,34.38173,42.46593,49.60944,55.44234,58.94546,59.35365,57.17413,54.39745,53.49968,55.70366,59.60957,61.24976,55.84375,40.47032,16.20358,-11.58252,-35.09448,-47.34152,-45.10125,-30.1522,-8.232911,13.6342,30.0292,38.85409,41.27148,40.24559,38.70668,38.34666,39.458,41.55311,44.10661,46.88942,49.81795,52.64306,54.88044,56.11034,56.38243,56.30265,56.56574,57.15027,56.74804,52.97916,43.50866,27.58243,7.11014,-13.43741,-28.47236,-33.48424,-26.96057,-11.1114,8.921331,26.95296,37.85878,39.02842,30.75459,15.6955,-2.116544,-18.26676,-28.76093,-30.70655,-22.97898,-6.786437,14.18211,34.37666,47.85176,50.19549,40.1641,20.25774,-4.133482,-26.71265,-42.55959,-49.72821,-49.51483,-45.39545,-41.23932,-39.66869,-41.26032,-44.80317,-48.29614,-50.09098,-49.62062,-47.45698,-44.81402,-42.84628,-42.12395,-42.49613,-43.33107,-43.94287,-43.96127,-43.47534,-42.91973,-42.79144,-43.3667,-44.55316,-45.94178,-47.01505,-47.39566,-47.00302,-46.05363,-44.91686,-43.9296,-43.2666,-42.93129,-42.83394,-42.87981,-43.00263,-43.12885,-43.14215,-42.90976,-42.38929,-41.73798,-41.30986,-41.482,-42.37607,-43.65462,-44.58028,-44.3772,-42.7326,-40.12564,-37.72476,-36.8253,-38.10492,-41.13591,-44.50046,-46.51165,-46.16671,-43.77418,-40.84777,-39.28214,-40.25928,-43.53222,-47.5183,-50.16745,-50.11326,-47.42794,-43.55655,-40.49005,-39.67569,-41.3051,-44.35022,-47.2616,-48.86162,-48.89473,-47.97312,-47.0401,-46.75309,-47.1694,-47.86464,-48.31237,-48.22219,-47.62922,-46.74514,-45.76952,-44.83257,-44.09464,-43.84905,-44.46131,-46.11534,-48.54378,-50.99701,-52.56449,-52.69537,-51.56813,-50.0032,-48.91005,-48.61953,-48.60282,-47.85735,-45.7841,-42.95808,-41.14859,-42.36805,-47.37996,-54.57054,-60.02646,-59.03066,-48.32872,-27.97616,-1.689489,24.59528,45.2644,57.35357,61.4688,60.91285,59.61753,60.10013,62.53708,65.29784,66.41977,65.0105,61.73712,58.22986,55.92252,55.14947,55.06953,54.38865,52.32914,49.18674,46.13386,44.45121,44.72161,46.49937,48.61567,49.87132,49.65939,48.16689,46.12785,44.36348,43.4143,43.42827,44.24424,45.50713,46.71383,47.2328,46.42824,43.93846,39.99248,35.51483,31.84409,30.11249,30.61479,32.55835,34.41154,34.70285,32.82155,29.34534,25.69334,23.32139,22.9542,24.30893,26.42969,28.3569,29.66035,30.49972,31.23474,31.93243,32.17763,31.35252,29.18181,26.123,23.26909,21.77208,22.15016,23.94626,25.98503,27.07662,26.70538,25.25754,23.65631,22.67816,22.43904,22.39884,21.86304,20.59313,19.06444,18.16449,18.53626,20.04223,21.76279,22.56884,21.90065,20.21067,18.73981,18.73705,20.62097,23.63946,26.26308,27.07272,25.57792,22.45255,19.06259,16.62263,15.53984,15.3504,15.23707,14.7243,14.04512,13.9295,14.97948,17.09401,19.37112,20.58508,19.93171,17.54801,14.45346,11.94618,10.84315,11.04836,11.70951,11.83166,10.93043,9.301143,7.754704,7.026597,7.271802,7.97869,8.340977,7.821812,6.525216,5.129924,4.436072,4.823034,5.967472,6.996153,6.97588,5.445544,2.684248,-0.4177297,-2.788209,-3.654182,-2.828321,-0.6935557,2.051491,4.714331,6.831214,8.215563,8.868913,8.859671,8.267375,7.223274,5.999144,5.047359,4.906372,5.962641,8.15559,10.79139,12.62187,12.24654,8.722808,2.122733,-6.264125,-14.25825,-19.57333,-20.73267,-17.68733,-11.82779,-5.366453,-0.3966434,1.914971,1.630018,-0.2487376,-2.423386,-3.921228,-4.385606,-3.977727,-3.067052,-1.968619,-0.8763281,0.04946295,0.6060715,0.6092557,0.06073942,-0.7415921,-1.305216,-1.245341,-0.5883384,0.181278,0.4329042,-0.1079974,-1.027607,-1.362359,-0.2061247,2.573262,6.014328,8.442698,8.405745,5.604871,1.203839,-2.752578,-4.502928,-3.600331,-1.141072,0.9777636,1.303017,-0.2410957,-2.349607,-3.261057,-1.977153,1.063003,4.319539,6.260111,6.448256,5.821047,5.932513,7.690867,10.51686,12.59427,12.12419,8.746428,4.097538,1.008452,1.76548,6.554769,13.16308,18.22187,19.25398,16.2068,11.45394,8.233183,8.534128,11.82676,15.48061,16.59373,14.00251,9.11552,5.000441,4.338303,7.629202,12.86694,16.90472,17.57985,15.14858,12.05126,11.17186,13.78983,18.63412,22.69557,23.24561,19.68126,13.9348,9.178282,7.722942,9.563655,12.55772,14.07824,12.93979,10.19545,8.194596,8.535746,10.38912,10.4848,4.974005,-7.92978,-26.23408,-44.58533,-56.71901,-58.56663,-50.21708,-35.63785,-20.42077,-8.952748,-2.643045,-0.04954592,1.474098,3.849903,7.288015,10.6705,12.76906,13.28247,12.95919,12.83875,13.30913,13.7632,13.12831,10.84315,7.503699,4.64662,3.790203,5.417586,8.646129,11.83314,13.69191,14.12176,14.16679,15.14968,17.61921,20.87585,23.41081,23.92927,22.21545,19.22897,16.39359,14.63337,13.86884,13.3241,12.363,11.16646,10.68553,11.87272,14.77763,18.2487,20.55534,20.55318,18.55381,16.21376,15.44242,17.06294,20.20286,22.91754,23.65828,22.52481,21.29827,22.05833,25.23079,28.45563,27.26888,17.46137,-2.193869,-28.54917,-55.05299,-74.72011,-83.50489,-82.17113,-75.60821,-70.00892,-69.5438,-74.37186,-80.97983,-84.45464,-81.26801,-71.01825,-56.34628,-41.36553,-29.66878,-23.01149,-21.14368,-22.53557,-25.34289,-28.06974,-29.79009,-30.12185,-29.18683,-27.59195,-26.28479,-26.17121,-27.6203,-30.18846,-32.83717,-34.59353,-35.2178,-35.36249,-36.02769,-37.67161,-39.69056,-40.81244,-40.29758,-39.12339,-40.13029,-46.65321,-60.20914,-78.66503,-96.30507,-106.2285,-104.0355,-90.74961,-73.0941,-60.63136,-61.07521,-76.28008,-101.1458,-126.086,-141.717,-143.1881,-131.8743,-113.7341,-95.58196,-81.59599,-72.01656,-64.46914,-56.68182,-48.59563,-42.44166,-40.82077,-44.20338,-49.67264,-51.91825,-46.01643,-30.34996,-7.868829,15.14447,32.17539,39.73913,39.03158,35.12819,34.25476,40.63219,54.53074,72.40595,88.86909,99.34304,102.0516,98.46546,92.18092,86.97973,85.12143,86.69957,90.25098,94.1456,97.87787,102.4632,109.6705,120.536,134.0965,147.2763,156.2448,158.6304,155.3193,150.5202,149.6808,156.0746,167.9088,177.8307,175.5863,152.8577,107.912,47.52073,-15.08776,-65.41457,-93.4659,-97.24162,-82.37064,-58.44606,-34.39085,-15.43818,-3.065696,2.806941,1.440012,-9.268683,-30.96459,-62.00311,-95.91533,-122.8387,-133.6837,-124.8694,-100.8136,-72.46302,-52.40558,-49.13713,-63.56404,-89.52151,-117.7408,-140.7693,-155.9853,-165.2113,-171.6222,-176.2098,-176.2419,-166.6339,-143.3092,-106.3342,-60.81986,-15.03431,23.16552,49.53147,64.57186,72.26221,77.32955,82.75739,88.8,93.74947,95.70046,94.14465,90.52734,87.56846,87.81435,92.13933,98.8619,103.8656,101.793,88.0592,61.08786,23.87225,-16.05927,-48.74758,-65.53078,-62.95721,-44.95359,-21.83482,-6.162848,-7.162495,-26.38755,-56.91257,-86.60448,-103.8748,-102.9611,-86.05193,-61.33154,-38.28081,-22.98519,-15.98524,-13.52054,-10.96398,-6.067128,-0.01139953,4.13853,4.255217,1.169016,-1.517716,0.3343954,8.666973,21.83964,35.50454,45.13704,48.56395,46.91515,43.52789,41.68554,42.75513,45.87071,49.16634,51.4803,53.20598,55.67025,59.55286,63.60614,64.75807,59.71985,47.13029,28.82616,9.333669,-6.210138,-14.4998,-15.45592,-11.8349,-7.424841,-4.998435,-5.210729,-6.910057,-8.404559,-8.710193,-7.990845,-7.075768,-6.598979,-6.48508,-6.140681,-5.11703,-3.646358,-2.581626,-2.762644,-4.303251,-6.378069,-7.721756,-7.513091,-6.005528,-4.424628,-4.167945,-5.848436,-8.847807,-11.70078,-13.0552,-12.55611,-11.05689,-10.02868,-10.58527,-12.78218,-15.63836,-17.81866,-18.47855,-17.70646,-16.32336,-15.2618,-15.00912,-15.49056,-16.38947,-17.55976,-19.14255,-21.2817,-23.69943,-25.56351,-25.87603,-24.19231,-21.15495,-18.36953,-17.5659,-19.51935,-23.43917,-27.30733,-29.03561,-27.75544,-24.41264,-21.24786,-20.45204,-22.83282,-27.33723,-31.74075,-34.05934,-33.77548,-32.08504,-30.99578,-31.85227,-34.2232,-35.86715,-33.83109,-26.0528,-12.5532,4.420275,21.33364,34.83296,42.97602,45.69229,44.41185,41.21296,37.97793,35.89136,35.3474,36.12804,37.67822,39.36407,40.68759,41.43095,41.68499,41.71521,41.70761,41.53786,40.75615,38.85781,35.71943,31.9071,28.59062,27.02109,27.83519,30.61441,34.0211,36.48753,37.07237,35.96394,34.31026,33.48029,34.21971,36.23509,38.44394,39.70307,39.50407,38.19778,36.63213,35.51488,34.97634,34.63393,34.06979,33.30777,32.87926,33.38338,34.85781,36.46912,36.85204,34.95594,30.86556,25.99866,22.45243,21.83531,24.30186,28.42455,32.02916,33.49859,32.72457,31.09263,30.48342,31.90903,34.64708,36.4409,34.69171,27.96092,16.92197,4.227919,-6.618954,-12.77201,-13.14716,-8.643497,-1.496375,5.804904,11.47163,14.8656,16.38117,16.95609,17.49971,18.47528,19.75422,20.75764,20.81677,19.60847,17.46021,15.32795,14.3818,15.35647,18.02865,21.19205,23.25888,23.21231,21.32799,19.12199,18.40432,19.92154,22.44811,23.04411,18.5394,7.50281,-8.485753,-25.16401,-37.53048,-42.4138,-40.19893,-34.63456,-30.72392,-31.84903,-37.77592,-44.71893,-47.45407,-42.27287,-29.09059,-11.53773,4.949098,15.87779,19.73093,18.2361,14.92445,12.99286,13.75601,16.45661,19.29072,20.80213,20.7225,19.84228,19.20504,19.31631,19.93305,20.48978,20.72967,20.98714,21.88142,23.66174,25.74136,26.83821,25.70692,22.00369,16.69873,11.72298,9.026685,9.589788,12.94551,17.44156,21.02873,22.10261,19.98739,14.93849,7.835788,-0.1564596,-7.800776,-13.9015,-17.45319,-17.88191,-15.28401,-10.4809,-4.787581,0.4096895,4.028643,5.417484,4.236986,0.3195291,-6.247956,-14.77939,-23.65666,-30.4279,-32.56209,-28.63848,-19.31643,-7.391266,3.315394,9.76654,11.21991,9.488409,7.677794,8.067594,10.40679,11.74421,8.036674,-3.31212,-21.46519,-41.95279,-58.48957,-65.86347,-62.32687,-50.2173,-34.55499,-20.49796,-11.09621,-6.466576,-4.598909,-3.057395,-0.4544596,3.09429,6.565366,9.050295,10.4293,11.30336,12.37333,13.82076,15.16451,15.65525,14.8633,13.0066,10.80797,9.04499,8.165916,8.239347,9.192385,11.04367,13.85672,17.42078,20.9647,23.26329,23.22263,20.61727,16.43498,12.46719,10.29504,10.3044,11.44144,11.97407,10.81771,8.50296,6.998091,8.321935,12.75796,17.89574,19.34351,12.9437,-2.693974,-24.88011,-47.68042,-64.59109,-71.62768,-69.1083,-61.15266,-53.24568,-49.32111,-50.03315,-53.07797,-55.16226,-54.25999,-50.75558,-46.89412,-45.07045,-46.19459,-49.19226,-51.8728,-52.46286,-50.72214,-47.92822,-45.83844,-45.43711,-46.35316,-47.31092,-47.20046,-45.93847,-44.48007,-43.99322,-44.84655,-46.20375,-46.57529,-44.96129,-41.75564,-38.70319,-37.86197,-40.22211,-44.93263,-49.69812,-52.13729,-51.23752,-47.95107,-44.5494,-43.16325,-44.48402,-47.46163,-50.16053,-51.14461,-50.42255,-49.31602,-49.38271,-51.18073,-53.78399,-55.40924,-54.73144,-51.94408,-48.78357,-47.4339,-49.03395,-52.8185,-56.53191,-57.90269,-56.2182,-52.91573,-50.72733,-51.85854,-56.36099,-61.78545,-64.41779,-61.39534,-52.41483,-39.97572,-27.99313,-19.61607,-15.56525,-13.9585,-11.6701,-6.339595,2.203576,11.9135,19.82398,23.79769,23.65329,21.06158,18.40456,17.39952,18.34718,20.36494,22.29699,23.59252,24.55351,25.86066,27.81184,29.89338,31.03449,30.37867,28.0136,25.10667,23.29035,23.66222,26.04183,28.98916,30.60045,29.61049,26.134,21.60891,18.00142,16.76699,18.17496,21.33876,24.84665,27.54536,29.00471,29.45441,29.34896,28.92484,28.06024,26.48584,24.14156,21.38659,18.91078,17.41455,17.29098,18.50926,20.73248,23.52826,26.49087,29.20773,31.16837,31.79562,30.68437,27.94068,24.36375,21.25081,19.82991,20.60535,23.01102,25.64021,26.96724,26.16156,23.5022,20.13154,17.29731,15.56654,14.51763,13.11359,10.51404,6.784079,3.018452,0.7734954,1.154481,4.135849,8.545469,12.71843,15.3962,16.3058,16.08359,15.64989,15.49886,15.3968,14.67348,12.86034,10.18762,7.552958,5.962928,5.836411,6.676376,7.371709,6.948517,5.260577,3.129924,1.814571,2.148405,3.939135,6.049804,7.128517,6.502041,4.62303,2.758659,2.124707,3.059676,4.813405,6.105106,6.063793,4.885754,3.722249,3.847555,5.676657,8.34394,10.19456,9.909542,7.508951,4.499231,2.963483,4.109849,7.209399,9.681672,8.399974,1.51395,-10.2783,-23.79379,-34.77444,-39.8721,-38.12068,-31.14313,-22.0909,-14.01937,-8.624293,-5.928838,-4.866313,-4.202036,-3.165693,-1.523852,0.7043983,3.447526,6.418527,8.720148,8.669284,4.246141,-5.849314,-21.06145,-38.51626,-53.71235,-62.20306,-61.48278,-52.09225,-37.33286,-21.73495,-9.09182,-1.07538,2.937261,4.907522,6.737472,9.264982,12.13414,14.43171,15.53391,15.57279,15.26996,15.34585,15.97661,16.68572,16.71915,15.61572,13.56563,11.3281,9.786151,9.45317,10.24196,11.60709,12.91761,13.79495,14.22324,14.42294,14.63904,15.01148,15.58445,16.37784,17.40833,18.61295,19.76151,20.48191,20.45744,19.69572,18.67192,18.18489,18.94916,21.14669,24.22837,27.12926,28.80356,28.77114,27.34507,25.40825,23.88607,23.25636,23.39333,23.80559,24.06487,24.10732,24.20183,24.63887,25.40277,26.09562,26.1917,25.44125,24.11486,22.88468,22.39831,22.83508,23.76374,24.42011,24.22217,23.16441,21.80874,20.87451,20.71708,21.07687,21.29116,20.82448,19.72948,18.68393,18.54407,19.71631,21.80127,23.79889,24.76875,24.49384,23.66335,23.40652,24.46908,26.61608,28.72299,29.55564,28.72837,27.14641,26.53272,28.26238,32.24529,36.67005,38.9091,37.13404,31.64599,25.00957,20.76713,21.41067,26.81878,34.16137,39.42355,39.70192,34.91023,27.84191,22.50574,21.69141,25.20547,29.83352,31.06557,25.58753,13.12258,-3.382091,-19.23841,-30.25867,-34.50962,-32.75264,-27.59421,-22.07481,-18.57689,-18.49626,-22.47482,-30.62573,-42.34533,-55.84705,-68.0175,-75.17303,-74.71544,-66.91383,-55.63927,-47.23519,-47.70437,-59.48919,-79.59492,-100.2892,-112.2885,-108.9694,-89.47697,-59.12478,-26.87793,-1.259763,13.20121,17.25217,15.50822,13.40091,14.30122,18.33074,23.23813,26.48697,27.10173,26.15297,25.75278,27.39858,30.85869,34.34297,35.79486,34.39123,31.21666,28.64082,28.78742,32.0738,36.75137,39.74429,38.28223,31.36606,20.24429,7.698796,-3.362932,-11.18028,-15.62845,-17.81024,-19.1592,-20.6558,-22.55079,-24.58872,-26.41433,-27.82138,-28.72986,-29.03725,-28.58446,-27.33305,-25.61079,-24.16141,-23.84234,-25.0914,-27.52329,-29.99952,-31.2342,-30.60913,-28.66578,-26.87597,-26.73137,-28.6543,-31.41644,-32.50517,-29.33186,-20.65347,-7.411376,7.50943,20.49885,28.7817,31.51003,29.87248,26.26244,23.03473,21.53219,21.81705,23.09624,24.44858,25.38044,25.9323,26.38865,26.88237,27.19464,26.87591,25.57908,23.36902,20.80119,18.71742,17.865,18.53159,20.3687,22.48265,23.76608,23.35357,21.03157,17.41922,13.80191,11.62059,11.79707,14.21463,17.66228,20.36385,20.89418,19.01699,15.94392,13.78016,14.38158,18.23487,24.02697,29.22616,31.41022,29.60939,24.87622,19.71683,16.69527,17.0237,19.97476,23.45181,25.34413,24.80906,22.68265,20.78378,20.59205,22.18071,24.12072,24.4366,22.00327,17.47158,13.09245,11.49736,14.14557,20.35881,27.50609,32.21929,31.94116,25.98155,15.62204,3.385264,-7.988251,-16.3047,-20.19542,-19.07902,-13.14141,-3.49761,7.627682,17.07227,21.51037,18.67998,8.51458,-6.47451,-21.90263,-33.07495,-36.70477,-31.99737,-20.66368,-6.004647,8.367437,19.53766,25.71152,26.15299,20.98305,11.10586,-1.758095,-15.18766,-26.55969,-33.88125,-36.5736,-35.71824,-33.51952,-32.18821,-32.84432,-35.05838,-37.28958,-37.93661,-36.34914,-33.1852,-29.93655,-27.97025,-27.72617,-28.57433,-29.37626,-29.32533,-28.48273,-27.65733,-27.74843,-29.03403,-30.91434,-32.29061,-32.31375,-30.98163,-29.1699,-28.07079,-28.41644,-30.00247,-31.82073,-32.69962,-32.02221,-30.06289,-27.75682,-26.09657,-25.57856,-26.04863,-26.99398,-28.01976,-29.14079,-30.68899,-32.93469,-35.73929,-38.52824,-40.62717,-41.73384,-42.16034,-42.65902,-43.90686,-45.99857,-48.29399,-49.75309,-49.5514,-47.5946,-44.5969,-41.6801,-39.75099,-39.05023,-39.1367,-39.28262,-38.99183,-38.30118,-37.68692,-37.68398,-38.49667,-39.87112,-41.29504,-42.35925,-43.01344,-43.54176,-44.29445,-45.38818,-46.60085,-47.53778,-47.93547,-47.86341,-47.65319,-47.59028,-47.59076,-47.13214,-45.5465,-42.53542,-38.57325,-34.89485,-32.98321,-33.78445,-37.08226,-41.41917,-44.68035,-45.09761,-42.17677,-37.06863,-32.16301,-30.07169,-32.46361,-39.28783,-48.724,-57.85735,-63.75305,-64.46355,-59.57402,-50.1392,-38.14277,-25.76778,-14.78415,-6.22919,-0.3835598,3.068982,4.82897,5.786387,6.838764,8.694866,11.67238,15.56335,19.66705,23.03648,24.87317,24.89618,23.49127,21.54033,20.00061,19.45134,19.85332,20.65157,21.15133,20.93612,20.07719,19.01496,18.20752,17.79158,17.49016,16.84252,15.60294,14.0346,12.86988,12.92207,14.56086,17.37647,20.26319,21.91193,21.45595,18.91595,15.20025,11.66739,9.496356,9.200094,10.51139,12.64714,14.7532,16.26716,17.02948,17.1516,16.78873,15.99696,14.75545,13.11116,11.3117,9.80657,9.086512,9.436986,10.7384,12.42911,13.67048,13.66371,12.00112,8.912461,5.291423,2.455004,1.685969,3.710649,8.328265,14.38542,20.16273,24.04636,25.19456,23.87111,21.26385,18.86666,17.74965,18.11233,19.35508,20.59296,21.2624,21.4084,21.45005,21.5806,21.24061,19.10204,13.70949,4.482035,-7.509173,-19.52879,-28.07694,-30.33103,-25.4158,-14.84334,-1.885112,9.808426,17.64851,20.93388,20.75045,19.12832,17.97814,18.33867,20.20915,22.87889,25.45195,27.25935,28.02537,27.83684,27.04231,26.15222,25.72559,26.19201,27.62931,29.61879,31.3245,31.84861,30.72035,28.2478,25.48089,23.74384,23.95884,26.14037,29.36345,32.24986,33.70059,33.4605,32.19785,31.07183,31.05369,32.40306,34.57492,36.57082,37.49522,36.99004,35.34051,33.25257,31.4771,30.50249,30.43029,31.03038,31.88508,32.53897,32.62743,31.98434,30.72172,29.226,28.02425,27.53688,27.83537,28.56208,29.11444,29.02078,28.28993,27.48988,27.45418,28.76199,31.31117,34.28278,36.56552,37.40117,36.84816,35.7468,35.17711,35.74165,37.13785,38.31494,38.13927,36.15231,32.92621,29.77209,27.97238,28.01799,29.33809,30.69062,30.96387,29.86752,28.0784,26.75896,26.77569,28.12975,29.95985,31.10136,30.82207,29.26459,27.32704,26.08773,26.16283,27.39895,29.05953,30.33623,30.82796,30.69335,30.43156,30.50033,31.05939,31.99635,33.15725,34.55154,36.33079,38.54248,40.85967,42.54769,42.78268,41.1763,38.18017,35.05118,33.30272,33.86758,36.41879,39.24551,39.83263,35.9262,26.61656,12.9335,-2.356363,-15.70615,-24.13258,-26.39176,-23.47698,-18.18445,-13.87425,-12.92324,-15.55329,-19.61991,-21.55026,-18.07696,-7.974601,7.084704,23.06968,35.35253,40.85946,39.50207,34.10856,28.85348,27.01959,29.32087,33.72873,36.90015,36.36751,32.18619,27.0322,24.63778,27.44598,34.8604,43.15672,47.1861,42.97296,29.7979,10.64957,-9.169493,-24.49248,-32.49099,-33.55333,-30.55585,-27.09972,-25.75239,-27.1592,-30.28702,-33.41526,-35.17822,-35.09993,-33.49872,-31.03201,-28.28339,-25.63501,-23.38065,-21.85793,-21.41112,-22.19216,-23.97695,-26.19375,-28.19175,-29.58584,-30.43291,-31.0923,-31.86458,-32.66932,-33.02387,-32.37504,-30.5914,-28.25998,-26.5418,-26.59875,-28.89954,-32.82392,-36.84186,-39.2274,-38.94656,-36.23918,-32.56978,-29.94086,-29.91336,-32.82547,-37.60258,-42.25375,-44.80677,-44.22196,-40.84383,-36.18724,-32.17871,-30.23934,-30.66108,-32.58085,-34.53963,-35.31854,-34.59891,-33.09513,-32.09071,-32.65473,-34.98515,-38.26783,-41.12926,-42.41859,-41.85199,-40.13279,-38.49015,-37.92603,-38.65324,-40.0664,-41.24717,-41.64538,-41.47127,-41.52199,-42.56752,-44.7257,-47.28617,-49.14008,-49.54937,-48.73083,-47.82027,-48.18891,-50.52704,-54.30227,-57.9791,-59.90132,-59.28875,-56.70667,-53.70399,-51.8499,-51.80143,-53.00741,-54.22292,-54.45093,-53.64103,-52.64719,-52.47633,-53.38175,-54.49563,-54.34414,-51.96288,-47.85117,-44.04354,-43.09945,-46.53997,-53.68246,-61.654,-66.67167,-65.90773,-58.881,-47.57317,-35.25443,-24.7331,-17.07538,-11.48361,-6.280244,-0.2756208,6.380819,12.36142,16.13771,17.06009,15.80708,13.93726,12.89079,13.13826,14.03609,14.44361,13.63554,11.86558,10.20253,9.776914,10.98069,13.1808,15.14159,15.85602,15.21048,14.028,13.46702,14.19827,15.92719,17.59384,18.11603,17.17095,15.47924,14.38211,14.97189,17.33447,20.39831,22.5051,22.36348,19.81407,15.95206,12.54463,11.09362,12.0795,14.78597,17.75594,19.57535,19.54364,17.9009,15.56226,13.57464,12.61268,12.75093,13.56162,14.41514,14.79688,14.49964,13.64652,12.58748,11.74045,11.43919,11.82274,12.78857,14.02172,15.10235,15.66429,15.54529,14.85948,13.94717,13.21662,12.94944,13.1665,13.6221,13.9319,13.76733,13.02154,11.86252,10.65096,9.762445,9.402953,9.504943,9.757823,9.76126,9.231812,8.161123,6.841125,5.731537,5.226882,5.439822,6.122781,6.784487,6.952447,6.443089,5.484369,4.611063,4.380361,5.06856,6.524621,8.269342,9.778556,10.77629,11.35602,11.8612,12.61104,13.65869,14.74696,15.48933,15.65161,15.33462,14.9239,14.83229,15.20588,15.79972,16.1201,15.75104,14.65547,13.24665,12.17249,11.9394,12.61082,13.7696,14.77078,15.13194,14.82773,14.31617,14.28229,15.23467,17.15373,19.34268,20.53126,19.19223,13.99344,4.296092,-9.408526,-25.2764,-40.2799,-50.87741,-54.10753,-48.77708,-36.23915,-20.31062,-6.181708,1.363616,-0.2762145,-10.51677,-25.82018,-41.07803,-51.53513,-54.42086,-49.63939,-39.34714,-26.76762,-14.86743,-5.474644,0.9106809,4.73737,6.805968,7.801431,8.123173,7.970296,7.520635,7.051188,6.93339,7.52573,9.024793,11.33646,14.01823,16.34165,17.50102,16.94141,14.68662,11.48325,8.606065,7.326084,8.25272,10.90275,13.79741,15.13097,13.72002,9.728864,4.734452,1.032185,0.5143419,3.715825,9.549847,15.87489,20.56971,22.5173,21.98161,20.23529,18.72883,18.32092,18.98269,20.05472,20.79265,20.81322,20.19409,19.2633,18.31761,17.50565,16.91925,16.73794,17.21999,18.4874,20.27163,21.88597,22.56093,21.98859,20.68627,19.83062,20.52859,22.92599,25.76641,26.82767,24.12449,17.21265,7.734419,-1.289157,-7.167504,-9.304491,-9.899717,-12.9886,-22.17884,-38.27729,-58.18987,-75.85813,-84.87978,-81.4957,-66.37841,-44.2727,-21.7131,-4.057207,6.609553,11.70466,14.59852,18.33153,23.94369,30.27297,35.13441,36.9876,35.99739,33.87153,32.67482,33.46082,35.6268,37.38871,37.04251,34.17236,30.02627,26.80742,26.3321,28.88292,32.96809,36.13053,36.31903,32.99896,27.36963,21.59515,17.54974,15.83848,15.65629,15.51544,14.34971,12.29249,10.64919,11.08813,14.5481,20.52807,27.19439,32.25648,34.12802,32.72689,29.48862,26.59129,25.80371,27.53866,30.55167,32.39522,30.3911,22.7011,9.097462,-8.807444,-27.905,-44.38896,-54.7937,-56.99493,-50.87336,-38.37685,-22.87581,-7.9657,3.83563,11.92096,17.51417,22.65209,28.70924,35.25472,39.9387,39.5794,31.95621,17.34036,-1.135614,-18.58677,-30.46754,-34.5747,-31.90304,-25.90444,-20.58125,-18.47038,-19.60298,-21.92863,-22.84558,-20.86948,-16.46891,-11.65467,-8.67867,-8.702271,-11.23635,-14.6172,-17.1224,-17.97425,-17.6181,-17.18728,-17.59176,-18.87323,-20.23182,-20.64815,-19.62942,-17.56051,-15.44806,-14.27154,-14.40475,-15.48517,-16.76773,-17.66209,-18.05519,-18.21572,-18.41059,-18.57724,-18.33728,-17.35245,-15.73763,-14.17013,-13.54556,-14.3759,-16.34744,-18.38972,-19.27237,-18.37392,-16.12097,-13.7847,-12.73656,-13.61934,-15.95616,-18.43706,-19.69206,-19.05949,-16.88973,-14.2442,-12.24245,-11.501,-11.98725,-13.28734,-14.99991,-16.92652,-18.94073,-20.71501,-21.6207,-20.98831,-18.59971,-15.05233,-11.64651,-9.760237,-10.05263,-12.01544,-14.21979,-15.15934,-14.1803,-11.89372,-9.777149,-9.202402,-10.52054,-12.81894,-14.53054,-14.50663,-12.83479,-10.83591,-10.20841,-11.86867,-15.26047,-18.62287,-20.08218,-18.87908,-15.92518,-13.29585,-12.94742,-15.46385,-19.64968,-23.26748,-24.50247,-23.25518,-21.43368,-21.99387,-27.21842,-37.18582,-49.3015,-59.18795,-62.51703,-56.89038,-42.88973,-23.86686,-4.661429,10.12701,17.5835,17.15265,10.45349,0.4773651,-9.443142,-16.54388,-19.21116,-17.17272,-11.33515,-3.3619,4.879925,11.85394,16.72372,19.45929,20.67068,21.25242,21.98433,23.23619,24.8709,26.3582,27.04196,26.45211,24.5468,21.78875,19.01564,17.14119,16.8027,18.10627,20.59365,23.45337,25.87518,27.36719,27.87947,27.69286,27.17546,26.5809,26.01702,25.56805,25.43087,25.89888,27.15292,28.99031,30.72684,31.43217,30.43704,27.82459,24.56157,22.0997,21.61338,23.30828,26.24502,28.84304,29.79992,28.88022,27.07074,25.97984,26.83245,29.68524,33.3597,36.14155,36.80701,35.32933,32.82742,30.81411,30.24854,31.00573,32.08123,32.34829,31.3252,29.43601,27.61606,26.58982,26.36084,26.28837,25.68079,24.44683,23.29136,23.26302,24.95089,27.91025,30.77036,32.02304,30.99385,28.34094,25.71037,24.74024,26.05117,28.88725,31.64158,32.91277,32.38306,30.93733,29.97106,30.39447,32.03844,33.87488,34.86592,34.79462,34.4171,34.75682,35.99819,36.78809,34.55938,26.83969,12.83927,-5.640241,-24.5879,-39.31599,-46.33996,-44.62177,-35.61563,-22.26871,-7.693046,5.721666,16.41407,23.23585,25.10715,21.20165,11.62116,-1.947349,-16.21487,-27.17767,-31.59245,-28.29982,-18.67853,-5.977137,6.120951,14.95623,19.6875,21.15895,21.08943,21.11688,22.17508,24.37469,27.25312,30.12932,32.38019,33.61057,33.7753,33.25273,32.7819,33.15817,34.72602,36.91137,38.1307,36.29404,29.76795,18.34245,3.643683,-11.33069,-23.39252,-30.48662,-32.47048,-30.95944,-28.36291,-26.67477,-26.67441,-27.90776,-29.33583,-30.17791,-30.42164,-30.74907,-32.00502,-34.60292,-38.23771,-42.05175,-45.10266,-46.83744,-47.31581,-47.10771,-46.96791,-47.47036,-48.76291,-50.51208,-52.04401,-52.63275,-51.84481,-49.81054,-47.26207,-45.25362,-44.62867,-45.4936,-47.03209,-47.86972,-46.87977,-43.98458,-40.41636,-38.13186,-38.60571,-41.66938,-45.17599,-45.85548,-41.01886,-30.18486,-15.64097,-1.509485,8.24042,11.73169,9.962265,5.99436,3.073107,2.831627,4.652213,6.490621,6.528534,4.50999,1.872366,0.6252507,1.792494,4.530939,6.574674,5.737832,1.467198,-4.624129,-9.643206,-11.17189,-8.75053,-4.123093,-0.09655741,1.218462,-0.3734244,-3.244513,-5.219833,-5.118675,-3.496066,-2.103512,-2.494596,-4.794167,-7.524599,-8.630155,-6.986677,-3.325253,0.1082819,0.9693441,-1.634404,-6.505496,-11.0761,-13.01693,-11.67877,-8.430239,-5.705207,-5.423524,-7.834943,-11.50509,-14.37067,-15.08895,-13.76882,-11.66365,-10.15309,-9.80324,-10.16805,-10.38977,-10.04798,-9.53898,-9.666282,-10.77474,-12.16483,-12.35712,-10.1347,-5.646429,-0.6990161,2.135881,1.137716,-3.273124,-8.518641,-11.28672,-9.604704,-4.282322,1.228214,2.545066,-3.339138,-16.49986,-34.11905,-51.97577,-66.40682,-75.60461,-79.70075,-79.93567,-77.74727,-74.43642,-71.42371,-70.49677,-73.3978,-80.69074,-90.61819,-98.99006,-100.6758,-92.1989,-74.00133,-50.83923,-29.72433,-16.32858,-11.86552,-12.39102,-11.14529,-2.73355,13.27162,31.52138,43.53074,42.39457,26.93098,2.855911,-19.75618,-31.39082,-27.75575,-11.75102,8.152495,22.1061,23.38644,11.02522,-10.42148,-33.41677,-50.75234,-58.04487,-54.59198,-42.72572,-26.38349,-9.657051,4.274071,13.75953,18.89457,21.30451,23.42117,27.33422,33.61911,40.74585,45.535,44.61273,36.20152,21.30345,3.565264,-12.16775,-21.86978,-23.87184,-19.16734,-10.46655,-0.6730348,8.313226,15.90097,22.29304,27.72493,32.07269,35.04942,36.71136,37.74591,39.20581,41.82266,45.39323,48.74126,50.36651,49.39075,46.17812,42.19167,39.16439,38.11465,38.84667,40.22853,41.02722,40.70894,39.68312,38.88088,39.02255,40.11879,41.5407,42.54979,42.84277,42.68805,42.56043,42.60068,42.36393,41.10931,38.43639,34.78533,31.36077,29.4701,29.70828,31.58606,33.89795,35.57557,36.37441,36.80973,37.30102,37.13246,34.10254,25.38731,9.319962,-12.94417,-37.03698,-56.777,-66.80528,-65.08088,-53.8238,-38.33206,-24.32539,-15.29752,-11.33287,-9.910173,-8.026018,-4.227852,0.6791101,4.549891,5.673143,4.123327,1.774673,1.011507,3.061347,7.112032,10.82051,11.86593,9.499853,5.060581,1.123513,-0.134165,1.725356,5.207994,7.920784,8.110785,5.701388,2.202397,-0.3567879,-0.7024977,1.040502,3.68313,5.940096,7.293028,8.156116,9.309568,11.10824,13.11541,14.45415,14.59597,13.9343,13.61832,14.65758,16.8856,18.55929,17.01833,10.14162,-2.221496,-17.72781,-32.30643,-41.85023,-43.93741,-38.7025,-28.49518,-16.64064,-6.044248,1.680355,6.306315,8.538264,9.446555,10.10006,11.40443,13.95026,17.73859,21.89582,24.68357,24.03708,18.52922,8.28564,-4.734219,-17.38921,-26.69061,-31.10864,-31.10155,-28.54796,-25.43515,-22.62006,-19.43879,-14.39785,-6.481572,3.797201,14.32298,22.37763,26.12351,25.65984,22.99876,20.97185,21.71297,25.59902,31.21427,36.26948,38.8689,38.38448,35.52185,31.69255,28.19349,25.70686,24.32279,23.90033,24.39376,25.88179,28.33152,31.36157,34.26829,36.35363,37.33104,37.494,37.48701,37.8221,38.48034,38.9079,38.4316,36.81585,34.54684,32.60327,31.83123,32.33062,33.29376,33.45551,31.90622,28.76247,25.24788,23.09603,23.6041,26.88566,31.74723,36.24246,38.5675,37.81139,34.20913,28.87254,23.25237,18.65263,15.97941,15.68419,17.75461,21.66519,26.35585,30.40454,32.47477,31.90389,29.10645,25.47774,22.73932,22.02639,23.24216,25.10527,25.92776,24.69286,21.77452,18.811,17.74675,19.58872,23.64435,27.76105,29.4969,27.57025,22.72557,17.45186,14.64986,15.96065,20.69773,26.00471,28.18937,24.53974,14.66393,0.6760881,-13.82671,-25.41749,-32.2567,-34.59865,-34.24368,-33.34682,-33.28876,-34.18137,-35.18368,-35.32244,-34.27644,-32.65591,-31.64724,-32.27012,-34.71795,-38.17991,-41.25699,-42.7322,-42.25134,-40.52076,-38.89723,-38.60256,-40.00181,-42.36989,-44.29165,-44.4791,-42.54387,-39.26571,-36.18734,-34.75322,-35.48584,-37.69295,-39.88924,-40.69571,-39.67403,-37.58434,-35.88561,-35.77615,-37.36791,-39.53456,-40.57067,-39.28378,-35.84228,-31.81322,-29.30858,-29.71907,-32.8117,-36.78466,-39.30569,-38.93748,-36.07049,-32.7321,-31.3097,-32.90362,-36.33141,-38.47248,-35.896,-26.92749,-12.98224,1.678793,11.77525,13.54485,6.684794,-5.339453,-16.82653,-22.46917,-19.77506,-10.08793,2.255655,12.15811,16.2328,14.29789,9.207982,5.190573,5.574409,11.04991,19.28644,26.03791,27.14738,20.46765,6.803067,-10.50805,-27.09216,-39.35545,-45.76055,-47.04224,-45.39069,-43.14426,-41.70983,-41.22677,-41.02158,-40.45149,-39.5389,-38.99116,-39.62836,-41.65055,-44.30148,-46.22624,-46.34895,-44.69945,-42.57268,-41.78975,-43.40285,-46.62992,-48.766,-46.31251,-36.83582,-20.55275,-0.6983564,17.66067,29.83527,33.61681,30.164,23.21233,17.07126,14.51464,15.69378,18.56967,20.48014,19.83636,16.95189,13.59645,11.6701,11.90578,13.42782,14.40631,13.33393,10.0704,5.975658,3.058904,2.703169,4.785396,7.743803,9.534108,8.857622,5.89261,2.096165,-0.7577217,-1.670483,-0.9518239,0.1107562,0.1901859,-1.166446,-3.239979,-4.633158,-4.218394,-1.920015,1.171047,3.416642,3.591306,1.58681,-1.557805,-4.292525,-5.446948,-4.832235,-3.221921,-1.775569,-1.305668,-1.848222,-2.771952,-3.302299,-3.081918,-2.39318,-1.913959,-2.194228,-3.223669,-4.390393,-4.863892,-4.150596,-2.448628,-0.5554984,0.6269225,0.6775416,-0.05499179,-0.6677598,-0.3122968,1.179731,3.067966,4.059735,3.079333,-0.00047668,-4.129697,-7.546716,-8.717076,-7.217255,-4.030265,-1.037711,0.03736516,-1.361947,-4.267527,-6.715911,-6.881008,-4.14944,0.5101236,5.123499,7.895756,8.278952,7.243393,6.555518,7.496642,9.847322,11.8413,11.21273,6.746882,-0.6432319,-8.087523,-12.23447,-11.26805,-6.286985,-1.136783,-0.6288847,-8.019975,-23.10404,-41.99101,-58.74392,-68.03333,-67.43258,-58.20438,-44.29209,-30.20608,-19.00978,-11.43198,-6.36817,-2.22021,1.881085,5.698487,8.437326,9.67389,9.91713,10.38138,12.14228,15.30205,18.79148,20.99567,20.81981,18.49117,15.55025,14.00167,15.14445,18.8088,23.47131,27.16454,28.60887,27.87808,26.22426,25.22099,25.79391,27.73303,29.94794,31.24179,31.08457,29.90443,28.75377,28.61267,29.78551,31.75562,33.54456,34.31478,33.83239,32.53456,31.20667,30.50218,30.59794,31.16418,31.62903,31.562,30.96569,30.33157,30.44426,32.02198,35.34528,40.0334,45.08321,49.20277,51.33813,51.17951,49.38136,47.32875,46.48708,47.63337,50.376,53.27748,54.57313,53.13001,49.10738,43.91527,39.47166,37.17625,37.21297,38.59598,39.90956,40.25331,39.77015,39.41729,40.15524,42.13148,44.45023,45.72283,45.0382,42.67809,40.04003,38.76283,39.62174,41.9493,44.02995,44.25238,42.26299,39.30937,37.47397,38.2539,41.43069,45.04551,46.59716,44.75639,40.46701,36.63111,36.43185,41.24151,49.39991,56.6734,58.24251,51.14011,35.78518,15.79276,-3.779341,-18.72637,-27.29745,-30.37239,-30.35686,-29.61998,-29.40832,-29.71351,-29.90147,-29.49106,-28.51865,-27.34175,-26.18647,-24.88613,-23.0472,-20.49563,-17.6131,-15.25079,-14.23751,-14.81909,-16.43713,-18.01953,-18.59708,-17.83582,-16.15191,-14.37816,-13.25217,-13.08263,-13.76699,-15.0469,-16.72872,-18.67811,-20.64481,-22.15831,-22.69552,-22.06541,-20.70662,-19.57251,-19.56145,-20.83306,-22.53667,-23.26694,-22.03988,-19.13697,-16.14217,-15.0038,-16.68554,-20.38573,-24.04303,-25.97848,-26.60993,-28.89338,-36.82059,-52.60223,-74.26597,-95.47031,-108.1657,-106.9358,-92.54736,-72.37672,-57.03383,-54.79623,-66.97603,-87.02256,-104.1159,-109.3506,-100.9539,-85.43975,-73.92084,-75.66917,-92.65724,-118.2619,-140.8188,-149.8891,-141.5543,-119.7852,-93.36507,-70.56118,-54.87891,-44.39035,-34.70192,-23.33338,-12.48286,-8.316384,-17.22461,-41.43806,-76.76998,-113.9021,-142.457,-155.5011,-152.0262,-136.3398,-115.1186,-94.10435,-76.22984,-61.80176,-49.99207,-40.26587,-32.78467,-27.81199,-24.93594,-22.95734,-20.61854,-17.56359,-14.66129,-13.30138,-14.12564,-16.1938,-17.36016,-15.75867,-11.38981,-6.568603,-4.675657,-7.83425,-15.00638,-21.90599,-23.04611,-14.84295,2.087412,22.92156,41.02625,51.39372,53.09479,49.32722,45.13403,44.27417,47.18727,51.21763,52.77916,49.9503,43.78606,37.57342,34.61324,36.04839,40.1368,43.36578,42.58907,36.76499,27.2367,16.52567,6.591261,-2.223746,-10.90093,-20.43353,-30.51503,-39.21033,-43.87015,-42.67042,-35.73436,-25.10001,-13.57716,-3.280538,5.219862,12.65248,19.99428,27.42539,34.03325,38.43358,39.81426,38.62981,36.4401,35.00858,35.28455,36.95423,38.8298,39.76263,39.42577,38.44865,37.86231,38.30305,39.56291,40.7888,41.15724,40.50486,39.45676,38.96767,39.62284,41.20947,42.86076,43.65223,43.21443,41.93149,40.60725,39.87916,39.81567,39.98275,39.89037,39.43797,38.9954,39.04559,39.67883,40.37141,40.27872,38.87651,36.47637,34.18477,33.24146,34.15162,36.22076,37.88577,37.70524,35.38053,32.09528,29.85642,30.17004,32.8602,35.81565,35.91578,30.67161,19.66123,4.940304,-9.809031,-20.91658,-26.27656,-26.05298,-22.30592,-17.88076,-15.20634,-15.54094,-18.83795,-24.06516,-29.69057,-34.15514,-36.30384,-35.78544,-33.31839,-30.58771,-29.61051,-31.68257,-36.38994,-41.31397,-42.81507,-37.69336,-24.93855,-6.58426,12.92262,28.62867,37.29785,38.76202,35.67904,31.87617,30.26344,31.50075,34.11042,35.82087,35.20961,32.60493,29.74303,28.51116,29.66274,32.35657,34.77831,35.37258,33.84137,31.26373,29.30493,29.09722,30.5486,32.5165,33.6704,33.41951,32.27493,31.43255,31.91068,33.84846,36.43552,38.47496,39.15678,38.50379,37.22633,36.15018,35.66465,35.58696,35.48528,35.16075,34.8811,35.17459,36.35405,38.16904,39.89886,40.85528,40.92513,40.71878,41.15526,42.73699,45.04087,46.83903,46.84264,44.60314,40.94737,37.59837,36.18143,37.23961,39.92283,42.56538,43.7916,43.40836,42.48874,42.58502,44.6039,48.11739,51.58117,53.32592,52.65182,50.28263,47.8684,46.87944,47.63568,49.13199,49.7599,48.42493,45.28465,41.6121,38.89921,37.83331,37.86643,37.66907,36.13425,33.22003,30.02209,28.02897,28.07322,29.72414,31.55097,32.08407,30.80923,28.50764,26.70607,26.62098,28.32525,30.70297,32.20693,31.88295,29.95352,27.58636,26.05249,25.89832,26.71148,27.60516,28.00379,28.10515,28.65102,30.18994,32.43445,34.26936,34.49453,32.78508,30.12795,28.30532,28.6822,31.12369,33.87603,34.63561,32.18243,27.46382,23.26376,22.48471,26.04291,31.75879,35.1157,31.62225,19.45414,0.7899803,-19.04344,-34.18842,-41.15356,-40.33471,-35.34987,-30.69658,-29.20569,-30.80066,-33.16684,-33.71826,-31.49353,-27.76381,-25.0649,-25.40744,-28.90825,-33.72773,-37.28272,-37.86651,-35.59626,-32.12704,-29.42957,-28.52285,-29.00781,-29.6329,-29.38478,-28.27547,-27.26661,-27.43768,-29.05159,-31.23568,-32.52982,-31.91308,-29.56718,-26.81596,-25.26599,-25.74245,-27.75494,-29.86028,-30.6579,-29.7222,-27.83281,-26.36386,-26.28796,-27.50466,-28.96175,-29.46474,-28.58616,-27.01766,-26.1123,-26.93618,-29.49594,-32.68608,-34.99498,-35.488,-34.40127,-32.95694,-32.55041,-33.87196,-36.55067,-39.51559,-41.77654,-43.05791,-43.85446,-44.91925,-46.58976,-48.45798,-49.61424,-49.2742,-47.32362,-44.39638,-41.45393,-39.18985,-37.70269,-36.64844,-35.71549,-35.02227,-35.10032,-36.46015,-39.06776,-42.161,-44.58847,-45.47466,-44.75451,-43.18758,-41.82724,-41.31202,-41.47235,-41.53823,-40.78693,-39.15861,-37.37251,-36.44524,-36.945,-38.52628,-40.10399,-40.57199,-39.57313,-37.77053,-36.4111,-36.47161,-37.97527,-39.96874,-41.18012,-40.90707,-39.51451,-38.18421,-38.08467,-39.53797,-41.75917,-43.35335,-43.22322,-41.27087,-38.42513,-36.0026,-34.8701,-34.98254,-35.5767,-35.81932,-35.39841,-34.62262,-34.00399,-33.70259,-33.31927,-32.22894,-30.19533,-27.73865,-25.88207,-25.38932,-26.05844,-26.69098,-25.92087,-23.4293,-20.68518,-20.54296,-25.75097,-37.20212,-53.04378,-69.30983,-81.78857,-88.02186,-88.21875,-84.54626,-79.37495,-73.73956,-67.17318,-59.0521,-50.46353,-45.07026,-47.97299,-62.90124,-89.3149,-121.3405,-149.5505,-164.9388,-163.0324,-145.8663,-120.6691,-96.02031,-77.65632,-66.29266,-58.5583,-50.25889,-39.80904,-29.6589,-24.8506,-29.6503,-44.3932,-64.52277,-82.46227,-91.23855,-87.78674,-74.11317,-55.80323,-38.88698,-26.91061,-19.7606,-14.64655,-8.380146,0.5273712,11.12581,20.87642,27.37272,29.80687,29.35829,28.41525,29.2097,32.68821,38.18403,43.94524,48.12456,49.69928,48.90836,47.0962,46.07866,47.29707,51.06512,56.18397,60.14118,59.93198,53.29338,39.87653,21.77965,3.055353,-11.74818,-19.42512,-19.46374,-14.20703,-7.689837,-3.710758,-4.11647,-8.166055,-13.25134,-16.50921,-16.3968,-13.37874,-9.42756,-6.731752,-6.426137,-8.074561,-10.13331,-11.02441,-10.12076,-8.058662,-6.244962,-5.922525,-7.388659,-9.823063,-11.78538,-12.04667,-10.26057,-7.116188,-3.939612,-2.010926,-1.97783,-3.640754,-6.155074,-8.485969,-9.867972,-10.07011,-9.395101,-8.462874,-7.89502,-8.031495,-8.781328,-9.661741,-10.01739,-9.337532,-7.535401,-5.044896,-2.659073,-1.162001,-0.9287618,-1.711856,-2.753015,-3.186588,-2.527301,-0.9683194,0.6938491,1.48574,0.8072662,-1.203304,-3.702871,-5.565839,-5.962992,-4.772811,-2.596375,-0.3735785,1.172465,1.941034,2.474984,3.58779,5.81313,8.998123,12.27837,14.46065,14.60782,12.51126,8.798703,4.629427,1.152552,-0.9760507,-1.772716,-1.739982,-1.4639,-1.252787,-1.023002,-0.4653392,0.6587719,2.313907,4.221939,6.087428,7.82379,9.576038,11.48514,13.35698,14.52339,14.10855,11.65277,7.759755,4.311677,3.968447,9.06011,20.38234,36.55259,54.35633,69.99841,80.66734,85.61992,86.2289,85.01579,84.23112,84.79501,86.14551,86.9826,86.37648,84.506,82.57983,82.03586,83.57798,86.69112,89.95089,91.91308,91.98903,90.74403,89.44083,89.1538,90.0606,91.3719,91.94212,91.12474,89.28791,87.63261,87.4239,89.1431,92.12432,94.91537,96.14129,95.32071,93.11655,90.88524,89.83006,90.29418,91.63602,92.72038,92.68843,91.50868,89.9858,89.25821,90.12913,92.65026,96.15939,99.69976,102.5043,104.2669,105.0873,105.2171,104.8296,103.9726,102.6891,101.17,99.79034,98.98933,99.08356,100.1384,101.9746,104.2643,106.6281,108.665,109.9497,110.0855,108.8647,106.4777,103.6093,101.2799,100.4363,101.4798,104.0166,107.0268,109.3869,110.4682,110.4294,110.0272,110.0456,110.7188,111.5411,111.6038,110.2515,107.6234,104.6753,102.6165,102.0729,102.4935,102.2119,99.183,92.03231,80.83509,67.2075,53.66129,42.56897,35.27768,31.7712,30.97267,31.43923,32.0538,32.39313,32.6779,33.4281,35.05918,37.61248,40.71257,43.72634,46.03091,47.28691,47.6074,47.54089,47.84311,49.10136,51.37643,54.06836,56.12768,56.56408,54.99707,51.93276,48.56286,46.15995,45.40103,46.0272,47.06124,47.45745,46.77439,45.43204,44.37526,44.37579,45.45487,46.84597,47.55169,47.11778,46.07041,45.65293,46.98753,50.21012,54.2033,57.18426,57.82685,56.18283,53.7509,52.56894,53.87746,57.23704,60.73692,62.22161,60.74099,57.2107,53.71717,51.81792,50.91833,47.92268,38.63474,20.29547,-6.180941,-35.69918,-60.7232,-74.50076,-74.09128,-61.56926,-42.74855,-24.17076,-10.03305,-0.7192484,6.375258,14.36941,24.31834,34.05425,39.07202,34.88097,19.45199,-5.588078,-35.57946,-64.82607,-88.8568,-105.8681,-116.8163,-124.4258,-131.7694,-141.1531,-153.6226,-169.0366,-186.433,-204.4586,-221.7738,-237.4562,-251.3252,-264.0589,-276.9091,-291.0477,-306.8103,-323.2589,-338.4166,-350.1309,-357.1199,-359.6562,-359.4186,-358.6499,-359.0429,-361.0684,-364.0401,-366.8347,-368.7287,-369.8115,-370.7426,-372.0882,-373.7349,-374.7426,-373.6687,-369.0102,-359.3943,-343.4172,-319.4557,-285.9333,-242.244,-189.9542,-133.5297,-79.75164,-35.7206,-6.208536,8.30318,11.72277,10.36372,9.852196,12.61104,17.33336,20.69951,20.21583,16.32521,12.35926,12.26459,17.51755,25.30258,29.38153,23.46511,5.262321,-21.22913,-46.79806,-61.18983,-58.29156,-39.54147,-13.65651,7.286632,13.43229,1.567338,-23.74385,-52.65804,-74.68798,-83.07277,-76.89246,-60.32366,-39.89924,-21.42742,-8.030204,0.1267796,4.794507,8.169455,11.77719,16.0403,20.42936,23.9184,25.52198,24.79186,22.16014,18.95494,16.943,17.47884,20.65846,25.04759,28.33994,28.73611,26.24806,22.981,21.93814,24.85513,30.37457,33.93268,29.85325,14.75209,-9.685315,-36.43444,-55.97636,-61.02848,-50.63567,-31.20815,-13.66746,-8.045275,-18.39389,-40.77739,-65.41914,-81.76633,-83.64587,-71.75669,-52.3812,-33.39001,-20.04171,-12.93754,-8.972119,-4.256951,3.067859,11.87514,19.29184,23.01557,22.99707,21.38549,20.92789,23.07141,27.13138,31.0418,33.04276,33.02435,32.54307,33.54424,36.77137,41.06926,44.12314,44.11346,41.07796,36.96843,34.32084,34.47855,36.65171,38.52702,38.01928,34.91117,31.14757,29.49101,31.42863,35.83731,39.46771,39.06853,33.77612,26.07958,20.52085,20.78079,26.95769,34.86787,38.01604,31.21631,13.75894,-9.777814,-31.5957,-44.45232,-45.00727,-34.94385,-19.46171,-4.255928,7.149866,14.31852,18.89605,22.71646,26.41334,29.35909,30.69356,30.45685,29.86614,30.52036,33.16735,37.01499,40.1658,40.91283,38.98343,35.82849,33.71283,34.22296,37.21185,40.91682,43.15627,42.77737,40.35551,37.6905,36.48468,37.15488,38.61388,39.14926,37.75227,34.91973,32.35227,31.74989,33.5705,36.644,38.93465,38.92447,36.64404,33.61941,31.76329,31.9937,33.5615,34.5783,33.38132,29.76439,25.18869,21.79105,20.87951,21.99513,23.25061,22.7559,20.13102,16.96804,15.77406,17.98346,22.36603,25.03383,21.30174,8.459555,-12.17408,-35.23138,-53.49268,-61.19173,-56.65736,-42.89767,-25.89799,-11.65556,-3.588248,-1.590435,-2.978938,-4.50703,-4.16595,-1.833122,1.334697,4.099273,6.034817,7.593736,9.47327,11.87891,14.27159,15.76278,15.8223,14.74208,13.5007,13.12076,13.97841,15.55531,16.80235,16.85624,15.61125,13.767,12.33977,11.99805,12.67708,13.71066,14.3437,14.22872,13.55157,12.73095,11.97195,11.07736,9.724466,8.042871,7.040093,8.449076,13.92695,23.99613,37.37987,51.23429,62.28515,68.31998,69.22418,66.96502,64.49529,64.19107,66.67056,70.66032,73.92674,74.69847,72.7396,69.46346,67.07092,67.26861,70.34025,75.08712,79.60284,82.35719,82.91595,81.91342,80.39375,79.03765,77.80554,76.21555,73.99711,71.59713,70.10927,70.612,73.34796,77.32034,80.66369,81.63583,79.64594,75.66254,71.70269,69.66447,70.19947,72.31808,73.98194,73.33701,69.83203,64.55524,59.58936,56.8031,56.8258,58.81516,61.11382,62.33116,62.146,61.34243,61.10975,62.11261,63.96826,65.46907,65.38418,63.28933,59.87856,56.56184,54.63531,54.57252,55.87896,57.55844,58.82774,59.58363,60.3252,61.63246,63.61449,65.73075,67.1172,67.17276,65.97427,64.22939,62.80285,62.16374,62.14936,62.19763,61.85419,61.15334,60.57576,60.61434,61.29862,62.08712,62.26873,61.61222,60.7499,60.8984,62.95767,66.51894,69.49664,68.798,61.83562,48.09121,29.81265,11.3243,-2.801573,-9.793726,-9.877991,-5.988474,-2.172571,-1.563484,-4.993196,-10.91197,-16.53751,-19.50245,-19.07086,-16.32106,-13.31869,-11.85512,-12.50015,-14.45805,-16.22087,-16.56746,-15.30441,-13.34028,-12.08179,-12.51812,-14.52863,-16.83329,-17.67487,-15.93227,-12.11098,-8.637402,-9.166869,-17.0643,-33.66935,-57.16832,-82.72322,-103.9847,-115.44,-114.5786,-102.8489,-84.91508,-66.54401,-52.14643,-43.17723,-38.1311,-34.0107,-28.36217,-20.71095,-12.64909,-6.649559,-4.430336,-5.905822,-9.332915,-12.4757,-13.97554,-14.02829,-13.96601,-15.08908,-17.58491,-20.29497,-21.49475,-20.15558,-16.80691,-13.38132,-12.0914,-14.04618,-18.50451,-23.26128,-25.93616,-25.36017,-22.19988,-18.46686,-16.26649,-16.6067,-18.99493,-21.99749,-24.30117,-25.5206,-26.22866,-27.26425,-28.88353,-30.41357,-30.68531,-28.9449,-25.57512,-22.06802,-20.20384,-20.95332,-23.83573,-27.18697,-29.18209,-28.95501,-27.0798,-25.10808,-24.48221,-25.56082,-27.41137,-28.48896,-27.72195,-25.23858,-22.23016,-20.049,-19.19741,-18.96444,-18.04486,-15.78144,-13.18344,-12.93392,-18.19241,-30.7789,-49.77996,-71.45358,-90.59775,-102.7095,-105.8083,-101.0006,-91.56011,-81.13892,-72.11845,-64.95324,-58.69382,-52.18736,-45.13552,-38.3728,-33.29561,-30.90966,-31.16182,-32.97781,-34.94637,-36.1706,-36.73569,-37.5126,-39.45475,-42.84996,-46.99791,-50.50006,-51.97698,-50.79427,-47.40069,-43.13308,-39.62035,-38.11121,-39.02121,-41.85007,-45.43047,-48.37981,-49.58786,-48.62214,-45.94107,-42.8249,-40.9722,-41.81211,-45.75293,-51.69908,-57.15219,-58.99321,-54.70879,-43.54314,-27.01038,-8.459121,8.164628,19.80649,25.34643,25.73054,23.19789,20.0684,17.74721,16.41517,15.44856,14.19139,12.54661,11.03431,10.34638,10.76603,11.88663,12.84174,12.88791,11.92912,10.59906,9.813089,10.07049,10.97613,11.33895,9.837049,5.868667,0.05864183,-5.923766,-10.17097,-11.52265,-10.16982,-7.534982,-5.508585,-5.484362,-7.728375,-11.3941,-15.10301,-17.7017,-18.75167,-18.52458,-17.60344,-16.41696,-15.02566,-13.26457,-11.08515,-8.809013,-7.086959,-6.574584,-7.545057,-9.704211,-12.33977,-14.71322,-16.44711,-17.67224,-18.86316,-20.48765,-22.70547,-25.29078,-27.79077,-29.78442,-31.05717,-31.60669,-31.52958,-30.92737,-29.93091,-28.81424,-28.0637,-28.26418,-29.79862,-32.52186,-35.65497,-38.05204,-38.76445,-37.60126,-35.32793,-33.31353,-32.76981,-34.01915,-36.27036,-38.13485,-38.65665,-38.26495,-38.99068,-43.63877,-54.20259,-70.3296,-88.76286,-104.2846,-111.9175,-109.399,-98.66343,-85.43681,-76.94968,-78.73837,-92.05764,-113.1758,-134.957,-149.9723,-153.6346,-145.8616,-130.5493,-113.2958,-98.65826,-88.39273,-81.45094,-75.47828,-68.74477,-61.30368,-54.76122,-50.97576,-50.64662,-52.77365,-55.31744,-56.54747,-56.0933,-54.92115,-54.23219,-54.07611,-52.75812,-47.62682,-36.89499,-21.3316,-4.597146,8.253963,13.40741,10.53498,3.212422,-2.914006,-3.267468,3.028612,12.63425,19.98703,20.69401,14.32763,4.938347,-1.066683,1.531686,13.85483,32.32072,50.6359,63.15413,67.63618,65.89082,62.13121,60.22866,61.611,64.98708,67.83372,68.47285,67.28008,66.26308,67.41827,71.09319,75.55215,78.08185,76.87717,72.394,67.16617,64.12769,64.48801,66.58593,66.55282,60.50197,46.97429,28.16386,9.160661,-4.39451,-8.930176,-4.414786,6.027132,17.97895,27.91702,34.51733,38.53128,41.57561,44.756,47.98851,50.31712,50.84197,49.53847,47.402,45.87041,45.9552,47.67501,50.1311,52.12809,52.90474,52.51542,51.67213,51.21201,51.56262,52.53419,53.51294,53.87889,53.36862,52.17746,50.79199,49.70264,49.16845,49.15005,49.385,49.53291,49.30517,48.55026,47.29525,45.74977,44.25885,43.20175,42.85194,43.26574,44.26713,45.54505,46.81015,47.91195,48.84418,49.64488,50.28971,50.67302,50.70801,50.45761,50.17335,50.16087,50.54419,51.10028,51.33245,50.78953,49.4499,47.87925,46.98992,47.47902,49.2841,51.44222,52.53345,51.49993,48.35339,44.27952,41.00262,39.75127,40.47212,41.84646,42.17185,40.59019,37.84446,35.96478,36.93958,41.11259,46.35175,48.66678,44.14601,31.2273,12.01706,-8.204956,-23.18314,-28.50724,-23.58664,-11.74175,1.608825,11.64901,16.30369,16.732,16.07125,17.29755,21.50065,27.51417,32.96707,35.96786,36.30941,35.46693,35.46724,37.43112,40.764,43.5255,43.72271,40.67096,35.52668,30.63479,28.10367,28.52885,30.70173,32.50786,32.44154,30.73582,29.30344,30.42842,34.95243,41.10283,44.79927,41.45216,28.35777,6.384645,-20.03899,-44.72686,-62.44499,-71.1437,-72.58794,-71.11396,-71.23513,-75.3885,-82.97135,-91.05588,-96.26566,-96.71442,-92.96289,-87.5648,-83.57846,-82.93107,-85.54731,-89.62543,-92.80087,-93.46841,-91.52534,-88.18617,-85.09711,-83.3358,-82.90514,-82.97483,-82.66594,-81.82099,-81.23928,-82.16064,-85.25052,-89.67584,-92.86529,-91.23048,-81.62523,-62.89606,-36.76131,-7.527388,19.32807,39.12603,49.65511,51.80212,48.89531,45.11047,43.71028,45.91975,50.88223,56.56643,61.04456,63.44159,64.11781,64.13255,64.42557,65.26176,66.24233,66.79682,66.74575,66.52927,66.93692,68.53942,71.23624,74.23895,76.53321,77.50809,77.3429,76.88637,77.10866,78.48586,80.70893,82.89926,84.15997,84.10113,83.00103,81.53436,80.30031,79.48718,78.88943,78.22382,77.47179,76.96677,77.16369,78.25693,79.96445,81.64536,82.68803,82.88313,82.51453,82.09404,81.95972,82.03716,81.96366,81.46965,80.70136,80.20638,80.54839,81.8461,83.62177,85.14149,86.03565,86.70299,88.09473,90.90476,94.71134,97.79007,97.96965,94.1741,87.65513,81.88983,80.80096,86.06749,95.08067,101.0434,95.6342,73.17462,34.16413,-13.85897,-58.89019,-89.38628,-99.14333,-89.67774,-68.96774,-47.34259,-32.76208,-27.88205,-30.18085,-34.62723,-37.07145,-36.36975,-34.25375,-33.41702,-35.30799,-39.09853,-42.3779,-42.93783,-40.3548,-36.29904,-33.42254,-33.6181,-36.82025,-41.10288,-43.95225,-43.84771,-41.13648,-37.69895,-35.69884,-36.26733,-38.9278,-42.04634,-43.91447,-43.72692,-41.86899,-39.4399,-37.43781,-36.19068,-35.37412,-34.50336,-33.46922,-32.69084,-32.77908,-33.9705,-35.77364,-37.11444,-36.92954,-34.83623,-31.44762,-28.12064,-26.26981,-26.64759,-28.98942,-32.20164,-34.95359,-36.32966,-36.20074,-35.1689,-34.1759,-34.02013,-35.02771,-36.99183,-39.34196,-41.41311,-42.67144,-42.83464,-41.88967,-40.05711,-37.73875,-35.44927,-33.70778,-32.87723,-32.9944,-33.67378,-34.2011,-33.85828,-32.39901,-30.46799,-29.68094,-32.19108,-39.78848,-52.88208,-69.87337,-87.36152,-101.2593,-108.4242,-108.0546,-102.1154,-94.48298,-89.15136,-88.35063,-91.54578,-95.81689,-97.42133,-93.69062,-84.26008,-71.04237,-57.06849,-44.93647,-35.76452,-29.14486,-23.95364,-19.36477,-15.37796,-12.57691,-11.3967,-11.5048,-11.79053,-10.99254,-8.528083,-4.929315,-1.563253,0.19757,-0.1902079,-2.139765,-4.337278,-5.547989,-5.280828,-3.90511,-2.223328,-0.8720874,-0.0007056059,0.5868377,1.019563,1.077995,0.3170431,-1.488583,-3.958312,-6.156826,-7.133919,-6.596811,-5.193198,-4.11862,-4.256456,-5.452464,-6.498092,-5.926234,-3.11464,1.102308,4.833273,6.362065,5.374616,3.239843,1.985132,2.543477,3.489538,1.334685,-7.495611,-24.05093,-45.28375,-64.76606,-75.63505,-74.29542,-62.7487,-48.06638,-39.06534,-41.88978,-56.86786,-78.35167,-97.58259,-106.9774,-103.5314,-89.65208,-71.2664,-54.52143,-42.99797,-36.80158,-33.64761,-30.9131,-27.27527,-23.07234,-19.47845,-17.31426,-16.38641,-15.71961,-14.36015,-12.07172,-9.423736,-7.284991,-6.175978,-5.98699,-6.23046,-6.557947,-7.076447,-8.183796,-10.05524,-12.22026,-13.62827,-13.24005,-10.76132,-6.987742,-3.468908,-1.665724,-2.141464,-4.318081,-6.950202,-8.980596,-10.18599,-11.1796,-12.79474,-15.30974,-18.0826,-19.87001,-19.62548,-17.22904,-13.64898,-10.42038,-8.783862,-9.043011,-10.53273,-12.16915,-13.17308,-13.48013,-13.60525,-14.12348,-15.18143,-16.3924,-17.16342,-17.17744,-16.65153,-16.17466,-16.25011,-16.89186,-17.58633,-17.66071,-16.7958,-15.31319,-14.01756,-13.6914,-14.58299,-16.23684,-17.77712,-18.44801,-18.04785,-16.97639,-15.89185,-15.23127,-14.93174,-14.53345,-13.57944,-12.02809,-10.39705,-9.542837,-10.2164,-12.66287,-16.4861,-20.82406,-24.70847,-27.41139,-28.63618,-28.52534,-27.54133,-26.3008,-25.40568,-25.29167,-26.11605,-27.72504,-29.73396,-31.701,-33.31083,-34.46404,-35.22459,-35.67389,-35.80482,-35.54434,-34.89894,-34.08467,-33.49376,-33.46982,-34.03072,-34.77477,-35.10981,-34.70141,-33.82578,-33.30124,-33.93702,-35.82074,-37.98434,-38.84417,-37.31564,-33.96822,-31.37607,-33.17731,-42.13113,-58.18598,-77.77024,-94.94627,-104.027,-102.318,-91.46127,-76.56693,-63.56517,-56.24564,-54.65318,-55.6827,-55.41379,-51.68235,-45.3119,-39.30207,-36.59935,-37.96547,-41.37391,-43.34306,-41.33751,-35.62388,-29.29195,-26.29751,-28.67457,-34.6539,-38.95306,-35.23251,-19.42361,7.903739,41.45079,73.43058,96.94319,108.7561,110.1725,105.7715,100.8939,99.24599,101.7464,106.91,112.2611,115.8405,117.0355,116.4942,115.3985,114.6663,114.5293,114.6314,114.4632,113.7998,112.8752,112.2232,112.309,113.1907,114.4092,115.1845,114.8213,113.1108,110.509,107.968,106.4869,106.612,108.1614,110.3459,112.2201,113.2031,113.3501,113.1978,113.3031,113.7846,114.2115,113.9323,112.6349,110.7319,109.2408,109.171,110.7896,113.2672,115,114.4866,111.2251,106.0764,100.8318,97.24485,96.12398,97.05158,98.8616,100.5114,101.7266,102.99,104.9224,107.5531,110.0627,111.2304,110.287,107.5559,104.3785,102.3152,102.1589,103.4514,104.8556,105.1476,104.11,102.6797,102.2099,103.3783,105.5561,107.1632,106.8116,104.4331,101.5205,100.1947,101.6822,105.2641,108.5649,109.1177,106.2164,101.7239,99.06829,100.8758,106.6899,112.3692,111.8347,100.3685,77.59077,48.27212,20.34259,1.092143,-6.334205,-4.19573,1.472483,4.345137,1.100619,-7.291603,-16.81677,-23.2063,-24.47834,-21.77353,-18.21307,-16.74098,-18.41087,-22.11312,-25.69745,-27.5541,-27.54968,-26.78802,-26.53954,-27.21448,-28.13046,-28.1701,-26.76826,-24.44921,-22.51889,-22.152,-23.5657,-25.88924,-27.81547,-28.54552,-28.33001,-28.21189,-29.16821,-31.28483,-33.57878,-34.61414,-33.48801,-30.49616,-27.00301,-24.60588,-24.15893,-25.31728,-26.88101,-27.6709,-27.30864,-26.37536,-25.8778,-26.43793,-27.80402,-29.02515,-29.14838,-27.92591,-26.02151,-24.57393,-24.43034,-25.58704,-27.22089,-28.26659,-28.12553,-27.01537,-25.74278,-25.09948,-25.32307,-25.99854,-26.43452,-26.20592,-25.45157,-24.71676,-24.47822,-24.72822,-24.93979,-24.45164,-22.98954,-20.93478,-19.13341,-18.36936,-18.86866,-20.18145,-21.51729,-22.289,-22.47593,-22.56297,-23.11506,-24.31453,-25.80292,-26.93941,-27.28019,-26.91615,-26.41455,-26.39608,-27.05701,-27.98589,-28.42542,-27.8041,-26.16807,-24.19877,-22.79295,-22.48122,-23.08605,-23.8584,-24.0078,-23.27188,-22.13218,-21.51737,-22.16869,-24.07682,-26.36319,-27.71896,-27.16877,-24.72,-21.50735,-19.30224,-19.60405,-22.76263,-27.604,-31.81705,-33.01843,-30.0694,-24.02978,-18.20143,-17.04451,-24.26247,-40.82283,-63.88114,-87.32019,-103.932,-108.4516,-100.0721,-83.14993,-65.56097,-55.31276,-56.94786,-69.48947,-86.96362,-101.2598,-105.8968,-98.81188,-82.86571,-63.97258,-48.01284,-38.22054,-34.31442,-33.56467,-32.91062,-30.77734,-27.61534,-25.07226,-24.54692,-26.13575,-28.59224,-30.19037,-29.81203,-27.53004,-24.37536,-21.5677,-19.79091,-18.98407,-18.67752,-18.51858,-18.53769,-18.97566,-19.86718,-20.78164,-20.98499,-19.94355,-17.78729,-15.35333,-13.71837,-13.52119,-14.54882,-15.89675,-16.6069,-16.3416,-15.61438,-15.40299,-16.41698,-18.54188,-20.86654,-22.28713,-22.26826,-21.21727,-20.19961,-20.18427,-21.35175,-22.95694,-23.8571,-23.33977,-21.66905,-19.95319,-19.40658,-20.50447,-22.61179,-24.35047,-24.47572,-22.6835,-19.82798,-17.41717,-16.72481,-18.08639,-20.7921,-23.58254,-25.37909,-25.7809,-25.08321,-23.91857,-22.84249,-22.14827,-21.94649,-22.3228,-23.3531,-24.93403,-26.60909,-27.63335,-27.35147,-25.68374,-23.34536,-21.55451,-21.32322,-22.76711,-24.92746,-26.29799,-25.77162,-23.39215,-20.38235,-18.37948,-18.36098,-19.98389,-21.81473,-22.32484,-20.9866,-18.70177,-17.23072,-17.97573,-20.94922,-24.66625,-27.09138,-27.03857,-25.07369,-23.26153,-23.86208,-27.79669,-33.89891,-39.48065,-41.88932,-40.08778,-35.25953,-30.07803,-27.1308,-27.50912,-30.41214,-33.9239,-36.34386,-37.15342,-37.02082,-36.96981,-37.41093,-37.79222,-37.1127,-34.88015,-31.73796,-29.22509,-28.77872,-30.67186,-33.67721,-35.76159,-35.37954,-32.49604,-28.61531,-25.77855,-25.20898,-26.54559,-28.2004,-28.58578,-27.33098,-25.6035,-25.27183,-27.48633,-31.69605,-35.85089,-37.71624,-36.41459,-33.10436,-30.25008,-29.91451,-32.22105,-35.08949,-35.53198,-31.73777,-24.58577,-17.5225,-14.76429,-18.86493,-29.12867,-41.84425,-52.19814,-56.70558,-54.74636,-48.40435,-40.91341,-34.81023,-30.94091,-28.7531,-27.39171,-26.61968,-26.85529,-28.39555,-30.59587,-31.86426,-30.71528,-27.25123,-23.9543,-24.97362,-34.042,-52.1326,-76.2915,-100.4936,-118.1824,-125.1325,-121.0768,-109.27,-94.4182,-80.30257,-68.49596,-58.72239,-50.2931,-43.3652,-39.02001,-38.07509,-39.55995,-40.12269,-35.09233,-20.80326,3.133554,33.0472,62.53627,85.29617,97.92764,101.2119,99.23209,96.95275,97.69862,101.8861,107.5483,112.0726,113.9714,113.6343,112.7647,113.0636,115.1061,118.1103,120.6302,121.5932,120.9512,119.5554,118.4376,118.0759,118.1664,118.0293,117.2889,116.3009,115.9818,117.1409,119.7932,122.9533,125.0862,124.9742,122.4468,118.5247,114.8765,112.9249,113.1252,114.8274,116.742,117.7026,117.2496,115.732,113.941,112.5577,111.786,111.3587,110.8667,110.146,109.4512,109.307,110.1347,111.903,114.0337,115.632,115.9235,114.668,112.3083,109.7786,108.0523,107.6708,108.4835,109.7505,110.5484,110.2691,108.9401,107.1794,105.8089,105.3582,105.7652,106.4848,106.9582,107.135,107.6452,109.3902,112.6819,116.417,117.8906,113.5735,100.6687,78.73566,50.4944,21.24479,-2.99537,-17.82154,-22.13555,-18.3708,-11.1588,-5.140102,-3.030354,-4.858716,-8.611506,-11.76001,-12.74086,-11.60781,-9.64707,-8.370496,-8.596466,-10.15558,-12.27357,-14.23625,-15.81625,-17.19061,-18.49745,-19.45661,-19.41357,-17.8249,-14.83109,-11.44639,-9.133971,-8.966164,-10.89979,-13.6747,-15.46814,-14.94232,-12.04177,-8.031034,-4.734738,-3.451369,-4.226092,-5.934795,-7.10842,-6.942568,-5.824418,-5.026947,-5.779881,-8.340437,-11.70058,-14.15232,-14.36906,-12.3104,-9.354082,-7.539336,-8.370133,-11.90821,-16.70947,-20.64031,-22.07366,-20.74945,-17.81374,-15.06052,-13.87882,-14.54565,-16.24869,-17.7457,-18.18533,-17.56188,-16.55458,-15.92878,-15.94456,-16.18492,-15.90245,-14.62265,-12.57296,-10.62929,-9.806367,-10.62461,-12.77111,-15.27591,-17.08753,-17.67471,-17.27127,-16.62392,-16.43053,-16.85477,-17.44499,-17.50652,-16.66881,-15.25061,-14.15184,-14.31305,-16.0738,-18.84922,-21.36144,-22.32073,-21.16735,-18.43262,-15.4937,-13.85375,-14.35535,-16.7715,-19.98863,-22.6515,-23.88219,-23.6666,-22.72459,-21.98834,-22.03506,-22.80995,-23.768,-24.29678,-24.12283,-23.44553,-22.7439,-22.41904,-22.53037,-22.80026,-22.86905,-22.60851,-22.2697,-22.35646,-23.3025,-25.16243,-27.51175,-29.61948,-30.78401,-30.64065,-29.28403,-27.17825,-24.94645,-23.173,-22.29278,-22.55177,-23.98002,-26.347,-29.14743,-31.7067,-33.44646,-34.23301,-34.61758,-35.77759,-39.08927,-45.47716,-54.82563,-65.76009,-75.93439,-82.73777,-84.14359,-79.39461,-69.31175,-56.17497,-43.24475,-34.01983,-31.36201,-36.63498,-49.09063,-65.79426,-82.29363,-93.97329,-97.6761,-92.92017,-82.0871,-69.38177,-58.96806,-53.16161,-51.58051,-51.69032,-50.42067,-45.94786,-38.64379,-30.70083,-24.7177,-22.14193,-22.51234,-23.92016,-24.3318,-22.89273,-20.3782,-18.53607,-18.79959,-21.24462,-24.48521,-26.56096,-26.2117,-23.68559,-20.55153,-18.65864,-18.94866,-20.90838,-23.00502,-23.78012,-22.84534,-21.10865,-20.09515,-20.84369,-23.13457,-25.56913,-26.4384,-24.79234,-21.01184,-16.5375,-12.98114,-11.23201,-11.12286,-11.79889,-12.44343,-12.80545,-13.17734,-13.91142,-14.91544,-15.56804,-15.15259,-13.48894,-11.2566,-9.709358,-9.920703,-12.06859,-15.27015,-18.11472,-19.55357,-19.54523,-19.00988,-19.12578,-20.45543,-22.51081,-24.06087,-23.96625,-21.96296,-18.85532,-16.00376,-14.47773,-14.46489,-15.32072,-16.1659,-16.55147,-16.6862,-17.07596,-17.89592,-18.63809,-18.38039,-16.54004,-13.55741,-10.93976,-10.50851,-13.2665,-18.62868,-24.57563,-28.70463,-29.55147,-27.35703,-23.80174,-20.90514,-19.82329,-20.31491,-21.17021,-21.22606,-20.21418,-18.85115,-18.14985,-18.5199,-19.37097,-19.56454,-18.41466,-16.49632,-15.60685,-17.79348,-24.02464,-33.36842,-43.24854,-50.66581,-53.64999,-52.08729,-47.48772,-41.94437,-37.00917,-33.1658,-30.09826,-27.38831,-25.04165,-23.46509,-23.00375,-23.4971,-24.27342,-24.61081,-24.28009,-23.6877,-23.45531,-23.74984,-23.9417,-22.96334,-20.20041,-16.25528,-12.9162,-12.1737,-14.85683,-19.84273,-24.5139,-26.3112,-24.41657,-20.39977,-17.27545,-17.5003,-21.23293,-26.11293,-28.84307,-27.59919,-23.60841,-20.65624,-22.60605,-30.40322,-40.55055,-46.26273,-40.87631,-21.62149,8.480912,41.79251,69.68795,86.58458,92.13549,90.49083,87.33308,86.59772,88.81293,91.78975,92.87261,91.08531,87.77361,85.51089,86.21349,89.84949,94.59651,98.19242,99.44764,98.8335,97.84101,97.68533,98.38873,98.89584,98.07361,95.76929,93.07519,91.58452,92.18958,94.36121,96.46997,96.95613,95.47956,93.19418,91.90769,92.72021,95.14213,97.36985,97.547,95.14543,91.44139,88.72484,88.7624,91.58054,95.42987,97.95574,97.76627,95.30106,92.42664,91.08777,91.98904,94.2485,96.20219,96.71191,95.96588,95.17661,95.44508,96.71868,97.71397,96.93887,94.0511,90.45894,88.55956,90.03703,94.43082,99.13188,101.0081,98.66089,93.71075,90.0407,91.25685,97.92582,106.4762,110.6687,104.9259,87.53381,61.73061,34.00793,10.69743,-5.007566,-13.80364,-18.53583,-21.35513,-21.84526,-17.41986,-5.630504,13.36086,36.02791,57.10163,72.49325,81.43705,86.23428,89.66451,91.84793,88.92286,74.83086,45.40745,2.294584,-46.00011,-86.97417,-109.6214,-109.5768,-91.01642,-64.28886,-40.67098,-27.22074,-24.43879,-27.64346,-30.77382,-30.11304,-25.81883,-20.77348,-17.96776,-18.3553,-20.50519,-21.99121,-21.29415,-18.80433,-16.31522,-15.54219,-16.84272,-19.06569,-20.54786,-20.42752,-19.25628,-18.46856,-19.15128,-21.07728,-22.76098,-22.5182,-19.75894,-15.55614,-12.04511,-11.04973,-12.8881,-16.18427,-18.80932,-19.2889,-17.70889,-15.5275,-14.47646,-15.35652,-17.56483,-19.63619,-20.35052,-19.57442,-18.24207,-17.53309,-17.89898,-18.68854,-18.66206,-17.0075,-14.08587,-11.31363,-10.22348,-11.35876,-13.81048,-15.77371,-15.77564,-13.73916,-11.12628,-10.03154,-11.81488,-16.19114,-21.38573,-25.24546,-26.55252,-25.66946,-24.12428,-23.47945,-24.30435,-25.96152,-27.30488,-27.71927,-27.68674,-28.4143,-30.77464,-34.35519,-37.40148,-37.83808,-34.7611,-29.37903,-24.64072,-23.62145,-27.59168,-35.00795,-42.19158,-45.44231,-43.41051,-38.28764,-34.98381,-38.60229,-51.53256,-71.77147,-93.46456,-109.4786,-114.7316,-108.6023,-95.23509,-81.62069,-74.44511,-77.22381,-89.01972,-105.1778,-119.5607,-127.1304,-125.7185,-116.3529,-102.2527,-87.16839,-73.92297,-63.72587,-56.36376,-50.93456,-46.60585,-43.00933,-40.17384,-38.18753,-36.89523,-35.84991,-34.52032,-32.59395,-30.14763,-27.58298,-25.38167,-23.85637,-23.05482,-22.85482,-23.14249,-23.91639,-25.22749,-27.00406,-28.91354,-30.399,-30.90712,-30.17437,-28.38218,-26.06702,-23.83687,-22.07691,-20.83926,-19.97187,-19.37149,-19.14743,-19.55271,-20.71879,-22.39707,-23.93739,-24.57393,-23.87227,-22.04048,-19.87176,-18.31443,-17.92371,-18.54671,-19.45861,-19.8768,-19.52067,-18.8477,-18.79408,-20.17255,-23.10838,-26.86605,-30.18073,-31.88212,-31.44446,-29.15962,-25.89797,-22.66391,-20.24092,-19.08499,-19.40841,-21.26012,-24.45886,-28.42576,-32.12606,-34.31344,-34.0676,-31.35296,-27.22277,-23.43589,-21.61333,-22.37823,-24.99474,-27.76634,-28.99936,-27.98832,-25.43547,-23.04543,-22.51973,-24.53713,-28.31479,-32.00254,-33.68634,-32.43681,-28.85036,-24.81947,-22.69587,-24.28839,-30.15872,-39.47048,-50.34534,-60.4959,-67.84764,-70.97984,-69.3308,-63.22116,-53.75935,-42.67369,-32.08988,-24.24658,-21.14652,-24.14428,-33.51596,-48.1207,-65.33467,-81.42952,-92.45895,-95.46137,-89.55351,-76.39014,-59.66819,-43.77456,-32.13542,-26.04125,-24.51845,-25.26636,-26.09575,-26.03099,-25.47196,-25.41982,-26.37525,-27.71498,-28.01359,-26.09923,-22.09174,-17.62637,-14.99965,-15.71464,-19.38111,-23.75436,-25.99012,-24.37629,-19.44746,-13.7417,-10.3169,-10.95466,-15.17951,-20.69308,-24.88936,-26.41596,-25.75343,-24.48925,-23.88489,-23.83368,-23.01432,-20.15975,-15.48901,-11.13435,-10.0136,-13.69898,-20.64292,-26.08549,-24.01159,-10.24276,15.06079,46.98784,77.90128,100.8523,112.5491,114.3334,110.8021,107.0387,106.0983,108.0689,110.9712,112.639,112.2854,110.8285,109.974,110.851,113.194,115.5786,116.4642,115.2638,112.7154,110.3491,109.471,110.3647,112.2124,113.7212,113.9727,112.9414,111.3863,110.2734,110.1686,110.9941,112.2418,113.4168,114.3639,115.2687,116.3814,117.7113,118.9247,119.5099,119.0687,117.5363,115.2018,112.5477,110.048,108.0401,106.7046,106.0922,106.1347,106.6457,107.3491,107.9709,108.3721,108.6097,108.8673,109.2682,109.7177,109.9126,109.5507,108.6038,107.4355,106.6241,106.5822,107.2415,108.0653,108.442,108.198,107.8323,108.2199,109.9153,112.5326,114.7177,114.8778,112.2905,107.8408,103.793,102.5681,105.2118,110.539,115.618,117.4206,114.6623,108.6504,102.509,99.21235,99.66803,102.1602,103.6094,101.8845,97.60683,94.06635,95.04938,101.7608,110.8226,114.8622,105.7579,78.96553,36.55716,-12.8384,-57.35057,-86.82497,-96.9162,-90.3263,-74.76878,-58.95456,-48.79388,-45.6135,-46.92592,-48.84769,-48.5722,-45.58224,-41.25901,-37.51891,-35.52969,-35.25225,-35.86908,-36.577,-37.11095,-37.69825,-38.61913,-39.80476,-40.80353,-41.10352,-40.51828,-39.31524,-37.99436,-36.91955,-36.10262,-35.31796,-34.43494,-33.68304,-33.59871,-34.65946,-36.86364,-39.58511,-41.85656,-42.92199,-42.70071,-41.83249,-41.2543,-41.57294,-42.64404,-43.64074,-43.58222,-41.98687,-39.24385,-36.46678,-34.91698,-35.33863,-37.58356,-40.71154,-43.47768,-44.90452,-44.65002,-43.0133,-40.66061,-38.26873,-36.2842,-34.88366,-34.07914,-33.8496,-34.19654,-35.09871,-36.42733,-37.90531,-39.16718,-39.90398,-40.02133,-39.70431,-39.33334,-39.26995,-39.61495,-40.09555,-40.17807,-39.39129,-37.68893,-35.62209,-34.15205,-34.14213,-35.79476,-38.38503,-40.52689,-40.88837,-38.96431,-35.41872,-31.72714,-29.29255,-28.59059,-28.95276,-29.21404,-28.86412,-28.89941,-31.64759,-39.43524,-52.7743,-69.22402,-83.86967,-91.47021,-89.27205,-78.9081,-66.1382,-58.3249,-60.84181,-74.30383,-94.1451,-112.8036,-123.3418,-122.5554,-111.9904,-96.50133,-81.37768,-69.76131,-61.72269,-55.26581,-48.33922,-40.46372,-32.98804,-27.98763,-26.68961,-28.54665,-31.53437,-33.3955,-32.94114,-30.56078,-27.69233,-25.71707,-25.08401,-25.22018,-25.18261,-24.48515,-23.4665,-22.95638,-23.54561,-25.05218,-26.60842,-27.30565,-26.89729,-26.01583,-25.70951,-26.63103,-28.47623,-30.11214,-30.33334,-28.72485,-26.00491,-23.58244,-22.61417,-23.21222,-24.36246,-24.62129,-23.1168,-20.16063,-17.04901,-15.19011,-15.16737,-16.38599,-17.54042,-17.56139,-16.36613,-14.87706,-14.29015,-15.11125,-16.65326,-17.37495,-15.86593,-11.8261,-6.376678,-1.477199,1.18782,1.145021,-0.6901184,-2.669719,-3.443202,-2.685941,-1.091678,0.2936294,0.888867,0.9687906,1.381814,2.824483,5.208049,7.575888,8.646458,7.627093,4.764074,1.270336,-1.320459,-1.967148,-0.6089118,1.931616,4.515305,6.333829,7.241024,7.617247,7.925693,8.304115,8.473932,8.010788,6.77188,5.171321,4.098364,4.502495,6.878863,10.95141,15.73955,19.97824,22.67206,23.49469,22.83995,21.52191,20.30717,19.54689,19.10887,18.63018,17.91671,17.21943,17.18678,18.48624,21.31364,25.10986,28.7041,30.85784,30.91234,29.15212,26.64279,24.62607,23.8402,24.20043,25.03442,25.69035,26.05423,26.55953,27.63031,28.94278,29.10605,26.15232,18.69341,7.077377,-6.243547,-17.52882,-23.42127,-22.5683,-16.24549,-7.59311,0.08739369,4.964638,7.295955,8.765744,11.10136,14.94538,19.69903,24.30292,28.22312,31.78962,35.57805,39.35082,41.53811,39.94017,33.42397,23.47233,14.28059,10.87,16.04355,27.99663,40.30169,44.70678,35.4394,12.6087,-17.39833,-44.96106,-62.13308,-66.6593,-62.81723,-58.6451,-61.22236,-72.77879,-89.81323,-105.5539,-114.1058,-113.7526,-107.5703,-101.2565,-99.73535,-104.6568,-114.1248,-124.4637,-132.6219,-137.6489,-140.5085,-142.7191,-144.9887,-146.8249,-147.2383,-145.8307,-143.355,-141.3423,-141.1313,-143.0753,-146.4759,-150.1529,-153.0818,-154.5208,-153.6619,-149.3388,-140.4375,-127.0548,-111.621,-98.87801,-94.07654,-99.99496,-114.4421,-130.0456,-137.004,-127.7051,-100.7729,-62.18357,-22.60871,7.642445,23.31041,25.91882,21.77456,17.68578,17.14562,19.25586,20.77202,19.59248,17.12808,17.84202,26.2382,43.36526,65.29239,84.75623,95.11102,94.2061,85.81373,77.75367,77.83897,90.01916,112.7901,140.479,166.3076,185.3371,195.8223,198.7599,196.5168,191.6847,186.7126,183.9725,185.5469,192.414,203.486,215.4724,224.1627,226.7426,223.758,219.2207,218.3427,223.9235,233.5017,239.2636,231.1891,202.0059,151.3369,86.70732,20.80783,-33.59698,-68.47215,-82.7499,-81.27846,-71.58169,-60.47627,-52.23472,-48.70696,-50.511,-57.96757,-70.9863,-88.17838,-106.1929,-120.2039,-125.6237,-120.1951,-105.2076,-85.04948,-65.26524,-50.16224,-41.20985,-36.96173,-34.33759,-30.43552,-23.91828,-15.43376,-7.095207,-1.438057,-0.3168361,-4.044543,-10.93552,-17.39099,-18.6711,-10.35644,9.857694,40.7614,77.44292,112.7093,139.7084,154.5977,157.9185,153.9165,148.1348,144.5703,143.9464,143.9864,141.3918,134.268,123.4972,112.3,104.3338,101.5712,103.2557,106.5153,108.1722,106.5941,102.4944,98.29565,96.53597,98.32762,102.7177,107.2302,109.1769,106.9885,100.9305,92.94794,85.81291,81.95818,82.42136,86.22035,90.39874,90.82708,83.63922,66.85854,41.55359,11.8559,-16.36818,-37.75657,-49.58474,-52.72088,-50.88144,-48.58958,-48.96705,-52.58212,-57.91829,-63.00744,-67.07086,-71.04543,-76.67506,-84.85302,-94.451,-102.5653,-106.132,-103.8991,-97.40743,-90.2571,-86.04306,-86.26023,-89.53959,-92.71255,-93.00101,-89.88179,-85.37811,-82.59705,-83.50563,-87.47011,-91.56789,-92.49286,-88.80083,-81.97381,-75.59623,-73.15572,-75.91264,-82.23258,-88.77298,-92.70186,-93.44291,-92.7942,-93.37012,-96.47078,-100.8392,-103.1755,-100.0862,-90.20604,-75.12386,-58.56593,-44.41256,-34.85452,-29.78007,-27.60184,-26.73826,-26.61157,-27.50379,-29.55076,-31.86789,-32.71686,-30.79965,-26.78395,-23.75333,-25.83805,-35.50038,-51.04046,-66.06526,-71.68423,-60.59418,-30.9551,12.14126,58.58587,97.66736,122.6939,133.4045,135.0191,134.651,137.2784,143.5337,150.3953,154.079,153.0957,149.4715,147.326,149.7132,155.7838,160.2128,155.4973,136.0435,101.7986,59.33451,19.60993,-6.571153,-13.15749,-1.234271,21.90687,46.39856,64.20604,72.14118,72.1953,69.38215,68.51483,71.71972,77.86472,83.91389,87.15504,86.90974,84.78915,83.50629,85.10252,89.70447,95.51694,99.9701,101.248,99.27251,95.59911,92.38341,91.11031,91.86407,93.50775,94.57339,94.21017,92.60767,90.66648,89.23227,88.45806,87.76431,86.40541,84.23281,82.10086,81.56488,84.03118,89.86294,98.02331,106.5006,113.272,117.2287,118.5189,118.1465,117.1541,115.9642,114.3282,111.8791,108.8399,106.2826,105.6108,107.483,110.8544,112.8629,109.8645,99.22386,80.9473,58.20573,36.34141,20.74447,14.6381,17.87062,27.29133,38.43755,47.58934,53.12937,55.62,56.77236,58.08261,59.97674,61.85802,62.80824,62.27901,60.2034,56.47153,50.26823,39.95784,23.84718,1.498105,-25.27972,-52.58738,-75.94569,-92.45361,-102.3352,-108.8045,-116.0963,-126.6525,-139.0768,-148.1878,-147.3478,-131.9175,-101.9423,-62.54686,-21.78781,12.87706,37.53635,52.63769,61.38657,66.87296,69.75887,67.9058,58.05586,38.39269,10.28938,-21.89085,-52.81979,-78.81676,-99.48127,-117.44,-136.4803,-159.2749,-186.0349,-214.751,-242.6322,-267.7264,-289.6914,-309.4401,-328.0913,-346.0687,-362.9199,-377.8423,-390.3566,-400.608,-409.0667,-415.9829,-421.0863,-423.8311,-423.9853,-422.0684,-419.2604,-416.8006,-415.3692,-414.9012,-414.9496,-415.1595,-415.2192,-414.0885,-408.9617,-395.0051,-366.6506,-320.3206,-257.2843,-184.8135,-114.4616,-57.79673,-21.61923,-5.232885,-1.437401,-0.8418866,2.877481,9.797712,14.5053,10.30441,-5.712786,-29.87857,-53.20897,-66.00307,-63.0229,-46.16739,-23.11523,-2.881421,8.946157,12.49046,12.2772,13.51912,18.57982,25.86367,31.598,32.99818,30.44908,27.14628,26.49155,29.15462,31.97845,29.64639,18.12934,-2.332228,-26.70127,-47.48874,-58.54164,-57.96005,-48.47049,-35.26339,-22.8963,-13.28872,-5.88909,0.5084385,5.940844,8.945307,7.959304,3.258962,-2.293465,-4.627675,-1.307972,6.086614,11.9468,9.477171,-5.027422,-29.04996,-53.99365,-68.87086,-65.6591,-43.37226,-8.556602,28.01964,56.57306,72.50682,77.46582,77.04371,76.86228,79.4642,83.68205,86.45544,85.5666,81.40753,76.73357,74.77193,77.09181,82.65063,88.54192,91.81203,91.11487,87.19955,82.09638,77.71576,74.84032,73.07505,71.6009,70.02694,68.69891,68.28271,69.03274,70.36806,71.09731,70.15748,67.31548,63.33667,59.50048,56.8244,55.51954,55.03196,54.5666,53.67661,52.48557,51.42204,50.72227,50.12731,49.02879,46.96397,44.07825,41.17754,39.29649,39.05906,40.27643,42.06172,43.38356,43.67456,43.08249,42.21555,41.59785,41.24393,40.66227,39.26705,36.87563,33.90625,31.11831,29.08528,27.79349,26.6819,25.11416,22.95072,20.79845,19.72775,20.62517,23.61292,27.93117,32.37282,35.97176,38.48407,40.34982,42.19547,44.27217,46.25386,47.5596,47.95534,47.95436,48.64974,51.00938,55.07834,59.6701,62.85749,63.05484,60.05157,55.31105,51.25139,49.84352,51.32518,53.82141,54.17929,49.62387,39.36102,25.24105,11.10388,1.134414,-1.933226,2.12574,11.16206,21.80236,30.949,36.88024,39.51376,39.89214,39.33167,38.74419,38.42692,38.27415,38.13279,38.01642,38.07803,38.44756,39.13976,40.13479,41.56149,43.78115,47.21368,51.94011,57.32571,61.98132,64.2166,62.83177,57.84493,50.69157,43.70688,39.09536,37.92371,39.69424,42.74024,45.21835,46.1099,45.65112,44.97207,45.21819,46.75276,48.9596,50.74952,51.38329,51.00351,50.47805,50.65825,51.61145,52.4448,51.93743,49.58753,46.29543,44.06041,44.72775,48.54625,53.58808,56.63801,55.20064,49.40873,42.46275,39.01405,42.21833,51.21031,60.75475,63.67907,54.98275,35.31708,11.62003,-5.798567,-8.376613,6.146671,32.34498,59.7804,78.31818,83.14175,76.6883,66.56782,60.82246,63.41721,72.54008,82.49566,87.76672,86.57907,81.77726,78.6478,81.27565,89.88333,100.8488,109.2461,112.1026,110.1447,106.8884,105.7695,107.356,108.6218,104.8852,93.15704,74.6737,54.81107,40.30646,35.43594,39.54535,47.49481,52.75398,51.23008,43.47633,33.98713,28.13518,28.74794,34.46569,40.81346,43.17906,39.72865,32.44143,25.72387,23.62203,27.4686,35.3984,43.87654,50.08323,53.53156,55.91382,59.42607,64.82293,70.60518,73.92591,72.62841,67.04919,60.32275,56.85285,59.72864,68.52653,78.77363,83.45181,75.9056,52.82151,15.96392,-28.05994,-69.89487,-100.5696,-114.4802,-111.1416,-95.05944,-73.77725,-54.85429,-43.0116,-38.68743,-38.64801,-38.33082,-34.66735,-27.81731,-20.80169,-17.24608,-18.64588,-22.98296,-25.78373,-23.16127,-14.97018,-5.879341,-3.284175,-12.96757,-35.0446,-62.86776,-85.97888,-95.7156,-90.26923,-76.0286,-64.14777,-64.12352,-78.15233,-99.71651,-117.3946,-121.7179,-110.9808,-92.4715,-78.37833,-78.8382,-96.33275,-124.71,-153.1898,-172.6211,-180.013,-178.6738,-174.3175,-170.151,-164.5048,-152.6763,-131.5702,-103.6359,-76.9174,-60.6852,-59.2691,-68.30795,-76.34746,-71.37057,-48.47461,-13.82626,17.95277,31.84085,21.29388,-7.401931,-38.08605,-53.42694,-44.35158,-14.73191,21.28108,47.51134,54.61179,44.39466,27.4408,15.90124,16.12472,25.51661,35.13718,35.94001,24.49413,4.703245,-15.1751,-27.9064,-31.44308,-29.36912,-27.74808,-30.8253,-38.58546,-47.65807,-54.65105,-59.32126,-65.17386,-76.93111,