Bandpass,0,0.25173,-126.76286,2628.8289,3793.4043,3164.301,1373.5872,-372.47388,-1046.7938,-455.50031,700.08246,1388.951,1015.3323,-175.38371,-1324.4102,-1623.5027,-909.78491,239.72757,960.07214,741.71167,-213.64691,-1172.3737,-1429.0012,-821.25232,174.27589,817.39508,655.96478,-156.66098,-999.97662,-1259.5321,-774.80292,64.288368,627.43097,516.41833,-152.21599,-852.95544,-1051.8981,-597.38171,183.93858,743.18695,715.98999,177.2887,-434.40509,-653.3374,-326.83127,288.37094,732.78467,689.43994,209.6684,-339.92529,-558.20233,-303.07462,216.68625,609.30884,593.53552,198.20847,-273.24811,-476.79947,-280.5134,149.19467,483.09763,477.37622,148.05786,-252.51343,-431.14148,-270.59235,91.849174,375.65921,368.72086,80.280212,-274.22,-438.41113,-303.48807,18.568985,285.58005,306.59604,78.147018,-221.90018,-372.11502,-270.75482,-4.493505,223.18445,245.47495,52.155224,-209.92296,-350.71381,-277.10434,-56.032417,141.85561,171.46867,17.887117,-198.81999,-317.52304,-255.67232,-66.168274,107.21426,138.74568,11.612576,-174.76904,-282.56842,-237.83633,-81.487343,65.950882,96.186989,-8.0559387,-164.36237,-255.32076,-216.07793,-79.712761,50.96841,81.475708,-5.6384797,-141.21156,-223.57498,-194.15717,-78.500694,35.781479,65.38739,-8.1976328,-127.91116,-205.71538,-187.73232,-91.663185,9.4340782,42.751377,-11.51554,-108.4611,-174.35704,-161.74066,-82.691971,2.8594673,33.068882,-10.831955,-93.282951,-153.44272,-151.28339,-96.067917,-37.052628,-24.909504,-73.546394,-150.50905,-202.02509,-193.06178,-132.47749,-65.365425,-39.330235,-70.194336,-132.04973,-177.8708,-174.4548,-125.75797,-68.25164,-42.949089,-65.461891,-115.88961,-154.94278,-153.36513,-112.68277,-62.650696,-38.379704,-54.725224,-96.634544,-131.62968,-134.21637,-103.87253,-63.895096,-42.988415,-53.963634,-85.274277,-110.90208,-110.36855,-83.622818,-50.078838,-33.280251,-43.229607,-69.620583,-90.571381,-89.751648,-68.791306,-45.780018,-41.270542,-62.445332,-97.233063,-122.5992,-120.78738,-91.667397,-52.471119,-25.498829,-22.912786,-39.396515,-57.360611,-60.251957,-44.058121,-19.007803,-0.97477013,0.51276815,-11.218618,-23.28944,-23.320778,-8.4697304,13.091513,28.866531,31.48448,23.786911,16.044548,17.79604,30.64773,47.347401,57.546528,55.693584,45.124294,35.479065,35.615887,47.394493,64.802963,78.742073,83.596306,80.609886,75.743713,73.984718,74.736099,71.990677,59.25552,35.502274,7.5200658,-13.40624,-18.466778,-7.2421837,11.498819,24.729057,22.633036,3.8953867,-24.266302,-50.876663,-67.420486,-71.686592,-67.448425,-61.045811,-57.602478,-59.179363,-65.295586,-74.528313,-85.55191,-96.998596,-106.85344,-112.5573,-112.24371,-106.29941,-97.843231,-91.35218,-90.078117,-93.968369,-99.624817,-102.46488,-99.67556,-91.959747,-82.919899,-76.594673,-74.926804,-76.885368,-79.671577,-80.908295,-80.094666,-78.323769,-76.705544,-74.959183,-71.441879,-64.636253,-54.836887,-44.509033,-36.80637,-33.26725,-32.540714,-31.38233,-27.460863,-21.969,-19.866835,-27.081249,-46.184746,-73.422768,-99.390343,-113.41599,-109.23606,-88.519592,-59.997032,-34.64043,-19.798378,-15.800152,-16.920092,-15.813679,-8.4216547,3.7724345,15.359893,21.158033,19.997007,15.65977,14.494057,21.405403,36.879009,56.841274,75.230286,87.44812,92.497452,92.686485,91.472229,91.134727,91.844582,92.520195,92.563057,93.020645,96.259644,104.38052,117.52171,133.27086,147.62817,156.93919,159.63225,156.80719,151.50066,147.22987,146.69234,151.18054,160.68733,174.27954,190.35323,206.72778,220.84464,230.32651,233.83546,231.81435,226.61705,221.82327,221.00058,226.48824,238.72534,256.29224,276.45978,295.9061,311.40479,320.50693,322.27557,317.91162,310.84052,305.83698,307.21176,316.76367,332.62827,349.90332,362.99329,368.50784,367.02362,362.54324,359.86096,361.43637,365.83154,368.86365,366.83682,359.69058,351.72144,348.97302,354.6337,365.38095,371.41025,360.82211,326.2919,270.23724,205.21651,148.87202,115.8937,111.30214,128.68402,154.21404,174.03888,180.82832,176.03323,167.09686,161.8287,163.57315,169.93456,175.35986,175.47397,170.19862,163.76408,161.88493,168.14142,181.89757,198.87003,213.68535,222.64107,225.05545,222.75627,218.49315,214.51561,212.06779,211.64613,213.32288,216.64264,220.27827,222.11018,220.17363,214.11511,206.08046,200.01801,199.35487,204.28261,210.5065,210.67159,198.04768,170.47247,132.13794,91.960304,59.335892,39.726376,32.627644,32.951908,34.68663,34.331875,31.958296,29.507477,27.915829,25.411474,18.380367,4.2181888,-15.990668,-37.138344,-52.671314,-58.540001,-55.8689,-50.422173,-49.058353,-55.440937,-67.847557,-80.558914,-87.90094,-88.196793,-84.912498,-84.162201,-90.212845,-102.02292,-113.21113,-115.6021,-104.13855,-80.052818,-50.330494,-23.890562,-6.9505458,-0.41721597,-0.6669628,-2.810127,-4.0087094,-4.6128311,-6.5755529,-10.576439,-14.168818,-12.490821,-1.2213606,20.180855,47.218925,72.106667,87.610718,90.713348,83.922249,73.514305,65.860405,64.058334,66.773613,69.73748,68.743759,62.213734,51.861778,41.298599,33.677406,29.945042,28.705065,27.576427,24.995611,21.230898,18.001673,17.061924,18.775156,21.668865,23.272743,21.681963,16.805841,10.463445,5.2350168,2.7889769,2.7595863,2.9158936,0.5423525,-5.836051,-15.494721,-25.950897,-34.532665,-40.048035,-43.434551,-46.933525,-52.338436,-59.54324,-66.472618,-70.555626,-70.793411,-68.937775,-68.768814,-73.698578,-84.14003,-96.420036,-104.17083,-101.58297,-86.642075,-62.368629,-35.268997,-11.955242,3.9459918,12.690892,16.702007,17.591885,14.14467,2.8142548,-19.466375,-52.054043,-89.271667,-122.17738,-142.61066,-147.1682,-138.72409,-124.60478,-112.5775,-107.07983,-107.81422,-111.21856,-113.5136,-113.20525,-111.54514,-110.99083,-113.04705,-117.11782,-121.08612,-123.00733,-122.54211,-121.06757,-120.48614,-121.74302,-124.224,-126.45129,-127.4439,-127.58833,-128.28178,-130.63443,-134.33832,-137.75862,-139.3678,-139.51311,-141.06032,-148.10843,-163.32634,-185.5777,-209.53427,-227.8232,-234.63043,-228.67772,-213.79781,-196.7795,-183.80403,-177.584,-176.76476,-177.66545,-177.01733,-173.90273,-169.82222,-167.14919,-167.24379,-169.5575,-172.2202,-173.51949,-173.11728,-172.14117,-172.15913,-173.84407,-176.31276,-177.60631,-175.97279,-171.08623,-164.41353,-158.519,-155.7489,-157.05331,-161.53781,-166.87556,-170.2774,-169.54074,-163.78671,-153.7021,-141.27762,-129.14091,-119.67001,-114.1722,-112.46719,-113.11149,-114.21151,-114.42475,-113.58126,-112.54126,-112.38073,-113.46278,-115.06638,-115.87495,-115.00036,-112.77763,-110.66956,-110.24471,-111.91605,-114.40228,-115.43852,-113.36697,-108.51057,-103.24751,-100.54182,-101.81799,-105.68984,-108.64327,-107.49918,-102.16039,-96.707581,-97.764465,-110.75307,-136.14038,-168.03462,-196.2589,-211.00284,-207.56801,-188.58119,-162.46786,-139.10533,-125.12442,-121.39035,-123.78972,-126.49403,-125.55811,-120.7762,-114.99838,-111.71861,-112.67214,-116.93201,-121.85543,-125.01282,-125.70856,-125.1276,-125.14115,-126.67949,-128.78792,-128.96033,-124.50008,-114.04922,-98.400024,-80.201454,-62.82716,-49.075993,-40.339207,-36.495419,-36.366505,-38.341522,-40.829666,-42.434685,-41.965473,-38.477146,-31.453547,-21.080124,-8.4277973,4.6450214,15.953967,23.707319,27.203789,27.16889,25.498125,24.435417,25.52021,28.81646,32.858002,35.400669,34.625069,30.145348,23.25033,16.230457,11.187408,9.0408964,9.3169823,10.78723,12.46279,14.219849,16.618052,20.087152,24.164431,27.475807,28.615948,27.352436,25.196665,24.691036,27.629143,33.289604,37.989799,36.592281,25.366365,4.5938396,-20.777309,-43.118141,-55.872723,-57.050755,-50.428879,-43.659908,-44.253059,-55.634148,-75.463875,-97.092819,-113.23885,-119.75151,-117.38065,-110.71696,-105.13475,-103.6465,-105.47844,-107.02911,-104.42603,-96.021416,-83.342209,-70.050621,-59.701515,-53.756115,-51.065434,-49.069427,-45.883228,-41.900902,-39.844723,-43.13213,-53.468117,-69.099968,-84.883247,-94.345917,-92.815865,-80.009644,-60.650925,-42.641273,-33.562817,-37.192371,-51.753124,-70.773949,-86.104973,-91.554871,-85.352776,-70.32827,-51.947304,-35.434498,-23.554949,-16.077129,-10.878871,-5.7519283,0.27082136,6.7342267,12.552323,17.005075,20.188137,22.702541,24.988585,26.940104,28.134352,28.446905,28.459055,29.210253,31.399866,34.661068,37.575607,38.579708,37.190048,34.616959,33.170521,34.728962,39.319843,44.942986,48.981339,50.380791,51.057247,55.310654,67.294357,88.007851,113.84977,137.97644,153.95123,159.54884,158.2187,156.98515,161.77429,172.93365,183.85793,183.93739,164.4579,124.17315,71.253235,20.267864,-14.334345,-24.793325,-13.178988,10.416316,33.415539,46.8745,48.96677,44.346825,40.296635,42.203461,50.942566,63.301075,74.675865,82.074944,85.573898,87.589775,90.76915,96.043259,102.09597,106.43412,107.19087,104.40012,99.937691,96.261528,94.857353,95.423676,96.28019,95.656487,92.967163,89.239914,86.459892,86.308876,89.142876,93.847687,98.602348,101.98599,103.67852,104.33551,104.81892,105.41194,105.62743,104.75009,102.67163,100.31368,99.202301,100.39482,103.5154,106.69766,107.66598,105.35439,100.94384,97.420425,97.668457,102.16339,107.8055,108.9258,100.21893,80.070564,52.293552,25.040459,7.2446361,4.4214015,16.113911,36.37735,56.973545,71.43158,77.732231,78.305763,77.679916,79.437042,84.347031,90.589211,95.557396,97.806404,97.811111,97.199112,97.23494,97.791557,97.56971,95.319778,91.051498,86.246803,82.880478,81.993576,82.938065,83.921616,83.48011,81.745132,80.452248,81.547363,85.356033,89.758881,91.246292,87.428123,79.42363,72.391045,73.485573,88.153496,116.83902,154.10065,190.79855,218.22627,231.92952,233.17522,227.44989,221.07726,218.00565,218.49283,220.10735,220.05273,217.18401,212.53146,208.27138,206.08803,206.12425,207.1443,207.61852,206.84129,205.28609,204.04153,203.85454,204.53944,205.17082,204.8566,203.46121,201.71759,200.6503,200.75613,201.56268,201.89725,200.67496,197.64284,193.55957,189.70094,187.05144,185.73853,185.06578,184.06927,182.17708,179.52667,176.77956,174.63438,173.41699,173.00745,173.0751,173.36482,173.78203,174.23541,174.42674,173.83527,171.98119,168.80263,164.84985,161.10225,158.47948,157.34795,157.34117,157.60161,157.26765,155.88133,153.48116,150.39255,146.93779,143.30299,139.62466,136.14754,133.24194,131.20499,129.99124,129.12712,127.94783,126.03227,123.5124,120.98144,119.01754,117.66207,116.28209,113.99376,110.38744,106.00256,102.11207,99.861198,99.336281,99.29969,97.934662,94.211235,88.92083,84.484955,83.382904,86.029587,89.500008,88.181183,76.33419,51.311012,15.591544,-23.67897,-57.607212,-79.462486,-87.516571,-85.339928,-79.517395,-76.162407,-78.169205,-84.559105,-91.966003,-97.100105,-98.636444,-97.547501,-95.98288,-95.664879,-96.906242,-98.769806,-100.05445,-100.28482,-100.00187,-100.23803,-101.65794,-104.03693,-106.4409,-107.93072,-108.24469,-107.96642,-108.08836,-109.32003,-111.64539,-114.4162,-116.86099,-118.60217,-119.80613,-120.89831,-122.11021,-123.23746,-123.80226,-123.48386,-122.46344,-121.39043,-120.96758,-121.45116,-122.44305,-123.14926,-122.94075,-121.8257,-120.49549,-119.90327,-120.66316,-122.68408,-125.28509,-127.70034,-129.61104,-131.33058,-133.52045,-136.64786,-140.57436,-144.56609,-147.71608,-149.4816,-149.96782,-149.77684,-149.54922,-149.5338,-149.48589,-148.94659,-147.67903,-145.93019,-144.32156,-143.44856,-143.48311,-144.07379,-144.62184,-144.73767,-144.54756,-144.62344,-145.57544,-147.58954,-150.23595,-152.68805,-154.20602,-154.5573,-154.09502,-153.45941,-153.1313,-153.16125,-153.25734,-153.13919,-152.86195,-152.83179,-153.47072,-154.77287,-156.11479,-156.53329,-155.35423,-152.76947,-149.93254,-148.41927,-149.31625,-152.48203,-156.47035,-159.22614,-159.18716,-156.15549,-151.4182,-147.03796,-144.72652,-144.9561,-146.8058,-148.5899,-148.85605,-147.15436,-144.16066,-141.15407,-139.22618,-138.71201,-139.13673,-139.62531,-139.45589,-138.41066,-136.76834,-135.03596,-133.65407,-132.85938,-132.72147,-133.23112,-134.31195,-135.74216,-137.09831,-137.85127,-137.62909,-136.49858,-135.04372,-134.11293,-134.32545,-135.62297,-137.18132,-137.81357,-136.69875,-134.04095,-131.24921,-130.45547,-133.53648,-141.08719,-151.85687,-162.96936,-170.89774,-172.81815,-167.77998,-157.18408,-144.3354,-133.22253,-127.01621,-126.92002,-131.86774,-139.18202,-145.85127,-149.77715,-150.3736,-148.27441,-144.43716,-139.3055,-132.65523,-124.28591,-115.09167,-107.66461,-105.74667,-112.52512,-128.57649,-150.68169,-172.42767,-186.57967,-188.16745,-176.71397,-156.40025,-134.04153,-115.93324,-105.21741,-101.07441,-99.976425,-98.097153,-93.42588,-86.468948,-79.370438,-74.227516,-71.743782,-70.991486,-70.253487,-68.2397,-64.835663,-60.965721,-57.793396,-55.888416,-54.92128,-54.010914,-52.390461,-49.890793,-46.942799,-44.176506,-41.95549,-40.163918,-38.324951,-35.88982,-32.478432,-27.980124,-22.582006,-16.815681,-11.581283,-7.9698453,-6.7504177,-7.6573339,-8.9246798,-7.5777259,-0.64202535,13.187756,32.36058,52.645985,68.867332,77.41478,78.135574,74.397003,71.122932,71.850288,76.546989,81.573524,81.907867,74.341423,59.691139,42.621696,29.128407,23.196304,24.687037,29.750738,33.474018,33.059875,29.496304,26.634163,28.254913,35.013695,43.261848,46.60878,39.390579,20.026663,-7.7125182,-36.278587,-57.870831,-67.958145,-66.946877,-59.289242,-50.773197,-45.624756,-44.935234,-46.984631,-48.913338,-48.566002,-45.478214,-40.681534,-35.747551,-31.82445,-29.222029,-27.610283,-26.490915,-25.529547,-24.571861,-23.473837,-22.006821,-19.978855,-17.473436,-14.961605,-13.117588,-12.405344,-12.712391,-13.316116,-13.255014,-11.8914,-9.3018093,-6.2316713,-3.6382782,-2.1207156,-1.6059988,-1.4779426,-1.029773,0.092047483,1.7580104,3.6009707,5.4156599,7.3759646,9.8721104,13.065315,16.496777,19.090799,19.641621,17.532288,13.237607,8.2562504,4.4542327,3.1685996,4.5795999,7.7039146,10.991119,13.155581,13.765434,13.295218,12.694003,12.796116,13.938934,15.954942,18.433359,20.994993,23.383938,25.378927,26.695583,27.050594,26.395029,25.134321,24.103912,24.220478,25.978619,29.119257,32.722519,35.704304,37.410801,37.921791,37.868217,37.914528,38.299351,38.781841,39.023022,39.075123,39.534462,41.152657,44.141762,47.721661,50.371429,50.767467,48.833736,46.114235,45.028469,47.318653,52.655293,58.442055,61.207756,58.942917,52.988766,48.160561,50.734192,65.217773,91.672417,125.16987,157.82571,182.38438,195.4334,198.53935,196.79939,195.76198,198.51981,204.53764,210.65358,213.40781,211.18797,204.97769,197.48068,191.39392,188.00021,186.86974,186.63812,186.15079,185.15103,184.1445,183.7114,183.89558,184.15466,183.86247,182.90923,181.87593,181.60286,182.4574,183.86253,184.48495,183.01448,179.03481,173.39766,167.83223,164.02571,162.75064,163.56619,165.22931,166.49625,166.78203,166.29803,165.67375,165.40565,165.53906,165.76053,165.75047,165.46638,165.11617,164.85759,164.49898,163.49283,161.29016,157.8277,153.77695,150.31284,148.48183,148.54413,149.72183,150.55341,149.68022,146.61418,142.03763,137.4631,134.45506,133.85582,135.42793,138.06206,140.37833,141.36346,140.72243,138.82915,136.38908,134.04544,132.12679,130.60728,129.22598,127.66136,125.6794,123.22221,120.43384,117.61995,115.13602,113.22277,111.85205,110.67615,109.14571,106.77496,103.43163,99.485817,95.70594,92.925812,91.643852,91.769997,92.665154,93.460701,93.489998,92.603394,91.204941,90.002792,89.615929,90.24472,91.564163,92.872879,93.403778,92.638138,90.487236,87.287666,83.646202,80.223862,77.54985,75.919136,75.380112,75.785217,76.866638,78.306877,79.789551,81.030739,81.798805,81.932297,81.359398,80.113823,78.334984,76.240692,74.070839,72.016891,70.165367,68.483391,66.857681,65.171005,63.377407,61.53503,59.775772,58.227318,56.931545,55.808445,54.688385,53.394176,51.821449,49.966011,47.881516,45.60104,43.087837,40.267624,37.139347,33.895763,30.955595,28.845133,27.957535,28.310928,29.457355,30.630564,31.086683,30.465656,28.966661,27.222746,25.933474,25.464943,25.654633,25.936594,25.702295,24.662601,22.980528,21.104166,19.43911,18.110157,16.988567,15.946868,15.103889,14.796731,15.210862,15.89525,15.571102,12.542218,5.6459866,-4.7395062,-16.302219,-25.455629,-28.918966,-25.490269,-17.039261,-8.0510588,-3.7835724,-7.8664122,-20.526947,-38.353943,-55.737175,-67.272774,-69.963211,-64.203163,-53.209999,-41.340954,-32.215614,-27.517302,-26.87229,-28.615488,-30.871981,-32.375748,-32.733677,-32.204922,-31.286642,-30.395021,-29.768158,-29.537182,-29.824942,-30.763563,-32.417343,-34.678368,-37.22237,-39.573887,-41.26651,-42.031158,-41.924236,-41.324539,-40.780388,-40.761478,-41.432209,-42.573601,-43.71571,-44.421204,-44.553829,-44.352654,-44.245644,-44.51704,-45.06855,-45.477425,-45.352863,-44.752281,-44.322712,-44.982616,-47.287064,-50.90044,-54.60931,-56.982956,-57.318649,-56.222721,-55.328453,-56.202423,-59.105873,-62.513718,-63.916512,-61.607094,-56.397579,-52.059784,-53.927109,-66.20652,-89.44722,-119.68684,-149.92659,-173.25195,-185.92726,-188.77687,-186.15927,-183.24236,-183.23656,-186.16161,-189.69022,-191.30566,-190.26115,-188.08434,-187.41557,-190.08459,-195.78571,-202.23888,-206.68166,-207.64613,-205.82352,-203.47841,-202.86595,-204.75082,-208.00735,-210.50946,-210.64542,-208.40591,-205.33357,-203.42207,-203.75612,-205.81917,-207.90562,-208.31612,-206.51236,-203.47813,-201.09393,-200.98024,-203.5674,-207.93924,-212.45728,-215.68994,-217.05185,-216.83667,-215.76486,-214.45,-213.14673,-211.86052,-210.61337,-209.58424,-209.00281,-208.91733,-209.07524,-209.05632,-208.57446,-207.70267,-206.81821,-206.28378,-206.10657,-205.8632,-204.99614,-203.29732,-201.21997,-199.74039,-199.79242,-201.61365,-204.44572,-206.83377,-207.38934,-205.5701,-201.99719,-198.10895,-195.35831,-194.43895,-194.9948,-195.95589,-196.25578,-195.46944,-193.9919,-192.69069,-192.29582,-192.93518,-194.09843,-195.01924,-195.1958,-194.69118,-194.00452,-193.57657,-193.22191,-191.83357,-187.56729,-178.46806,-163.28259,-142.1111,-116.61668,-89.68795,-64.660446,-44.366001,-30.342957,-22.48597,-19.256498,-18.365231,-17.653263,-15.818536,-12.705328,-9.0750275,-6.0167427,-4.3158102,-4.0915327,-4.8466411,-5.8352656,-6.4915872,-6.6596227,-6.5198503,-6.3130088,-6.0832572,-5.6245313,-4.6514053,-3.0461726,-0.98041314,1.1916354,3.1911268,5.0215449,6.9473286,9.2327309,11.818872,14.188734,15.560006,15.320847,13.438406,10.561963,7.7288847,5.8426986,5.2477603,5.6623449,6.4891124,7.2681103,7.9515018,8.8250704,10.17204,11.969768,13.8783,15.539251,16.935106,18.477594,20.685116,23.647701,26.706553,28.688992,28.655977,26.692314,24.12916,22.894623,24.288109,27.964907,31.914686,33.636364,31.878735,27.790052,24.527534,25.293093,30.859058,38.201439,41.407776,34.726566,16.21059,-10.219623,-35.807426,-50.923397,-50.029934,-34.928009,-14.311891,0.39531702,0.86941677,-13.702574,-36.041351,-54.42244,-58.679775,-45.433025,-19.837795,6.9765201,23.363451,22.669001,6.0762181,-18.419567,-40.092445,-50.382229,-46.203835,-30.332211,-9.1268806,10.888036,25.765335,35.034027,40.730427,45.483936,50.873497,56.864998,62.37413,66.354469,68.625038,69.955597,71.469254,73.848221,76.898285,79.740425,81.464973,81.789047,81.276917,80.987076,81.79155,83.823914,86.419632,88.580376,89.644325,89.709106,89.525543,89.944351,91.309517,93.233414,94.923134,95.83075,96.14846,96.752533,98.578796,101.8367,105.63444,108.35371,108.61049,106.20107,102.37634,99.184563,98.23703,99.673927,102.03423,103.17709,101.70596,97.97213,93.950638,91.9795,93.09816,96.029274,97.507141,93.864052,83.031242,65.856667,46.031136,28.687069,18.414259,17.638863,25.982801,40.637791,57.34333,71.482513,79.036819,77.398476,66.081055,47.178581,25.22044,6.125587,-4.6402278,-4.0637646,7.1941886,25.060274,43.792805,58.410347,66.606155,69.221207,69.152832,69.433479,71.610779,75.27169,78.793411,80.66729,80.486069,79.025826,77.519676,76.742622,76.574562,76.292572,75.293228,73.657326,72.129402,71.548676,72.182755,73.478584,74.423073,74.246864,72.951347,71.274597,70.131157,69.949059,70.398399,70.707405,70.317764,69.371361,68.642441,68.944649,70.446281,72.415665,73.617836,73.107643,70.861259,67.789642,65.118515,63.583714,63.032051,62.721081,62.082352,61.342152,61.471317,63.43058,67.240845,71.614914,74.545631,74.559944,71.795647,68.067429,65.717094,65.908401,67.532814,67.638802,63.369892,54.353935,44.018459,38.780056,45.252773,66.84037,101.56635,142.41692,180.13185,207.04797,220.05115,221.22688,216.08292,210.4883,208.02205,208.99799,211.36244,212.61958,211.51511,208.5688,205.3779,203.3611,202.84218,203.01656,202.69968,201.26093,199.09294,197.33395,197.07297,198.58588,201.09549,203.19051,203.62538,202.01128,199.00496,195.91907,194.00876,193.84421,195.09047,196.76373,197.77499,197.44899,195.76314,193.23421,190.57057,188.30869,186.62082,185.35779,184.25233,183.13295,182.01591,181.03297,180.25677,179.54643,178.52281,176.70955,173.7829,169.80893,165.34071,161.30162,158.67294,158.09506,159.5473,162.26302,164.95486,166.29399,165.45372,162.46614,158.19635,153.91391,150.65733,148.72504,147.58556,146.27673,144.06917,140.98604,137.83203,135.68121,135.13347,135.83461,136.61823,136.22829,134.17134,131.11322,128.50148,127.6115,128.63997,130.48972,131.45209,130.36707,127.46174,124.23321,122.38583,122.534,123.63183,123.65465,121.1728,116.71738,112.80173,112.25795,115.7238,119.90119,118.00245,102.61076,69.669792,21.426495,-33.494461,-83.223381,-117.5419,-132.07051,-129.62769,-118.18282,-106.65661,-100.88218,-101.75481,-106.20755,-110.03407,-110.69082,-108.49762,-105.82695,-105.13241,-107.24489,-110.98944,-114.19183,-115.24139,-114.11597,-112.2506,-111.45383,-112.67698,-115.45447,-118.3131,-119.78981,-119.34354,-117.59525,-115.82671,-115.15122,-115.92294,-117.71587,-119.78277,-121.60031,-123.11177,-124.54917,-126.03827,-127.3313,-127.8909,-127.27187,-125.52084,-123.29459,-121.58888,-121.23223,-122.45156,-124.76712,-127.26381,-129.06258,-129.71704,-129.33638,-128.41751,-127.53294,-127.06898,-127.13264,-127.61661,-128.323,-129.04906,-129.60826,-129.83136,-129.60542,-128.95715,-128.12103,-127.51044,-127.56229,-128.51627,-130.25597,-132.32219,-134.11374,-135.17412,-135.40381,-135.07979,-134.68051,-134.63147,-135.12538,-136.10843,-137.40698,-138.88007,-140.48294,-142.21092,-143.99409,-145.65309,-146.97322,-147.84952,-148.38362,-148.83713,-149.45374,-150.27542,-151.10188,-151.64665,-151.78816,-151.71797,-151.83542,-152.4175,-153.28409,-153.73732,-152.91342,-150.41373,-146.85355,-143.9465,-143.96669,-148.78165,-158.91339,-173.09911,-188.57596,-201.95715,-210.30643,-211.98912,-207.05531,-197.14891,-185.08133,-174.20892,-167.68553,-167.64673,-174.47713,-186.44145,-199.9734,-210.71223,-215.00848,-211.29671,-200.68504,-186.43141,-172.52271,-162.04094,-156.10603,-153.85373,-153.33185,-152.72235,-151.19539,-149.00948,-146.96741,-145.69737,-145.24542,-145.17015,-144.95877,-144.39655,-143.62413,-142.90016,-142.31949,-141.74715,-141.02242,-140.24193,-139.8457,-140.37764,-142.06039,-144.50153,-146.78772,-147.95738,-147.56105,-145.93266,-143.97844,-142.61635,-142.24084,-142.56647,-142.93651,-142.85651,-142.36229,-141.96123,-142.20018,-143.18462,-144.40848,-145.02902,-144.40086,-142.49727,-139.92531,-137.52519,-135.82968,-134.74736,-133.67064,-131.91711,-129.19766,-125.80879,-122.44975,-119.81479,-118.23488,-117.57317,-117.38795,-117.2119,-116.76403,-116.00507,-115.07187,-114.181,-113.55364,-113.34613,-113.55521,-113.92531,-113.95413,-113.08066,-111.01846,-108.04491,-105.00815,-102.94997,-102.50475,-103.44262,-104.70065,-104.96204,-103.46394,-100.50887,-97.297729,-95.136772,-94.515549,-94.690285,-94.106239,-91.430748,-86.521461,-80.650414,-75.778404,-73.32309,-73.241699,-74.073524,-73.95105,-71.91494,-68.627792,-65.962021,-65.69973,-68.209755,-72.018639,-74.612961,-73.981834,-69.893837,-64.062286,-59.084526,-56.852264,-57.468311,-59.344826,-60.353718,-59.208694,-56.150543,-52.538811,-49.732689,-48.116852,-46.968864,-45.209263,-42.411442,-39.264423,-37.106411,-36.862434,-38.190643,-39.513817,-38.970749,-35.63588,-30.135405,-24.207397,-19.516205,-16.578703,-14.581957,-12.212087,-8.8513212,-5.2042656,-2.8241913,-2.8466232,-4.8860512,-7.0093951,-6.9501948,-3.7819433,1.1816417,5.0702019,5.4721723,2.5336914,-0.32622308,2.2204335,14.578992,37.542759,67.375435,97.28997,120.53856,133.3976,136.44875,133.61711,129.73494,128.14056,129.59346,132.82265,136.01015,138.08733,139.08282,139.55824,139.80255,139.50848,138.15913,135.73457,133.08432,131.58334,132.26683,135.07071,138.76176,141.65479,142.64571,141.85767,140.46808,139.85991,140.70418,142.60428,144.51273,145.57655,145.77982,145.92432,146.9864,149.34132,152.43161,155.12372,156.49419,156.4801,155.93192,156.03697,157.52551,160.21216,163.17528,165.4225,166.56036,167.00545,167.61682,169.03816,171.22423,173.47049,174.89503,175.0116,173.998,172.51036,171.22701,170.47701,170.20476,170.23831,170.59148,171.52052,173.27628,175.76407,178.42679,180.51079,181.56978,181.8416,182.17923,183.51796,186.20792,189.67938,192.71538,194.19836,193.85197,192.46695,191.42467,191.80687,193.6821,196.07123,197.65276,197.75803,196.96902,196.84239,198.83069,203.01437,207.45009,208.6416,203.01358,188.67897,166.58459,140.41652,115.27782,95.766632,84.353554,80.762672,82.532219,86.364571,89.557823,90.871979,90.547371,89.642403,89.160614,89.460129,90.207108,90.796532,90.908218,90.822388,91.296387,93.089134,96.442101,100.85331,105.29659,108.75517,110.73491,111.434,111.47164,111.37659,111.20421,110.56549,109.05639,106.77132,104.48978,103.33037,104.04762,106.44138,109.32845,111.17457,111.02222,109.10274,106.68951,105.24888,105.44633,106.70522,107.66219,107.23229,105.51962,103.8483,103.7611,105.57941,107.5226,106.13016,97.935745,81.509232,58.665771,34.07766,13.453166,1.2769668,-0.6926803,6.484879,20.009853,36.698193,53.749241,68.681664,78.930885,81.887642,75.770859,60.95116,40.765678,20.96537,7.7170701,5.0491714,13.117743,28.303774,45.122475,58.873219,67.556793,72.087189,74.895439,77.968605,81.59642,84.510933,85.132561,82.940674,79.001328,75.344765,73.696358,74.467072,76.659882,78.668999,79.341759,78.556778,76.991447,75.369415,73.834274,71.94429,69.260155,66.010139,63.234856,62.202618,63.458599,66.201195,68.509178,68.375748,64.930626,59.056095,52.962212,48.949883,48.116142,49.794617,52.051796,52.892719,51.403454,48.139919,44.586742,42.105125,41.076664,40.765644,39.917351,37.635441,33.944191,29.703844,26.003584,23.48728,22.062582,21.135622,20.138199,18.935871,17.833551,17.21697,17.140997,17.202734,16.808037,15.629642,13.896508,12.267189,11.347408,11.191059,11.166872,10.335316,8.11763,4.8040991,1.5168906,-0.41279256,-0.29371029,1.3961413,3.1783264,3.3903108,1.175894,-2.9630415,-7.4213123,-10.431646,-11.143462,-10.190422,-9.3949556,-10.772093,-15.41156,-22.882704,-31.486544,-39.174999,-44.57872,-47.555511,-48.994164,-50.070667,-51.466488,-53.038086,-54.104408,-54.111538,-53.200417,-52.284714,-52.576294,-54.858601,-58.971928,-63.842724,-68.050545,-70.598091,-71.432045,-71.421936,-71.832619,-73.618439,-76.950027,-81.220016,-85.474953,-88.97654,-91.547531,-93.521675,-95.376022,-97.312637,-99.064148,-100.03413,-99.663544,-97.781227,-94.725296,-91.182472,-87.869659,-85.263008,-83.520409,-82.598541,-82.437149,-83.057549,-84.503998,-86.680061,-89.207726,-91.419151,-92.505913,-91.765968,-88.861549,-84.027725,-78.202454,-73.03701,-70.70034,-73.383904,-82.51638,-97.906296,-117.22681,-136.27119,-150.13466,-154.99635,-149.7382,-136.54811,-120.05675,-105.3023,-95.502533,-90.807098,-88.720825,-85.955734,-80.618355,-73.407867,-67.076439,-64.478287,-66.453979,-70.966583,-74.170944,-72.87748,-66.921249,-59.890125,-57.587158,-64.967377,-83.263245,-108.97715,-135.37001,-155.63805,-166.01236,-167.11188,-162.94705,-158.33994,-156.36104,-157.21387,-158.99232,-159.56903,-158.27286,-156.30759,-155.78644,-158.16893,-163.20497,-169.06029,-173.46498,-175.06847,-174.11893,-172.10185,-170.68066,-170.69456,-171.8418,-173.14621,-173.77113,-173.56755,-173.0098,-172.65244,-172.57903,-172.2804,-171.04951,-168.5854,-165.34613,-162.37856,-160.72856,-160.82739,-162.25722,-164.03288,-165.19495,-165.32518,-164.6803,-163.91022,-163.58852,-163.86646,-164.43883,-164.78865,-164.51686,-163.55084,-162.14037,-160.68977,-159.54942,-158.87302,-158.58322,-158.43236,-158.1235,-157.45169,-156.41438,-155.22993,-154.22232,-153.60214,-153.2634,-152.7527,-151.49263,-149.17416,-146.07739,-143.06764,-141.18799,-141.04385,-142.36041,-144.03725,-144.72725,-143.61021,-140.86639,-137.52252,-134.75475,-133.11546,-132.22533,-131.15958,-129.25908,-126.76419,-124.76156,-124.41882,-126.02887,-128.59351,-130.35298,-129.99902,-127.75037,-125.44419,-125.38687,-128.56075,-133.33138,-135.6295,-130.73813,-115.80184,-91.63932,-62.756413,-35.462986,-15.087825,-3.7931445,-0.10891221,-0.28727192,-0.55632901,1.0574952,4.265265,7.4287691,9.0594692,8.8831415,7.8812237,7.4602404,8.4409981,10.57544,12.846715,14.24547,14.434783,13.871648,13.386287,13.595278,14.587454,16.061392,17.73559,19.665882,22.212515,25.694275,30.015282,34.566425,38.490177,41.125259,42.323341,42.43623,42.018066,41.48127,40.949089,40.371456,39.76178,39.331356,39.400932,40.164135,41.505894,43.038651,44.343891,45.238232,45.857769,46.495571,47.324814,48.237133,48.938126,49.230412,49.24131,49.36002,49.851456,50.375145,49.767735,46.336838,38.615997,26.230543,10.41385,-6.1339073,-20.029797,-28.316086,-29.447618,-23.803802,-13.587591,-2.1867831,6.7999387,10.623025,8.2630997,0.86360282,-8.5048647,-15.799402,-17.442402,-11.714963,0.52398491,16.203533,31.403774,43.092693,50.362476,54.516758,57.981911,62.688652,68.886765,75.098267,79.216057,80.035133,78.217155,76.032555,76.000916,79.274979,84.819763,89.974594,92.124748,90.486572,86.885582,84.979729,88.3097,98.279869,113.24199,129.2234,141.89088,148.64076,149.66605,147.48042,145.28027,145.16138,147.21066,149.90036,151.40656,150.95148,149.32707,148.32555,149.50664,153.13042,157.94601,161.96017,163.68169,163.04385,161.42107,160.73547,162.22578,165.66391,169.52238,171.99649,172.23929,171.02014,170.36176,172.34073,177.76553,185.54492,193.16028,197.9966,198.76596,196.19478,192.57811,190.46902,191.26437,194.47949,198.07123,199.5515,197.2162,190.8311,181.51717,171.07219,161.22932,153.24741,147.88156,145.48596,145.97939,148.65642,152.11552,154.6221,154.92999,153.13823,150.91948,150.6895,153.93861,159.62495,163.74211,160.66762,145.88344,118.72237,83.556221,48.54126,22.342352,10.422555,12.804805,24.4562,38.029678,47.440113,50.378971,48.576759,45.9534,45.946941,49.621025,55.504131,60.975983,64.117943,64.809105,64.48365,64.89315,66.821465,69.62326,71.815796,72.220016,70.815819,68.735695,67.452408,67.766869,69.305817,70.85321,71.253616,70.248627,68.679878,67.941978,69.073341,72.092697,75.995468,79.372269,81.216461,81.406265,80.605865,79.729996,79.378113,79.605881,80.119194,80.667633,81.298416,82.27578,83.750877,85.470634,86.790764,87.030159,85.939568,83.951859,82.012421,81.067245,81.518173,82.982658,84.500504,85.050568,84.061966,81.63916,78.426247,75.259468,72.84465,71.605972,71.67688,72.894875,74.710487,76.082008,75.555412,71.685608,63.729538,52.27652,39.381783,27.957254,20.58119,18.278587,19.935879,22.735477,23.458124,20.009455,12.380764,2.5519814,-6.5781293,-12.630749,-14.788247,-13.945064,-12.001976,-10.794377,-11.27312,-13.317074,-16.134995,-18.889442,-21.128914,-22.832726,-24.169649,-25.23831,-26.000362,-26.414545,-26.602409,-26.86047,-27.478743,-28.506365,-29.671989,-30.561508,-30.956163,-31.09289,-31.638065,-33.352928,-36.642212,-41.266689,-46.400059,-50.993668,-54.227631,-55.797707,-55.918884,-55.114632,-53.968662,-52.981354,-52.544422,-52.942547,-54.295105,-56.452686,-58.961727,-61.205143,-62.702225,-63.39946,-63.737137,-64.39608,-65.849762,-68.009262,-70.220108,-71.646828,-71.809776,-70.914116,-69.736397,-69.135498,-69.522255,-70.660423,-71.940102,-72.922157,-73.744446,-75.068405,-77.576233,-81.371735,-85.737869,-89.473549,-91.621521,-92.099068,-91.778122,-91.924568,-93.352821,-95.867348,-98.384399,-99.667427,-99.183014,-97.491447,-95.898102,-95.59877,-96.90255,-99.064903,-100.84389,-101.39412,-100.87991,-100.38118,-101.14646,-103.68454,-107.28279,-110.24296,-110.65074,-107.17648,-99.446205,-87.870293,-73.200165,-56.224064,-37.821861,-19.241642,-2.2246678,11.316877,20.01803,23.766066,23.891306,22.613903,21.984104,22.903275,24.797382,26.131411,25.44487,22.284441,17.497646,12.763162,9.6923981,9.0553703,10.545507,13.126231,15.655984,17.382824,18.067221,17.781235,16.632418,14.649665,11.887522,8.6104431,5.3559699,2.7790344,1.3564488,1.1431863,1.7410984,2.4983683,2.8126414,2.3628728,1.1641567,-0.53764588,-2.4309101,-4.26405,-5.8974867,-7.3075523,-8.5776987,-9.8780718,-11.405295,-13.271704,-15.389041,-17.433718,-18.956587,-19.609684,-19.365599,-18.581144,-17.840002,-17.652521,-18.196276,-19.265915,-20.466528,-21.518448,-22.461329,-23.61204,-25.303082,-27.585686,-30.113165,-32.299442,-33.65863,-34.104355,-34.012386,-34.007118,-34.612495,-35.98695,-37.891392,-39.87674,-41.540447,-42.683079,-43.296154,-43.445728,-43.179504,-42.536934,-41.631153,-40.696674,-40.023422,-39.805164,-40.024937,-40.492619,-41.030861,-41.664906,-42.63266,-44.152119,-46.095123,-47.85891,-48.660355,-48.198753,-47.30587,-48.066566,-53.100773,-64.183556,-80.872284,-99.979523,-116.40598,-125.14895,-123.60323,-112.99024,-98.097565,-85.337357,-80.004608,-84.048241,-95.413605,-109.20743,-120.02106,-124.22079,-121.13771,-112.75442,-102.28702,-92.552872,-84.962692,-79.483109,-75.320168,-71.735214,-68.476585,-65.680901,-63.483559,-61.727238,-60.007702,-57.993092,-55.731525,-53.676441,-52.382801,-52.085724,-52.472523,-52.829639,-52.481598,-51.230591,-49.498573,-48.072697,-47.619457,-48.282753,-49.61747,-50.884441,-51.501171,-51.358093,-50.818115,-50.432316,-50.577168,-51.241276,-52.064808,-52.564663,-52.38073,-51.407063,-49.781837,-47.806927,-45.880028,-44.457611,-43.996258,-44.817394,-46.916199,-49.828243,-52.688152,-54.524841,-54.683136,-53.150173,-50.585346,-48.010418,-46.316883,-45.862061,-46.37381,-47.196888,-47.71056,-47.657715,-47.202682,-46.720654,-46.489922,-46.501022,-46.496159,-46.185829,-45.474449,-44.535149,-43.690617,-43.193287,-43.059959,-43.067902,-42.903248,-42.353165,-41.416069,-40.271423,-39.148479,-38.192032,-37.409046,-36.712566,-36.011845,-35.27589,-34.529274,-33.794559,-33.033699,-32.138206,-30.982998,-29.517332,-27.84347,-26.237181,-25.087616,-24.765488,-25.459431,-27.044123,-29.048405,-30.766451,-31.49612,-30.817488,-28.78088,-25.895815,-22.904272,-20.440882,-18.756401,-17.654741,-16.67234,-15.383658,-13.641415,-11.609842,-9.5929918,-7.8012524,-6.2359605,-4.7762618,-3.3904901,-2.2874184,-1.8556807,-2.3981361,-3.8390994,-5.6348648,-6.9989905,-7.3351564,-6.6048107,-5.3706999,-4.4566865,-4.4213881,-5.1813745,-6.0364861,-6.0936651,-4.825386,-2.410275,0.35441017,2.5031264,3.4271619,3.1602235,2.2851341,1.5673076,1.5669529,2.4462099,4.0192151,5.9327703,7.8235731,9.3839493,10.382253,10.720208,10.535968,10.258309,10.49577,11.751815,14.118017,17.169592,20.18091,22.546001,24.1064,25.12294,25.891819,26.317257,25.85467,23.997414,21.023581,18.381674,18.185751,21.847248,28.56851,34.76115,35.095898,24.951178,3.053051,-27.247131,-59.003147,-84.67099,-99.525887,-103.60844,-101.10733,-97.586967,-96.753456,-98.703506,-100.6375,-99.436577,-94.312065,-87.703697,-83.759995,-85.33844,-91.479927,-97.081131,-95.151375,-80.443085,-52.388756,-15.680917,21.787289,52.416,71.923653,80.443588,81.453445,79.4925,78.088966,78.887047,82.037628,87.153763,93.984299,102.40741,111.97733,121.5956,129.7204,135.05205,137.22974,137.04097,135.98454,135.4696,136.15549,137.80196,139.63274,140.89581,141.24359,140.75948,139.73795,138.4675,137.18622,136.17639,135.82301,136.49635,138.29439,140.83983,143.32999,144.87271,144.93291,143.62009,141.6413,139.95432,139.33148,140.06853,141.94846,144.40775,146.76936,148.4411,149.06346,148.62907,147.55347,146.61165,146.66762,148.25049,151.19293,154.59842,157.25366,158.3119,157.83923,156.83478,156.6425,158.08591,160.88655,163.78084,165.29379,164.66605,162.29924,159.40823,157.13959,155.82617,154.9715,154.00768,153.22343,154.00372,157.91682,165.02621,172.53336,174.91512,165.95477,141.88008,103.9565,58.944504,16.877644,-12.913965,-25.585911,-22.465954,-9.8575134,4.2908578,14.02981,17.531542,16.840628,15.758301,17.286579,22.071318,28.490381,34.001774,36.730247,36.341591,33.868725,30.845348,28.431808,27.049803,26.584476,26.823158,27.727272,29.365097,31.645258,34.13995,36.185593,37.207005,37.030449,35.962963,34.592991,33.462086,32.824425,32.617924,32.608276,32.565907,32.359463,31.953794,31.382439,30.754576,30.278856,30.22872,30.807348,31.975666,33.387741,34.540413,35.089947,35.12851,35.189796,35.91787,37.588909,39.829067,41.779739,42.655231,42.324112,41.469975,41.145607,41.975048,43.568623,44.638424,43.841038,40.824844,36.72401,33.638416,33.319798,35.897102,39.560883,41.557812,39.952454,34.998562,29.09798,25.203466,24.6059,25.600155,24.102535,16.083069,0.42184722,-19.656158,-37.691284,-47.244709,-45.506893,-35.110973,-22.969746,-16.694559,-20.604502,-33.588722,-49.975609,-62.776497,-67.317574,-63.174664,-53.499229,-42.483521,-32.788803,-24.596825,-16.709475,-8.6769133,-2.2487376,-0.95498967,-7.9613304,-23.592146,-44.232761,-63.494862,-75.101151,-75.848663,-66.946808,-53.019833,-39.461887,-29.751471,-24.226149,-20.815706,-17.014635,-11.71349,-5.7690382,-1.1271901,0.73267341,-0.097140685,-2.0161223,-3.0182769,-2.0148275,0.53257114,3.0535862,4.0253468,3.0246665,0.97397172,-0.54436743,-0.40184069,1.3000513,3.3002651,4.0240536,2.6251311,-0.46312025,-3.8112187,-5.9026551,-6.060441,-4.7899351,-3.3318498,-2.7421057,-3.1303542,-3.5976727,-2.9691429,-0.88919979,1.4389926,1.446067,-3.6171761,-15.044449,-31.487568,-48.989216,-62.424431,-67.787186,-64.233063,-54.799465,-45.313229,-41.89003,-48.174438,-63.652958,-83.869598,-102.4253,-113.74836,-115.26623,-107.98467,-95.370369,-81.328117,-68.457314,-57.462967,-47.807671,-38.929771,-31.090115,-25.280819,-22.354668,-22.106413,-23.065849,-23.235659,-21.300716,-17.457743,-13.245875,-10.4543,-9.8548565,-10.668674,-11.181768,-10.100833,-7.666131,-5.648808,-6.1204777,-9.788662,-15.096624,-18.857374,-18.16818,-12.413081,-3.977102,2.9451275,4.8179975,0.97427422,-5.8984642,-11.396624,-12.180259,-8.1162691,-2.3635671,0.70927054,-1.5412174,-8.1560249,-15.012671,-17.347698,-12.767156,-2.815572,7.9024057,14.469881,14.491148,9.1875887,2.0848424,-3.7927241,-8.321847,-14.630303,-27.080702,-48.107754,-75.899765,-104.43899,-126.00945,-134.82169,-129.76437,-114.81763,-96.983292,-82.905609,-75.946678,-75.09626,-76.051399,-73.7173,-64.80275,-49.310295,-30.370678,-12.669798,-0.29799783,4.9771132,4.2646837,0.73233485,-2.1536326,-2.4384389,-0.588844,1.0230522,-0.17628008,-5.0365343,-11.748781,-16.64636,-16.475319,-10.876665,-3.4913945,-0.73948616,-8.6609373,-29.462,-59.78426,-91.869911,-117.16932,-130.47417,-132.27911,-128.05548,-124.89843,-127.52056,-135.88432,-145.72359,-151.45544,-149.61998,-140.80833,-129.09454,-119.54293,-115.43877,-116.86403,-121.24266,-125.22779,-126.60861,-125.13554,-122.03208,-118.82101,-116.38348,-114.78988,-113.76839,-113.2373,-113.40746,-114.4248,-115.95605,-117.17239,-117.2309,-115.9026,-113.8254,-112.12276,-111.62233,-112.2484,-113.06618,-112.98322,-111.61112,-109.64445,-108.44401,-109.08807,-111.55556,-114.63163,-116.62592,-116.42444,-114.1656,-111.10056,-108.76585,-108.05407,-108.79684,-110.07365,-110.93932,-111.00393,-110.4719,-109.69834,-108.69341,-107.01915,-104.18016,-100.18752,-95.80925,-92.245758,-90.41317,-90.341469,-91.139221,-91.577263,-90.89138,-89.239815,-87.499435,-86.564667,-86.668488,-87.215309,-87.22731,-86.053062,-83.809395,-81.250237,-79.201004,-78.018425,-77.485725,-77.178978,-76.943382,-77.025749,-77.709045,-78.757034,-79.218277,-77.924751,-74.463516,-69.911118,-66.611198,-66.842659,-71.035225,-76.680077,-78.84964,-72.34269,-54.434353,-26.704668,5.184691,33.787987,53.099785,61.032017,59.902046,54.810596,50.919998,51.132587,55.283863,61.008163,65.516731,67.171082,66.06208,63.517902,61.077637,59.639229,59.207996,59.207382,58.995399,58.223732,56.901627,55.267918,53.654724,52.432575,51.984806,52.612068,54.35276,56.834217,59.310547,60.940392,61.179646,60.051472,58.10878,56.098431,54.537064,53.470112,52.560074,51.425205,49.982021,48.551697,47.660477,47.67717,48.538322,49.747566,50.651154,50.815674,50.278233,49.52766,49.238972,49.916035,51.630409,53.977043,56.254677,57.780876,58.203793,57.678204,56.822517,56.456177,57.215149,59.221367,61.987362,64.641197,66.3843,66.940544,66.725388,66.607597,67.38398,69.285461,71.833817,74.151016,75.51915,75.809769,75.487343,75.198166,75.26812,75.511078,75.511948,75.153008,74.900185,75.486526,77.087791,78.570259,77.517235,71.331718,58.967896,42.251282,25.766901,15.026888,13.689989,21.334887,33.16748,42.051834,41.937599,30.9006,12.161021,-7.4609666,-20.787868,-23.474434,-15.528872,-0.5835675,16.394093,31.511042,43.202522,51.933483,58.924103,64.934746,69.874763,73.28022,75.080338,75.954453,76.990044,78.935539,81.655907,84.23159,85.643425,85.542816,84.543449,83.822327,84.316849,86.085854,88.273438,89.681595,89.540894,87.958931,85.7827,84.02887,83.309212,83.626251,84.602142,85.882538,87.365837,89.097389,90.972214,92.559814,93.265907,92.756355,91.321182,89.85453,89.389168,90.46138,92.739693,95.196571,96.734077,96.853157,95.916588,94.83551,94.412651,94.814384,95.543251,95.912788,95.654121,95.182564,95.302948,96.558243,98.714188,100.80207,101.74481,101.1461,99.657234,98.595078,99.011917,100.84801,102.8103,103.16499,100.98973,97.037735,93.522614,92.787354,95.579124,100.01756,102.04055,97.278336,83.428391,61.823322,37.257744,16.074694,3.4692941,1.3907382,8.07265,19.313282,30.697247,39.526577,45.519226,50.116367,55.026375,60.967899,67.310898,72.674438,75.950676,77.036369,76.836494,76.625114,77.252434,78.726639,80.391586,81.502975,81.766296,81.478462,81.228806,81.42601,82.012405,82.557426,82.629875,82.150093,81.456436,81.048004,81.211304,81.819328,82.452248,82.738785,82.646011,82.484848,82.61956,83.106789,83.560089,83.377419,82.192299,80.218422,78.206177,76.997498,76.967445,77.752899,78.491821,78.438889,77.53421,76.499496,76.345291,77.593918,79.760651,81.50293,81.410591,78.953949,74.952164,71.200638,69.440308,70.306076,72.937958,75.526627,76.453423,75.282608,72.949898,71.025307,70.557549,71.305695,71.914177,70.940964,68.034637,64.397209,62.099247,62.573807,65.215187,67.043167,63.810276,52.070793,31.119867,3.7253792,-24.78826,-48.662952,-63.976044,-69.974533,-68.940536,-64.823593,-61.431038,-61.045609,-63.975368,-69.005394,-74.32354,-78.403351,-80.505119,-80.730263,-79.76358,-78.49704,-77.686218,-77.726082,-78.588989,-79.934082,-81.344826,-82.585274,-83.732719,-85.093735,-86.939163,-89.225632,-91.507057,-93.133484,-93.639954,-93.077049,-92.043594,-91.36451,-91.598961,-92.69899,-94.058815,-94.941887,-95.010445,-94.59594,-94.507866,-95.48674,-97.658409,-100.36565,-102.51715,-103.25408,-102.51558,-101.13624,-100.40038,-101.32143,-104.08551,-107.98895,-111.88516,-114.84461,-116.61951,-117.65531,-118.69042,-120.23503,-122.26408,-124.28822,-125.70978,-126.20403,-125.88523,-125.19014,-124.60152,-124.41538,-124.68492,-125.32626,-126.26051,-127.47034,-128.94644,-130.60165,-132.25269,-133.69881,-134.83047,-135.66667,-136.2827,-136.69901,-136.85736,-136.74986,-136.6207,-137.04729,-138.7386,-142.07976,-146.68571,-151.32018,-154.37636,-154.75729,-152.65544,-149.66496,-147.9745,-148.94553,-151.85208,-153.61546,-149.90643,-137.22203,-114.91026,-86.015648,-56.365261,-32.238667,-17.751539,-13.270929,-15.643219,-20.047476,-22.435194,-21.261774,-17.684246,-14.2982,-13.28189,-15.05745,-18.166962,-20.285524,-19.639606,-15.945122,-10.370822,-4.6803718,-0.18721336,2.8108034,4.8418503,6.565238,8.1277895,9.0349989,8.601696,6.6299715,3.8070726,1.5125856,1.1246059,3.2471154,7.3320594,11.922399,15.367475,16.599739,15.559204,13.085239,10.400799,8.5079708,7.8053436,8.0675678,8.7202826,9.2153044,9.3066664,9.1157322,8.9876471,9.2299318,9.8663311,10.532936,10.589546,9.4223852,6.8036652,3.1071758,-0.78195113,-3.869494,-5.5722389,-6.0460019,-6.0848918,-6.6079621,-8.0360518,-9.9804573,-11.498567,-11.793762,-10.890614,-9.76373,-9.7270889,-11.420016,-14.098604,-15.855824,-14.834411,-10.785104,-5.9386458,-4.4222569,-10.278091,-25.056307,-46.369083,-68.383133,-84.179947,-88.829849,-81.569176,-65.939415,-47.877541,-32.866024,-23.694605,-19.917641,-19.034613,-18.448292,-16.944412,-14.918649,-13.473885,-13.214192,-13.638946,-13.505278,-11.797606,-8.5336704,-4.8044133,-2.0313525,-0.99286348,-1.3199433,-1.808574,-1.3091704,0.44435504,2.6433537,3.9696431,3.5126932,1.4084789,-1.218654,-2.9487991,-2.9207566,-1.3046838,0.86052716,2.2941749,2.1302392,0.22145276,-2.9996083,-6.8945298,-10.922896,-14.709351,-17.940699,-20.290926,-21.506962,-21.600218,-20.949781,-20.161051,-19.716417,-19.648167,-19.492718,-18.606857,-16.662874,-13.985038,-11.47265,-10.126261,-10.469188,-12.236526,-14.531388,-16.340027,-17.07077,-16.787996,-16.037882,-15.436784,-15.322473,-15.67393,-16.279516,-16.958176,-17.645803,-18.325489,-18.951536,-19.532291,-20.367754,-22.220898,-26.14006,-32.846565,-41.958149,-51.578136,-58.707478,-60.501717,-55.831352,-46.278816,-35.878757,-29.540977,-30.843937,-40.301849,-55.017551,-69.920891,-79.960983,-82.146446,-76.470963,-65.413948,-52.466415,-40.564465,-31.206707,-24.515686,-19.931047,-16.939781,-15.379197,-15.242799,-16.283571,-17.809584,-18.87393,-18.743013,-17.316761,-15.204909,-13.394052,-12.701237,-13.33084,-14.771731,-16.063786,-16.267086,-14.89023,-12.093002,-8.6086302,-5.4506693,-3.5320444,-3.3323915,-4.7263875,-7.0411177,-9.3387117,-10.825684,-11.209266,-10.813255,-10.367311,-10.562294,-11.618786,-13.135262,-14.329407,-14.5393,-13.669711,-12.284225,-11.265645,-11.256109,-12.249316,-13.617262,-14.563745,-14.698936,-14.335034,-14.286361,-15.299537,-17.502491,-20.256554,-22.520311,-23.478294,-23.004051,-21.64887,-20.18858,-19.07563,-18.20195,-17.135929,-15.631523,-13.992171,-12.973313,-13.258848,-14.889718,-17.09502,-18.706923,-18.914209,-17.835997,-16.489588,-16.136469,-17.433321,-19.970222,-22.522793,-23.850302,-23.488459,-21.991087,-20.470886,-19.792645,-20.016661,-20.493402,-20.513388,-19.98621,-19.587088,-20.210321,-22.120583,-24.480211,-25.713047,-24.565599,-21.160046,-17.225302,-15.165283,-16.39723,-19.955307,-22.308424,-18.677588,-5.2551208,18.827681,50.823818,85.321518,116.30209,139.27499,152.54916,157.25906,156.40698,153.54483,151.67236,152.62262,156.90575,163.86331,172.0295,179.65698,185.32895,188.4648,189.47603,189.45024,189.50595,190.18918,191.28517,192.15456,192.33885,191.98087,191.73317,192.20903,193.39133,194.4772,194.33479,192.28871,188.6758,184.74078,181.90088,180.8719,181.26906,181.96846,181.96617,181.10291,180.11432,179.9668,180.98326,182.44319,183.00496,181.68144,178.65456,175.29062,173.28026,173.48,175.28702,177.02907,177.12564,175.20189,172.34149,170.27386,170.07246,171.32379,172.40903,171.72914,168.98523,165.53719,163.50607,164.21333,167.08774,169.89586,170.22072,167.18011,162.13155,157.78065,156.25687,157.52905,159.38177,159.09758,155.70741,151.10278,148.93228,151.69995,157.86874,161.06879,152.40431,124.9556,78.063232,18.859617,-40.066376,-85.829979,-110.59195,-114.34606,-103.87819,-88.740067,-76.601212,-70.424316,-68.616852,-67.515945,-64.362907,-58.955257,-53.258133,-49.619492,-48.995834,-50.366489,-51.568588,-50.819294,-47.829926,-43.820347,-40.553318,-39.144951,-39.464611,-40.443592,-40.957546,-40.595505,-39.787533,-39.275356,-39.387367,-39.688705,-39.267323,-37.433243,-34.303684,-30.832691,-28.245989,-27.268936,-27.683355,-28.519026,-28.742029,-27.957067,-26.63464,-25.70974,-25.842991,-26.877266,-27.89171,-27.836538,-26.31385,-23.946609,-22.045801,-21.771358,-23.352074,-25.917294,-28.087423,-28.936089,-28.64572,-28.354967,-29.250431,-31.523371,-33.98835,-34.779705,-32.810291,-29.068203,-26.777149,-30.05567,-41.646507,-60.971008,-83.728798,-103.47145,-114.46526,-114.38301,-105.40204,-93.130417,-83.944748,-82.129105,-88.214287,-99.175919,-110.14036,-116.56471,-115.83632,-107.77827,-94.223389,-78.196564,-63.163475,-52.451424,-48.674763,-53.039059,-64.695305,-80.576881,-96.091682,-106.61822,-109.22179,-103.74883,-92.699875,-79.922737,-68.82003,-61.01836,-56.136951,-52.622948,-49.01627,-44.838795,-40.642944,-37.3447,-35.40583,-34.450783,-33.535946,-31.817465,-29.115721,-25.995111,-23.346352,-21.798698,-21.369923,-21.555685,-21.738894,-21.599123,-21.246063,-21.029682,-21.21034,-21.742229,-22.305485,-22.525995,-22.1999,-21.369225,-20.231539,-18.991335,-17.780167,-16.687569,-15.838408,-15.416002,-15.588307,-16.389412,-17.657181,-19.087397,-20.373503,-21.335226,-21.955032,-22.32004,-22.539913,-22.714762,-22.961302,-23.433678,-24.268185,-25.453848,-26.723074,-27.581549,-27.515123,-26.273716,-24.046566,-21.389681,-18.928722,-17.025326,-15.635371,-14.460392,-13.282111,-12.228464,-11.758708,-12.354582,-14.123196,-16.59297,-18.858547,-19.992008,-19.461321,-17.307402,-14.014851,-10.221858,-6.4929385,-3.2735107,-0.95751536,0.10439583,-0.24565201,-1.759498,-3.7334137,-5.2825541,-5.8486404,-5.605125,-5.4058352,-6.2033134,-8.2749138,-10.83023,-12.407069,-11.944174,-9.8778543,-8.4476833,-10.797423,-19.219427,-33.530106,-50.622292,-65.616417,-74.076683,-74.07518,-66.932655,-56.241802,-45.809231,-37.783344,-32.065842,-27.249386,-22.34074,-18.049833,-16.746124,-21.077589,-32.125462,-48.272633,-65.52195,-79.120743,-85.589424,-84.066376,-76.331955,-65.639549,-55.086689,-46.386353,-39.551407,-33.455994,-26.81819,-19.04579,-10.571802,-2.6121466,3.4649642,6.8404369,7.6994586,7.2219424,7.0696754,8.5600061,11.916741,16.033268,18.983259,19.109055,16.118868,11.501423,7.8743601,7.5040641,10.810729,15.806892,18.952383,17.069206,9.2530527,-2.3826621,-13.669673,-20.589636,-21.485323,-18.000305,-14.202042,-14.406833,-20.964743,-33.22995,-48.183376,-62.187828,-72.760521,-79.379562,-83.053612,-85.172585,-86.511963,-87.004295,-86.262718,-84.309219,-81.882027,-80.081093,-79.641243,-80.404396,-81.404625,-81.520844,-80.239006,-77.99369,-75.867058,-74.874092,-75.333847,-76.736687,-78.152885,-78.860703,-78.755669,-78.29789,-78.094475,-78.449341,-79.1884,-79.831993,-79.933006,-79.314102,-78.063797,-76.364311,-74.349205,-72.130486,-69.956039,-68.314568,-67.823593,-68.906471,-71.454681,-74.726151,-77.596992,-79.052948,-78.643448,-76.642403,-73.846291,-71.158508,-69.20919,-68.190918,-67.924057,-68.033722,-68.107811,-67.791603,-66.858414,-65.297585,-63.385456,-61.643063,-60.621639,-60.591511,-61.334309,-62.227093,-62.62553,-62.315434,-61.695244,-61.496365,-62.178356,-63.422577,-64.154648,-63.194511,-60.162434,-55.997414,-52.614281,-51.780518,-53.882282,-57.442642,-59.854027,-58.996674,-54.74379,-49.290474,-45.904972,-46.718719,-50.895641,-54.438343,-51.979469,-39.693089,-17.695673,9.5025291,34.864002,52.051868,58.282139,55.292858,48.014584,41.813648,39.901203,42.266838,46.507393,49.815933,50.830696,50.296215,50.322796,52.884766,58.561832,66.246399,73.865646,79.559586,82.570686,83.385849,83.183319,83.030792,83.34037,83.834984,83.928917,83.202446,81.666397,79.704979,77.801582,76.257034,75.067986,74.004921,72.810326,71.389862,69.897987,68.686058,68.145737,68.520157,69.764481,71.518944,73.21244,74.258057,74.255974,73.116211,71.059334,68.524231,66.054932,64.218361,63.533012,64.330437,66.496246,69.160812,70.556099,68.297203,60.193924,45.383404,25.267292,3.6563866,-14.205976,-23.53022,-22.02412,-11.119973,4.3113108,17.77327,23.745291,19.911951,8.0096426,-7.0648456,-19.415224,-24.541254,-20.90019,-10.049764,4.4940124,18.979403,30.860281,39.375427,45.200626,49.564068,53.392242,56.911179,59.796623,61.651588,62.45047,62.668957,63.040909,64.111801,65.872276,67.706192,68.711006,68.238617,66.370682,64.054123,62.781521,63.934349,68.096802,74.690338,82.137451,88.501297,92.298744,93.088387,91.551132,89.051445,86.940819,85.984978,86.195137,87.086617,88.136719,89.122337,90.136444,91.324478,92.579285,93.453697,93.381065,92.058685,89.714859,87.048615,84.857948,83.599518,83.184753,83.159645,83.141441,83.186966,83.795044,85.49617,88.291595,91.353363,93.264236,92.729805,89.358566,84.011139,78.452675,74.466705,72.936867,73.44104,74.596458,74.933083,73.752586,71.456535,69.180244,68.012573,68.327065,69.641258,71.044891,71.856583,72.039673,72.108253,72.631104,73.723869,74.91143,75.457718,74.911026,73.454613,71.797127,70.679138,70.357277,70.44809,70.25132,69.319077,67.850739,66.613281,66.427544,67.576668,69.554161,71.330818,71.956482,71.086281,69.093018,66.735069,64.660278,63.110138,61.993042,61.185719,60.747807,60.838726,61.420063,62.062004,62.128437,61.295902,60.006435,59.376259,60.410221,62.924217,64.951927,63.273323,55.045135,39.725159,20.103594,1.6174247,-9.9163866,-11.023773,-2.2514856,12.173653,26.531857,36.401512,40.490013,40.56665,39.735901,40.262325,42.323479,44.35421,44.558033,42.427982,39.205017,37.007072,37.305725,39.859879,42.860592,44.171314,42.78371,39.476646,36.239586,34.884441,35.817238,37.804077,38.86145,37.632206,34.306606,30.498699,28.220667,28.68745,31.734261,36.140427,40.507172,44.002857,46.488258,48.07848,48.654739,47.846779,45.562344,42.593449,40.631077,41.375431,45.125515,49.772644,51.069836,44.354019,26.962488,0.018357206,-31.526583,-60.783501,-81.848892,-92.247147,-93.638504,-90.50692,-87.646248,-87.855904,-91.022362,-94.887512,-96.842903,-95.601555,-91.822334,-87.488953,-84.59462,-84.010834,-85.184822,-86.725784,-87.401787,-86.892868,-85.887344,-85.561974,-86.845451,-89.927536,-94.249893,-98.887856,-103.02203,-106.21621,-108.40726,-109.71954,-110.29755,-110.27564,-109.85376,-109.34892,-109.119,-109.37734,-110.03424,-110.71369,-110.98312,-110.67363,-110.07622,-109.85168,-110.66662,-112.75478,-115.67636,-118.44839,-120.00188,-119.71896,-117.74554,-114.90195,-112.2487,-110.56194,-110.01211,-110.20178,-110.49837,-110.43353,-109.9331,-109.27625,-108.8615,-108.9584,-109.59305,-110.59431,-111.71595,-112.72715,-113.43216,-113.66515,-113.32863,-112.48107,-111.39194,-110.4611,-109.98758,-109.91479,-109.75651,-108.83069,-106.71893,-103.66752,-100.61699,-98.7528,-98.798134,-100.498,-102.68138,-103.93736,-103.51363,-101.84234,-100.29338,-100.25725,-102.14462,-105.00777,-107.11601,-107.16648,-105.31467,-103.23621,-103.02007,-105.49451,-109.07018,-109.98808,-104.04876,-88.95504,-65.925522,-39.56509,-15.947407,0.10200003,7.0654645,7.0617919,4.3661618,3.044733,5.0424562,9.6807356,14.628428,17.576628,17.564772,15.275525,12.334723,10.230682,9.5720444,10.041934,10.891034,11.504635,11.649912,11.340455,10.563353,9.1726418,7.0518808,4.3789163,1.7170696,-0.20570251,-0.90219325,-0.41530466,0.74282289,1.9742855,3.0195911,4.0969057,5.642097,7.846364,10.360358,12.423758,13.358126,13.064818,12.132504,11.42739,11.432649,11.82935,11.683135,10.180057,7.4272413,4.7141981,3.9390795,6.4634404,12.099655,18.937199,24.235361,25.929636,23.853914,19.880102,16.796099,16.521191,18.714745,20.669817,18.668617,10.120776,-4.6902189,-22.263988,-37.218033,-44.674721,-42.511761,-32.360264,-18.885216,-7.743011,-3.2229946,-6.6509433,-16.176062,-27.862877,-37.439976,-41.876961,-40.191376,-33.341976,-23.478199,-13.001658,-3.8256509,2.9940829,7.2866263,9.5748129,10.778527,11.878476,13.591292,16.132008,19.158924,21.953995,23.784395,24.277206,23.605782,22.376732,21.280691,20.718712,20.635277,20.654943,20.41584,19.859541,19.269991,19.038031,19.333307,19.94136,20.405855,20.382782,19.936274,19.526747,19.66346,20.461878,21.456161,21.863617,21.16716,19.607967,18.182018,18.04874,19.690903,22.405548,24.551327,24.492649,21.677526,17.125061,12.931558,11.04276,12.061579,14.888668,17.471027,18.187567,16.939112,15.175261,14.804226,16.724304,20.02998,22.528433,22.29845,19.240538,15.466493,14.084558,17.022291,23.274963,28.837008,28.592873,19.204002,1.3239028,-20.221626,-38.496605,-47.663872,-45.593372,-34.507374,-19.461208,-5.6651435,3.8125753,8.8239841,11.272597,13.416082,16.480209,20.30965,23.996403,26.823593,28.800343,30.496296,32.441055,34.631371,36.53054,37.5229,37.438267,36.736191,36.222004,36.521774,37.701965,39.285873,40.615986,41.27726,41.292061,40.999382,40.765205,40.760036,40.938324,41.169662,41.362988,41.472347,41.416348,41.043385,40.236008,39.101433,38.074261,37.782738,38.702072,40.808113,43.491665,45.838795,47.125282,47.205101,46.529827,45.790371,45.441879,45.455944,45.472771,45.223087,44.880951,45.055504,46.401249,49.121998,52.738525,56.30798,58.956264,60.355873,60.823849,60.99633,61.344578,61.89994,62.374523,62.543793,62.546764,62.829258,63.753803,65.193443,66.474457,66.780067,65.756966,63.868511,62.187973,61.733833,62.816147,64.89399,67.080528,68.920242,70.788734,73.475876,77.109375,80.156548,79.364159,71.00016,52.912354,26.2623,-4.2014012,-31.727785,-50.341362,-57.404903,-54.610512,-46.883148,-39.823631,-37.087803,-39.056511,-43.351315,-46.697754,-46.954571,-44.178421,-40.27998,-37.68354,-37.909492,-40.901516,-45.355412,-49.675388,-52.876766,-54.91021,-56.335426,-57.693806,-59.057507,-60.029655,-60.118469,-59.161598,-57.485775,-55.712181,-54.377632,-53.653229,-53.342693,-53.12426,-52.828407,-52.538036,-52.450378,-52.629345,-52.861553,-52.748383,-51.982456,-50.607376,-49.056831,-47.919991,-47.578777,-47.965168,-48.614384,-48.986969,-48.839775,-48.383144,-48.106548,-48.392536,-49.19997,-50.060612,-50.412323,-50.038368,-49.281742,-48.843681,-49.273666,-50.50647,-51.809113,-52.23642,-51.323135,-49.527229,-48.057156,-48.119446,-50.049122,-52.930691,-55.043976,-54.927952,-52.400719,-48.834297,-46.424988,-46.859074,-50.211761,-54.817493,-58.243172,-58.76722,-56.4076,-52.816822,-50.111889,-49.437321,-50.262627,-50.925827,-50.059875,-47.871979,-46.268803,-47.564537,-52.506454,-58.93531,-62.133572,-56.920704,-40.435413,-14.019902,16.949402,45.292034,65.146881,74.332275,74.764359,70.886894,67.150887,65.987465,67.259926,69.211914,70.078644,69.289307,67.626099,66.457603,66.720451,68.361755,70.530563,72.261963,73.109749,73.305328,73.412018,73.800247,74.351601,74.585701,74.078842,72.845123,71.402054,70.480949,70.584724,71.681206,73.21196,74.390518,74.601799,73.685249,71.978149,70.131401,68.808266,68.402184,68.880264,69.80481,70.526016,70.476944,69.450394,67.723396,65.948158,64.842377,64.830215,65.829132,67.303192,68.545143,69.009605,68.497162,67.104774,65.029564,62.411346,59.345699,56.034893,52.902245,50.502705,49.231434,49.034042,49.382923,49.61797,49.452866,49.244312,49.705498,51.117413,52.523037,51.55722,45.284184,31.79542,11.739052,-11.18645,-31.273727,-43.036133,-43.549706,-33.685524,-17.572876,-0.59263366,13.008363,21.63732,26.324984,29.376442,32.646133,36.477463,39.821007,41.26894,40.214607,37.366638,34.346687,32.713905,33.087887,34.907261,36.902813,37.910694,37.492611,36.027683,34.319756,33.054745,32.47142,32.3993,32.547173,32.78384,33.212311,34.022217,35.265835,36.733757,38.010551,38.658958,38.410263,37.262123,35.460995,33.407181,31.530273,30.161057,29.415361,29.124601,28.869556,28.153599,26.673191,24.552023,22.37668,20.955719,20.889179,22.17963,24.131577,25.639856,25.738079,24.107218,21.249153,18.215712,16.040844,15.193946,15.353847,15.612952,14.97982,12.898499,9.5187082,5.6042767,2.1560547,-0.050412714,-0.80032879,-0.51379919,-0.04068866,-0.26429635,-1.6745641,-4.0954466,-6.7113318,-8.4250355,-8.4181881,-6.6470447,-3.9851105,-1.8722031,-1.5976465,-3.5881298,-7.121448,-10.67774,-12.766749,-12.758078,-11.206152,-9.4534578,-8.7494793,-9.4450302,-10.788813,-11.465729,-10.522735,-8.0592155,-5.2089043,-3.4179409,-3.507453,-5.1619296,-7.1922889,-8.3820448,-8.3145447,-7.5942822,-7.3124776,-8.1598835,-9.85674,-11.346921,-11.635979,-10.648891,-9.4218884,-9.3995323,-11.279347,-14.250996,-16.292614,-15.493713,-11.621873,-6.8650885,-5.1018443,-9.9468479,-22.630161,-40.957478,-60.023529,-74.348747,-80.296066,-77.491089,-68.576485,-57.585674,-47.936462,-41.125145,-36.661804,-33.021042,-28.867331,-23.818361,-18.439758,-13.684322,-10.260437,-8.3235903,-7.5696864,-7.530015,-7.8023372,-8.0938044,-8.14324,-7.6744819,-6.4650793,-4.4817381,-1.9610865,0.64306927,2.8170662,4.1497569,4.4227033,3.6314211,1.9907322,-0.056321353,-1.8849417,-2.8743474,-2.7245898,-1.7371806,-0.80826563,-0.9958902,-2.8114836,-5.6623058,-7.9020247,-7.6312079,-3.8821588,2.5410726,9.2145166,13.327591,13.363891,10.185323,6.7093353,6.1780219,9.9334135,16.043877,19.745293,15.640553,0.54189205,-24.605528,-54.814793,-83.147591,-103.68766,-113.84387,-114.88629,-110.65694,-105.37074,-101.77278,-100.50849,-100.73011,-101.26364,-101.49638,-101.53061,-101.7411,-102.24922,-102.76584,-102.87551,-102.45812,-101.85526,-101.62473,-102.07943,-102.99152,-103.71992,-103.68909,-102.86701,-101.87453,-101.61903,-102.69159,-104.94247,-107.53151,-109.42305,-109.99571,-109.37014,-108.26298,-107.49619,-107.50481,-108.15469,-108.94648,-109.42043,-109.46674,-109.34709,-109.45267,-109.99771,-110.86545,-111.69187,-112.10466,-111.94652,-111.35049,-110.64803,-110.18936,-110.18011,-110.59738,-111.19518,-111.58408,-111.37026,-110.33062,-108.56568,-106.53722,-104.91666,-104.26639,-104.70407,-105.76333,-106.58604,-106.38248,-104.89845,-102.58266,-100.31538,-98.848152,-98.320808,-98.194756,-97.666924,-96.283348,-94.305313,-92.534744,-91.692169,-91.791916,-92.006035,-91.185608,-88.722397,-85.133667,-81.886185,-80.48687,-81.420792,-83.703453,-85.455994,-85.206985,-83.047646,-80.749062,-80.571625,-83.393585,-87.366425,-88.133545,-80.763397,-62.46191,-34.531727,-2.3529959,26.763802,46.785282,55.530693,55.27409,51.148853,48.341736,49.657677,54.69384,60.840107,65.27227,66.647888,65.570053,63.75695,62.657394,62.496517,62.326946,60.927971,57.844315,53.827686,50.411015,48.953316,49.827156,52.276665,54.985306,56.913246,57.820065,58.15662,58.480549,58.884354,58.891891,57.911919,55.90202,53.705017,52.714161,53.980247,57.28624,60.803024,61.632408,57.028824,45.68869,28.452618,8.0963621,-11.623647,-27.155617,-36.036816,-37.226292,-30.994944,-18.675508,-2.4956682,14.5339,28.907541,37.290733,37.502422,29.431576,15.374357,-0.53090155,-13.656572,-20.478363,-19.697042,-12.398844,-1.250432,10.802425,21.666624,30.572714,37.809505,44.045109,49.712017,54.788872,58.99675,62.160564,64.427681,66.192276,67.813622,69.364586,70.611748,71.24791,71.208679,70.838287,70.769005,71.571198,73.388016,75.787964,77.941811,79.037796,78.709908,77.245659,75.462044,74.317085,74.459145,75.940613,78.228966,80.493797,82.011215,82.478264,82.087952,81.349724,80.777618,80.63501,80.881271,81.334206,81.918884,82.80999,84.338654,86.69854,89.645798,92.432617,94.092537,93.966751,92.167442,89.655731,87.810684,87.678108,89.322441,91.695229,93.159042,92.414146,89.307571,85.037483,81.598961,80.757576,83.11879,87.809883,92.936981,96.539352,97.501404,95.946663,92.96891,89.936462,87.806587,86.809021,86.585709,86.599007,86.51133,86.330322,86.307449,86.727074,87.741699,89.320412,91.278236,93.324883,95.116043,96.341393,96.871735,96.911018,97.028618,97.968246,100.26175,103.83812,107.88398,111.10415,112.29639,110.94128,107.46987,103.05133,99.03022,96.349426,95.279945,95.556595,96.747681,98.557808,100.86096,103.50192,106.09942,108.08176,108.98589,108.80803,108.10384,107.68272,108.03223,108.83575,108.93654,106.84509,101.54935,93.189636,83.228691,74.023888,68.009575,66.844688,70.827385,78.71492,87.950928,95.251938,97.487862,92.711113,81.030464,64.907738,48.549541,36.441154,31.573378,34.224682,42.001663,51.203953,58.801414,63.890617,67.762772,72.564461,79.448242,87.476959,94.073906,96.76828,95.058998,91.062149,88.378426,89.834473,95.58873,102.93666,108.04725,108.52736,105.06053,100.90051,99.417763,101.27431,103.18813,99.323036,84.656548,58.325317,24.833096,-7.753654,-31.669552,-43.165375,-43.974812,-39.819359,-37.001553,-39.17017,-46.04327,-54.524673,-61.172199,-64.312836,-64.58725,-63.904964,-63.834301,-64.6605,-65.673279,-66.257202,-66.788918,-68.573082,-72.849167,-79.647713,-87.411598,-93.739685,-96.784851,-96.354874,-93.968681,-91.850426,-91.567627,-93.225327,-95.69339,-97.604958,-98.357315,-98.415855,-98.781746,-100.10226,-102.12856,-103.91758,-104.5901,-104.04065,-103.05182,-102.73203,-103.71184,-105.70725,-107.77176,-109.03407,-109.35642,-109.41477,-110.14325,-111.9637,-114.38286,-116.26641,-116.59908,-115.18345,-112.77739,-110.57918,-109.43697,-109.345,-109.56724,-109.27164,-108.20089,-106.90017,-106.35648,-107.32336,-109.80744,-113.05049,-115.97929,-117.78835,-118.27769,-117.79061,-116.88931,-116.04901,-115.55738,-115.58798,-116.2718,-117.63567,-119.45729,-121.22282,-122.32726,-122.44812,-121.82843,-121.20832,-121.38065,-122.64748,-124.57718,-126.27832,-127.02818,-126.80192,-126.2896,-126.36137,-127.3828,-128.93962,-130.24371,-130.93805,-131.61304,-133.44708,-136.995,-140.87674,-141.41771,-133.8562,-114.75418,-84.339577,-47.311836,-11.383862,15.878432,30.305344,32.715893,28.017736,22.394098,20.21207,22.343735,26.646099,30.023304,30.628555,28.858601,26.712614,26.176605,27.839071,30.640509,32.789925,33.08083,31.644636,29.670797,28.401234,28.201784,28.394556,27.927202,26.325405,24.181458,22.797382,23.239168,25.496887,28.370583,30.179785,29.810236,27.382793,24.108007,21.461712,20.269337,20.308065,20.634924,20.332386,19.105099,17.328096,15.590371,14.152655,12.769747,11.006772,8.7661304,6.5609651,5.2644529,5.484313,7.0312958,8.9131708,9.9017315,9.2725744,7.1503162,4.1587524,0.60466617,-4.1667309,-11.643602,-23.1499,-38.534763,-55.449677,-69.870728,-77.796379,-77.28299,-69.669815,-59.222164,-51.28371,-49.867165,-55.923088,-67.132927,-79.22316,-88.003815,-91.045967,-88.247322,-81.234131,-72.16539,-62.697937,-53.597298,-44.985107,-36.843246,-29.351831,-22.882236,-17.768585,-14.117962,-11.820796,-10.70835,-10.666307,-11.565444,-13.059798,-14.462543,-14.892855,-13.688869,-10.846131,-7.1575813,-3.8855233,-2.101649,-2.0779769,-3.1185629,-3.963712,-3.5378017,-1.5856286,1.1928768,3.5837963,4.5878344,3.9773982,2.3502636,0.68271863,-0.29941696,-0.52138084,-0.50133479,-0.92070484,-2.145479,-4.0219698,-6.052206,-7.7809806,-9.0913239,-10.195065,-11.344962,-12.50665,-13.25968,-13.027879,-11.493361,-8.9035749,-6.0399184,-3.8412285,-2.9091537,-3.2064848,-4.1357312,-4.9404106,-5.1687126,-4.910697,-4.6772227,-5.0211058,-6.1554809,-7.8069386,-9.3763161,-10.28435,-10.279143,-9.5305185,-8.4859009,-7.6074009,-7.1605763,-7.1641359,-7.4923525,-8.0303345,-8.7693319,-9.7882776,-11.14951,-12.787364,-14.465021,-15.831111,-16.553728,-16.473022,-15.702772,-14.626554,-13.770148,-13.584397,-14.2252,-15.443051,-16.665253,-17.265951,-16.90947,-15.78541,-14.585787,-14.203739,-15.294782,-17.934156,-21.561628,-25.243399,-28.097948,-29.645075,-29.902117,-29.222414,-28.029638,-26.639227,-25.256071,-24.080294,-23.366299,-23.333382,-23.977537,-24.957125,-25.708242,-25.781828,-25.200106,-24.561382,-24.756876,-26.428001,-29.503166,-33.144417,-36.185753,-37.813164,-38.051624,-37.730118,-37.93502,-39.309196,-41.663765,-44.158146,-45.911205,-46.607605,-46.671524,-46.893822,-47.795654,-49.205772,-50.374996,-50.55645,-49.627426,-48.279194,-47.599228,-48.311161,-50.206123,-52.196365,-53.010445,-52.107849,-50.222637,-49.163136,-50.94891,-56.755508,-66.223091,-77.445518,-87.583115,-93.779396,-94.031143,-87.792908,-76.226135,-62.029453,-48.766106,-39.688789,-36.329121,-37.446594,-39.040005,-35.783516,-23.510626,-1.6177102,25.985548,52.190762,69.903603,75.630844,71.510391,64.543213,63.264797,73.53495,95.666451,124.40143,151.67323,170.57765,178.40198,177.2244,172.05455,167.83443,167.08003,169.32935,172.3492,174.04314,173.77936,172.4547,171.53441,171.9207,173.45204,175.25401,176.52518,177.09856,177.39087,177.87473,178.56761,178.97134,178.49739,177.00967,175.02272,173.37312,172.60924,172.57855,172.55309,171.82086,170.30219,168.70648,168.07053,168.97852,171.02072,172.90685,173.2039,171.23055,167.51736,163.52484,160.79936,160.11029,161.10419,162.65492,163.63351,163.57596,162.84021,162.21349,162.2928,163.07649,164.01799,164.45993,164.12022,163.29869,162.68488,162.91422,164.1602,165.99796,167.59151,168.08017,166.96448,164.33049,160.84111,157.50554,155.29515,154.72694,155.58763,156.97772,157.75381,157.22969,155.76117,154.76144,155.90337,159.72774,164.3549,165.16731,155.99445,131.57753,90.304947,35.858173,-23.227501,-76.131096,-113.42475,-130.25841,-127.66801,-111.54432,-89.912125,-69.880348,-55.58971,-47.801201,-44.881287,-44.35334,-44.158569,-43.197662,-41.249062,-38.64085,-35.982037,-33.997448,-33.32653,-34.199738,-36.124336,-37.867874,-37.930553,-35.368286,-30.498266,-24.969814,-21.016214,-20.237997,-22.641674,-26.576881,-29.681841,-30.287989,-28.397524,-25.590218,-23.909752,-24.47154,-26.742891,-29.000891,-29.654156,-28.481064,-26.854053,-26.715851,-28.997221,-32.662949,-35.24324,-34.702671,-31.468058,-29.111513,-32.882668,-46.644985,-69.948692,-97.157021,-119.50589,-129.26692,-123.82478,-107.34377,-88.946182,-78.267403,-80.756012,-95.24836,-115.06202,-131.87312,-140.13173,-139.58836,-134.7108,-131.59882,-134.36191,-143.05275,-154.15918,-163.08273,-166.93748,-165.99539,-163.08759,-161.56552,-163.22305,-167.44864,-171.98628,-174.65211,-174.8242,-173.77,-173.67358,-176.03525,-180.45079,-184.48555,-184.68015,-178.09792,-163.59778,-142.25627,-116.86108,-90.840195,-67.160942,-47.613262,-32.627785,-21.543539,-13.127327,-6.1405315,0.21259846,6.0791631,11.059312,14.5783,16.360815,16.75317,16.681059,17.218458,18.986797,21.747004,24.472641,25.91622,25.362595,23.112526,20.374363,18.596571,18.630337,20.235245,22.240257,23.266489,22.564611,20.448072,18.059835,16.630136,16.694599,17.751833,18.55201,17.818188,14.958949,10.373182,5.2205873,0.84216535,-1.8296334,-2.5948102,-1.9643643,-0.89097136,-0.40687937,-1.2787298,-3.7328329,-7.307395,-10.927712,-13.283382,-13.448173,-11.475508,-8.5858192,-6.6902752,-7.3678288,-10.827912,-15.547226,-18.982798,-19.130474,-16.088192,-12.618272,-13.169731,-21.703876,-39.441879,-63.812664,-89.269806,-109.60025,-120.4971,-121.04517,-113.44999,-101.39468,-88.160645,-75.634361,-64.588768,-55.701912,-50.297588,-50.081993,-55.980804,-66.945427,-79.732582,-90.047272,-94.493156,-92.1604,-84.849968,-75.794243,-67.710197,-61.443546,-56.034691,-50.050232,-43.156544,-36.766205,-33.263809,-34.3433,-39.643448,-46.68782,-52.238373,-54.182529,-52.686882,-49.846329,-48.095444,-48.504932,-50.154949,-51.00251,-49.583618,-46.27668,-43.154324,-42.474373,-44.891838,-48.76334,-51.211224,-50.361778,-47.23035,-45.787968,-50.846031,-64.858971,-85.604607,-106.34404,-118.64635,-116.44517,-99.087418,-71.6623,-42.450169,-18.961102,-4.7580934,1.3253373,3.4464083,5.8064313,10.342729,16.282719,21.488537,24.419424,25.306086,25.83144,27.704187,31.242525,34.997482,36.659431,34.584599,28.875084,21.292398,14.109132,8.7221689,4.9814076,1.6639836,-2.2753141,-6.5745292,-9.4635077,-8.5712576,-2.3849976,8.6576366,22.131123,34.674614,43.52335,47.661797,48.015076,46.679504,45.714054,46.178749,47.867306,49.735935,50.661781,50.065304,48.101974,45.420624,42.7141,40.346977,38.245953,36.069283,33.529106,30.680313,28.017742,26.318804,26.290834,28.188967,31.606918,35.579681,38.982933,41.043056,41.684814,41.513226,41.429134,42.099865,43.601204,45.442444,46.939533,47.675537,47.739033,47.598003,47.732639,48.322231,49.228069,50.27058,51.546799,53.474152,56.443356,60.287498,63.983807,65.919159,64.694504,60.044697,53.290852,46.95985,43.685917,44.955219,50.375565,57.869358,64.671822,68.588364,68.869598,66.3274,62.748226,59.990196,59.219265,60.566757,63.240337,65.943497,67.411438,66.895836,64.458755,60.955837,57.660976,55.643959,55.202145,55.71048,56.070557,55.547443,54.424061,53.875614,54.900196,56.837616,56.50824,48.880821,29.362268,-3.2881539,-45.084869,-87.356514,-119.85437,-135.08261,-131.64101,-114.74766,-93.592896,-76.925697,-69.244423,-69.55526,-73.122208,-74.90918,-72.557976,-67.240837,-62.191154,-60.171669,-61.661507,-64.863884,-67.292244,-67.6334,-66.514061,-65.699699,-66.441208,-68.294106,-69.344551,-67.694153,-63.084145,-57.397045,-53.571671,-53.634609,-57.238358,-61.789589,-64.147339,-62.746033,-58.661324,-54.849792,-54.073311,-56.965061,-61.623112,-65.051468,-65.438148,-63.604702,-62.4734,-64.764259,-70.430527,-75.662155,-74.364853,-61.429878,-35.887093,-1.9972622,32.462963,59.792469,75.804733,81.240646,80.549431,78.982872,79.814178,83.200302,87.039009,88.941368,87.916061,84.786697,81.339188,79.016975,78.127907,77.998856,77.771194,77.12468,76.394295,76.099358,76.37384,76.814316,76.86113,76.348969,75.70565,75.575523,76.156647,76.841904,76.568108,74.707375,71.813362,69.499428,69.285149,71.055847,72.252373,68.632957,56.50351,35.269863,8.7316952,-15.913208,-31.105425,-32.491047,-21.06749,-2.6594791,15.045367,26.28793,29.780041,28.664385,28.05489,31.679745,39.574371,48.058155,51.852837,47.012527,33.010078,12.971063,-7.8212905,-24.13591,-32.541286,-32.049709,-23.780329,-10.215436,5.4660063,19.913919,30.23765,34.87809,34.419144,31.685656,30.628286,34.200577,42.264782,50.887295,53.81921,45.712612,25.434126,-2.480212,-29.304432,-45.968792,-47.278831,-34.212528,-13.064454,7.9903922,22.897026,30.071154,32.015396,32.819878,35.345154,39.832726,44.536739,47.563698,48.413399,48.137299,48.188404,49.032055,49.704151,48.688797,45.397556,41.013123,37.920242,38.050941,41.369804,45.712799,48.223858,47.413845,44.31308,41.777004,42.354179,46.262783,51.059704,53.411144,51.778599,47.985966,46.248402,50.001183,58.592396,66.320396,64.978584,48.761169,18.612381,-16.885479,-45.047729,-55.30793,-44.629757,-18.97839,9.9876013,31.036173,38.75528,35.289707,27.81954,23.705076,26.37496,34.209301,42.565319,47.167812,46.549965,42.251366,37.176273,33.636974,32.458359,33.388515,35.943607,39.604198,43.091423,43.543209,36.80479,19.303402,-9.3940392,-45.153004,-80.380829,-107.47118,-122.63624,-127.61949,-127.97865,-128.90369,-131.35188,-131.28053,-122.78369,-103.22182,-76.840378,-54.094109,-46.594624,-60.53841,-92.67141,-131.42134,-162.64941,-176.60812,-172.02107,-155.14545,-134.90204,-117.50378,-103.96706,-91.616989,-77.871758,-63.201694,-51.086475,-45.240887,-46.473133,-51.740345,-56.17342,-56.470661,-52.945335,-48.54295,-45.557838,-42.719002,-35.218639,-18.080799,9.4283428,41.77597,69.521553,84.916084,87.015617,82.522774,81.323799,89.438248,104.20894,115.3661,111.73573,89.374298,55.614143,25.916815,15.110238,28.390482,57.850086,86.865425,99.703033,90.409737,65.606689,39.759079,26.207821,29.659405,44.505104,59.377121,64.474434,56.898331,41.100964,25.014948,15.039047,13.1797,17.569223,25.044825,33.36013,41.503441,48.537899,52.675575,51.921455,45.981529,37.67086,32.111996,33.664104,42.526913,53.662674,59.350838,54.125771,38.907551,21.31333,11.522206,16.076143,33.575451,55.164139,69.665451,70.198921,58.143063,42.031796,32.228954,34.842365,48.624146,66.498184,80.330353,85.666161,83.510849,78.439758,74.755325,73.470276,72.011147,66.512321,54.864361,38.391827,21.187523,7.765389,0.67195135,-0.53483844,1.3835441,2.9677536,1.5578444,-3.9615252,-13.105875,-24.017893,-33.77396,-38.979519,-36.96191,-27.429682,-13.793115,-3.0530245,-3.6685286,-21.956734,-58.657455,-107.54831,-157.12544,-194.8022,-211.72916,-205.99124,-182.79216,-151.7679,-122.91006,-103.02922,-94.138771,-94.027184,-98.279167,-102.57167,-104.27237,-102.92361,-99.742584,-96.584618,-94.879547,-94.950363,-95.940216,-96.341583,-94.869591,-91.237907,-86.400787,-82.080208,-79.802414,-79.993355,-81.695847,-83.12059,-82.722832,-80.141846,-76.401566,-73.230049,-71.923141,-72.478699,-73.557404,-73.29393,-70.440063,-65.121521,-58.754665,-53.208435,-49.754265,-48.436523,-48.189911,-47.553417,-45.497517,-41.88044,-37.340672,-32.796196,-28.923315,-25.92919,-23.688881,-22.069065,-21.159281,-21.223236,-22.391832,-24.316719,-26.072189,-26.488003,-24.853464,-21.664711,-18.941553,-19.741692,-26.867727,-41.256351,-60.885452,-80.966499,-95.623489,-100.42779,-94.526863,-81.128944,-65.898285,-54.008369,-47.486576,-44.451496,-40.795773,-33.36837,-22.687021,-13.373168,-11.83772,-22.472029,-44.617493,-72.205688,-96.374153,-109.566,-108.76863,-96.180412,-77.268456,-57.757153,-41.517841,-30.385933,-25.361843,-27.639441,-38.208542,-56.155308,-77.157722,-93.90905,-98.984818,-88.79171,-66.08815,-39.120453,-17.474813,-6.9730611,-6.7683959,-10.527452,-10.962997,-4.744308,5.4778686,13.271519,13.309337,5.5356569,-4.331974,-8.4038153,-1.9106634,13.435412,30.351002,40.588264,40.139015,31.550156,21.87908,17.818352,21.401419,29.171499,35.168747,35.395035,30.474066,24.67659,22.234797,23.876947,26.307365,25.068373,18.572372,10.05547,5.654408,9.7197428,20.75362,31.224653,31.937777,18.341032,-5.503119,-28.287445,-37.721809,-27.899099,-3.064023,24.714777,42.572346,44.174061,32.82793,18.677467,12.096256,17.678091,32.512936,49.361649,62.07349,69.351349,74.466415,81.588074,91.771873,101.73053,106.30283,102.72866,93.443611,85.14315,84.546791,93.719498,108.2291,119.54855,120.2282,108.47813,89.179634,70.734673,59.902924,58.034885,61.066204,63.058907,60.71991,55.754505,53.462051,58.557384,71.078438,85.199051,91.879944,83.832314,59.809807,25.678427,-8.3166323,-32.436298,-41.709755,-37.368046,-25.03166,-11.077497,0.57458276,9.5858374,18.015005,27.974361,39.762817,51.558643,60.634293,65.120674,65.13755,62.647083,60.251728,59.775543,61.496578,64.3927,67.100639,68.891769,70.051331,71.502991,74.022995,77.617729,81.474876,84.483383,85.93689,85.937973,85.248955,84.723724,84.732925,84.982132,84.834389,83.891731,82.409645,81.23954,81.327858,83.112961,86.232155,89.733017,92.631828,94.431259,95.262253,95.608162,95.879112,96.193008,96.517357,96.99218,98.064827,100.20041,103.31435,106.41035,107.89113,106.57013,102.81151,98.91198,98.129372,102.58499,111.13883,118.65127,117.47865,100.8285,66.412926,18.43836,-33.316963,-77.096031,-103.75084,-110.10532,-99.54113,-79.740669,-58.963177,-42.819424,-32.982555,-28.033064,-25.472561,-23.517282,-21.738743,-20.542643,-20.217293,-20.395391,-20.285576,-19.368124,-17.908308,-16.831949,-17.043329,-18.716509,-21.121792,-23.145834,-24.137623,-24.454731,-25.284838,-27.831039,-32.407879,-38.073643,-43.069984,-45.800674,-45.728123,-43.631348,-41.095276,-39.590412,-39.730385,-41.130287,-42.868717,-44.176895,-44.884544,-45.377518,-46.183357,-47.539093,-49.26049,-50.973892,-52.493015,-54.02354,-56.01981,-58.786736,-62.119221,-65.259857,-67.244179,-67.438637,-65.939384,-63.578434,-61.523396,-60.701286,-61.372681,-63.079704,-64.962814,-66.234116,-66.52948,-65.965538,-64.921783,-63.728725,-62.475048,-61.043556,-59.321198,-57.412533,-55.688721,-54.621494,-54.503578,-55.244537,-56.393364,-57.396538,-57.940971,-58.159389,-58.544888,-59.597336,-61.400753,-63.394695,-64.503937,-63.582146,-59.931862,-53.607815,-45.33316,-36.087231,-26.617329,-17.163824,-7.544816,2.4837162,12.845745,22.996384,32.099827,39.4123,44.622276,47.941444,49.912609,51.083355,51.764538,52.011715,51.800133,51.232632,50.611549,50.31945,50.599815,51.401894,52.405437,53.211163,53.56847,53.492222,53.204144,52.95536,52.859116,52.840576,52.719227,52.349491,51.718246,50.943741,50.194672,49.595222,49.17342,48.867214,48.564789,48.151058,47.550121,46.764442,45.898109,45.130394,44.613842,44.325718,43.972111,43.063568,41.200989,38.451855,35.561146,33.749329,34.050987,36.459213,39.373718,39.82061,34.568764,21.758234,2.2623374,-20.013876,-39.266514,-50.027355,-49.557873,-39.272282,-24.429012,-12.104911,-8.2783709,-15.2974,-30.870205,-49.044201,-62.744312,-66.736816,-59.697178,-44.479816,-26.526287,-11.221021,-1.498302,3.128861,5.6656299,9.3742142,15.404105,21.662289,23.644611,16.88868,-0.22852032,-24.908327,-50.550007,-69.400719,-75.944366,-69.292404,-53.34523,-34.686069,-19.379784,-10.388126,-6.8797755,-5.5827069,-3.1795769,1.7411777,8.2421246,14.140711,17.743423,18.99625,19.343256,20.513031,23.168083,26.39056,28.347261,27.635916,24.347311,20.094564,16.993309,16.304884,17.674398,19.464828,19.920879,18.333977,15.411018,12.638799,11.154162,10.963124,11.067352,10.367138,8.6237841,6.7148266,5.9491367,6.9399495,8.9190531,10.103825,8.9624043,5.4991045,1.5452465,-0.3536309,1.1160768,4.5165844,5.7137828,-0.25364715,-16.408302,-41.746864,-71.112839,-97.212143,-113.71964,-117.81592,-110.87486,-97.132553,-81.299782,-66.545578,-53.848877,-42.742237,-32.625172,-23.633087,-16.557163,-12.089244,-10.136312,-9.8017082,-10.02775,-10.330141,-10.97533,-12.421333,-14.493763,-16.077118,-15.783142,-13.300596,-10.481085,-11.193102,-19.684679,-38.210041,-65.311081,-95.916718,-123.40514,-142.5791,-151.89998,-153.7278,-152.49448,-151.96341,-153.23079,-154.59518,-153.21683,-147.38475,-137.90082,-127.73969,-120.2924,-117.39179,-118.39006,-120.81135,-122.06116,-121.03202,-118.58956,-116.71365,-116.94814,-119.20904,-121.69332,-121.87881,-117.92993,-109.65078,-98.507462,-86.860832,-76.974472,-70.347092,-67.554848,-68.400078,-72.043129,-76.992302,-81.129852,-82.068687,-77.933365,-68.277725,-54.594433,-39.978218,-27.955164,-21.007059,-19.55294,-21.92758,-25.34762,-27.32571,-26.804747,-24.525324,-22.61273,-23.748665,-30.356039,-44.003742,-64.969772,-91.83197,-121.14254,-147.50348,-164.41603,-165.97775,-148.96893,-114.44402,-67.958351,-18.097101,26.216852,58.530075,76.596107,82.389557,80.58358,76.361679,73.60524,74.121208,77.927116,84.09407,91.525589,99.312157,106.70264,112.98843,117.56181,120.16943,121.14857,121.39472,121.98647,123.64808,126.37039,129.42934,131.79659,132.69464,131.97108,130.09676,127.83422,125.81366,124.27606,123.10311,122.05664,121.0333,120.16537,119.73015,119.96317,120.91608,122.44067,124.27695,126.15776,127.8585,129.18958,129.98749,130.153,129.72304,128.90404,128.00064,127.25276,126.68794,126.11987,125.33867,124.38838,123.72144,124.05785,125.96111,129.36516,133.38528,136.62073,137.85498,136.76666,134.18996,131.69606,130.69077,131.57031,133.49731,134.99512,135.017,133.77821,132.72119,133.5137,136.6449,140.54634,141.94124,137.4005,125.29159,106.96199,86.373177,68.302742,56.117199,50.408066,49.263077,49.913288,50.611149,51.443443,53.499233,56.957191,59.483166,56.261116,42.005733,14.003525,-25.569502,-69.558846,-108.28151,-133.38208,-141.13933,-133.56512,-116.87006,-98.291451,-83.053474,-72.944199,-66.903053,-62.834793,-59.31596,-56.200062,-54.032242,-53.004578,-52.386509,-50.884361,-47.619606,-42.934052,-38.358997,-35.704929,-35.875301,-38.218296,-40.865158,-41.831196,-40.153019,-36.341454,-31.91877,-28.420792,-26.554399,-26.018246,-25.985477,-25.796379,-25.331776,-24.856331,-24.563955,-24.275343,-23.572968,-22.256289,-20.695532,-19.710623,-19.98225,-21.417519,-23.003212,-23.363548,-21.707178,-18.498947,-15.315921,-13.895885,-14.982236,-17.770216,-20.385801,-21.115477,-19.553598,-16.856365,-14.901708,-14.936491,-16.682463,-18.566198,-18.928442,-17.328871,-14.946846,-13.710196,-14.74047,-17.291214,-19.105934,-18.145159,-14.580624,-11.589474,-14.132301,-26.200205,-48.11755,-75.619301,-101.42981,-118.55276,-123.41171,-117.06653,-103.92925,-88.943176,-75.070686,-62.601803,-50.493675,-38.567265,-28.845129,-24.958725,-29.929274,-43.795044,-62.734241,-80.405182,-90.816696,-91.076996,-82.460617,-69.285812,-56.404114,-46.834797,-40.821476,-36.589329,-32.037994,-26.173288,-19.458649,-13.104862,-8.0077772,-4.1506052,-0.82004666,2.6581364,6.3041539,9.4674034,11.385656,11.857323,11.499003,11.391243,12.372771,14.48835,16.965776,18.711874,18.967875,17.692686,15.473671,13.10375,11.161813,9.8651352,9.2127247,9.2132416,9.9603119,11.48463,13.528358,15.473676,16.547188,16.203966,14.442106,11.829802,9.2192011,7.3310142,6.4685559,6.5126262,7.1466928,8.1169024,9.3418665,10.829834,12.515512,14.177158,15.508993,16.284374,16.46892,16.190666,15.602286,14.767962,13.689406,12.46163,11.419862,11.115709,12.075735,14.469956,17.917669,21.596409,24.626335,26.509142,27.347597,27.705004,28.196735,29.079763,30.101295,30.689341,30.341978,28.954071,26.884407,24.757332,23.166843,22.486708,22.872934,24.377548,27.010561,30.654955,34.901718,38.990059,42.004185,43.295918,42.901367,41.656197,40.861481,41.631859,44.286522,48.155212,51.937958,54.418156,55.103619,54.412525,53.311188,52.662067,52.72229,53.122456,53.324821,53.227192,53.468086,55.177761,59.288223,65.822708,73.628105,80.760246,85.339874,86.413979,84.356102,80.614098,76.98645,74.849091,74.729744,76.375671,79.160004,82.510567,86.104668,89.783615,93.342751,96.413132,98.547424,99.449982,99.179184,98.171776,97.062332,96.396736,96.378685,96.736275,96.716095,95.182541,90.832619,82.569557,70.027985,54.094322,37.112942,22.464918,13.445391,11.777645,16.45372,23.618738,27.806261,24.141487,10.530356,-11.273849,-36.348461,-58.76548,-74.18763,-81.596466,-83.317856,-83.433632,-85.521576,-90.961784,-98.635963,-106.00031,-110.75191,-112.07222,-110.81377,-108.70577,-107.22562,-106.87728,-107.23569,-107.56199,-107.45487,-107.07706,-106.88078,-107.14108,-107.71162,-108.19059,-108.3241,-108.27164,-108.47128,-109.18214,-110.07918,-110.28657,-108.93148,-105.89131,-102.2006,-99.751717,-100.37457,-104.81387,-112.2333,-120.57535,-127.58097,-131.87054,-133.46687,-133.50885,-133.40829,-134.01199,-135.26022,-136.45976,-136.88635,-136.26787,-134.85776,-133.14177,-131.47235,-129.92426,-128.43863,-127.06871,-126.06319,-125.67776,-125.86346,-126.12296,-125.728,-124.21157,-121.80064,-119.43977,-118.31148,-119.11716,-121.58467,-124.55495,-126.62702,-126.96008,-125.70918,-123.80788,-122.25352,-121.39984,-120.76686,-119.52236,-117.30289,-114.75909,-113.33873,-114.30344,-117.51343,-120.7578,-120.17957,-111.756,-93.182083,-65.226639,-31.850864,1.020997,27.537672,43.862213,49.21542,45.689476,37.075371,27.33543,19.391296,14.625223,13.092655,14.133679,16.980631,21.086248,26.127119,31.829046,37.819958,43.639244,48.891186,53.421059,57.377316,61.101379,64.899673,68.827888,72.609741,75.732773,77.66375,78.069107,76.938896,74.57946,71.509567,68.324921,65.577034,63.67564,62.806835,62.877407,63.526176,64.243294,64.587173,64.411118,63.966988,63.792519,64.407043,65.969742,68.103683,70.011116,70.836746,70.082382,67.840759,64.727097,61.569946,59.056915,57.526558,56.971828,57.173218,57.825657,58.592442,59.139,59.246082,59.01532,59.019192,60.164955,63.15815,67.74279,72.174248,73.413895,68.214432,54.72784,33.835835,9.3912868,-12.953842,-27.908882,-32.692104,-28.120008,-18.127878,-8.0174646,-2.3341761,-3.3483751,-10.663908,-21.833019,-33.431492,-42.052357,-44.99625,-40.749928,-29.386911,-12.799747,5.5544767,21.645512,32.418716,37.198311,38.056965,38.682014,42.141338,48.750153,55.387524,56.895401,48.968014,30.948219,6.8547201,-16.096632,-30.769156,-33.397263,-25.086096,-10.762174,3.6979172,14.431604,20.993765,25.606516,31.00012,38.357925,46.636742,53.515976,57.148029,57.445042,56.072647,55.269405,56.393642,59.203842,62.287281,64.224007,64.598946,64.159203,64.082375,64.971176,66.357346,67.085274,66.274391,64.121994,61.918301,61.216133,62.716255,65.656502,68.166283,68.396568,65.704117,61.119011,56.782745,54.702221,55.589771,58.488087,61.376442,62.357178,60.702457,57.174362,53.498371,51.36195,51.535572,53.574486,56.184765,57.971977,58.136303,56.778851,54.736637,53.103409,52.70462,53.758053,55.82827,58.050591,59.510262,59.624954,58.387253,56.371559,54.493282,53.609325,54.128761,55.814789,57.881924,59.35363,59.514233,58.23885,56.047123,53.867073,52.636158,52.931824,54.786301,57.732853,61.021038,63.88377,65.753311,66.378235,65.84404,64.52005,62.949669,61.695347,61.163181,61.46019,62.352081,63.364876,64.008957,64.03022,63.558559,63.06068,63.103741,64.047066,65.833275,68.007179,69.964294,71.290436,71.987167,72.434769,73.103683,74.192131,75.433815,76.227043,76.029724,74.771111,72.98748,71.547409,71.107368,71.652481,72.465294,72.603783,71.608025,69.941978,68.79184,69.257599,71.436684,74.077614,75.194664,73.402878,69.145348,64.870628,63.746964,67.426537,74.136208,78.433502,73.170586,52.940903,17.277355,-28.216022,-73.638931,-108.7688,-127.28802,-129.12871,-119.79987,-107.19264,-97.679085,-93.578888,-93.15239,-92.772957,-89.747337,-84.061058,-78.163452,-75.184372,-76.880058,-82.618919,-89.919991,-96.026558,-99.411819,-100.29801,-100.02493,-99.872299,-100.21358,-100.52554,-100.10531,-98.851868,-97.484573,-97.045074,-98.087166,-100.19044,-102.18475,-102.94205,-102.17526,-100.67866,-99.843964,-100.79395,-103.72721,-107.89529,-112.17532,-115.79453,-118.69273,-121.30818,-124.00687,-126.62486,-128.48337,-128.86342,-127.57435,-125.18011,-122.70383,-121.01824,-120.35827,-120.29514,-120.16705,-119.6274,-118.89637,-118.53532,-118.93022,-119.89237,-120.69876,-120.56404,-119.20907,-117.10988,-115.23843,-114.47186,-115.08315,-116.65886,-118.47254,-120.0143,-121.27936,-122.62153,-124.32027,-126.2302,-127.80845,-128.50671,-128.21164,-127.36304,-126.62813,-126.37585,-126.38723,-126.08252,-125.13224,-123.95504,-123.5917,-124.84881,-127.17924,-128.09972,-123.75327,-110.56396,-87.198112,-55.726498,-21.226559,10.095748,33.345814,46.701305,51.647614,51.707317,50.490345,50.162243,51.041691,52.284119,52.985703,52.920029,52.517757,52.292999,52.289921,52.036552,51.051609,49.495209,48.416378,49.323437,53.2869,60.13884,68.310837,75.47007,79.62117,80.057297,77.636909,74.260201,71.866989,71.512001,72.982445,75.090981,76.414787,76.05278,74.017815,71.107979,68.37619,66.50428,65.416275,64.334869,62.259319,58.619495,53.744213,48.845615,45.460941,44.605564,46.104355,48.531467,49.877663,48.630074,44.653614,39.320377,34.753689,32.603809,33.100258,34.990307,36.422897,36.21246,34.636795,33.205536,33.522778,36.009556,39.396919,41.414703,40.2826,36.010715,30.57008,26.705059,26.078753,27.949089,29.302437,26.468927,17.291475,2.5452023,-14.241015,-28.425404,-36.355709,-36.7425,-30.684578,-20.631828,-9.1716976,1.5660415,9.749197,13.479646,10.952136,1.3768743,-13.867455,-30.827103,-43.99802,-48.563068,-42.711456,-28.656366,-11.622511,2.7289374,11.0007,13.352179,12.718352,12.565739,14.661056,18.229136,20.904261,20.694452,17.563766,13.572798,11.538168,13.168677,17.946402,23.47065,26.981436,27.018496,24.145979,20.355642,17.652893,16.820704,17.147215,17.186447,15.921322,13.487018,10.994837,9.66185,9.9182835,11.12648,12.0687,11.812458,10.328948,8.4594173,7.3054433,7.5046282,8.8835239,10.668015,12.031014,12.559606,12.345689,11.720158,10.906211,9.8793335,8.5082512,6.8032532,5.0176544,3.4915271,2.3657086,1.4255564,0.24363644,-1.4536535,-3.4733813,-5.1667233,-5.804996,-5.0822554,-3.3865845,-1.6254525,-0.70071036,-0.98240793,-2.1393409,-3.43678,-4.2839003,-4.6409488,-5.0024648,-5.979691,-7.7907796,-10.028547,-11.873635,-12.606123,-12.066244,-10.761888,-9.5711479,-9.2561874,-10.103836,-11.88685,-14.105325,-16.298187,-18.218704,-19.814177,-21.103554,-22.088202,-22.74894,-23.073675,-23.035822,-22.526947,-21.348331,-19.363283,-16.770975,-14.286747,-12.977077,-13.693025,-16.380947,-19.775692,-21.872898,-21.117966,-17.701113,-14.098508,-14.298715,-21.899279,-38.016052,-60.210934,-83.175858,-100.93975,-109.46651,-108.25593,-100.12652,-89.413719,-79.702866,-72.393089,-66.770782,-61.289379,-55.051029,-48.495514,-42.958504,-39.574821,-38.406654,-38.426521,-38.305698,-37.36697,-35.97913,-35.130177,-35.549805,-37.077076,-38.753918,-39.548172,-39.123821,-38.05204,-37.308907,-37.47467,-38.287125,-38.91444,-38.723362,-37.896912,-37.355293,-38.002518,-39.919392,-42.250507,-44.029572,-45.392574,-48.163956,-55.10043,-68.027084,-86.050583,-105.24354,-120.37421,-127.85877,-128.07964,-125.34892,-125.16967,-130.25836,-137.84239,-140.23248,-128.7708,-99.090866,-54.584232,-5.7988276,34.21043,56.159332,58.989658,50.045582,40.948196,41.554768,55.345787,78.575195,103.24052,121.80218,130.84705,131.85985,129.19005,126.91872,126.69578,127.66163,128.05873,127.10728,125.7702,125.99649,129.15652,134.8903,141.19905,145.67532,146.97946,145.5574,143.1781,141.69109,141.88893,143.20419,144.34282,144.31924,143.14658,141.74643,141.21567,142.00912,143.60141,144.82045,144.58806,142.5697,139.34807,136.07217,133.84622,133.22215,134.03015,135.55396,136.89319,137.32588,136.55005,134.76123,132.56145,130.71587,129.81744,129.98827,130.78246,131.38988,131.07442,129.60925,127.43021,125.379,124.17702,123.97208,124.27669,124.35526,123.79226,122.82108,122.14792,122.3751,123.45107,124.59589,124.82404,123.72695,121.92637,120.78528,121.48247,124.06764,127.22598,129.05586,128.44301,126.08672,124.31174,125.51291,130.01958,134.72166,133.54677,119.89124,89.935524,45.126896,-7.5847659,-58.047928,-96.714195,-118.13737,-122.55353,-114.9603,-102.38029,-90.799438,-83.227898,-79.551918,-77.839264,-76.095871,-73.455765,-70.320145,-67.654739,-66.090965,-65.452324,-64.941544,-63.763958,-61.715828,-59.344528,-57.598652,-57.21159,-58.20977,-59.839077,-60.94384,-60.572563,-58.469177,-55.188034,-51.787292,-49.283325,-48.16634,-48.22826,-48.772129,-49.061745,-48.746105,-48.021797,-47.456543,-47.594685,-48.585445,-50.050041,-51.254097,-51.471958,-50.328449,-47.937592,-44.795086,-41.527142,-38.659748,-36.520237,-35.267765,-34.96006,-35.56406,-36.897438,-38.576958,-40.070412,-40.879734,-40.773998,-39.927944,-38.86055,-38.188908,-38.332943,-39.339039,-40.909653,-42.588623,-43.957619,-44.718277,-44.651741,-43.572109,-41.417999,-38.519421,-35.897144,-35.328304,-38.955509,-48.439583,-63.952164,-83.5019,-103.04871,-117.563,-122.75095,-116.79881,-101.38062,-81.406036,-63.480942,-53.607777,-55.016136,-67.008156,-85.306335,-103.76132,-116.69228,-120.86625,-116.31194,-105.72532,-92.885834,-80.931458,-71.320473,-63.861786,-57.581978,-51.766033,-46.49979,-42.439487,-40.073696,-39.077438,-38.274685,-36.285835,-32.439003,-27.308933,-22.470543,-19.574936,-19.327074,-21.038933,-23.071295,-23.889456,-23.037188,-21.371595,-20.390049,-21.099525,-23.209953,-25.237406,-25.493799,-23.317497,-19.690193,-16.753229,-16.461113,-19.220104,-23.439922,-26.394581,-25.96192,-22.212343,-17.837879,-17.06241,-23.564798,-38.538403,-59.944962,-83.345161,-103.81445,-117.89885,-124.63303,-125.2496,-121.9568,-116.60725,-109.99704,-102.03802,-92.485138,-81.621391,-70.4356,-60.231976,-51.99316,-45.940502,-41.555244,-37.998173,-34.624176,-31.273603,-28.211668,-25.825354,-24.313618,-23.55735,-23.197855,-22.813402,-22.056595,-20.694786,-18.59906,-15.763028,-12.377157,-8.8926344,-5.9687357,-4.2558985,-4.0896707,-5.2671266,-7.0654988,-8.535183,-8.9309921,-8.0491047,-6.2803903,-4.3536921,-2.9235828,-2.2426815,-2.0963182,-2.0091481,-1.5695271,-0.65995365,0.53700608,1.7292681,2.7450304,3.630666,4.5512099,5.5781713,6.5379682,7.0582781,6.8096814,5.790503,4.4479823,3.5144405,3.6161468,4.8728094,6.7397299,8.2203856,8.3626451,6.7754183,3.874913,0.71358323,-1.5222511,-2.0752926,-0.94256836,1.1928397,3.3561854,4.7648897,5.1437669,4.7401114,4.0899854,3.7109034,3.894269,4.6669416,5.8711915,7.2610502,8.5527,9.4469166,9.6848602,9.1631718,8.0515022,6.8026876,5.9852042,5.988111,6.7664065,7.8111892,8.4090481,8.0652857,6.8352265,5.3401871,4.4346633,4.7192497,6.2027645,8.3240681,10.306165,11.596725,12.105624,12.114797,11.985144,11.92953,12.040353,12.510964,13.769356,16.250603,19.809614,23.140827,23.738525,18.710957,6.2263789,-13.152733,-36.116428,-57.6642,-73.196663,-80.579498,-81.015114,-78.17379,-76.042938,-76.738831,-79.573746,-81.914986,-81.258606,-77.174606,-71.863243,-68.961304,-71.378525,-79.58062,-91.433998,-103.67324,-113.94258,-121.95328,-128.8952,-135.47388,-139.99026,-138.00322,-124.16603,-95.379662,-53.395298,-5.1297269,39.781494,73.025711,91.078201,96.20372,94.52742,92.399803,93.206795,96.384941,98.968399,98.437065,94.922913,91.371048,91.647919,97.919609,109.04673,121.03161,129.21281,130.815,126.30592,118.83415,112.24115,108.96072,109.0509,110.76489,112.06342,111.96378,110.88909,109.96796,109.9568,110.6311,111.04849,110.39669,108.71639,106.92404,106.12189,106.73714,108.16516,109.21091,109.01769,107.79368,106.77602,107.41854,110.35596,114.8731,119.26308,121.83943,121.91582,120.10236,117.75945,116.03919,115.20896,114.70934,113.83596,112.47232,111.2788,111.17641,112.52501,114.65979,116.20467,115.9974,113.96764,111.28854,109.61696,109.9087,111.65152,113.11682,112.52909,109.37468,104.91179,101.45097,100.82628,103.0863,106.35348,108.04307,106.68654,103.11301,100.07182,100.35641,104.50177,109.51376,109.57441,98.543297,73.018654,34.361698,-11.374589,-55.572006,-90.170135,-110.33379,-115.5881,-109.18999,-96.315361,-82.019577,-69.789001,-61.043953,-55.485325,-51.907047,-49.058472,-46.245983,-43.513721,-41.398853,-40.411663,-40.518528,-40.933601,-40.391178,-37.800106,-32.919613,-26.624943,-20.540348,-16.206001,-14.26552,-14.180483,-14.65472,-14.487143,-13.284142,-11.563811,-10.214024,-9.7259235,-9.7799492,-9.4946499,-8.1475372,-5.8121209,-3.4038646,-2.0663188,-2.3358564,-3.7151396,-5.0026803,-5.1644378,-4.1107535,-2.7867453,-2.4842548,-3.8751628,-6.500236,-9.1254597,-10.718556,-11.293079,-11.920075,-13.81816,-17.172558,-20.638542,-22.077673,-20.192335,-15.982611,-12.911389,-15.426526,-26.576281,-46.129234,-70.380585,-93.808899,-111.60281,-121.56924,-124.40093,-122.39277,-117.684,-111.29521,-103.51603,-95.11747,-88.203415,-85.767647,-90.015572,-100.52951,-113.65056,-123.76152,-125.92107,-118.35239,-103.2911,-85.673637,-70.467628,-60.249474,-54.40971,-50.287163,-45.32637,-38.800316,-32.058372,-27.31123,-25.918911,-27.386444,-29.69265,-30.630819,-29.186779,-26.033804,-22.891508,-21.276859,-21.534027,-22.759367,-23.576614,-23.147831,-21.706066,-20.290104,-19.935257,-20.919931,-22.573196,-23.723799,-23.439163,-21.555983,-18.704363,-15.892664,-13.979373,-13.353829,-13.932092,-15.341951,-17.096262,-18.659737,-19.475821,-19.079544,-17.324703,-14.590298,-11.759321,-9.8732767,-9.5970507,-10.809081,-12.607084,-13.779005,-13.483982,-11.7307,-9.3513441,-7.4846992,-6.8951144,-7.5538974,-8.7309504,-9.5081034,-9.3599157,-8.4251528,-7.3195338,-6.6528988,-6.5993505,-6.8079262,-6.6897602,-5.8561382,-4.3906255,-2.7705939,-1.5079405,-0.77332348,-0.27187771,0.54483682,2.081933,4.29668,6.6964784,8.6420841,9.7548447,10.162842,10.431847,11.232271,12.953695,15.495369,18.335712,20.810047,22.418142,23.000147,22.729252,21.98444,21.20808,20.810381,21.107527,22.247168,24.111427,26.259352,28.002708,28.654154,27.865522,25.872181,23.46554,21.653002,21.159573,22.050945,23.715372,25.238478,25.959169,25.866453,25.581133,25.922728,27.331568,29.521473,31.601755,32.608772,32.11742,30.541775,28.925901,28.350683,29.32646,31.545891,34.132931,36.204224,37.370476,37.870064,38.291714,39.120285,40.437546,41.969048,43.399433,44.682575,46.091969,47.972694,50.401554,53.046448,55.368935,57.040932,58.256351,59.666222,61.931835,65.187653,68.806999,71.67968,72.855148,72.132484,70.192497,68.174011,66.983627,66.81675,67.211365,67.56102,67.667747,67.884087,68.715569,70.200951,71.613754,71.833588,70.2229,67.37793,65.073486,65.195381,68.17907,71.958023,72.286377,64.54567,46.206024,18.586254,-13.177751,-42.096737,-62.277092,-71.336235,-71.060051,-66.061348,-61.281231,-59.724037,-61.547035,-64.757744,-66.865623,-66.422081,-63.641022,-59.971935,-57.122627,-56.226517,-57.576164,-60.869293,-65.595695,-71.223335,-77.129814,-82.500366,-86.447243,-88.383064,-88.402107,-87.334465,-86.33461,-86.21199,-86.942055,-87.716911,-87.538383,-85.967995,-83.513168,-81.359596,-80.609306,-81.539383,-83.400322,-84.910728,-85.12149,-84.055489,-82.67244,-82.171089,-83.106071,-84.937996,-86.347816,-86.12178,-84.011383,-80.97522,-78.619263,-78.194229,-79.811462,-82.394157,-84.387184,-84.742332,-83.522964,-81.745972,-80.607796,-80.655251,-81.478752,-82.117218,-81.8508,-80.783142,-79.774551,-79.767036,-80.998642,-82.704483,-83.566597,-82.632774,-80.064095,-77.156914,-75.574669,-76.281082,-78.897514,-81.936493,-83.76828,-83.66732,-82.222305,-80.832947,-80.656624,-81.760841,-83.096008,-83.317978,-81.868134,-79.509995,-77.889175,-78.385193,-81.063179,-84.510773,-86.746109,-86.606331,-84.621742,-82.66394,-82.473961,-83.991432,-84.648994,-80.26445,-67.165787,-44.360893,-14.457722,17.257526,45.100872,65.368828,77.549538,83.846222,87.49025,90.944878,95.00032,99.069672,102.21391,104.0602,105.01579,105.78249,106.68672,107.40945,107.32672,106.16542,104.42772,103.21413,103.53298,105.57506,108.47334,110.73631,111.08454,109.15778,105.66423,101.92061,99.109932,97.714897,97.41275,97.39798,96.862244,95.343529,92.818512,89.597519,86.155655,82.982567,80.451393,78.693306,77.524483,76.519043,75.263977,73.679649,72.16819,71.404022,71.824959,73.161766,74.420692,74.478783,72.985031,70.910957,70.175766,72.329742,77.00013,81.179985,80.121414,69.668823,48.871532,21.318375,-5.8092046,-24.706844,-30.450954,-23.134811,-7.456275,9.9618855,23.920752,32.716599,37.839008,41.71896,45.173317,46.337223,41.850471,29.531376,10.726708,-9.3441133,-23.696789,-27.025953,-18.476097,-2.0792487,15.421916,28.095541,33.651024,34.018688,33.515274,35.866299,41.951897,49.570732,55.185219,56.383614,53.43169,48.973,46.185436,46.687649,49.588493,52.256012,52.217896,48.870411,43.844223,39.818081,38.637405,40.05957,41.998421,42.0853,39.430443,35.308788,32.238274,32.06712,34.442196,36.835682,36.248722,31.487114,24.374256,18.859985,18.3738,23.055725,28.780912,28.899935,17.915852,-5.0076218,-34.871399,-62.851559,-80.449226,-83.441704,-73.434464,-56.296974,-38.645538,-24.619205,-14.816939,-7.7247119,-2.3053403,0.25525472,-3.0554316,-14.807369,-34.599545,-58.1007,-78.456528,-89.310265,-87.662727,-74.962051,-55.991402,-36.473648,-20.928217,-11.854444,-10.204787,-16.205435,-29.53124,-48.623413,-69.897301,-87.932724,-97.146576,-94.310677,-80.438202,-60.695984,-42.111191,-30.229126,-26.605507,-28.561178,-31.254745,-30.725698,-26.035427,-19.30579,-13.850641,-11.779558,-12.669859,-14.069527,-13.328666,-9.4247723,-3.5682158,1.7085268,4.2406526,3.5188107,0.78536344,-1.9702295,-3.3083975,-3.0413773,-1.9925946,-1.1710691,-1.0619254,-1.5132594,-2.1507065,-2.8394468,-3.7517495,-5.0160789,-6.3396258,-7.0443349,-6.5870223,-5.1607428,-3.8158813,-3.8708718,-5.9699702,-9.5121222,-12.980125,-15.034465,-15.592014,-16.016361,-18.145773,-22.78092,-28.76339,-33.455597,-34.433548,-31.240538,-25.867279,-21.462852,-20.092104,-21.190037,-22.013485,-19.996389,-15.411719,-12.267624,-16.39698,-31.652353,-56.652813,-84.475517,-105.90605,-114.45932,-110.00462,-98.53672,-88.099014,-83.48571,-83.313332,-81.565193,-72.676918,-56.658733,-40.488537,-34.371281,-44.987507,-70.154236,-98.743111,-116.44207,-114.07115,-93.24057,-65.562988,-45.607479,-41.805897,-50.968246,-59.933937,-53.473133,-23.6562,25.011351,77.760368,117.62716,134.50499,129.88043,114.80417,102.80897,102.3277,113.02866,127.68913,137.73236,138.58919,131.68216,122.37774,115.87701,114.02396,114.95107,115.3062,113.10078,109.07565,105.80852,105.4963,108.1992,111.81882,113.6998,112.5651,109.34894,106.39797,105.73102,107.67345,110.80616,113.14268,113.56793,112.47332,111.21543,110.93788,111.7261,112.72272,113.02426,112.56075,112.20334,113.00026,115.17361,117.73369,119.09637,118.28486,115.79008,113.3686,112.84349,114.75654,117.89118,120.08347,119.78318,117.22837,114.32569,113.25671,114.79823,117.62772,119.23018,117.85236,114.09534,110.84316,111.29629,116.22408,122.25204,122.5285,109.71492,79.782707,34.512367,-18.736086,-69.890259,-110.14059,-134.99159,-145.0296,-144.40762,-138.23329,-130.38884,-122.73416,-115.63737,-109.03062,-103.11363,-98.339066,-94.94986,-92.634377,-90.66539,-88.422729,-85.860924,-83.52729,-82.100883,-81.804871,-82.145256,-82.179688,-81.121277,-78.840363,-75.914627,-73.217918,-71.365959,-70.413597,-69.981171,-69.656532,-69.329132,-69.197578,-69.473289,-70.051712,-70.447998,-70.078438,-68.686531,-66.583206,-64.498222,-63.127464,-62.692139,-62.82412,-62.858055,-62.317097,-61.242767,-60.1381,-59.576557,-59.767769,-60.392574,-60.815899,-60.511383,-59.388908,-57.802967,-56.262661,-55.077541,-54.202206,-53.374226,-52.410145,-51.408653,-50.692791,-50.534359,-50.878952,-51.295212,-51.205334,-50.244106,-48.499176,-46.473656,-44.810951,-43.977982,-44.102394,-45.015556,-46.391109,-47.826992,-48.829052,-48.81649,-47.323902,-44.438267,-41.255638,-39.968124,-43.275799,-53.177502,-69.638596,-89.873215,-108.80818,-120.75117,-121.63993,-110.86937,-91.811905,-70.725014,-54.482361,-48.08955,-53.000893,-66.844826,-84.530762,-100.1688,-109.00935,-108.73824,-99.812523,-84.902061,-67.766647,-51.999397,-40.027271,-32.62896,-29.049976,-27.601603,-26.473827,-24.432102,-21.141973,-17.052479,-12.97964,-9.6519747,-7.4461231,-6.3810806,-6.2674513,-6.8378816,-7.7585154,-8.5676689,-8.6846151,-7.5888672,-5.1158366,-1.6688069,1.8571435,4.4752889,5.6297097,5.5082221,4.9095135,4.7116213,5.274827,6.1910262,6.5828805,5.7813096,3.9230721,2.0250874,1.4238391,2.9069753,6.108182,9.6008453,11.68137,11.369738,8.9916525,5.9660358,3.9398427,3.8387842,5.4458108,7.745513,9.7426958,11.146895,12.437202,14.293879,16.865208,19.471582,21.025265,20.885094,19.482403,18.150013,18.132858,19.391724,20.075518,17.20153,8.3236017,-6.7317286,-25.143074,-41.945942,-52.110096,-52.75927,-44.349865,-30.223604,-14.871788,-1.9285796,7.0465112,12.510974,15.909859,18.479898,20.630415,22.129263,22.744879,22.745644,22.862368,23.782122,25.606218,27.71669,29.172722,29.357672,28.415443,27.174004,26.622334,27.312237,29.083708,31.261614,33.137482,34.377331,35.093533,35.59296,36.049351,36.373775,36.370323,36.021988,35.645073,35.756142,36.726261,38.470917,40.40947,41.74004,41.859287,40.67041,38.617928,36.477852,35.066601,35.022617,36.697781,40.095196,44.801838,49.969231,54.471878,57.307056,58.101334,57.409874,56.518143,56.736668,58.560589,61.263042,63.297527,63.359787,61.433365,59.016815,58.178257,59.884399,62.683498,62.799419,55.919704,39.855877,16.526405,-8.095665,-26.333458,-32.33902,-24.888914,-7.8503871,11.962182,28.302069,38.356541,43.392761,47.010044,52.283352,59.680401,67.012199,71.274574,70.996063,67.437881,63.844353,63.308842,66.761566,72.467361,77.345688,79.150658,77.963211,75.954041,75.613914,77.747498,80.710846,81.500725,77.976906,70.643196,62.645222,57.831959,58.077343,61.643982,63.771896,59.265278,45.55228,24.359514,0.99042141,-18.334021,-29.472427,-31.994556,-28.688686,-23.515692,-19.424459,-17.310083,-16.471905,-15.905928,-15.338835,-15.301598,-16.381878,-18.431528,-20.48078,-21.485178,-21.312447,-21.128643,-22.763386,-27.412197,-34.584759,-42.105755,-47.270473,-48.443703,-46.050785,-42.294498,-39.780003,-39.954491,-42.369682,-45.19548,-46.564888,-45.803364,-43.736115,-41.947941,-41.594238,-42.626255,-43.940174,-44.272999,-43.15094,-41.204975,-39.665302,-39.44783,-40.514355,-41.949726,-42.656471,-42.130272,-40.759384,-39.474785,-39.059372,-39.64352,-40.728447,-41.656292,-42.122253,-42.337387,-42.765491,-43.704102,-45.078629,-46.60157,-48.110847,-49.735748,-51.695187,-53.885548,-55.660324,-56.106178,-54.719692,-51.994404,-49.381947,-48.494125,-50.004395,-53.038704,-55.609791,-55.944908,-53.856419,-51.140339,-50.550041,-53.859528,-60.247723,-66.166718,-66.975548,-59.471172,-43.795219,-23.509678,-3.7490594,11.441581,20.974827,26.723063,31.796423,38.322014,46.192307,53.514362,58.303211,60.138123,60.589867,62.137108,66.370773,72.781319,79.005585,82.384178,81.768967,78.349159,74.937332,74.196915,76.985924,81.882378,86.147438,87.441841,85.169914,80.644753,76.086998,73.211449,72.337814,72.515335,72.431404,71.390106,69.694679,68.258301,67.815254,68.331963,69.007454,68.805382,67.111412,64.083916,60.529034,57.453423,55.600574,55.196411,55.938774,57.139244,57.937675,57.583084,55.774624,52.939552,50.203014,48.854733,49.411556,50.761059,50.048206,43.698616,29.314024,7.5009623,-17.515226,-39.135803,-51.124912,-50.531208,-39.236008,-23.227612,-9.9261169,-4.9523907,-9.996356,-22.74235,-38.601879,-53.048019,-63.21048,-68.089561,-67.745049,-62.416504,-52.356445,-38.403912,-22.600723,-8.0283327,2.3682282,7.3352313,8.1342058,7.8571315,9.4317379,13.485558,17.498106,16.972712,8.1021185,-9.6079102,-32.376011,-53.526993,-66.516113,-67.923721,-58.792149,-43.68483,-28.168104,-16.232292,-9.0228558,-5.3175855,-3.1110868,-1.1303092,0.62740046,1.4439186,0.88546169,-0.5750038,-1.7573869,-1.5800102,0.17342858,2.694546,4.6917877,5.2213783,4.2229114,2.4248071,0.74749136,-0.33698148,-1.0485225,-2.0276737,-3.7993965,-6.3747835,-9.2457266,-11.719616,-13.310512,-13.90812,-13.653952,-12.687775,-11.007719,-8.5668678,-5.5178714,-2.3844998,0.014730169,0.88429093,-0.17261228,-2.9464982,-6.6973677,-10.454833,-13.371859,-14.974221,-15.24796,-14.600392,-13.750938,-13.567046,-14.830049,-17.949982,-22.732145,-28.348213,-33.605602,-37.444466,-39.422981,-39.909588,-39.842903,-40.176521,-41.331425,-42.98888,-44.349304,-44.688118,-43.850864,-42.374756,-41.171135,-40.986645,-41.990288,-43.730011,-45.446793,-46.507526,-46.671791,-46.058292,-44.903362,-43.338127,-41.363331,-39.019993,-36.584805,-34.593204,-33.62701,-33.994354,-35.528072,-37.658272,-39.723305,-41.313557,-42.418823,-43.29319,-44.154705,-44.953655,-45.385948,-45.141415,-44.197815,-42.933952,-41.965965,-41.813717,-42.627689,-44.159653,-45.977745,-47.747364,-49.360104,-50.826519,-52.052685,-52.73391,-52.521225,-51.39185,-49.948997,-49.358547,-50.844364,-54.981121,-61.221165,-68.00798,-73.48658,-76.431709,-76.84198,-75.829025,-74.86705,-74.881142,-75.761162,-76.606491,-76.513115,-75.340225,-73.902061,-73.428947,-74.665016,-77.251961,-79.876366,-81.129875,-80.504562,-78.799904,-77.586174,-78.028122,-79.874146,-81.386536,-80.398811,-75.896172,-69.058548,-62.930412,-60.704784,-63.534943,-69.216019,-72.689537,-68.304955,-52.719414,-26.873392,4.0687103,32.830849,53.110645,62.084953,61.175564,54.89777,48.590805,46.258255,49.464176,57.504055,68.387192,79.907852,90.299919,98.409081,103.63436,105.90183,105.7143,104.11143,102.37378,101.51192,101.81384,102.76534,103.44604,103.17627,101.99591,100.65074,100.09524,100.85817,102.71435,104.88745,106.62779,107.74104,108.68303,110.15543,112.5052,115.37849,117.8969,119.24262,119.23509,118.47881,117.96439,118.39685,119.72228,121.18477,121.8689,121.34165,119.94523,118.55078,117.96955,118.45073,119.60896,120.79146,121.5706,121.97646,122.31467,122.76266,123.12295,122.98158,122.16502,121.0956,120.66676,121.61813,123.82971,126.1226,126.86613,125.10212,121.42236,117.86449,116.68807,118.70173,122.26762,123.82649,119.85965,109.19928,94.207268,79.904518,71.373878,70.912392,76.698303,83.900284,87.655403,86.108261,81.554985,78.830528,81.785912,89.971039,97.655838,96.028587,77.559212,40.207123,-10.83238,-64.829468,-109.81026,-137.26651,-145.03232,-137.17842,-121.35493,-105.17762,-93.442314,-87.219963,-84.777008,-83.425613,-81.206734,-77.688164,-73.771446,-70.87693,-70.035149,-71.300919,-73.6791,-75.534164,-75.295456,-72.166237,-66.520195,-59.770081,-53.728508,-49.760567,-48.182022,-48.249985,-48.745655,-48.766094,-48.192364,-47.519146,-47.194336,-47.002361,-46.032562,-43.355495,-38.961388,-34.217083,-31.339205,-32.051949,-36.253548,-41.666477,-44.915779,-43.559139,-37.881493,-31.272764,-28.788601,-34.588203,-49.659206,-71.107002,-93.379173,-110.68671,-119.26716,-118.36966,-109.72337,-96.165993,-80.463371,-64.965759,-51.961193,-44.001331,-43.517067,-51.669464,-67.120094,-85.691704,-101.47307,-109.04487,-105.74097,-92.731102,-74.324707,-55.88311,-41.478855,-32.510105,-27.851624,-25.216198,-22.771116,-20.051626,-17.776638,-16.899595,-17.656502,-19.27033,-20.456066,-20.312551,-18.947454,-17.394119,-16.876244,-17.922241,-19.934618,-21.520966,-21.388208,-19.217543,-15.925428,-13.09686,-11.922548,-12.338151,-13.000806,-12.248253,-9.5424929,-6.4980249,-6.7174983,-14.287147,-31.586575,-57.567673,-87.523346,-114.62448,-132.55078,-137.92628,-131.36415,-116.68597,-98.864731,-81.869888,-67.512283,-55.683437,-45.525124,-36.593639,-29.259832,-24.234877,-21.753326,-21.136492,-21.09911,-20.549282,-19.237186,-17.729715,-16.728239,-16.289392,-15.621265,-13.701418,-10.296954,-6.5702887,-4.6613274,-6.351438,-11.643707,-18.293217,-22.786106,-22.312944,-16.545496,-8.0419054,-0.90982461,1.5400367,-1.2559108,-6.7601418,-10.801378,-9.9735031,-3.5317428,6.2895484,15.609466,20.979256,20.959654,16.412062,9.6016006,2.9024777,-2.0447586,-4.3968534,-3.7232845,0.21126631,7.1622162,15.862717,23.858866,28.197439,26.817219,19.850603,9.9040556,0.91901237,-3.8760493,-3.7487793,-0.86300862,1.020515,-1.1892613,-8.0353918,-17.152454,-24.618654,-27.166197,-23.906504,-16.591349,-8.3891592,-2.0617642,1.2966574,2.290138,2.2339823,2.0115879,1.6244116,0.66308904,-0.81640714,-1.8428736,-0.9879061,2.5342402,7.9726467,13.150136,15.687678,14.593883,11.075088,7.8348999,7.1369791,8.8410912,9.8149452,5.3639736,-7.9640899,-29.828058,-55.431614,-77.342361,-88.90287,-87.352676,-74.919083,-57.332756,-40.735714,-28.827578,-21.810648,-17.469835,-13.384268,-8.6813221,-4.2479105,-1.5023595,-0.84981918,-1.0912974,-0.26062742,2.7700403,7.206882,10.714753,11.110951,8.1763067,4.1738653,2.4929705,5.1676888,10.923288,15.209414,12.452565,-0.70590252,-23.140329,-49.362972,-72.007668,-85.218163,-87.008568,-79.415764,-66.695595,-52.948448,-40.668064,-30.807093,-23.763653,-20.096415,-20.180298,-23.064342,-25.646511,-23.23864,-11.634003,10.408193,39.880043,70.471306,95.39724,110.52373,115.97073,115.32861,113.13181,112.28158,113.00007,113.74399,113.13939,111.37547,110.02418,110.50938,112.50245,113.59673,110.66356,102.01381,88.82515,74.746788,63.855396,58.313129,57.322872,58.095341,58.144493,57.290367,57.93504,63.36636,75.217979,91.825073,108.64523,120.55318,124.58857,121.45331,114.88131,109.36124,107.6774,109.73312,113.20094,115.36687,114.87632,112.32107,109.48435,107.9447,108.05302,108.90674,109.19686,108.23932,106.46992,105.13052,105.43787,107.81683,111.6548,115.64575,118.44381,119.24265,118.03813,115.55172,112.92721,111.32529,111.50652,113.50172,116.51313,119.17558,120.15976,118.86589,115.80781,112.38787,110.11279,109.69316,110.61304,111.49801,111.0804,109.11703,106.59834,105.0561,105.4325,107.34084,109.32182,109.98549,109.21381,108.4233,109.45525,112.64931,115.39906,112.41362,97.962143,69.096169,28.050577,-17.715717,-58.141716,-84.646706,-93.604507,-87.448486,-72.950455,-57.739975,-46.983006,-41.864044,-40.351524,-39.420437,-37.228546,-34.018291,-31.466703,-31.179594,-33.43552,-36.961349,-39.764278,-40.381199,-38.728378,-36.079647,-34.279472,-34.722782,-37.681313,-42.26944,-46.956341,-50.283443,-51.434692,-50.463562,-48.168163,-45.723045,-44.2159,-44.238274,-45.670513,-47.761208,-49.500843,-50.141113,-49.598518,-48.499199,-47.803883,-48.208229,-49.681423,-51.451794,-52.480396,-52.141582,-50.670288,-49.06142,-48.452023,-49.361629,-51.278439,-52.875443,-52.747498,-50.231041,-45.817234,-40.923477,-37.179207,-35.654137,-36.450626,-38.820759,-41.646832,-43.950916,-45.168839,-45.151096,-44.056004,-42.329205,-40.813889,-40.836578,-44.034695,-51.81292,-64.571693,-81.074554,-98.355316,-112.36736,-119.23927,-116.69659,-105.08955,-87.584671,-69.37838,-56.149296,-52.250263,-59.256977,-75.395699,-96.088326,-115.45938,-128.28043,-131.63445,-125.67265,-113.20128,-98.332222,-84.827705,-74.865074,-68.691086,-65.162773,-62.742664,-60.359608,-57.728516,-55.105515,-52.791348,-50.785206,-48.806808,-46.599617,-44.224396,-42.08321,-40.641468,-40.05965,-40.025463,-39.932007,-39.288742,-38.070587,-36.743889,-35.93578,-35.972996,-36.620197,-37.216068,-37.127388,-36.210636,-34.951946,-34.167648,-34.44725,-35.705112,-37.14904,-37.709866,-36.679592,-34.168747,-31.102873,-28.757433,-28.10177,-29.320562,-31.759192,-34.287952,-35.858376,-35.956146,-34.754326,-32.9534,-31.442453,-30.958187,-31.862253,-34.068722,-37.094688,-40.198154,-42.580227,-43.624531,-43.115349,-41.344608,-39.030224,-37.040714,-36.025047,-36.118382,-36.880627,-37.518322,-37.293804,-35.919575,-33.733555,-31.558004,-30.30707,-30.538471,-32.17487,-34.534134,-36.650124,-37.719131,-37.446918,-36.128475,-34.436131,-33.044891,-32.303959,-32.126705,-32.13871,-31.971836,-31.512236,-30.950148,-30.615309,-30.725275,-31.230152,-31.864159,-32.360725,-32.660358,-32.937351,-33.404514,-34.03661,-34.445782,-34.060665,-32.54092,-30.149454,-27.772024,-26.476774,-26.836637,-28.470665,-30.203974,-30.884315,-30.427755,-30.405634,-33.647087,-42.875961,-59.026585,-80.192352,-101.91854,-118.84679,-126.94651,-125.19149,-115.80698,-102.98817,-90.825584,-81.574562,-75.141891,-69.907997,-64.226799,-57.617325,-50.957264,-45.687759,-42.675285,-41.547279,-40.938217,-39.43264,-36.517574,-32.873787,-29.815689,-28.293814,-28.180401,-28.357689,-27.558361,-25.364447,-22.634941,-21.008858,-21.772314,-24.849268,-28.642736,-30.916576,-30.207527,-26.857201,-22.934635,-20.991671,-22.341833,-25.904877,-28.378754,-25.74618,-15.343757,2.6180165,24.901577,46.532127,62.854359,71.336235,72.317001,68.49881,63.596542,60.864685,62.113075,67.454102,75.651909,84.764336,92.802223,98.263718,100.4938,99.826347,97.445564,94.948212,93.720436,94.384644,96.596886,99.321838,101.4473,102.39119,102.35015,102.061,102.25521,103.17693,104.4756,105.51698,105.86732,105.59808,105.20357,105.21171,105.78852,106.62882,107.20194,107.15137,106.536,105.73085,105.07634,104.56735,103.84715,102.53079,100.61101,98.610748,97.320839,97.278313,98.360718,99.816666,100.74642,100.7072,100.00354,99.434395,99.66497,100.68404,101.7685,102.01624,101.07935,99.548767,98.661629,99.48101,102.09801,105.42793,107.78239,107.86233,105.51376,101.74337,98.001724,95.24707,93.440346,91.793991,89.542725,86.6315,83.796921,81.992531,81.616676,82.158997,82.562241,82.038483,80.709305,79.552681,79.665298,81.392807,84.014511,86.264656,87.315727,87.446342,87.809532,89.405258,92.040855,94.18576,94.021782,91.040276,86.94101,84.869629,87.117104,92.612183,95.999893,89.370842,66.125809,24.992451,-28.161947,-82.012436,-124.31003,-146.97554,-149.1156,-136.50221,-118.04479,-101.37623,-89.946045,-82.888199,-77.192116,-70.45842,-62.474216,-54.886093,-49.591877,-47.21104,-46.718945,-46.34993,-44.944038,-42.678535,-40.686047,-39.943409,-40.348568,-40.715092,-39.680031,-36.810616,-33.039551,-30.063274,-29.119204,-30.035116,-31.265017,-30.92248,-28.103823,-23.577688,-19.354708,-17.427599,-18.535929,-21.772526,-25.250883,-27.328571,-27.537594,-26.630907,-25.806208,-25.735155,-26.113373,-26.015907,-24.730734,-22.401722,-19.982336,-18.540678,-18.455868,-19.132528,-19.4718,-18.762863,-17.326555,-16.402004,-17.310211,-20.46315,-24.923954,-28.857172,-30.592941,-29.600786,-26.729649,-23.577702,-21.448219,-20.610739,-20.341675,-19.650763,-18.119865,-16.228598,-14.944325,-14.909186,-15.856766,-16.71702,-16.351807,-14.386473,-11.519557,-9.0676899,-8.063653,-8.5597239,-9.6455116,-10.168314,-9.6243629,-8.5556335,-8.1452541,-9.2982101,-11.88738,-14.740057,-16.403124,-16.143326,-14.44565,-12.623162,-11.803342,-12.033209,-12.186371,-10.783095,-7.1547174,-2.0971556,2.5065234,4.8791008,4.5340734,2.6010084,1.0364823,1.2699305,3.2603748,5.6583939,6.957129,6.75734,6.1345005,6.7206926,9.0818539,11.586637,10.74351,3.0246336,-12.866339,-34.74152,-57.590042,-75.853897,-85.977829,-87.72036,-83.53833,-76.623711,-69.013847,-61.039566,-52.339203,-43.489082,-36.824051,-35.599842,-41.889317,-54.631401,-69.315933,-79.795151,-81.308746,-72.94104,-58.005127,-42.109985,-30.095821,-23.68504,-21.175917,-19.168194,-15.049868,-8.6033735,-1.8011378,2.8752422,4.3100462,3.5182967,2.8536911,4.3140306,8.1790504,12.910616,16.317539,17.112486,15.766766,14.115876,14.060949,16.310522,20.014839,23.46917,25.31221,25.350788,24.479221,23.849192,23.968962,24.403467,24.247379,22.947668,20.806952,18.774067,17.698105,17.646818,17.844934,17.308159,15.697275,13.716705,12.695337,13.596684,16.162893,18.856361,19.729488,17.694048,13.342784,8.7356863,6.2377906,7.1287212,10.865877,15.461562,18.715721,19.508989,18.355217,16.920681,16.885426,18.905901,22.308741,25.624926,27.534472,27.585924,26.282957,24.59288,23.294548,22.616182,22.338634,22.188404,22.17194,22.605492,23.8589,26.0422,28.872242,31.787922,34.192085,35.64035,35.895592,34.912899,32.868122,30.248528,27.880266,26.72999,27.462297,29.97193,33.241222,35.744053,36.263191,34.639248,31.903772,29.576628,28.461868,27.692825,24.740017,16.564728,1.3787116,-19.98381,-43.938412,-65.443642,-80.070488,-85.749939,-83.298676,-75.545403,-65.673485,-55.771866,-46.343521,-36.8549,-26.773262,-16.32715,-6.5280366,1.4475385,6.9964895,10.41609,12.639946,14.635464,16.913292,19.45034,21.981932,24.355682,26.65057,29.012791,31.423054,33.664585,35.5634,37.293365,39.425083,42.570946,46.822361,51.415581,54.977139,56.306152,55.21851,52.842205,51.061893,51.388069,53.97411,57.476635,59.92289,60.050236,58.206844,56.147686,55.801121,57.828106,61.013,63.013779,62.061356,58.462311,54.76276,54.240692,58.523487,65.835304,71.152618,68.458336,53.979252,28.586508,-2.0920894,-30.04167,-48.499474,-54.934673,-51.831589,-44.986401,-40.379501,-41.362259,-47.560131,-55.819729,-62.396366,-65.035606,-63.877209,-60.930008,-58.680344,-58.74498,-61.253235,-65.094353,-68.682899,-70.740082,-70.754517,-69.067871,-66.707268,-65.087189,-65.619118,-69.2425,-75.977371,-84.714066,-93.45108,-100.00117,-102.89637,-102.03499,-98.690613,-94.83947,-92.161789,-91.277649,-91.639038,-92.09745,-91.753464,-90.541367,-89.201111,-88.705391,-89.560013,-91.453255,-93.467926,-94.67955,-94.714714,-93.898254,-92.925278,-92.328064,-92.135178,-91.957985,-91.414154,-90.54628,-89.898689,-90.170113,-91.681305,-94.048958,-96.328369,-97.561737,-97.375824,-96.221031,-95.077232,-94.812958,-95.626129,-96.944954,-97.857651,-97.77787,-96.887245,-96.043854,-96.20649,-97.756226,-100.17149,-102.28083,-102.9348,-101.66569,-98.921555,-95.753296,-93.193611,-91.7491,-91.312187,-91.480682,-91.983276,-92.85865,-94.25502,-96.039223,-97.581284,-97.967735,-96.565552,-93.551079,-89.978752,-87.252884,-86.299614,-87.004227,-88.360466,-89.311798,-89.747154,-90.911003,-94.785942,-102.65771,-113.6758,-124.36494,-129.58434,-124.60936,-107.31561,-79.310959,-45.393337,-11.607282,17.09239,38.410477,52.85318,62.602791,69.933945,76.094009,81.140244,84.574966,86.170593,86.380821,86.126297,86.214058,86.874832,87.756554,88.339622,88.426369,88.324898,88.599754,89.597534,91.123589,92.528969,93.15741,92.831551,92.02137,91.560753,92.09697,93.647362,95.564537,96.933037,97.131653,96.194122,94.747574,93.593124,93.218468,93.552658,94.090874,94.26857,93.820251,