Bandpass,0,0.21086,128.46049,-1301.709,-1902.2762,-1565.9945,-626.35101,280.03143,609.63885,258.0513,-403.28302,-821.26953,-665.24835,-48.23761,583.125,792.81506,472.64896,-95.874596,-466.83902,-363.94077,125.34294,630.23053,780.12805,475.10574,-52.940662,-423.039,-387.21353,-1.9627606,430.06387,594.17004,393.95663,9.8460026,-248.62787,-178.7036,168.66916,534.75861,649.91821,430.89969,34.504375,-265.12231,-278.07404,-28.763577,276.38232,411.35178,297.19168,50.123417,-118.35724,-68.120178,163.46785,393.17831,433.37195,234.64519,-76.506271,-290.45401,-266.28851,-30.258293,249.00018,386.02277,310.02905,107.10065,-53.21529,-47.805874,111.26921,292.42261,348.50021,228.73088,15.59303,-138.11676,-122.45384,50.944489,260.94113,367.62173,312.46835,154.67801,20.076979,4.1540837,102.74509,220.55244,248.17627,147.78165,-17.075304,-128.66609,-102.78078,48.908665,227.53316,319.17377,276.40298,149.45149,45.467037,47.424034,153.00412,277.81317,319.35632,233.94691,70.226936,-64.496964,-79.920944,34.430744,203.58971,321.16644,323.04147,228.20917,119.50271,80.591812,135.9344,236.23192,297.7226,264.94263,151.13745,28.314739,-24.106886,25.882204,143.28799,253.71936,296.25467,262.96353,198.09232,160.17332,176.70982,224.93504,251.68994,216.42776,124.90687,28.610849,-9.8422318,39.36945,150.98808,259.41016,299.97321,248.62547,134.09453,16.364674,-52.04697,-55.503929,-17.402267,22.953812,39.983788,36.814449,36.913586,61.063046,108.1108,153.78561,167.75986,135.81462,70.822769,4.9345675,-31.014223,-26.180214,6.0997505,40.383945,57.847473,58.062698,56.065094,67.874016,95.761703,124.29438,130.11159,98.528542,35.288601,-34.771107,-81.426849,-86.243164,-52.323765,-0.94556624,42.036755,60.955105,57.220497,45.014912,39.740227,47.283432,60.799549,66.298523,52.674812,19.481262,-22.196428,-55.747952,-67.80703,-54.530922,-22.256048,16.9636,51.651451,75.325356,87.105629,89.155655,83.324677,69.393867,45.922485,12.883879,-25.84881,-62.017063,-85.190712,-86.857735,-64.460938,-23.322212,24.687832,65.330124,87.196526,85.553856,63.139336,27.827885,-11.25594,-46.899635,-74.685204,-91.771965,-95.34317,-82.742996,-53.938511,-14.75995,22.002771,39.873386,25.894007,-21.735064,-90.344925,-156.80789,-197.73618,-200.71059,-170.16637,-124.28686,-84.526184,-63.956291,-61.481503,-65.323235,-63.218002,-52.345898,-42.106892,-47.598881,-77.997002,-127.76734,-177.13908,-202.31534,-189.36612,-142.98311,-84.274002,-38.707844,-21.697744,-30.893538,-49.923008,-60.85936,-56.995823,-47.361599,-49.940903,-78.132683,-129.59418,-185.17953,-219.11346,-214.14174,-172.03212,-112.7002,-62.516602,-39.26968,-43.303669,-60.198734,-72.744942,-73.866463,-71.590088,-82.511978,-118.03161,-172.76608,-223.57455,-240.98062,-206.63538,-126.05157,-28.150133,49.034492,78.582008,58.992348,13.968637,-22.305122,-25.628586,4.2510719,44.428661,63.605854,41.565109,-18.596079,-92.666031,-150.02917,-171.2782,-157.73531,-127.54739,-101.91599,-91.249664,-90.53334,-86.449936,-70.466949,-47.946056,-36.236031,-52.659187,-100.75106,-164.76691,-217.02898,-233.81699,-209.39455,-158.7877,-107.53548,-75.57135,-66.374245,-68.648781,-68.705818,-63.881359,-66.458221,-94.475777,-155.70375,-236.76575,-306.52368,-333.04156,-303.4903,-233.43004,-158.4536,-112.98795,-109.99413,-135.0166,-158.44145,-157.42131,-132.29085,-106.12622,-107.81512,-150.49013,-220.42339,-284.22449,-309.50418,-284.94223,-226.31744,-164.97052,-127.28227,-119.53706,-128.08452,-133.42516,-126.954,-117.66142,-123.97389,-157.20958,-209.50929,-255.91373,-269.83398,-241.15315,-183.93024,-127.88728,-99.356613,-104.87926,-128.75017,-145.89253,-140.63095,-117.95006,-99.415184,-106.96787,-146.33673,-201.81407,-245.85387,-256.47354,-230.30841,-182.80727,-136.51578,-106.61359,-94.012573,-89.915642,-86.890144,-86.913261,-99.785934,-133.29253,-183.25612,-231.9915,-257.33249,-246.26468,-203.45145,-148.48071,-103.82099,-82.111626,-81.552002,-91.766449,-104.54868,-120.44909,-145.89249,-183.47607,-224.04527,-248.25928,-238.06844,-190.30423,-121.90147,-61.609615,-32.818668,-39.140182,-63.151398,-79.688232,-74.554291,-55.213257,-45.374126,-66.840652,-121.43056,-186.25214,-226.51869,-217.683,-161.79691,-86.682365,-28.292101,-8.2772369,-22.036858,-45.07177,-52.586071,-38.084438,-17.683588,-17.215105,-51.529877,-110.96795,-164.87927,-180.0806,-141.75319,-62.750221,24.545273,87.783127,112.35734,106.19886,90.155014,82.263939,87.353149,98.134064,104.79945,104.13326,100.61861,99.392792,98.065842,85.592041,50.555977,-7.0097642,-70.1464,-111.88139,-111.4016,-68.660324,-6.4827189,42.583298,56.53421,37.486237,8.807251,-2.623718,13.246255,41.288158,51.312305,20.131325,-49.775566,-128.50803,-175.95767,-166.85083,-106.8038,-28.508591,29.322298,45.923836,29.282284,7.0723481,4.8759241,27.43552,56.093121,63.766174,36.280548,-15.497136,-61.522602,-72.286911,-38.41827,23.532293,82.819176,114.99224,116.45657,103.15617,95.266579,100.01058,105.86468,92.69091,50.143841,-9.9224195,-57.362366,-62.43362,-16.558554,59.83812,128.81679,158.58289,143.28809,105.248,77.956856,81.773827,109.45983,131.95085,120.47884,69.404625,3.2693222,-37.605606,-23.596695,43.775009,131.73146,196.91489,212.97736,186.36241,149.64162,137.22401,160.39798,199.07683,216.01923,183.71507,105.33517,15.176323,-41.941578,-38.55323,18.883862,95.442795,150.94373,164.93161,146.83191,125.37565,125.7122,150.68039,179.16116,182.09454,144.4068,77.287277,12.344436,-18.089022,-0.84898025,51.278347,109.70496,149.23683,162.72749,161.60861,163.21938,175.18282,188.67401,185.43513,153.09373,97.213699,40.856018,11.417464,23.614229,70.229858,126.81853,166.93767,177.49306,164.1828,144.26288,132.60852,131.17856,128.87897,111.06409,71.220482,16.394938,-37.025265,-73.494347,-86.876953,-81.717392,-67.4067,-50.686062,-32.611637,-11.938484,8.6954966,19.938772,9.829957,-27.316347,-83.835045,-139.58118,-171.56592,-166.758,-129.68356,-79.564774,-38.720203,-19.899258,-20.890371,-29.566525,-35.1647,-37.263432,-45.745636,-71.730461,-116.25085,-165.44104,-196.63913,-192.07507,-151.1053,-92.366638,-43.633923,-25.327307,-38.017944,-61.93153,-68.868393,-39.129822,26.961634,109.71175,181.87994,223.90723,233.22009,222.64275,210.10112,207.02699,212.97884,219.27345,218.2265,211.02654,208.48242,223.88499,262.64282,315.71143,361.69629,377.25595,350.27789,288.31622,217.10341,169.24091,168.49355,217.58301,295.73627,367.40353,398.05627,369.57361,288.06921,180.79431,84.002022,27.738607,24.521305,66.479561,131.21083,192.62985,231.39906,240.65427,225.70384,199.3479,175.91685,166.66237,177.53665,208.93271,256.47498,312.36548,367.3403,413.25079,445.61734,464.87637,475.26501,481.53699,485.26663,483.19089,469.11813,438.74249,394.59573,347.81128,314.93616,310.86801,341.39346,399.23553,465.71317,517.19562,533.25323,503.00394,427.56775,318.6373,194.5945,75.785927,-20.065212,-81.83844,-107.77495,-105.93414,-91.357147,-80.14827,-82.567635,-98.482605,-117.9193,-126.89115,-115.52716,-83.85247,-41.729156,-2.9741013,22.617128,34.190914,38.511654,43.398045,50.577225,53.196651,40.188747,4.9399657,-47.546368,-100.2742,-131.7851,-127.55441,-88.433578,-30.836929,21.696346,50.692299,51.588947,34.321529,15.852596,9.6427784,18.531443,34.903275,47.208904,48.055443,38.561909,26.579494,20.587503,23.761797,32.220985,38.32682,36.402454,26.71693,14.98828,7.8991122,7.9201331,11.196581,10.099828,-1.2199931,-22.100401,-44.857876,-59.182621,-58.858097,-46.568081,-33.585461,-34.221531,-58.113132,-104.74347,-163.24516,-217.40718,-252.86971,-262.51678,-247.54803,-214.54062,-171.12082,-123.203,-75.072777,-31.195864,2.6973972,21.008101,21.678505,9.0727816,-6.4926276,-13.427044,-5.6017656,12.970113,28.977482,26.509007,-3.8141069,-58.575996,-122.10032,-173.74522,-197.83908,-190.55991,-160.06845,-120.49212,-84.104561,-56.770493,-39.007107,-30.806602,-35.66127,-59.987175,-107.8334,-174.73148,-245.80936,-300.75113,-323.43344,-310.43915,-272.83929,-229.76825,-197.70509,-182.30304,-177.93834,-174.87852,-168.68655,-164.88248,-175.21646,-207.94888,-259.08456,-311.27667,-342.06784,-336.65292,-296.91983,-240.67157,-191.32889,-164.75269,-161.72855,-170.73317,-178.50722,-180.58983,-184.11604,-200.8093,-235.32954,-277.84839,-307.13681,-303.1666,-261.19241,-197.49377,-141.91742,-120.99654,-141.97725,-188.05495,-228.28069,-236.28894,-206.27335,-156.27625,-116.83353,-112.18562,-145.74792,-198.56204,-241.11388,-250.66568,-223.32448,-174.03651,-125.66535,-94.963264,-84.43808,-84.48661,-83.1287,-75.978188,-69.591614,-76.306877,-104.51138,-151.08601,-200.97656,-234.00041,-234.5089,-198.21675,-132.84618,-53.264366,25.265112,91.902306,141.46405,173.01122,187.94461,189.08333,180.61867,167.83963,155.87666,147.91612,144.18423,142.64378,141.03632,138.75928,137.12236,137.82478,141.00148,144.62222,145.94098,143.90013,140.39011,139.00476,141.98412,147.78746,151.6338,149.17949,140.77658,132.66916,133.24365,146.14452,165.08488,175.00485,160.39716,116.38303,55.142815,2.135489,-17.371733,5.7372899,55.928898,98.399193,96.624207,32.571983,-82.312851,-212.28131,-316.0108,-368.02914,-370.2504,-347.09595,-327.81512,-327.46573,-338.59579,-338.61136,-307.64761,-244.98579,-173.01186,-125.74039,-128.86807,-183.8006,-265.67212,-336.65747,-366.4668,-347.73035,-297.51874,-245.03346,-213.8589,-209.86638,-221.50052,-230.86954,-227.32761,-214.29948,-205.25931,-212.34399,-235.95923,-262.79022,-273.69528,-256.15533,-212.864,-160.65948,-120.48513,-105.0116,-112.00632,-127.57761,-136.76646,-134.08351,-126.74432,-128.41405,-147.82423,-180.26257,-208.18913,-211.19481,-179.16565,-120.05724,-56.84462,-15.020053,-8.1242218,-30.235987,-60.143856,-74.685158,-63.044483,-33.228897,-6.8288765,-5.4211664,-37.031136,-90.842857,-143.09575,-170.23085,-161.15926,-121.51291,-68.05703,-17.57539,22.410334,55.503643,90.520668,132.56247,177.54445,213.98581,230.74918,225.3141,206.76247,191.131,191.79482,210.79956,236.50992,249.04634,230.31422,172.92084,83.330055,-21.716789,-122.67577,-204.13623,-258.06277,-283.09717,-282.03769,-259.95087,-223.81892,-182.69113,-146.63791,-123.90696,-117.59805,-124.22147,-135.66328,-143.78458,-144.81277,-140.49829,-135.08403,-130.1436,-121.14035,-98.690407,-54.358398,12.561591,92.018265,166.63167,220.16,246.0571,250.68951,248.87804,254.25887,270.4223,288.54257,293.26041,273.3295,230.31526,179.56,142.23267,132.7926,149.22974,172.12695,173.65721,131.98151,43.405716,-74.191315,-188.49051,-266.77036,-289.84372,-259.29611,-195.09915,-125.48051,-74.385765,-52.437748,-55.043022,-67.611877,-74.617409,-67.843086,-50.044861,-32.740612,-29.665504,-49.320675,-90.230064,-141.03848,-185.21086,-207.96855,-202.21877,-170.94153,-125.3584,-80.193184,-48.441269,-37.812214,-49.735199,-80.387001,-122.47763,-166.80219,-203.44232,-223.18515,-219.65503,-191.85358,-145.91838,-94.688293,-54.440994,-39.587929,-57.339809,-104.63747,-168.76193,-231.46834,-275.02826,-287.89886,-268.03891,-222.89346,-166.26367,-113.27673,-75.239655,-56.215389,-52.608917,-55.938046,-57.559669,-53.046803,-43.860207,-35.251949,-31.501318,-31.419546,-27.292311,-8.5960875,31.210451,88.900543,150.78793,198.48875,218.48279,210.04227,186.53947,168.83977,174.29886,207.75233,259.83194,313.46564,354.31076,378.45297,392.61523,407.14822,426.89609,446.41055,452.97629,435.53046,393.45618,339.20285,292.75012,271.32242,280.80652,314.01541,356.26218,393.9682,420.47586,435.80975,441.82129,437.48376,418.6564,382.79471,334.7775,288.56473,262.07303,267.65958,304.32355,357.28204,405.97284,435.80554,446.11694,448.96631,459.36261,483.32458,511.86725,525.31702,505.61813,448.92847,370.37784,297.68039,257.23639,260.94086,301.27444,356.94952,404.96805,431.51663,435.66034,424.97745,407.49448,386.12503,359.29724,326.53992,293.96994,274.52225,281.44406,318.55997,373.72263,420.6665,429.74258,382.57217,282.82455,156.90106,43.496803,-23.07123,-27.536871,20.822643,94.222885,160.35913,196.93018,199.51456,179.591,154.91263,138.28333,131.05554,124.43404,106.96778,73.194397,28.145689,-14.733721,-40.64674,-41.086609,-17.717026,19.257698,56.635334,84.126907,97.546234,98.428116,91.489342,82.119888,75.102898,74.13002,80.918808,93.539246,105.17176,105.34471,84.599167,40.907764,-16.098457,-66.923813,-90.754303,-77.018074,-33.335567,15.73245,39.83939,18.591757,-46.798054,-132.88695,-205.2762,-235.78769,-216.09579,-160.48442,-96.780266,-51.205959,-35.867424,-45.277718,-62.50491,-70.055733,-58.74509,-30.237413,6.4679379,40.857941,65.001518,74.398903,67.035599,43.146614,6.7000728,-32.939804,-61.953697,-66.998367,-42.317017,5.3512936,58.115433,95.099274,103.42963,85.535805,57.80027,40.606544,45.280499,65.80899,80.815971,65.336967,5.9831448,-89.250061,-192.50894,-268.61499,-292.07892,-259.52808,-190.98643,-119.49961,-74.774864,-69.456673,-94.935158,-128.30484,-146.21046,-137.92834,-110.78433,-85.324455,-83.161987,-114.23542,-170.39824,-228.79814,-263.2511,-257.5441,-213.58331,-150.09158,-92.684181,-60.822838,-58.789875,-75.470978,-92.693535,-96.986168,-87.743874,-77.016754,-81.199005,-109.77198,-158.01942,-208.21744,-238.67325,-235.2881,-198.91054,-144.44182,-92.694,-60.194702,-52.89859,-66.772614,-93.587227,-127.08583,-165.07718,-206.4938,-246.53787,-274.71466,-278.5433,-251.3434,-198.85207,-139.29269,-95.356934,-82.032967,-97.620125,-124.05275,-137.21069,-121.52757,-80.067062,-33.590023,-8.7442865,-22.295397,-70.929443,-132.82385,-179.9332,-193.37466,-172.6001,-133.25577,-95.928551,-73.588516,-65.829056,-62.974655,-56.268719,-46.364006,-43.836517,-61.294514,-102.73014,-157.84549,-205.75452,-226.04475,-210.13087,-165.60138,-110.96439,-64.544685,-34.924374,-18.862228,-7.2421818,5.8649087,17.734911,18.873932,0.58539373,-37.430378,-84.915314,-125.7955,-146.47362,-142.14366,-117.43011,-81.910957,-44.504272,-10.832338,15.333229,29.073723,23.618616,-6.268815,-58.817287,-122.1642,-177.16861,-205.66313,-199.56415,-165.0786,-119.08766,-79.81089,-57.586323,-51.413303,-52.905453,-54.298595,-54.624283,-59.795609,-76.884338,-107.03526,-142.34901,-169.15831,-175.59286,-158.40356,-124.65447,-87.484123,-59.035004,-45.17432,-44.906372,-53.887875,-68.772072,-89.037369,-115.28817,-145.85306,-174.7522,-192.98003,-192.55508,-170.80597,-132.25423,-87.100967,-47.405697,-23.107666,-19.570864,-37.001663,-71.047554,-113.82278,-155.24083,-185.01512,-195.39008,-183.79366,-153.9984,-114.79226,-76.516144,-47.209614,-30.445137,-25.845566,-31.478739,-46.089401,-69.396591,-100.28177,-134.45999,-163.8421,-178.75198,-172.16281,-143.55479,-99.989883,-53.574833,-16.604563,3.0285671,3.8907661,-10.121505,-32.907848,-59.181576,-85.706421,-110.45228,-130.76151,-142.20999,-139.37718,-118.51866,-80.85022,-34.463135,6.779932,27.710958,18.224957,-21.323843,-78.714851,-133.90758,-167.27472,-168.21971,-139.65857,-95.728508,-53.818707,-25.46587,-11.54101,-4.6058583,3.3081288,12.987588,16.088974,0.86551726,-37.968884,-92.169838,-141.35574,-163.10004,-145.86208,-96.388657,-36.340797,10.155167,30.183716,28.061497,19.861294,20.414284,31.996107,42.778923,36.27533,5.1010089,-40.963249,-78.907249,-86.367104,-56.216621,-1.7903366,51.10659,80.174942,79.787743,62.486591,48.10083,48.462048,58.737083,61.624126,41.391506,-2.4298604,-51.825844,-80.355003,-69.875351,-22.51289,40.33337,91.172447,112.641,105.79831,85.487579,67.120087,55.211369,42.261421,18.444351,-15.925302,-45.678089,-48.824055,-12.632001,53.712761,119.99765,150.62338,125.79433,54.522751,-29.481672,-86.880798,-94.71682,-57.498905,-0.95488894,46.349709,70.546127,77.495079,82.969757,96.267532,109.96979,103.7931,59.989094,-20.895754,-115.71366,-189.80148,-216.59708,-192.82596,-139.21544,-86.552986,-56.7957,-51.950916,-57.604309,-57.49612,-47.900375,-41.084473,-55.33728,-99.010963,-160.59805,-212.78059,-228.51204,-198.5014,-138.09471,-78.515251,-47.91806,-54.528488,-82.639778,-103.59407,-94.056999,-49.562828,14.854056,76.073708,117.61578,137.54745,145.10654,149.93762,152.87206,145.45648,118.46232,72.616356,22.88508,-7.8092866,-1.8789456,41.491894,104.70778,161.3566,190.91188,189.0605,167.31075,142.90297,126.5041,116.28182,102.09356,76.198067,42.262764,15.696239,14.528163,46.841812,103.40949,160.89577,194.03304,189.29262,151.67052,100.7731,59.223454,40.946995,46.278324,65.800285,89.002457,111.19168,134.13313,160.9088,189.73164,212.00458,216.53537,197.10442,157.95673,113.09863,79.52092,68.595238,81.025139,108.17398,138.26762,162.93619,179.86555,190.53712,195.69922,192.64923,176.69119,145.66794,103.91677,62.26561,33.544941,26.381968,41.306396,71.52301,107.38034,141.0981,168.53384,187.42584,194.53241,185.00699,155.41592,108.46943,55.460373,13.406696,-2.4922535,13.191866,52.948463,100.3559,138.99727,160.60329,167.25673,166.64183,164.2395,158.51909,142.89688,113.06435,73.956139,40.404697,29.82616,51.189087,97.801788,149.51437,183.8226,189.14433,171.60535,150.58104,145.5836,162.96039,191.24161,208.43562,196.71332,154.9649,100.97585,61.650734,57.41037,90.547348,144.6264,194.83421,222.31502,223.40111,208.47346,192.20891,182.46605,175.48849,160.40555,129.50731,86.833549,48.774532,35.723713,59.762012,116.03775,183.32765,233.73582,246.13716,216.00856,156.65955,91.867775,44.452583,26.889332,38.176357,67.334045,100.52964,127.60597,144.99664,154.49559,159.57274,161.80475,159.41705,148.50853,126.09158,93.216072,56.398724,26.29488,13.796686,25.084126,58.011623,101.98293,141.98344,165.21487,167.00845,152.59717,133.34825,119.298,112.38848,104.86054,84.379601,43.152271,-14.7388,-73.069244,-111.41872,-117.04712,-93.259094,-58.346722,-34.905544,-35.751011,-55.516243,-73.980423,-69.783485,-36.051647,12.534277,46.780701,40.646305,-11.320525,-88.232025,-153.28818,-174.5451,-143.25037,-78.180847,-13.274159,23.351023,25.318655,8.694396,-2.3695838,5.3490176,23.96978,30.449812,4.5351982,-54.036911,-121.67695,-163.94965,-157.18469,-104.11536,-32.680653,21.522795,37.446037,20.495239,-3.748503,-9.3275709,10.793792,39.529503,48.23756,18.191397,-44.242836,-109.60867,-143.46419,-128.28885,-74.272331,-11.84606,28.521358,35.129025,19.725073,5.6348019,8.6447573,24.793301,33.827461,15.500184,-33.486084,-94.504852,-137.88715,-142.05865,-107.41943,-55.317314,-13.223461,3.0173721,-2.7451589,-13.72959,-15.918599,-10.302141,-12.120644,-37.574734,-88.202065,-145.29028,-179.55846,-170.04427,-118.96172,-51.636662,-0.96889019,13.147355,-4.6870036,-30.787823,-40.634411,-26.902475,-4.538444,0.55382901,-28.99877,-88.271164,-151.68221,-188.78702,-183.15526,-141.49138,-87.415001,-45.171829,-25.164602,-21.057209,-19.230871,-12.347075,-6.2529879,-15.040961,-48.335312,-100.84315,-152.51645,-179.73279,-169.72858,-128.15594,-74.721382,-30.479092,-6.0700583,1.1036084,-0.099009775,-4.78895,-16.878412,-44.55442,-90.206573,-143.40765,-183.57266,-191.58031,-162.47862,-109.92883,-58.599747,-29.337376,-27.272408,-41.044827,-53.360992,-54.911297,-51.28326,-57.712215,-85.573631,-130.81262,-173.3721,-188.83391,-164.55388,-109.00451,-47.503685,-6.8874245,0.62373108,-16.439775,-36.532814,-41.040432,-27.294989,-9.8238678,-9.2926226,-37.046829,-85.938736,-133.56538,-155.54404,-139.95357,-93.812462,-38.217102,3.7886903,18.487812,5.4938526,-26.273563,-66.113152,-106.72296,-144.22437,-174.81235,-192.3302,-189.78676,-164.07504,-120.07896,-70.427849,-30.295944,-10.372331,-12.550897,-30.938484,-56.958408,-84.544426,-111.72791,-138.00136,-160.27968,-171.42906,-163.32466,-132.75185,-85.961571,-38.224434,-7.9736996,-8.7363634,-43.480118,-104.30373,-176.90997,-246.55452,-302.00119,-336.25861,-345.56165,-329.04291,-290.12402,-238.17198,-187.66786,-153.41006,-143.42702,-153.91916,-170.36972,-175.52104,-160.23312,-130.54921,-105.79632,-107.74295,-146.621,-212.41699,-277.30536,-308.70697,-286.04114,-211.77702,-110.49442,-16.506216,42.948837,59.701477,45.780544,24.089449,14.801585,25.343914,48.836601,70.408859,76.466034,61.238079,27.745075,-15.65437,-59.562592,-95.74231,-116.99221,-116.90213,-91.77272,-44.623589,11.676493,55.980896,66.606133,32.363831,-39.324902,-123.03917,-185.97618,-203.71988,-172.5067,-110.68011,-48.125408,-9.7293758,-2.6925871,-15.22086,-26.977098,-24.182489,-9.2949562,1.180439,-10.75127,-50.215885,-103.30411,-143.79456,-148.83807,-113.47022,-54.274887,0.48712733,28.020456,24.212173,4.2449627,-9.6747618,-5.0305042,11.423215,18.090258,-5.6625209,-62.932644,-133.53275,-183.79016,-186.32753,-137.34274,-60.072441,8.2357798,37.955528,23.831364,-13.587718,-42.519089,-41.057755,-11.335789,22.168198,28.91004,-7.2686553,-76.344017,-146.14922,-179.55345,-154.29158,-73.924942,35.640087,140.85536,217.14601,258.15063,273.76846,280.16516,288.97345,302.06433,313.74152,317.37329,311.3403,300.5686,293.30991,295.75113,307.83337,322.38623,327.65002,311.82156,267.88358,197.23723,110.94926,27.704596,-31.718477,-52.13612,-30.775654,20.469086,79.515564,124.00834,141.82614,136.1804,121.89941,114.72952,120.19625,129.43466,125.34418,95.664307,44.45319,-6.3481102,-27.702583,-0.97397405,68.535385,151.07051,206.40408,204.81891,143.01266,45.671169,-47.978157,-104.43932,-111.22166,-79.046562,-31.373804,10.804885,39.054722,57.173618,72.673256,87.526077,95.249062,86.093422,55.942524,11.902045,-29.84573,-52.663815,-48.702824,-22.626274,12.302979,42.623798,61.680424,70.889801,75.378662,78.040916,76.735504,66.505798,44.71701,14.901293,-13.70044,-30.555044,-29.032633,-8.9837809,24.390091,63.650646,101.48738,131.03358,145.29044,137.9738,106.78522,57.322998,4.0671415,-34.014252,-42.03857,-17.180832,29.319815,78.120056,112.4376,126.71365,127.6329,126.99397,131.62477,137.70328,133.75084,110.27583,69.035316,24.848345,-1.9800923,2.1444314,35.537201,82.218941,121.81799,141.61414,142.59645,135.80887,132.20819,133.76022,132.33296,117.03909,84.377434,43.425396,11.928455,5.7551479,28.986849,71.447823,115.15568,144.94576,155.88669,152.86623,143.66762,131.52264,113.09683,83.310219,42.860416,2.0196347,-23.028555,-19.394743,14.056598,65.066216,114.54877,147.02438,157.95129,153.37206,142.84903,131.3396,116.0892,90.615822,52.461746,8.5593557,-26.196741,-36.649281,-16.333237,28.195875,80.334099,121.55149,139.51607,131.78654,104.14154,66.089676,27.083361,-4.8402696,-22.952438,-22.384022,-2.2145422,32.388741,70.601166,100.13979,113.34714,111.09418,101.2657,92.282867,86.074883,75.964813,51.829887,9.518899,-42.264431,-83.483864,-93.115211,-62.299297,-1.5197257,63.747379,107.03505,115.97913,98.733574,77.332664,72.211639,88.105515,110.80437,117.09557,91.394173,37.984795,-19.43578,-50.949608,-38.118412,14.849352,83.162453,135.01308,148.02139,118.92504,61.951546,-1.3260515,-53.203903,-85.480255,-97.865387,-92.765747,-71.774109,-36.612171,7.1911659,48.267841,72.204071,68.322365,36.028618,-13.946798,-64.702469,-101.50401,-117.90887,-116.06641,-101.98708,-80.19725,-52.245434,-19.942427,10.142575,25.997297,15.639419,-24.068684,-81.710869,-134.11487,-157.56653,-141.10918,-93.253593,-37.11795,3.3903222,17.446449,11.940784,3.7479079,5.1676893,13.153004,10.594863,-20.524666,-83.109833,-157.88931,-211.61264,-216.37172,-167.70352,-89.064575,-18.818899,12.475354,-0.12879892,-34.810589,-59.305321,-53.813431,-25.029043,-1.6559536,-14.231368,-72.785408,-157.54138,-229.28499,-252.91313,-218.84601,-148.38223,-79.750221,-44.333801,-48.795605,-74.470558,-93.55117,-90.323051,-72.624672,-65.736336,-93.129166,-157.55783,-235.77557,-290.92691,-294.75461,-245.15897,-167.7045,-100.19421,-70.349251,-80.787025,-110.36977,-130.23549,-123.57671,-96.381874,-72.725754,-78.306839,-123.15055,-194.34399,-262.85754,-299.66287,-291.11472,-244.81866,-183.58945,-132.21165,-105.21835,-102.17042,-111.702,-120.48018,-121.17897,-115.24532,-109.97507,-112.67805,-125.75067,-145.2126,-162.93102,-170.84763,-164.87744,-146.70859,-122.90045,-101.85291,-90.037178,-89.17112,-95.680275,-102.8102,-104.43128,-98.536316,-88.379745,-80.408867,-80.06218,-87.998413,-99.301018,-106.4811,-104.64429,-95.580727,-87.944633,-92.990562,-118.12183,-161.98294,-214.00761,-258.73535,-282.49377,-278.9032,-250.68013,-207.54538,-162.08153,-125.89975,-107.45624,-111.32084,-137.90097,-183.02209,-237.80035,-289.83527,-326.23581,-337.69183,-321.73383,-283.43924,-233.16632,-182.5598,-140.89246,-113.26145,-100.72646,-101.29462,-110.58136,-121.93331,-126.85637,-116.73405,-85.82505,-34.153782,31.635662,100.49041,161.37657,207.57281,238.47716,258.17178,272.06198,283.97147,295.3912,306.73148,318.8895,333.41696,351.03912,369.9866,386.05865,395.03033,395.90558,392.36044,390.66498,394.96555,403.16827,406.84033,396.06476,366.5853,324.44229,284.40668,262.41769,266.3956,291.29807,321.87354,341.65735,342.60233,329.18576,314.3653,310.07608,318.54019,330.11966,329.16626,304.16016,255.75294,197.77069,150.67555,131.46518,145.72246,185.74475,234.87395,274.91324,292.65182,283.0426,248.95879,198.99197,144.7664,98.346931,69.666115,64.089661,80.899506,113.65901,152.64781,188.25345,213.4973,224.49689,219.31509,196.99992,158.4444,108.89159,59.806602,27.27318,25.932775,60.8172,121.89057,185.62863,224.30513,218.89558,168.7574,92.532227,19.497515,-24.016171,-25.893984,8.3430309,60.67411,110.23206,141.69786,148.66649,132.13989,97.215561,51.06916,2.928602,-35.818649,-53.715488,-43.819283,-8.2511396,40.935966,86.366455,113.49355,117.47771,104.31166,85.353973,68.981972,55.242603,37.414238,9.4631557,-26.101767,-56.207943,-63.495354,-37.504662,16.487387,77.330147,117.57655,117.53068,75.504692,8.3025112,-57.994621,-101.06066,-111.50459,-93.708595,-59.555027,-20.518076,16.396151,47.231358,67.154144,68.841789,45.781532,-1.4245205,-60.889198,-111.85481,-133.77631,-117.16671,-69.354782,-11.049424,34.635429,54.137646,49.16304,33.031994,20.61722,18.803577,23.605345,25.187538,16.522427,-0.89500946,-18.421032,-27.531254,-27.36585,-26.599646,-37.695801,-67.164413,-108.64633,-144.18127,-153.77066,-127.7818,-74.541763,-18.119934,12.903138,-0.41969872,-58.018211,-140.94034,-220.36497,-270.29224,-277.49567,-244.6741,-186.79625,-123.81783,-73.711205,-48.253941,-51.786304,-81.724052,-129.64983,-182.74487,-226.09726,-246.27762,-235.6237,-195.67046,-137.92458,-81.002922,-44.664726,-42.723167,-77.517441,-138.25633,-204.21582,-251.95612,-264.04773,-235.93689,-178.02231,-111.78529,-61.330132,-43.83522,-63.066528,-108.74898,-161.80565,-202.67645,-218.66016,-207.14978,-174.14362,-129.92245,-84.812836,-47.032345,-22.626308,-15.956633,-29.200001,-60.700394,-103.59551,-146.53413,-177.09302,-186.52208,-173.21251,-142.82025,-105.02517,-69.037941,-40.641464,-22.266027,-15.276885,-22.025949,-45.509018,-86.491631,-140.20735,-195.4882,-237.79198,-254.97591,-242.66402,-206.12614,-157.68674,-111.37448,-77.950798,-62.745605,-66.522789,-87.593414,-123.00677,-168.01483,-214.9183,-253.2784,-272.58878,-266.50723,-236.21434,-190.62358,-143.004,-105.80051,-86.479851,-86.366936,-102.35755,-129.62045,-163.18523,-197.68224,-226.31374,-240.9474,-234.39636,-204.10927,-155.03909,-99.516777,-53.54747,-31.017654,-38.496544,-72.944664,-123.07501,-173.4117,-209.20845,-220.54367,-204.64331,-166.16353,-115.54543,-65.82209,-28.682127,-11.085787,-13.803925,-32.510273,-60.689026,-92.493515,-123.74599,-150.7193,-168.26216,-169.71819,-149.96854,-110.32024,-61.706127,-22.72735,-11.949787,-37.949501,-93.043159,-155.32912,-198.93852,-207.10088,-180.37292,-135.00226,-92.482628,-66.993423,-58.740711,-57.192787,-51.430668,-39.953789,-32.714142,-43.706844,-79.289505,-130.71631,-176.71654,-195.05916,-175.70515,-126.82847,-69.697029,-25.905157,-5.5217843,-3.8325934,-8.1792612,-9.3363962,-8.910347,-17.4296,-44.754387,-90.114189,-139.40361,-172.12952,-173.43524,-142.96677,-94.612923,-47.637356,-15.678832,-1.2181702,1.3343582,-2.6031618,-13.901779,-38.322041,-78.403717,-125.28602,-158.01398,-152.88138,-97.843987,-2.4760528,104.08064,187.20253,224.8629,218.6512,190.95325,170.32854,174.57761,202.11385,236.3835,259.31213,264.06311,258.49921,257.62628,271.04025,294.65033,312.64273,308.29926,276.10403,226.78561,181.89258,161.59305,173.69949,210.66551,255.64735,292.77036,314.56653,322.34372,320.69388,311.39331,291.80161,258.8819,215.27785,172.02267,144.80519,145.54433,174.78571,220.33156,263.51343,289.35281,294.12354,285.48587,275.33044,270.40863,267.35788,255.76741,227.38792,185.14445,145.28415,130.14217,155.10156,217.4837,294.60394,353.17194,365.54807,324.08484,245.51479,162.7778,108.68958,100.37392,132.7766,184.22871,230.09232,256.10126,263.68488,264.84113,270.73373,282.01422,287.53433,272.44177,230.26561,170.63844,116.81683,93.69146,113.37076,167.45924,231.28792,277.87833,293.08917,282.40219,265.00357,258.99771,267.48004,274.84973,256.22485,194.252,92.560562,-23.032793,-116.80884,-161.62546,-152.41397,-106.77992,-53.033325,-13.759844,4.6551933,10.672823,16.68716,27.061573,33.821465,22.930304,-13.58674,-68.636528,-121.06586,-146.68678,-132.37813,-84.078362,-23.451492,24.554243,45.180073,39.916325,21.947559,4.9627595,-6.4746814,-18.345589,-39.827488,-72.985641,-107.50967,-125.01888,-110.6823,-64.4674,-4.023778,43.655327,57.360138,34.490135,-6.4679832,-35.68557,-28.417007,21.484606,98.74427,175.8651,228.59578,248.47047,245.35011,239.08377,245.81441,267.30057,289.44904,290.61078,254.54785,180.56425,85.244156,-4.8493919,-65.256744,-84.001747,-65.214424,-24.886103,18.243944,51.578716,73.012947,89.300583,110.22614,142.22771,184.84999,231.4238,272.92355,302.37564,317.2149,318.45782,307.58328,283.44714,241.60536,177.01903,88.976158,-14.61972,-116.64841,-195.29164,-232.35181,-221.58534,-172.59123,-107.5782,-51.907791,-22.836016,-22.282885,-37.672642,-50.592323,-48.519909,-32.831112,-18.159599,-23.141396,-57.838947,-115.49839,-174.08653,-207.34567,-199.22614,-153.16284,-90.438072,-38.338375,-15.074163,-20.547537,-38.530895,-48.723602,-40.888477,-21.882322,-10.89547,-25.855947,-69.847107,-126.6497,-168.8232,-173.64684,-136.97688,-76.146446,-19.892416,8.4297991,3.7548749,-19.731941,-39.871265,-42.333035,-30.301897,-21.514565,-34.631432,-74.212822,-124.75497,-158.42455,-152.07085,-102.73853,-31.512028,27.225298,44.798401,13.979047,-47.943222,-110.12097,-145.85388,-146.04247,-120.80875,-89.705948,-68.08548,-58.867718,-54.397442,-45.738861,-31.811644,-21.470501,-27.167248,-55.079121,-99.07579,-143.00343,-169.74615,-170.78362,-149.85962,-118.80707,-89.189629,-66.084557,-48.209213,-33.418671,-24.362188,-29.017719,-54.988605,-101.67474,-156.6689,-200.11082,-215.01419,-196.95081,-156.45244,-112.30685,-80.225128,-64.600395,-58.83543,-53.509251,-45.941669,-43.678925,-58.917515,-97.720299,-152.08649,-201.34366,-222.89818,-205.62607,-156.95203,-98.676292,-54.153717,-35.261017,-37.619717,-46.745586,-50.251751,-47.21571,-48.106258,-65.559883,-102.89082,-148.86536,-182.85364,-187.15216,-158.2027,-109.12788,-61.910641,-34.495193,-31.307064,-43.06773,-55.311417,-59.227436,-57.270161,-59.992928,-76.807076,-107.47343,-140.40338,-158.99091,-151.70653,-119.27818,-74.435333,-34.69981,-13.10329,-12.625941,-27.251038,-48.000206,-69.270844,-91.124817,-116.39651,-145.25171,-171.5813,-184.30229,-173.24344,-136.10518,-82.032394,-29.183563,2.8545356,1.9654889,-30.924467,-82.448662,-133.12823,-166.03354,-173.38196,-158.05971,-129.95908,-99.767082,-73.919052,-53.310196,-35.828297,-20.396872,-9.4704809,-8.1925192,-20.835644,-47.063393,-80.700005,-111.98645,-131.93942,-136.06621,-125.27707,-103.90583,-76.767151,-47.618847,-19.949848,1.1886135,8.7507801,-3.8241053,-38.163399,-87.602226,-137.95152,-172.98357,-181.92035,-164.45975,-130.13049,-92.371811,-61.228382,-39.41893,-24.061911,-12.224718,-5.6842098,-10.919909,-34.022945,-74.229622,-121.16648,-158.49391,-172.10005,-157.61993,-122.33979,-80.364105,-44.523388,-20.548414,-7.0651245,-0.48577788,-0.27233836,-10.031688,-33.460369,-68.527237,-105.04427,-128.45656,-127.93071,-103.2423,-65.373665,-30.03006,-8.3653889,-1.3119252,-1.353768,-0.17305842,3.7232506,3.2802598,-11.436875,-44.29118,-87.596825,-124.57456,-138.55296,-122.83942,-84.597084,-40.217579,-5.5433106,12.343138,16.527418,14.736774,11.6612,5.0874057,-11.437034,-41.786617,-81.767609,-119.33047,-140.54031,-137.16768,-110.78536,-71.04055,-30.003569,3.0931652,23.490072,29.107012,18.352518,-9.5217657,-51.433239,-97.852531,-134.11441,-146.45528,-129.5589,-90.380737,-44.949203,-9.5964251,7.7938747,10.645916,8.8202124,9.7173071,12.036725,6.949307,-14.08029,-50.678181,-90.851822,-116.73923,-115.20823,-86.046471,-42.065411,-1.139728,24.158657,32.207058,29.870617,24.619558,17.775087,4.2187233,-21.388227,-57.109806,-91.402802,-108.53678,-98.359726,-63.418324,-18.077003,20.009436,40.153545,43.47179,39.19128,35.638248,32.99659,23.451778,-1.3766135,-41.469788,-85.01342,-113.6656,-113.2059,-82.269539,-33.19339,15.375792,48.746334,62.353214,60.422771,49.550694,33.197594,11.725701,-12.533616,-30.399265,-26.75115,11.635106,86.160728,181.92676,273.23178,336.67966,363.7464,364.40762,359.2438,365.34744,385.68866,409.11459,420.53085,413.48975,395.71863,383.358,388.09518,406.84714,422.09924,413.43082,372.5423,311.18729,255.99939,233.15474,252.84138,303.69464,360.58682,400.20215,413.89346,409.68622,403.09372,404.03888,409.39078,406.12671,382.37503,338.12585,287.89801,253.4657,251.5641,284.58633,339.81015,396.78998,437.51254,453.02924,443.61993,414.2417,369.63248,312.48856,244.93286,170.83607,96.401825,28.498018,-27.578947,-68.851044,-93.540443,-99.768486,-86.155716,-54.58588,-12.845284,26.04047,48.974808,49.990402,34.521275,16.830822,11.082576,21.374525,37.659267,41.18301,16.7509,-35.93681,-99.684364,-148.35117,-161.58818,-136.45499,-88.456039,-41.447567,-13.213329,-6.2361059,-9.4390507,-9.027215,-0.34641829,7.8282771,-0.33530688,-35.205704,-91.925102,-150.48422,-185.99918,-182.65463,-142.4017,-83.144394,-28.131493,6.2512493,16.717802,10.439893,-3.1995335,-19.82081,-41.174755,-70.169563,-104.4651,-134.25046,-146.50911,-133.06401,-96.682487,-50.682354,-11.941452,8.2113047,9.2944641,-0.12920138,-9.7848434,-15.271724,-20.591991,-33.914787,-59.614441,-92.305405,-117.42892,-118.71254,-88.262337,-33.089428,26.268686,64.825539,65.240845,26.457005,-35.721626,-96.315308,-132.94304,-135.52988,-109.20026,-69.482849,-33.074131,-9.5274076,1.7249379,7.9680367,16.155788,26.959166,33.759796,27.206511,2.3613009,-36.286579,-75.442131,-99.287636,-97.848289,-72.420822,-34.729465,-0.3040657,19.865963,24.32196,19.905523,15.472271,14.964557,14.584307,5.9903398,-16.672585,-50.786434,-84.632202,-102.96903,-95.556602,-63.308437,-18.16235,23.301285,48.522156,54.566944,47.423698,35.886536,24.449661,10.205133,-14.013226,-52.298725,-99.269341,-139.47636,-154.02139,-131.13365,-74.558205,-4.3393698,51.314598,69.262024,42.78286,-15.147154,-78.524483,-121.31226,-129.68787,-107.04401,-69.529625,-35.382454,-14.728981,-5.8648758,0.26922199,10.976562,24.546144,30.052311,14.681828,-26.112642,-82.564484,-133.29561,-155.92247,-139.48778,-91.088928,-32.361485,12.354124,29.152607,21.133949,4.5929427,-2.534945,7.4206634,27.058594,39.04187,27.727972,-10.125271,-62.224895,-106.9688,-125.07063,-109.58454,-68.699966,-20.315838,17.775566,36.175838,36.330856,26.75276,16.227522,8.4381475,0.90890861,-11.765636,-32.888496,-59.996792,-84.638634,-95.69873,-84.649506,-50.290836,-0.75673217,48.396778,79.672287,80.728531,50.079163,-1.4721308,-54.867039,-90.849983,-98.286316,-78.489151,-43.249897,-7.7567558,17.425873,30.625698,37.310673,43.960262,52.025284,56.255695,48.558365,24.626965,-11.411999,-47.759327,-70.802002,-72.271324,-53.106724,-21.830811,10.947317,37.843239,56.378513,66.667526,67.858795,56.858276,30.757223,-8.8975468,-53.695988,-90.421455,-106.89802,-98.014732,-67.987617,-27.518627,11.92661,42.685753,61.573658,67.275505,57.76017,30.832779,-12.053418,-62.012749,-103.17903,-118.93185,-100.92883,-55.04644,0.47383994,44.475296,64.405853,62.516903,52.574764,49.235008,57.308731,68.343864,66.972412,42.703331,-1.0191134,-46.899063,-73.225716,-66.545387,-29.346519,21.991356,67.196617,93.228806,99.49604,94.638855,88.174515,83.376839,76.192268,60.24818,33.664063,2.4420128,-21.960793,-29.020712,-15.08403,14.826423,49.887363,78.587463,92.817162,89.240982,68.565102,34.451385,-6.8774905,-46.848923,-75.842583,-86.038246,-74.604691,-45.124561,-6.0262346,33.112553,64.935135,85.250298,91.595345,81.625511,53.76004,10.348751,-39.267288,-79.480026,-94.445015,-76.780853,-33.280334,17.151899,53.324131,63.717484,52.704861,36.426552,30.69453,39.181461,50.481915,46.707489,17.963762,-27.699095,-66.724541,-74.256714,-40.894424,19.709776,78.304489,108.12727,101.5498,73.830009,51.268974,51.981339,72.828903,91.896072,84.950424,44.300758,-13.487828,-56.898838,-59.698437,-18.203812,46.357311,101.93169,126.21465,119.34923,100.22765,89.759102,93.863167,99.037209,84.01162,38.936993,-22.497086,-68.086563,-67.265846,-13.201809,68.60881,132.18713,136.76469,70.364258,-43.465576,-159.59068,-236.58434,-257.45139,-233.88336,-193.57185,-160.88094,-144.17093,-136.88585,-129.1508,-119.59274,-118.05365,-137.51979,-181.97198,-239.84587,-288.48816,-306.85452,-287.77496,-241.56195,-188.95851,-148.71184,-128.23499,-122.93259,-123.29443,-123.64624,-126.05264,-137.1283,-160.93828,-193.74475,-224.51048,-240.5887,-234.45279,-207.12695,-166.86237,-124.97594,-92.020523,-75.996605,-81.873856,-110.64251,-157.38965,-210.15346,-252.14975,-268.08148,-251.78905,-210.32332,-160.89832,-121.6976,-102.07887,-98.739265,-100.61598,-99.077919,-95.815453,-102.11075,-129.35886,-177.51677,-230.47113,-263.00293,-255.79556,-208.59877,-142.06616,-86.099274,-61.891384,-69.62854,-90.315926,-100.58518,-90.205803,-69.892082,-63.593575,-90.357491,-148.43837,-213.16429,-250.76506,-239.30811,-182.76892,-108.73312,-51.252705,-30.361372,-41.816109,-63.407028,-72.751381,-63.782127,-50.413754,-55.06813,-90.376099,-147.06906,-196.72812,-207.84174,-164.65819,-76.639091,27.187494,114.72386,167.2832,186.12218,186.41362,184.39012,187.06407,190.88779,188.66013,178.18517,165.60382,160.94389,169.56366,186.27942,196.97141,187.01724,151.02019,97.377144,44.711235,12.476815,11.486705,39.63464,84.408524,129.68008,162.38818,175.89929,169.66978,147.09464,113.70403,76.463844,43.369457,22.157303,17.971298,31.167814,56.860214,86.840439,112.91962,129.75294,135.64374,131.30382,117.95354,96.417091,67.870193,35.444225,5.1013932,-15.362223,-19.035608,-2.988626,29.890299,71.253426,109.67323,134.05125,136.88409,116.48959,77.662384,30.51523,-12.386059,-39.916344,-45.990623,-31.325583,-2.4500506,31.573343,62.925282,87.204193,102.99123,109.66971,105.66662,88.958,59.798164,23.536707,-9.2509766,-26.534985,-20.868618,6.0330367,43.515881,77.439278,97.725426,103.19202,100.47015,97.792038,98.087196,96.471489,84.211678,56.554028,18.738392,-14.606177,-27.06164,-10.404781,29.669024,76.190147,110.52707,122.81242,116.3811,103.43158,95.11689,93.116959,88.72271,70.19976,33.293282,-12.709453,-48.139351,-53.888683,-23.263195,33.031414,92.226311,131.9192,141.77937,127.30016,103.71574,84.695892,73.705498,63.800335,45.602707,17.386158,-10.407904,-20.152983,1.1927029,51.287018,110.30973,150.01912,149.20164,106.29663,41.277409,-14.755084,-36.310425,-16.726236,29.794703,78.090271,107.37609,112.43548,104.06583,99.236092,107.94676,125.65224,136.19135,123.12823,81.8675,24.463837,-26.102728,-48.54055,-34.76136,6.7187157,57.009693,98.008659,121.03045,127.86061,124.88638,115.81264,99.026665,71.613617,36.412117,5.582829,-3.6851659,20.181883,73.078613,133.46985,171.83945,166.72574,117.70512,46.843121,-12.921319,-35.690475,-15.937053,30.696482,78.955154,109.80898,120.11996,120.35865,123.03822,130.87502,133.57108,115.68836,69.922913,5.9613876,-52.047821,-78.504486,-61.54435,-10.344562,50.368309,95.017616,111.46413,105.78678,95.071335,93.780769,103.29169,111.55577,102.62891,69.093147,18.728544,-28.948914,-53.68364,-45.608299,-9.5757942,39.189388,84.217377,115.28359,130.02539,130.27612,117.4315,91.142944,52.209553,6.6237159,-33.552502,-54.437824,-47.532745,-15.018869,30.76786,73.691811,101.95187,112.76028,110.89175,102.83591,91.305412,74.274765,49.035667,17.732319,-10.481612,-23.102516,-11.778065,21.493729,64.114471,99.312576,115.32954,111.3957,96.57428,82.371902,74.286804,68.22731,54.40134,26.083967,-12.868173,-47.334419,-58.312267,-34.259335,20.554054,86.125015,135.72343,148.9973,121.92066,68.196205,11.670097,-25.681887,-33.500854,-15.629251,14.909166,44.661903,66.678101,81.826187,94.589729,106.95,114.94749,110.48244,87.242714,46.729576,0.068928629,-36.141872,-47.888695,-31.010469,6.7236252,50.03915,84.398956,103.02499,108.50767,108.36465,107.89152,105.42789,93.501671,65.242783,21.664316,-25.511263,-58.100204,-60.762852,-29.828461,23.892862,80.219063,119.61642,132.14188,120.23938,94.47567,65.850525,40.171867,17.966379,-0.98248279,-12.925084,-9.8571634,15.200889,60.774731,113.1323,150.11356,151.69124,111.51772,42.303608,-28.950089,-73.934181,-77.329239,-44.603161,0.85158074,29.465595,19.713139,-32.394745,-112.62498,-195.89975,-257.31781,-281.58612,-267.43793,-226.43477,-177.72017,-141.10884,-130.7077,-150.75098,-194.79376,-248.61594,-295.93173,-324.63593,-330.75226,-318.23611,-295.0752,-268.38852,-241.79866,-216.61366,-195.35924,-184.13921,-190.91792,-219.96349,-266.18719,-314.18909,-344.23044,-342.53513,-309.64627,-260.95724,-218.25276,-197.16452,-198.62587,-210.13129,-216.08167,-210.08081,-200.35466,-203.99455,-233.60281,-285.6727,-339.422,-367.89819,-354.58148,-304.43896,-241.66109,-195.13373,-181.08925,-194.45677,-214.59293,-221.23207,-209.43951,-193.04111,-194.03279,-225.30891,-278.8389,-327.81311,-341.75653,-304.77682,-225.03751,-129.57236,-48.363346,1.6028179,22.353342,28.497597,34.40625,44.724552,54.397873,56.640278,51.286491,46.167561,50.20039,63.981609,76.224007,70.213646,36.590939,-16.844688,-66.434082,-85.661545,-61.844856,-5.1247087,56.949314,96.19474,100.85854,81.39698,61.045334,57.847157,70.924225,80.963058,64.950356,14.977772,-52.355183,-103.30574,-107.05384,-55.472527,30.610584,113.12595,159.07776,159.1563,130.93553,105.21349,105.01595,131.14238,163.21898,174.64737,150.85701,98.76088,41.869442,5.2955132,1.1507714,23.628517,55.750912,81.751587,95.926353,102.31174,106.79762,108.82205,99.729179,69.464897,16.660086,-45.811176,-94.838173,-109.01574,-81.13517,-23.053965,40.470371,85.309052,100.51851,92.372383,77.905434,72.62027,80.382927,91.686691,90.866165,67.237358,23.017679,-26.721006,-61.729523,-67.104912,-40.64925,6.5870032,56.107357,90.377922,99.407761,82.88829,48.093193,5.7448883,-33.705994,-62.140141,-74.41613,-68.575089,-46.217365,-12.765122,23.23181,52.265095,66.997025,64.884285,48.752445,24.822512,-0.72691333,-24.511282,-46.164204,-65.872742,-81.107681,-85.409172,-71.058739,-34.815201,16.77582,66.697899,93.434586,81.514114,31.002748,-40.11121,-103.19883,-132.81352,-119.54649,-74.363945,-21.621964,15.190351,26.324936,19.385151,11.705624,16.840948,34.379444,50.034378,45.964069,14.216878,-36.062077,-82.84771,-104.24811,-91.62529,-54.071918,-11.500749,18.51363,30.825048,32.90395,35.650776,42.260468,43.972363,26.35918,-18.225185,-81.408531,-140.29953,-169.71735,-157.29463,-111.15673,-54.780025,-12.486004,4.4832621,1.9328195,-5.3812709,-7.3051596,-6.8644485,-17.318836,-49.919197,-101.80016,-153.70157,-180.18398,-165.74326,-115.52949,-52.826046,-4.7025986,14.314255,9.2594976,-2.1679344,-4.9702001,0.90083855,0.68105739,-22.58909,-72.291061,-131.37512,-170.41972,-165.90205,-116.30602,-44.656689,14.844944,37.495304,22.388783,-9.0091734,-28.649643,-21.029593,7.2929749,33.803768,36.928391,11.738362,-26.200886,-50.975006,-43.017799,-0.94101751,58.893757,113.65978,147.66049,159.01828,156.04524,147.54587,135.21056,113.84444,78.636703,33.102348,-9.1500988,-30.872828,-21.577974,15.490316,64.809677,107.4725,131.38329,136.01183,129.16112,118.99338,107.67133,91.264061,65.508148,32.465942,2.4429388,-10.867134,1.0981845,35.573044,79.097733,114.78587,131.46799,128.77119,115.10809,100.42921,89.012451,77.25724,57.790661,26.80216,-10.641665,-41.169579,-49.588535,-27.55151,20.654943,78.580589,124.21479,139.3996,117.49738,65.878723,2.4227068,-52.058918,-81.953804,-82.063232,-57.952637,-21.778105,14.021338,41.901291,60.772011,73.559868,82.736916,86.984993,81.393906,61.20808,26.614437,-14.888808,-50.610043,-68.407654,-62.680779,-36.911705,-1.2539289,33.094566,58.971874,74.659142,81.329117,79.196144,65.883926,38.618805,-1.3888305,-46.102062,-82.317825,-97.595879,-86.913826,-55.594063,-16.364819,17.616261,39.180458,48.896412,51.459896,49.907425,42.309269,23.575134,-9.0039015,-50.854839,-89.969681,-112.2215,-108.87045,-81.312332,-40.018188,1.3592466,32.556213,49.749901,53.890995,46.74469,28.523626,-0.78676236,-37.814404,-73.644485,-96.051331,-95.588692,-71.594681,-33.591183,3.4832962,27.351606,34.37849,29.434505,20.067474,9.6495962,-5.0494494,-29.819979,-65.602257,-103.79321,-128.73692,-126.62482,-94.939507,-45.525478,1.606198,30.203959,37.659061,36.177437,44.406441,75.187737,127.67477,188.85181,242.83028,280.97073,305.68677,325.76566,347.43793,368.47433,380.02942,374.73776,354.4375,330.8396,317.7041,319.81622,327.1687,319.65216,280.17441,207.69394,120.95626,49.570774,17.601862,30.114943,71.347847,115.45782,142.42508,148.46573,144.4317,144.22049,152.14609,158.69119,147.79599,110.34636,53.862061,0.8819347,-23.542761,-7.0940938,42.094288,100.48296,143.51292,159.64198,154.802,144.85413,141.97797,145.01352,140.77185,115.38678,67.467033,13.241025,-20.783724,-13.520136,36.779076,109.79214,173.92702,204.21196,196.14481,166.84731,142.91623,142.78668,164.83078,188.69449,188.95522,152.42146,88.13987,23.744463,-9.751647,4.4573269,59.563538,129.40121,183.52388,203.80945,192.61404,167.91927,149.05617,142.42653,136.5679,109.95883,46.779728,-49.466633,-153.62119,-230.17776,-252.0724,-215.83218,-143.80357,-71.84687,-29.72805,-25.920988,-45.774006,-63.634701,-60.833508,-37.924194,-13.519191,-10.871346,-41.306007,-95.515152,-148.39252,-174.11177,-161.50484,-119.86279,-71.862526,-38.887787,-28.740812,-33.586441,-38.609703,-34.539703,-24.918495,-23.165827,-41.944176,-82.718437,-133.00838,-173.16011,-187.74248,-173.73201,-140.39256,-101.92406,-68.881569,-44.519978,-27.763805,-19.071426,-23.324419,-46.63607,-89.387886,-141.49025,-184.75352,-201.98964,-187.02821,-148.51094,-104.41194,-70.862389,-53.100296,-44.905056,-36.606911,-25.280148,-18.938898,-30.98361,-68.644424,-124.1526,-175.94994,-200.20039,-185.23769,-139.01207,-84.172752,-43.997128,-28.802055,-32.051502,-38.344955,-36.916336,-30.415804,-32.417946,-55.599331,-99.605202,-148.03812,-177.3997,-172.015,-134.43309,-83.878319,-43.812771,-27.377356,-30.824411,-39.101765,-38.920158,-29.37995,-22.331966,-32.432049,-64.522476,-107.89745,-141.86887,-148.73344,-124.92059,-82.596802,-41.068069,-14.599389,-5.4210186,-6.2897992,-9.5549612,-14.914123,-29.486582,-60.218369,-104.94883,-149.79327,-175.76736,-170.41229,-136.08157,-88.732109,-47.947628,-25.339014,-19.55468,-21.042866,-22.290985,-25.157095,-39.275333,-72.597748,-121.54522,-169.01601,-192.87476,-179.62682,-133.70569,-75.511375,-29.201338,-8.5475998,-10.548203,-20.845341,-26.45895,-26.143208,-30.635445,-52.730846,-94.8209,-143.5845,-176.37177,-175.24055,-138.8746,-83.938271,-34.846977,-9.0627222,-7.9997287,-19.368752,-28.499828,-29.906815,-30.585196,-42.935589,-72.985619,-113.03471,-144.53271,-149.45374,-122.20741,-73.718185,-24.896832,5.8334961,12.364211,1.7653736,-13.517941,-25.781467,-36.946632,-54.978405,-85.049202,-122.49367,-153.13498,-161.07539,-138.63171,-91.64151,-36.712494,7.4747543,28.988886,26.339497,5.8472238,-24.142155,-57.52766,-90.641617,-119.54505,-137.96133,-138.58374,-117.3699,-77.602432,-30.243662,10.344412,32.874874,33.766853,17.241055,-8.5882463,-36.46558,-62.309292,-84.127983,-99.406418,-103.9235,-93.535728,-67.726501,-31.952343,3.5379565,28.125319,35.689659,26.704197,6.3761215,-19.415161,-47.10194,-75.146919,-101.17554,-119.54218,-122.22639,-103.31392,-64.155067,-15.134809,28.043573,51.832874,51.458748,32.366444,5.6456509,-19.229382,-39.163921,-56.481087,-73.403748,-86.747917,-87.634186,-67.283455,-25.107,27.064484,68.657143,80.663124,56.450352,6.0871229,-48.857628,-86.914108,-97.449173,-84.036736,-59.082462,-34.200027,-13.362229,6.6787224,29.838982,53.75087,68.346504,61.621292,28.631691,-22.945211,-75.158127,-108.93839,-114.09789,-93.598778,-59.638126,-24.899063,4.4611888,29.238283,51.504459,68.193291,69.97319,47.271378,-0.61739051,-60.538216,-109.53403,-126.58035,-104.76765,-55.694054,-2.6960573,32.941593,43.779732,38.308853,32.314598,35.945492,45.816364,47.782871,28.327808,-13.727149,-63.793877,-99.175186,-102.79407,-73.705811,-27.341686,14.45231,36.609253,38.395962,30.760574,26.170389,28.671402,31.255402,22.016844,-5.7839751,-47.207748,-87.282463,-109.46665,-104.94846,-76.677216,-36.184193,3.6431205,34.388412,53.050537,58.94862,50.572769,25.899858,-13.830564,-60.450356,-99.459862,-115.9909,-102.8703,-65.290176,-18.448708,20.716011,42.372314,47.417278,43.781754,38.560371,32.041473,18.161303,-8.9963446,-47.691227,-86.017235,-106.93336,-97.958183,-59.16885,-4.0860267,47.307964,79.071083,86.925453,78.827255,69.00959,69.873024,86.6334,116.95277,154.18407,191.00264,221.08667,238.95746,239.85603,221.19177,185.11816,140.04335,99.013901,74.9814,75.362747,99.099236,137.88268,180.47839,217.2025,241.98387,251.66571,244.41908,219.55701,179.34758,131.10324,86.906227,59.768913,57.831562,80.155922,117.08757,155.24361,184.01898,199.47047,203.40456,199.03719,187.06461,165.46805,133.23428,94.798767,61.066471,45.211102,55.437279,89.530968,135.21104,176.46188,201.87263,209.56764,205.69522,197.97824,189.26176,175.841,151.73558,115.6264,75.106453,44.706512,38.519703,62.056534,108.54641,161.95378,204.65144,224.99699,220.68275,196.93388,161.95854,123.20453,86.457573,57.104027,41.18074,44.330742,68.86496,110.99086,160.43097,203.08273,225.39441,218.28874,179.22432,112.46933,28.476591,-57.237267,-126.38348,-162.30223,-156.06883,-111.73193,-47.001823,12.781096,45.750828,44.226673,18.637701,-8.4920149,-15.790079,4.0125489,39.355927,66.594612,64.408432,27.167841,-30.954882,-83.628273,-106.9759,-92.222,-49.004597,1.8748311,40.934086,59.655746,61.844658,57.157677,52.320145,46.451218,33.380016,8.6000624,-24.704548,-55.229244,-69.239532,-58.580215,-25.676525,17.623461,56.358517,79.69632,84.720078,75.096611,56.498859,32.529163,3.9830894,-28.517052,-61.095528,-85.564621,-92.167747,-74.802032,-35.524742,14.638147,59.4604,84.112114,81.274536,53.788937,12.760377,-27.644224,-55.969944,-67.111473,-62.480167,-47.275536,-26.852369,-4.3990507,18.902018,41.752083,60.52232,68.969391,60.67482,33.079445,-9.4080143,-55.585514,-91.466217,-106.25309,-96.980621,-69.154404,-33.15905,1.1187712,27.956507,45.659645,53.477676,48.766613,27.480286,-11.628148,-62.115452,-108.7518,-132.74031,-121.38219,-76.480385,-15.492154,36.552067,60.358124,52.945408,28.604246,9.1680765,9.5018091,27.543287,45.608475,42.449749,8.4047585,-46.316311,-95.939766,-113.7105,-87.805084,-28.762592,35.985653,76.89576,77.389145,40.721375,-14.194272,-64.048203,-92.069252,-92.903648,-70.697906,-34.033386,7.7998624,45.439213,68.821373,68.433731,39.564983,-12.860116,-73.16468,-120.11233,-136.62799,-118.47894,-76.228104,-28.826633,7.2276421,26.147804,33.261436,37.801437,43.718952,45.529758,32.478207,-1.9033099,-51.966763,-100.06863,-125.35713,-115.74523,-75.118988,-20.928181,26.182915,53.704208,62.133892,60.741154,58.041786,54.383686,42.191761,13.568317,-30.639315,-77.456497,-107.2572,-104.91185,-69.23143,-14.308123,38.210449,70.821358,78.297836,67.479607,49.8423,32.767174,15.812707,-5.8250566,-33.972294,-62.42786,-78.584221,-71.048912,-37.992767,9.8429155,53.974201,77.929741,75.653114,53.266369,23.525944,-2.7661009,-22.336706,-38.463093,-54.84647,-69.531082,-73.99659,-58.676121,-21.252754,28.355299,70.573097,85.6334,64.518066,14.657039,-43.310848,-85.983734,-98.789085,-82.139297,-49.075184,-16.502209,4.2876935,12.243423,14.243603,18.203716,26.533863,34.174168,32.166039,14.138645,-18.575787,-56.387215,-85.71032,-95.456703,-82.08889,-50.678204,-11.831618,23.44293,48.060791,60.348206,62.477669,57.316723,45.848553,26.774118,-1.4888291,-37.677002,-75.50058,-104.17609,-112.08969,-92.21785,-46.638218,12.532391,66.907249,99.024025,99.661171,71.594971,27.806181,-14.909891,-43.453239,-53.045471,-46.833271,-31.469629,-12.067396,9.9977942,35.256363,62.174843,84.61293,93.294197,80.883514,47.376553,1.876148,-40.949451,-67.837173,-73.011795,-59.618412,-35.956673,-9.5779324,16.341949,41.884945,65.907448,82.42878,81.72065,56.359791,8.3205271,-48.405468,-92.698639,-106.67014,-85.315033,-39.183372,11.908247,50.209778,69.097778,74.108276,75.753227,79.649483,81.328026,69.681389,36.701946,-13.593721,-63.957855,-92.2005,-84.21476,-43.518101,8.9179974,44.722252,42.201542,-3.5213938,-79.36377,-161.57463,-226.43672,-258.65848,-254.53235,-220.62117,-170.56691,-121.81516,-92.119217,-94.914864,-133.9787,-199.96893,-272.09613,-325.9295,-344.28214,-325.23074,-282.20554,-235.74547,-201.97444,-185.17757,-179.08138,-175.27647,-172.04131,-176.52747,-198.30223,-239.05168,-286.73154,-319.74628,-319.4859,-282.96146,-226.35501,-176.13568,-153.07727,-159.8558,-180.81581,-194.17905,-188.17657,-169.6523,-158.87939,-174.12366,-216.93336,-268.8382,-302.18597,-297.83209,-257.47751,-202.17628,-158.27577,-140.82637,-146.02957,-157.51048,-161.08275,-156.58192,-157.72607,-180.05302,-226.10469,-279.42654,-312.74728,-305.32513,-257.42767,-191.46425,-138.45355,-118.81949,-130.59373,-152.99121,-162.59819,-150.64255,-129.18475,-121.96563,-146.45854,-199.79129,-258.43475,-291.98093,-281.73901,-231.85823,-166.0797,-112.97968,-89.835915,-95.255562,-113.96203,-128.79626,-130.90918,-121.72951,-107.07712,-89.477852,-65.274872,-28.57502,21.737072,78.184113,127.73762,159.82967,173.34666,177.13191,183.27744,197.8833,215.96986,224.35986,210.72691,172.70683,120.98979,74.474113,50.766685,57.955311,92.095032,140.73468,189.18866,225.53783,242.46866,236.91333,209.64975,165.88434,115.74012,72.667915,49.093357,51.113651,75.553535,111.67078,146.75891,172.1093,185.49095,188.90266,183.93794,168.91504,140.44916,98.421059,50.195305,9.987977,-7.3312993,5.5735855,43.843391,92.741257,135.68365,162.72716,173.95793,175.92897,174.31013,168.57404,152.85123,122.28854,79.90078,38.278275,14.142417,18.991953,52.109665,100.7376,147.31865,178.88072,192.37439,192.91519,187.06006,176.66721,158.09705,127.20232,85.982658,45.3424,21.146441,25.672073,60.030445,112.66943,165.04288,200.83282,213.01454,204.88084,185.38565,162.74866,140.76814,119.67674,99.805511,84.457695,79.426125,89.478333,114.56657,148.68948,182.28439,206.45602,216.22723,211.04385,193.00034,164.84143,129.54498,91.537903,57.869755,37.434841,37.814362,61.342659,102.95094,151.41972,193.52408,218.76106,222.1964,204.4657,169.90459,124.68276,76.116142,32.752148,3.7899978,-3.1644216,14.596056,52.545322,99.572952,141.95195,168.76262,175.7905,165.79507,145.36206,120.70178,95.212166,70.097,46.957642,29.812176,24.504732,35.545856,62.52404,98.770981,133.54121,156.58585,162.38824,151.61374,129.27855,101.31956,72.096558,44.323235,20.846073,6.1668367,5.7883472,23.234472,56.622284,97.409828,132.76819,150.69141,145.08423,117.9778,77.806114,35.100857,-1.6250654,-27.567116,-40.652744,-39.629421,-23.426729,7.3303514,47.894417,88.520363,116.88662,123.26539,105.62624,71.348053,34.028084,6.947331,-2.9964933,2.7266183,17.341101,34.465221,52.276287,73.130394,99.004532,126.39352,145.05669,142.53125,112.1634,59.430458,1.789018,-38.850109,-47.065922,-21.787086,23.805933,70.281456,102.77995,117.8349,122.14839,124.76923,128.59163,127.45303,111.05524,74.243469,23.832497,-22.414465,-44.727909,-32.689831,8.4377575,60.698582,103.86137,126.43974,130.1824,125.50511,121.64087,118.89461,108.73935,81.726639,37.362934,-11.61113,-44.389511,-43.944477,-7.855628,49.254612,103.61243,135.55272,139.5961,125.01458,107.07673,95.485062,88.252113,75.215889,48.397842,11.365331,-19.745794,-25.138399,5.3049412,63.228527,123.95204,158.93474,151.17815,104.20731,39.360603,-16.499771,-44.971207,-43.44009,-22.305855,4.6110826,29.180754,51.528912,75.280159,100.13499,118.19347,117.40908,90.05722,40.125896,-16.05969,-57.16671,-67.872383,-46.697319,-5.8040657,36.839867,67.658028,83.499146,90.107788,94.876022,99.483002,97.821243,80.694756,43.923206,-5.981729,-52.864456,-78.537163,-72.434792,-37.389805,11.975716,57.146709,85.015228,93.075272,87.827866,78.076637,67.921257,54.222897,30.231165,-7.1005468,-51.225582,-86.10218,-93.347328,-63.066856,-2.2121325,65.028389,106.32403,96.041847,28.446659,-77.941353,-187.79964,-265.02216,-289.2442,-264.23318,-213.76996,-167.5343,-145.12381,-147.29926,-159.13277,-162.48436,-149.55063,-128.70773,-118.92046,-136.46062,-182.76018,-241.55856,-287.45242,-300.46158,-277.26788,-232.028,-186.61873,-157.1407,-145.74673,-142.88094,-137.603,-128.0275,-123.9833,-139.74104,-181.98354,-241.87595,-297.45087,-325.35715,-314.39023,-271.82632,-218.45282,-175.87892,-154.8008,-151.82388,-156.07893,-159.86653,-164.98091,-180.00529,-210.96339,-252.95934,-289.89966,-303.39639,-284.91183,-242.37032,-196.08112,-166.37291,-161.38345,-173.48851,-186.7494,-189.83333,-184.87213,-185.63506,-206.1897,-248.30348,-297.03192,-328.28024,-323.603,-282.21472,-221.9637,-168.62929,-140.93329,-141.38667,-158.63223,-178.58728,-195.51395,-214.61194,-244.42116,-285.27728,-323.35376,-335.9328,-305.21115,-231.2421,-134.53757,-45.675415,11.744151,33.671139,35.487175,39.611904,59.580761,91.543358,118.699,125.00308,108.03236,81.683167,66.739326,76.009819,104.58379,132.15036,135.92337,105.44749,49.448036,-9.4899206,-48.388939,-56.371677,-38.429836,-9.2085619,17.678413,36.965523,51.247509,64.476646,75.54995,77.450233,62.618809,30.152021,-11.068939,-46.082302,-61.948261,-54.56245,-29.620636,2.3238254,32.451214,56.871159,74.613167,83.183472,76.609062,48.78381,0.1526771,-57.810192,-105.14613,-122.9103,-104.02975,-58.06456,-6.0151358,31.90097,47.467228,47.093994,44.236221,47.322254,52.276192,45.474361,15.292102,-36.217461,-90.586624,-122.12856,-113.4772,-66.969879,-3.8286948,48.623447,73.160423,71.312218,58.86694,51.936226,54.005108,53.591415,34.344254,-9.8426046,-66.148636,-107.77782,-110.09725,-67.260002,2.3177428,65.999237,96.345795,87.249809,56.175587,31.166759,31.450178,54.621048,78.794174,77.983353,40.239246,-23.46324,-85.156273,-116.35358,-104.21847,-57.431118,0.9532246,47.884811,72.174614,76.833,72.014404,64.969833,54.66954,34.564674,0.67305845,-41.652912,-77.763168,-91.005295,-72.549629,-27.265995,28.121334,73.317223,93.986969,87.073067,59.613358,22.988415,-13.095209,-43.324989,-65.590523,-78.098877,-77.820099,-61.757858,-30.05068,11.664099,52.790268,81.418678,89.208138,74.831558,44.219414,7.7072134,-24.194933,-44.262135,-49.899715,-42.385906,-25.062054,-1.7276863,24.033606,48.674824,68.280952,78.635094,76.079742,58.959946,28.995934,-8.1995363,-44.00285,-69.050369,-76.223045,-63.203014,-33.464813,4.8545647,41.82695,69.120331,82.407242,81.801247,70.373886,51.821354,28.745333,2.5356181,-25.243193,-51.111317,-69.086838,-72.159325,-55.46423,-19.598352,27.885641,74.045723,104.88969,110.68018,89.750092,49.017429,1.0130708,-41.036579,-67.676498,-75.324989,-65.588974,-42.928276,-12.469298,20.818382,51.714397,74.327744,82.901344,73.987602,48.773365,13.767327,-21.140226,-46.536201,-57.149746,-53.184395,-38.676228,-18.248158,5.2910523,30.785299,56.357395,77.08564,85.227051,73.716957,41.071392,-5.6915293,-52.647186,-84.800415,-92.979149,-77.692818,-47.693371,-14.382998,14.160932,35.75919,52.112904,64.336166,69.837135,63.159458,40.273132,3.0839179,-39.371155,-74.254158,-90.786316,-84.929634,-60.16795,-24.519861,13.587195,47.668991,72.847267,84.440254,78.008698,51.878075,10.470503,-34.754425,-68.807541,-79.971863,-65.87104,-34.643616,-0.094032012,26.140965,40.173298,45.513149,47.46072,46.870705,38.450539,15.28579,-23.685289,-69.227165,-104.57444,-114.39933,-94.155235,-53.211193,-9.2906027,22.158295,36.355316,39.612381,41.852711,47.105442,49.364136,37.1819,3.7308288,-45.292213,-92.263237,-117.0052,-108.7552,-72.484299,-25.265501,14.546523,37.562084,46.030289,47.859371,47.484364,41.328682,21.772774,-13.457633,-54.340759,-80.623764,-72.879448,-25.463022,47.881409,120.37974,166.93787,177.69043,161.67654,138.86989,126.82521,131.46227,147.72345,168.01347,190.49493,219.93636,260.36432,306.0701,339.66965,340.87872,301.03491,232.81848,166.78516,135.22137,153.20865,209.61909,274.52606,318.29974,329.4234,318.8927,308.60309,312.64334,325.55453,326.50085,296.49713,235.9005,168.66826,129.1772,140.11124,196.8356,269.57605,322.33301,335.58084,317.01117,293.0242,287.38809,302.66064,317.95203,304.79208,249.70367,167.04587,92.452095,60.944427,84.729698,145.96428,209.24901,244.81975,246.17847,230.29568,221.228,229.8092,244.55975,240.47034,199.11998,125.23984,47.2952,1.0653782,7.3106647,58.805649,125.43456,173.52415,186.04836,170.33647,149.11505,142.31181,152.87354,166.13945,162.21286,131.72707,83.684006,40.338139,23.397612,41.330853,85.776848,137.94051,179.08855,197.6778,189.76808,155.295,95.582191,15.124782,-74.451538,-153.5722,-200.60062,-202.40764,-162.74797,-101.74972,-45.529404,-12.158882,-3.3582637,-7.5791693,-11.945739,-13.863119,-23.163305,-52.751446,-104.75335,-163.30443,-200.86787,-195.06056,-144.57535,-72.379814,-12.754033,9.7953606,-4.5702028,-32.84761,-46.738964,-33.686729,-6.3733854,6.4213595,-18.527636,-80.039169,-150.22208,-191.04536,-178.79515,-119.66601,-45.709225,6.0532465,16.907082,-3.7946894,-28.585054,-33.784077,-17.296827,0.4950988,-6.8212643,-50.079048,-113.72132,-164.05257,-171.13896,-129.0943,-60.484566,-1.712024,20.447178,4.9059353,-25.888096,-44.176075,-37.764389,-18.529282,-12.599881,-39.487961,-95.384155,-152.93518,-178.17461,-153.15173,-88.679504,-18.328829,22.429203,18.034086,-18.729906,-56.810379,-68.24408,-46.430676,-9.5916853,12.111079,-3.3227131,-55.612274,-122.55527,-173.59477,-187.21219,-161.3745,-111.76919,-60.665234,-24.453915,-7.3468728,-3.5855539,-4.842391,-6.986701,-12.04384,-25.110426,-49.200443,-81.632538,-113.90186,-134.6991,-134.39822,-109.25008,-64.009094,-12.050211,27.72217,37.094894,6.2080464,-60.690792,-144.9767,-220.28178,-263.63553,-265.55685,-233.44989,-186.24617,-143.49976,-115.63564,-101.22058,-92.338547,-83.591148,-77.833984,-84.279739,-110.33892,-153.40096,-199.11436,-228.21222,-227.71822,-198.96709,-156.82523,-120.52135,-102.29874,-101.53173,-107.95902,-111.17799,-109.19929,-109.79118,-123.78772,-155.48085,-197.32826,-233.02586,-246.92094,-233.25893,-199.05124,-159.06523,-126.96399,-108.9241,-103.60779,-107.25767,-118.90472,-141.0743,-175.46776,-217.5562,-255.26248,-273.88324,-264.43457,-229.57651,-182.64334,-140.15776,-112.92081,-101.76374,-100.51903,-103.3632,-110.48631,-127.50584,-159.06241,-201.78592,-242.62878,-264.70895,-257.13074,-222.02135,-173.74011,-130.67989,-105.27701,-98.931816,-104.74046,-115.13554,-128.09531,-147.07593,-175.05284,-207.96593,-233.60852,-237.88448,-214.45349,-170.61652,-124.47981,-94.570229,-88.733406,-100.05146,-112.80871,-114.43803,-104.99953,-97.313866,-107.41254,-141.88499,-191.08286,-233.24599,-247.13564,-224.91432,-176.83736,-124.87878,-89.776924,-80.09304,-90.039726,-106.56496,-119.94495,-130.20738,-145.16853,-172.05431,-209.18636,-244.01566,-259.24539,-243.18979,-197.69168,-138.57976,-88.427353,-65.979591,-78.171059,-118.54415,-171.85962,-221.47028,-255.36447,-268.54337,-261.97095,-239.99533,-208.15439,-172.17358,-137.80193,-110.69428,-95.827515,-96.474945,-113.102,-142.62109,-178.40855,-211.4189,-232.48817,-235.34737,-219.17244,-189.22255,-154.79152,-125.18772,-105.88976,-97.224083,-96.42186,-101.50928,-113.89446,-137.15092,-172.28209,-212.8607,-244.43544,-250.27344,-221.02252,-162.28592,-94.293228,-42.342793,-22.88953,-33.833584,-55.786209,-64.435448,-46.722126,-10.39856,19.806494,17.739876,-26.427589,-97.697273,-162.87425,-188.63231,-159.94298,-87.550278,-0.24656278,72.603645,116.95605,138.75914,155.67245,182.65791,221.70706,262.2084,290.5047,300.8176,299.34857,298.94766,308.94705,328.22003,346.78983,354.57272,350.24631,343.04037,345.63782,363.31409,387.68716,400.43454,385.14444,339.33032,278.11249,226.64674,206.11555,222.4406,264.76724,313.82315,353.58585,378.09152,389.6344,391.48868,382.30215,357.41116,316.07593,268.0542,232.62738,228.75468,262.37439,320.24066,376.00726,405.75378,402.87234,381.80844,367.40668,376.73398,406.005,432.19708,428.88202,385.6481,317.5162,257.31763,235.70953,262.17139,319.78027,377.08441,408.61444,409.80609,396.40677,389.69006,398.90387,414.08505,414.4971,386.2493,335.68964,288.06122,271.65024,298.43817,355.20026,411.77258,440.95334,436.03064,413.4808,398.97482,406.93799,428.7583,438.68887,413.69473,353.06555,283.1221,242.39763,256.37634,318.63663,391.52173,426.6731,392.62311,292.08563,158.58716,35.685654,-47.086056,-86.414543,-99.45916,-106.49667,-115.39234,-118.58265,-103.23225,-65.471092,-17.116495,20.50926,31.017429,14.650258,-11.8101,-27.240376,-21.766464,-4.3082085,3.7456172,-15.376664,-61.242035,-112.65416,-139.52136,-121.68668,-62.445446,12.054627,67.117676,78.41893,44.024109,-16.967957,-76.909561,-114.50933,-123.21825,-109.60038,-85.05899,-57.827183,-30.448408,-2.968595,22.240808,38.724243,38.880093,19.230259,-16.154001,-56.694386,-90.031654,-107.15829,-104.90987,-85.226227,-53.046669,-15.120297,19.783442,40.97649,38.400829,7.7147412,-44.931229,-102.50252,-143.12425,-150.3378,-121.84563,-71.116653,-20.351204,11.153926,16.095955,0.27834079,-24.211597,-48.282692,-70.657547,-94.968178,-122.0148,-144.10579,-147.14862,-120.27458,-66.495369,-5.9746594,32.179874,25.834372,-26.27949,-102.04016,-167.22942,-194.14949,-176.14737,-129.2005,-80.139053,-49.689274,-41.492119,-43.68383,-40.808235,-26.934702,-10.560402,-8.1480589,-31.362421,-77.379883,-129.1581,-165.29578,-172.42677,-151.72252,-115.7432,-78.928635,-49.19569,-26.499588,-8.3073339,3.5996876,1.4630296,-22.893583,-69.401527,-125.20796,-168.93539,-181.95134,-159.32231,-112.78937,-63.442635,-28.992832,-14.350694,-11.772089,-9.8387585,-4.1418681,-1.4292302,-14.004074,-48.600327,-98.287277,-143.92722,-164.77199,-151.04288,-109.76443,-59.89143,-20.371038,0.36483186,6.3889575,7.2015858,7.765398,3.7379069,-14.306842,-51.056122,-99.01796,-139.91513,-154.79173,-136.00993,-92.547371,-44.605549,-11.168733,0.80206174,-1.8615128,-6.5306234,-6.1346779,-5.1460629,-15.646795,-46.488365,-93.862206,-140.70865,-165.95589,-157.36076,-119.02959,-68.487495,-25.602493,-1.2870539,6.3497128,6.5097666,5.8939118,2.5011389,-12.172284,-44.434532,-90.23233,-134.2728,-157.75307,-149.55341,-113.08493,-64.074562,-21.039881,4.7656598,13.221491,11.239106,4.8524737,-5.8648429,-25.160984,-55.023418,-89.562737,-115.64219,-120.12313,-98.729729,-59.884163,-20.307476,4.8348932,10.419792,2.6500182,-7.4108467,-12.937819,-16.170565,-25.440542,-46.868576,-77.290138,-104.0912,-112.47187,-95.090401,-57.215775,-13.771044,19.510206,34.507969,33.075256,22.44459,7.9774852,-10.763401,-37.62859,-73.447571,-111.21947,-137.49176,-139.69846,-114.43024,-70.536552,-24.517847,8.7623262,23.612841,24.224478,18.59911,10.788076,-2.3220398,-27.075562,-65.063309,-107.62411,-137.85143,-139.66687,-108.10536,-53.637234,2.7880721,40.958595,51.591629,39.083042,15.725739,-7.7825885,-28.501492,-50.008018,-75.527107,-101.51702,-117.35484,-111.93607,-82.428574,-38.368389,2.598562,24.921791,24.316374,9.3396835,-5.8699827,-12.500402,-13.570441,-20.971695,-44.864677,-83.161064,-119.38981,-131.75298,-108.20413,-57.469093,-7.7088561,7.8139992,-29.921656,-113.18716,-209.99411,-280.69681,-299.10022,-265.65274,-205.18886,-151.16304,-126.38547,-131.92702,-150.26164,-159.59045,-149.49713,-127.78399,-114.47292,-127.38581,-169.02049,-223.34712,-264.57947,-272.26724,-243.15105,-192.47688,-144.29248,-117.17425,-114.47381,-124.94794,-132.75327,-129.72963,-121.55595,-123.55566,-148.90681,-197.22951,-251.55705,-286.42719,-282.57672,-239.13474,-175.34312,-120.13464,-95.502838,-103.70547,-126.2447,-135.43483,-111.57458,-55.17915,13.298144,66.087158,85.207771,73.393524,52.027149,47.414131,74.004028,125.02927,176.32849,200.88103,185.02194,136.50989,79.926308,42.756836,40.909286,72.079742,119.86921,164.71686,194.06531,205.79758,204.35735,194.08061,175.5869,147.91301,114.01116,84.16111,73.139328,91.760185,138.16187,195.334,237.80501,244.39912,209.6577,146.94884,81.321907,36.486206,23.724747,38.891331,68.160797,97.708138,120.63289,137.22275,149.81003,157.24454,153.77892,133.35081,95.823883,50.057423,10.91977,-8.1695347,-2.2520192,23.252323,56.722973,87.327057,109.78954,123.96903,130.49829,126.88258,108.02595,71.410439,22.938791,-21.896202,-43.995071,-31.044945,14.248623,74.068398,124.52884,148.71117,145.51534,128.55313,115.74684,116.5236,125.23505,125.37404,101.91767,53.542427,-3.6792223,-44.012638,-46.655895,-8.0901041,55.521854,117.23979,153.81816,156.81003,134.00929,101.45639,72.202606,49.539543,28.690182,4.7612257,-19.602419,-33.031563,-22.130779,18.282887,78.546867,136.20468,166.27652,153.95219,102.2736,30.433487,-36.004467,-77.042526,-85.695328,-67.658852,-34.918591,1.653053,35.983849,65.4431,86.974495,94.872162,82.703781,48.332733,-1.8066536,-52.975704,-87.811531,-94.504074,-72.575829,-32.638535,9.75105,42.289688,61.127388,70.137329,75.337868,78.736359,76.091301,60.227325,27.56657,-16.822014,-59.493095,-84.544563,-81.740166,-51.879532,-6.2140241,39.501858,72.467697,87.350746,85.755165,72.092445,49.537189,19.172594,-17.416214,-54.789589,-83.041359,-91.446175,-74.520508,-36.404285,9.8823872,48.48637,68.576096,69.072098,57.275795,42.548744,29.637276,16.499926,-1.76624,-25.90094,-48.006451,-53.900921,-31.852486,17.670267,78.20401,123.25165,129.64395,90.767746,21.506811,-48.624634,-90.555817,-90.259071,-54.468601,-4.6239724,36.633789,57.782635,62.234909,62.215691,67.762039,78.709099,84.981232,74.535133,43.076305,-1.3242893,-41.863102,-62.342941,-55.972729,-28.094843,8.3137045,40.682331,62.821953,75.319,81.186134,80.933525,71.206947,48.002121,11.7262,-30.125544,-65.129868,-81.760765,-75.029297,-48.316971,-10.639955,28.209335,61.081173,83.601303,92.203506,83.049797,53.876259,7.8371453,-44.07642,-85.249016,-100.3741,-83.395615,-41.243217,9.5818901,51.815239,76.068741,83.715477,82.44101,78.14576,69.559563,49.900444,14.500777,-31.546917,-72.270775,-88.363564,-69.089417,-20.449932,36.636215,77.847168,89.564598,76.279442,56.202206,47.912743,57.109444,72.638161,74.734375,49.985443,2.7060919,-45.395065,-67.584206,-48.695267,4.8386912,68.09211,111.9582,119.61499,95.045219,58.973091,35.694469,39.580376,69.270996,111.74524,151.88417,180.3261,194.8709,196.15784,182.59526,149.54207,93.800072,19.780106,-58.111206,-119.85904,-149.10768,-141.6951,-108.02573,-67.777893,-40.303654,-36.476711,-56.198593,-91.650536,-132.80153,-171.11359,-199.88979,-213.00128,-205.06903,-174.48592,-127.41706,-78.904572,-48.395538,-50.840424,-88.245857,-147.235,-204.89772,-239.99649,-243.0033,-219.08659,-182.73679,-148.13708,-121.90144,-102.68784,-86.994026,-75.901131,-76.938293,-99.045349,-144.07127,-201.34735,-250.23409,-270.13458,-252.04059,-204.10698,-147.32005,-103.73018,-84.632805,-86.121384,-94.509354,-97.538635,-93.4972,-91.926849,-105.44479,-138.37805,-180.25009,-209.08913,-203.07654,-153.48801,-70.81974,19.877813,91.822945,129.9314,137.12045,130.25175,128.7314,142.92378,169.18166,193.91313,203.55078,193.93275,173.3053,157.26744,158.90631,180.20291,209.96947,229.71626,224.22475,190.85764,142.26787,100.78499,87.331696,110.71986,162.96585,222.97694,266.46829,276.7767,251.1187,199.7301,139.41951,85.873444,48.957134,32.557781,37.196419,62.036671,104.10618,155.54684,202.15096,226.25549,214.09444,163.9366,89.629066,16.156433,-31.407278,-39.700256,-12.765184,31.778166,73.614761,100.77515,113.99635,122.16913,132.70955,144.05937,145.84013,126.61593,83.677109,27.663858,-21.64665,-45.917717,-38.287426,-6.3465099,33.540161,66.281151,85.506966,93.793098,96.554527,95.08934,84.542427,58.44442,16.136496,-33.100014,-73.100105,-89.556511,-78.50631,-48.529819,-15.038793,9.2810507,21.085014,25.553398,29.305801,32.963509,29.5296,10.220291,-26.580767,-70.433975,-102.64532,-107.08321,-80.87719,-37.348999,1.4224877,17.850462,9.1622105,-12.09839,-27.6136,-26.249638,-11.552207,1.2075785,-3.8269737,-31.566809,-71.88826,-105.5274,-115.7106,-97.714783,-60.456684,-19.938589,10.288903,25.162466,27.411362,22.012598,10.850787,-8.2221317,-37.620747,-75.035095,-111.5759,-134.92598,-135.5834,-112.06843,-71.831398,-27.650837,7.8467989,26.274878,24.607571,4.1398392,-30.789738,-73.215897,-113.72261,-141.86095,-149.38542,-133.96272,-100.83183,-60.741337,-24.955099,-0.34184828,12.304922,15.849339,12.483118,1.1377521,-21.086073,-54.48222,-92.990341,-124.72547,-137.35896,-125.16079,-92.86615,-53.417965,-20.824041,-2.8412101,1.6555299,-0.86714256,-5.3274431,-12.681701,-28.876011,-58.83144,-100.06709,-141.05342,-166.0851,-163.77463,-133.61311,-86.348625,-38.188835,-2.9062586,13.106388,10.453238,-7.2438674,-36.826408,-75.60556,-118.45618,-155.556,-174.21748,-164.97931,-128.19894,-76.052689,-27.474239,1.5205448,6.0608606,-6.3089442,-22.224337,-32.372002,-37.649731,-47.200592,-69.755142,-104.68036,-139.57394,-156.71056,-144.29703,-104.85549,-54.8078,-15.30358,-0.33914676,-9.9896765,-32.894962,-55.63409,-71.955963,-85.293503,-103.17162,-128.21265,-152.99532,-163.18401,-147.16591,-105.42878,-52.736248,-11.016935,2.6689765,-14.729717,-51.825485,-90.891174,-118.5863,-131.99725,-136.47495,-137.89276,-135.93385,-123.95079,-95.678596,-53.532799,-11.572574,10.224815,-2.5866339,-49.209522,-112.43266,-167.29401,-194.29912,-188.87737,-161.39433,-128.48213,-102.18142,-84.409142,-69.975121,-54.94273,-43.238487,-45.867645,-72.805733,-123.42567,-182.90295,-228.15202,-240.15688,-214.82932,-165.18387,-113.32106,-77.523422,-62.953102,-61.780464,-61.945145,-57.813374,-54.886517,-65.169708,-96.635979,-144.58379,-191.50621,-216.18581,-206.24252,-165.81587,-113.2309,-70.181976,-49.566238,-49.814453,-58.985188,-65.229515,-66.044456,-69.80497,-88.547447,-127.08228,-176.11623,-214.48782,-219.65276,-180.16722,-102.56184,-8.4344091,76.501785,135.01648,165.56458,180.53978,197.32751,227.782,272.11566,320.14465,358.423,378.61603,382.16055,378.75925,379.95856,391.85648,411.37357,428.3559,432.29166,419.58051,396.7547,377.27249,373.35281,387.60565,409.84128,421.73816,407.35181,363.52567,303.71069,252.21408,231.61255,250.493,298.87415,354.20175,394.31998,409.41174,405.52658,397.72595,397.63092,403.82098,401.62424,372.58218,307.41968,214.00868,115.12619,37.469067,-1.114252,1.4709371,33.815441,79.521362,125.45335,164.4487,192.13278,202.21182,185.59502,135.2498,53.555981,-43.887794,-132.20151,-187.78322,-199.4183,-173.00185,-126.93841,-81.3992,-48.513649,-29.491705,-19.461987,-15.282349,-19.766306,-38.919636,-74.502464,-118.20605,-152.94029,-161.6362,-138.24538,-93.43998,-50.574207,-33.715816,-54.728958,-106.99558,-169.13513,-216.00876,-230.40346,-209.33298,-162.92392,-108.26826,-62.507092,-38.156696,-41.02935,-69.499634,-114.37636,-160.2123,-189.43571,-189.11293,-157.46611,-105.90783,-54.119373,-19.986647,-10.131565,-17.177486,-25.903145,-24.455555,-13.006417,-3.6200964,-11.058446,-40.765778,-82.65992,-115.65311,-120.40353,-91.839081,-42.819412,3.7604313,29.156363,29.601704,16.511782,6.3142099,7.4742064,14.175323,11.217501,-13.484983,-57.990841,-105.13457,-132.24945,-125.21883,-87.193573,-36.149822,6.6367569,28.891333,32.011173,25.677069,17.506355,6.3255301,-15.498832,-52.588131,-97.841202,-132.35091,-135.56392,-99.324745,-35.716637,27.827911,64.037964,62.134689,34.021179,5.8360186,0.19400598,20.860668,50.145935,60.859329,34.955956,-23.415434,-88.976143,-129.70657,-125.27266,-78.050995,-10.610018,47.678005,75.877548,69.599785,38.725758,-1.5460657,-39.219734,-68.470207,-87.12468,-92.865677,-82.49015,-55.030006,-15.583465,24.342226,51.447891,57.483566,43.396294,17.644493,-10.018599,-34.406303,-55.789906,-75.333183,-89.388695,-88.497162,-63.530602,-15.363534,39.611835,74.24173,64.959106,7.5250969,-76.62394,-149.29599,-175.84428,-144.85373,-74.618248,-1.750957,41.188374,44.744541,25.957861,14.099113,28.630394,64.587608,95.549713,92.286598,44.287193,-30.791718,-96.566124,-120.14758,-92.274231,-31.93544,27.237644,59.077263,60.18148,48.297379,45.873734,61.407681,82.581268,86.398453,58.881031,9.4865961,-31.261885,-30.549427,24.018524,113.80238,198.86505,242.37253,233.54022,193.53406,160.0923,161.15321,195.43526,233.34521,237.79863,190.91258,108.38474,31.531452,1.8822424,34.823586,109.34563,180.29401,204.99335,167.3532,85.042931,-3.1909337,-60.541794,-70.680527,-41.667,4.3658857,46.519798,74.772621,89.276619,92.895256,84.879021,61.267559,21.108913,-27.665611,-68.786606,-85.495918,-70.521164,-30.878096,16.259661,53.880062,74.383217,81.408241,83.516327,85.096992,81.817726,64.297348,27.229418,-23.199785,-69.74369,-92.83667,-81.964729,-41.931351,10.180971,55.066463,81.294815,88.924347,85.170174,76.454712,63.382309,42.32373,11.748814,-22.449963,-47.648243,-51.42004,-29.86117,8.9582329,49.268772,76.790497,86.373604,82.820122,74.756935,66.650871,55.364056,34.01897,0.10592274,-38.814507,-66.952682,-69.223007,-41.276367,6.6239529,55.024632,86.549881,95.317268,88.104813,76.854126,68.415161,59.420265,40.281925,5.3279943,-38.841148,-73.812721,-79.447273,-47.207153,12.556701,74.978943,114.48868,119.24158,96.715355,66.855667,47.539555,42.267673,38.385326,16.89432,-32.957691,-104.28781,-174.77283,-219.04358,-223.26862,-192.78853,-148.50766,-115.03672,-108.35606,-130.12387,-170.62218,-216.62566,-258.10233,-289.854,-308.83054,-311.22256,-293.06873,-254.53842,-204.24852,-159.07291,-137.78197,-151.47081,-196.65511,-255.82245,-305.68491,-328.45264,-319.53683,-287.52106,-247.29874,-211.47806,-185.65894,-169.83557,-163.49782,-169.43137,-192.5594,-234.38539,-287.50909,-335.3111,-358.5751,-345.77069,-300.52261,-240.88835,-189.98711,-163.14021,-159.25667,-161.88547,-149.50685,-108.91711,-43.613808,27.851677,82.452789,105.72254,99.448624,79.656586,66.439049,71.944588,93.629944,116.44408,122.23634,100.64033,55.230068,1.846278,-39.441135,-53.952717,-38.484715,-1.2230142,43.569275,82.577225,108.36045,120.16616,121.21458,114.89077,102.46378,83.59066,58.902943,32.586624,12.812469,9.1492729,27.956203,68.167793,120.00269,167.80792,196.1006,196.05663,169.25104,126.74937,84.040634,54.47966,44.584507,53.294548,74.866959,103.00014,133.33678,163.00211,188.21675,202.61926,198.5289,171.16415,123.3053,66.914581,19.69187,-2.3250217,7.7564421,44.449818,92.906921,136.463,164.27042,174.67767,172.8797,165.09116,153.58954,136.05275,109.37511,74.862488,40.663692,19.201347,20.855381,47.804066,91.917534,138.01421,170.4599,179.28702,162.80635,126.27935,78.615364,29.604074,-11.235429,-35.07946,-35.151253,-9.524087,36.12532,88.393517,130.15704,147.47646,135.76236,101.45715,58.070313,19.023687,-8.1533527,-22.817162,-27.492455,-23.033928,-7.0101204,23.006632,63.75798,103.2505,124.06547,112.26366,66.587944,1.532231,-58.69223,-92.327126,-91.077339,-63.122826,-26.441015,2.8545895,19.266653,28.162821,38.114185,51.589436,61.328335,55.374104,27.130436,-17.212013,-59.928349,-81.553459,-72.761314,-40.088257,-1.4222784,25.604597,34.153385,30.322014,25.772263,26.748768,28.090059,17.092833,-15.406876,-65.10923,-113.47415,-137.64835,-124.7443,-80.545815,-26.275356,14.629636,30.652004,27.434671,20.675394,22.170761,29.563931,27.731215,1.1932164,-51.431179,-111.95609,-151.19061,-146.6427,-97.608894,-27.103022,31.284468,53.328503,37.973141,6.1426225,-14.278353,-7.0560722,22.434988,51.951878,57.919777,31.033344,-18.123022,-66.219078,-91.377304,-84.806328,-53.120716,-11.601018,25.507141,50.798798,62.980598,62.422459,48.201717,19.627518,-19.43149,-58.157356,-81.91864,-80.000847,-52.767097,-12.666745,22.458897,39.737259,38.316948,28.228552,21.905306,24.473814,29.827814,25.343363,1.8631612,-38.221264,-80.616333,-106.87205,-105.00089,-75.977814,-32.277645,9.8075123,38.4193,49.718967,45.66433,29.242643,1.7995299,-35.401806,-77.391991,-113.78439,-131.97176,-123.94127,-91.969543,-48.591515,-10.101623,12.364587,18.086166,14.720623,10.628633,7.4443913,-1.2962376,-24.144213,-62.711933,-106.66836,-137.27975,-137.97005,-105.07528,-51.329227,0.72537863,31.405281,34.453899,18.737453,0.3576867,-9.0364923,-9.5538683,-11.115481,-24.050526,-49.314419,-75.632454,-85.911789,-68.648491,-26.426908,24.493147,63.431534,77.276505,67.277283,46.317329,28.874741,20.823282,16.220249,3.2878842,-24.690016,-61.440849,-88.866669,-87.401176,-49.3339,13.556416,73.581795,100.64561,78.168083,12.232686,-71.362892,-140.39064,-172.11394,-162.92473,-126.87483,-85.046257,-52.935406,-33.583603,-19.944757,-3.8109219,15.492693,28.906868,23.520851,-7.5375733,-58.154518,-110.35072,-143.28183,-144.64705,-117.31921,-77.013748,-42.584347,-25.229385,-23.428499,-26.468834,-23.678303,-12.813562,-1.8829217,-3.3448761,-24.861311,-63.01804,-104.22768,-132.06514,-136.06905,-116.44231,-82.290871,-45.569824,-15.426076,3.5133014,9.0361176,-1.2770935,-29.758045,-74.997856,-128.02795,-172.68477,-191.89552,-176.96098,-133.75659,-80.884209,-39.873257,-23.176483,-27.780462,-38.902916,-41.48526,-31.646059,-19.984489,-24.078758,-55.092361,-107.79034,-161.25827,-190.41893,-180.98364,-137.97015,-82.198463,-37.307602,-16.166592,-15.67438,-22.81448,-26.841318,-28.296507,-38.1353,-67.674072,-116.97719,-170.68552,-205.10132,-202.27209,-161.61597,-101.05918,-46.739532,-18.1001,-18.201529,-35.251427,-53.462952,-65.000984,-74.403961,-92.626091,-125.54036,-165.85495,-194.99809,-194.34637,-158.29745,-100.0001,-45.25153,-17.949938,-26.151508,-57.463306,-86.523331,-89.777115,-58.582706,-3.3098249,52.961006,86.437943,83.170341,43.195152,-22.033447,-95.576767,-160.41884,-202.61171,-212.91234,-188.36252,-133.88934,-62.24662,9.4928799,66.568321,103.14861,124.73315,144.16223,173.15446,214.59119,260.67703,298.33936,318.24298,321.14511,317.06189,317.80234,328.27631,343.02829,350.75989,343.70074,324.84781,307.26508,305.22617,323.1055,350.11093,365.37204,350.81396,303.55652,239.39285,184.58424,160.98248,174.00555,211.06801,250.98405,277.51974,287.77957,290.16,294.26843,300.97131,300.46252,280.11163,236.31523,181.15689,138.02258,128.18336,157.14833,210.33395,261.51169,288.72263,287.03632,269.55853,256.18069,258.13141,269.38837,271.22382,246.84064,195.72409,137.20673,100.05848,104.65959,149.7067,212.58595,263.36981,283.13824,274.39264,256.78165,251.44685,265.07666,284.85425,287.85812,258.38928,201.12482,140.75412,107.93032,120.65664,173.31013,240.35381,292.01807,311.5015,302.68396,284.09909,274.17453,278.19406,285.57181,278.48935,245.14868,188.1833,122.7374,66.254723,27.685013,3.7214804,-15.816997,-38.103195,-60.676388,-73.17218,-66.141396,-40.308979,-9.1262112,7.823596,-3.520323,-42.745625,-94.743118,-138.33788,-158.03337,-151.32538,-127.42806,-99.270416,-74.99189,-54.90377,-35.41029,-16.070971,-3.7071648,-9.7834473,-42.454514,-98.878525,-163.59949,-214.84206,-235.21494,-220.31404,-180.07124,-132.40359,-93.510315,-70.866341,-62.642193,-62.759243,-67.24704,-77.272186,-97.063278,-128.73805,-168.10382,-204.61491,-225.70143,-222.81807,-195.65613,-152.3557,-106.03023,-69.763657,-52.488003,-57.056602,-80.463623,-115.42532,-152.58606,-182.9216,-199.97034,-201.30553,-188.62781,-166.37105,-139.59825,-112.49922,-88.392235,-70.888161,-64.726135,-74.770912,-103.04448,-145.5463,-191.48848,-226.48863,-238.69417,-224.51045,-190.36119,-149.18402,-113.7481,-91.004395,-80.919525,-80.001251,-86.297234,-101.59577,-128.80186,-166.45074,-205.06398,-229.28374,-225.683,-191.62061,-138.88693,-88.717415,-60.405037,-60.406975,-79.088821,-97.591415,-100.65652,-87.093925,-70.861206,-71.782021,-101.78995,-155.65813,-212.37076,-246.44157,-242.13771,-201.87212,-143.98404,-91.951561,-62.203255,-57.880249,-71.34446,-92.295517,-115.1044,-140.38553,-170.55673,-203.6468,-230.72249,-239.42467,-221.46275,-178.90369,-124.78748,-77.401711,-51.708412,-53.074032,-76.627823,-111.73948,-148.01904,-178.92325,-201.44232,-213.46313,-211.93169,-193.86493,-159.58418,-115.39249,-72.970039,-44.995579,-39.263988,-54.835522,-82.590591,-109.80595,-125.9383,-126.33411,-112.26303,-88.179123,-58.65583,-27.056131,3.7929161,30.347713,48.239536,53.807396,46.134911,27.822609,3.668077,-21.814978,-46.021801,-67.621468,-84.224266,-90.697174,-80.467964,-50.043415,-4.1001554,42.89764,71.123901,64.65136,20.663551,-47.156731,-113.9267,-155.25757,-158.91673,-129.76398,-85.260071,-44.645309,-18.708637,-6.3663568,0.49911234,8.105176,14.527444,10.786739,-11.521635,-51.718102,-97.182709,-128.87534,-132.07019,-105.30925,-61.518436,-20.382252,3.1018834,6.4618196,-0.90425032,-5.9715376,-1.9755307,6.8598723,8.7622242,-6.667438,-40.356781,-81.949173,-115.23611,-126.94254,-113.13898,-79.756447,-38.024517,1.1777967,30.242668,44.241329,39.240738,12.657772,-33.572617,-89.622086,-138.20972,-160.76381,-146.83633,-100.96562,-41.765923,7.3509464,30.708183,28.329475,14.053662,4.8933406,8.7029648,18.572918,17.95607,-6.7822533,-54.932648,-109.15511,-144.3405,-142.15141,-101.9332,-41.088547,15.036288,46.969711,49.873806,32.42992,7.9640608,-15.068986,-36.440426,-59.696236,-84.35865,-101.79099,-98.903503,-67.739594,-14.067698,41.932255,74.727371,67.355659,21.625954,-42.026947,-95.24054,-116.57586,-101.67368,-63.107845,-20.96406,9.2173157,23.502453,27.961493,30.754082,34.207939,32.626228,17.144547,-16.087652,-60.389915,-99.815414,-116.77116,-101.47495,-57.665363,-1.4004381,46.131054,67.719925,56.63707,18.019222,-34.461025,-84.274292,-117.4642,-126.2509,-110.41521,-76.644905,-36.076752,-0.37747344,22.709997,32.67379,36.571594,45.636566,69.359154,109.9938,160.66553,208.50984,241.41295,254.64444,253.49442,250.20435,256.79163,277.82953,307.35168,331.72528,336.96323,316.49469,275.2475,227.98744,192.91139,183.78522,204.3306,247.1315,297.03214,337.10889,354.60281,344.7352,311.51108,265.77017,221.45009,191.26039,182.91127,196.847,226.13084,258.62915,280.98538,283.21259,262.37424,223.97279,180.37822,146.66595,135.23055,151.09058,189.67378,238.04474,279.28558,298.49554,288.1651,250.83281,197.98102,145.66277,108.7076,95.881775,107.8097,138.0925,176.6004,213.13641,239.92395,252.3992,248.88531,230.17693,199.64207,163.53419,130.56143,109.95034,108.25462,126.3186,158.24513,193.43053,221.05067,234.7834,235.13728,227.94693,219.84012,213.44702,205.51483,189.47968,161.24739,124.60307,92.359337,81.495895,104.09826,158.8195,228.02176,283.16754,296.66718,254.63885,164.10403,50.722507,-52.030716,-116.93127,-133.42159,-109.59731,-65.569252,-22.445515,6.9592996,21.197691,26.488251,29.545689,31.813398,28.542786,12.82865,-18.388786,-60.393299,-101.41064,-127.64732,-129.7923,-107.40453,-68.949547,-27.717609,4.0224738,19.597815,19.17835,7.5771403,-9.701478,-29.705505,-52.700794,-79.982338,-110.32272,-137.54829,-151.35745,-141.76997,-105.32149,-49.542934,7.4988728,43.550503,42.051003,0.68253136,-66.255348,-133.58957,-176.66713,-182.55449,-155.0434,-110.86984,-69.624352,-43.471012,-32.668938,-29.026997,-24.279881,-17.321711,-15.273108,-27.773981,-58.662651,-101.06196,-139.57439,-158.40807,-150.19566,-119.81904,-80.959808,-47.942669,-28.348053,-20.941858,-19.520985,-19.224833,-20.531075,-28.291832,-46.990799,-76.047798,-108.64651,-134.73895,-145.88669,-138.68362,-115.10161,-80.660042,-42.617264,-9.448287,9.2614231,4.5332961,-27.831028,-82.561836,-143.60867,-189.05057,-201.11023,-175.90761,-126.46243,-75.973915,-44.68158,-38.378677,-46.231846,-49.703674,-36.805267,-11.89172,6.1400471,-3.4161952,-47.790234,-113.43237,-172.12379,-196.92003,-177.64702,-125.95853,-67.069542,-24.218483,-6.4399495,-7.2886171,-14.026,-19.425467,-27.029551,-46.194965,-81.33622,-124.34975,-156.84471,-161.29671,-133.23518,-85.377205,-40.254948,-16.239849,-16.774405,-30.365284,-41.062649,-41.465996,-38.451614,-47.228188,-78.072327,-125.73494,-169.83493,-186.6871,-164.64021,-112.22038,-53.273621,-12.376574,-0.53380197,-10.776539,-26.089428,-33.34692,-32.926193,-37.160374,-59.135635,-100.40408,-146.90997,-176.39835,-172.26903,-134.2578,-78.669952,-28.299911,0.77203065,6.5907412,-1.3658323,-11.939811,-21.336226,-34.830181,-60.387421,-99.552048,-142.84619,-173.42067,-176.59525,-148.75235,-99.699234,-47.32436,-8.5221939,7.723773,1.5567557,-21.347872,-54.267395,-91.346237,-126.60035,-152.59555,-161.60802,-149.50288,-119.49778,-82.216103,-50.872128,-34.292213,-32.602787,-38.868446,-45.63319,-51.445309,-62.141781,-85.457069,-122.74158,-164.27283,-192.52994,-192.14703,-160.09077,-108.84967,-59.902245,-31.445646,-28.515795,-42.105766,-57.618134,-66.375015,-71.736214,-85.301353,-115.97044,-160.06688,-200.28539,-215.08281,-192.57675,-139.46141,-78.533012,-36.080585,-27.299503,-49.1647,-84.965103,-116.65594,-136.03003,-147.04721,-158.45387,-173.10309,-182.84109,-173.60678,-137.51735,-82.911522,-33.985004,-18.584108,-51.222744,-122.42793,-202.04039,-255.2058,-261.4158,-224.80771,-169.54224,-123.74516,-102.74426,-102.34969,-105.81726,-98.802887,-81.410355,-68.790169,-79.925385,-122.55517,-184.95184,-240.64876,-263.41876,-242.83858,-190.3231,-131.81796,-92.085907,-80.853516,-89.537094,-100.02382,-98.994438,-87.832748,-81.42955,-96.811378,-139.37317,-196.08885,-240.50497,-246.70384,-203.73119,-121.76334,-26.491013,54.655422,106.18898,130.48567,143.33365,162.703,197.86873,245.06004,291.34631,323.48984,335.97131,333.53638,327.34592,327.68356,337.91138,353.19379,364.38974,364.41977,353.10388,337.55011,327.88486,330.85504,345.07736,360.81137,364.62463,346.58331,306.14056,253.51286,205.70206,179.14348,182.68056,214.25233,262.56516,312.37692,350.38635,368.94656,366.57913,346.27267,313.48245,275.12494,239.37175,214.97971,209.17874,224.58084,256.99417,296.11359,329.48358,347.85535,348.79623,336.27429,316.57684,293.543,266.72662,234.05974,197.11699,164.66888,150.81473,167.55037,215.87842,281.48676,338.92499,363.10562,342.05927,283.50986,211.16138,152.66121,126.17876,133.19102,160.98827,192.32266,215.50351,228.70795,236.75342,243.85242,248.28699,243.01524,221.54048,184.41408,141.31699,106.94197,93.376472,104.06937,133.11905,169.69171,203.89526,229.95889,245.28888,247.5864,233.74231,202.3723,158.08308,113.04723,82.60009,75.990967,87.973518,97.924347,79.190285,14.587801,-91.035294,-209.68697,-302.66763,-340.21893,-317.08081,-254.64978,-188.39954,-148.19362,-143.33638,-160.96638,-177.83153,-177.17477,-159.71002,-142.04941,-144.35263,-175.81168,-227.52324,-277.05716,-301.33997,-289.46021,-247.68604,-194.49277,-149.74866,-125.23907,-121.79094,-133.21146,-152.79512,-177.23155,-205.59117,-235.25427,-259.02719,-266.62289,-250.14828,-209.93027,-156.39348,-106.19021,-74.61261,-68.777344,-85.514626,-114.76402,-145.7925,-172.05507,-191.91286,-205.59546,-211.46127,-204.94522,-181.41414,-141.06908,-92.206444,-49.899292,-30.015924,-41.600586,-81.936569,-137.23499,-188.68233,-220.55135,-226.07687,-208.36874,-176.68588,-140.97493,-108.10675,-81.552689,-63.602493,-57.48119,-67.050583,-93.890709,-133.90889,-176.46422,-207.6026,-216.21402,-199.64633,-165.21771,-126.40942,-95.871101,-79.487373,-75.129097,-76.612282,-79.847076,-86.600769,-102.92725,-133.14488,-173.69081,-211.74899,-230.60664,-219.04958,-178.89725,-125.38923,-79.450729,-56.20808,-56.905746,-69.529266,-77.925705,-73.546471,-61.933434,-59.26543,-80.790092,-128.57396,-186.9194,-229.19116,-232.48959,-191.30389,-121.52807,-52.023117,-8.6504145,-0.44039181,-16.23258,-33.552666,-33.863285,-14.487656,10.168999,18.572569,-3.3517971,-52.238621,-108.00378,-144.58626,-144.02228,-105.60877,-45.436516,12.427885,47.315186,49.643177,22.030766,-24.674059,-76.583168,-120.16436,-143.63602,-138.27951,-101.23204,-38.868458,32.347034,90.354362,116.88857,107.22929,74.032745,41.524757,32.107639,52.804127,90.065849,117.00392,109.48551,61.603508,-9.155838,-70.673729,-93.881134,-68.681992,-8.4866142,59.064198,108.89061,131.9545,137.1908,141.55531,155.73114,175.61676,185.37193,169.61481,126.00997,69.292915,23.772676,9.3046799,30.099127,73.579346,119.45605,152.27277,168.72891,175.33916,179.24454,179.94907,168.82687,137.12408,86.373856,32.700062,0.38719925,7.7275314,54.150967,117.61854,164.98825,169.6683,126.01304,51.884598,-21.747458,-67.358459,-73.524284,-46.955105,-4.4668655,38.386105,74.247208,102.97678,125.41753,138.08939,133.57869,106.43712,59.800781,7.127471,-33.070728,-46.50428,-30.430567,5.6531696,46.105606,77.740044,95.37072,101.3651,100.65144,95.576874,84.52681,64.928078,37.779976,9.7730675,-8.9819431,-10.205262,7.9454727,40.017761,76.515778,108.80209,132.32985,146.4776,151.92558,148.21384,133.66136,107.71671,73.754135,39.86692,16.600929,12.688086,31.141598,67.751053,112.5077,152.9763,178.04901,180.92192,160.83368,123.43304,79.555984,42.244217,22.486067,25.190798,47.427361,80.188583,112.99954,138.79491,156.10847,167.31186,174.40854,175.75822,166.55333,143.0835,107.7425,70.710175,46.255081,45.400951,69.55352,109.40939,150.0493,178.92043,191.44901,190.80231,182.5826,168.88338,146.4465,110.3759,60.434395,4.7414536,-42.551102,-68.538155,-68.867683,-49.881798,-24.037952,-1.9425048,13.214604,24.914452,37.219604,48.495625,50.367569,33.344955,-4.7661247,-54.14045,-96.134659,-113.04077,-98.135193,-59.260067,-13.554425,22.906866,43.381298,51.246971,53.606136,53.313438,46.009098,24.627363,-12.218513,-54.955517,-85.866051,-88.978706,-60.444031,-11.917114,35.871086,65.265656,71.34346,62.602432,52.62627,49.110584,48.398838,39.473217,14.260901,-23.637009,-58.619247,-71.876595,-53.357155,-8.5929461,44.292934,85.176727,102.74815,98.448456,81.722145,61.046017,37.821228,7.438735,-34.022064,-83.360153,-129.58615,-159.81848,-167.30606,-155.46759,-134.99567,-116.50525,-104.59307,-97.799973,-93.932701,-95.564781,-110.16819,-143.74838,-192.69034,-241.00572,-266.8959,-255.57034,-209.77866,-150.02347,-103.12675,-86.179489,-96.751999,-116.36749,-125.02034,-116.44069,-102.89368,-105.5817,-137.2339,-189.63077,-235.88274,-246.97736,-211.62027,-145.35037,-81.85556,-51.741062,-63.068134,-97.165154,-122.80571,-118.97717,-90.227516,-63.551052,-68.670677,-115.41134,-184.24158,-237.14513,-241.8743,-193.17824,-116.46309,-51.324764,-26.184879,-41.278793,-71.308121,-85.369339,-69.863869,-38.25528,-20.946772,-42.552757,-102.63832,-173.53481,-216.95094,-208.14182,-151.34383,-76.366768,-19.172081,0.098121434,-12.950449,-34.817017,-43.106613,-32.792198,-18.527546,-22.131517,-54.857555,-107.3836,-154.57492,-171.45659,-149.11409,-99.702049,-47.736038,-14.421258,-6.1315064,-14.435435,-26.298658,-35.779526,-47.940529,-72.058052,-109.70054,-147.54385,-161.66597,-131.70479,-55.655899,45.212521,135.74048,185.50887,185.34666,151.44328,114.63375,101.74549,120.58718,157.33446,186.88586,188.77855,158.56223,108.43064,58.295544,24.224482,11.689837,16.655718,31.758486,51.86945,74.937492,98.525604,116.20112,118.06226,96.181618,51.408581,-3.8015046,-49.586136,-68.16124,-52.983807,-11.868443,37.836227,78.774437,101.69699,107.37631,102.06077,90.661072,73.103409,46.500229,11.093547,-25.211105,-48.119213,-44.226223,-9.8645821,44.583893,98.394867,130.50677,129.90009,100.14713,55.784397,13.461398,-16.101475,-30.529438,-32.247826,-23.042032,-1.8437949,32.16798,73.880905,109.52464,120.90395,95.466835,36.05228,-36.908154,-93.788628,-110.88185,-83.339333,-27.676319,28.163631,61.236656,66.227913,56.33445,52.110939,65.928146,92.585434,112.45416,105.06638,63.989883,2.9249656,-51.187313,-73.615883,-55.844368,-9.3025999,42.996471,80.778534,97.136658,98.957504,98.027367,100.07491,99.987167,86.531578,52.795216,4.334033,-41.347874,-64.149338,-53.399029,-14.457523,34.47298,73.019577,89.577499,85.532471,70.791412,54.730545,39.51368,20.465515,-7.3417773,-41.813972,-71.864197,-82.761566,-65.374443,-22.93565,29.423382,72.19487,91.216324,83.573029,56.636173,21.9774,-11.003858,-37.55653,-55.59449,-62.328819,-53.452583,-26.312346,15.290809,59.063496,87.85746,87.867279,56.622505,5.5263395,-45.108654,-75.835121,-76.955215,-51.595497,-11.973371,27.882801,58.045219,74.179596,75.308807,61.197647,32.343216,-7.3805571,-48.371452,-76.671455,-79.847328,-54.306686,-8.9604435,38.149391,69.080864,75.618645,63.043789,45.372845,35.110558,34.467701,34.223064,21.255669,-10.330304,-52.374584,-85.413902,-89.911125,-58.93615,-3.9427478,50.450893,79.679985,72.299423,34.967934,-13.179709,-52.44408,-72.743835,-75.925102,-69.948204,-60.372337,-46.000591,-21.898243,12.971528,50.06707,72.933792,66.192642,26.114193,-34.752834,-92.810493,-125.78585,-124.53294,-96.75106,-60.475109,-32.039463,-16.766712,-8.4330072,2.7997992,20.29244,36.373554,36.863075,11.529673,-37.061512,-92.825012,-134.37892,-146.7863,-129.04152,-92.694847,-53.307964,-21.250648,1.753121,18.71303,30.265316,30.917089,12.351123,-28.396837,-82.478485,-130.47647,-151.91682,-137.28255,-94.279701,-43.583309,-6.4646707,7.5149717,4.4333901,-0.93646085,2.2702241,12.041665,14.866664,-3.3430426,-44.686974,-94.499191,-128.51134,-127.65096,-90.537445,-34.995197,12.705129,33.779873,27.411396,8.959775,-2.4357452,2.0129557,14.730569,17.882885,-2.903893,-46.923763,-96.984261,-129.19128,-127.29829,-92.138062,-40.302601,6.3869028,33.184532,38.547787,31.007803,20.228779,9.2987947,-6.3148961,-33.001965,-71.287514,-112.21421,-140.71161,-143.79349,-118.14256,-72.267395,-22.202522,16.167336,33.43034,28.498003,6.1932836,-26.672928,-63.842232,-99.783836,-128.72711,-144.54095,-142.39351,-121.30931,-85.721481,-44.655933,-8.7688761,13.1951,16.817295,2.5738873,-24.966475,-58.396019,-88.71167,-106.79174,-105.46522,-81.856895,-38.869415,15.394772,70.411018,116.8495,148.93214,164.23238,161.54851,139.11871,95.388596,32.56028,-39.461655,-102.36799,-134.26379,-118.85287,-54.461597,42.542538,142.90091,216.48679,245.41936,231.51184,194.14142,159.70792,148.2583,164.14716,195.19365,220.19579,220.46178,189.36259,135.39455,77.794113,37.398792,27.445112,48.582443,90.01329,135.6109,171.58336,191.77261,198.17223,196.95921,192.84711,185.48763,170.34354,143.56027,107.55589,73.15197,55.898205,67.896317,109.70108,167.51631,218.2175,240.1237,223.76721,176.58229,118.85226,73.359818,54.761429,64.495705,93.252342,128.2722,160.16643,185.14149,202.39,210.05455,203.92291,180.43675,141.72836,98.272476,66.065392,59.154549,81.951775,126.34897,175.64865,212.84306,228.0331,220.74757,196.80185,163.17265,125.2558,88.202118,59.985592,51.801781,73.229057,124.15704,189.28093,240.70436,249.42839,200.24072,101.22021,-18.522398,-122.3128,-183.04413,-194.13058,-168.5051,-127.59928,-88.357643,-56.737686,-30.753401,-8.9629641,3.4233313,-3.7095807,-36.849926,-90.386795,-145.60017,-179.29555,-177.01845,-141.91083,-92.802406,-52.463097,-33.863186,-33.771523,-37.863457,-33.334393,-19.665537,-9.5604935,-19.227715,-55.007324,-106.17986,-149.5627,-163.1772,-139.80136,-91.213585,-40.389423,-7.205862,2.5271513,-2.4055676,-8.0557289,-7.2431903,-5.1167202,-14.468705,-44.561829,-91.928848,-140.07434,-168.50322,-164.8495,-131.84589,-84.764572,-41.737309,-14.042537,-2.7658029,-2.9877942,-10.963926,-27.909023,-57.248516,-97.876007,-139.59425,-165.60736,-161.57529,-125.3527,-70.265167,-18.79397,9.883811,10.588441,-5.9442172,-21.189423,-21.618437,-7.7309451,6.4781933,3.0756037,-27.557888,-79.568756,-133.81444,-167.70604,-166.65103,-130.74861,-73.839447,-16.540152,22.381834,32.210865,12.31595,-29.345112,-79.587753,-123.9119,-150.32886,-152.58762,-131.89308,-96.116531,-56.377514,-22.407152,0.86509371,13.579271,18.148661,15.635079,4.1852598,-19.087671,-54.074772,-94.662567,-129.48044,-146.57477,-139.31557,-109.80013,-67.63353,-25.078732,8.1108828,27.030735,30.449331,18.207729,-9.8177414,-51.907845,-101.48413,-146.22479,-171.55656,-167.47949,-134.64232,-85.279816,-37.612988,-6.6801128,2.7959609,-2.9635875,-12.849816,-19.27227,-23.037954,-31.394274,-50.836197,-80.054718,-108.36354,-121.09673,-108.54745,-72.474426,-25.814852,14.186812,34.904869,33.69566,16.818102,-6.4706678,-29.990261,-52.672535,-75.738297,-97.936897,-113.13615,-112.66181,-91.107452,-51.589268,-6.5273013,27.113485,35.632374,15.06913,-27.125284,-75.789063,-114.76084,-133.04626,-127.81329,-103.68531,-69.603157,-35.158566,-7.8289404,8.3141623,12.504662,6.1863866,-8.4722242,-29.656721,-55.84137,-84.460693,-110.26116,-125.05335,-120.21976,-91.597359,-44.192715,6.7901845,40.721775,40.843918,3.4417536,-58.660324,-121.16049,-159.81874,-162.21675,-132.98589,-89.552254,-51.278721,-28.936314,-20.969444,-18.290854,-13.553352,-7.9667277,-10.729308,-31.58119,-71.992996,-121.5279,-162.26173,-178.45604,-165.04463,-129.46606,-86.160545,-48.091217,-21.293167,-5.6235323,0.13414967,-6.0304394,-28.633299,-69.179489,-120.50417,-166.44943,-188.68463,-176.93774,-135.72232,-82.477036,-37.82518,-14.281729,-10.975675,-17.701311,-24.844238,-31.414604,-44.889698,-72.893723,-113.2967,-151.07832,-165.64861,-144.41621,-93.049393,-34.339531,4.7668972,9.8007956,-12.340176,-38.8344,-47.434811,-32.711739,-10.404428,-6.2462087,-36.598438,-94.456108,-151.23521,-174.06921,-147.40475,-84.179062,-18.508362,15.735867,6.3249106,-30.3293,-61.339882,-60.443474,-26.323231,16.350029,33.926292,7.3387136,-53.701481,-115.42685,-140.45807,-110.39097,-35.879833,51.674763,120.37997,156.12056,167.20831,173.80067,190.98573,218.08844,241.33488,246.76865,232.80978,212.45895,203.26051,212.6685,230.31387,233.90453,205.4501,146.47481,80.823036,41.916027,52.220314,108.55326,183.36247,241.48933,261.42191,246.95027,221.68846,210.65567,221.94403,241.31104,243.43779,211.86983,153.44139,96.629776,74.340698,102.49094,168.93082,240.46843,283.60043,285.27045,259.90674,238.17793,245.15201,282.57373,327.11578,345.70663,317.6824,249.12207,170.09938,116.92476,111.1051,148.38599,204.08894,250.10278,271.69492,273.36111,271.07541,277.67142,292.26434,301.05545,288.39981,249.75806,197.07567,152.72462,136.24104,152.9566,191.99226,234.35396,264.94275,280.01636,285.40359,287.68115,285.5466,268.25708,222.66075,143.97008,42.561691,-58.30302,-132.80934,-164.63092,-153.4631,-112.76263,-61.196819,-13.871026,21.487879,42.525597,47.880913,35.063148,2.6285765,-45.40844,-97.317299,-136.62914,-149.48164,-131.89896,-92.146156,-46.440327,-10.736593,6.1668649,4.182106,-11.888456,-37.784729,-72.289398,-114.98194,-161.54878,-201.25398,-219.81644,-206.8237,-162.97594,-101.83973,-44.064789,-7.0246253,3.9127667,-2.8916359,-11.585917,-8.9616032,7.8507147,30.559715,45.595634,42.420269,19.040344,-17.98822,-57.89481,-90.77726,-110.3528,-113.90297,-101.29601,-75.168953,-42.38562,-14.641463,-5.7525692,-25.409031,-72.455917,-132.41283,-182.22815,-200.87273,-180.17688,-129.37943,-70.228065,-25.216619,-5.9318376,-8.5071383,-18.667963,-22.711456,-17.032673,-9.9671316,-14.961202,-39.887367,-79.828064,-118.26737,-136.04326,-122.40025,-81.284676,-29.264551,13.225666,31.754551,23.284285,-5.0848708,-41.87933,-77.128296,-104.93973,-122.4588,-127.59792,-118.33677,-94.460098,-60.092793,-24.349508,1.3201705,7.9808302,-6.6739917,-37.533825,-74.963837,-109.27908,-133.88731,-145.56607,-142.77974,-124.46934,-91.116341,-47.542797,-4.7533031,21.975721,19.204357,-17.200935,-77.860603,-142.29784,-187.54642,-198.58975,-174.8667,-129.26953,-80.526993,-43.726891,-24.497198,-19.624187,-22.565266,-29.354174,-40.695553,-59.217476,-84.529366,-110.30086,-126.00028,-122.43383,-97.384232,-57.484432,-15.057058,17.927298,34.824661,35.348637,22.819731,0.49584755,-29.809904,-65.835442,-101.74358,-127.23297,-130.94049,-106.84013,-59.54401,-4.3897862,38.742046,54.767658,40.432304,4.8140988,-36.782219,-71.381927,-93.788055,-105.8157,-110.78631,-108.18161,-93.10083,-61.344677,-16.287628,28.303701,53.004074,43.209404,-1.0218412,-62.611774,-115.09489,-136.30081,-119.92969,-77.890205,-32.053989,-0.88176501,10.396209,9.9208012,10.222513,16.922434,23.448797,15.798046,-15.840594,-66.907593,-117.46946,-142.06367,-124.59679,-68.710083,3.3809438,63.21172,91.932121,89.76696,73.32811,62.95961,68.695557,84.077148,91.65638,76.191086,36.515114,-11.901823,-45.430584,-46.269466,-12.953321,39.147911,87.28598,114.41381,117.60958,107.02147,96.846138,94.855225,97.49192,93.502922,73.302124,37.57748,-0.71151209,-22.46019,-13.058655,28.78793,89.189903,145.15504,175.1778,168.7135,129.97499,74.837517,23.168707,-9.2713175,-15.747241,1.145376,32.813416,69.281418,102.79025,129.18703,147.25351,157.01477,158.24062,149.95053,131.08189,101.89001,65.291832,27.307861,-3.9697838,-20.891661,-19.516338,-2.2687571,21.527321,38.173988,34.820427,5.5098839,-44.761024,-100.43768,-140.94341,-149.4776,-121.16229,-66.37323,-7.100945,32.377064,36.144516,3.3437366,-52.383049,-110.13869,-151.5648,-167.9126,-161.11603,-139.43661,-111.45093,-82.625725,-56.231445,-36.708569,-31.515425,-48.593201,-90.229042,-147.64125,-201.24985,-228.40707,-215.20383,-165.3607,-99.986534,-47.145866,-26.657331,-39.081703,-65.838745,-80.778015,-66.385231,-24.752247,23.448244,51.340656,41.945019,-1.7833338,-58.771221,-101.87715,-112.48001,-88.959183,-44.853554,0.86615092,34.520134,52.90683,60.88316,64.478706,65.135864,59.04636,41.424812,12.029434,-22.332165,-50.128258,-60.634434,-49.099865,-18.636431,21.639713,60.448189,87.84185,97.177315,85.901718,56.064484,14.73675,-26.564775,-54.541313,-58.769146,-36.515987,4.9766674,50.492882,82.583305,88.371109,64.229782,16.510111,-41.295197,-93.069939,-124.42801,-126.12861,-96.630981,-43.647858,16.359529,62.119194,74.987015,47.424244,-11.898458,-80.193764,-130.15033,-142.71085,-116.1085,-65.793228,-15.098501,17.797379,28.690411,26.763384,25.598484,32.309776,42.377239,43.607189,26.159611,-8.6943111,-47.478718,-72.017403,-70.391052,-43.848587,-5.1593041,29.991446,52.195873,61.727283,64.430206,64.133484,58.160816,39.905972,6.6561623,-33.713352,-63.313786,-63.138069,-25.005369,41.615791,113.20189,164.64778,182.96729,173.50798,154.77325,145.40398,151.92126,165.12997,167.22461,144.66508,98.398438,45.045464,8.5644875,7.6093593,45.825531,109.91376,175.57072,217.55234,219.06145,177.17545,103.34464,19.56414,-48.609585,-80.630692,-68.71431,-21.540663,38.758572,86.294777,103.84241,91.424393,65.603821,49.00761,55.779171,81.894302,106.91934,106.79397,69.923241,6.22611,-57.081665,-90.726646,-80.151474,-33.24572,25.622217,70.937111,90.435936,89.371132,82.74115,81.937462,85.818459,82.585548,60.72448,20.550385,-22.619511,-46.592064,-36.411942,5.3582449,59.526062,101.9352,118.0197,110.39107,94.530617,85.974213,88.230179,90.002197,73.662041,29.028814,-37.164375,-102.75948,-141.84544,-139.14011,-98.107025,-38.253498,15.880877,46.695431,49.481323,30.204319,-1.4804296,-38.149582,-75.638412,-109.83311,-133.31935,-135.87561,-109.45458,-54.394905,17.883043,88.404778,138.99841,160.80051,157.97195,144.54057,136.30504,142.39214,160.92307,180.71649,187.73984,172.86305,137.1842,92.509842,56.6567,45.321178,63.804462,102.4283,138.54926,145.5161,105.39546,19.50737,-89.29493,-185.20569,-235.75223,-227.69774,-173.69135,-105.32803,-55.991749,-43.171406,-60.681377,-85.428894,-94.35556,-80.619385,-58.408321,-53.074627,-82.98127,-145.16475,-214.68983,-258.65613,-256.04428,-210.52045,-147.82164,-99.512451,-83.932411,-96.900627,-117.96577,-127.28272,-120.90769,-113.51221,-126.46074,-169.72168,-230.82582,-279.56973,-286.31677,-241.97754,-165.91866,-95.672127,-64.430893,-80.749886,-123.78978,-157.39418,-153.90453,-112.17554,-58.085712,-27.38965,-42.317146,-97.212921,-162.2695,-202.36697,-198.3186,-156.81976,-103.481,-64.774963,-51.706306,-56.000172,-60.318977,-54.124847,-43.164028,-45.514889,-77.025551,-136.73776,-203.12236,-244.53401,-237.4547,-180.65323,-96.045464,-15.864134,35.359367,52.528122,48.699867,43.004009,46.872406,57.99567,65.270477,60.007656,44.496258,31.416172,34.585564,57.977566,91.25222,115.40328,114.92271,88.260193,49.494778,20.122452,16.450127,40.743084,81.376137,121.02295,146.81548,155.78871,152.90062,144.35286,131.92474,112.62453,83.491943,47.302654,14.223619,-2.4570596,6.061707,38.29295,82.4366,122.15787,144.37416,144.26047,125.02459,93.790932,57.313206,20.589436,-11.501502,-32.210449,-33.610092,-10.619998,34.228989,89.337288,138.2014,167.6089,174.97441,169.78427,167.56517,179.68469,205.33214,231.01111,238.28146,215.22885,164.64247,103.8131,55.995415,38.63203,55.21286,95.133057,140.86012,177.43443,198.46512,205.66693,203.5097,193.64171,173.44255,139.71661,94.562492,48.591152,18.241022,17.924801,51.5173,108.68264,168.95753,211.84196,227.29016,220.42706,207.54012,205.57564,221.379,247.24576,265.65308,260.44223,227.60411,178.78998,134.93481,113.47967,116.91492,129.98792,127.94223,91.426559,19.350681,-68.237022,-139.47774,-167.23451,-143.45335,-83.2136,-16.444624,27.488478,33.270119,3.9537723,-44.981392,-96.585022,-140.73338,-175.0034,-199.29936,-210.0594,-199.86409,-163.64066,-106.83662,-48.370239,-14.085357,-23.104221,-75.251938,-148.26257,-207.8938,-225.79572,-194.55786,-130.68465,-63.721001,-18.559473,-2.2090089,-3.120945,-2.6565347,9.7767487,28.556698,36.147697,16.572773,-31.5968,-91.94194,-138.97771,-153.06059,-131.41277,-88.19632,-44.270489,-14.19959,0.56467867,8.3532906,17.323673,26.971748,27.68362,8.5869226,-32.37505,-83.939171,-126.31102,-142.19629,-126.55478,-88.57962,-45.040443,-10.133992,11.008204,21.284676,25.092686,22.320034,8.0136013,-22.028755,-64.539093,-106.94673,-132.84795,-131.50706,-104.72913,-66.007759,-32.31279,-14.17189,-10.88214,-13.845598,-15.044591,-14.001554,-17.929728,-35.090347,-66.606506,-103.19619,-129.60373,-133.73732,-114.02858,-79.895859,-45.324932,-20.53179,-7.7335491,-3.5180895,-5.0269423,-14.276144,-36.680092,-74.798111,-122.54766,-165.20905,-186.28961,-176.95456,-141.4398,-94.529327,-52.868343,-26.288271,-15.055709,-14.214719,-20.654734,-36.553905,-66.048492,-107.89013,-150.75594,-176.43611,-170.13023,-131.02141,-75.030548,-26.614292,-4.3382392,-9.9366951,-28.673008,-41.033939,-37.576424,-26.166054,-26.0509,-52.69524,-104.25008,-159.79005,-191.29518,-181.5208,-135.45099,-77.29023,-34.986168,-22.962051,-34.865685,-50.902683,-53.940464,-42.491234,-31.232414,-38.955318,-73.0112,-121.8104,-161.01338,-169.11638,-141.42439,-92.700974,-47.013813,-22.351196,-20.928284,-31.46207,-40.70813,-44.910046,-52.337032,-75.18367,-117.34234,-167.76239,-204.95219,-209.85872,-178.1089,-123.02847,-67.537964,-30.909218,-19.62023,-27.922565,-46.19809,-69.550911,-99.5979,-138.50116,-181.04262,-212.53548,-215.88179,-183.48993,-125.0474,-64.273643,-25.566008,-19.232075,-35.777184,-53.75436,-55.997765,-42.684334,-31.487949,-44.151489,-88.757088,-150.58679,-198.8519,-205.4726,-163.31821,-91.238884,-22.102108,18.22447,26.674213,22.897129,33.674423,72.983116,131.76144,184.44664,207.44615,196.28531,169.16617,154.32388,170.02859,211.28049,252.57631,264.94327,235.60228,176.94653,119.00518,90.827896,103.42567,145.23174,192.03148,223.47591,234.49045,234.40892,235.8934,242.85115,246.66309,233.35716,196.02158,142.87321,94.65123,72.83651,86.80542,128.68359,179.06598,219.13496,240.57886,246.9066,246.41827,243.17488,233.366,209.87544,171.18658,127.11241,95.974724,94.24408,125.56374,177.0858,226.25461,253.92259,255.1346,240.38196,226.64932,224.62976,231.12387,232.00104,213.68109,175.02319,130.98172,104.8216,113.42661,155.11319,208.10991,241.30423,231.21933,175.32585,94.017075,20.33017,-16.509384,-4.5805311,46.942104,114.45002,172.02756,201.8911,198.22546,164.25623,106.44497,30.628378,-57.496593,-148.96826,-229.20453,-280.16974,-287.33701,-247.92534,-175.1068,-94.496788,-33.549049,-8.9494276,-18.921358,-45.110504,-63.44997,-58.109104,-30.555107,1.626358,15.543539,-2.9480705,-50.366314,-107.1991,-148.86583,-159.20915,-138.29611,-100.15405,-62.626064,-36.479633,-20.96064,-8.1875877,7.5387387,22.85689,26.367214,7.1480336,-35.342861,-87.492821,-127.36845,-136.912,-112.57406,-67.219482,-21.957602,6.6106467,15.165381,12.805379,11.741731,16.673035,20.756208,11.166799,-19.849897,-66.680672,-111.2251,-132.86595,-120.90249,-80.960777,-31.071089,9.6899948,32.0257,39.425175,41.927971,45.960453,48.253155,38.569065,9.1814222,-36.229683,-81.422546,-105.79861,-96.705887,-57.397446,-5.0930738,39.504211,63.948875,69.083717,64.441216,58.157749,49.455547,29.634453,-9.0650177,-63.580112,-117.18817,-146.95865,-137.25758,-90.302605,-26.245518,27.875475,53.432365,49.89093,32.721786,21.24753,24.807787,36.583633,39.097408,17.477654,-28.581289,-82.262733,-118.27728,-117.22813,-76.699463,-12.462145,50.392307,90.480492,99.46817,82.970627,53.953461,23.992001,-1.8046168,-23.754854,-42.552006,-54.885494,-53.508518,-31.993999,9.1368675,59.430706,101.29353,117.55836,99.79303,52.746605,-7.5186362,-60.764278,-91.173111,-93.072861,-71.315819,-36.882069,-0.7246691,30.586597,55.394104,74.190056,86.128067,87.646629,74.436028,45.517548,6.4892054,-30.797873,-52.743679,-50.522465,-24.85165,14.057462,51.656269,76.456421,85.290779,83.304161,78.84919,76.765396,74.617668,64.554375,39.683376,0.71821737,-41.759823,-71.384911,-74.322075,-46.904709,1.9832528,55.127121,95.153931,111.84718,104.77542,80.691658,48.418602,14.981621,-14.920715,-36.983181,-45.732365,-35.69215,-5.1211133,40.379173,87.660538,120.50133,126.8108,104.47158,62.278606,15.395535,-21.861643,-41.614922,-43.477787,-31.401369,-9.4062881,20.345486,55.916351,92.28479,119.89059,127.42397,108.04551,65.217842,13.754861,-25.801275,-37.249466,-17.89986,18.54043,47.559937,45.485275,1.3842607,-76.803818,-165.01144,-233.3526,-259.12509,-236.57722,-179.22842,-113.97337,-69.721825,-65.494034,-102.96124,-166.47632,-230.44614,-270.70987,-274.74799,-246.02789,-200.58568,-157.86588,-130.87247,-121.03612,-120.43694,-119.57696,-115.42165,-114.20685,-126.89312,-160.12642,-208.8868,-256.31165,-281.66324,-271.91934,-229.68575,-172.13124,-121.30966,-91.887589,-84.09005,-86.263512,-85.019142,-75.791328,-66.378059,-70.894257,-98.293434,-143.56171,-188.07379,-209.44426,-194.71141,-148.31213,-89.71209,-42.37743,-21.335741,-27.080311,-48.845314,-73.769012,-94.819191,-112.04903,-127.35335,-138.11226,-135.97546,-112.82642,-69.818176,-22.007624,6.6049657,-3.825511,-55.6134,-129.12248,-191.44879,-213.91307,-187.94313,-129.44086,-68.80529,-32.872013,-30.108891,-48.11388,-64.32695,-62.349358,-42.96011,-22.869194,-22.58777,-51.858109,-102.26688,-151.49028,-175.86879,-162.95831,-116.48815,-51.7659,14.158733,70.6064,115.05025,149.14265,173.56219,186.30827,185.51318,173.70753,159.06024,151.50581,155.9707,167.7339,174.00075,161.563,125.94189,75.940765,30.233036,7.7182264,17.420815,53.978104,101.14753,140.76593,161.51657,162.5502,150.72139,134.2634,117.49798,99.775604,78.571838,53.891705,30.594078,16.991783,20.655121,44.01165,82.211372,124.25186,156.65761,168.05968,153.01363,113.93348,60.624054,7.447525,-31.203156,-45.707359,-34.413582,-3.6997249,35.277256,71.55217,98.392578,114.27518,120.62729,118.34184,105.92554,80.922539,43.710724,0.69302905,-36.091831,-53.63176,-44.497444,-11.232688,34.428555,77.307091,106.03723,117.40304,115.34063,105.86502,91.935966,72.136971,44.070583,9.6724348,-22.08643,-38.028835,-28.100998,7.4035435,55.902466,97.998573,117.68629,111.22255,88.997444,68.884468,64.893532,78.086327,95.556076,98.426964,74.240234,26.219727,-26.444687,-57.931217,-49.693916,-1.129588,69.038994,131.49397,160.39644,145.27095,94.694016,30.54323,-23.315872,-51.472782,-51.379414,-30.59527,0.071941562,32.643002,63.785698,92.336731,115.52782,127.55389,122.05571,96.89917,57.627831,16.613863,-12.190118,-19.90011,-6.6406145,19.620649,48.365349,72.274956,89.673828,102.44585,111.56845,114.11858,104.40594,78.630791,39.565987,-2.5678241,-34.283859,-45.646179,-35.260719,-10.14277,19.232327,44.987827,64.663452,79.105148,87.732323,85.725266,66.288498,26.996275,-24.577038,-71.116348,-93.147949,-79.967552,-36.806507,17.114822,59.183594,76.18586,70.969467,58.512276,54.076534,61.663933,70.925072,64.881645,33.209476,-18.259945,-68.770599,-94.23497,-81.644073,-36.746964,19.944897,65.807037,88.657082,90.974846,83.81794,75.897713,66.49408,47.592518,13.324337,-31.063818,-68.464111,-79.11837,-53.863548,-1.8831069,53.235516,87.24823,89.783531,69.70517,47.515896,40.061001,48.318249,57.031025,46.622253,9.0212498,-43.9995,-86.362541,-93.826538,-59.898846,-0.60331237,55.280556,83.938492,80.220596,58.261383,39.179081,35.039398,40.733601,39.573772,18.373295,-19.314278,-52.152172,-54.028095,-12.794149,58.24947,124.86255,150.61034,118.4418,41.436096,-44.201164,-99.540031,-104.02811,-64.591354,-8.1239071,36.618454,55.579239,54.36232,49.938511,56.18639,73.63588,89.876144,89.233841,64.195778,20.654766,-25.879145,-59.501987,-71.788818,-63.536121,-40.753151,-9.4246111,26.381559,62.212742,90.095184,99.026627,80.533905,35.963791,-20.384819,-66.11953,-81.910355,-62.256493,-18.632101,27.523798,57.657108,66.350166,62.231377,59.295986,65.125114,74.638031,73.958992,51.592999,8.6981239,-39.243259,-70.941811,-72.276306,-44.76807,-3.7899375,31.945818,51.97369,58.589375,61.569061,67.668022,73.270889,66.072495,34.765709,-20.462067,-84.672073,-135.07281,-153.66162,-137.06287,-97.108116,-52.395782,-17.365129,3.3436203,12.08049,10.58545,-5.0492158,-41.833191,-101.31859,-172.25316,-231.73492,-256.16479,-235.52924,-180.9913,-119.53894,-78.27636,-68.567497,-80.908142,-94.191986,-92.834869,-79.343468,-72.855988,-94.166191,-147.78262,-214.35957,-260.03278,-257.33017,-203.73546,-124.92899,-59.856655,-37.185558,-58.731899,-100.76324,-131.84792,-134.63104,-116.44896,-101.75655,-112.24641,-149.19037,-190.8521,-207.02438,-180.49336,-120.18287,-56.468102,-21.615232,-28.748442,-63.828781,-96.130379,-99.916077,-72.353714,-35.419506,-20.617378,-47.057381,-107.75481,-173.17377,-209.29729,-198.01851,-146.7168,-81.731926,-31.304676,-9.9049463,-13.728143,-28.584282,-42.821716,-55.282951,-73.00132,-101.51369,-136.17322,-161.81401,-161.60902,-128.93208,-73.657204,-18.175781,14.440094,12.463007,-19.69183,-66.047997,-108.92704,-137.17836,-148.17142,-144.15648,-127.58766,-99.841705,-63.953682,-27.852211,-3.6419878,-1.621735,-22.514023,-53.898472,-74.777588,-66.72023,-25.025526,37.387058,96.309914,129.17497,126.68653,96.276115,56.020416,23.791672,8.9090147,10.92221,24.592066,45.866985,73.73053,106.89742,139.05818,157.93599,150.50739,111.58368,49.595032,-15.342869,-60.843971,-73.53846,-55.048996,-18.993132,18.498726,47.936287,69.133705,86.33963,100.52974,105.60395,92.029419,55.423576,3.2994144,-45.948044,-72.211472,-65.233017,-30.637568,13.874655,49.611824,67.556694,71.33683,70.953766,72.559448,72.434738,60.024929,27.836414,-19.532963,-64.723618,-86.79216,-74.304451,-33.108429,17.001053,54.671925,69.830673,67.972015,63.117115,64.992775,70.311058,65.037697,36.289585,-14.980345,-70.45282,-103.67898,-96.385017,-50.623768,11.973706,63.686646,87.735909,87.055382,78.864861,79.338394,89.907188,95.638016,77.308975,28.521555,-35.06739,-82.21312,-84.994591,-37.645004,37.944477,104.64559,132.81699,118.38857,84.16407,63.375336,76.506943,116.99767,155.45786,159.56798,116.31788,41.780346,-27.951136,-58.516228,-37.451801,19.985638,82.232292,121.64732,129.9565,119.38982,110.15167,113.95901,125.37247,126.56841,101.60748,49.827179,-11.081674,-54.454277,-60.197964,-26.361231,30.379559,84.925354,117.54735,122.58634,107.5603,84.858917,62.722057,41.734406,18.406443,-7.8926892,-30.604509,-38.016174,-20.603136,21.336847,75.182198,120.73829,139.69644,124.33863,80.642632,24.480583,-26.355368,-59.559761,-71.445908,-65.183708,-46.491982,-20.155447,10.577903,42.150089,68.695396,82.233383,75.69812,47.246357,3.0659816,-43.513691,-76.77652,-85.136986,-66.165993,-27.504145,16.868034,53.13958,73.67231,79.517006,78.314857,78.882828,85.512711,95.147751,99.061699,88.236008,59.568356,19.439413,-17.624559,-34.986908,-21.936892,20.211365,77.184235,126.83792,148.21611,130.51738,77.828217,7.4174566,-57.582031,-97.642616,-104.0802,-80.934784,-41.13802,0.54906994,33.937016,56.000237,68.938004,75.67572,76.154884,67.018501,44.89381,10.919325,-26.895548,-55.693516,-63.596024,-46.117214,-9.2066813,33.243217,66.277267,81.20668,79.04702,68.077011,57.249531,49.882755,41.916679,26.004148,-1.2923968,-34.274765,-58.949417,-60.203007,-31.286531,20.333612,74.867012,109.35263,109.11526,75.031715,22.553596,-26.685085,-55.587166,-58.549915,-41.315708,-14.940964,11.507625,34.792164,56.098408,76.421242,92.814987,98.56868,87.240021,57.576218,15.727998,-26.863317,-58.510284,-72.012146,-66.39637,-45.358246,-14.372273,21.071999,55.202911,80.940895,90.322388,77.412819,42.361469,-6.390594,-54.117916,-85.733353,-92.47068,-75.32135,-43.174088,-7.1036978,25.217127,51.333454,71.392761,83.895996,83.894089,65.757088,28.829466,-18.489885,-60.184181,-79.818588,-69.436325,-34.351768,9.641304,45.173027,62.68211,64.261917,59.725655,57.983887,59.995117,58.294495,43.33255,11.954972,-28.187849,-61.640778,-73.687889,-58.763142,-23.26796,18.681715,53.272552,73.272446,78.876732,73.679726,59.786263,36.235462,1.8463155,-40.194126,-80.246254,-105.05276,-104.14923,-75.713249,-28.003555,24.388664,66.787758,89.234818,87.63327,62.161839,15.765867,-45.349712,-110.0974,-162.76067,-187.43582,-175.60301,-132.28879,-75.775757,-29.359087,-9.1566076,-15.484605,-33.823582,-45.380836,-40.592525,-26.375803,-21.711056,-44.00008,-95.283646,-158.03999,-204.14116,-211.6129,-178.25917,-122.99477,-73.86499,-50.722454,-54.16288,-67.982796,-73.047516,-62.52383,-47.503292,-48.821331,-80.692177,-137.76938,-195.16891,-222.19989,-201.08572,-138.35695,-61.373405,-2.3031511,19.901445,8.0120344,-19.222286,-42.073154,-53.128117,-59.760975,-74.788116,-102.9185,-133.59085,-146.12634,-124.13171,-69.146126,-3.5226302,40.430687,38.767578,-9.7947111,-82.666885,-146.01875,-173.3121,-158.43463,-116.08276,-70.392197,-39.953037,-28.748743,-27.777704,-24.761002,-14.436396,-2.4490259,-0.8916961,-19.311712,-57.584908,-105.11395,-146.19902,-167.58894,-163.61526,-136.80931,-95.211128,-49.166889,-9.4475231,13.69237,12.171869,-16.754475,-67.260826,-124.54049,-169.18846,-185.28334,-168.03751,-126.31245,-77.998146,-40.637794,-22.755852,-20.916954,-23.797323,-20.068193,-4.7548356,19.645866,46.959438,72.27739,93.981743,111.69123,122.70218,121.01064,100.95661,63.412655,19.511799,-12.243343,-15.211681,15.083908,