Bandpass,0,0.21086,505.92529,-4808.1323,-7041.979,-5812.9458,-2351.1445,1007.0646,2279.4827,1102.897,-1152.6342,-2486.0916,-1750.7321,562.43726,2774.3159,3313.1902,1871.4727,-414.62927,-1850.1808,-1437.9661,427.43619,2310.0759,2826.2217,1650.8436,-293.03806,-1563.7197,-1275.7683,279.15848,1898.3674,2387.333,1431.9988,-210.589,-1312.3837,-1092.1605,233.06493,1649.5692,2121.3164,1346.8649,-52.891739,-1028.2091,-885.18604,223.70796,1448.2318,1891.4921,1266.3154,77.71003,-780.78131,-696.37506,228.20511,1281.4967,1689.8159,1185.2708,179.67613,-565.39063,-509.64938,280.89801,1207.8029,1598.9425,1200.871,344.40009,-322.73819,-321.97928,315.30994,1094.2061,1438.4352,1114.5295,386.69272,-198.42609,-223.32358,301.57962,964.93628,1272.8911,1013.4023,398.4361,-109.85131,-147.91437,287.90228,854.51697,1127.9019,916.21094,389.52109,-60.323067,-115.27152,240.88477,725.61743,979.22736,832.8324,424.1413,82.315178,75.780876,413.65131,844.80939,1048.6252,871.4798,435.2486,43.468861,-39.665482,226.36099,640.90668,915.71893,880.81433,593.00562,275.96738,146.26917,258.75986,482.22806,614.26245,541.47125,323.01169,138.65225,146.27904,359.47781,636.69073,787.15515,711.82214,474.01315,249.62543,196.84082,342.99265,570.34967,707.47314,655.65918,457.23874,258.60626,199.3885,311.54446,501.32065,623.46429,589.47412,429.4288,264.34744,213.24313,305.7019,463.7558,563.46216,527.86566,382.02811,231.31956,181.77014,262.82623,408.69925,509.56277,492.58069,372.73795,237.93546,182.07503,236.99243,352.62558,437.51016,427.30527,330.1803,217.12918,166.89043,207.8163,299.33774,364.83105,349.58603,260.33777,158.14696,111.71745,146.90025,229.49164,292.61899,286.97055,216.26659,132.56952,96.288513,131.29932,208.0602,266.08066,258.16739,183.79152,88.035553,28.277206,33.796806,87.37751,140.79811,151.25761,111.48216,52.300327,17.44507,30.374636,77.604004,119.82027,121.39311,76.086548,10.646122,-35.211025,-36.893612,-0.7384851,42.825333,62.265198,46.53714,10.056911,-21.012249,-29.492308,-19.05057,-9.0563593,-17.593613,-46.428638,-79.537125,-95.938438,-86.595192,-62.265434,-46.312454,-57.927059,-98.315941,-149.99303,-189.44241,-203.61517,-198.20546,-192.04793,-202.30109,-231.6293,-266.70224,-288.68359,-287.55298,-269.57132,-252.58897,-252.98204,-274.00525,-303.98907,-325.34296,-327.43182,-313.8447,-299.03796,-297.2847,-312.35962,-335.5032,-352.82364,-356.28015,-349.91608,-346.74841,-358.7442,-387.38834,-421.81497,-445.86856,-448.98605,-433.15097,-411.14914,-397.63834,-399.52069,-412.28738,-424.46927,-426.5173,-417.54858,-405.32883,-399.97766,-406.34784,-420.6777,-433.69699,-437.56815,-431.41339,-421.49689,-416.23459,-419.96127,-430.07715,-439.47241,-442.1517,-437.72037,-431.43661,-429.96024,-436.12357,-446.66763,-454.5712,-454.16528,-445.23111,-433.13846,-425.05344,-425.08173,-431.84732,-440.07016,-444.72971,-444.61163,-442.69138,-443.31479,-448.54565,-456.56696,-463.32306,-466.02982,-465.72394,-466.76596,-473.56821,-486.98929,-503.16861,-515.80579,-520.3291,-516.95532,-510.40009,-506.41144,-507.61148,-511.64755,-512.99835,-507.15503,-494.19287,-479.18985,-469.1911,-468.84396,-477.70493,-490.96341,-502.88837,-510.45032,-514.60663,-518.5647,-524.57251,-531.78687,-536.84235,-536.62054,-531.00525,-523.38605,-518.36951,-518.31238,-521.30585,-522.31592,-516.93958,-505.25684,-492.98209,-488.80289,-499.33307,-524.77985,-558.09497,-588.24969,-605.74194,-607.13684,-596.1413,-580.88483,-569.28406,-565.2597,-567.73462,-572.47998,-575.24078,-574.125,-570.05939,-565.49182,-562.51147,-561.64093,-561.86127,-561.56458,-559.65527,-556.13104,-551.93719,-548.33203,-546.17834,-545.49866,-545.45245,-544.7301,-542.22021,-537.67267,-531.99237,-526.87799,-523.84839,-523.13965,-523.21442,-521.40472,-515.52942,-505.56793,-494.20694,-485.6163,-482.93256,-485.91873,-490.3913,-490.04779,-479.82092,-458.81711,-431.03207,-403.36227,-382.10422,-370.0416,-365.74973,-365.23468,-364.53412,-361.47183,-355.62808,-347.06232,-335.25409,-319.40173,-299.90408,-279.61621,-263.37173,-255.50287,-256.79526,-263.14191,-267.31519,-263.18246,-249.78702,-232.46022,-219.90225,-218.88751,-230.04697,-247.68741,-263.98706,-274.84534,-283.27747,-297.629,-325.28467,-365.7829,-408.11237,-434.7265,-430.72,-393.18802,-335.19086,-281.46637,-257.51984,-277.42984,-336.54263,-412.80417,-476.17648,-501.70453,-480.22784,-422.04062,-352.14868,-299.47415,-284.81174,-312.63467,-370.01672,-432.82468,-476.23633,-484.84598,-457.94489,-407.9353,-353.19489,-309.38226,-283.70673,-274.72055,-276.80307,-285.73544,-301.36212,-325.61365,-357.64392,-390.13663,-410.25061,-405.44824,-370.73627,-312.3334,-244.76094,-182.70085,-132.74706,-90.610222,-45.865795,8.8543386,70.639526,126.41827,160.85645,166.93822,151.89331,133.96872,131.70689,152.69008,189.35985,224.86787,245.03119,248.12431,245.59326,253.05176,277.84454,312.15347,337.03113,335.18188,303.9516,259.32318,227.41115,228.28033,262.29526,307.94952,333.00879,312.47299,242.73543,143.88298,49.441708,-9.8930626,-19.326298,16.328329,78.323647,144.08084,195.79916,224.41345,229.45226,217.17928,198.55573,186.64803,192.45033,219.61163,260.87729,299.68076,317.86969,306.23233,271.48477,234.44763,219.29057,239.76546,290.99878,352.3793,400.01114,420.78864,418.91327,410.7085,411.57169,424.32388,437.21576,433.03806,402.89548,354.80124,310.76544,294.043,315.04132,365.27896,423.15613,467.20215,487.63486,488.80667,481.97931,474.7709,465.57666,446.99826,415.14392,376.9873,349.30133,349.04428,381.73212,436.30023,490.65527,524.59137,531.41827,520.43988,508.80658,508.71188,519.07831,527.52869,520.99005,497.07135,467.82474,452.9686,467.17914,510.26013,566.94202,616.27649,643.9751,649.26251,642.04541,633.27411,626.16199,614.99579,592.3324,558.79321,527.27228,517.07831,540.85815,592.99524,648.25397,673.36237,645.76605,568.50781,471.68094,398.50571,383.18246,432.7301,522.92767,610.53583,654.92346,637.32678,567.86609,477.69571,401.84845,362.75449,362.88617,388.88104,422.76273,452.47842,475.60471,495.27838,512.66138,522.21857,513.67596,479.51166,422.62863,358.34293,308.40033,290.09793,307.13867,348.10397,393.70691,428.30844,448.33966,462.27917,482.48932,514.75159,552.95715,582.84894,592.30676,580.81812,561.00531,550.45715,559.07495,580.79242,596.07568,584.42816,539.01434,473.4845,415.80334,392.4151,412.6763,463.57889,518.12872,551.77173,556.05341,540.8205,524.25714,518.34521,520.21765,515.37628,490.11765,443.88147,392.29456,358.36328,357.77875,388.56604,432.28842,465.88721,475.82556,464.78912,446.75009,434.65222,430.19562,423.40823,402.22284,364.61511,323.66901,300.94135,312.14621,355.20746,409.60397,448.26556,454.38226,431.73486,401.32828,386.45245,396.32355,419.54468,431.95084,413.54996,363.04346,300.06921,253.65196,244.59399,273.37463,321.10513,362.16016,379.53049,372.77698,354.21265,337.28445,326.18219,314.11346,290.90961,253.69913,212.25151,184.62074,185.84439,217.52405,265.5513,307.5975,325.33725,313.42273,279.86786,238.65709,200.56056,168.72363,141.40807,118.57476,106.07173,113.17665,144.6411,193.15425,238.66299,256.65009,231.20993,164.94514,79.135742,3.5125675,-38.540665,-40.715965,-14.489005,19.787582,45.174416,56.036167,57.268364,56.622005,56.3316,50.249249,28.469435,-13.985711,-70.757301,-124.87574,-156.71373,-154.44678,-120.60276,-70.717857,-24.997919,1.9632384,7.4803367,-0.084816441,-8.0710363,-7.5756516,2.0075581,14.147014,20.543768,16.886133,5.4083939,-6.944067,-13.123311,-10.251392,-1.0185653,8.3061218,11.69453,6.5781317,-5.2887225,-19.46995,-31.68475,-40.049519,-45.553951,-50.795811,-57.997162,-67.591682,-78.169197,-87.67836,-95.059319,-101.27879,-109.12465,-121.83261,-141.27303,-166.68095,-194.64674,-220.43155,-239.97464,-251.58322,-256.45688,-257.8197,-259.17953,-262.68155,-268.41522,-274.93753,-280.55646,-284.5163,-287.37656,-290.45462,-294.8139,-300.52377,-306.65717,-311.94138,-315.53864,-317.40891,-318.07901,-318.11276,-317.7742,-317.16678,-316.68765,-317.32492,-320.40814,-326.85037,-336.37112,-347.29791,-357.19949,-364.03262,-367.10492,-367.25476,-366.17099,-365.35037,-365.40479,-366.13336,-367.19232,-368.76016,-371.63095,-376.63718,-383.84683,-392.18661,-399.84833,-405.2648,-408.01306,-409.03705,-410.05078,-412.53979,-417.02466,-423.02725,-429.67191,-436.4386,-443.539,-451.69659,-461.51791,-472.85587,-484.50439,-494.35626,-500.00119,-499.68936,-493.517,-484.4624,-478.59894,-483.75131,-506.39099,-547.64972,-600.41785,-649.72119,-677.3996,-669.83417,-625.2998,-556.8985,-488.72543,-446.30237,-445.57465,-485.91687,-550.73383,-615.29443,-657.62988,-666.91827,-645.55774,-604.95294,-558.47479,-516.03516,-482.82196,-461.47113,-454.6398,-465.14365,-493.23932,-533.37384,-573.65582,-599.64105,-600.88544,-576.40057,-535.41669,-492.71774,-461.33194,-447.09818,-448.2739,-459.80496,-478.60184,-505.54257,-542.48138,-586.54462,-626.54993,-645.47821,-628.91174,-574.84418,-498.41486,-427.48343,-390.30795,-401.62451,-454.86984,-525.07397,-580.95416,-599.61127,-576.0636,-523.21027,-463.45972,-417.62427,-397.25812,-403.45206,-430.6348,-471.22879,-517.65375,-561.31232,-591.2337,-595.61371,-567.08899,-509.01025,-437.99445,-379.40906,-356.60504,-379.05844,-436.1344,-500.66647,-541.23218,-537.04663,-487.78326,-413.34286,-344.00708,-306.34534,-311.97647,-354.12466,-412.47415,-462.82254,-486.54083,-476.14127,-435.96356,-379.22281,-323.36145,-285.07208,-275.62439,-297.09531,-340.68594,-388.56488,-419.7496,-418.48532,-381.61429,-321.05695,-259.47018,-220.58165,-218.68265,-252.41449,-305.8064,-355.74316,-381.89206,-374.34283,-336.02753,-279.97467,-223.71396,-183.53505,-170.17813,-186.19806,-224.87086,-271.08899,-305.16788,-309.70596,-277.58163,-217.19911,-151.11696,-107.03359,-104.58305,-144.70432,-207.94664,-263.53799,-284.79367,-262.36496,-207.78888,-145.51212,-98.569061,-76.857544,-74.94883,-79.839256,-82.385017,-83.906448,-93.213943,-116.50082,-148.10419,-169.97119,-161.65799,-114.86812,-42.466125,25.281311,56.312466,35.184204,-27.233015,-99.194405,-145.57747,-146.71478,-107.15701,-49.66708,0.6725499,31.333275,46.735344,60.39576,81.545036,106.35404,120.10394,108.49323,69.674507,18.166,-22.357418,-32.530083,-7.9239254,39.980053,92.345139,134.43379,161.93736,178.6219,188.53432,189.96706,176.55945,144.7951,101.52792,64.485886,53.724327,79.088379,132.53056,191.47395,231.9062,242.80768,232.09839,219.83223,223.18271,243.64894,265.58398,267.35858,237.58572,185.0919,135.42401,115.85739,138.75673,194.2823,257.06223,302.0347,318.71844,314.69693,306.85684,307.35907,314.58881,315.33057,296.19046,255.72565,208.37885,177.2151,180.29404,219.78426,280.81491,340.31113,379.5434,392.28015,384.21179,365.66312,343.89441,320.63565,295.77191,273.05057,262.11285,274.12201,313.46228,371.4819,427.45554,457.34531,445.75739,394.2424,321.20795,253.6445,215.35268,217.71942,256.93723,317.72055,380.58749,429.06683,454.41983,457.16309,445.68896,432.51749,428.95471,439.70648,459.87759,476.61362,475.68472,450.24167,406.7883,364.06097,344.27066,361.02655,411.01758,474.93884,527.76636,552.5354,549.22552,533.14093,523.75867,531.20715,549.21021,559.25183,543.43237,497.73834,437.00589,388.04953,374.8855,404.92511,464.35724,525.26758,560.07166,554.90448,514.8772,459.35303,411.07959,385.72784,386.98141,408.29141,438.6315,468.19843,491.27533,505.93616,512.11365,509.85059,498.69595,478.19827,448.99127,413.99127,379.22958,353.62289,346.90909,365.64963,408.64124,464.41232,513.38928,535.19464,518.27228,466.73285,399.9227,343.95285,319.26334,331.09906,368.39716,411.58145,444.21341,461.08176,467.83731,473.13428,479.43661,479.55057,461.78964,420.29034,362.88083,310.11563,285.00439,299.57172,347.04684,405.15369,448.75854,463.89749,454.23853,436.07516,425.59552,427.2421,431.03387,420.47278,385.41251,330.96692,276.33102,244.24733,248.01814,284.32736,335.97678,382.03992,408.46277,412.65726,400.40872,378.80716,351.1058,317.09842,277.8262,239.87918,214.89435,213.7175,239.1003,282.36633,326.95572,356.94189,365.01688,354.7283,335.7662,315.98322,296.06723,270.74103,235.48264,193.53943,157.53099,143.62537,161.60844,207.38489,263.23074,306.18607,319.65045,301.14227,261.72977,218.09306,182.82187,159.27638,143.74277,132.29353,126.46742,132.95255,157.12346,195.25308,231.85635,245.56906,221.08617,159.95911,82.856369,20.695822,-1.0234839,24.226063,80.651817,139.15134,173.43092,173.72829,150.21303,124.54588,115.26688,126.18254,144.66179,150.34686,128.38931,78.908852,17.215603,-34.687374,-59.646336,-53.080254,-23.149418,15.371449,48.809406,69.308342,75.000053,67.509102,49.92617,26.857929,5.4249048,-5.3858566,1.561504,26.303524,58.8563,81.983002,79.578468,46.426788,-6.7674894,-57.028938,-80.276871,-63.978149,-13.922331,48.968609,99.95546,123.23903,118.79208,99.743164,82.625633,76.91172,80.164101,81.186867,68.482941,38.362648,-2.1765621,-39.04903,-58.478046,-53.710804,-27.645884,9.2129269,43.535614,63.918251,63.785046,42.190483,3.2745008,-44.903458,-91.997154,-127.6355,-144.13844,-138.86171,-115.06778,-80.73497,-45.755852,-18.820297,-5.3263083,-6.9066515,-22.190386,-47.911232,-79.695694,-112.48224,-140.96437,-160.38194,-167.55591,-161.7338,-144.87413,-121.36031,-97.379128,-80.092293,-76.406914,-91.104683,-124.58897,-171.30339,-220.21623,-258.06229,-274.42163,-266.21503,-239.00807,-204.11678,-173.04633,-152.58041,-143.48395,-143.32753,-151.01106,-169.27931,-202.96809,-253.99359,-316.85718,-378.52707,-423.6908,-442.46619,-435.57635,-413.41748,-389.55087,-373.05539,-364.98117,-361.1265,-358.60666,-360.7164,-375.73941,-409.98557,-460.0954,-510.91043,-541.71948,-537.72382,-499.37827,-443.08356,-392.2598,-364.36349,-362.29233,-375.64807,-390.47037,-400.12906,-409.35861,-428.53461,-462.61478,-503.38824,-531.59619,-528.4375,-488.92044,-427.61545,-372.14377,-348.01169,-364.37747,-409.80814,-460.37381,-494.24506,-503.00558,-492.81503,-476.07275,-460.82742,-446.14301,-426.45392,-400.65417,-377.80331,-373.85269,-400.83688,-456.23328,-520.84119,-567.85822,-577.82385,-549.6192,-500.13452,-452.96503,-424.03781,-413.98859,-412.0051,-407.44864,-399.99255,-400.35159,-420.93716,-463.59427,-514.13434,-548.66498,-548.07452,-510.7608,-454.46854,-405.53516,-382.67401,-386.32803,-400.7323,-406.8887,-397.0202,-380.1839,-375.16229,-395.88214,-439.90189,-488.24417,-516.75293,-511.07108,-474.99646,-426.88382,-387.23489,-366.51282,-361.44778,-361.47656,-359.51016,-358.3884,-368.0813,-395.9942,-438.12271,-478.2963,-496.77463,-482.48401,-440.34464,-388.50626,-347.38321,-328.02689,-327.57571,-334.27866,-337.79877,-337.05457,-340.0708,-356.36557,-387.80142,-424.75452,-450.45499,-450.52603,-421.30466,-371.7262,-318.18866,-276.3432,-255.04506,-255.25557,-272.79611,-301.59912,-334.94492,-364.9476,-382.62473,-380.38116,-356.13828,-316.0018,-272.5799,-238.99866,-222.14775,-219.80864,-223.87065,-227.39917,-230.24306,-238.69995,-259.16711,-290.51324,-321.39343,-335.46942,-321.64301,-282.24393,-232.94992,-193.77551,-176.92126,-179.87001,-188.718,-189.50768,-179.40381,-169.3318,-175.62233,-206.24658,-251.63367,-287.44937,-288.6192,-245.80301,-173.19739,-101.80943,-61.838661,-65.132454,-98.840683,-134.22089,-144.81696,-122.41299,-80.979515,-46.846748,-42.064228,-71.637527,-121.98051,-170.20947,-197.24474,-196.32112,-172.76109,-137.20648,-98.368256,-60.371155,-25.280298,2.868073,17.04571,10.782497,-16.316038,-55.694801,-92.500343,-112.55784,-109.20345,-85.5513,-51.064842,-15.317616,16.462875,43.266445,64.592987,77.000687,74.409882,52.463806,13.704932,-30.756573,-65.115807,-76.322762,-60.441414,-23.882864,21.002974,62.69569,95.057945,117.16888,129.69336,131.56911,120.1846,95.01519,61.473438,31.112642,16.908846,26.228928,56.264919,95.386955,129.84311,151.42729,160.96831,165.43855,171.04558,177.55978,178.20412,165.32867,137.76176,104.31544,80.476105,80.042992,107.04353,153.17635,202.38805,239.55688,257.77908,260.00912,254.72884,249.14784,244.6451,237.19397,221.95769,198.57503,173.48483,157.76491,161.75615,189.46294,235.58469,286.53729,325.02075,336.4165,314.74362,265.93985,206.8253,159.41769,142.23709,162.14429,210.8474,268.53799,313.5228,333.06512,329.35214,316.86847,312.46722,324.09244,345.27899,359.15735,349.66144,312.85962,261.04776,216.7932,200.57095,219.70453,265.31064,318.59085,361.80963,386.69998,395.44693,394.90192,389.2746,377.05057,354.15445,320.34891,283.30429,256.53534,252.10097,273.04843,311.021,350.89468,379.3862,391.84277,392.83508,390.62927,389.87323,387.87564,377.06073,351.67288,313.82623,274.54843,248.97362,248.70381,275.95395,322.59421,373.98471,414.91504,434.54822,428.78287,400.31378,357.4512,312.25107,277.74118,264.13596,275.04153,305.67575,344.7673,379.78525,402.77158,413.20129,415.99722,416.13916,413.88345,404.36215,382.17676,347.69574,310.06119,283.90701,281.2804,304.01868,341.98807,378.75818,401.10046,405.90213,399.87244,392.6106,388.48111,383.63312,370.60623,347.03464,321.41974,310.62042,329.66687,380.52472,448.01801,506.76224,535.44904,529.38684,502.83527,479.23486,475.57449,491.26501,509.03006,507.30865,475.88702,424.23563,376.85864,358.60245,379.47751,428.74594,481.78574,514.89008,518.27716,499.28784,474.61099,457.61963,449.68585,441.06088,420.0661,383.7124,342.14716,313.75812,314.12796,346.04373,396.90445,445.0004,470.61911,465.3313,434.48022,392.40674,354.16971,328.9173,318.1395,318.4827,326.09735,339.21323,357.56137,379.79303,401.39273,415.02463,413.38956,392.90533,355.99295,310.65216,267.616,236.61516,223.49994,229.21011,250.48146,281.42108,315.02237,344.18179,362.37741,364.46213,347.84088,313.79892,268.26819,221.21722,184.27954,167.08514,173.62379,200.34177,237.19034,271.55853,293.49133,299.66315,293.93851,284.03677,276.04596,270.01682,259.56979,236.26825,196.54343,146.95367,103.93128,87.01088,108.41285,164.50902,234.37355,287.19949,295.58069,248.21315,155.51759,45.214844,-49.912037,-105.84447,-115.96722,-90.832687,-50.246307,-12.707045,12.021246,23.957165,28.343157,29.327002,26.149889,13.946836,-11.893703,-51.006348,-96.121376,-135.17049,-156.2225,-152.58098,-125.55668,-83.87484,-40.358685,-7.5440898,6.0695219,-1.9571625,-28.025143,-64.271645,-101.39352,-131.54597,-150.29216,-156.91772,-153.18689,-141.48254,-123.66772,-101.51207,-78.309364,-60.161694,-55.25037,-70.602715,-107.76049,-160.04826,-213.72621,-253.18559,-267.74689,-256.31683,-227.1884,-193.14052,-164.88176,-146.84029,-137.61815,-134.19896,-136.43991,-148.28554,-174.61385,-215.94061,-265.00455,-308.20389,-331.60989,-328.07919,-301.05743,-262.69394,-227.49576,-205.49004,-198.91734,-203.89891,-215.17856,-230.22913,-249.88916,-275.4765,-304.95889,-331.40808,-345.26764,-339.23788,-312.75018,-273.26971,-233.67654,-207.26776,-202.98708,-222.88057,-262.21799,-311.43875,-358.80075,-393.10995,-406.3775,-396.11826,-366.46988,-327.15051,-290.05396,-264.72528,-255.01671,-258.85458,-271.20422,-288.13474,-308.99881,-335.00977,-365.23196,-393.28006,-408.02783,-399.04953,-363.94675,-312.6857,-265.24896,-242.84814,-257.1781,-303.88736,-364.27701,-414.45996,-436.81744,-427.37863,-395.4566,-356.65762,-324.14407,-303.43481,-293.08929,-289.5101,-291.6449,-302.0452,-323.81427,-356.11505,-391.91641,-419.97202,-429.99777,-417.8371,-387.50592,-349.15106,-314.49045,-292.51056,-287.43582,-299.10699,-324.40768,-358.28931,-394.05905,-423.78491,-439.83075,-437.5105,-417.51892,-386.36914,-354.05222,-329.92148,-319.0827,-321.32156,-332.92593,-349.82202,-369.65619,-391.39816,-413.05417,-429.67633,-433.83734,-419.03787,-384.28381,-336.87378,-291.15964,-263.29672,-264.37427,-295.35443,-346.34631,-400.50345,-440.58752,-455.17636,-442.00204,-407.48547,-363.2489,-321.45175,-290.90894,-275.29517,-273.69241,-282.72421,-298.88287,-319.68326,-343.04172,-365.51819,-381.09106,-382.18256,-363.37064,-326.159,-281.63489,-248.16557,-243.7906,-276.47513,-337.67023,-403.8046,-446.3067,-445.61481,-401.57535,-333.94086,-272.05072,-239.18329,-240.52975,-261.85028,-279.55042,-275.96609,-250.45354,-219.53413,-206.21242,-225.30853,-273.95163,-332.88281,-377.30426,-390.21497,-370.15451,-329.41287,-285.05469,-249.29057,-225.2285,-209.60774,-199.1144,-194.82133,-201.36975,-221.90089,-253.08279,-284.46063,-303.04715,-300.15222,-275.86469,-238.40103,-199.24487,-167.75102,-148.70264,-143.51544,-152.75407,-176.8154,-213.68822,-255.87184,-290.10043,-301.90848,-283.26938,-238.43108,-183.32231,-137.78548,-114.89722,-114.14101,-123.1066,-126.84364,-118.70568,-105.25643,-101.65522,-120.41357,-161.09373,-208.1169,-238.53734,-235.01147,-195.75079,-135.31354,-76.155205,-36.718197,-23.548653,-31.543251,-50.601341,-72.915253,-95.622742,-117.88139,-136.11691,-142.5883,-129.46536,-95.660294,-50.684639,-11.357495,7.5923648,2.9513443,-14.506113,-27.114986,-22.795967,-4.330853,11.637893,6.1561813,-27.26792,-74.991508,-108.91466,-102.99514,-50.435631,29.798969,102.07436,133.75529,113.46689,56.724068,-4.2393932,-39.581409,-37.68087,-8.2321301,28.00042,54.584919,69.004234,80.35363,98.009781,120.66513,134.63962,123.31917,81.049652,21.040419,-29.375553,-43.972664,-13.58882,47.935955,112.07482,152.85789,161.70981,150.26379,139.79698,145.00285,163.44942,177.83672,169.13483,131.1907,76.593895,29.861565,12.795833,31.991692,76.517265,126.40732,165.2386,187.89032,198.89885,204.14058,203.38577,190.0721,158.52074,112.54613,67.848419,45.032494,57.294392,101.33089,158.31465,204.87494,226.86974,226.58353,218.54292,217.22025,225.68845,233.55649,225.71677,195.44978,152.06302,117.00294,110.64463,138.79616,188.41385,235.68568,261.00165,260.52484,246.5565,236.85464,240.85207,252.76964,256.52643,238.7886,200.61073,159.08379,137.48578,150.54916,194.87393,250.87648,294.67719,311.68756,302.9809,281.06339,259.24277,242.92162,228.98767,212.85768,196.69165,191.38095,209.80353,255.90326,318.03983,372.70398,397.51837,385.49423,350.81754,321.48856,322.69672,361.14011,420.259,469.59937,482.64951,452.26392,394.49057,338.97687,312.2843,324.26437,365.03049,413.108,448.689,463.64026,462.92966,458.02191,457.57123,461.6293,462.55756,451.27502,424.37289,387.62274,354.00748,337.67477,347.19403,381.41028,429.53769,475.12445,502.09711,500.60184,470.6145,422.05133,371.22379,334.79761,323.54605,338.52911,371.45175,409.0419,439.25446,456.14053,460.98398,459.46472,456.87842,454.45724,448.97903,435.70453,412.61334,383.18918,355.98087,341.12482,345.70355,370.31082,408.37955,448.38058,477.77292,487.11185,472.95554,438.80234,393.90936,350.39124,319.47836,308.15869,317.39911,342.58002,375.80167,408.84766,435.37772,451.56232,455.46918,446.28757,424.36676,392.12366,354.88339,320.474,297.16348,290.76224,302.43359,328.37039,361.25714,392.34689,412.92383,414.95944,391.93811,340.95642,265.88797,179.56557,102.23735,55.10421,51.008221,87.164276,144.88931,197.83577,225.03328,221.43596,199.42087,179.85768,177.95937,192.8219,207.63274,200.85582,161.45239,98.194595,36.583855,4.7726254,17.111727,65.701317,125.31908,168.54114,181.36952,169.52409,151.83308,145.66165,154.40431,165.40587,159.48764,125.42083,69.440338,13.29934,-17.970724,-10.687912,29.773251,82.798119,124.96143,142.85704,138.38193,123.92011,111.59184,104.31241,94.656387,71.888382,31.916708,-16.954308,-56.673149,-69.079536,-46.561302,2.8628178,59.099171,99.967316,111.74564,94.468987,59.654972,22.666351,-5.3096666,-21.145531,-28.098169,-30.734934,-30.458336,-24.738285,-10.337057,12.035001,35.235985,47.610191,38.653301,5.220686,-45.527821,-98.488739,-137.24202,-151.37395,-140.51785,-113.11486,-81.057442,-53.732674,-35.043293,-24.730644,-22.262617,-29.779148,-51.372349,-88.855225,-137.14661,-183.28055,-210.9705,-208.83167,-177.3741,-129.97154,-86.461647,-62.768654,-62.810043,-77.821907,-93.59938,-100.91914,-102.12164,-109.1974,-134.37589,-179.46013,-231.3942,-267.75531,-269.37152,-232.33405,-171.65315,-113.86395,-82.80648,-87.107422,-116.77345,-150.54636,-169.04378,-165.48792,-147.90831,-132.46339,-133.00482,-153.68394,-188.52139,-226.79425,-259.50006,-282.36874,-294.33661,-294.20526,-279.41693,-248.67062,-206.34206,-164.45663,-139.22575,-143.13312,-177.31065,-229.51689,-279.71777,-310.24008,-314.27814,-297.55588,-272.57074,-249.85027,-232.47104,-217.40186,-201.9866,-189.90884,-191.27353,-215.8898,-264.26825,-323.2142,-370.26614,-385.21585,-361.72681,-311.41519,-257.37119,-220.97299,-210.31816,-217.55975,-226.52228,-225.16785,-214.37863,-207.18373,-219.11584,-256.36453,-309.78958,-358.85333,-382.93811,-372.7998,-335.09097,-287.61923,-248.93408,-229.03354,-226.584,-233.3401,-241.8045,-250.58859,-264.1499,-287.72906,-321.4689,-357.92105,-384.62094,-390.09369,-369.71503,-328.27972,-278.25418,-234.96555,-211.12453,-212.82375,-238.10988,-278.17627,-320.5437,-353.19168,-368.32532,-364.42313,-345.72836,-319.47,-292.3461,-268.2886,-248.72423,-234.77657,-229.32967,-236.80652,-260.18643,-297.11942,-338.23611,-369.74649,-379.60309,-363.78024,-328.63492,-287.55289,-253.7796,-233.94688,-226.39392,-225.08478,-225.99199,-231.05457,-246.58202,-277.09494,-319.14188,-360.00269,-382.97556,-376.34079,-340.33255,-287.53998,-236.40016,-201.91328,-189.3336,-194.30391,-208.41139,-225.6403,-245.08647,-268.48346,-295.12991,-318.73163,-329.13666,-318.1752,-285.61575,-240.96489,-199.60519,-175.5663,-175.32436,-196.07301,-228.75105,-263.13327,-291.54041,-309.4826,-314.21231,-303.60312,-276.97708,-237.30841,-192.55537,-154.16371,-132.85561,-134.01315,-155.50395,-189.19891,-224.92661,-254.1391,-271.25897,-272.89252,-256.9527,-223.59717,-177.80273,-131.0847,-99.483238,-97.195313,-128.73595,-184.57249,-243.87735,-283.8309,-290.50388,-264.92615,-220.76741,-175.40376,-140.37938,-117.38882,-101.75747,-89.901863,-84.405418,-92.29348,-117.51376,-153.54886,-182.72664,-184.37122,-147.39378,-78.97171,-2.7170274,53.620926,73.722099,61.659283,38.277306,27.088484,38.711163,63.953049,80.041061,65.904762,16.538191,-52.827503,-115.25739,-147.64059,-143.23521,-113.63118,-79.714722,-58.281994,-53.227425,-56.494675,-57.038849,-50.75563,-44.151356,-49.31459,-73.99852,-114.01322,-153.47299,-173.05208,-161.04242,-120.22808,-66.420624,-19.852219,5.0773129,5.6494226,-10.526321,-32.172909,-51.398041,-66.638054,-80.264984,-93.388535,-102.14531,-98.524345,-75.499634,-33.157509,18.424513,61.994183,80.702995,66.565506,25.153259,-26.259521,-66.40654,-79.736176,-63.131786,-26.23896,14.564207,45.062668,59.959476,63.801712,65.873566,72.495728,81.788651,84.456894,70.327843,36.536552,-8.1281805,-46.064663,-59.749237,-41.509304,1.8920697,52.91074,93.016853,112.55067,114.4537,109.68618,107.7055,108.78847,103.80901,81.942619,41.044174,-6.9006963,-39.969505,-38.438274,2.5834465,68.486801,132.24294,169.43053,171.93524,151.48581,130.55595,126.46019,139.20476,151.48735,141.31509,99.111694,37.661064,-12.60112,-21.01082,23.778065,104.80762,184.92325,227.79713,219.2287,175.44803,132.98027,126.11015,165.82629,233.26971,291.62924,308.88071,277.11255,216.6161,162.77055,144.58553,168.61105,217.82478,265.0065,290.80029,294.2598,289.5032,291.98056,304.9144,315.95874,306.53683,267.07315,206.93729,151.46198,127.42278,146.55014,198.2363,256.4202,295.957,307.34052,299.95309,292.1622,295.84009,306.73001,307.77264,283.07144,232.30856,174.77322,139.32153,146.56987,195.37679,263.01544,319.12372,344.02429,339.02933,322.03958,312.14139,314.64743,317.58551,302.2598,260.12292,203.2538,159.92802,157.30026,202.71109,276.76694,343.72906,372.99689,357.6904,318.01007,287.13321,289.05515,323.04602,364.75696,382.74802,359.08771,300.4838,233.33876,187.07655,177.42783,200.28854,238.58307,275.46057,303.63638,324.87332,341.87848,350.80051,341.60135,306.71564,251.04831,194.37811,162.43083,171.54114,217.39752,276.38925,319.58688,330.36789,313.74689,290.98248,283.27191,296.06418,315.12607,317.16629,287.44708,231.80888,174.48903,143.1893,151.80025,192.62506,242.94016,280.46838,296.33057,296.5618,292.30103,287.42075,274.10941,240.40654,183.85814,119.88358,76.672745,78.411835,128.06216,202.51683,265.00473,287.42813,267.67413,229.69283,205.80653,213.27554,241.59727,259.87656,239.59177,176.97183,98.958199,47.796978,54.127563,116.67136,202.41505,267.33813,283.80344,256.34503,215.72487,196.04303,211.0103,245.50291,267.49609,251.33557,195.91968,125.59401,74.001404,62.779045,89.759697,133.74272,170.85995,189.88345,195.75496,200.22034,208.27089,211.81509,195.84772,152.26147,90.168358,33.937748,9.3547163,27.384396,77.133682,133.08405,171.37209,183.47955,177.92091,169.6655,166.19046,161.32822,141.74384,100.78373,48.314716,7.8369689,1.7896223,35.356888,91.004791,138.6398,154.88716,137.9491,107.28008,88.153976,92.304733,108.95026,113.12062,85.488136,29.121378,-29.643793,-57.714783,-37.869373,18.649773,78.927429,110.14213,101.03349,67.830856,40.48666,39.313778,59.209511,73.284325,53.605244,-5.9393587,-81.655785,-133.57704,-131.69962,-76.670906,-0.16998348,55.654633,65.561752,36.421074,-0.1545222,-12.177593,8.9034739,41.974812,51.978119,16.238071,-57.503101,-134.30038,-174.30547,-158.5374,-100.27802,-34.674873,5.4102116,9.8976669,-5.7896924,-16.5861,-9.5054569,5.4029031,3.1042337,-35.511429,-105.75874,-178.19424,-216.10904,-199.45674,-138.29736,-66.198761,-18.295105,-9.5087347,-28.009211,-47.7271,-49.946415,-37.709152,-32.472691,-55.846516,-110.40489,-174.31967,-214.36267,-208.21921,-160.04826,-97.979919,-55.282967,-48.710094,-69.433372,-92.640755,-98.165054,-86.512222,-78.225517,-97.022141,-149.36443,-216.04393,-262.73911,-262.60242,-214.90495,-146.27742,-93.407562,-79.292664,-99.713638,-129.16612,-141.44762,-129.61732,-110.70618,-111.83738,-148.10612,-208.70308,-261.88693,-275.76343,-240.29251,-174.85049,-115.83527,-92.900787,-110.36723,-146.52238,-170.77052,-166.06166,-140.6411,-121.12319,-132.32594,-178.54034,-239.49518,-283.51981,-288.22586,-254.145,-202.38196,-159.06172,-138.48764,-137.00208,-140.85641,-140.69556,-140.56595,-154.06877,-190.6973,-243.54956,-289.2052,-301.67426,-271.42282,-215.66585,-171.26022,-173.30191,-232.76372,-327.90475,-415.57123,-455.6228,-433.27011,-365.69913,-289.74008,-239.39331,-227.77965,-244.10428,-265.7095,-275.59158,-273.18585,-271.92789,-286.61209,-320.25204,-359.7785,-383.31763,-373.87891,-330.36249,-269.07095,-215.28395,-190.44847,-202.44548,-243.63983,-296.41373,-342.01883,-367.86893,-370.46631,-354.05661,-326.953,-297.66833,-272.19473,-252.93439,-239.31845,-229.7737,-224.11543,-224.8887,-236.3541,-261.1142,-296.25183,-331.90921,-354.30087,-352.37256,-324.42776,-280.25598,-236.65265,-208.48355,-200.76323,-207.00761,-215.1474,-217.04507,-214.85951,-219.39091,-241.12715,-280.19876,-322.81851,-347.70294,-339.00803,-297.28192,-240.62753,-194.56099,-176.83005,-187.26221,-209.63554,-224.41876,-223.53397,-216.53029,-223.2652,-257.69516,-314.13654,-366.42444,-382.00394,-342.5936,-257.81995,-162.04132,-95.308731,-80.0513,-108.39597,-148.51682,-166.10562,-147.04395,-106.38015,-77.612694,-89.290901,-144.45352,-216.70668,-265.832,-262.89365,-208.46964,-132.10912,-73.473625,-57.635159,-80.700417,-114.87161,-129.02351,-110.60834,-74.055557,-50.159676,-63.896885,-115.92581,-180.46779,-221.13083,-214.10997,-163.27556,-97.204468,-50.3936,-41.408062,-62.500809,-87.202362,-90.129967,-65.163345,-29.606041,-11.798994,-31.004316,-83.456947,-143.96893,-181.68417,-179.06229,-141.40903,-91.224556,-52.233627,-34.711575,-32.071545,-30.077347,-20.838011,-10.533328,-14.811983,-45.24633,-97.185577,-148.71019,-172.52783,-153.18883,-97.758911,-32.232868,14.306804,27.283955,14.190491,-2.7838848,-3.6861091,14.585039,36.121487,37.714943,6.2199831,-50.50396,-106.68546,-133.7878,-117.65691,-66.497849,-4.8875809,41.65966,61.181515,59.72073,53.860199,57.389374,71.484863,84.648773,81.653084,54.861427,10.325964,-34.878223,-61.741444,-58.858494,-27.074194,22.316858,73.451027,111.99055,128.84178,121.28008,92.660934,51.563622,10.091976,-19.292721,-27.992523,-14.627461,14.729006,50.061619,82.674698,108.68566,128.3235,141.81651,145.60023,132.75986,98.480782,46.933456,-6.1447425,-38.763203,-34.058121,9.0674267,73.506569,132.46718,164.44806,165.36464,149.791,140.19052,151.06232,178.58322,202.87073,201.57487,165.79384,107.60186,54.008968,31.210758,49.376099,97.670822,152.21245,191.09792,206.36594,205.47418,202.42873,205.70229,211.75595,208.468,185.52942,144.05986,98.511223,69.484184,72.262421,108.42879,165.41904,223.46098,264.96973,280.89917,271.59195,243.61035,205.95038,167.96764,138.78316,126.353,135.11696,163.317,202.48645,240.65666,268.02744,281.47968,284.59543,282.96854,278.33212,266.36887,240.59256,199.92307,154.0686,121.54848,120.1101,155.14056,214.09218,271.73633,303.99792,301.9585,276.82803,252.20984,248.34012,268.52682,296.82257,308.64825,287.47971,236.62213,178.31493,140.76332,141.55374,178.03337,230.3524,274.43213,295.90137,296.07104,286.98172,280.10809,277.25348,270.01147,247.72849,207.82184,160.76791,125.93139,120.77081,150.39511,204.06836,260.60474,299.01468,307.9491,288.98181,253.101,213.80113,181.34186,160.81508,153.50677,159.06615,176.34499,202.6898,233.12459,260.92868,279.72247,285.7059,278.47137,260.02747,233.20284,201.04909,167.74696,139.77321,125.31783,131.05737,157.73866,197.72797,237.10756,262.04733,265.92688,252.52866,232.79216,216.93651,207.26735,196.9724,176.29805,142.13686,104.03397,81.378845,92.315201,140.93759,211.39667,273.80859,299.46234,276.54163,216.73018,148.48581,101.0696,89.178215,107.41265,137.21306,160.74564,172.00125,177.86049,189.24355,209.52467,229.19972,231.13206,202.90076,147.40898,83.841415,37.68652,26.204664,48.98093,89.715408,127.62006,150.23907,158.84851,163.25414,170.67676,177.73421,172.1068,143.01344,92.603241,39.056431,7.8093781,15.998174,60.675842,119.42573,163.70738,176.33591,161.28448,139.03029,130.62073,141.62221,157.41714,153.5369,114.1427,45.772743,-23.648695,-60.623379,-46.610886,10.251999,80.033157,129.26161,140.543,120.8823,93.890511,81.882744,90.343063,105.09982,103.55923,71.793015,15.63424,-41.599754,-72.932434,-63.737461,-19.635361,38.121395,85.825043,110.01637,111.95871,102.35596,91.344795,81.264137,66.842979,41.751213,6.0831332,-30.876921,-54.605873,-53.357433,-25.114788,20.598837,66.74218,96.032913,97.693489,70.917465,24.368231,-27.354342,-68.740479,-88.402969,-82.729256,-56.862675,-22.287405,8.3210135,26.643078,31.592064,27.686754,19.929562,8.8562355,-10.250566,-42.715145,-87.328247,-132.29166,-158.54613,-149.90237,-104.06258,-36.825058,24.634695,56.413086,51.604519,23.975075,-1.4732169,-5.4126477,12.480319,32.967163,30.365799,-9.0547361,-75.739891,-140.56561,-171.68065,-153.71884,-96.920624,-30.363152,15.97262,28.346352,14.613678,-4.8571644,-13.491065,-10.256166,-8.8427181,-25.485687,-64.73204,-113.72242,-149.27104,-152.79628,-122.59438,-74.919586,-33.309654,-13.788375,-16.207647,-27.317366,-32.68906,-28.453201,-24.266575,-35.498894,-70.488434,-122.23663,-170.69676,-194.29112,-182.87601,-143.51691,-95.557426,-58.769699,-42.724205,-44.064602,-52.467197,-60.074646,-67.287819,-81.028145,-107.32792,-144.15195,-179.96613,-199.29654,-191.61507,-157.76035,-110.00109,-66.098892,-41.264763,-42.488342,-67.469688,-107.30878,-150.44421,-185.8271,-204.95313,-203.43031,-182.39052,-148.89677,-114.05941,-88.693092,-78.395645,-81.132019,-89.393967,-96.045624,-100.06703,-107.88108,-128.60768,-165.89055,-211.91057,-248.4912,-255.90941,-224.79807,-163.88477,-98.223267,-58.046894,-64.028992,-117.01038,-197.73972,-276.47452,-326.93307,-337.18103,-312.41412,-269.45209,-227.06154,-197.64351,-184.05646,-181.93355,-184.96486,-189.65211,-197.05232,-211.03122,-234.38773,-265.15314,-295.25226,-312.68246,-306.75104,-274.1955,-222.99808,-171.15677,-139.87378,-143.7375,-182.80267,-241.2827,-294.41895,-320.46072,-311.34192,-275.93774,-233.93428,-204.00919,-193.59166,-196.48724,-199.54443,-193.58073,-180.94926,-174.42145,-188.022,-226.06752,-278.05331,-323.19272,-341.91357,-326.91434,-286.69556,-239.57806,-202.54601,-182.45244,-175.07526,-171.77756,-168.22928,-168.4915,-181.45956,-212.44168,-256.32916,-297.77481,-318.82382,-309.12708,-271.97412,-222.21593,-177.63367,-149.58046,-138.86224,-138.88652,-143.00256,-150.28429,-165.52837,-193.70451,-233.23549,-273.3989,-298.26599,-295.03653,-261.55344,-208.23505,-153.20981,-113.62557,-98.216347,-105.05417,-124.99982,-148.01143,-168.22511,-185.08167,-200.58839,-215.19702,-225.37129,-224.59407,-207.29405,-173.34564,-130.34981,-92.004242,-72.883575,-81.895042,-117.58605,-167.85167,-214.58209,-241.29176,-240.06,-214.25711,-175.66942,-137.73767,-108.87842,-89.782524,-76.04628,-63.979832,-55.259476,-56.815166,-75.664871,-112.14529,-156.5193,-192.0123,-203.0654,-183.86421,-141.66058,-92.60569,-52.682507,-29.544773,-20.377623,-16.715721,-12.386653,-8.7123899,-13.229595,-32.946365,-67.154999,-105.21741,-131.26999,-132.93983,-108.37174,-67.050575,-24.152491,7.6008868,23.303965,25.547239,19.670811,8.728117,-8.0549984,-32.605721,-63.726627,-94.936188,-116.37186,-119.55814,-101.7899,-67.357536,-25.277678,14.456411,43.611286,56.486534,49.78862,23.297901,-18.317299,-64.24324,-99.26609,-109.31111,-88.486847,-43.253792,9.7454853,51.873985,72.179726,72.522957,64.709717,61.411404,66.95034,74.29184,70.430328,46.553024,5.9480128,-35.964149,-59.774956,-53.170479,-17.791155,32.314537,79.132683,110.12721,122.68904,121.62418,112.76587,98.182022,76.575211,47.96632,18.1471,-1.5454065,0.10031196,26.745056,70.80986,116.67254,149.06546,161.1843,157.09732,147.01259,139.00241,133.24924,122.97607,101.30228,68.865089,36.337585,19.502739,29.824879,66.779289,117.1998,162.27568,187.7506,190.82719,179.5997,165.88263,156.62097,149.78156,137.36143,113.19721,79.962418,50.252232,40.555752,61.606522,111.04061,172.98727,225.07079,248.94591,238.56265,201.88939,155.71968,117.01069,95.7313,92.724182,102.74343,119.77013,140.77631,165.6875,194.21516,222.4865,242.52428,245.55185,227.25804,191.50206,149.67857,115.69196,99.410011,102.57345,119.57034,142.23747,165.12915,187.46826,210.52232,232.71481,246.78667,242.132,211.65916,158.76218,99.06765,54.543678,42.614571,66.687569,114.18713,163.69519,196.95714,208.27019,205.44058,202.08179,206.77434,216.59666,219.38289,202.96791,164.8725,115.68312,73.836868,55.425461,65.815056,98.233391,139.38,177.38394,206.44023,225.68616,234.65097,230.16879,208.0519,168.42511,120.01102,78.838493,60.895306,73.12426,109.0304,152.34479,186.56372,203.90276,207.56371,206.11391,204.64513,199.80292,182.80595,148.3194,102.19266,61.413197,45.165131,62.643219,106.21607,155.23547,188.42343,196.57874,186.90677,176.061,176.94846,188.78075,197.52509,186.45546,149.26132,96.331924,49.674835,29.927916,44.32851,83.543167,128.80502,163.67397,182.05348,187.58369,186.30875,179.3931,162.0545,129.46028,84.435234,40.077164,14.172114,18.733635,52.097095,99.532524,142.29532,168.90305,180.82114,188.89598,203.67973,227.14178,251.89716,268.09216,272.07672,269.61359,270.74344,280.22757,291.43347,289.37918,261.77328,210.36392,153.7916,118.632,123.69904,167.92328,230.24371,282.02176,303.96298,296.41351,276.44122,264.16254,268.03098,279.23923,278.82831,252.22696,200.96301,143.50175,104.7943,101.69553,133.77086,184.84534,233.24467,263.3233,271.04346,261.4082,241.42918,214.77448,181.87488,144.32224,108.84277,86.622978,87.698029,114.28545,158.08789,203.86082,237.06595,250.58702,246.33803,231.37541,211.95348,190.0347,164.47464,135.33447,107.40855,89.766685,91.197014,114.51832,153.57494,194.92218,223.22968,227.42561,204.69597,161.12141,109.46627,65.319359,42.52874,48.636166,81.46331,128.68089,171.86179,194.46277,190.23996,167.00598,142.28944,132.1844,139.69894,150.51393,140.30959,90.44252,2.4730999,-98.485977,-175.26794,-199.05736,-166.2771,-100.9331,-40.337387,-12.976237,-22.711109,-49.531418,-66.066666,-58.365032,-36.437332,-27.041721,-53.530003,-116.81986,-191.17874,-238.54727,-232.33223,-174.79807,-96.209206,-36.088444,-19.022936,-41.070885,-75.486687,-93.262115,-83.981949,-62.57719,-57.560844,-89.251572,-153.36862,-221.5533,-258.61243,-244.81041,-188.2256,-119.14771,-70.729897,-59.133976,-76.180161,-98.504959,-105.92287,-95.867538,-84.191872,-92.472282,-131.24684,-190.99348,-246.86258,-273.59579,-260.43295,-216.43236,-163.60437,-123.39101,-105.73798,-107.18343,-117.57272,-129.27719,-141.98842,-160.32268,-187.12915,-218.34232,-243.57951,-252.05164,-239.37799,-210.42374,-176.39996,-148.60515,-133.26529,-130.59727,-137.78328,-152.72566,-175.31538,-205.36327,-239.27643,-268.71912,-283.05872,-274.55368,-243.13058,-197.71829,-153.21649,-124.70919,-121.80574,-145.47148,-188.12805,-236.40446,-275.37381,-293.18011,-284.9823,-254.91302,-214.776,-179.22211,-159.08682,-156.30057,-163.68777,-170.43504,-170.23578,-166.69627,-171.66588,-196.63496,-242.48837,-294.98828,-330.35135,-328.65546,-286.9003,-222.74432,-165.40472,-138.70847,-147.06151,-173.83458,-193.68733,-190.80379,-170.51888,-155.85323,-170.69951,-220.95222,-286.98315,-333.65366,-332.12167,-279.16602,-200.73297,-136.61546,-115.88634,-139.22977,-179.98029,-203.20961,-189.98901,-150.37979,-116.31436,-119.21524,-167.61426,-240.03691,-298.00507,-310.34497,-272.44937,-207.83382,-151.57928,-127.5057,-134.73775,-152.24242,-157.09288,-142.73116,-123.945,-125.14774,-160.70175,-221.78534,-279.63123,-303.26215,-279.49954,-221.36771,-159.18791,-120.77863,-114.63302,-127.5006,-137.31752,-131.478,-116.84156,-114.13304,-140.92186,-195.82901,-255.90022,-289.7019,-277.38025,-223.78606,-155.50818,-103.89468,-85.866196,-95.640236,-112.50868,-118.32281,-111.57349,-107.7325,-125.76658,-171.01448,-227.47224,-265.85083,-262.33203,-214.98264,-146.09464,-88.461693,-64.894135,-75.060295,-98.563126,-111.66048,-105.37662,-91.836884,-94.175568,-127.2971,-183.60371,-234.59627,-248.15358,-210.06754,-134.98247,-58.779312,-16.961208,-23.130569,-61.628986,-98.913559,-105.80636,-75.851166,-28.136705,6.3336039,4.8569579,-33.637203,-90.000595,-138.46193,-162.06421,-159.62651,-141.10405,-116.87839,-90.243996,-58.738705,-22.166191,10.600616,23.156059,1.7995094,-52.65181,-120.90285,-173.52379,-187.20758,-158.35857,-104.65089,-53.269489,-23.812094,-17.58094,-20.395113,-16.296154,-1.6396083,11.172136,3.362956,-34.1791,-90.629761,-139.06552,-152.64105,-122.16836,-62.664619,-3.9260714,28.573397,29.219044,13.454623,4.1075621,13.016679,31.568066,37.296341,11.926607,-42.380104,-100.9201,-130.86633,-112.64246,-53.345802,17.398876,66.490463,78.101715,61.724159,42.215382,39.49601,52.998291,62.470161,44.710148,-6.1016173,-69.896606,-111.26209,-102.50328,-43.226727,37.729149,100.10485,117.93612,95.504112,62.431049,51.366241,73.998329,112.42475,132.16736,107.81335,43.172405,-28.558697,-65.274254,-43.300999,27.070856,108.45048,160.78178,166.56223,139.81578,113.3186,113.68864,142.09044,173.92799,177.30734,136.90952,66.390907,0.75144976,-25.812227,-1.197775,58.433376,120.93602,159.4659,167.72771,159.3519,153.43324,158.04242,164.28334,154.9843,120.87008,71.387093,31.342417,25.135834,59.74815,118.90295,172.98541,198.05794,190.76501,168.80344,156.85475,168.13591,194.71445,213.40492,202.97566,160.42949,104.8446,66.023712,65.741516,104.31622,161.29485,209.20311,230.578,226.82614,213.69669,207.62447,213.19597,220.5372,213.9232,184.90254,140.3214,99.577141,83.123283,100.1437,143.47046,194.49298,234.06171,251.93294,249.21432,233.6909,212.71655,189.22382,163.14949,136.00287,113.94393,106.20776,119.63454,153.32265,197.52776,237.91615,262.47406,266.63785,253.7028,231.03763,205.40125,180.74339,159.40373,144.67924,141.66861,154.91757,184.36699,222.99582,258.74924,280.28131,282.99576,271.1925,254.55008,241.10179,231.52499,218.92978,194.66644,156.38583,112.66009,80.363632,75.635635,103.61593,153.37411,201.63127,223.69931,205.73996,151.6198,80.760139,18.480513,-15.675626,-15.507999,11.666304,51.164516,89.130173,118.1152,137.71263,151.14775,160.87061,166.1281,163.66315,150.52206,126.8432,96.911095,68.097321,48.508629,44.520084,58.93996,89.982246,131.04759,171.57205,199.35013,204.28944,182.52629,138.95924,86.402634,41.037296,15.940812,15.883063,36.168365,66.114418,95.037865,117.13482,132.45145,143.78561,152.11082,154.0811,143.65474,116.87215,76.420303,32.531696,-0.88339776,-12.763712,-0.14299689,31.00864,69.565529,104.91665,130.84517,145.59267,149.0632,140.18881,117.09885,80.202461,35.560425,-4.8513246,-27.433226,-23.863457,3.7017665,42.902451,77.373924,95.377182,95.527298,85.975105,77.617088,75.899551,76.815231,69.974785,46.879082,8.8536758,-30.992268,-53.767776,-45.616913,-6.8474741,46.507832,90.265511,104.90942,86.45298,48.982986,17.098375,12.172375,39.986023,86.732925,125.92599,132.74925,98.155136,34.886257,-28.211359,-60.864342,-47.237762,5.7357707,72.332146,122.25821,137.14731,119.85349,91.108414,75.541634,85.564468,113.12407,134.67476,126.51539,80.951401,12.908137,-47.572201,-72.57328,-52.555897,-1.3619562,53.093945,86.220917,90.775421,78.457069,68.556267,72.042519,82.627716,81.419205,52.07621,-4.3769603,-66.189598,-102.39792,-92.172646,-39.015804,30.224773,81.4711,94.220078,73.158684,42.804569,28.976824,40.01709,60.914326,64.542526,32.221943,-30.874981,-96.579407,-130.75012,-115.10422,-59.024929,6.66821,49.625378,55.871487,36.270576,15.69796,13.217406,27.715693,39.290646,25.234703,-21.129463,-82.666771,-127.79385,-130.83846,-89.286888,-25.819958,26.370203,44.815704,30.889763,5.9927545,-5.9730511,3.0444188,19.384073,18.530489,-15.19356,-74.497452,-131.18318,-153.59819,-127.67646,-66.966209,-4.4952512,28.170462,20.484205,-12.08957,-40.718803,-44.392292,-24.803747,-4.648716,-10.685622,-53.496277,-118.12352,-172.22484,-186.35612,-152.78717,-90.362167,-32.431347,-6.1531982,-16.889618,-47.517551,-72.221794,-74.802956,-59.071224,-44.81554,-52.798847,-89.396782,-141.24252,-183.13004,-193.5423,-167.48784,-118.66151,-70.324524,-41.530064,-37.705532,-50.939945,-68.509201,-82.920883,-96.413635,-117.24365,-150.96364,-193.2541,-229.63446,-242.64328,-222.0968,-172.03169,-110.0178,-59.173317,-37.441433,-49.983326,-88.382462,-136.29477,-177.75955,-203.49818,-212.3933,-208.5368,-196.71645,-179.57506,-157.95735,-133.46019,-110.63322,-96.617462,-97.966537,-116.57363,-147.51286,-180.52969,-204.56775,-212.68677,-204.43599,-184.46872,-158.74863,-131.29861,-103.85478,-78.373985,-59.84481,-56.251537,-74.517731,-114.57581,-165.91006,-210.0914,-229.10277,-215.01253,-174.86809,-127.12926,-91.282097,-76.972473,-79.694,-85.919373,-84.168434,-74.227081,-67.757439,-79.448799,-114.71114,-162.83627,-201.21288,-208.608,-178.91397,-125.88058,-75.148933,-48.556847,-51.195091,-70.008499,-84.814705,-83.869522,-72.761658,-70.020996,-92.325386,-139.91055,-193.11024,-223.37439,-211.80066,-162.46184,-100.91486,-58.324589,-51.7202,-73.867561,-99.79776,-105.49518,-85.647484,-57.82991,-49.885689,-79.12529,-137.97992,-196.57236,-221.05885,-195.57219,-132.86017,-66.275681,-28.45578,-31.076832,-59.222031,-83.766838,-82.822853,-57.241447,-29.565981,-27.462141,-63.386524,-124.65688,-180.66318,-202.05252,-178.69792,-124.56614,-67.04808,-29.031853,-16.438669,-19.208767,-23.541565,-25.082102,-32.551582,-59.019352,-107.78804,-164.40079,-202.09641,-198.08522,-149.55254,-77.662086,-15.787887,10.728473,-0.29794955,-28.32374,-45.863689,-38.684311,-16.185211,-4.4333725,-26.453346,-83.531113,-150.97945,-192.06166,-181.21246,-121.00665,-41.244511,19.51458,37.767956,18.394335,-11.214903,-21.861517,-3.6644714,26.991499,39.453289,11.42223,-53.499878,-125.65931,-167.06737,-155.26196,-97.366112,-25.028034,26.140032,38.614716,21.7278,1.7092412,0.56352311,19.029257,35.930454,24.639927,-24.894775,-94.537025,-146.06366,-144.87212,-84.059608,7.4993396,79.557816,89.296974,26.794287,-78.822052,-176.4164,-222.36652,-204.22652,-144.41812,-82.943527,-51.401455,-55.395679,-75.909523,-87.058121,-76.81678,-55.999916,-49.527931,-76.62207,-134.30235,-196.21193,-228.1004,-209.71243,-148.29825,-74.554504,-23.622814,-13.743694,-36.549183,-64.965416,-72.851051,-52.870232,-20.725725,-3.4142768,-19.966692,-67.885017,-124.19665,-159.93851,-158.00102,-122.54008,-74.415726,-36.720119,-20.717709,-21.39979,-24.572454,-19.35544,-6.7551146,1.509367,-7.5783405,-37.920498,-80.368965,-117.68871,-134.49443,-125.20285,-95.204445,-55.773991,-17.49218,12.942292,31.352459,33.261848,13.87431,-27.760351,-83.526031,-135.33472,-161.59726,-148.61914,-99.858315,-36.111565,14.91515,33.99501,21.150988,-5.3235583,-21.254505,-12.500317,15.922698,43.380821,47.377136,18.478048,-33.102539,-83.030624,-106.39099,-90.490303,-39.564762,30.021013,99.472824,155.51602,192.71771,211.14778,213.32552,203.49136,188.7561,179.00729,183.15791,202.96439,229.05151,243.6552,230.31599,185.20947,122.3473,67.971069,46.490593,66.462646,115.76366,169.36101,204.67133,214.28964,207.70097,201.33228,204.53777,211.93764,207.82982,179.48259,129.41412,77.19474,48.693031,59.776749,105.7226,163.83516,207.62459,222.84755,214.51686,200.4904,196.77234,205.3904,213.58002,204.63098,172.215,127.47292,93.378166,90.086876,121.49323,172.40068,218.22966,240.43871,237.03552,221.2982,210.26662,211.63477,218.42557,214.95755,189.4857,144.32504,96.298584,67.27739,71.3265,106.8915,158.54778,206.2417,235.42943,241.96173,230.07704,206.76149,177.45361,145.79668,116.15742,95.291695,90.609215,105.82606,137.4745,175.44354,207.692,225.98259,228.68274,219.03741,200.94739,176.17102,145.40875,112.0663,84.695786,74.704788,89.720451,127.10024,173.00488,209.00304,222.58395,214.45399,197.08321,184.98035,183.41707,184.04668,171.34399,135.90089,84.991455,41.873466,32.784317,69.533249,139.56497,211.15685,251.47375,246.24045,208.12462,168.02144,154.69124,176.01932,214.16249,237.6364,222.20615,166.82344,94.484215,38.083454,21.059732,45.35181,93.464531,141.63164,174.11461,189.15096,194.049,194.98245,190.28714,172.47487,136.84116,89.191505,45.854347,25.160685,36.24789,73.273636,119.21647,156.40593,176.11606,180.59952,176.96883,168.65501,151.87758,120.28384,73.976738,25.024147,-6.3110142,-3.3296916,35.317753,92.769699,143.08881,166.76997,161.92911,143.12144,128.53281,124.96461,122.05345,100.66199,49.767502,-20.794624,-82.246773,-103.75136,-73.36409,-8.1930885,54.455708,80.115341,59.175205,12.616658,-23.010191,-21.422308,14.626759,55.089088,64.225227,27.323027,-36.333294,-84.055916,-77.48941,-8.8850927,92.217369,176.94371,207.91975,182.31075,131.62251,98.667053,107.65984,147.95175,182.32263,173.77194,112.12769,22.214798,-51.714798,-74.251472,-40.41806,23.572367,79.741364,103.52146,97.085335,82.537582,81.451759,96.750664,110.51407,99.006317,53.220612,-10.93304,-61.026657,-69.541183,-32.979351,25.273317,70.646599,80.561417,58.584129,29.600916,19.811279,36.346001,61.554031,66.279343,32.521271,-31.139858,-92.939095,-118.2372,-92.610878,-31.459167,30.598223,62.915314,58.155922,34.326443,18.678171,25.734922,45.796661,52.451904,23.607306,-39.499908,-109.60587,-149.68413,-137.13234,-78.986267,-7.4569569,41.108028,49.183289,27.175781,2.9355109,-0.19717433,19.182995,39.99139,34.984016,-8.0849714,-75.773308,-136.32591,-159.80705,-136.8622,-83.372063,-28.550797,4.3839765,11.232871,5.1261649,2.746274,9.6161051,15.609916,3.6804068,-35.235367,-92.649887,-145.65686,-170.64644,-157.82663,-116.45068,-67.638969,-30.587717,-12.199273,-6.8801961,-5.2467413,-3.9550152,-8.6471825,-27.9562,-63.824551,-106.36996,-137.95659,-143.88135,-121.85145,-83.25132,-45.421009,-20.921446,-11.823035,-12.828437,-19.883099,-36.478035,-71.70932,-130.98314,-206.74744,-277.54028,-317.91296,-313.48196,-270.78619,-214.48727,-173.03433,-162.09694,-176.85231,-198.1156,-207.61751,-201.40701,-191.94449,-197.76065,-228.5275,-276.52448,-320.62683,-339.77829,-326.21088,-289.24164,-247.67494,-217.13603,-201.87366,-196.47903,-194.92581,-198.63716,-216.3318,-255.33615,-311.40845,-366.04071,-394.939,-382.7717,-333.88086,-270.8226,-221.03392,-200.52515,-205.83862,-219.67664,-225.72768,-221.53891,-219.79243,-237.02695,-278.35248,-329.9707,-365.79678,-364.12079,-322.63062,-260.91525,-208.33568,-185.58052,-192.74086,-212.0152,-222.61215,-216.70125,-204.71097,-206.24733,-233.56111,-280.02423,-322.45206,-335.98224,-311.00162,-260.01196,-209.5141,-182.70213,-185.23657,-203.92879,-218.69505,-218.5538,-209.72121,-209.90289,-233.19769,-277.04428,-321.23862,-340.26428,-320.42288,-269.60645,-212.67682,-175.59448,-169.36996,-184.91705,-202.03081,-205.64537,-197.43619,-194.28383,-214.59608,-262.24023,-319.72208,-355.99258,-344.28662,-278.57394,-178.09886,-77.277138,-7.4981499,17.995125,7.7141185,-16.638664,-34.187588,-35.350525,-23.412756,-8.3435326,1.3592045,3.0083008,-1.5992513,-10.492872,-24.348156,-45.255341,-72.646858,-100.17455,-116.78603,-112.11536,-82.974915,-36.66848,11.261632,43.762329,49.724144,28.219479,-12.244873,-58.320847,-97.332176,-120.99998,-126.34318,-114.50316,-89.023941,-54.709087,-17.202528,17.259396,42.496792,53.548573,47.989254,26.8866,-4.9856844,-39.857876,-68.605011,-83.121597,-78.878807,-56.735172,-22.997522,12.704061,41.079731,56.704723,59.547947,53.632912,43.671867,31.85968,17.0086,-3.3089371,-29.052416,-55.160786,-72.343575,-71.289116,-48.007099,-7.0366921,39.634586,77.539421,95.857254,91.387123,68.559212,36.179932,3.3794711,-22.861372,-37.940266,-38.849346,-24.187496,4.4075203,40.692558,74.350365,94.757538,96.569984,83.567154,67.411766,60.922302,69.427155,85.943031,94.321617,79.615234,39.688957,-9.7905989,-41.588558,-32.060783,23.350151,104.20908,173.66064,197.63652,163.86009,89.22567,10.755729,-34.737404,-30.180372,14.60208,71.809624,114.23364,131.18738,131.78889,134.39888,150.41055,174.19994,186.46379,168.59589,117.84364,52.264755,1.4995111,-10.759398,19.118526,73.432053,125.31435,155.73701,163.65926,162.7713,167.96913,181.99535,192.37624,181.09688,139.93991,79.970161,27.569998,9.0020695,33.848221,88.797112,146.21196,181.65598,188.36565,178.94519,173.6749,184.25327,204.82181,216.64333,202.83702,162.30522,112.61414,79.574249,80.792244,114.67446,162.33188,200.59586,216.65347,214.11501,206.94945,206.63991,212.58617,212.9257,194.8757,156.50247,110.8103,78.827019,76.536072,104.96037,150.24382,193.17491,220.87927,232.31963,234.41629,232.92015,226.00543,206.02405,168.03703,117.98141,73.18383,53.627602,69.604652,114.58321,168.709,210.76587,230.2897,231.47395,226.61879,224.6004,223.39476,212.4044,182.70029,137.07446,91.733604,67.65213,77.415665,116.9426,168.05731,210.02843,231.74686,236.00003,233.42467,231.52296,227.6993,211.9162,176.86832,127.44221,81.424133,59.912186,73.81942,116.18996,166.13869,201.86832,213.6133,207.46173,197.79256,194.48621,194.83302,186.34084,158.22743,112.61471,66.449043,42.024185,52.566963,93.230743,144.05583,182.79031,198.35001,195.43344,187.55153,184.39925,183.5697,173.05434,142.51755,94.419594,45.964867,19.69309,29.151625,69.956001,122.69523,165.44843,186.70905,189.52718,184.63939,178.88962,168.75772,144.52333,101.77881,50.546307,13.412681,12.329579,52.925838,118.15605,177.12605,204.01445,194.16382,165.76082,145.52814,148.47867,166.46552,174.26256,149.25232,90.578819,23.432617,-15.555367,-2.2466669,58.379894,134.79742,189.1991,201.44994,180.06973,152.84467,144.23344,156.16925,166.33211,145.2605,79.921577,-13.506871,-97.321747,-135.54166,-116.6743,-60.271034,-3.0106671,25.568533,20.603848,0.93313456,-8.5745592,2.3707335,21.38139,23.639309,-7.4414363,-64.870438,-119.9517,-140.63441,-113.44714,-53.289597,6.0650177,34.165802,23.19964,-8.9343338,-33.443775,-32.300758,-11.096411,5.8790364,-5.6355057,-51.11396,-111.96129,-157.3015,-164.21466,-132.10202,-81.533531,-39.293186,-20.962351,-23.419867,-31.671381,-33.63586,-30.932791,-37.290516,-66.001823,-116.40167,-170.23877,-201.44807,-192.7744,-147.44077,-87.487503,-39.944565,-20.608631,-26.613262,-42.304741,-53.21236,-57.294182,-65.151985,-89.485909,-132.22874,-179.52399,-208.81023,-203.23164,-163.12051,-106.37896,-57.573559,-33.514706,-35.235657,-51.227901,-68.462868,-82.345169,-98.165436,-123.5519,-158.49954,-191.43323,-205.07979,-188.29227,-145.15527,-94.356674,-58.709091,-51.772301,-70.567451,-98.977226,-118.87997,-120.91084,-107.61551,-87.800789,-67.454262,-44.817554,-13.53916,28.790348,73.926849,104.24458,102.29118,62.57972,-2.5652108,-67.614052,-106.4957,-105.65506,-69.784935,-17.493694,29.466068,56.385647,59.708744,44.389801,18.204884,-12.325144,-42.326252,-66.800659,-79.844795,-76.572113,-56.484024,-25.232349,7.2897425,31.631561,42.948578,41.643787,30.34668,10.199067,-19.909872,-60.048592,-104.60942,-140.97688,-154.23122,-135.94708,-91.221336,-38.190231,1.0256391,12.841451,-0.05396121,-21.394245,-33.175678,-28.776903,-18.11079,-20.715939,-51.083092,-106.29004,-164.93748,-198.88657,-190.44383,-143.60458,-81.726929,-33.116619,-14.196774,-21.496668,-37.468754,-45.458214,-42.785454,-42.374165,-61.666862,-106.8828,-164.37004,-206.13953,-206.7701,-160.59489,-87.28286,-21.355715,8.1014071,-5.4641538,-43.287163,-74.604141,-77.303009,-52.35918,-22.68355,-17.300488,-51.350582,-115.00684,-178.44255,-209.53882,-192.95424,-138.61942,-74.784103,-30.623272,-19.686302,-34.320381,-53.704628,-59.387104,-47.835339,-32.039917,-31.664093,-58.62072,-107.61474,-157.70152,-183.79926,-170.99217,-123.0601,-60.532135,-9.9470625,9.1160774,-7.9026008,-50.922249,-102.37993,-146.06219,-172.63016,-179.94701,-169.96101,-145.6273,-110.30177,-69.334671,-31.434402,-7.3944979,-5.9103312,-28.791784,-68.885384,-112.58079,-145.81354,-160.09061,-155.00653,-136.11519,-110.19021,-81.571098,-52.173618,-24.642776,-5.3438854,-3.6656301,-26.840643,-73.331779,-129.85602,-175.47917,-191.62476,-172.35286,-128.20807,-80.51461,-49.148911,-41.428303,-49.420788,-57.541721,-55.235256,-45.731117,-44.250065,-66.309181,-114.0726,-170.78217,-208.31963,-203.96979,-155.58331,-84.601707,-24.071133,1.1024771,-11.23145,-40.84713,-60.412689,-55.289562,-34.10495,-22.437244,-43.620815,-99.928276,-167.65282,-210.38031,-202.15977,-145.03583,-68.740402,-12.239122,0.75073075,-24.175745,-57.96368,-69.755974,-49.304585,-14.465732,1.6186441,-25.11097,-90.707886,-163.22935,-202.2236,-184.756,-120.36558,-44.790459,3.2419326,6.371449,-22.273779,-50.903355,-53.071758,-26.86883,4.0401483,7.9808373,-31.128025,-100.79984,-166.7215,-194.49457,-171.35635,-113.17442,-52.527058,-16.823709,-11.926099,-22.19854,-25.827076,-13.378571,4.3557825,4.9662766,-27.056976,-85.824623,-144.69873,-172.28644,-152.82193,-96.65152,-33.426697,7.2334681,14.113214,-0.80453479,-13.915201,-9.0766144,9.8529015,22.137009,6.6117306,-40.595325,-100.18598,-140.40306,-137.28247,-90.53466,-24.055834,29.325603,48.444611,35.810436,13.260348,4.8554826,19.257212,43.821377,54.229626,32.648273,-18.328981,-75.567978,-109.14104,-100.65517,-54.117241,7.3537946,56.145039,76.148186,70.004395,53.892563,44.490959,47.385685,54.41153,50.921364,27.413124,-12.454905,-52.54644,-72.913177,-60.950233,-18.549128,38.375362,87.148773,108.24673,93.092491,46.724953,-15.028265,-72.100044,-107.67864,-113.90983,-93.839943,-58.961498,-23.409758,2.5979564,16.930338,25.200567,36.19701,55.847168,83.43808,112.42912,135.1916,148.33727,154.84457,161.39133,172.71172,187.03241,196.06508,189.95897,164.15395,123.64079,81.729843,53.942047,50.640411,72.555275,111.24957,153.48488,186.53453,201.81235,196.06306,171.0658,133.04918,91.946907,59.587631,46.180477,56.035236,84.965134,121.65565,153.04979,170.91451,175.44815,173.41208,171.97223,172.64197,169.91104,155.89897,127.85007,92.826561,65.57592,60.330627,81.855774,121.98203,164.24197,193.55084,204.24593,201.00739,192.45874,182.75482,168.01985,140.7636,99.022003,52.756542,21.438185,23.072271,61.703472,122.50797,178.97441,208.30455,204.95122,182.88304,164.66353,164.7166,178.58701,186.15279,166.99429,117.23868,55.60619,13.543155,15.454935,62.358578,130.40759,185.72566,205.67258,192.02919,167.08627,155.58591,165.55562,182.05212,178.77063,139.55495,74.18248,16.064913,1.8118358,45.621365,126.07022,195.50722,207.51909,145.62018,34.816807,-71.760841,-123.17224,-99.241798,-20.050615,68.643089,123.88541,129.62515,102.00525,74.229874,72.411842,98.636116,131.5119,142.3483,115.12389,56.966263,-6.8250322,-48.64579,-54.236572,-28.390713,11.421319,47.573761,71.906578,86.767807,98.555069,109.89522,116.62504,111.33018,90.049896,56.700146,21.96484,-2.2373948,-8.560709,3.4295146,29.009808,61.675556,95.097366,122.7406,136.98862,130.41008,99.821053,50.643471,-2.4159324,-40.507797,-49.609138,-27.982342,12.96067,55.379219,85.106415,98.452164,101.27946,101.4911,100.92887,93.187668,69.407799,27.867399,-20.216431,-54.09481,-55.039364,-18.742149,40.117558,95.046883,122.73108,116.41807,89.031029,63.976231,59.674324,77.862022,103.03492,112.95742,93.067993,45.539318,-12.204649,-57.658512,-75.059998,-61.771866,-26.621456,16.936666,57.394775,87.714516,104.00086,103.49145,84.767235,50.229565,8.1055403,-28.95286,-48.993763,-46.653717,-25.717749,3.6345711,31.040007,51.204063,64.56707,73.386337,76.885765,69.90023,46.622833,6.7875767,-40.745594,-80.50174,-98.063698,-87.972321,-56.461422,-17.203115,16.787148,39.31395,51.205856,55.318501,51.192142,34.376823,1.4306281,-43.467369,-86.379944,-109.14635,-99.898071,-61.439064,-11.035605,29.156862,45.056507,38.235142,22.836275,14.051587,16.517712,21.175457,13.02298,-15.888459,-57.985474,-92.982239,-100.58218,-74.304108,-26.50157,19.264601,43.312725,41.775188,27.009003,16.467634,18.462408,25.545898,20.633715,-8.5365124,-57.448677,-104.7244,-124.8006,-104.85542,-54.019901,1.9098992,36.847614,40.541912,23.248636,5.9230738,3.3089418,12.421099,15.007118,-7.6316442,-58.250648,-117.98581,-156.27988,-150.20804,-100.06876,-30.329494,25.086643,43.492069,26.372761,-3.7919466,-20.203621,-10.298112,16.324871,35.503075,25.908588,-15.841244,-72.368637,-116.34072,-127.13595,-102.29047,-56.932026,-12.872275,14.411543,22.298788,17.956181,9.5902567,-0.60579979,-16.65696,-42.790501,-76.65493,-107.609,-121.83537,-110.77457,-76.879898,-32.690907,5.9830089,28.001226,30.871752,18.990412,-1.4069059,-26.175583,-53.290691,-79.860474,-99.707016,-104.63712,-89.30191,-56.145481,-16.194471,15.87401,29.690426,24.880938,10.358797,-2.5627799,-8.5298605,-11.932484,-23.054585,-48.933735,-85.36718,-116.27713,-122.00742,-91.999374,-33.807449,27.957317,63.216621,52.420799,-2.2411618,-77.125717,-139.03453,-162.13376,-140.47743,-89.42173,-35.710556,-2.400419,2.6521785,-11.416417,-26.592319,-28.47452,-15.417241,0.96519631,3.8230562,-17.565624,-60.102859,-107.48494,-138.73184,-139.57365,-110.05116,-64.02375,-21.101093,4.0704947,8.8113871,1.7455361,-4.7355294,-3.8455052,0.55815226,-3.278564,-26.008854,-67.688263,-114.29435,-143.42258,-136.69969,-91.924133,-27.390169,25.126163,35.788887,-7.5309811,-91.895287,-184.73798,-249.48354,-263.07925,-226.19431,-161.07014,-98.945679,-64.522873,-65.925461,-94.671219,-133.98032,-169.16576,-193.60085,-207.64154,-213.04875,-208.35182,-189.32225,-154.35538,-110.28887,-73.217453,-62.047054,-87.803551,-145.36374,-213.56523,-264.72949,-278.59222,-252.50864,-201.81685,-150.25871,-116.50945,-105.12795,-107.12733,-108.95959,-103.30128,-94.189201,-93.254288,-110.07325,-143.67953,-181.33299,-205.50017,-204.29352,-178.33727,-139.66154,-103.8214,-80.963722,-71.884392,-71.128548,-73.929466,-81.120026,-98.008011,-128.12097,-166.967,-201.27542,-215.2379,-199.951,-159.53708,-109.45219,-67.895828,-46.11784,-44.125469,-54.250526,-69.178635,-87.773491,-113.89756,-149.16035,-185.80585,-206.58658,-193.59531,-140.95195,-62.258545,13.789935,58.490658,59.95047,30.480927,-1.0896795,-7.9899926,16.835751,55.72298,77.634468,58.746601,-1.1336855,-77.133026,-133.82622,-146.18684,-113.41685,-57.154751,-6.1597481,21.613831,27.551226,26.666506,32.952881,47.088715,55.54425,41.486458,-0.82048225,-58.939655,-107.98062,-125.34383,-104.30438,-57.205761,-6.5342708,29.351851,45.704556,50.006695,51.968822,53.452991,46.539871,21.315571,-22.905611,-72.284149,-104.28891,-101.46533,-63.559834,-8.9650583,36.221333,54.332153,46.310738,28.835604,20.577757,27.655287,39.027863,35.415176,5.3795838,-43.317307,-85.958519,-95.9972,-62.956825,-0.57198268,60.912106,93.456703,88.407883,60.532349,36.333714,34.909115,54.680943,75.132545,72.162781,36.213127,-19.521132,-66.525543,-78.951523,-49.91967,4.707972,57.170868,85.449486,85.660011,71.338318,61.111771,64.153244,73.831383,73.696762,51.040451,8.041173,-37.525593,-62.549114,-52.749035,-11.233572,43.891731,90.63768,115.15577,116.98289,105.16189,89.368744,73.14814,53.969543,29.165003,2.2299471,-16.184586,-14.030639,13.544676,59.134995,105.62955,135.13452,138.50011,119.25266,89.666138,62.149258,42.183163,27.57292,13.914095,1.4901915,-2.2772934,12.63134,50.141228,101.62971,147.15697,164.86356,143.33504,89.252426,25.168839,-21.741594,-33.505344,-9.6998234,34.258907,77.268227,104.51852,114.04273,114.48576,116.52126,124.19194,132.01637,129.48769,109.53327,74.951797,38.362106,15.618993,16.959249,41.507877,78.426781,113.59529,137.25478,147.74496,149.40216,146.77318,139.7524,123.42648,92.920967,49.781631,4.9862704,-24.370672,-23.546429,11.048125,68.249825,126.48711,164.13077,170.23471,149.65408,119.6937,100.27122,103.18478,126.36285,155.89586,174.16458,169.18086,140.099,96.553909,53.159897,22.872601,12.751737,23.448774,51.222908,90.160469,133.08044,171.44301,195.85054,198.38542,176.30968,134.93657,87.232399,49.363686,33.980339,44.757706,75.290672,112.96967,145.49431,166.16357,175.0276,175.78949,171.11198,159.87622,138.37988,104.56409,62.123569,21.305937,-4.6445708,-5.5856404,20.352791,65.411285,115.23047,154.41286,171.74843,163.05034,131.29979,85.111496,36.605091,-1.0400417,-16.668365,-4.7757077,31.600554,80.776688,126.37506,154.30632,159.34727,147.29755,130.85956,121.2895,120.97643,122.05488,112.51673,86.183243,49.757568,21.445408,20.884539,56.124603,116.06448,173.9895,201.08897,182.34033,125.22363,55.848961,4.7363863,-9.2061491,12.921492,53.610073,91.288002,113.00201,119.56438,120.90595,126.0554,135.3577,140.30748,130.56633,102.61927,63.651009,27.973349,8.7741632,11.084999,30.538391,57.94421,85.502235,109.76472,129.6331,142.09309,140.44556,117.7475,73.552475,18.53475,-27.791056,-46.342777,-29.374109,14.375189,64.361496,100.22182,113.26728,109.73278,103.65701,104.64513,109.597,104.79896,77.267227,27.186525,-28.095963,-62.481548,-57.078579,-13.027032,47.966526,96.423141,113.04805,99.860451,76.944374,67.068031,78.848602,100.26371,107.22182,81.416077,25.071608,-37.898697,-75.616936,-67.94574,-19.116129,45.061375,93.399551,108.07876,93.666908,71.042694,61.147671,70.115868,85.878639,88.076523,63.896576,18.621731,-26.362173,-46.603924,-29.789839,16.854679,71.300804,109.78469,119.37662,102.46726,71.714523,40.394855,15.344835,-3.3501604,-17.357018,-25.046041,-21.041613,-0.78671885,33.80489,72.597061,101.39455,109.44083,95.039085,65.455406,31.534151,1.3095942,-22.648972,-40.686924,-51.233238,-48.622707,-26.418831,15.602277,66.304802,104.95735,110.44061,72.884567,0.29190198,-84.581512,-155.60291,-195.96631,-204.48846,-192.21561,-172.66507,-153.0816,-132.75534,-108.7622,-83.696854,-68.380577,-76.398964,-113.82928,-171.80037,-228.22667,-258.86301,-251.06142,-211.20544,-160.66757,-122.76308,-109.25602,-115.23219,-125.33787,-126.55653,-118.3162,-112.8298,-125.60918,-163.05771,-216.03717,-264.0162,-286.97681,-276.98395,-241.84055,-199.00221,-164.64374,-145.65533,-139.52396,-140.84969,-148.37737,-166.47246,-199.7672,-245.48915,-290.28061,-315.2511,-306.77841,-265.81354,-208.83748,-159.093,-133.47719,-133.67357,-147.34698,-158.36571,-158.83072,-154.52585,-160.05954,-187.18282,-234.50905,-285.88876,-318.76822,-317.14575,-280.80136,-225.16032,-172.39003,-139.77065,-132.47319,-144.25424,-164.0972,-183.36798,-198.74503,-210.06599,-216.18819,-213.09714,-196.21797,-165.14819,-126.76591,-93.579987,-77.571198,-83.133286,-103.65649,-124.16912,-128.75772,-108.67326,-66.799095,-16.401724,24.804119,42.14167,29.695232,-7.697835,-56.391003,-98.746155,-119.18475,-109.66959,-72.843391,-21.468075,26.092258,52.918728,50.219521,20.539331,-24.074327,-67.898346,-98.16243,-109.05073,-101.54556,-80.335426,-50.690987,-17.63129,12.657704,31.469469,28.920572,-1.4469345,-57.24342,-125.00757,-183.88141,-214.26117,-206.9762,-167.66898,-113.66475,-65.138634,-35.825638,-28.556074,-37.517784,-54.701061,-75.519783,-99.756653,-127.79739,-155.80107,-174.3286,-172.40788,-144.86668,-97.996429,-49.194099,-19.845284,-24.949677,-65.117813,-125.30092,-180.89931,-208.08665,-193.41284,-138.65163,-59.440254,21.090178,80.942055,107.06589,99.788803,72.223412,44.464008,34.349701,48.542854,78.420265,103.69981,102.93896,65.85656,0.5390411,-69.247597,-115.90029,-122.53168,-91.651741,-42.637283,0.45894367,23.004494,26.75342,25.372093,31.970604,47.623825,59.276646,48.915833,7.8381228,-54.130955,-111.56364,-137.41516,-119.23674,-66.893806,-6.5082321,35.498726,47.761189,38.71151,28.005575,31.013086,47.367752,61.545731,54.927452,20.72629,-28.867889,-68.622162,-75.553551,-43.439766,13.08824,67.502342,97.385857,97.059166,78.977951,63.672897,65.39772,82.980896,101.42146,102.51792,77.204491,31.764668,-15.457579,-44.136745,-42.401405,-11.830817,34.812561,80.616592,111.81653,121.86959,111.5173,86.333069,53.87307,21.695156,-3.6843693,-17.402283,-16.757732,-1.5664233,25.778692,60.475166,95.58287,122.58537,132.80945,120.08691,84.06076,32.345119,-20.510418,-57.928818,-68.283127,-50.240208,-13.093413,28.486593,62.236671,83.712517,95.902603,103.69494,107.67809,102.42339,81.105057,43.270916,-0.46424857,-31.48489,-33.256157,-2.1385152,48.788338,96.432159,121.26,118.88835,101.67673,88.955627,92.533623,107.75746,116.78888,102.16692,61.154301,10.348653,-23.411699,-20.136658,19.889915,75.821938,119.57616,133.7146,121.55311,102.6156,96.935081,109.65014,127.11253,127.40792,97.708214,45.777737,-3.0242436,-21.573133,1.2675751,53.374001,107.60285,139.62479,142.74849,129.52803,119.63146,123.39333,133.4549,130.77402,100.5472,46.092831,-9.9989328,-38.992126,-24.534094,26.395567,87.872177,131.69064,144.63385,134.45131,120.93924,119.25416,128.01076,130.92963,110.65319,64.283768,8.8297768,-27.940708,-25.111097,17.639212,79.766159,133.06433,158.85997,157.22972,142.49323,129.43173,121.31091,108.95573,81.298302,38.669998,-2.3793094,-17.747623,7.4658799,66.338959,131.73676,172.36409,172.80254,143.50397,113.1834,108.30433,133.7494,168.46025,179.70139,146.55519,76.447929,2.881182,-34.72641,-15.851035,48.269562,122.29086,169.61288,174.90555,151.30182,128.04645,127.89582,150.41702,172.85924,167.72386,124.36585,59.13644,6.6113448,-2.3384113,39.286499,109.93025,173.36108,201.56194,191.16055,162.68633,143.90364,149.30411,170.12732,181.64304,162.30901,111.22135,51.516449,17.031736,30.860596,89.801086,164.68407,216.18602,216.05005,160.92226,71.519417,-20.610561,-89.410011,-124.05659,-128.25505,-112.44773,-85.986755,-54.442894,-22.041708,4.9665194,18.297279,11.691628,-14.278902,-51.044487,-86.12635,-109.81803,-119.56174,-118.86313,-112.01108,-99.394028,-77.846535,-46.221653,-11.52233,10.546046,3.1393318,-39.890842,-106.14412,-167.70416,-195.10916,-174.42218,-116.35906,-50.729671,-8.8682089,-4.9929614,-28.682123,-53.587688,-56.654911,-34.822407,-7.6364603,-3.6732748,-39.805984,-107.51059,-175.90045,-209.94479,-192.00291,-132.47742,-62.691467,-15.026716,-3.737802,-18.996456,-37.326195,-40.288868,-27.910429,-17.510851,-29.225697,-69.021744,-121.72681,-159.40237,-159.43893,-119.80949,-60.820541,-12.071135,6.4632063,-3.6403689,-22.184622,-25.715155,-4.4578714,30.807926,56.389606,52.279308,16.258764,-33.866287,-70.991943,-74.888832,-43.219242,9.0600758,60.273571,94.681732,108.94607,109.37992,103.64914,93.931129,76.504585,47.30714,8.4120617,-30.067783,-54.414146,-54.989048,-31.760437,5.9787745,45.064201,74.973373,91.107452,93.529602,83.460182,61.233791,27.647093,-12.736468,-49.89529,-70.931396,-66.252701,-35.509018,11.025719,57.134575,88.787514,100.64104,96.878891,86.230461,74.961655,62.86948,44.983242,17.471621,-16.815689,-47.52179,-61.698689,-51.436722,-19.206175,22.643867,57.989197,74.845726,70.358681,50.263084,23.869865,-1.6846437,-24.156187,-44.561588,-63.035519,-75.717484,-75.412292,-56.056091,-18.233118,28.084034,66.02356,78.975708,58.960312,11.658796,-44.990154,-88.447197,-101.90498,-82.067398,-40.257278,3.8483653,32.56567,39.010529,29.48242,18.14711,17.238981,28.770597,42.969193,44.628471,23.593248,-17.224747,-61.654705,-88.522728,-83.627853,-48.156414,1.7549711,44.175541,63.684254,59.276379,43.151115,31.470797,33.247089,44.552406,51.654625,40.830399,8.3520117,-35.823708,-72.964897,-85.891861,-68.311172,-27.696655,19.467516,56.606506,74.573685,73.761414,60.62793,41.892002,20.536474,-4.1313276,-33.199696,-64.605667,-92.150085,-107.91148,-106.54353,-88.779404,-62.043125,-37.799812,-26.989365,-35.67593,-62.717625,-100.24436,-136.61098,-160.65419,-165.66934,-151.59177,-124.48241,-93.510864,-66.842758,-48.510387,-37.926704,-32.200047,-29.629343,-31.868317,-43.010868,-65.946503,-98.437157,-131.94354,-154.67477,-157.50941,-139.23312,-107.58022,-75.062027,-51.962662,-40.906727,-36.542187,-30.569929,-18.723387,-4.8406878,1.0263269,-10.454959,-40.373932,-78.596924,-107.74573,-112.13971,-86.4636,-38.976681,12.609477,50.026802,62.848175,51.769142,25.606939,-5.2501669,-34.383942,-60.591366,-84.862778,-106.11073,-119.32837,-117.85133,-98.245369,-64.284172,-26.946463,0.0016828753,6.3204455,-10.256638,-43.913822,-84.587982,-122.91792,-153.15144,-172.75325,-180.1152,-173.15721,-150.65193,-115.4948,-76.901955,-48.557587,-42.351715,-60.892376,-93.824974,-121.4549,-124.80641,-96.761803,-47.432941,0.18689147,22.452936,8.2636414,-34.657967,-84.242973,-116.56207,-118.62641,-93.812035,-57.178596,-24.587315,-3.3419979,9.4791193,20.635569,31.836931,35.711803,20.318792,-20.681849,-79.77697,-136.12753,-165.82782,-155.81273,-112.19527,-57.062649,-15.373077,-0.38458154,-7.2070575,-18.621122,-18.916668,-5.974853,6.9354215,0.95992875,-33.808514,-89.34304,-142.74089,-169.4939,-158.0985,-116.29763,-65.145988,-25.483103,-6.3407373,-2.8953919,-4.338922,-4.8292212,-8.7366467,-26.07519,-61.771034,-107.47112,-143.08878,-148.19064,-115.78289,-58.63781,-2.9955041,26.875542,23.237204,-1.1780378,-22.552807,-22.421421,-0.15036458,26.802147,34.838528,10.285015,-40.999565,-96.433907,-129.63649,-124.92325,-84.620911,-25.858477,29.601843,65.324852,74.46656,57.898243,20.033918,-33.322659,-93.959557,-149.67569,-185.78255,-190.72838,-162.81915,-113.00127,-60.684086,-24.377914,-12.906707,-22.912083,-44.055744,-67.796814,-93.027451,-124.27889,-164.0154,-205.39589,-232.02069,-226.21315,-180.81836,-106.19541,-26.741488,31.718809,55.883579,51.246357,36.722324,31.533501,43.404911,65.885307,85.880943,95.143333,96.805603,102.02913,119.47315,145.96858,166.18289,162.49757,128.50702,76.275108,31.359268,18.079212,44.584034,97.813812,151.88834,184.29584,188.93507,177.36653,167.95731,171.07761,181.13515,181.17502,156.65517,108.34264,54.800465,22.26441,28.602512,72.206573,133.18695,185.69881,212.73311,213.5192,199.45428,182.84181,167.56088,148.67055,120.63084,86.867744,62.11853,64.412964,101.71658,163.03081,221.38231,248.05095,229.30632,174.6879,111.26569,67.665131,58.386112,78.362129,110.27701,138.2742,157.7038,174.23788,194.15979,214.5396,222.10442,202.74086,154.80815,95.483994,53.543484,51.673332,89.756004,141.25652,166.83122,137.72548,54.349655,-52.168163,-136.97606,-166.62387,-136.73257,-71.669556,-7.5213342,29.755507,36.806419,28.994509,24.677704,29.905458,34.604877,22.389734,-13.976271,-63.492016,-101.48053,-105.04746,-68.639748,-8.5969791,46.769707,74.894684,72.323837,54.656361,43.410713,49.317081,64.001144,66.096313,37.643181,-20.704967,-86.574501,-127.65067,-121.03648,-67.647392,7.7694945,71.068741,98.381607,88.664513,61.633675,43.108719,47.656517,69.677132,88.212143,81.827713,43.71838,-12.567316,-60.180012,-74.227135,-45.888653,12.863501,76.285034,119.07676,129.45442,113.94067,91.844482,83.203171,97.226768,127.48464,156.01176,163.62018,140.60056,92.139656,35.85688,-6.9001703,-21.200748,-4.830687,32.207466,74.126999,107.68072,127.57221,136.20439,138.64871,136.70479,126.3899,100.80008,56.521824,-0.90980548,-56.746563,-93.003983,-97.573067,-70.991409,-26.49408,17.001331,44.874073,53.685566,50.817383,47.348572,49.055691,51.687302,43.8904,16.076839,-30.605761,-81.466591,-114.22746,-110.81232,-68.109169,-1.052003,64.294456,104.05815,108.78184,87.505592,61.319607,50.134602,60.441547,81.356125,91.465431,72.623672,22.564074,-41.439709,-90.66114,-100.71265,-66.186569,-5.4362898,47.945396,62.822659,27.707432,-42.388409,-113.67146,-151.78421,-140.26715,-88.726768,-26.126627,16.603434,24.146307,4.1177239,-19.879379,-24.634207,-2.586535,33.595287,59.66523,55.752441,19.224854,-33.580875,-77.358391,-92.626953,-75.748589,-38.379295,2.044203,33.383961,53.74371,67.696938,77.886307,79.396049,61.916351,18.477501,-45.882507,-112.66224,-157.89513,-165.01878,-134.2382,-82.089439,-31.471132,1.1693747,13.09846,12.775131,10.326991,8.5873919,1.4208672,-19.683815,-56.135796,-97.532188,-125.87921,-126.23828,-96.392433,-48.626564,-2.2952142,27.594744,37.824272,35.571426,29.948402,23.437445,10.097427,-17.944454,-60.826954,-106.10188,-133.48567,-126.92539,-85.871132,-27.503408,22.437258,44.657722,37.291817,15.477665,-0.15083499,1.846321,15.929104,24.006727,8.9657316,-32.062893,-83.843285,-121.28047,-124.31925,-89.759071,-32.614738,23.204391,58.247597,66.268913,53.647713,31.486856,7.0721974,-19.092096,-49.33527,-82.087257,-108.49874,-115.79386,-95.419708,-50.203217,4.8578348,49.217812,66.814873,53.325073,16.555153,-29.405901,-71.791191,-103.61802,-123.12539,-130.23424,-123.94091,-103.115,-69.818764,-31.780434,-1.0701033,11.000684,-0.4233706,-31.399851,-71.854279,-111.25626,-143.17049,-165.64934,-177.96005,-177.28943,-159.18652,-122.26413,-73.502136,-28.848711,-6.5079818,-15.834758,-49.134441,-83.198959,-91.633575,-61.439697,-3.2468493,52.548561,72.865799,42.413326,-25.41184,-94.841995,-128.13846,-107.65371,-45.663036,24.274275,68.71817,74.48156,54.419735,35.544125,38.126289,60.546127,80.568108,72.216362,26.360924,-39.758785,-91.413879,-98.25666,-54.508137,16.466585,76.688644,97.66925,77.9104,42.057316,22.488995,36.170959,72.79982,102.40024,97.018166,51.361534,-12.032365,-56.798,-56.350121,-10.974269,53.096786,101.58831,114.42237,96.995316,73.255554,66.273918,80.652954,99.446632,97.599335,61.944305,3.0794721,-49.729752,-67.304916,-39.877632,16.540442,71.082558,98.404503,94.165207,75.019737,63.77182,70.948746,86.45359,87.458961,56.774967,-1.8385086,-62.947285,-94.485374,-78.439087,-22.854963,43.218327,88.399536,98.404381,83.021683,66.272346,67.137375,84.651764,97.844887,80.47332,20.211884,-70.94471,-162.06177,-220.61334,-230.20509,-197.50247,-145.07623,-96.365807,-63.43652,-44.963608,-33.813213,-26.804226,-28.51763,-46.440632,-81.889267,-124.5679,-155.85977,-159.22987,-130.59798,-81.306564,-31.502174,1.5304227,12.175648,6.8751926,-3.3029006,-11.882491,-21.126284,-38.401653,-67.959846,-104.63591,-134.43159,-141.88193,-119.31827,-71.984184,-15.989499,29.165257,48.724117,37.231445,-1.5947804,-57.740795,-117.89119,-167.55098,-193.31879,-186.57152,-147.90154,-89.371796,-31.473883,5.4781594,11.58007,-7.0624795,-31.749277,-42.551701,-31.036919,-6.151556,11.039506,0.91757733,-41.328655,-101.25581,-152.72415,-172.7603,-154.2925,-108.85638,-58.099869,-20.231533,-0.50976253,8.4101572,17.52313,31.031654,42.190083,38.385098,11.639016,-33.192833,-78.666435,-103.70145,-95.528381,-56.917881,-4.2046323,42.30323,69.179092,75.288002,69.056099,60.356136,52.989452,42.799229,22.285345,-11.83464,-53.495811,-88.226547,-99.881622,-79.352379,-30.343046,30.97706,82.334457,104.63312,89.835609,43.988224,-15.73762,-68.462128,-98.069649,-98.974136,-76.745262,-43.663525,-11.821918,12.365123,29.277601,42.578484,53.827644,59.317146,51.817608,26.462198,-13.275058,-54.229324,-78.83181,-74.499374,-41.324924,7.2370257,51.686668,77.425385,82.252693,75.436333,69.089127,68.054588,65.76873,49.483368,11.457552,-41.983246,-90.701698,-111.28046,-91.438522,-38.676834,23.125637,67.475533,80.570023,68.063812,48.913551,40.748688,47.081051,55.379631,47.38652,14.316094,-34.084347,-73.547844,-80.210426,-46.487,13.048217,70.097252,99.984749,96.386261,73.666855,55.497318,57.745949,77.443245,95.31694,90.00473,54.055119,0.67657238,-43.426308,-54.344246,-25.56465,28.565426,82.309441,114.18357,118.33369,104.70597,89.033752,80.485458,75.881615,64.225334,37.726662,0.86948842,-29.490854,-33.660934,-2.1377783,56.573841,118.77127,157.56325,156.87346,119.1998,63.037899,12.254644,-15.839661,-17.023924,1.3352737,27.365734,52.063473,72.530411,90.124969,106.04385,118.10461,121.05666,109.98067,84.238144,49.263634,15.056709,-7.725378,-11.955667,3.4642437,33.659668,70.000374,103.3242,126.86344,137.86356,137.41566,128.71686,114.71088,96.518532,73.802696,47.075779,20.434517,2.3500102,2.8522301,27.719,72.813942,122.68079,155.71431,154.3391,114.93301,51.392368,-10.673696,-46.619701,-45.284515,-13.94694,27.303192,58.195156,69.815376,67.687798,64.74028,69.462204,77.986984,76.184181,50.735836,1.4620117,-54.338383,-89.687714,-83.635406,-34.704395,37.20763,102.33707,138.76056,144.62132,136.65123,136.00497,151.21629,170.29399,167.88803,123.08551,35.847618,-69.34758,-155.66609,-194.29703,-179.94101,-131.65372,-79.177559,-44.483841,-30.950396,-26.691822,-18.345379,-4.3631058,2.3460338,-15.558887,-64.68911,-132.19049,-190.58069,-213.58055,-192.31624,-140.70926,-86.274864,-52.6745,-46.023354,-54.120346,-58.482506,-49.976036,-36.428726,-36.585457,-64.814445,-117.8573,-173.67351,-203.8987,-191.68863,-142.70517,-81.608635,-36.417213,-21.430395,-30.24284,-43.161762,-43.232944,-29.199503,-16.150187,-23.539034,-59.31638,-111.71783,-154.89259,-164.8434,-134.91823,-80.336975,-28.712137,-2.9780743,-8.0975618,-30.084812,-47.410294,-46.60614,-31.414063,-19.543356,-29.598392,-67.193611,-119.53556,-161.95955,-172.14345,-143.08281,-87.098557,-28.97121,7.2580824,10.133281,-14.788228,-49.244411,-71.960724,-68.35231,-35.981369,15.628744,69.599358,108.27387,119.41144,100.28865,58.640728,10.041471,-27.682037,-41.133289,-26.389925,9.9818058,54.528721,93.299858,117.62578,126.29555,123.38898,113.72128,99.225029,78.710068,50.91716,18.362923,-11.168049,-27.050503,-21.036921,7.8456163,51.76619,96.965912,129.47186,140.57881,129.44649,102.05402,67.763489,35.649612,12.216405,0.81412685,2.0319993,14.202039,33.74593,55.714687,74.913742,87.440094,91.850746,89.142952,81.43573,70.210495,55.436687,36.403969,13.849302,-8.1724215,-22.402895,-21.155563,-0.68190473,35.273869,75.144493,103.3369,106.80656,81.309944,34.071869,-18.772541,-58.973198,-73.982048,-61.974056,-31.670731,2.7366354,28.716473,40.754822,41.243801,36.827744,32.740093,28.758871,19.329321,-2.2131693,-37.9818,-82.093651,-121.85809,-143.26393,-137.82173,-106.93141,-61.31506,-15.843307,17.387873,34.064014,38.364838,39.48241,46.192947,62.380836,85.442719,107.75765,120.03487,114.98324,90.191063,49.67765,3.773061,-33.08934,-46.83017,-29.60947,15.085398,71.132996,114.31364,122.02264,84.23304,10.036002,-74.566895,-137.6913,-156.46336,-128.05026,-70.591705,-13.136927,20.029589,21.827084,4.4105167,-10.300209,-5.7335982,17.999292,43.784695,48.649647,19.5338,-36.348698,-93.545433,-122.18607,-105.48186,-50.15353,16.913416,64.108566,73.38987,50.240143,19.109373,7.1390028,26.320168,65.323509,96.279556,92.447144,45.819946,-26.363075,-90.432495,-115.1962,-89.508568,-27.971687,38.379761,80.380013,86.740242,68.314095,48.746529,48.045387,69.623184,98.651405,112.15662,94.011787,45.352493,-15.673477,-64.035469,-81.166534,-63.559273,-22.29492,24.934574,63.545151,87.643021,99.138878,102.53696,99.928703,89.749504,69.614281,40.518299,8.9071169,-15.140824,-22.57189,-9.9616728,18.616631,53.265076,82.213989,95.861382,89.26532,62.751644,21.272207,-26.777981,-71.102066,-101.60719,-111.02271,-97.279877,-64.452576,-21.446672,21.237194,55.184383,76.373428,85.093399,83.891777,75.106598,59.625805,37.55566,10.138782,-18.575914,-41.669754,-51.295597,-41.87616,-13.08941,28.810322,72.153114,103.34735,111.61565,93.229378,53.428467,4.9069681,-36.86113,-59.614162,-58.868645,-38.803665,-9.0743742,20.521315,44.303898,61.393318,72.765129,77.279617,70.203064,46.055714,4.2812862,-46.434563,-89.238411,-106.3534,-88.855919,-42.856144,12.52512,55.048195,71.501984,64.530548,49.568447,43.609703,53.042263,68.693611,71.698013,46.638767,-6.6152172,-70.402039,-118.17442,-129.4539,-101.43373,-49.957043,0.53433412,31.415091,39.401558,35.437618,34.360909,42.759125,53.334747,49.485081,16.914164,-45.472702,-122.50578,-189.45807,-224.32823,-218.36282,-179.09016,-125.04219,-76.165787,-45.688366,-37.261078,-47.331757,-69.679031,-98.638237,-129.5302,-157.34818,-175.97221,-179.38832,-164.47009,-133.39371,-93.804779,-56.283573,-30.386744,-21.357502,-29.059273,-49.271431,-76.187477,-104.53941,-130.34761,-150.37129,-161.20192,-159.14052,-141.45459,-108.64743,-66.472473,-26.106209,-1.4566026,-3.9691138,-36.928539,-92.211792,-151.89258,-194.92133,-206.23477,-183.75995,-139.29488,-92.31308,-59.810505,-47.909187,-50.195366,-53.809925,-49.429646,-38.608391,-33.428783,-48.323338,-89.189659,-147.03008,-200.73384,-227.82501,-216.77675,-173.31696,-116.88251,-69.598541,-44.776463,-41.922108,-50.703945,-60.379292,-67.80529,-78.550194,-100.66927,-135.89297,-174.78201,-199.6965,-194.14375,-152.76558,-85.698547,-14.474987,38.285202,59.625481,51.690205,29.313847,11.508258,11.509724,30.307304,56.493744,72.210579,62.333153,22.744709,-36.130657,-92.556175,-122.63519,-111.59479,-61.719913,7.6615777,69.084129,100.7383,97.729134,73.994453,53.085571,52.842091,73.364372,96.348907,97.011421,61.513954,-1.4563751,-63.256424,-91.386757,-69.375114,-7.5729222,62.596748,107.68948,112.37929,87.484116,60.613949,55.880119,76.612823,103.06023,106.76268,71.693199,7.394824,-55.287563,-83.293846,-62.369938,-5.7426405,55.293755,92.109695,96.318939,82.247551,73.254959,82.387749,101.74892,108.46551,82.926651,25.847908,-38.688747,-77.119698,-67.921555,-15.827042,51.207951,100.119,113.21381,96.877708,73.053452,60.522415,60.227982,55.599728,27.490381,-27.73922,-91.080551,-130.9095,-123.72501,-70.894135,0.90830326,56.414211,74.149544,58.797573,34.944321,27.017027,40.261677,56.898788,50.516823,8.2399893,-55.901131,-107.03407,-111.66497,-60.819927,22.396051,96.736923,129.08347,115.01841,79.494232,57.29974,67.27523,98.65876,119.34517,100.23133,38.262352,-38.479397,-87.736519,-80.634262,-20.826725,57.990036,114.37991,125.77927,101.1697,71.595085,65.921181,89.399529,120.22663,126.24428,89.560959,21.35627,-43.770592,-70.018936,-43.685436,18.491501,81.290176,114.43075,110.99766,88.503723,72.902618,77.879646,94.647003,99.411491,72.687279,16.079151,-45.919743,-80.736839,-68.882523,-16.742258,47.747875,93.289642,104.55898,89.611916,71.012154,67.766121,81.218178,94.712898,86.767784,47.996685,-10.310784,-61.891884,-81.413177,-59.71077,-8.4518929,48.106266,87.947929,102.6658,98.618416,88.645775,81.321663,75.516685,63.417889,38.855343,4.3426929,-28.284931,-43.921207,-32.732502,4.1720262,54.886478,101.83736,128.63811,125.54108,92.101715,37.208813,-23.071163,-69.796623,-87.355949,-69.954575,-25.222731,28.070177,68.468498,82.646881,72.277481,52.12149,39.773392,43.294876,55.122601,57.041439,33.595303,-14.964941,-69.57711,-102.30317,-93.547119,-45.257317,19.136909,68.664673,83.746071,67.517197,41.851467,30.765556,42.672943,63.927006,68.419655,36.844528,-27.68108,-98.735542,-141.62448,-134.63164,-82.463966,-13.057445,39.956696,57.376659,44.020687,22.127489,13.933228,25.793726,44.580875,48.234875,22.598545,-27.320227,-79.259148,-107.16702,-96.931892,-54.066196,1.0044515,45.960262,68.776886,71.459351,64.208099,55.528267,45.943214,29.526257,1.3167378,-35.58802,-68.964363,-83.503319,-69.887566,-30.791031,20.001465,64.456757,88.573166,87.293091,64.19239,27.708788,-12.693962,-48.227627,-70.783882,-73.354164,-52.302727,-10.562848,41.060772,86.861435,113.05421,114.86632,99.260284,80.883469,73.115761,79.577225,91.637413,93.951202,74.945282,35.782169,-8.084218,-34.297009,-26.001394,17.882399,80.629036,135.36497,158.32762,140.51637,91.539177,33.923592,-8.5872488,-22.188564,-7.8204236,22.217251,52.96785,75.213631,88.662689,98.63369,109.17716,117.79635,115.77371,94.264084,52.211559,0.47242898,-41.456703,-55.062492,-33.359276,14.277884,66.556801,101.88961,110.34965,98.501831,83.860214,82.324989,96.71788,114.18077,114.64861,85.253632,31.189796,-24.658796,-53.974895,-39.918934,12.037864,76.640022,123.60531,135.48134,117.20959,91.185493,81.023201,94.765907,118.86318,127.29105,100.12217,39.269989,-29.510069,-70.636757,-60.566555,-3.8449969,67.165802,109.47123,93.636734,20.641754,-78.561485,-160.30705,-191.8503,-167.55115,-108.82394,-49.154644,-14.221602,-9.2835312,-20.59222,-28.415949,-22.233292,-8.0073709,-3.2158713,-23.499598,-70.115761,-126.61396,-167.03993,-170.58804,-133.64487,-71.958099,-11.883341,23.722656,26.484848,4.3178635,-26.00721,-49.970013,-62.767418,-68.867538,-75.027946,-82.578545,-85.037109,-73.10125,-43.514751,-5.0825291,23.432501,23.416531,-11.388467,-68.688156,-122.37408,-146.31062,-129.17441,-81.101753,-27.646255,5.4945788,7.4869585,-12.441674,-32.911674,-36.104221,-20.679354,-2.9950025,-5.4954443,-39.930798,-96.92691,-149.53986,-169.16518,-143.6682,-85.681877,-25.226784,8.8386106,6.4481058,-18.622602,-39.623245,-36.230339,-9.2498312,19.521557,22.366537,-14.497335,-79.839851,-142.87384,-171.85428,-153.54086,-100.68215,-42.839638,-7.1277232,-2.069227,-15.235397,-25.498178,-20.491642,-6.4159937,-3.023407,-27.437067,-78.702591,-134.75764,-164.87154,-149.56834,-94.378288,-27.585016,17.067175,21.377768,-6.6370258,-39.554996,-50.158112,-30.480995,2.6392181,19.22961,-2.9071777,-62.199722,-132.95125,-180.73354,-183.1832,-142.58919,-82.594162,-32.157387,-8.1396284,-8.0047026,-16.447973,-19.892424,-17.677485,-21.793993,-45.762199,-91.322807,-143.25655,-176.77272,-172.78955,-130.59869,-69.02504,-15.108759,12.03737,11.281451,-3.0923066,-14.177621,-15.916465,-17.342937,-34.423691,-75.397774,-130.53317,-174.51416,-180.9798,-139.98424,-66.473404,6.6763124,47.401966,43.291695,8.3541431,-26.861023,-35.599018,-12.606263,22.319628,37.380062,10.131331,-56.579777,-134.43881,-185.56471,-184.62422,-133.44083,-59.241737,1.9745849,26.30204,14.147577,-13.155448,-29.26088,-20.499359,5.9419231,27.997524,24.245668,-11.495756,-65.830658,-113.98145,-134.67415,-121.9633,-86.865089,-48.710773,-22.749504,-12.377831,-10.542469,-8.2444344,-3.3173814,-2.8929017,-17.811907,-53.148346,-101.84313,-146.31757,-167.42607,-155.09023,-113.83818,-59.918243,-12.174911,17.312429,27.191742,23.81608,14.406145,1.7393662,-16.023592,-40.909332,-70.100853,-94.645279,-103.34418,-89.370781,-55.088127,-11.745869,25.783625,45.838726,44.268654,24.203354,-7.482141,-43.865074,-79.335381,-108.59512,-125.46307,-123.77863,-100.67986,-60.050228,-13.082914,25.438019,43.510902,37.197693,11.561268,-23.11338,-57.000217,-84.389656,-103.23975,-111.94529,-106.97426,-84.323982,-44.416355,3.4275353,41.532433,51.062862,22.602287,-36.441711,-103.17121,-149.73402,-157.50073,-126.50636,-74.342293,-25.206015,3.9449677,11.428111,8.3397913,7.9108195,14.510396,20.130604,10.812672,-21.597237,-70.854439,-117.35574,-138.71193,-123.14516,-76.901749,-20.744411,22.203205,39.337456,33.97049,20.227453,11.508547,10.731134,9.0495014,-6.2790375,-40.579762,-85.094246,-119.9393,-125.21708,-93.344292,-34.758526,26.731455,66.32373,71.13562,46.388229,11.765943,-9.5174789,-2.69611,31.731215,79.250275,119.23514,135.1185,121.98725,88.505524,52.785786,34.277992,45.17976,85.002998,140.75931,192.95172,224.8676,230.71318,218.19189,203.67429,202.18555,217.80365,240.44014,251.61864,236.41051,194.43262,142.69812,107.66434,110.49216,154.13939,220.29739,278.45535,302.00116,281.94366,230.38144,172.27231,131.18623,117.9437,128.41312,150.27794,172.81534,192.51758,211.29163,229.91214,242.96872,240.1619,213.60092,165.69957,111.23581,71.035004,60.796181,82.35054,123.25954,164.98718,193.95895,207.94164,213.73752,218.6201,222.51881,217.28654,193.8826,152.02614,104.54144,72.139359,71.356369,103.72594,153.94385,198.77499,220.93056,218.52167,203.73053,191.97482,189.65063,189.54463,177.37073,144.60167,97.868187,57.388466,44.76545,68.419868,117.08241,166.35547,194.09801,193.9223,177.25757,162.6093,160.06712,162.87057,152.92641,116.8107,60.388714,10.102069,-2.1641877,38.249077,114.06844,180.95874,191.17526,122.34034,-6.8014941,-144.43764,-233.54874,-242.93993,-182.66269,-94.934532,-27.132187,-4.4072442,-18.879545,-40.881855,-43.159977,-20.964396,5.3761177,6.3586149,-33.97366,-104.48718,-171.97672,-201.35576,-177.45691,-114.05527,-44.527748,-0.79794383,5.3707838,-13.176768,-30.79377,-28.309937,-6.5222282,14.865961,11.555619,-27.820177,-92.701477,-155.839,-189.01248,-178.96829,-133.76138,-76.344231,-30.402731,-7.7830625,-4.9399033,-9.413434,-10.893689,-9.0381737,-13.0306,-33.657719,-73.556152,-122.2828,-159.67064,-165.78137,-131.82469,-65.85981,9.9972677,69.565567,94.74794,83.736153,51.19035,20.331947,10.929196,29.261143,65.229675,98.187515,108.47432,88.479637,47.122551,5.1542177,-16.142918,-6.4019771,28.862173,72.559479,106.73555,122.85764,125.1705,125.17921,131.22577,140.50546,139.35747,112.1345,53.019436,-27.168472,-104.1756,-152.12428,-156.91461,-123.09827,-70.264145,-21.605516,7.9535918,16.946314,13.584872,6.7470689,-1.4410672,-16.332712,-44.814819,-87.492966,-134.98531,-171.23956,-181.83212,-161.87628,-118.65093,-67.753716,-25.710506,-3.6901786,-5.3801155,-28.725138,-68.770599,-118.99813,-170.83505,-213.32156,-235.17612,-229.40398,-197.85043,-152.08893,-108.90351,-82.2817,-76.645973,-85.755997,-98.204048,-105.95507,-110.09093,-119.58407,-143.62613,-182.65686,-224.55508,-249.37744,-240.42944,-194.98108,-127.64362,-63.672733,-25.682753,-21.510696,-40.526897,-60.723862,-62.444225,-40.576275,-7.910182,12.417715,1.0031694,-45.470795,-110.85683,-167.20512,-189.18927,-167.21588,-111.98281,-48.177528,-1.117435,16.057985,7.625288,-9.5330963,-17.47781,-8.4893389,10.4862,22.563702,11.729795,-26.79755,-82.71106,-135.3295,-163.95587,-157.92065,-120.95429,-68.168686,-18.181324,14.80507,25.006069,14.237137,-11.619728,-45.748257,-81.380333,-111.2636,-127.67738,-124.43742,-100.24599,-60.975868,-18.594343,13.469161,26.129152,18.180361,-4.4942498,-33.177151,-60.854763,-83.939056,-100.53408,-107.57098,-100.21764,-75.122467,-35.551163,5.9581947,30.944429,23.940117,-17.926144,-81.069511,-140.83096,-173.77945,-169.77985,-136.3627,-92.695389,-57.265732,-37.560627,-28.527899,-20.322639,-9.1182728,-2.4467092,-14.463258,-54.077942,-114.65804,-173.6391,-203.78178,-189.43369,-136.96765,-71.84861,-23.585049,-8.1846285,-19.738892,-36.761124,-38.847588,-22.041857,-2.0580955,-2.8840599,-38.542919,-100.80064,-161.78001,-190.30135,-171.27945,-115.23385,-51.542202,-9.986268,-2.9207833,-19.743212,-36.794537,-35.339897,-15.045284,6.1597619,5.3609204,-28.376419,-85.079773,-138.93582,-163.71477,-148.17058,-101.55938,-46.489582,-4.7696061,14.041141,14.464111,7.6008897,0.89422297,-7.1130486,-23.685562,-53.529816,-91.932594,-124.77539,-135.62628,-115.09637,-66.283394,-3.0732028,57.105633,101.2477,124.98603,131.7346,128.75803,123.32294,120.74763,123.96757,133.22005,145.31584,153.5719,149.96732,129.61237,95.22599,58.165512,34.083672,34.853638,61.485203,102.84557,141.56773,163.74129,166.20248,156.66472,146.76079,143.00359,142.15607,134.37021,111.8446,76.660385,41.8633,24.55625,35.432018,71.785034,118.70947,157.60214,176.20569,173.69009,158.06682,138.71123,119.93976,100.25095,77.157433,53.102364,37.112278,40.175907,67.322029,112.20608,158.55566,188.08138,189.91783,165.60657,126.79996,87.863434,58.732857,42.520161,38.316376,45.616215,65.89209,99.681374,141.81012,179.5752,196.93019,183.13138,140.35739,84.676033,38.808769,20.678652,34.747761,71.376831,114.0605,149.20009,171.79637,183.90468,188.28255,183.15993,162.87114,124.11607,72.703812,24.633884,-0.72906125,8.3925791,48.514847,102.18778,147.87973,171.929,174.39809,164.94496,152.10617,134.39365,100.50594,39.266109,-47.694458,-140.37912,-207.60233,-223.71765,-184.47878,-111.21971,-39.683392,0.082644276,0.15913074,-22.988495,-41.736813,-37.119606,-11.998222,11.145277,6.1906462,-37.688183,-106.89324,-170.23447,-197.27026,-176.21614,-120.02421,-57.257114,-14.335089,-0.97064817,-7.83532,-16.893551,-16.379009,-9.7116165,-12.309155,-38.809334,-89.805397,-147.48778,-183.59657,-174.9847,-117.20098,-27.828854,62.288345,124.59151,146.18929,134.04555,108.66184,91.778114,95.220894,116.42171,141.85722,155.48169,147.28923,117.95187,78.005409,42.723183,25.445072,32.34333,60.643082,100.69933,140.63463,171.11522,187.84154,190.65939,180.30522,155.48213,112.96472,51.40723,-23.451048,-96.367462,-146.24255,-155.44771,-120.16153,-55.122959,11.464417,51.442696,51.5005,20.367758,-16.641022,-33.223904,-18.697939,14.752695,39.185612,28.467913,-24.417364,-101.26822,-167.93559,-193.54561,-167.94989,-106.77351,-41.24918,0.45789564,8.6392374,-5.1299982,-18.654526,-15.575535,3.4079282,21.6422,18.671179,-15.011237,-70.415237,-124.45226,-153.12349,-144.91278,-106.18762,-55.996498,-14.456741,7.5419998,11.328989,5.5488143,-2.0626869,-10.09196,-22.65357,-43.744526,-71.466492,-96.639442,-107.00594,-94.290077,-59.516933,-13.293823,28.947523,53.762444,54.772991,33.799706,-1.5743027,-41.813454,-78.355621,-104.73421,-116.49146,-111.0947,-88.546646,-52.35741,-9.8880987,28.751913,53.268776,56.381763,36.43494,-1.6137933,-47.306057,-87.693192,-111.39439,-112.36227,-91.888145,-57.84935,-21.328777,7.9160805,24.865206,29.736479,25.481077,14.170569,-4.9413719,-33.949203,-72.203728,-112.70571,-142.40079,-147.51187,-121.44981,-70.407448,-12.431319,30.469757,43.071213,24.213749,-13.829226,-53.37793,-81.455467,-95.394684,-100.63644,-103.05373,-102.14648,-90.812355,-62.378754,-19.683434,21.363815,38.0467,14.283631,-47.232136,-122.97301,-179.42111,-191.1218,-154.96828,-91.555923,-32.506485,-1.7309884,-2.5597615,-18.740091,-28.039713,-18.852079,1.5744615,12.693056,-4.1370115,-51.482265,-112.48199,-160.50333,-175.09888,-153.52951,-110.57404,-67.64209,-39.36377,-26.89612,-21.700417,-15.728852,-9.5657959,-12.153092,-32.522034,-70.252068,-112.45794,-140.21584,-140.18208,-113.1327,-73.266365,-38.816074,-20.791111,-17.872417,-20.71715,-21.80341,-22.808056,-33.501923,-62.788551,-108.81135,-156.2001,-183.50674,-176.30649,-136.90981,-83.614174,-39.634853,-19.144243,-19.936193,-27.55094,-27.583841,-17.165619,-7.3379569,-14.670795,-48.186848,-100.9616,-152.40099,-179.70215,-170.78831,-130.37242,-75.916893,-27.17733,3.2461135,12.757865,4.9914203,-15.796059,-46.892323,-84.511017,-119.88279,-139.22231,-129.69992,-88.16021,-25.982855,34.785351,72.964806,80.482239,67.062431,53.763824,59.308762,88.267418,129.02904,162.75037,176.81503,173.22496,166.04034,169.88567,187.99986,208.69209,213.07387,188.84274,140.46277,88.460999,58.037392,64.467812,104.79867,160.8085,210.5067,240.02084,248.24799,242.41597,229.30884,209.55363,179.31007,137.4772,91.922112,58.756798,53.963322,82.759254,134.40549,186.82494,218.67767,221.192,201.96036,178.24931,164.4959,162.61943,161.80974,147.88292,115.62573,75.339386,48.560322,55.162048,99.919205,167.26563,228.00462,254.35558,234.63837,179.18787,114.40266,68.742165,58.801155,82.945595,125.12054,165.5249,191.36937,201.69031,204.32153,207.95058,214.83208,218.85802,210.04332,182.37961,139.87141,96.612503,70.344841,72.966225,103.53129,148.11328,187.00307,205.31622,200.79909,184.03212,170.71272,170.69753,180.84966,186.72963,172.68402,134.18707,84.09745,47.621056,47.703552,89.161285,151.73509,197.74176,191.39963,119.36523,0.3920534,-122.27368,-202.23438,-213.31471,-161.87143,-81.347878,-12.738153,17.342068,8.4240046,-18.113743,-35.45068,-28.957129,-4.2921429,18.111189,17.553408,-13.219021,-63.554199,-111.65604,-137.40883,-132.9005,-104.66265,-67.51696,-35.147861,-13.775517,-2.2486815,2.961045,2.5125294,-7.155242,-30.516699,-67.830269,-112.26807,-151.62343,-173.63564,-171.60069,-147.00592,-108.1205,-66.027901,-30.721462,-9.0771408,-4.7050362,-18.407299,-48.111584,-88.344856,-130.34933,-163.84502,-180.24142,-175.79713,-152.92923,-118.9036,-82.747192,-52.211117,-32.279938,-25.389933,-32.286182,-52.261566,-82.46125,-117.14255,-148.18732,-167.3662,-169.44737,-154.36905,-127.10178,-95.287834,-66.171104,-44.659637,-33.344002,-33.743141,-47.165112,-74.048058,-112.0964,-154.79869,-191.97885,-212.7791,-209.80519,-182.28371,-136.60638,-84.136452,-37.548931,-7.3795748,0.19279432,-15.728173,-50.719822,-95.75528,-138.98079,-168.7682,-177.40889,-163.86418,-133.9088,-97.237495,-63.002972,-36.428993,-18.533094,-8.7910719,-8.3058929,-20.488771,-48.09005,-88.475655,-131.04707,-159.884,-161.24498,-131.76373,-81.845383,-31.247673,1.2229867,7.8172021,-4.6675806,-20.419689,-25.690916,-18.144625,-8.1870804,-11.27773,-36.311813,-77.940041,-118.18891,-136.59451,-122.4049,-81.043152,-30.850866,7.5089602,22.022501,13.908093,-6.2943087,-27.473969,-45.007034,-61.409924,-80.885475,-102.57507,-118.1523,-116.0619,-89.694405,-43.727177,6.1141086,40.258327,45.227242,20.336243,-22.621195,-66.018913,-95.013496,-103.19511,-92.877045,-71.230461,-45.618275,-21.018145,-0.15529791,15.122544,23.109526,22.780346,14.701541,1.0150342,-15.774724,-34.073753,-53.053986,-70.848778,-82.690491,-81.344887,-60.840488,-21.756245,25.720936,64.195877,76.87532,56.774925,11.566458,-39.590046,-75.959129,-86.089142,-72.90686,-49.942299,-31.419924,-23.063868,-19.886675,-12.259819,4.4029007,23.725115,31.019732,13.168155,-31.023809,-87.48996,-133.49048,-150.21059,-133.21434,-93.95536,-51.625549,-21.164124,-5.6536517,2.0768054,10.567397,20.707525,23.666851,7.5780869,-31.885601,-85.061638,-131.31059,-150.14322,-133.2303,-89.220367,-38.146976,0.67404765,19.025703,21.71681,19.5124,18.910892,16.618986,2.8235111,-29.344429,-75.497108,-119.49152,-141.78542,-131.2177,-92.139076,-41.935974,-0.62813014,20.360231,22.795803,17.031191,12.206634,8.8050566,-0.88816833,-24.886663,-62.29348,-100.10621,-119.19225,-105.98812,-62.103119,-5.0048494,41.281235,59.874767,50.518246,28.790182,15.534678,23.174711,47.490437,69.972855,69.317772,35.107586,-24.486258,-85.546883,-120.27318,-111.33459,-60.984184,9.815979,71.668205,101.03436,91.302269,55.184719,17.451628,1.8406153,18.86908,60.775902,106.14132,131.67188,124.80714,90.327415,47.431343,19.087807,19.833015,48.952892,92.630539,133.1395,158.97192,169.56787,172.19795,173.93208,174.86467,167.64786,143.70126,101.51933,50.813217,9.0423641,-7.7498817,6.1909471,43.594109,89.130402,128.33049,154.20273,167.40793,170.94888,164.53581,143.86292,105.83717,55.536079,8.4935741,-15.177795,-2.1904645,44.479164,105.28583,154.35869,174.31931,165.98691,146.23224,135.15799,141.29146,155.18639,156.26152,128.48804,74.062408,15.135616,-18.378176,-7.279459,44.401978,111.3874,162.51883,179.40883,166.08615,143.5421,133.38882,142.18553,157.32024,157.16028,128.1776,76.846535,27.681984,8.3554935,31.786705,87.306847,146.92319,182.56233,182.84259,158.3864,132.52882,124.14409,134.50626,147.17682,140.91647,106.65559,56.643368,18.96541,20.300814,67.722,141.34099,203.05466,216.72052,168.06628,72.783051,-31.675831,-105.56291,-126.35616,-97.735374,-44.075695,5.0660052,30.833847,32.495319,23.360571,19.125357,26.550762,39.363461,43.267002,26.279919,-12.361333,-60.241089,-97.818649,-108.76768,-88.520889,-46.241486,0.56375992,35.357906,50.365433,48.627945,39.705002,32.164932,27.737823,20.75556,3.1071332,-28.542015,-68.005455,-100.65276,-110.20976,-87.701469,-37.493797,23.191935,71.406029,88.741333,69.557678,23.09655,-31.327888,-73.344521,-90.120277,-80.515434,-53.389271,-21.695913,4.1162438,20.036669,28.225626,33.40247,38.38932,41.497658,37.239647,19.971197,-11.543691,-51.269848,-86.690308,-103.47818,-92.231049,-54.013496,-1.5062016,45.637383,69.672073,63.679874,35.59763,4.4662919,-9.8708048,1.6579171,31.240112,57.791519,59.106834,25.963573,-30.338482,-82.328621,-101.07848,-73.201622,-10.008076,57.21254,93.698662,80.190796,23.287653,-48.870739,-102.80009,-117.83244,-95.43615,-54.802082,-18.618097,1.0760689,7.8044696,13.963346,28.254366,46.845409,54.920395,37.652893,-7.2842784,-64.908913,-109.8553,-120.93207,-93.80558,-43.401436,5.526382,33.339672,36.160847,25.597073,18.463381,24.050648,37.719124,44.822388,31.722485,-3.9809859,-50.889927,-90.20874,-106.36203,-94.775009,-62.432625,-22.150705,14.557401,41.190269,55.244675,55.107155,38.708691,5.5910773,-39.551849,-85.645569,-118.60899,-127.92979,-112.16329,-79.432671,-42.476799,-11.732402,8.7352648,20.011032,23.620647,17.883585,-1.1177236,-34.441319,-75.429085,-109.93993,-122.9302,-107.55405,-70.345123,-28.202148,1.4392118,10.797221,5.2463355,-2.3318903,-2.2303591,4.2488761,5.7168498,-10.120758,-45.730759,-89.558701,-121.87875,-126.90122,-102.71378,-62.096954,-23.821207,-0.85691363,6.0236354,5.0459933,3.7945232,1.2010796,-12.10027,-44.94648,-95.181778,-146.27695,-174.90198,-165.1483,-119.64468,-59.330826,-11.325362,7.2488723,-1.4378309,-19.755054,-28.660652,-21.898613,-10.278912,-13.119637,-43.103268,-95.433952,-149.0397,-178.9973,-171.5732,-131.75841,-78.799652,-33.699673,-7.8130183,0.021253183,-2.7206397,-11.297903,-27.834723,-57.340855,-99.387909,-143.03255,-170.24861,-166.41698,-130.51891,-77.246155,-28.813574,-1.774505,2.0355568,-5.8503151,-11.034166,-7.9693913,-4.0875006,-13.210021,-43.192348,-87.235992,-125.82314,-138.50369,-117.43479,-73.031921,-27.559647,-1.0405387,0.68531412,-12.458434,-24.254738,-25.44002,-20.822859,-24.975933,-49.695431,-92.619751,-135.77927,-155.80197,-139.06993,-91.346703,-35.027935,4.3429213,13.260454,-2.9863863,-26.210758,-39.350235,-38.613903,-35.293198,-46.160816,-79.408638,-126.20578,-164.10011,-170.37996,-136.70186,-75.341255,-12.846881,25.023924,27.774212,5.3259249,-18.858829,-22.072638,4.6416507,52.106758,98.971848,123.73035,115.63283,78.880867,28.942083,-15.806217,-42.081078,-45.584698,-30.022358,-3.1514094,27.300751,55.872166,79.434937,96.055908,103.92432,101.12894,86.342445,59.966228,25.129633,-12.009537,-43.064194,-59.423706,-55.079453,-29.292765,12.193707,58.378342,96.599083,117.15179,116.79828,99.393982,73.331238,47.267025,26.584471,12.518909,4.1041713,1.1856306,5.9992175,21.842306,49.543472,84.315819,115.73158,131.70619,124.61519,95.884842,55.954796,19.260742,-2.8989494,-7.2680635,1.635276,16.420708,32.621918,51.024265,74.738419,103.30277,128.74092,137.5741,118.63696,71.929932,12.07644,-37.173828,-55.111515,-35.700974,8.9052448,55.71262,84.730675,90.409492,83.098343,79.605629,89.498611,106.97964,114.51679,96.145119,51.134914,-2.2262843,-36.613739,-33.665024,1.9811326,42.843647,54.19276,15.896849,-63.429554,-149.54977,-201.67671,-195.85773,-138.17313,-59.788433,2.4705875,27.316803,18.707151,-1.1526343,-9.621419,0.31724834,16.352764,17.199537,-10.866113,-62.922791,-117.16132,-147.88448,-140.75989,-100.40565,-46.123669,0.34746313,26.420973,32.423782,26.5158,15.911809,1.4379089,-20.875357,-53.169643,-89.898865,-117.77038,-122.06264,-95.163681,-41.585236,23.802881,83.024529,123.1208,140.57605,140.42366,131.84583,123.57809,121.35319,127.35152,140.24731,154.95866,162.80684,153.64458,120.45509,64.567398,-2.0272295,-59.958138,-90.804832,-86.285187,-52.814484,-8.2641344,27.531351,42.943638,39.272797,27.373901,18.778999,17.422806,17.49663,8.6921129,-14.949178,-48.792545,-78.425941,-87.302567,-66.53006,-20.792807,33.116852,74.170624,86.808258,67.339989,24.345882,-26.086245,-67.069588,-86.31115,-78.645569,-46.097366,3.333982,57.430897,102.18945,125.2524,119.90303,88.093185,40.663822,-6.0776925,-36.371479,-40.977127,-20.291693,16.774618,57.333954,89.964188,108.36356,111.837,103.15353,85.680687,61.761848,33.160725,2.8419821,-23.633045,-38.647518,-35.342411,-11.473925,27.876907,70.681526,101.89644,109.47531,89.630272,48.628414,0.072805502,-40.995872,-64.113739,-66.470932,-51.834419,-26.649048,3.72259,36.083561,67.49292,92.522018,102.72871,89.894646,51.591194,-4.6888342,-62.387627,-102.36395,-111.81614,-90.421638,-49.835926,-6.7915483,25.83395,44.34177,52.865414,57.005543,57.609978,49.613895,26.937164,-10.331259,-52.299847,-82.721481,-87.890526,-65.101501,-24.660709,16.223143,43.591656,53.892742,53.259083,49.866726,45.594456,33.857552,5.8163238,-39.533337,-89.545555,-122.1066,-118.37791,-75.849091,-12.184463,43.945984,69.837372,62.347042,38.615501,22.996674,29.00841,49.035686,59.521858,38.605412,-15.953908,-81.578987,-123.05138,-114.64382,-57.433067,20.274225,80.256866,98.15641,77.813362,46.531658,34.639103,53.524239,87.422409,104.74929,81.215569,18.680183,-53.530918,-96.158424,-84.800743,-25.371571,50.033718,103.86568,116.37985,95.995728,70.425194,65.40097,86.018356,113.45448,118.95871,85.138962,19.796852,-47.100376,-81.203476,-64.478363,-5.4496546,67.044472,121.74312,142.58708,135.26772,119.83482,115.54188,128.30692,148.3058,157.94044,143.94244,105.71986,55.553093,11.805963,-9.9465742,-3.0229981,29.033295,74.873825,119.33293,147.54329,148.87134,120.45895,69.221161,10.546374,-37.030899,-59.440929,-53.097958,-25.664785,9.1334934,39.43261,60.708096,75.304802,86.875259,94.473679,91.435921,70.513161,31.618191,-14.094044,-47.970341,-53.957832,-28.533127,16.614544,61.487144,89.820313,97.939713,94.243134,89.958405,88.452072,81.714462,57.394058,11.497885,-43.256325,-81.26284,-79.378136,-34.205105,31.076298,76.770752,68.935387,0.37277332,-103.28834,-197.03323,-241.57689,-224.74022,-166.10071,-102.78223,-66.250168,-65.178612,-84.618416,-100.40253,-97.797409,-81.419907,-70.314812,-82.667915,-121.49968,-171.35081,-207.83321,-212.97955,-185.80145,-141.42879,-100.42466,-76.338737,-69.934158,-72.999641,-77.611176,-83.241684,-96.442978,-123.83218,-164.19601,-206.03854,-232.72371,-231.78906,-202.1158,-154.34485,-104.718,-66.807274,-46.423199,-42.119949,-49.564053,-65.695557,-89.560661,-119.84584,-151.89908,-177.32951,-187.10071,-176.22461,-146.87869,-107.8734,-70.878937,-45.793484,-37.75848,-46.814816,-69.38726,-100.03868,-132.53741,-160.41078,-177.72052,-180.37805,-167.48259,-141.79979,-109.00232,-76.15303,-50.27956,-37.381851,-41.399975,-62.526005,-95.210167,-127.54917,-144.00992,-131.76004,-87.979919,-23.574533,40.288033,82.299187,92.507462,77.934509,57.925541,51.310677,63.34869,81.419334,83.203072,52.69207,-6.5204544,-70.21814,-106.57779,-95.437035,-41.266861,29.043182,82.5448,100.12096,86.746368,65.414688,59.194366,74.05928,94.574303,95.496361,61.119156,-1.3701204,-64.190346,-95.700523,-80.271057,-27.806549,33.343159,74.847847,85.341499,74.461334,62.065346,61.274918,68.105034,65.264847,37.105518,-15.614557,-72.478653,-104.72309,-93.595688,-43.010494,22.398853,72.563538,90.124924,79.201813,59.364384,49.820656,55.420746,64.297943,58.305763,28.210135,-17.58987,-57.134964,-68.827835,-45.363911,1.8980325,50.691002,81.801315,89.406914,81.204636,69.437439,60.347092,50.127422,30.034229,-3.8313565,-44.062798,-74.199921,-78.462204,-52.101162,-5.0153561,43.844433,77.204231,87.882332,79.60453,60.813747,37.150986,8.7624617,-25.762331,-62.739849,-90.514099,-94.129417,-65.268753,-10.363047,49.917469,90.973938,98.473015,77.06176,47.234436,31.715425,40.014595,61.549694,72.433281,52.003471,-1.585036,-67.274483,-111.9344,-109.87676,-58.947346,17.110298,81.879463,107.18472,88.914711,48.080303,16.58404,16.640619,46.664906,82.369705,92.362267,58.568748,-11.146732,-86.014069,-129.33755,-119.28165,-61.086243,16.404596,77.557587,99.875877,85.219757,56.067368,39.751106,50.770191,82.096245,110.50723,112.17092,78.454651,22.066336,-30.100639,-52.698551,-36.346687,7.9775639,56.743294,88.376289,95.122879,85.125656,74.212036,73.510185,81.357414,84.716621,68.828812,28.449224,-26.817175,-76.534782,-100.20521,-88.085037,-45.693806,10.098408,60.346058,92.818771,105.53021,104.04208,95.424477,83.251747,66.583076,42.865673,12.213459,-20.029263,-44.154861,-49.97226,-31.698124,8.5090513,60.04018,106.79116,132.72789,128.13153,94.008339,42.448738,-7.8295903,-39.239655,-42.851894,-21.777386,11.57349,42.890533,63.634472,74.271042,81.156456,89.459297,97.377602,96.193993,76.623558,37.181671,-11.645695,-51.15498,-64.391205,-46.018261,-5.4333234,39.122871,71.508705,86.168472,88.443581,86.990471,84.491928,74.230927,45.723354,-4.4754677,-65.221115,-113.28858,-125.74538,-94.50428,-32.951286,30.688372,69.63842,74.028412,55.229351,36.194069,34.51696,49.975739,65.186607,58.81517,21.974722,-33.775005,-82.495888,-99.830994,-77.894463,-29.126316,22.929838,58.892101,74.044708,77.314957,80.631538,87.44873,89.363663,73.274109,33.397858,-21.232609,-69.81469,-91.546799,-77.918922,-37.044365,12.529093,53.529873,78.635086,90.483711,94.399239,90.755692,73.804466,38.156319,-12.532996,-62.500835,-90.33802,-81.505043,-38.269897,20.418375,69.725815,93.364769,91.888924,79.393501,71.435043,73.191437,76.464493,67.430237,39.031757,-1.4856449,-35.716415,-45.76638,-26.014866,13.456887,53.960609,80.310722,89.028694,87.079346,83.013481,78.186546,65.432549,36.452705,-8.0270376,-53.940422,-79.930168,-70.412102,-26.577478,32.855175,82.275719,104.20769,98.503807,79.618111,64.362404,59.237885,56.445175,41.100445,3.932735,-50.122623,-103.75005,-138.00697,-144.04327,-127.45719,-102.7589,-82.832146,-71.656181,-65.427101,-60.197956,-58.826752,-70.633018,-103.28291,-153.24232,-203.14946,-229.76567,-218.08694,-171.87398,-112.60628,-66.777634,-49.879864,-58.098213,-73.449913,-78.506538,-69.888466,-60.579609,-69.281815,-104.62828,-156.06276,-198.55719,-208.35229,-178.80542,-125.12616,-74.577339,-48.993484,-51.832588,-68.563049,-79.53299,-75.569283,-64.823006,-65.964287,-92.873108,-142.17226,-192.89297,-218.84799,-205.26286,-158.29971,-101.20032,-60.014252,-48.642632,-62.650928,-84.66806,-96.31469,-88.105774,-61.643627,-24.83617,14.341737,50.322914,77.984245,90.158615,79.126564,42.631577,-10.13167,-58.740551,-80.364029,-62.841808,-13.27488,44.773499,84.929131,94.049263,79.75106,63.84417,65.81189,87.775902,111.80451,112.03739,73.620049,5.2996998,-63.460415,-99.469398,-85.796204,-31.545042,34.800121,83.520653,100.83969,93.937592,81.537621,77.875618,81.995178,79.791756,56.627972,10.711762,-42.833199,-80.249779,-83.850243,-52.807339,-2.8640895,44.106598,72.803703,80.726715,74.72361,62.077217,44.013771,16.824047,-20.891413,-61.647209,-89.673317,-89.515236,-56.808105,-3.0431585,49.906277,82.297897,87.532982,74.019569,56.842178,45.677639,38.142235,23.616661,-5.4486589,-43.711578,-72.881966,-72.684166,-35.731609,24.319864,77.921204,95.704956,65.523033,-0.39629126,-72.563095,-120.74629,-129.34572,-102.63528,-58.231094,-14.806946,17.201815,36.802891,47.150684,49.844582,44.01199,30.255377,14.685591,7.8108883,17.490465,40.907333,62.687187,62.615334,29.207428,-29.947742,-89.217415,-118.27955,-100.09241,-41.855698,28.658157,79.510208,93.26976,75.857666,50.0518,38.487438,47.955135,65.606728,69.253296,44.207954,-5.1544008,-56.975674,-85.25412,-75.655655,-33.315208,21.816303,67.857269,92.788261,97.635216,90.457726,77.242546,57.361694,26.855879,-13.875181,-55.103458,-80.552834,-76.752426,-42.330521,9.8013897,59.395473,90.262367,98.154327,89.87455,75.011986,57.265778,32.477478,-4.978322,-52.754944,-96.372192,-115.13119,-95.19529,-40.757885,25.503529,74.472084,87.921829,69.502647,41.453972,28.757729,41.36982,66.959427,79.642586,59.103851,6.9520164,-51.427208,-81.601563,-62.113617,0.75990295,75.492805,123.66868,122.41212,76.63063,13.848345,-34.00415,-49.301865,-36.004814,-12.144474,5.577167,13.385338,20.274969,37.315147,65.423691,91.458488,95.987251,67.225044,10.917627,-51.220009,-93.704758,-101.78809,-78.500977,-40.054836,-3.7717905,22.300495,40.864243,57.916405,73.293663,77.572815,58.518452,12.450931,-48.551006,-100.23917,-119.41923,-98.235413,-49.492626,1.1463702,31.113422,34.214142,22.18091,13.727579,19.24556,32.40852,34.951355,11.284263,-37.716835,-92.105103,-123.9892,-115.12782,-68.932014,-8.5171404,37.92099,54.375515,45.221748,29.157173,23.793638,32.260372,41.452908,32.985008,-1.3436384,-51.04121,-91.878815,-101.1572,-72.729782,-21.311197,26.911076,50.822392,46.702824,28.1425,14.2082,14.699004,23.101971,22.118109,-2.4285519,-49.408688,-100.73384,-131.56348,-125.45385,-84.264511,-26.49165,24.262587,52.488461,56.949722,46.719883,31.322012,13.067389,-12.620386,-49.652344,-93.07711,-127.56628,-134.97722,-106.36442,-49.890156,11.703946,53.393986,62.300392,44.659786,20.421476,8.8421974,14.752485,25.059532,18.35606,-18.450279,-77.799118,-132.54184,-151.04623,-117.57909,-45.035892,28.909166,61.222858,27.726912,-62.102493,-168.76653,-243.05751,-251.50676,-192.55388,-94.773132,0.76907408,62.862141,84.070122,79.149788,70.885254,73.731384,86.026649,94.924927,89.272385,70.440453,53.001976,54.629707,82.438377,125.73146,160.8468,165.44978,132.96873,77.52372,25.957266,2.154753,13.868119,50.302422,91.237717,120.68538,135.44064,143.10089,152.04482,161.72591,161.20158,137.43404,87.271088,23.806608,-28.484364,-47.389771,-26.358347,21.616152,72.443657,105.94044,117.03968,115.6785,116.06035,123.68662,130.09679,119.46081,82.226151,25.496559,-28.141224,-53.364307,-37.933704,9.4510469,64.874527,104.56004,119.11733,116.86636,114.42764,122.03252,134.75919,136.36511,112.89104,65.745842,14.107752,-15.814816,-7.4441991,35.315437,90.740288,133.48999,150.15384,145.21463,133.81284,127.57429,124.82227,112.88275,80.590279,30.788099,-17.92728,-43.000134,-35.320198,-8.9814882,5.3411613,-19.464989,-86.592262,-169.4668,-225.91779,-224.07123,-162.99939,-74.017517,-1.3227706,25.289499,7.4184647,-26.402882,-43.004017,-28.844431,0.76053035,13.730946,-14.168082,-79.806488,-152.25415,-191.98372,-176.50179,-114.77065,-40.716393,9.2929373,19.185884,0.65491045,-18.983395,-18.965054,-0.92529517,12.953754,-2.1578429,-53.090183,-120.54893,-169.78734,-172.89546,-127.23369,-57.232651,1.5470326,24.910515,13.632256,-10.649323,-23.436983,-15.865548,-0.40369901,-0.055771265,-29.355686,-81.287865,-129.88388,-146.89471,-120.81145,-64.802216,-8.0017014,23.656221,23.592903,6.5872536,-4.3208303,3.7977982,23.623821,33.19965,13.386152,-35.464546,-90.071259,-117.39449,-96.08757,-31.717358,45.005112,96.496056,101.41593,67.493835,25.542997,8.5133419,29.307585,71.934433,101.84911,88.80835,27.454264,-57.642063,-125.72379,-143.69398,-105.22063,-33.6143,32.575974,61.692379,45.160469,-1.2603202,-50.243057,-80.196808,-85.844254,-76.447845,-64.876923,-56.585495,-46.716732,-26.924641,3.9783397,34.428669,44.836426,20.253941,-37.604015,-107.86198,-160.32413,-172.09918,-140.54289,-84.104263,-30.481842,0.13434002,5.7406044,0.32771644,0.87780356,13.060761,26.030008,20.31712,-16.526873,-77.713463,-137.69545,-166.08705,-146.36397,-86.91851,-16.730167,31.943993,42.680813,23.27771,-1.9629203,-10.551947,1.9667306,19.126125,15.9963,-21.664976,-85.00795,-145.38913,-171.58731,-149.52823,-91.247467,-27.065126,13.667112,20.196117,4.6279545,-9.5464649,-6.106051,11.492252,22.815334,6.3429589,-42.833458,-106.35807,-152.27724,-154.91106,-111.5571,-44.609497,12.459222,35.847046,24.99975,0.17229223,-13.811522,-5.9831433,13.052716,19.352797,-6.1165843,-62.106937,-125.44569,-164.46828,-158.54161,-110.65989,-45.006855,8.3415365,30.940041,24.204851,3.8667626,-14.067481,-24.992977,-36.602924,-59.027359,-92.463219,-122.53979,-127.98029,-95.840256,-33.48143,32.004784,67.851631,54.700256,-1.5734135,-73.077179,-126.13976,-140.09897,-116.83604,-75.820442,-39.2337,-18.004827,-8.1008501,1.4904718,16.206596,28.970573,24.542479,-7.8821802,-63.389572,-120.44651,-152.1721,-142.68944,-97.398743,-39.832085,3.0798168,17.414249,9.1842346,-2.7455623,-2.4085522,10.367585,19.441742,4.8740454,-40.396652,-101.96574,-150.38319,-159.02162,-121.52475,-56.771385,2.4436965,29.694551,20.601103,-6.6042686,-25.7458,-22.185743,-3.3519351,7.1828961,-12.043368,-62.759987,-122.78921,-158.92862,-148.55292,-95.219002,-27.315353,19.764236,26.127581,-0.57563001,-31.715679,-38.334358,-11.741727,30.075747,54.694149,37.860149,-18.902411,-87.685837,-131.1032,-125.47561,-75.03952,-8.1738625,41.227695,54.478611,37.425297,13.250572,5.007112,20.60931,50.321331,77.21846,91.714607,98.754379,112.27422,141.47752,179.96526,206.96225,200.98056,156.68532,92.532532,42.530075,36.41198,80.971413,155.18018,222.82135,254.64433,245.54115,215.51785,194.13771,199.25832,224.65598,244.96523,234.46895,186.77458,121.74979,74.67157,74.509789,125.53915,204.25365,273.465,304.35687,292.44992,257.85626,230.58638,231.01642,257.95685,291.06192,304.83701,284.61697,234.73273,175.01802,129.30878,113.67107,130.69147,171.16811,219.95084,261.51404,283.08575,276.20505,238.62308,176.80072,106.76428,50.496384,27.540682,45.478436,95.147934,154.59032,200.39818,219.92545,216.6062,204.78233,197.45435,195.44624,185.84315,151.32991,84.337204,-3.9087009,-86.371498,-134.20348,-133.14745,-91.765953,-36.073391,5.9976864,20.275555,12.289162,0.27278396,0.66194373,16.191263,34.423473,37.094536,13.33653,-32.383919,-82.642769,-117.50566,-125.58707,-108.59361,-77.437157,-44.025932,-15.253648,6.967309,21.157721,22.471205,4.0718856,-36.572819,-91.517395,-142.22389,-167.46309,-155.09232,-109.96294,-52.078911,-5.4810462,15.216054,11.840661,-1.2916415,-9.2820168,-7.9389677,-6.3660941,-19.004025,-52.935505,-99.855003,-138.99071,-149.54404,-124.31599,-75.038193,-25.461292,3.3379815,5.5396757,-7.4288654,-16.671997,-10.392012,7.0602059,18.109491,4.9482093,-36.406933,-90.901848,-132.05734,-137.68733,-103.48074,-45.600704,9.2243242,39.420116,39.815414,21.524033,1.4541545,-10.612659,-18.141212,-33.054115,-63.833164,-105.49873,-139.32892,-143.48788,-108.00085,-44.032425,19.378618,50.077175,30.537727,-32.078175,-109.67033,-168.48996,-186.81226,-164.70706,-120.82848,-79.221924,-54.974125,-47.552456,-45.170738,-36.216602,-19.432432,-5.8107891,-11.010356,-43.559513,-96.956314,-151.21471,-183.2173,-179.4944,-143.48311,-92.867058,-48.905807,-24.613369,-19.106771,-21.210705,-19.33007,-10.648171,-3.3962269,-10.721218,-40.359535,-87.172119,-133.78529,-159.32706,-150.99808,-111.35484,-56.876877,-8.8446074,17.754492,20.607519,8.3367805,-7.4786024,-20.775867,-34.248562,-55.394547,-88.393097,-127.74268,-158.52679,-163.83736,-135.06567,-78.591461,-14.290663,33.872387,50.075081,34.750656,3.9172139,-19.915154,-20.102253,5.424026,43.765053,