Bandpass,0,0.21086,77.63664,194.6326,269.5121,293.7614,278.7359,247.7459,223.4422,217.5286,227.9231,243.6789,253.6263,253.1305,245.3656,237.3798,234.4241,236.5948,239.6884,239.0978,233.5663,226.0992,221.5396,222.7997,228.5499,234.0322,234.3439,227.8293,217.2016,207.7011,203.6581,205.8784,211.5765,216.74,219.1109,219.6404,221.4395,227.078,236.237,245.4258,249.9983,247.0913,237.4829,225.1359,214.7783,209.1246,207.5133,206.671,202.9295,194.3449,181.4434,166.39,151.4195,137.7208,125.429,114.4062,104.9921,98.00943,94.07567,92.88608,93.18999,93.57812,93.46416,93.39148,94.27956,96.07784,96.92506,93.66309,83.65628,66.81542,46.39305,27.78565,15.85851,12.3557,15.0016,18.88572,19.27531,14.12015,4.769896,-5.342189,-12.96584,-16.62893,-16.56516,-13.28718,-6.149947,6.748796,27.02854,53.88378,83.02136,107.7903,122.1529,123.8251,115.5902,103.8611,95.25708,93.22102,96.69198,101.5085,103.5108,101.2694,96.71561,93.42145,93.8194,97.30482,100.5172,99.56319,92.67504,81.53786,70.43487,63.80945,63.81835,69.35498,77.00562,83.14312,85.77116,85.04871,82.46161,79.45226,76.57166,73.63924,70.56477,67.9943,67.1415,68.86932,72.72756,76.76677,78.39806,75.82927,69.14404,60.3081,52.08816,46.58335,44.28012,44.16192,44.66582,44.76539,44.46479,44.49115,45.55105,47.77966,50.75644,53.96845,57.2421,60.72706,64.44554,67.84268,69.82231,69.39677,66.51466,62.39419,58.9492,57.53997,57.87021,57.8715,54.84033,47.23057,35.96276,24.31985,16.35369,14.69467,19.09996,26.63451,33.37016,36.51293,35.6361,32.31419,28.5522,25.19684,21.50447,16.17177,9.067552,2.319508,-0.2209339,4.972439,18.73361,38.06754,57.13508,69.96624,73.42607,68.74014,60.71598,55.13409,55.8139,62.97325,73.64719,83.69553,90.07199,92.02958,90.75401,87.94593,84.45149,79.88302,73.37763,64.85021,55.76283,48.80608,46.62577,50.37759,58.99824,69.62565,78.89333,84.32577,85.09389,81.82626,75.80366,68.15284,59.54213,50.44743,41.60627,34.17558,29.35542,27.68917,28.53996,30.19874,30.66713,28.69611,24.43134,19.21319,14.59003,11.12746,7.777032,2.280868,-7.534055,-22.29507,-40.35205,-58.3112,-72.63894,-81.49765,-85.75772,-88.56062,-93.59566,-103.0196,-116.1723,-129.8331,-139.8935,-143.5195,-140.5973,-133.6717,-126.458,-121.8209,-120.3655,-120.411,-119.2391,-114.794,-106.8212,-96.83468,-87.12073,-79.52782,-74.86324,-73.17167,-74.50882,-79.43027,-88.6572,-102.0482,-117.6499,-131.7301,-140.1396,-140.4604,-133.687,-124.2882,-118.3143,-120.4122,-131.3507,-147.5305,-162.8829,-172.1628,-173.8337,-170.8651,-168.9691,-173.2573,-185.2223,-201.7774,-216.891,-224.8702,-223.4059,-214.6731,-203.9091,-196.367,-194.4135,-196.4285,-198.0781,-195.1279,-186.1319,-173.4376,-161.8882,-156.0114,-157.2467,-162.798,-166.7691,-163.0127,-148.2135,-123.6114,-94.52564,-67.97741,-49.64538,-41.65915,-42.20914,-46.96416,-51.38593,-52.6818,-50.48605,-46.16542,-41.41942,-37.139,-33.19382,-29.11021,-24.99605,-21.91232,-21.30987,-23.84712,-28.42515,-32.23406,-32.008,-25.87089,-14.67898,-1.950554,7.729314,11.01406,7.500078,-0.1724148,-7.910545,-12.52884,-13.49633,-13.05991,-14.71633,-20.99702,-31.90456,-44.89804,-56.34484,-63.48367,-65.69158,-64.39158,-61.81714,-59.55722,-57.83305,-55.87601,-52.99604,-49.49244,-46.74199,-46.4401,-49.57848,-55.91404,-64.28173,-73.47601,-82.99665,-93.09551,-104.0861,-115.4878,-125.7246,-132.7329,-135.162,-133.373,-129.5264,-126.6127,-127.0043,-131.4072,-138.8243,-147.4594,-155.8774,-163.6398,-171.0757,-178.5226,-185.7303,-191.956,-196.6355,-199.9892,-202.8638,-205.6856,-207.182,-203.9243,-191.4006,-166.3621,-129.2171,-84.96571,-41.83831,-8.112173,11.30928,16.7265,12.92197,6.359768,1.931851,1.035585,1.877134,1.521152,-1.754286,-7.263689,-12.44757,-14.5634,-12.2967,-6.270602,1.71317,9.992558,17.92122,25.73854,33.6705,41.07117,46.34618,47.78164,44.69247,38.03846,30.01908,22.89136,17.81044,14.48183,11.83836,9.228052,7.232786,7.504032,11.69964,20.24727,31.79574,43.74067,53.48832,59.62943,62.29597,62.57401,61.49714,59.41687,56.20018,52.05814,48.26976,47.10107,50.76865,60.01646,73.25322,86.9425,97.17408,101.618,100.7423,97.59811,96.26727,99.83118,108.9316,121.6201,134.4414,144.0766,148.679,148.3378,144.644,139.7659,135.5482,132.9879,132.1488,132.3756,132.6719,132.1124,130.2459,127.3685,124.5337,123.1949,124.5635,128.9406,135.3894,141.9659,146.4466,147.1774,143.6024,136.1991,125.9313,113.5739,99.38654,83.30532,65.51163,46.95384,29.42539,15.05781,5.461099,0.9561356,0.3145286,1.170525,0.9364163,-2.1747,-8.454934,-16.6223,-24.39153,-29.47161,-30.59391,-28.13308,-24.01357,-20.86945,-20.7852,-24.19048,-29.50385,-33.80148,-34.26084,-29.66353,-21.12341,-11.57389,-4.23801,-0.92445,-1.148612,-2.617604,-2.79326,-0.5507242,3.147322,6.039583,6.347923,4.387816,2.876534,5.599816,15.15131,31.11762,49.8788,66.24162,76.00375,77.9697,74.28127,68.96936,65.67684,65.96379,69.09232,73.21651,76.99561,80.48545,84.77654,90.77364,98.11298,105.0807,109.6387,110.8414,109.6267,108.3764,109.5025,113.9719,120.7381,127.4004,131.6218,132.3682,130.2038,126.6381,123.108,120.365,118.6084,118.0323,119.0997,122.117,126.331,129.3437,127.6285,118.2123,100.7139,78.39114,57.26524,43.46891,40.1334,45.57537,53.9389,58.10225,53.34324,39.81586,22.54717,9.047249,5.882273,15.98735,37.91397,67.04669,97.82513,125.7114,148.0963,164.12,173.9703,178.2824,177.9162,173.9745,167.7992,160.8127,154.3283,149.5164,147.5236,149.4956,156.2265,167.4404,181.168,193.8611,201.6109,202.0781,196.1118,187.876,183.0051,185.4777,194.8521,205.5687,209.0622,197.8711,169.7038,129.2815,86.85046,53.99737,38.79613,42.63444,60.14166,82.02891,99.27242,106.6096,103.918,95.23888,86.31679,81.97699,84.42524,92.88232,104.3348,114.863,120.9993,120.7375,114.0023,102.4778,88.87296,75.87398,65.20377,57.21964,51.25035,46.45992,42.70469,40.8085,42.03833,47.08156,55.18761,64.09356,70.87763,73.30278,70.88046,65.03589,58.30378,53.04362,50.41648,50.13696,50.99367,51.67374,51.33517,49.64623,46.44268,41.42101,34.19598,24.72147,13.75291,2.942356,-5.603036,-10.13045,-10.00657,-6.052272,-0.2994018,4.697155,6.69948,4.484136,-1.8153,-10.83726,-20.62478,-29.62837,-37.70761,-46.55236,-59.00117,-77.20014,-100.311,-123.0778,-136.5261,-131.1369,-101.3979,-49.46201,14.33393,74.97014,118.9328,140.0435,141.7532,134.4875,129.4273,132.2039,140.1901,144.9465,138.3184,118.3754,91.46339,69.0163,61.05952,70.43758,91.32357,112.84,125.3038,124.9563,114.0769,96.55202,72.11666,33.5848,-30.46446,-128.682,-259.8277,-410.2256,-557.8771,-681.3872,-768.741,-821.0641,-849.3836,-866.5515,-879.3053,-885.0711,-875.0294,-841.2092,-782.9136,-708.8047,-633.5134,-571.371,-531.014,-513.7886,-516.0916,-533.2764,-562.1566,-600.5859,-644.9014,-687.8011,-718.7197,-727.0854,-706.7328,-658.7078,-590.8557,-514.3876,-439.5984,-372.989,-317.0004,-271.691,-236.5481,-211.0817,-194.0525,-182.5851,-172.5592,-160.6394,-146.7953,-135.3643,-133.4169,-146.8876,-176.6015,-216.7077,-256.6989,-286.0334,-298.7425,-295.36,-281.2562,-262.6136,-242.8053,-221.3941,-196.182,-166.5793,-135.7514,-109.8309,-94.61314,-91.90419,-98.06194,-105.8374,-108.4691,-103.446,-93.5461,-84.49609,-80.80416,-82.48654,-84.83556,-81.39664,-68.23331,-46.71946,-23.02109,-4.497925,4.795114,6.769239,8.494809,18.3686,41.45802,76.63241,116.9919,153.1919,177.7539,188.0802,186.8328,179.8753,173.1678,170.3245,171.8319,175.8899,180.0156,182.3643,182.2296,179.7659,175.4529,169.7858,163.3417,157.0311,152.1521,150.0848,151.6924,156.7942,164.0467,171.3884,176.8891,179.5946,179.946,179.524,180.2069,183.1142,187.8688,192.5735,194.5796,191.7353,183.4935,171.2918,157.9618,146.4174,138.2892,133.2693,129.5323,125.0497,119.0207,112.605,108.4379,109.1601,115.7734,126.7801,138.6568,147.4673,150.741,148.6072,143.5518,138.9679,137.3251,138.956,142.1014,144.1085,143.0548,138.869,133.3765,129.303,128.8461,132.6141,139.4478,147.1392,153.5796,157.687,159.6563,160.4933,161.1462,161.7941,161.6645,159.4928,154.3593,146.4526,137.3305,129.4995,125.4724,126.7208,133.0309,142.5651,152.6239,160.7432,165.6063,167.3461,167.1235,166.2465,165.3235,163.8823,160.6558,154.316,144.2525,130.9915,116.0613,101.4345,88.85978,79.38441,73.22236,69.93117,68.74204,68.91396,70.00651,72.04365,75.49598,81.02338,88.98088,98.84967,108.9128,116.4921,118.8391,114.3954,103.7962,90.01525,77.37611,69.8031,69.13775,74.40766,82.46293,89.64418,93.57758,94.11037,92.95388,92.32804,93.51669,96.19617,98.87977,100.069,99.28775,97.2914,95.37886,94.33823,93.8307,92.68058,89.87771,85.57187,81.3017,79.20811,80.68327,85.32301,90.89393,94.39613,93.59291,88.09914,79.4129,69.96077,61.8262,55.959,52.25129,50.23901,49.76475,51.04138,54.08705,58.04332,61.07126,61.14487,57.3972,51.17446,45.98729,46.14441,54.66901,71.58419,93.539,115.0318,130.6587,137.2579,134.9765,126.8527,117.2886,110.2228,107.8002,109.9268,114.6435,118.9693,119.8639,115.0989,103.9365,87.4924,68.61853,51.17022,38.74649,33.30341,34.22974,38.39048,41.23558,38.56309,28.18063,10.74031,-10.58908,-31.40121,-47.67026,-57.02387,-59.23186,-55.87262,-49.46538,-42.49737,-36.69968,-32.76029,-30.47526,-29.20673,-28.4297,-28.12311,-28.81089,-31.2072,-35.62468,-41.48499,-47.27767,-51.10698,-51.62314,-48.84096,-44.3418,-40.6345,-39.9542,-43.11709,-49.07564,-55.42994,-59.60607,-60.04617,-56.7737,-51.12253,-44.92125,-39.69526,-36.32851,-35.21611,-36.56287,-40.4444,-46.52911,-53.75951,-60.44911,-64.9865,-66.84167,-67.18409,-68.5148,-73.31006,-82.38554,-94.04531,-104.7158,-110.8726,-111.1734,-107.4446,-103.7966,-104.2926,-110.5644,-120.8963,-131.4141,-138.6648,-141.8988,-143.5051,-147.1576,-154.7749,-164.2811,-169.7584,-164.2104,-143.4796,-109.0599,-68.07511,-30.32288,-3.940318,7.955921,7.934144,2.072326,-3.615891,-6.073153,-5.93614,-6.050348,-8.981826,-15.15572,-22.63708,-28.4235,-30.21725,-27.5215,-21.5293,-14.14478,-6.966528,-0.9122285,3.455381,5.410813,3.976149,-1.530458,-10.67981,-21.53411,-31.1304,-36.71804,-37.07175,-33.08959,-27.29433,-22.52592,-20.58168,-21.54871,-24.10469,-26.47134,-27.3769,-26.50143,-24.29556,-21.47975,-18.6524,-16.23429,-14.65248,-14.47926,-16.31996,-20.50382,-26.83093,-34.60929,-42.97675,-51.25899,-59.06047,-66.00761,-71.37065,-73.96963,-72.60896,-66.89958,-57.96653,-48.47984,-41.80381,-40.59933,-45.61486,-55.35783,-66.86766,-77.18084,-84.67716,-89.58495,-93.43961,-97.87026,-103.4631,-109.3287,-113.5565,-114.233,-110.4524,-102.8112,-93.22231,-84.19038,-77.89722,-75.44859,-76.51378,-79.48379,-82.1329,-82.60047,-80.34614,-76.59808,-73.93896,-75.03294,-81.02273,-90.46965,-99.59602,-103.9574,-100.8131,-90.89298,-78.41845,-69.1405,-67.33007,-73.38609,-83.50743,-91.70989,-93.09035,-86.42234,-74.53004,-62.24278,-53.25628,-47.92883,-43.49115,-36.56933,-26.36059,-16.25897,-12.60293,-21.02258,-42.47398,-71.4289,-97.55508,-110.208,-103.4047,-78.62242,-43.98476,-10.40116,13.17907,22.96023,20.59882,10.99323,-0.7708697,-11.522,-20.29421,-27.23437,-32.31992,-34.91353,-34.32918,-30.73852,-25.51223,-20.59723,-17.34198,-15.66018,-14.21475,-11.54937,-7.36738,-3.001442,-0.6694987,-1.982875,-6.738225,-12.87134,-17.65906,-19.37817,-18.28704,-16.24496,-15.22049,-15.72866,-16.31214,-14.47712,-8.484781,1.221893,11.97541,20.33272,24.11724,23.73102,21.86143,21.75192,25.1373,31.16272,36.96541,39.52095,37.56207,32.35912,26.9237,24.20299,25.44167,29.71163,34.79672,38.75047,41.0647,42.73233,45.27626,49.49574,54.8095,59.61916,62.38633,62.66091,61.36852,60.19712,60.53428,62.64338,65.56042,67.68698,67.61427,64.67376,58.98664,51.18147,42.12338,32.85983,24.67105,18.92146,16.5283,17.22761,19.14358,19.1569,14.15202,2.622613,-14.23705,-32.68538,-47.90876,-56.1433,-56.36263,-50.65518,-43.14264,-38.06753,-38.07118,-43.46498,-52.65532,-63.23666,-73.02659,-80.56253,-85.07558,-86.32536,-84.63802,-81.1422,-77.8251,-76.99718,-80.14594,-86.69756,-93.53589,-95.86337,-89.27709,-72.11143,-46.77591,-19.19251,3.570735,16.37221,18.21836,12.49089,5.08714,1.487682,4.292869,12.44001,22.33485,30.09376,33.57573,33.15118,30.97593,29.41142,29.63004,31.19503,32.70986,32.97232,31.81349,30.107,29.02389,29.11086,29.85712,30.05493,28.70752,25.85815,22.74758,21.14156,22.20764,25.64814,29.6746,31.91954,30.80733,26.59691,21.45042,18.42521,19.89499,26.25453,35.63037,44.76481,50.605,51.73009,48.8662,44.2566,40.32273,38.41671,38.38655,39.12454,39.66241,40.0281,41.25645,44.5292,50.02529,56.32342,60.8742,61.37963,57.26485,50.27808,43.71986,40.65946,42.1855,46.79681,51.40633,53.40834,52.54482,51.33857,53.69293,62.42234,77.20835,94.33485,108.516,115.8501,116.1677,113.3279,113.1824,120.3291,135.5169,155.1892,173.4057,184.9925,188.0786,184.6694,179.0761,175.3455,175.2612,177.99,181.2742,183.1119,182.6933,180.0689,175.0701,166.5632,152.9052,133.4521,110.0724,87.36887,71.07095,65.28735,70.22438,81.86191,93.96355,101.329,102.3593,99.39436,96.66586,97.23649,100.9525,104.7503,105.087,100.787,94.28344,90.25397,92.42513,100.6296,110.1727,114.1533,107.4568,89.97832,67.01576,46.4933,34.66648,32.92157,37.58145,42.72303,44.09645,41.58344,38.65252,39.29685,44.63406,51.59196,54.70499,49.92575,37.89421,24.32354,16.92563,20.55921,33.54004,47.51114,51.21759,36.21274,1.369909,-46.23932,-94.4664,-131.3815,-149.9179,-149.6871,-135.6489,-114.9725,-94.17962,-77.88409,-69.09199,-69.93967,-81.70528,-103.8537,-132.9612,-162.7926,-186.165,-197.9533,-197.6144,-189.5877,-181.0975,-178.4023,-183.5602,-193.5139,-201.9932,-203.0648,-194.2746,-177.6592,-158.2332,-141.0782,-128.8417,-121.0336,-115.2713,-109.4216,-103.1559,-97.98898,-95.95757,-97.96674,-102.9557,-108.3911,-111.6734,-111.4788,-108.1798,-103.1936,-97.81271,-92.37637,-86.30199,-78.8614,-70.04746,-60.88883,-52.97202,-47.54702,-44.85252,-44.13426,-44.30781,-44.7621,-45.70689,-47.8087,-51.37223,-55.66875,-58.92258,-59.04335,-54.69571,-46.07214,-34.90887,-23.7433,-14.83251,-9.304841,-6.933151,-6.534515,-6.693533,-6.407256,-5.393603,-4.024783,-3.022706,-3.08067,-4.535173,-7.157566,-10.12239,-12.21363,-12.26128,-9.676908,-4.833142,0.9723978,6.046239,9.11083,9.966701,9.593618,9.567809,11.08811,14.17523,17.54457,19.27754,17.9252,13.40943,7.192347,1.618805,-1.177719,-0.1889921,4.193002,10.58101,17.31783,23.04841,26.88344,28.24623,26.73086,22.22304,15.24018,7.164274,0.02128431,-4.248933,-4.687396,-1.818105,2.635918,6.732263,9.419637,11.07597,13.10039,16.79758,22.27894,28.13955,32.18221,32.76813,29.92645,25.45295,21.87019,20.852,22.11565,23.52404,22.40604,17.31807,9.164096,0.9490274,-3.741003,-2.667445,3.840724,13.06585,21.34803,25.9403,26.2217,23.65164,20.61212,18.9134,18.86003,19.35773,18.88234,16.63019,13.12312,9.937203,8.767733,10.43515,14.41385,19.12512,22.7771,24.25127,23.55843,21.68249,19.97054,19.45225,20.43961,22.55234,25.06459,27.31265,28.93479,29.85472,30.10639,29.6821,28.54954,26.83782,25.03835,24.01386,24.69497,27.55048,32.10851,36.87143,39.80799,39.28614,35.0031,28.36356,21.97515,18.40827,18.82947,22.29251,26.19108,27.72977,25.64196,21.12508,17.34002,17.6221,23.36908,32.87313,41.92789,46.04727,43.16132,35.26329,27.98149,28.1571,40.61507,65.78662,99.37069,134.123,162.7369,180.3331,185.4341,179.2979,164.3873,143.0835,117.3426,89.18999,61.33652,37.12883,19.62508,10.27956,8.115908,10.0349,12.21619,11.8768,8.412431,3.324561,-0.9399159,-2.48851,-0.9522433,2.539639,6.196869,8.58876,9.222265,8.447028,6.932795,5.18906,3.451944,1.904002,0.9226949,1.059335,2.710942,5.743648,9.393263,12.57,14.37747,14.47291,13.0183,10.29412,6.339862,0.9838008,-5.686148,-12.76516,-18.41574,-20.49232,-17.69053,-10.54159,-1.544657,5.816414,8.727588,6.443114,0.5972758,-5.777303,-9.938475,-10.81494,-9.276982,-7.218343,-6.137742,-6.196879,-6.360088,-5.450322,-3.308988,-1.173972,-0.9431346,-3.794812,-9.122618,-14.58226,-17.323,-15.6751,-10.23373,-3.637559,0.8338032,0.9817661,-3.306756,-10.31107,-17.70555,-23.89961,-28.63026,-32.54024,-36.1823,-39.26204,-40.69095,-39.39119,-35.22596,-29.33198,-23.57378,-19.49182,-17.49173,-16.86366,-16.60717,-16.43681,-17.17841,-20.19115,-26.16963,-34.18666,-41.75278,-46.00641,-45.36196,-40.5502,-34.31144,-29.8474,-28.95229,-30.99987,-33.44209,-33.51915,-30.09934,-24.46556,-19.54355,-18.06446,-20.84375,-26.29097,-31.46387,-33.99262,-33.62562,-32.39049,-33.23652,-37.99985,-45.96672,-53.95803,-57.93764,-55.22364,-46.03524,-33.50901,-22.21529,-16.0263,-16.4899,-22.4683,-31.05576,-39.1049,-44.49596,-46.59462,-45.91902,-43.46989,-40.24749,-37.18587,-35.33933,-35.96244,-40.23183,-48.69083,-60.77438,-74.78845,-88.46032,-99.79278,-107.7399,-112.3084,-114.0571,-113.3522,-109.9191,-103.0303,-92.2469,-78.22864,-63.013,-49.47267,-40.16918,-36.25097,-37.096,-40.98016,-46.42123,-53.36039,-63.35635,-78.49568,-99.53271,-124.3318,-147.6898,-162.9184,-164.5953,-151.1407,-125.8515,-95.73223,-68.65565,-50.22221,-41.89333,-41.23742,-43.97375,-46.5432,-47.74634,-48.64345,-51.01026,-55.51434,-60.87407,-64.57134,-64.62436,-61.20986,-56.96414,-55.63319,-59.79012,-69.00281,-79.61349,-86.37789,-85.11195,-74.88528,-58.56268,-41.43075,-28.70168,-23.24991,-24.69202,-30.10305,-35.76445,-38.9114,-38.64728,-35.82281,-32.26675,-29.967,-30.57102,-35.16249,-44.05212,-56.42255,-70.01579,-81.2957,-86.39273,-82.67033,-70.21367,-52.32987,-34.54306,-22.31779,-18.56075,-22.18396,-28.58189,-31.88653,-27.90279,-16.2179,-0.365223,14.04775,22.27955,22.91491,18.55543,14.37258,15.27594,23.15574,35.63356,46.98016,50.7792,43.0382,24.23559,-0.6868374,-24.37418,-40.15212,-44.69306,-39.02845,-27.54437,-15.58672,-6.9708,-2.631854,-0.9689919,0.5197627,3.395705,7.335146,10.56581,11.27708,8.996248,4.976455,1.338473,-0.4399191,-0.6052233,-0.9615864,-3.470518,-8.531545,-14.17154,-16.87689,-13.72924,-4.57006,7.266243,16.3296,17.92608,10.85351,-1.679886,-13.63112,-19.37912,-16.80012,-8.349462,0.4930466,4.494174,1.708371,-5.490674,-11.92635,-12.68683,-5.858167,6.673677,20.69264,32.33842,40.28127,46.09206,52.72918,62.2403,74.18526,85.72022,93.1675,93.9914,87.96954,76.98392,63.80331,50.78308,39.28564,29.94753,23.26258,19.76723,19.55442,21.50551,23.01387,20.73655,12.19392,-2.656536,-20.89982,-37.67359,-48.27228,-50.21598,-44.15815,-33.1986,-21.12502,-10.67685,-2.792462,2.918478,7.060446,9.605601,9.920883,7.557447,3.104813,-1.634552,-4.382381,-3.58232,0.7560015,7.161138,13.68979,19.13492,23.63658,28.30301,34.15533,41.17198,48.12999,53.37316,55.9572,56.36453,56.2611,57.44848,60.72388,65.43182,70.00661,73.12033,74.62499,75.62871,77.65574,81.48891,86.51788,91.08253,93.58888,93.64124,92.38912,91.82735,93.48934,97.41518,102.0997,105.4795,106.3156,105.0508,103.5618,103.9483,107.1243,112.1451,116.6901,118.4242,116.3832,111.5485,106.2881,103.0572,103.1757,106.3793,111.3168,116.5613,121.4217,126.0663,130.977,136.2164,141.091,144.4864,145.6353,144.7803,143.1962,142.4959,143.6033,146.0308,147.9545,147.1056,142.021,132.9619,121.9986,112.2208,106.4697,106.229,111.1687,119.4614,128.6234,136.4288,141.5099,143.4836,142.721,139.9694,136.0386,131.6403,127.3364,123.5418,120.5285,118.4334,117.2905,117.0749,117.7229,119.0957,120.9081,122.6917,123.8874,124.0719,123.222,121.8331,120.7385,120.6636,121.6959,123.0264,123.1712,120.6841,115.0352,107.1734,99.40914,94.57542,94.83891,100.7511,111.018,123.0999,134.2957,142.7178,147.6917,149.4651,148.5755,145.3559,139.9475,132.7288,124.7717,117.8528,113.8562,113.8548,117.4537,122.865,127.7676,130.463,130.6436,129.2969,127.8327,127.0266,126.4881,125.0155,121.5698,116.1454,109.8843,104.2858,100.0335,96.29687,91.09891,82.63937,70.7717,57.63126,46.886,41.93595,44.09562,51.83783,61.5681,69.45055,73.1834,72.70777,69.54092,65.3379,60.70755,55.06667,47.52188,38.02898,27.90338,19.24559,13.66286,11.21192,10.37102,9.112075,6.360189,2.791998,0.3641843,0.8413754,4.335818,8.915998,11.65681,10.49233,5.652568,-0.3474012,-4.256619,-4.258015,-1.395351,0.6800954,-2.458866,-13.65942,-32.6405,-56.03748,-78.86225,-96.44629,-105.8768,-106.473,-99.54671,-88.01505,-76.16897,-69.39276,-73.30633,-92.09059,-126.4682,-172.4135,-221.6663,-264.2657,-292.17,-302.2415,-297.0753,-283.2666,-268.1369,-256.7009,-250.4397,-248.1817,-248.1305,-249.495,-252.6501,-257.9603,-264.3783,-269.1328,-268.9501,-262.1173,-249.9726,-236.683,-227.266,-225.0103,-229.8532,-238.6734,-247.2484,-252.551,-253.9905,-252.9331,-251.0897,-249.0328,-245.9232,-240.5563,-232.8448,-224.5347,-218.5126,-217.117,-220.6128,-226.9145,-232.7946,-235.7754,-235.4482,-233.3575,-231.625,-231.353,-231.9373,-231.7986,-229.887,-226.8158,-224.6606,-225.4345,-229.2391,-233.3887,-233.2564,-224.4723,-205.2599,-177.5507,-146.3033,-117.4785,-95.80589,-83.44938,-79.98447,-83.30189,-90.7034,-99.62278,-107.9013,-113.8862,-116.6353,-116.1674,-113.5171,-110.3958,-108.6199,-109.7233,-115.06,-126.2174,-145.1167,-173.2069,-209.8295,-250.7164,-288.0336,-312.7454,-318.6784,-306.183,-282.9697,-260.9366,-250.1276,-253.0202,-262.6087,-266.0214,-252.0678,-218.7292,-176.0623,-142.3952,-135.384,-162.574,-216.56,-277.4361,-321.2692,-330.2042,-299.1635,-236.3747,-158.3681,-82.86308,-23.29224,13.08188,24.1067,10.9616,-22.45694,-68.86055,-117.1604,-154.0863,-168.1906,-154.5167,-117.1446,-67.64405,-19.84216,16.35515,38.59701,51.1947,60.53431,69.92914,77.35189,77.48692,66.61153,46.84651,26.65389,16.88515,24.66565,48.90091,80.31551,106.1249,116.6159,109.7726,91.3982,71.01503,56.33334,49.73914,48.65915,49.04369,49.22355,51.38839,59.72627,76.65433,99.90755,122.6627,136.8481,137.6268,126.2536,109.4921,95.95335,91.57037,96.86577,107.4533,117.182,121.8204,121.0632,117.8876,116.0291,117.4102,121.1585,124.6675,125.7606,124.4115,122.9003,124.3975,130.9956,142.4576,156.3859,169.5589,179.504,185.3838,187.8339,188.1381,187.4243,186.3678,185.4024,184.9702,185.4232,186.5441,187.1087,185.0385,178.3322,166.379,150.8802,135.6586,125.2651,122.9877,129.3239,141.7333,155.8287,167.311,173.6253,174.4763,171.1286,165.0934,157.1708,147.4309,136.0634,124.3442,114.8638,110.6212,113.3879,122.3316,133.8686,143.0477,145.8373,141.0584,130.833,119.2187,109.7727,103.459,98.14725,90.04216,76.21725,56.75261,35.16245,16.79487,6.101479,4.330687,8.959472,15.14559,18.29449,16.2415,9.856553,1.907093,-4.931742,-9.577927,-12.66299,-15.3498,-17.82402,-18.61351,-15.29178,-6.144221,8.313707,25.01643,39.51408,47.95805,48.74164,42.88894,33.10199,22.20778,12.01233,3.160403,-4.181033,-9.567205,-12.1567,-11.36774,-7.751235,-3.279657,-0.6189248,-1.71279,-6.573565,-13.1347,-18.36129,-19.95847,-17.60461,-12.92579,-8.274128,-5.171249,-3.489394,-1.903467,0.7603282,4.30048,6.980192,6.613362,2.173338,-5.205856,-12.60016,-16.86995,-16.45208,-12.21873,-6.862981,-3.237204,-2.723656,-4.626595,-6.831818,-7.139951,-4.312953,1.767919,10.68832,22.10708,35.74306,50.71311,64.9136,75.27536,79.16578,76.23364,69.41509,64.05787,65.24469,74.67542,88.98869,100.811,102.2552,89.10948,63.39447,32.81924,7.36483,-5.169551,-2.334232,12.57027,32.72195,51.12759,63.23394,67.72258,65.65845,59.07227,50.03348,40.54405,32.7617,28.8014,29.83658,35.01932,41.18207,43.9344,39.84568,28.5154,13.17334,-0.7570594,-8.463491,-8.30498,-2.580482,3.999177,7.253256,6.113436,3.298214,3.679348,11.33071,27.01689,47.56833,67.44835,81.54787,87.61919,87.05937,83.77956,81.94223,83.85156,89.05555,94.94274,98.32516,97.09779,91.16832,82.34402,73.37535,66.72341,63.62561,63.83899,66.09968,68.99961,71.80369,74.7608,78.72569,84.30401,91.06126,97.35751,101.0472,100.7255,96.75018,91.32155,87.38885,86.95298,89.82649,93.73744,95.84702,94.78439,91.79787,90.07864,92.48643,99.07137,106.1485,107.8705,99.65173,81.46863,58.86761,40.73456,34.83895,43.63482,62.80666,83.50684,97.04468,99.29238,92.28452,82.20409,75.16366,73.48797,74.7582,74.03651,67.65772,56.04426,43.73985,36.73323,38.89114,49.78968,65.24015,79.97662,90.63565,97.10851,101.5599,106.0346,110.4516,112.4258,109.0209,99.17754,85.12902,71.7875,64.44057,66.1322,76.25497,91.0517,105.5679,115.8694,120.3685,119.8357,116.4202,112.4197,109.3906,107.7953,107.0665,105.9522,103.0882,97.74925,90.54156,83.59017,79.86111,81.70629,89.36201,100.3967,110.6988,116.6626,117.2951,114.8297,113.2539,115.5472,121.4536,127.3974,128.8373,123.5808,113.7332,104.6914,101.4981,104.8744,109.7478,107.6975,92.1547,63.16386,28.41464,-0.5875357,-15.24859,-15.49718,-10.66598,-14.78796,-38.86995,-84.64414,-143.4452,-200.8168,-243.9932,-267.8563,-276.106,-277.4811,-279.8527,-285.9615,-293.1677,-296.7293,-293.9557,-286.3436,-278.5339,-275.2333,-278.4633,-286.9922,-297.9439,-308.9782,-319.2217,-328.3181,-334.6185,-334.3031,-322.4359,-295.4055,-253.0184,-198.7188,-137.9563,-76.26067,-18.83327,27.91843,54.55589,49.19424,2.006356,-87.72927,-206.1536,-325.3938,-411.8659,-439.4072,-400.8198,-311.397,-202.0166,-105.1108,-40.94381,-11.35042,-3.630435,-1.287486,5.454673,15.63753,21.63778,17.49269,5.084542,-6.31393,-6.674881,6.913361,27.07033,40.26986,35.76089,13.19775,-16.39312,-37.22452,-38.66008,-21.80389,1.652973,17.4957,18.40911,8.280008,-1.520403,-1.148526,9.907326,21.98453,22.25087,4.784239,-23.5773,-46.36816,-48.3388,-27.19343,1.79481,12.17926,-19.32039,-98.88068,-210.5151,-323.1595,-405.8806,-442.4165,-436.9664,-408.653,-379.0004,-360.4307,-352.3863,-346.2138,-334.33,-316.9333,-301.8828,-298.4329,-309.7307,-329.5795,-345.7088,-347.1996,-330.9238,-302.6902,-272.6328,-248.2781,-230.1737,-212.9272,-190.6115,-162.4319,-134.4602,-116.1137,-113.7733,-125.9946,-143.6769,-155.2099,-153.2721,-138.871,-120.143,-106.8602,-104.3234,-110.5104,-117.9985,-119.0444,-110.2813,-94.08817,-76.13465,-61.16149,-50.04542,-40.00608,-27.48436,-11.41335,5.496471,18.28063,22.853,18.53777,8.355433,-2.907313,-11.33568,-15.42465,-15.73977,-13.36053,-8.600962,-1.0625,9.133144,20.14621,28.53493,30.93493,26.28746,16.99529,8.003175,4.205221,7.754555,16.99844,27.68136,35.57948,38.8076,38.36952,36.78473,35.95043,35.83418,34.86366,31.59176,26.25946,21.00982,18.54957,20.24601,25.11107,30.47174,33.89276,34.9563,35.57286,38.54069,45.34617,54.79299,63.50661,68.04022,67.17944,62.8347,58.86914,58.59828,62.61086,68.34241,71.67765,69.50674,61.621,50.82867,41.37846,36.81681,38.60532,46.10077,57.5159,70.89323,84.38585,95.92878,103.0199,103.2946,95.84893,82.44963,67.52361,56.5111,53.26862,58.03821,67.34596,76.01835,80.17867,79.3578,76.39875,75.25982,78.19595,84.20831,89.78692,91.41244,88.0763,82.07621,77.52515,77.57047,82.21935,88.2429,91.22618,88.37708,80.20988,70.02209,61.59317,56.74093,54.41032,51.87106,47.11724,40.70819,35.69499,35.62726,41.97679,52.7584,63.34719,69.00336,67.50365,60.20098,50.91246,43.45134,39.46894,37.95539,36.56757,33.71386,29.86522,27.19624,27.87197,32.25548,38.33894,42.83361,43.17617,39.08754,32.65002,26.89039,23.86355,23.54966,24.23586,24.0425,22.45698,20.79887,21.31159,25.55265,33.2146,42.19408,49.82424,54.43182,56.18424,56.72747,57.97714,60.93638,65.30725,70.01501,74.11253,77.29251,79.67331,81.15504,81.05183,78.5157,73.57463,67.98132,64.9837,67.75764,77.21455,90.52644,101.5395,103.216,91.01592,65.42274,32.15694,-0.1568317,-23.70932,-34.68838,-34.32906,-27.47427,-19.63446,-14.26082,-11.65135,-9.815866,-6.491894,-0.9358551,5.570549,10.64032,12.38677,10.62437,6.952645,3.753028,2.816398,4.454319,7.576938,10.58074,12.41094,13.14535,13.79088,15.51094,18.79896,23.10467,27.09652,29.36769,29.16593,26.77948,23.41137,20.65089,19.81971,21.45987,25.16166,29.76191,33.82084,36.21448,36.61819,35.69152,34.86712,35.79116,39.61052,46.43108,55.18293,63.99599,70.92806,74.72242,75.25468,73.47731,70.91567,68.97356,68.36784,68.92511,69.77623,69.82501,68.26926,64.97279,60.57031,56.29049,53.55103,53.45257,56.3314,61.53602,67.55425,72.49039,74.74541,73.62904,69.62403,64.18481,59.12174,55.89543,55.10635,56.408,58.81495,61.20084,62.73638,63.11583,62.56744,61.75529,61.61728,63.12586,66.9015,72.7377,79.25861,84.08299,84.70181,79.90977,71.12923,62.77722,61.08303,71.54359,96.05518,131.2183,168.9573,199.5391,215.7226,216.0249,205.3517,192.4638,185.4733,187.6703,195.8717,202.2266,198.5167,180.6742,151.0746,117.4401,89.0124,72.13138,67.57587,70.93526,75.57016,76.32156,71.89258,64.77003,59.04809,57.67643,60.81336,66.11225,70.50424,72.20381,71.63932,70.8586,71.94193,75.55795,80.57905,84.91339,86.89469,86.28883,84.2858,82.5837,82.25268,83.13648,84.12358,84.00758,82.29507,79.42418,76.32751,73.73152,71.72827,69.88936,67.75961,65.30105,62.91889,61.09153,59.92129,59.03351,57.92918,56.51253,55.32412,55.17607,56.36021,57.9955,58.10658,54.57196,46.48195,35.03995,23.33049,14.92508,12.04808,14.37957,19.23346,23.05846,23.37776,20.02148,14.93493,10.72929,8.91426,8.931317,8.564955,5.425238,-1.47804,-11.07173,-20.86981,-28.47897,-32.98773,-35.36029,-37.64049,-41.51894,-47.19784,-53.25209,-57.51804,-58.40412,-55.7865,-50.97656,-45.86752,-41.8591,-39.24126,-37.36436,-35.36808,-32.94238,-30.59507,-29.31382,-29.87843,-32.31895,-35.8421,-39.25167,-41.55313,-42.37656,-42.01616,-41.11771,-40.27903,-39.77948,-39.56323,-39.40542,-39.13872,-38.81087,-38.74804,-39.50311,-41.70245,-45.79993,-51.78086,-58.97582,-66.11906,-71.77966,-75.02882,-76.03569,-76.19905,-77.61292,-82.01833,-89.76436,-99.35586,-107.9302,-112.4927,-111.2941,-104.6355,-94.67983,-84.40511,-76.29713,-71.47951,-69.67511,-69.85078,-71.04785,-72.84058,-75.21459,-78.08172,-80.89148,-82.68614,-82.595,-80.41164,-76.81339,-73.01648,-70.0702,-68.24189,-66.90453,-65.01977,-61.88751,-57.66811,-53.33672,-50.08224,-48.55846,-48.46146,-48.71338,-48.13137,-46.17126,-43.30136,-40.79617,-40.10551,-42.15421,-46.9417,-53.58549,-60.71825,-66.98582,-71.42015,-73.60517,-73.64913,-72.05479,-69.54494,-66.87712,-64.66354,-63.27043,-62.82887,-63.38566,-65.05173,-68.05537,-72.56691,-78.3854,-84.71077,-90.20631,-93.45498,-93.61388,-90.90114,-86.60157,-82.52125,-80.15495,-80.03192,-81.59643,-83.65295,-85.08075,-85.36447,-84.66483,-83.49759,-82.32958,-81.44495,-81.13732,-82.00094,-84.94759,-90.7951,-99.59315,-110.1885,-120.4226,-127.9912,-131.5232,-131.2117,-128.5816,-125.5235,-123.23,-121.7399,-120.4112,-118.9205,-118.055,-119.5804,-125.1923,-135.2246,-148.0724,-160.8884,-171.2381,-178.6629,-185.0362,-193.3136,-205.3476,-220.1724,-233.9754,-241.9924,-241.2706,-232.6189,-220.4721,-210.6675,-207.4335,-211.4439,-220.0945,-229.7714,-238.5521,-247.5208,-259.7899,-277.847,-301.0387,-324.9372,-343.1913,-350.8188,-346.8667,-334.7906,-320.2321,-307.5543,-297.3542,-286.4564,-270.4014,-246.8443,-217.6559,-188.4203,-165.5891,-153.0509,-150.1879,-152.5329,-154.4922,-152.4529,-146.381,-139.1534,-134.2491,-133.4147,-135.7357,-138.5666,-139.4736,-137.8352,-135.0225,-133.1753,-133.4963,-135.288,-136.3542,-134.4971,-129.043,-121.4142,-114.3741,-110.472,-110.65,-113.8338,-117.6228,-119.5792,-118.3108,-113.8411,-107.2628,-100.097,-93.78574,-89.4519,-87.78928,-88.84336,-91.70432,-94.40459,-94.36641,-89.43775,-79.06416,-64.86636,-50.08956,-38.04341,-30.33351,-25.983,-22.07848,-15.70374,-6.035129,4.745964,12.41996,13.17959,6.164054,-5.465976,-15.68805,-18.48818,-10.88567,5.582759,25.74952,43.55397,55.07027,60.15799,61.92006,64.46643,70.41293,79.61284,89.74351,98.22363,104.1333,108.8742,115.1907,125.196,138.699,152.9005,163.6874,167.776,164.4472,155.8963,146.0602,138.6654,135.6277,136.6399,140.0371,144.2265,148.7753,154.4762,162.4731,173.11,185.3095,196.9244,205.8564,211.2175,213.7758,215.3485,217.4812,220.1938,221.5992,218.7115,209.0679,192.3327,170.9731,149.5999,133.2222,125.2411,126.131,133.3844,142.7063,149.8214,152.0754,149.134,142.662,135.2578,129.2895,126.121,125.9831,128.3248,132.3082,137.1643,142.2887,147.2154,151.6209,155.4432,159.0152,163.0197,168.155,174.5991,181.5979,187.5233,190.534,189.6102,185.4311,180.5185,178.409,182.1121,192.5969,208.1044,224.7341,238.0984,245.26,245.9803,242.6397,238.9164,237.9398,240.8981,246.8045,253.3992,258.5948,261.5382,262.7502,263.3436,263.9525,264.1512,262.7331,258.7028,252.2477,245.0335,239.5259,237.747,240.2074,245.7012,252.0899,257.5535,261.5291,264.7285,268.2779,272.6167,276.9073,279.4103,278.6062,274.2686,267.7628,261.2739,256.4832,253.5301,251.0004,247.0099,240.6529,232.8747,226.0941,222.7715,223.823,227.9359,232.3183,234.4106,233.4893,231.0277,229.4971,230.3065,232.2628,231.6631,224.2029,207.6772,183.84,158.1785,137.5068,126.5862,125.6448,130.1682,133.1604,128.6528,114.601,93.67097,71.63947,54.40194,45.24164,43.72582,46.57625,49.77922,50.64096,48.72996,45.43229,42.65504,41.56293,42.05617,43.10111,43.5125,42.6156,40.4306,37.40319,34.00158,30.47342,26.88578,23.30139,19.88148,16.80896,14.11264,11.57045,8.816034,5.59052,1.95574,-1.71397,-4.972863,-7.629468,-9.905417,-12.32186,-15.36032,-19.14074,-23.33726,-27.38987,-30.87342,-33.76357,-36.42229,-39.31099,-42.63141,-46.13734,-49.24393,-51.37107,-52.30109,-52.35048,-52.26512,-52.92432,-55.01938,-58.83171,-64.17905,-70.48734,-76.92748,-82.6119,-86.83801,-89.34902,-90.50227,-91.22181,-92.65657,-95.66397,-100.3435,-105.9231,-111.1043,-114.7299,-116.4078,-116.7408,-117.0046,-118.4673,-121.7595,-126.658,-132.382,-138.1563,-143.6286,-148.8447,-153.8251,-158.1056,-160.6685,-160.4379,-157.08,-151.6064,-146.2612,-143.5997,-145.205,-150.7079,-157.743,-162.9273,-163.3849,-158.0321,-147.9599,-135.7808,-124.3455,-115.5611,-109.8912,-106.6923,-105.0259,-104.3786,-104.875,-106.9102,-110.5588,-115.164,-119.4338,-121.9648,-121.8877,-119.2617,-115.0108,-110.4866,-106.9084,-104.9838,-104.8463,-106.2529,-108.8723,-112.4678,-116.8926,-121.956,-127.2712,-132.2233,-136.0951,-138.3086,-138.6759,-137.5029,-135.4929,-133.4617,-131.9811,-131.1652,-130.6841,-130.0509,-128.9957,-127.6866,-126.6257,-126.246,-126.4725,-126.5954,-125.6499,-123.1427,-119.6621,-116.8327,-116.4114,-118.8869,-122.394,-122.7858,-115.1831,-96.43436,-67.26227,-32.81391,-1.047478,20.46542,27.80366,22.36144,10.03484,-1.671714,-7.090042,-4.625989,3.239598,11.94336,17.51496,18.40086,15.55557,11.08146,6.519043,1.974274,-3.458883,-10.44109,-18.3476,-25.24631,-28.96477,-28.48708,-24.68609,-19.85112,-16.32056,-15.13405,-15.61657,-16.13654,-15.46287,-13.73142,-12.34409,-12.88108,-15.85565,-20.25997,-24.27537,-26.68617,-27.94115,-30.04655,-35.23006,-44.2494,-55.53244,-65.83011,-72.06959,-73.22075,-70.93351,-68.46012,-68.53699,-71.63715,-75.7887,-78.1341,-77.2067,-74.35165,-73.23338,-77.61496,-88.77836,-104.2944,-119.0195,-127.832,-128.4435,-122.5596,-114.6736,-109.239,-108.0132,-109.2047,-108.9313,-103.9836,-94.12122,-82.43576,-73.55573,-70.84884,-74.36494,-80.76904,-85.25937,-84.29008,-77.4841,-67.73653,-59.62581,-57.17237,-62.2131,-74.07009,-90.33225,-107.9664,-124.0803,-136.1406,-142.0076,-140.2513,-130.8428,-115.783,-99.01254,-85.27111,-78.26455,-79.09795,-85.91305,-95.04685,-103.1071,-108.7512,-113.1191,-118.6595,-127.135,-138.0866,-148.7639,-155.6195,-156.4444,-151.8292,-145.0307,-140.2892,-140.6021,-146.2186,-154.7222,-162.5326,-166.9303,-167.3991,-165.6236,-164.2369,-165.1803,-168.5753,-172.6964,-174.9066,-172.9616,-165.9915,-154.7495,-141.1689,-127.5772,-115.9432,-107.4313,-102.2733,-99.89132,-99.19968,-98.97025,-98.22184,-96.48746,-93.84666,-90.71818,-87.48335,-84.21676,-80.66145,-76.50887,-71.74919,-66.8208,-62.38992,-58.86632,-55.98304,-52.79732,-48.18411,-41.57696,-33.44785,-25.17322,-18.28212,-13.55383,-10.55183,-7.961513,-4.576991,-0.2925038,3.58233,4.988376,2.434311,-3.830824,-11.56294,-17.43909,-18.64805,-14.27936,-5.674122,4.410004,13.31702,19.75242,24.09052,27.64619,31.48813,35.60858,38.99018,40.4458,39.6144,37.3936,35.51691,35.55658,38.0416,42.27372,46.94445,51.09289,54.74389,58.79,64.21861,71.25365,79.0235,86.0127,90.98949,93.79048,95.40803,97.31074,100.4423,104.5561,108.3325,110.2109,109.4032,106.4664,103.0942,101.2996,102.4959,106.9898,114.0849,122.5771,131.2716,139.1888,145.5199,149.5386,150.7268,149.1121,145.5287,141.511,138.6894,137.9933,139.1709,141.0094,142.2354,142.5545,143.1393,146.1606,153.4842,165.3287,179.6936,193.0366,201.913,204.69,202.3475,197.8948,194.7056,194.71,197.4668,200.571,201.166,197.6044,190.3933,181.9221,175.2498,172.6582,174.7552,180.4765,187.8186,194.7756,199.9863,202.8721,203.4156,201.8661,198.6062,194.1352,189.0636,183.9585,179.1125,174.4032,169.42,163.8586,157.9545,152.6218,149.1656,148.6381,151.2221,156.026,161.4262,165.805,168.2213,168.6562,167.7097,165.9891,163.6166,160.1648,155.0597,148.1243,139.8778,131.3672,123.6283,117.1415,111.6642,106.5616,101.422,96.53335,92.87806,91.59148,93.19566,97.06943,101.5084,104.3662,103.963,99.76909,92.53645,83.85228,75.39701,68.30154,62.89008,58.83067,55.50566,52.33932,48.93795,45.04815,40.47146,35.08627,28.95076,22.45214,16.29759,11.32936,8.185326,6.999663,7.285107,8.096915,8.395973,7.447598,5.092778,1.755624,-1.792539,-4.79006,-6.828726,-8.035944,-9.018199,-10.60699,-13.50595,-17.95745,-23.58372,-29.4601,-34.38626,-37.25156,-37.35339,-34.54932,-29.23392,-22.17662,-14.35259,-6.786765,-0.4603613,3.827083,5.626328,5.032803,2.757145,-0.0194844,-2.046883,-2.504153,-1.35254,0.6785526,2.50238,3.29179,2.951781,2.164924,1.974481,3.151907,5.729779,9.014994,12.02631,14.10747,15.26733,16.03973,16.96139,18.07615,18.83161,18.52236,16.96255,14.91846,13.9078,15.39281,19.85808,26.38692,33.10131,38.25261,41.27927,43.09974,45.35912,49.0635,53.52663,56.42429,55.14024,48.6572,38.75587,29.60077,25.63598,28.87907,37.18272,44.67896,44.40371,31.86406,7.610542,-22.63722,-50.48177,-68.68631,-74.32922,-69.68956,-60.4936,-52.67943,-49.50136,-50.50673,-52.68667,-52.87862,-49.8445,-44.8163,-40.37808,-38.5668,-39.51438,-41.44421,-41.9581,-39.6422,-34.95507,-29.82465,-26.31996,-25.29772,-25.94962,-26.47077,-25.36572,-22.46582,-19.00506,-16.71192,-16.60335,-18.27335,-20.17327,-20.65219,-19.05234,-16.12311,-13.47211,-12.47052,-13.32096,-14.91635,-15.57042,-14.11059,-10.62293,-6.377247,-3.014497,-1.534445,-1.74902,-2.490826,-2.396686,-0.7423815,2.213973,5.484636,7.999494,9.137597,8.864513,7.469929,5.204533,2.151638,-1.574493,-5.526004,-8.834059,-10.5365,-10.15327,-8.15057,-5.882918,-4.954462,-6.353878,-9.861478,-14.16321,-17.61025,-19.20692,-19.1764,-18.78249,-19.48965,-22.01356,-25.86713,-29.68787,-32.12916,-32.74461,-32.26876,-32.14449,-33.57322,-36.72301,-40.58267,-43.56435,-44.45789,-43.14824,-40.66102,-38.53028,-37.91109,-38.9867,-41.00006,-42.84297,-43.77435,-43.81837,-43.61538,-43.8804,-44.85231,-46.1269,-46.93148,-46.66465,-45.31218,-43.47271,-41.98928,-41.45154,-41.89036,-42.84973,-43.75987,-44.3586,-44.8665,-45.82315,-47.70741,-50.59473,-54.06428,-57.40953,-59.98343,-61.4857,-62.01226,-61.89342,-61.43857,-60.78814,-59.92129,-58.80233,-57.51759,-56.31246,-55.48957,-55.27618,-55.7226,-56.74394,-58.21834,-60.09343,-62.39323,-65.12742,-68.1772,-71.24409,-73.93571,-75.96638,-77.35277,-78.51323,-80.17155,-83.08385,-87.70375,-93.87392,-100.7342,-106.8911,-110.8432,-111.58,-109.1165,-104.7476,-100.7983,-99.87254,-103.8092,-112.7581,-124.8592,-136.7833,-145.013,-147.3477,-143.8976,-137.0428,-130.2766,-126.5047,-126.6509,-129.3614,-132.0039,-132.4258,-130.4339,-128.0897,-128.4838,-133.6243,-142.6077,-151.262,-153.6914,-145.091,-124.4417,-95.61349,-66.17952,-44.41087,-35.87476,-41.28255,-56.58337,-75.12737,-90.7214,-100.0243,-103.2238,-102.9423,-102.2116,-102.7598,-104.4319,-105.8424,-105.6046,-103.2777,-99.51162,-95.4467,-91.94392,-89.20671,-87.02664,-85.36557,-84.75496,-86.13079,-90.17502,-96.62376,-104.0698,-110.4941,-114.2587,-114.9493,-113.5584,-111.8355,-111.2241,-112.0246,-113.2588,-113.3306,-111.0261,-106.2386,-100.0353,-94.0424,-89.59547,-87.14559,-86.20644,-85.77308,-84.84664,-82.76035,-79.17155,-73.88675,-66.76695,-57.8362,-47.52454,-36.78586,-26.92365,-19.15222,-14.09728,-11.5479,-10.57799,-9.942938,-8.520239,-5.59149,-0.9353353,5.160582,11.84381,17.67421,20.7944,19.49882,13.08159,2.592967,-9.07373,-18.05386,-21.11038,-17.22139,-8.210391,2.053918,9.574779,12.26758,10.92173,8.501562,8.162174,11.17611,16.05527,19.4466,18.261,11.70211,1.871012,-7.475445,-13.24611,-14.93163,-14.82636,-16.34015,-21.44167,-28.90111,-34.55417,-33.58823,-23.52852,-6.069628,13.44773,28.7599,36.0589,36.08532,33.67765,35.02903,44.20613,60.89716,80.6061,97.08381,105.5403,104.8592,97.70423,88.70737,81.93335,79.11024,79.4497,80.89172,81.76125,81.77153,81.84361,83.04424,85.48576,87.97471,88.61891,85.98167,79.99886,72.07349,64.30832,58.37085,54.70683,52.5879,50.90837,49.2211,48.31598,49.93913,55.75723,66.14744,79.53515,92.73363,102.196,105.6027,102.955,96.58723,90.05779,86.4625,87.02251,90.71223,95.06905,97.74072,97.85978,96.44544,95.60721,97.036,100.7139,104.7066,106.2047,103.2469,96.06194,87.13204,79.88924,76.73106,77.59518,79.99239,80.53297,77.11138,70.38958,63.68866,61.30202,66.18248,78.33717,94.80514,111.1363,123.4539,129.9153,130.9068,128.1069,123.2602,117.4312,111.0928,104.6424,98.71849,93.95771,90.40002,87.17618,82.98756,77.22266,70.92187,66.67354,67.11747,72.76306,80.55016,84.37213,77.73875,57.31606,25.31442,-10.87731,-41.90265,-60.85551,-66.42628,-62.92654,-57.1347,-53.82475,-52.67581,-48.48131,-34.58594,-7.535788,29.87398,69.05006,99.40672,113.4508,110.359,96.15833,80.58049,72.42133,75.8712,89.50723,108.0125,125.2913,137.1599,142.425,142.3085,139.0629,134.802,131.0439,128.7949,128.6653,130.6651,133.8656,136.3703,135.9495,131.1789,122.4582,112.2032,103.9611,100.8285,104.0422,112.5101,123.4857,133.9511,141.8654,146.6649,148.8924,149.3949,148.6836,146.8277,143.7746,139.7281,135.2151,130.8008,126.7014,122.6497,118.1359,112.8446,106.9564,101.0809,95.90683,91.86313,89.07983,87.63665,87.82725,90.05472,94.3069,99.49083,103.2275,102.4888,94.95393,80.42828,61.43394,42.49472,28.30748,21.70444,22.47056,27.62436,32.97672,35.09739,32.66648,26.6408,19.34594,13.19422,9.728503,9.374559,11.73295,15.99218,21.15334,26.05497,29.46452,30.42548,28.77564,25.46149,22.27503,20.99242,22.35442,25.55611,28.67871,29.91729,28.8647,26.99868,26.93967,30.84163,38.8654,48.76141,56.91333,60.31844,58.36037,53.26726,48.93042,48.71941,53.54515,61.29695,67.98249,69.92205,65.75137,57.12893,47.77643,41.41673,39.70667,41.23502,42.02123,37.19861,23.02824,-1.655738,-35.13197,-73.57404,-112.4543,-147.9281,-177.6551,-200.8656,-217.815,-229.0511,-234.9045,-235.4941,-231.1907,-223.1759,-213.6365,-205.3021,-200.444,-199.8252,-202.279,-205.2793,-206.3222,-204.3639,-200.4532,-197.0543,-196.4158,-198.9678,-202.833,-204.9308,-203.0607,-197.6531,-191.8687,-189.6902,-192.9786,-199.2921,-202.1053,-193.6862,-169.3078,-130.4656,-85.07782,-44.29461,-17.44424,-7.803964,-11.4998,-20.0876,-25.30665,-23.28189,-15.86066,-8.512158,-6.2719,-10.2655,-16.94596,-20.40221,-16.23626,-4.577784,9.619956,19.17963,18.64036,7.244458,-10.69544,-28.14442,-38.96837,-40.8037,-35.72852,-28.63858,-24.48046,-25.94485,-32.70612,-42.27076,-51.61887,-58.5812,-62.31203,-62.94801,-60.9847,-56.9473,-51.49218,-45.66752,-40.90473,-38.53731,-39.07719,-41.73582,-44.59136,-45.43552,-42.88232,-37.11208,-29.83416,-23.42775,-19.73844,-19.12652,-20.26336,-20.75037,-18.25285,-11.5921,-1.310442,10.53994,21.25237,28.61033,31.79424,31.65142,30.17865,29.40841,30.19692,31.52874,30.76729,24.85755,11.99144,-7.099042,-28.95486,-48.5631,-61.43073,-65.57316,-62.38864,-55.92195,-50.86856,-50.34309,-54.59694,-61.31833,-67.266,-70.23323,-70.17613,-68.9057,-68.63126,-70.39487,-73.4991,-76.34512,-78.17842,-80.48335,-86.8845,-101.2743,-125.0283,-154.9361,-183.2929,-200.5326,-199.3549,-178.3194,-143.0094,-103.9909,-72.43127,-55.46273,-53.52301,-60.88554,-68.95035,-70.53643,-63.03166,-48.99152,-34.21741,-24.59201,-23.39743,-30.3393,-42.38505,-55.5558,-66.50294,-73.12085,-74.2767,-69.33724,-58.18868,-41.88217,-23.35333,-7.381265,0.698866,-2.797947,-17.85967,-40.1194,-62.20345,-76.64778,-79.03644,-69.80669,-53.83888,-38.05313,-28.25478,-26.77245,-31.90831,-39.25323,-43.98163,-42.94593,-35.68769,-24.19087,-11.84325,-2.238806,1.705996,-1.720182,-12.71781,-29.77547,-49.71951,-68.26691,-81.19366,-85.83157,-82.22968,-73.31055,-63.73027,-57.85859,-57.82297,-62.61848,-68.78825,-72.32398,-70.81001,-64.63557,-56.67627,-50.62064,-48.88515,-51.25356,-54.96949,-56.19062,-52.03135,-42.09313,-28.69268,-15.7016,-6.605105,-2.784517,-2.891116,-3.611304,-1.432789,5.492833,16.31145,27.80829,35.96156,37.96506,33.68179,25.8008,18.57451,15.75406,18.77122,26.09718,34.09428,38.90751,38.38739,33.05708,25.66741,19.69098,17.6335,20.07247,25.82951,32.98027,39.9509,46.03256,51.12672,55.11606,57.5196,57.79016,56.09342,53.91916,53.89442,58.67374,69.44091,84.95239,101.8044,115.8972,124.3182,126.5741,124.4758,120.8396,117.8603,116.2005,115.2732,114.3747,113.728,114.5988,118.3495,125.1357,133.2621,139.8448,142.4837,140.8945,137.2793,135.0357,136.4373,140.7268,143.9676,140.9399,128.1544,106.2428,80.24244,57.49291,44.18983,42.44465,49.3957,58.77887,64.0428,61.32454,50.87737,36.42539,23.08305,15.04236,14.12587,19.62903,29.17562,39.91327,49.45419,56.34235,60.11204,61.13174,60.3467,58.92994,57.87104,57.61874,57.98011,58.36813,58.27828,57.68698,57.06775,56.98683,57.54192,58.10225,57.59954,55.26583,51.31728,47.07286,44.30412,44.18096,46.47144,49.59264,51.53672,51.13604,48.83621,46.42635,45.83488,47.71533,50.74083,52.09343,48.91513,39.89473,26.07271,10.44793,-3.364196,-12.62833,-16.39366,-15.47117,-11.71235,-7.123292,-3.270016,-1.099454,-1.00978,-2.932046,-6.385866,-10.61266,-14.90594,-19.04618,-23.5182,-29.21265,-36.61657,-44.94775,-51.88328,-54.29141,-49.74862,-38.0213,-21.5329,-4.355137,9.845878,19.7516,26.99887,35.0002,46.59951,61.98236,78.16104,90.45092,95.11126,91.6003,83.0701,74.77202,71.28973,74.16007,81.17413,87.65807,88.88859,82.29105,68.36758,50.1096,31.53918,16.24511,6.561216,3.424356,6.560548,14.66824,25.54952,36.44437,44.72738,48.82026,48.82648,46.38317,43.67488,42.1212,41.56102,40.51725,37.42165,31.96858,25.64134,20.91047,19.56341,21.24981,23.32301,22.25026,15.81376,4.738909,-7.358998,-15.7947,-17.36881,-12.11888,-3.222797,4.883571,9.001963,8.783785,6.543528,5.530524,7.818592,13.13886,19.27743,23.62228,24.76385,23.11475,20.27618,17.72784,15.81239,13.69804,10.23779,5.031567,-1.148173,-6.858078,-11.0674,-13.99162,-17.05647,-21.95386,-29.40544,-38.45613,-46.79033,-51.90433,-52.42228,-48.78753,-42.96818,-37.41427,-33.90376,-32.89877,-33.63732,-34.74691,-34.933,-33.40604,-29.97039,-24.95481,-19.15917,-13.85256,-10.67608,-11.28618,-16.76489,-27.02083,-40.54262,-54.71204,-66.62321,-74.06546,-76.2546,-74.00588,-69.33669,-64.69297,-62.10368,-62.52786,-65.54029,-69.41966,-71.63161,-69.63094,-61.78801,-48.13583,-30.60758,-12.5771,2.213486,10.93074,12.62195,8.461802,1.210297,-5.861477,-10.11623,-10.36063,-7.118095,-2.386851,0.9964344,0.2476735,-6.390037,-18.8369,-34.88468,-50.74849,-62.50555,-67.93479,-67.91402,-66.46174,-69.10318,-80.12595,-100.062,-124.8106,-147.1,-159.7179,-158.9084,-146.1591,-127.4065,-110.1398,-100.0179,-98.80567,-104.591,-113.8152,-123.6368,-133.0925,-142.4733,-151.5911,-158.4036,-159.1597,-150.181,-130.2215,-101.8252,-70.75005,-43.61862,-25.1107,-16.21686,-14.40961,-15.42561,-15.50753,-12.88092,-7.906881,-2.224762,2.320239,4.33975,3.065651,-1.620302,-8.963841,-17.01997,-22.7328,-22.86347,-15.62081,-2.150619,13.20167,24.42024,26.61552,18.62797,3.884777,-11.16044,-20.23873,-20.34468,-12.93477,-2.616574,5.761374,9.791555,10.37079,10.39475,12.33113,16.37851,20.38741,21.46119,18.02819,10.9246,2.825947,-3.446768,-6.488571,-6.677512,-5.2794,-3.176516,-0.361747,3.374454,7.187236,8.591806,4.395325,-7.170751,-24.54701,-42.75403,-55.64018,-59.3762,-55.00475,-48.17258,-45.81309,-51.55977,-62.69761,-70.7623,-65.75516,-41.72287,-0.4867831,48.68674,93.35355,123.6771,136.5459,135.9179,129.6097,124.7358,124.5007,127.9147,131.9875,134.499,135.3993,136.1227,137.6747,139.2061,138.2549,132.519,121.8364,108.8204,97.58788,91.36832,90.61951,92.94555,94.8597,94.14375,91.15658,88.17434,87.26266,88.23548,88.24095,83.39064,71.43796,53.69083,34.8119,20.48499,14.35386,16.12397,21.98276,27.02097,28.08241,25.24896,21.12067,18.48825,18.0284,17.58266,13.49283,3.118157,-13.1182,-31.49233,-46.74466,-54.79688,-54.82095,-49.47998,-43.29953,-40.19297,-41.57645,-46.05148,-50.65666,-52.80404,-51.74864,-48.82229,-46.44933,-46.63443,-49.7924,-54.48593,-58.09334,-57.9466,-52.35758,-41.1371,-25.53166,-7.780207,9.444157,23.54484,32.42746,34.88559,30.944,22.03912,10.86091,0.7389603,-5.343647,-5.787508,-0.9974414,6.780716,14.45582,19.53395,21.29514,21.04992,21.22467,23.696,28.30111,32.49096,32.54758,25.86498,13.0572,-1.455862,-11.01341,-9.85559,3.737653,26.10725,49.59128,66.08443,70.94644,65.1579,54.51633,46.33419,45.50231,52.13835,62.07153,69.72981,71.58523,68.04433,62.70094,59.53551,59.94227,61.53759,59.5733,50.10397,32.937,12.48229,-4.110692,-10.51642,-4.463526,11.17869,29.99076,45.27526,53.13412,53.71991,50.20928,46.35308,44.16618,43.04713,40.6385,34.69219,24.71251,12.43211,0.9423639,-6.913162,-9.961108,-9.231894,-7.450271,-7.83534,-12.80452,-23.06006,-37.31861,-52.67971,-65.49525,-72.51138,-71.97392,-64.3282,-52.17319,-39.38155,-29.62241,-24.91467,-24.89711,-27.22254,-28.92998,-28.09622,-24.87516,-21.33072,-20.12429,-22.76712,-28.43232,-34.02724,-35.55569,-30.08029,-17.25849,0.3530689,18.38137,32.53242,40.3433,41.93817,39.5182,35.96756,33.40445,32.43005,32.38158,32.29559,31.87064,31.79111,33.18493,36.59371,41.17821,44.80048,45.08575,40.91796,33.42815,25.72689,21.30691,21.8862,25.93359,28.87586,25.12353,10.98058,-13.0975,-42.20957,-68.95913,-86.70854,-92.44041,-87.76071,-77.61028,-67.54951,-61.19321,-59.1661,-59.88189,-61.34474,-62.59498,-63.85201,-65.43285,-66.45882,-64.55407,-57.01279,-42.79661,-23.97666,-5.434702,7.296909,10.91223,6.201206,-2.314772,-8.8597,-9.560115,-4.398015,3.179943,8.678026,9.41773,6.04773,1.799139,0.06549484,1.942105,5.326402,6.148276,0.8925405,-11.20677,-27.65229,-44.0851,-56.62435,-63.67056,-66.16661,-66.37113,-66.13348,-65.8425,-64.62354,-61.45197,-56.2812,-50.39736,-45.85238,-44.46,-47.0588,-53.36488,-62.23813,-71.89632,-79.84827,-82.80143,-77.10034,-59.99192,-31.3364,5.247647,42.83579,73.4826,91.4299,95.56667,89.69013,80.31099,73.18867,70.59306,70.85205,70.3066,66.31006,59.24075,52.20784,48.68185,49.68891,52.53161,52.00006,43.40044,25.50995,1.588381,-22.19286,-39.92008,-48.76766,-49.87125,-46.93789,-43.71147,-41.9892,-41.32235,-40.25943,-37.97075,-34.98848,-32.62376,-31.72255,-31.94715,-32.32933,-32.76326,-35.21769,-43.45557,-61.03102,-88.62437,-122.4735,-155.1636,-178.6518,-187.9612,-183.4335,-170.2707,-155.6527,-145.1602,-140.5495,-139.9838,-140.2414,-139.286,-137.497,-136.9208,-139.2802,-144.2482,-149.2177,-150.7144,-146.4802,-136.8554,-124.6333,-113.6047,-106.7761,-105.3397,-108.7652,-115.5867,-124.0878,-132.4006,-138.2126,-138.7726,-131.6728,-116.2756,-94.86524,-72.52877,-55.42547,-48.13894,-51.54115,-62.46091,-75.44189,-85.62341,-91.07779,-93.26945,-95.46062,-100.1447,-107.1506,-113.5644,-115.4325,-110.0991,-97.70513,-80.9942,-63.68418,-48.52093,-36.22257,-25.80692,-15.87239,-5.8379,3.678862,11.46579,16.72768,19.71107,21.53629,23.45882,26.19782,29.84542,34.35226,40.07666,47.8141,58.13741,70.49761,82.84111,92.24624,96.3804,94.91785,89.95825,85.01382,83.07816,84.91658,88.67854,91.13667,89.83312,84.80651,78.78607,75.69335,78.32849,86.65862,97.74831,107.3736,112.3289,112.0531,108.6492,105.3928,104.7339,107.0381,110.7731,113.873,115.2892,115.6406,116.5582,119.2156,123.1027,125.9921,125.249,119.736,111.0859,103.4218,101.4974,108.2104,122.8894,141.3957,158.0691,168.5212,171.7477,170.4117,169.153,171.8795,179.5768,189.8438,198.3954,201.6301,198.7557,192.2556,186.4088,184.7612,188.0176,193.6124,197.2207,195.3449,187.462,176.4885,167.2584,163.8953,167.5578,175.84,184.1108,187.9993,185.5761,178.0444,168.6422,160.5072,154.7874,150.0777,143.4072,132.1133,115.4817,95.24984,74.8036,57.60923,45.78624,39.4806,37.19041,36.66555,35.82542,33.31594,28.6429,22.05764,14.3672,6.705424,0.202731,-4.451952,-7.379058,-9.53771,-12.25331,-16.41109,-21.78317,-27.00355,-30.35322,-30.98773,-29.83529,-29.47885,-32.89233,-41.65508,-54.69796,-68.44784,-78.45526,-81.6834,-78.16232,-71.00603,-64.71657,-62.70786,-65.45908,-70.35378,-73.27164,-70.98874,-62.98662,-51.68191,-41.02673,-34.38379,-32.92345,-35.384,-39.172,-42.00741,-43.0916,-43.19446,-43.78532,-45.89988,-49.49429,-53.62228,-57.18655,-59.67272,-61.35676,-62.90326,-64.71001,-66.50187,-67.47822,-66.90019,-64.69453,-61.64525,-59.02156,-57.86847,-58.4049,-59.89471,-61.05725,-60.7666,-58.62961,-55.14912,-51.42147,-48.57278,-47.24394,-47.3506,-48.191,-48.7936,-48.33706,-46.47487,-43.46093,-40.04907,-37.19851,-35.68531,-35.76766,-37.0499,-38.63362,-39.50598,-38.99149,-37.03409,-34.15998,-31.15234,-28.62799,-26.77687,-25.40586,-24.23067,-23.19322,-22.56725,-22.77256,-24.02932,-26.11193,-28.40346,-30.23757,-31.30628,-31.83993,-32.41253,-33.48251,-34.97451,-36.20176,-36.21729,-34.38624,-30.81741,-26.37073,-22.22239,-19.2657,-17.71793,-17.17157,-17.01991,-16.94461,-17.11832,-17.98648,-19.7944,-22.21198,-24.34995,-25.19156,-24.17436,-21.53275,-18.16178,-15.06832,-12.7522,-10.91442,-8.685081,-5.236001,-0.3949469,5.118189,9.985019,12.93205,13.34922,11.53768,8.482708,5.331787,2.906858,1.518871,1.126519,1.658852,3.232341,6.09199,10.3167,15.50776,20.71202,24.69291,26.45305,25.73355,23.20881,20.23782,18.26828,18.17348,19.85137,22.28794,24.06339,24.05334,21.98513,18.57418,15.17885,13.14587,13.17453,15.0077,17.59127,19.59837,20.0465,18.6981,16.07921,13.15408,10.86232,9.761114,9.908981,10.97693,12.45531,13.82981,14.68285,14.76268,14.07354,12.97134,12.16132,12.49293,14.56436,18.30598,22.81834,26.64622,28.42771,27.59484,24.69542,21.0934,18.16354,16.44799,15.31513,13.38294,9.492935,3.630413,-2.828493,-7.775795,-9.585971,-8.14673,-5.025116,-2.598973,-2.633135,-5.1586,-8.365988,-9.61358,-6.970088,-0.3758371,8.265427,16.09967,20.81647,21.74325,19.95269,17.42414,15.85937,15.88531,17.0423,18.40478,19.30464,19.65062,19.7138,19.6644,19.30635,18.24203,16.31975,13.94852,11.95772,11.04324,11.20949,11.68465,11.4624,10.14132,8.434185,7.881048,9.831442,14.32783,19.68934,23.21146,22.67051,17.73556,10.36192,3.838064,1.001559,2.700161,7.438019,12.41002,15.24358,15.33255,13.93908,13.07285,13.96203,16.17337,17.96564,17.59325,14.62655,10.35495,6.991021,6.234721,8.197468,11.42833,13.99884,14.86157,14.51083,14.48653,16.10007,19.33729,22.76913,24.57259,23.9274,21.733,20.04013,20.51386,23.00946,25.35987,24.68976,19.48193,10.98216,2.830873,-1.081237,0.6810814,5.562688,7.795017,1.259375,-17.10931,-45.33856,-77.04955,-104.3942,-121.6739,-127.6624,-125.4928,-120.394,-116.7612,-116.237,-117.7028,-118.8373,-118.0186,-115.3304,-112.1976,-110.1379,-109.6483,-109.9948,-109.9675,-108.9369,-107.3945,-106.5831,-107.5201,-110.1507,-113.2631,-115.2298,-115.0424,-112.9139,-110.0425,-107.7363,-106.5481,-106.018,-105.1967,-103.5023,-101.2796,-99.61694,-99.55412,-101.2608,-103.7881,-105.6178,-105.6381,-103.889,-101.5497,-100.1885,-100.7704,-103.0971,-106.019,-108.2279,-109.0555,-108.7248,-107.9518,-107.2582,-106.5742,-105.4422,-103.6443,-101.6946,-100.6972,-101.5425,-103.979,-106.3159,-106.1849,-102.066,-94.65101,-87.04194,-83.37589,-86.42743,-95.49072,-105.8469,-110.36,-102.5797,-79.84401,-44.82051,-4.675637,31.70705,57.1128,68.40849,67.03445,57.63216,45.73847,35.7303,29.83178,28.27869,30.15027,34.20198,39.28547,44.36548,48.42754,50.55947,50.26214,47.7659,44.0853,40.67554,38.83004,39.13615,41.28613,44.32542,47.17352,49.11321,49.99063,50.08252,49.76768,49.2414,48.44196,47.19323,45.44097,43.40284,41.53881,40.35761,40.17498,40.96464,42.37156,43.87442,45.0099,45.55101,45.56684,45.34911,45.25159,45.50825,46.11717,46.83374,47.27549,47.09556,46.14945,44.58105,42.78686,41.27751,40.49076,40.63501,41.62193,43.10838,44.62338,45.73149,46.18121,45.99352,45.46201,45.0636,45.2893,46.4585,48.5814,51.34822,54.26071,56.8568,58.90987,60.4878,61.8278,63.1048,64.24301,64.9228,64.80129,63.82413,62.41148,61.34312,61.36131,62.69774,64.82313,66.62218,66.94573,65.24173,61.89705,58.05676,55.01876,53.54718,53.52321,54.14189,54.51876,54.31134,53.94676,54.30075,56.03815,59.05064,62.37347,64.6489,64.84874,62.80375,59.20512,55.11154,51.30039,47.89802,44.5136,40.7422,36.64418,32.83637,30.11373,28.87828,28.7991,28.99111,28.61752,27.50749,26.32677,26.1306,27.55837,30.21817,32.72214,33.4372,31.51675,27.5553,23.3995,21.15968,21.98275,25.33033,29.2188,31.3074,30.20272,26.21853,21.16418,17.32119,16.22956,17.9793,21.36051,24.68525,26.73117,27.24789,26.80826,26.22108,25.95658,25.96297,25.91889,25.66391,25.43896,25.74876,26.95139,28.89022,30.8555,31.92838,31.49491,29.59715,26.90484,24.33395,22.56665,21.75587,21.56262,21.44697,20.99584,20.09122,18.86827,17.56053,16.37389,15.45759,14.93303,14.88536,15.27861,15.85711,16.15552,15.68314,14.21358,11.99611,9.71601,8.17679,7.873621,8.721835,10.12495,11.34667,11.944,11.97075,11.81698,11.80651,11.85588,11.4635,10.06818,7.543227,4.472873,1.980031,1.170354,2.519854,5.587005,9.230174,12.18983,13.6774,13.63098,12.54223,11.04295,9.570597,8.315384,7.403542,7.074043,7.622348,9.104773,11.04332,12.44291,12.24494,10.01003,6.386936,2.982164,1.595959,3.215159,7.370586,12.28807,15.79596,16.47614,14.37875,10.88964,7.860676,6.564805,7.115989,8.658871,10.115,10.92789,11.29845,11.80124,12.73333,13.72836,13.96475,12.82942,10.53867,8.206801,7.234505,8.384124,11.1755,14.05916,15.32184,14.17337,11.31001,8.572321,7.887205,10.14825,14.71882,19.83253,23.59229,24.91445,23.86453,21.27734,18.04078,14.60016,10.99761,7.316282,4.059985,2.05961,1.888424,3.210572,4.632616,4.334674,1.199738,-4.26502,-9.903375,-12.9622,-11.71332,-6.715366,-0.9211117,1.533294,-2.737093,-14.71525,-32.46169,-51.93886,-68.68936,-79.5019,-83.32428,-81.18587,-75.38852,-68.49329,-62.54437,-58.67687,-57.06555,-57.07982,-57.59829,-57.47513,-56.07766,-53.67365,-51.39239,-50.66014,-52.33857,-56.07142,-60.33086,-63.26666,-63.90879,-62.93427,-62.36368,-64.17735,-68.59253,-73.10658,-73.10831,-63.96153,-43.56275,-13.93357,19.13685,48.35923,68.00381,76.18308,75.22198,70.04122,65.53333,64.37011,66.30188,69.07134,70.20242,68.52609,64.68135,60.49768,57.82899,57.58012,59.4104,62.10771,64.28365,64.98399,63.99147,61.82397,59.48941,58.06406,58.1132,59.09683,59.07141,55.04937,44.15531,25.23326,0.102958,-26.39575,-47.94424,-59.36411,-59.06778,-49.97816,-38.26804,-30.43219,-30.19897,-36.93876,-46.42369,-53.46114,-54.85549,-51.00265,-45.27267,-41.68343,-42.36333,-46.36054,-50.45466,-51.35569,-47.85454,-41.56754,-35.88086,-33.82296,-36.24302,-41.40284,-46.1535,-47.88262,-45.99091,-42.03804,-38.58456,-37.55187,-39.13937,-41.89993,-43.80164,-43.5183,-41.14928,-38.00996,-35.75084,-35.41991,-37.01651,-39.6853,-42.29382,-43.97295,-44.34072,-43.42208,-41.46715,-38.85092,-36.08406,-33.80018,-32.60615,-32.82275,-34.28377,-36.37862,-38.35255,-39.6891,-40.30994,-40.45678,-40.35659,-39.94788,-38.90465,-36.96403,-34.29576,-31.58906,-29.7157,-29.16066,-29.63058,-30.1744,-29.80544,-28.22838,-26.15194,-24.90551,-25.56381,-28.15082,-31.50328,-33.94185,-34.34721,-32.91692,-31.05378,-30.4176,-31.756,-34.32833,-36.36547,-36.3063,-33.98863,-30.94862,-29.55162,-31.46039,-36.43951,-42.31634,-46.1926,-46.17016,-42.49522,-37.3786,-33.60812,-32.85104,-34.74764,-37.35597,-38.6098,-37.76869,-35.86633,-34.85904,-36.08553,-39.14452,-42.02982,-42.4918,-39.72069,-35.1474,-31.6896,-31.79296,-35.48011,-39.72471,-39.72314,-31.47159,-14.20285,8.765535,31.33586,47.42884,53.75957,51.11932,43.5503,36.00654,31.86054,31.60382,33.29004,34.24095,32.88422,29.64081,26.4597,25.44317,27.48776,31.76567,36.28408,39.08673,39.32477,37.56764,35.25144,33.68419,33.26484,33.38587,33.02176,31.5812,29.43584,27.77328,27.84831,30.10504,33.73544,36.99814,38.15926,36.52964,32.96833,29.49889,28.1904,29.8869,33.50987,36.36988,35.37981,28.55743,16.02531,-0.01345555,-16.28306,-29.85867,-39.2385,-44.55665,-46.96724,-47.71543,-47.53365,-46.70027,-45.57613,-45.05997,-46.44163,-50.57391,-56.84893,-62.7397,-64.43613,-58.47216,-43.56678,-21.65432,2.564003,23.4373,36.67252,40.97947,38.27211,32.42862,27.35899,25.38813,26.65519,29.57795,31.88623,31.57566,27.41316,19.03185,6.90443,-7.622558,-22.33246,-34.46834,-41.55314,-42.47599,-38.24743,-31.83751,-26.95373,-26.28023,-30.14196,-36.41159,-41.79122,-43.75081,-41.96507,-38.36436,-35.76305,-35.94924,-38.46676,-40.89904,-40.48354,-36.01574,-28.78683,-21.92002,-18.50373,-19.71714,-24.14922,-28.74206,-30.73363,-29.33499,-26.07101,-23.60578,-23.87301,-26.77189,-30.28113,-31.88424,-30.32322,-26.49155,-22.88028,-21.96894,-24.65062,-29.73361,-34.80978,-37.84979,-38.41682,-37.69329,-37.36519,-38.22739,-39.55159,-39.71053,-37.61886,-33.91209,-30.89782,-31.12984,-35.44911,-41.81091,-45.82813,-42.91325,-30.8544,-11.30086,10.78585,29.47678,40.71573,44.06955,42.46671,40.18856,40.36359,43.42231,47.30107,49.10044,47.07488,41.74354,35.537,31.33781,30.87244,33.9157,38.66072,42.88983,45.1533,45.28933,44.11787,42.67373,41.55316,40.75557,39.99579,39.13514,38.36019,37.991,38.11434,38.37403,38.1272,36.88496,34.72343,32.35096,30.74846,30.58802,31.7978,33.5517,34.69279,34.32788,32.24734,28.94455,25.27915,22.02641,19.58599,17.9752,17.02948,16.6126,16.68402,17.20839,18.03489,18.88336,19.48268,19.75753,19.90428,20.2619,21.03949,22.08653,22.89146,22.85067,21.66357,19.60252,17.45852,16.16601,16.30461,17.77578,19.84765,21.55014,22.19174,21.69848,20.59565,19.66862,19.52503,20.32107,21.79116,23.51779,25.23682,26.97285,28.93091,31.24987,33.80044,36.18407,37.92934,38.75398,38.71354,38.14471,37.46062,36.94913,36.7157,36.78509,37.24472,38.25953,39.89255,41.82847,43.22577,42.90087,39.85465,33.90404,26.04585,18.25657,12.72979,10.88949,12.70199,16.6975,20.74209,23.17166,23.67019,23.38603,24.1972,27.5264,33.37919,40.16931,45.46101,47.23037,44.94856,39.88171,34.44592,30.97622,30.58917,32.74104,35.67282,37.4409,36.93047,34.31613,30.78715,27.78501,26.24842,26.27997,27.35654,28.85305,30.49123,32.42558,34.94836,38.06498,41.25985,43.6408,44.38648,43.21664,40.58881,37.48826,34.92756,33.44412,32.87395,32.51944,31.60006,29.73188,27.18161,24.77571,23.52541,24.15953,26.78087,30.78193,35.04004,38.3035,39.61538,38.63117,35.71638,31.80044,28.03691,25.40241,24.38707,24.90218,26.4273,28.31106,30.0606,31.47719,32.58504,33.43798,33.95979,33.94492,33.23024,31.91203,30.43819,29.46726,29.54951,30.81105,32.85235,34.94025,36.39315,36.91959,36.69766,36.14638,35.54582,34.79025,33.46469,31.22441,28.23136,25.32435,23.74479,24.51975,27.84109,32.81813,37.78818,41.03102,41.50655,39.2003,34.92476,29.73526,24.36241,19.00676,13.59372,8.24882,3.606339,0.6769385,0.3053535,2.561186,6.487302,10.43025,12.81518,12.92509,11.21807,8.988638,7.573324,7.587535,8.647002,9.719069,9.843022,8.732471,6.864834,5.024572,3.636684,2.385191,0.4167415,-2.973115,-7.6271,-12.30739,-15.19866,-14.89283,-11.27737,-5.756501,-0.6152439,2.14825,1.864241,-0.4957901,-2.906765,-3.429877,-1.240567,3.023765,7.736419,11.23495,12.66467,12.25357,10.95209,9.762087,9.216274,9.2881,9.676382,10.15131,10.66954,11.20592,11.5242,11.18235,9.868717,7.846657,6.083851,5.789107,7.473903,10.10099,10.98662,6.776177,-4.836462,-23.54005,-45.95376,-66.73051,-80.79221,-85.57246,-82.0756,-74.17619,-66.5594,-62.46872,-62.48805,-64.92601,-67.40155,-68.53477,-68.66822,-69.24426,-71.37977,-74.70386,-77.32675,-77.01424,-72.79436,-65.88482,-59.23323,-55.8705,-57.08281,-61.56369,-66.13121,-67.60535,-64.69392,-58.72677,-52.78718,-49.80611,-50.81964,-54.47407,-58.04787,-59.30742,-57.98444,-55.94499,-55.95754,-59.85823,-67.27489,-75.69528,-81.81041,-83.29826,-79.97704,-73.71716,-67.26659,-62.78576,-60.95441,-61.07943,-61.95442,-62.81591,-63.76876,-65.50926,-68.6422,-73.12991,-78.23402,-82.92216,-86.39968,-88.39341,-89.05337,-88.6329,-87.26589,-85.00648,-82.06173,-78.95872,-76.43185,-75.06649,-74.94659,-75.60385,-76.34706,-76.7606,-77.00344,-77.66579,-79.26777,-81.77763,-84.53392,-86.68179,-87.82239,-88.35558,-89.19347,-90.94977,-93.1862,-94.35152,-92.63338,-87.30104,-79.64395,-72.7214,-69.80313,-72.27113,-78.2314,-82.84818,-80.47562,-67.57941,-44.87159,-17.40214,7.562517,23.81233,28.90844,24.93438,16.98678,10.34245,7.905465,9.266032,11.69367,12.26634,9.770298,5.275039,1.185866,-0.4854236,0.5210133,2.56372,3.187357,0.7128721,-4.675888,-10.99046,-15.56122,-16.51591,-13.74055,-8.815269,-4.044765,-1.212335,-0.7791213,-1.917621,-3.250008,-3.774895,-3.420531,-2.953847,-3.379283,-5.247098,-8.295689,-11.60565,-14.12819,-15.24341,-15.02596,-14.10062,-13.2243,-12.86958,-13.05383,-13.47351,-13.80754,-13.96189,-14.09094,-14.40114,-14.90958,-15.36575,-15.43369,-15.03615,-14.60875,-15.0266,-17.15536,-21.23786,-26.49059,-31.2267,-33.53624,-32.21088,-27.40575,-20.62116,-13.96997,-9.107977,-6.444409,-5.099526,-3.63975,-1.135085,2.135392,4.798878,5.282917,2.93305,-1.375479,-5.565055,-7.470817,-6.075519,-2.094933,2.467143,5.528665,6.152862,5.020197,3.867835,4.279182,6.625784,9.85484,12.25979,12.7092,11.51079,10.31904,11.12821,14.99762,21.33365,28.18829,33.37893,35.70093,35.47585,34.13305,33.16261,33.17442,33.68358,33.71846,32.76849,31.36976,30.89127,32.64692,36.9443,42.72277,48.0452,51.14296,51.3448,49.33545,46.62802,44.65322,44.06643,44.66309,45.83697,47.14996,48.56656,50.22353,51.9912,53.26667,53.24062,51.48513,48.41624,45.22154,43.21211,43.00738,44.12098,45.28249,45.31311,43.96185,42.09782,41.08127,41.72245,43.56536,45.04634,44.49304,41.31829,36.58154,32.47145,30.98805,32.6623,36.17521,39.16717,39.7364,37.65181,34.46878,32.45278,33.01429,35.69328,38.38252,38.66328,35.38886,29.47748,23.40962,19.75371,19.69373,22.48751,26.1621,28.91833,30.27443,31.18877,33.13035,36.78782,41.34826,44.8728,45.52007,42.78267,37.88422,33.04557,30.10614,29.41759,29.74622,29.24349,26.82879,23.05652,19.8837,19.4883,22.89803,29.30581,36.48137,41.98567,44.40383,43.85936,41.58125,38.92245,36.53619,34.23927,31.57126,28.55002,26.0227,25.30484,27.33435,31.91829,37.62279,42.43121,44.79979,44.46908,42.54406,40.79941,40.63989,42.33548,44.95164,46.97635,47.23755,45.56269,42.82639,40.39254,39.31099,39.71988,40.78547,41.18757,39.88364,36.74069,32.70191,29.3873,28.30676,30.06184,33.94196,38.15028,40.59292,39.87453,35.99622,30.37584,25.1495,22.10306,21.81717,23.50463,25.63339,26.95275,27.28274,27.55559,29.07105,32.44586,36.96498,40.82396,42.15903,40.23864,36.02506,31.69038,29.34799,29.80016,32.12108,34.3738,35.00024,33.94971,32.75122,33.42641,36.94095,42.24708,46.64018,47.29594,43.0594,35.32863,27.41717,22.73713,22.9005,26.90771,31.89412,34.92431,34.68358,32.02096,29.09962,27.81113,28.56465,30.22834,31.1755,30.61461,29.22159,28.61861,30.09509,33.51136,37.2086,39.02062,37.69732,33.74104,29.06292,25.69822,24.49274,24.68506,24.6729,23.38257,21.21485,19.82485,20.84916,24.49614,29.07701,31.94092,31.26431,27.46232,23.13838,21.42898,23.7169,28.21799,30.50173,25.80649,11.84463,-9.593412,-33.2455,-52.88019,-64.25372,-66.84668,-63.50672,-58.40815,-54.69373,-53.19764,-52.82165,-52.02932,-50.28231,-48.44954,-48.04372,-49.98623,-53.86239,-58.19476,-61.46558,-63.08148,-63.56735,-63.88966,-64.5004,-64.88301,-63.9966,-61.28213,-57.43125,-54.245,-53.58171,-56.10441,-60.75567,-65.40766,-68.29884,-69.23865,-69.68195,-71.52438,-75.44673,-80.01831,-82.35657,-80.05673,-73.14922,-64.67032,-59.2344,-60.2923,-67.72332,-77.34134,-82.81051,-78.98666,-64.79275,-43.93981,-23.07236,-8.407071,-2.774439,-4.66075,-9.607421,-12.96295,-12.3104,-8.273897,-3.501129,-0.7043024,-1.05387,-3.797645,-7.085473,-9.250675,-9.667213,-8.760182,-7.392438,-6.213189,-5.437116,-5.075943,-5.266456,-6.30772,-8.333523,-10.91774,-13.02296,-13.45685,-11.58294,-7.7911,-3.359986,0.222605,2.007872,1.86744,0.1211177,-3.165459,-8.597052,-17.15366,-29.29659,-44.10958,-59.1932,-71.567,-79.12899,-81.73553,-81.13546,-79.68477,-78.62377,-77.05118,-72.36816,-62.02758,-45.54395,-25.46277,-6.578087,6.257625,10.49721,7.076424,-0.2513463,-6.983336,-10.10687,-9.254639,-6.265926,-3.616668,-2.804851,-3.655684,-4.810136,-4.879706,-3.399167,-0.9713144,1.360995,2.94759,3.924124,4.916535,6.354136,7.969456,8.895944,8.294064,6.026994,2.85348,-0.03434474,-1.812155,-2.582914,-3.281648,-4.974966,-8.048038,-11.85768,-15.10347,-16.66723,-16.33371,-14.90145,-13.6139,-13.31986,-13.94793,-14.64205,-14.43706,-12.97295,-10.74694,-8.744651,-7.746337,-7.823388,-8.381541,-8.690361,-8.473048,-8.096628,-8.20753,-9.094969,-10.29127,-10.76248,-9.609506,-6.799559,-3.379299,-0.9532725,-0.7253259,-2.728443,-5.778309,-8.212063,-8.944733,-8.14256,-7.060008,-7.138199,-8.961931,-11.77063,-13.85696,-13.60122,-10.47597,-5.388052,-0.1632935,3.464165,4.707692,3.921945,2.099659,0.09361549,-1.873759,-4.105012,-6.874606,-9.903983,-12.31106,-13.12761,-12.04798,-9.87735,-8.314502,-9.132556,-13.21039,-19.98032,-27.61033,-33.81765,-36.8651,-36.23027,-32.6734,-27.76792,-23.20821,-20.23693,-19.38125,-20.47621,-22.86204,-25.63435,-27.8966,-28.99874,-28.71787,-27.30286,-25.32234,-23.36349,-21.73982,-20.39772,-19.09825,-17.75568,-16.6728,-16.44404,-17.53044,-19.76042,-22.14189,-23.21505,-21.83429,-17.94186,-12.82418,-8.606853,-7.200155,-9.272361,-13.85001,-18.79744,-21.90745,-21.97676,-19.26009,-15.09622,-11.00317,-7.837806,-5.52137,-3.422312,-1.047312,1.481835,3.501049,4.346042,3.945765,3.012717,2.664517,3.720496,6.153119,9.079448,11.31217,12.11279,11.64462,10.82966,10.70818,11.73334,13.46818,14.88513,15.06527,13.8354,11.93214,10.58752,10.80513,12.77691,15.7829,18.6087,20.19651,20.13669,18.73738,16.69809,14.63883,12.79616,11.04857,9.203899,7.32419,5.8593,5.491378,6.78101,9.806382,13.99907,18.26736,21.37111,22.39466,21.12806,18.18508,14.78975,12.28378,11.549,12.60453,14.59919,16.24741,16.52529,15.26816,13.31605,12.07606,12.70052,15.3431,18.9541,21.79179,22.40282,20.51052,17.26282,14.64752,14.38631,16.95448,21.32131,25.58228,28.10159,28.4676,27.6621,27.33906,28.65588,31.3922,33.89955,33.92643,29.81816,21.3873,9.987398,-2.182389,-13.05416,-21.36622,-26.73345,-29.25782,-29.12438,-26.56169,-22.18914,-17.37791,-14.15347,-14.43304,-18.89227,-26.12815,-32.75597,-34.60885,-28.56561,-14.10688,6.236724,27.82118,45.7661,56.84605,60.4947,58.53714,53.93655,49.30955,45.96413,43.8224,42.05204,39.88673,37.12414,34.10215,31.31059,29.00019,27.07988,25.32727,23.71536,22.57878,22.48237,23.87355,26.75203,30.57724,34.46988,37.58166,39.41468,39.92853,39.42278,38.32141,37.00893,35.80155,35.00287,34.93357,35.84712,37.76247,40.32573,42.8413,44.50879,44.77149,43.58687,41.46286,39.2185,37.60299,36.98184,37.25512,38.03597,38.93884,39.77998,40.55196,41.21495,41.48436,40.83017,38.75744,35.23895,31.00452,27.43156,25.98921,27.47845,31.48973,36.43959,40.24512,41.32108,39.36465,35.46848,31.48171,28.97219,28.4013,29.00108,29.42638,28.7562,27.19498,25.99433,26.6167,29.66901,34.32916,38.69927,40.9367,40.46459,38.46163,37.21553,38.6438,42.84724,47.61631,49.29758,44.61638,32.45663,14.58648,-5.097202,-22.37251,-34.52882,-41.24115,-44.09428,-45.19813,-45.81947,-45.8744,-44.49023,-41.13687,-36.4685,-32.25375,-30.41599,-31.82917,-35.69222,-39.93643,-42.43122,-42.2308,-40.06115,-37.73856,-36.90339,-37.88921,-39.46424,-39.61038,-36.85212,-31.28858,-24.67485,-19.49804,-17.60507,-19.20669,-22.82575,-26.18707,-27.48602,-26.2966,-23.6367,-21.23878,-20.51781,-21.84887,-24.51992,-27.28803,-29.1407,-29.79522,-29.69473,-29.58532,-29.98555,-30.87706,-31.76649,-32.03194,-31.32556,-29.79704,-28.0418,-26.82992,-26.76626,-28.0478,-30.40595,-33.23544,-35.83336,-37.64237,-38.40327,-38.16961,-37.19995,-35.80259,-34.21868,-32.60551,-31.10712,-29.93736,-29.38639,-29.71003,-30.95705,-32.85168,-34.84116,-36.31666,-36.89567,-36.59667,-35.79487,-34.9843,-34.51258,-34.46461,-34.77013,-35.42009,-36.59624,-38.55636,-41.32489,-44.42067,-46.89555,-47.76476,-46.63514,-44.11937,-41.70354,-41.03768,-43.02957,-47.29129,-52.32423,-56.35867,-58.31263,-58.20571,-56.69805,-54.02507,-49.10087,-39.55592,-22.95418,1.375545,30.9788,60.38755,82.93398,93.51099,90.88639,78.30612,62.01662,48.43143,41.41545,41.03455,44.28093,47.18415,47.03943,43.55463,38.46941,34.11898,31.94558,31.83639,32.52478,32.60816,31.42128,29.22985,26.75539,24.49111,22.35569,19.90393,16.86686,13.55203,10.75799,9.251285,9.194925,9.973613,10.57371,10.2602,9.063921,7.710558,7.02036,7.200712,7.56537,6.93869,4.53089,0.7185822,-2.831036,-3.865415,-0.7369944,6.594178,16.3374,25.58631,31.60515,33.01489,30.28911,25.37272,20.68302,18.03658,17.99274,19.82816,22.0366,23.04618,21.84071,18.28942,13.14357,7.74213,3.538448,1.573308,2.062521,4.273642,6.793833,8.12993,7.397454,4.760213,1.360355,-1.26172,-1.977181,-0.6645657,1.747379,3.829486,4.48448,3.576994,1.986603,1.050917,1.730538,3.997864,6.828774,8.807063,8.993645,7.540022,5.676218,5.063431,6.872181,11.10676,16.56311,21.44458,24.2992,24.75724,23.66475,22.54278,22.67415,24.33071,26.57606,27.76862,26.49956,22.45635,16.7269,11.35448,8.360681,8.751997,12.04218,16.55095,20.30286,22.02664,21.68914,20.29249,19.08826,18.71517,18.80609,18.30206,16.26331,12.63512,8.447971,5.291183,4.374601,5.783255,8.429272,10.75322,11.74204,11.59224,11.56246,13.08257,16.69286,21.52277,25.69218,27.41743,26.11598,22.78146,19.34344,17.39878,17.13449,17.17226,15.48515,10.83735,3.82191,-3.20983,-7.350814,-6.780738,-1.851899,5.052941,10.82049,13.28797,12.31226,9.614607,7.550756,7.588854,9.42462,11.24035,10.9016,7.338212,1.29041,-4.984668,-8.83173,-8.485828,-3.851521,3.557016,11.37217,17.36519,20.20338,19.72647,16.76265,12.67517,8.837479,6.172719,4.854004,4.254635,3.227013,0.6821923,-3.739894,-9.266308,-14.17437,-16.61263,-15.71838,-12.42041,-9.370271,-9.878925,-16.30027,-28.69666,-44.55469,-59.7902,-70.58512,-75.11333,-74.25662,-70.9567,-68.59109,-69.27225,-72.96108,-77.79442,-81.32786,-81.94016,-79.61619,-75.75551,-72.2299,-70.29574,-69.97282,-70.18232,-69.47389,-66.88269,-62.45415,-57.1991,-52.58002,-49.83706,-49.48503,-51.18774,-53.99926,-56.81328,-58.80178,-59.66262,-59.60515,-59.11466,-58.62906,-58.29121,-57.90422,-57.107,-55.66634,-53.70498,-51.70553,-50.26195,-49.71009,-49.86845,-50.07755,-49.55133,-47.85162,-45.19224,-42.36263,-40.28695,-39.46788,-39.65536,-39.95679,-39.34304,-37.25052,-33.92194,-30.27532,-27.38357,-25.87581,-25.61453,-25.8225,-25.56379,-24.27992,-22.07358,-19.60325,-17.6865,-16.86453,-17.1736,-18.2236,-19.50423,-20.72786,-22.01531,-23.8315,-26.69726,-30.8078,-35.74133,-40.41909,-43.41209,-43.53622,-40.51825,-35.38786,-30.28356,-27.59715,-28.72807,-33.05271,-37.74225,-38.73394,-32.56961,-18.25344,1.869926,22.81483,39.03105,46.87094,46.18317,40.18509,33.68226,30.62515,32.32914,37.28273,42.51669,45.6038,46.04555,45.26094,45.30393,47.23942,50.28142,52.2509,51.02953,46.03381,38.736,31.9004,28.04021,28.07324,31.00236,34.73871,37.46757,38.64753,39.0543,39.94852,42.02328,44.87838,47.33718,48.31768,47.59763,45.93407,44.49345,44.04361,44.506,45.16775,45.34138,44.93732,44.49406,44.64658,45.46746,46.24068,45.90751,43.91411,40.82605,38.19366,37.65227,39.81406,43.71231,47.23857,48.35849,46.33987,42.1837,37.94758,35.39013,34.82763,34.9731,33.87698,30.359,24.97518,19.86019,17.52087,19.33916,24.72856,31.45936,36.91269,39.44827,39.05204,36.94401,34.52086,32.40761,30.24689,27.28293,23.23411,18.75488,15.11524,13.31226,13.26141,13.68376,12.83943,9.662578,4.558367,-0.6832882,-3.835927,-3.479855,0.2118809,5.595549,10.46325,13.1491,13.18235,11.17496,8.145377,4.80057,1.25999,-2.665303,-6.921899,-10.85728,-13.35697,-13.4182,-10.78568,-6.224986,-1.240179,2.615273,4.446835,4.368336,3.344648,2.665273,3.349762,5.771396,9.608698,14.06348,18.18759,21.17801,22.57094,22.32985,20.82954,18.73457,16.78445,15.54302,15.2132,15.6168,16.3572,17.08205,17.6876,18.33964,19.29236,20.62221,22.05064,22.9821,22.7558,20.9819,17.79064,13.87281,10.30009,8.204406,8.43054,11.25932,16.26193,22.33262,27.92994,31.50773,32.03878,29.42729,24.59809,19.14869,14.66444,12.00811,10.96208,10.44308,9.199736,6.608289,3.100566,-0.04608803,-1.439062,-0.3824338,2.733298,6.703085,10.26663,12.85302,14.81929,17.01061,19.93106,23.08962,25.00858,23.97484,19.13132,11.25438,2.705433,-3.492704,-5.004496,-1.24929,6.358016,15.09439,22.15425,25.77901,25.76297,23.17995,19.585,16.16424,13.26614,10.47511,7.1014,2.762428,-2.256474,-7.038728,-10.43394,-11.61876,-10.55597,-8.133266,-5.88947,-5.417515,-7.677647,-12.52792,-18.70521,-24.30329,-27.56088,-27.60637,-24.81552,-20.61606,-16.84733,-14.99499,-15.65991,-18.46613,-22.37255,-26.16237,-28.86434,-29.9595,-29.40218,-27.54851,-25.06947,-22.82377,-21.6318,-21.95245,-23.59444,-25.67481,-26.94971,-26.43067,-23.96891,-20.43609,-17.31996,-15.91429,-16.56793,-18.47335,-20.16756,-20.4649,-19.23632,-17.51351,-16.81317,-18.08571,-20.9691,-23.85774,-24.79289,-22.64158,-17.83253,-12.18,-7.901708,-6.429263,-7.734587,-10.53551,-13.18131,-14.61053,-14.77692,-14.34692,-13.97835,-13.74256,-13.10612,-11.44873,-8.694077,-5.554308,-3.185414,-2.483964,-3.532735,-5.590027,-7.630389,-9.038818,-9.954786,-11.02093,-12.73705,-14.92065,-16.70698,-17.13343,-15.90408,-13.7713,-12.20458,-12.50704,-14.94198,-18.45429,-21.19825,-21.55702,-19.02296,-14.40093,-9.251979,-4.971446,-2.106905,-0.3071662,1.147793,2.664636,3.986242,4.383313,3.206737,0.3893336,-3.424429,-7.165417,-9.80232,-10.68302,-9.623807,-6.837701,-2.882671,1.311256,4.470973,5.274506,2.952089,-2.076204,-7.991084,-12.13012,-12.20099,-7.549442,0.2900575,8.207368,13.05635,13.27421,9.617832,4.553072,0.6679344,-0.89698,-1.005666,-1.728733,-4.734699,-9.946232,-15.36921,-18.22554,-16.66699,-10.96899,-3.461408,2.727972,5.289408,3.721764,-0.8068085,-6.446768,-11.72257,-15.95722,-18.9475,-20.38735,-19.69055,-16.48094,-11.37437,-6.306229,-3.905782,-6.110088,-12.88031,-21.96696,-30.05881,-34.69704,-35.73338,-35.32191,-36.3716,-40.45806,-46.62584,-51.97049,-53.68013,-51.1634,-46.73691,-44.26493,-46.54688,-53.20271,-60.59283,-64.01282,-60.84955,-52.61972,-44.39054,-41.73876,-47.03581,-57.4297,-65.94763,-65.25253,-51.90255,-28.58254,-2.929145,16.3982,24.1514,20.92543,12.34119,5.63931,5.785059,13.26366,24.57208,34.74956,40.21688,40.27332,36.65955,31.8574,27.44839,23.56369,19.5364,15.03028,10.68227,7.794683,7.37251,9.281054,12.18563,14.3221,14.55002,12.95697,10.62819,8.799146,8.017929,7.886678,7.503934,6.219897,4.139413,2.029037,0.7570665,0.7179759,1.669828,3.064252,4.565391,6.3146,8.717901,11.92514,15.42633,18.12945,18.92934,17.39675,14.10585,10.34989,7.410209,5.857831,5.338003,4.94718,3.914503,2.103611,0.0113088,-1.686923,-2.668715,-3.167248,-3.699467,-4.543566,-5.388206,-5.447832,-4.001605,-0.9848163,2.798331,6.021984,7.548299,7.048523,5.141617,2.973724,1.528354,1.118213,1.359623,1.599452,1.461354,1.119859,1.127962,1.929953,3.418661,4.858355,5.252405,3.943118,1.091168,-2.261542,-4.589446,-4.551502,-1.599951,3.747377,10.08731,15.67553,19.10471,19.8406,18.39518,16.06197,14.30968,14.10365,15.47122,17.54531,19.07584,19.14371,17.66856,15.40852,13.44846,12.51718,12.60538,13.17523,13.83584,14.98492,17.86382,23.82723,33.1953,44.44763,54.4368,59.7084,58.28931,50.88765,40.70678,31.85945,27.24999,27.15919,29.37502,30.76811,29.29535,25.17178,20.49183,17.62654,17.51804,19.05114,19.92083,18.37422,14.57822,10.61626,9.066459,11.13346,15.66356,19.81157,20.99404,18.83354,15.72899,15.55362,21.23049,32.72924,46.80431,58.69959,64.77335,64.40518,60.02359,55.32563,52.91262,52.89824,53.33065,52.01528,48.39241,44.11669,41.90788,43.45225,47.80165,51.41499,49.9102,40.49189,23.60007,2.82996,-16.7528,-30.85999,-37.55382,-37.47853,-32.95198,-26.70531,-21.00471,-17.37591,-16.63238,-18.79202,-22.81502,-26.51149,-27.07966,-22.33206,-12.04732,1.453661,14.11748,22.12016,23.931,21.19633,17.79742,17.55588,21.96119,29.33422,35.95707,38.43376,35.76838,29.82676,23.95674,20.75257,20.5116,21.40613,21.18389,19.11023,16.68945,16.54828,20.1971,26.25548,30.52762,28.12422,16.43514,-2.90713,-24.40458,-41.32013,-49.06976,-47.4203,-40.26132,-33.19695,-30.46882,-33.01033,-38.61678,-43.86282,-46.40041,-46.195,-45.10186,-45.28532,-47.66018,-51.36829,-54.50448,-55.47841,-54.04633,-51.38946,-49.30072,-49.10104,-50.98063,-54.0745,-57.07688,-58.91602,-59.12592,-57.85138,-55.68955,-53.54755,-52.52942,-53.69238,-57.59783,-63.82444,-70.82349,-76.4082,-78.78626,-77.58381,-74.16525,-70.87711,-69.53042,-70.01122,-69.97193,-65.95917,-55.44588,-38.59339,-18.62893,-0.5168672,11.39116,15.40425,13.09519,8.183509,4.431798,3.813644,5.943398,8.911269,10.81516,10.95812,10.035,9.379981,9.939495,11.71047,13.94243,15.8183,17.02966,17.8291,18.61609,19.47736,20.11534,20.21948,19.93473,19.9498,21.02569,23.2672,25.7317,26.79834,25.18353,20.95399,15.77719,12.10369,11.70532,14.49765,18.47029,20.86171,19.87826,15.85781,11.09987,8.444906,9.510147,13.728,18.79958,22.23283,22.92205,21.71539,20.62535,21.27498,23.6859,26.26187,26.97091,24.88235,20.95634,17.50035,16.64211,18.87037,22.66866,25.52231,25.62923,23.13807,20.04657,18.79866,20.51996,24.10471,26.80445,25.97276,20.83191,13.09235,6.013397,2.498264,3.448133,7.397606,11.60074,13.78963,13.42756,11.67486,10.18515,9.64727,9.133507,6.733477,1.048759,-7.49863,-16.4909,-22.69003,-23.8875,-20.28857,-14.56643,-10.51271,-11.07572,-16.89634,-26.13251,-35.57254,-42.32417,-45.1151,-44.57643,-42.53029,-40.83435,-40.49395,-41.45013,-42.99678,-44.43603,-45.54282,-46.6212,-48.22374,-50.76542,-54.24054,-58.13608,-61.52736,-63.31476,-62.57654,-58.9934,-53.20454,-46.8746,-42.26967,-41.34019,-44.6233,-50.51086,-55.38794,-54.80514,-45.31014,-26.15269,-0.0211776,27.64091,50.53277,63.81995,65.86961,58.66474,46.76637,35.34241,28.16369,26.39599,28.60803,31.8503,33.22038,31.19704,26.19579,20.18567,15.62563,14.24542,16.23666,20.21257,23.93403,25.4424,24.04455,20.65204,17.29274,16.02719,17.82531,22.00136,26.52904,29.09676,28.34562,24.61644,19.77954,16.22238,15.54707,17.70396,21.06364,23.40365,23.26266,20.89467,18.25549,17.99217,21.96132,30.08456,40.18111,48.90512,53.32033,52.29644,47.01904,40.35047,35.39703,34.02282,36.06398,39.59577,42.05361,41.57463,37.84914,32.0915,26.22399,21.80514,19.31304,18.15261,17.29209,16.07065,14.64407,13.79413,14.267,16.11034,18.48629,20.11939,20.09662,18.48041,16.29111,14.82912,14.77164,15.66819,16.24086,15.35324,13.02769,10.77208,10.87435,14.99434,22.91481,32.31518,39.86473,43.07384,41.8008,38.40141,36.29163,37.69529,41.94742,45.48787,43.72269,33.76285,16.43246,-3.72449,-20.58059,-29.56322,-30.01691,-25.42113,-21.3342,-22.25235,-29.20181,-39.41382,-48.17712,-51.6835,-49.15337,-43.0453,-37.36609,-35.24016,-37.26121,-41.55246,-45.33405,-46.85345,-46.3988,-45.80459,-46.89584,-50.01553,-53.66539,-55.50051,-53.97713,-49.50231,-44.28267,-40.96017,-40.93678,-43.51628,-46.43144,-47.39917,-45.65573,-42.43664,-40.07638,-40.33163,-43.06206,-46.17897,-46.93405,-43.73465,-37.30976,-30.45129,-26.47352,-27.33792,-32.59518,-39.75936,-45.81779,-48.88752,-49.00704,-47.65808,-46.4705,-46.05301,-45.74805,-44.41385,-41.60674,-38.2538,-36.26453,-37.28994,-41.45647,-46.98127,-51.01492,-51.25377,-47.328,-41.07971,-35.51857,-33.08307,-34.26091,-37.40581,-39.82521,-39.43842,-35.96752,-30.95479,-26.6649,-24.62478,-24.74693,-25.57737,-25.44754,-23.74607,-21.44521,-20.52728,-22.66145,-27.97102,-34.68087,-39.894,-41.06711,-37.34085,-29.9801,-21.70881,-15.34322,-12.4861,-12.94817,-15.11973,-16.99204,-17.22539,-15.71952,-13.46401,-11.84115,-11.80071,-13.3384,-15.50897,-16.94294,-16.60922,-14.46118,-11.6531,-10.16892,-11.95434,-17.88373,-27.0443,-36.76839,-43.5623,-44.6419,-39.40813,-30.08314,-21.03219,-16.90788,-20.3952,-30.64863,-43.2818,-52.04987,-51.52195,-39.50451,-18.05562,7.389738,30.34244,45.90662,52.52161,52.08228,48.56212,45.94249,46.49477,50.14582,55.03312,58.78386,59.79045,57.89767,54.3002,50.85273,49.20287,50.14817,53.43227,57.97695,62.39257,65.52941,66.86771,66.6164,65.50222,64.37466,63.80993,63.92037,64.44385,65.03199,65.51895,65.97882,66.51196,66.94753,66.72923,65.18099,62.06832,58.0944,54.90759,54.44057,57.82848,64.51774,72.18719,77.69014,78.62187,74.65638,67.84332,61.59497,58.87456,60.59703,65.17499,69.4866,70.69405,67.8334,62.23269,56.56751,53.17578,52.72075,54.01389,55.05293,54.53659,52.83256,51.76143,53.36208,58.47535,66.10283,73.96689,79.87957,83.01059,84.19856,85.11411,86.85893,88.9729,89.55907,86.49152,78.96089,68.34701,57.8254,50.88753,49.60188,53.58617,60.20512,65.80033,67.22611,62.91703,53.11124,39.36256,23.81245,8.613808,-4.376291,-13.7823,-18.94245,-20.15816,-18.73109,-16.56511,-15.37489,-15.87626,-17.45697,-18.60546,-17.90113,-14.97148,-10.79023,-7.094025,-5.282192,-5.535577,-6.775229,-7.520359,-7.07396,-6.192887,-6.704374,-10.23281,-16.84032,-24.51922,-29.98054,-30.36628,-24.88681,-15.3868,-5.466623,1.339998,3.270972,0.9614162,-3.284248,-7.02354,-9.02524,-9.65256,-10.17632,-11.60741,-13.88637,-15.95292,-16.57736,-15.31318,-12.88822,-10.76866,-10.2118,-11.46556,-13.63889,-15.29239,-15.31114,-13.46433,-10.31896,-6.654449,-2.865351,1.181294,5.738761,10.56177,14.59855,16.31596,14.52898,9.220879,1.800622,-5.430084,-10.32868,-11.89179,-10.61217,-8.049833,-5.920498,-5.253566,-6.075615,-7.703862,-9.365488,-10.7085,-11.91108,-13.40603,-15.48085,-18.04909,-20.71955,-23.05604,-24.80512,-25.92624,-26.4409,-26.26299,-25.18325,-23.04742,-20.0036,-16.62747,-13.79647,-12.35893,-12.77678,-14.94095,-18.24983,-21.88646,-25.1305,-27.55414,-29.04884,-29.72935,-29.80885,-29.50385,-28.97984,-28.31492,-27.48224,-26.37989,-24.93354,-23.24799,-21.71503,-20.97244,-21.67275,-24.14377,-28.12106,-32.73082,-36.77322,-39.18846,-39.47748,-37.85955,-35.10714,-32.16579,-29.774,-28.25943,-27.55698,-27.3645,-27.2972,-26.96631,-25.9929,-24.03618,-20.87819,-16.53977,-11.33964,-5.834204,-0.6605487,3.61907,6.573119,7.854423,7.152315,4.27205,-0.6318734,-6.802075,-12.84392,-17.07235,-18.17915,-15.89844,-11.26718,-6.249365,-2.848231,-2.165435,-3.935236,-6.802419,-9.171312,-10.10245,-9.708811,-8.842184,-8.32831,-8.311005,-8.179742,-7.13477,-4.976478,-2.51571,-1.240088,-2.387106,-6.025685,-10.79931,-14.58362,-15.69916,-13.91411,-10.56271,-7.659801,-6.563169,-7.072799,-7.60316,-6.377434,-2.887712,1.370009,3.46804,0.6868909,-7.72955,-19.80641,-31.60513,-39.16195,-40.50573,-36.60014,-30.6674,-26.32509,-25.63487,-28.19487,-31.73386,-33.7612,-33.20927,-31.07034,-29.68845,-31.21744,-36.24027,-43.41219,-50.30762,-54.90236,-56.73793,-57.04429,-57.76954,-60.15433,-63.76849,-66.6238,-66.32339,-61.54051,-52.94598,-43.00745,-34.77328,-30.34295,-29.90729,-31.88968,-34.06738,-34.98399,-34.80503,-35.12143,-37.82983,-43.77108,-51.94968,-59.81349,-64.46292,-64.12085,-59.05546,-51.46188,-44.40563,-40.42493,-40.54241,-44.13728,-49.60695,-55.31363,-60.22611,-63.95256,-66.31558,-66.92101,-65.15263,-60.64544,-53.90921,-46.5587,-40.83617,-38.56345,-40.09648,-43.94928,-47.40359,-47.8465,-44.11379,-37.07367,-29.11671,-22.85607,-19.79243,-19.70016,-21.02725,-21.98092,-21.58507,-20.07676,-18.47379,-17.69676,-17.8767,-18.30795,-18.02694,-16.57137,-14.36702,-12.48034,-11.92694,-13.02798,-15.25181,-17.61336,-19.30669,-20.10212,-20.23863,-19.94871,-19.03525,-16.88923,-12.98592,-7.503985,-1.564764,3.180124,5.418679,4.952763,2.83216,0.715463,-0.1492184,0.3546465,1.286502,1.467606,0.4721026,-0.9422554,-1.314187,0.411544,3.912497,7.384573,8.47849,5.736331,-0.3995224,-7.706592,-13.41599,-15.80429,-15.12273,-13.25449,-12.32044,-13.16679,-14.76495,-14.97036,-12.17661,-6.75842,-1.274501,0.8489749,-2.549502,-10.69034,-19.71241,-24.27445,-20.10034,-6.115323,14.95136,37.77214,56.7499,68.26589,71.79251,69.52557,64.93922,61.13607,59.76006,60.81098,63.19239,65.53783,66.88403,66.97089,66.17089,65.18344,64.64255,64.77512,65.23409,65.2012,63.78082,60.53929,55.91834,51.24053,48.20525,48.07891,51.01586,55.92746,61.02338,64.74303,66.52326,66.93213,67.09229,67.77782,68.80338,69.12503,67.60857,63.94394,59.06565,54.75228,52.63184,53.23364,55.72392,58.50456,60.28403,60.89037,61.2743,62.69733,65.67762,69.45016,72.35984,72.96086,71.09312,68.15267,66.30653,67.10307,70.35159,74.05029,75.45915,72.72138,66.03964,57.69039,50.85978,47.98963,49.60143,54.22741,59.39464,62.99471,64.21634,63.57742,62.2036,60.93208,59.84226,58.44212,56.25191,53.30365,50.1886,47.66363,46.15843,45.55991,45.41858,45.37593,45.45201,45.95315,47.07636,48.55167,49.64853,49.6125,48.24667,46.20055,44.69817,44.82896,46.84707,49.96339,52.79859,54.22029,54.00373,52.87518,51.89878,51.64622,51.7373,51.10771,48.83659,44.96481,40.68987,37.75212,37.37172,39.46196,42.68539,45.37102,46.69353,47.27911,48.7298,52.28,57.43904,61.60447,61.09632,53.18155,37.94315,18.81022,1.263602,-9.726525,-12.16981,-8.055025,-2.273787,-0.02100526,-4.083669,-13.48716,-24.19738,-31.42133,-32.18065,-26.74863,-18.24524,-10.76157,-7.172274,-7.871077,-11.02592,-14.0201,-15.09467,-14.20298,-12.67245,-12.04825,-12.96333,-14.77363,-16.13115,-16.0247,-14.53821,-12.80246,-12.19611,-13.36725,-15.7608,-17.98715,-18.78063,-17.88972,-16.27959,-15.48463,-16.52915,-19.13819,-21.78561,-22.58869,-20.49182,-15.98369,-10.87225,-7.245343,-6.261693,-7.525557,-9.424226,-10.19205,-9.014482,-6.472583,-4.07079,-3.181733,-4.105239,-5.845303,-6.733745,-5.481023,-1.977183,2.647846,6.709863,8.935409,9.092937,7.931045,6.529238,5.533849,4.785902,3.546399,1.116916,-2.595949,-6.949351,-10.92484,-13.70643,-15.078,-15.40027,-15.23297,-14.90145,-14.31955,-13.16589,-11.25358,-8.810283,-6.467883,-4.986712,-4.917857,-6.422207,-9.317885,-13.24325,-17.76242,-22.32911,-26.20433,-28.51228,-28.53841,-26.15862,-22.10536,-17.80383,-14.74719,-13.71498,-14.30935,-15.16218,-14.77324,-12.52699,-9.26807,-7.027913,-7.981682,-13.18168,-21.77153,-31.13623,-37.93074,-39.46438,-34.76411,-24.85448,-12.22112,0.195757,9.998497,15.96501,18.19686,17.84996,16.58778,15.88473,16.34983,17.30005,16.86147,12.73752,3.46162,-10.43347,-26.05151,-39.02959,-45.50475,-44.2452,-37.7482,-31.47863,-31.38627,-40.8607,-58.75547,-79.66302,-96.46114,-103.8555,-101.0381,-92.0082,-83.3942,-80.98649,-86.91459,-98.96596,-112.2824,-122.295,-127.1017,-127.947,-127.6565,-128.17,-128.8022,-126.3807,-117.1855,-99.49739,-75.16413,-49.1954,-27.55237,-14.36722,-10.12795,-11.77689,-14.575,-14.62588,-10.6675,-4.258909,1.564266,4.261037,3.228055,-0.02698476,-2.940676,-3.451762,-1.126459,2.757265,6.129058,7.442044,6.590234,4.904953,4.26071,5.841891,9.312841,12.90964,14.44308,12.66623,8.211706,3.494401,1.519833,4.165587,10.85438,18.40766,22.28515,18.67824,6.422042,-12.26718,-32.64596,-49.48691,-59.28656,-61.5521,-58.58464,-53.99981,-50.85687,-50.39183,-51.91365,-53.7144,-54.30284,-53.20568,-50.95084,-48.43447,-46.22093,-44.27703,-42.25557,-40.02154,-37.94763,-36.72235,-36.80418,-37.95414,-39.23605,-39.5395,-38.28263,-35.79405,-33.08725,-31.16296,-30.32289,-29.992,-29.19313,-27.35834,-24.8989,-23.10464,-23.39259,-26.38069,-31.40133,-36.78696,-40.75439,-42.32229,-41.68474,-39.8566,-37.88907,-36.2286,-34.64687,-32.72736,-30.47461,-28.53149,-27.78615,-28.64025,-30.50181,-31.95009,-31.55863,-28.86437,-24.80638,-21.26969,-19.9532,-21.26405,-23.97193,-25.89351,-25.2198,-21.67105,-16.74793,-12.91082,-12.18058,-15.00853,-20.081,-25.13177,-28.23104,-28.76734,-27.58148,-26.26478,-26.12683,-27.47146,-29.55261,-31.12364,-31.15879,-29.30439,-25.87419,-21.52403,-16.90478,-12.51037,-8.727865,-5.926927,-4.43084,-4.361212,-5.498339,-7.316681,-9.221958,-10.84142,-12.15185,-13.33744,-14.47425,-15.28641,-15.18569,-13.6034,-10.39981,-6.057993,-1.502462,2.360581,5.088504,6.847996,8.18508,9.600246,11.23076,12.83935,14.07053,14.73515,14.88464,14.62136,13.82957,12.09331,8.938103,4.265188,-1.336235,-6.674006,-10.4495,-11.88369,-11.07607,-8.872136,-6.340053,-4.226017,-2.74658,-1.805402,-1.39002,-1.762045,-3.233461,-5.683314,-8.242533,-9.515117,-8.330286,-4.57364,0.5118523,4.886514,6.887287,6.291372,4.527783,3.806674,5.660718,9.842566,14.35383,16.66131,15.35077,11.12718,6.45042,3.988443,4.875428,7.933211,10.40717,9.766165,5.396227,-0.9341584,-6.147802,-7.758074,-5.333376,-0.5746454,3.98229,6.686835,7.691461,8.444197,10.18903,12.66487,14.09473,12.62714,8.272478,3.864101,4.096996,12.95578,31.02745,54.4618,76.45228,90.56393,94.04255,89.15602,81.76878,78.01218,81.03312,89.69427,99.83324,107.1008,109.4971,108.0601,105.4874,103.8256,102.9301,100.7604,95.25079,86.3721,76.85453,70.94182,71.89556,79.85111,91.43571,101.4614,105.693,103.0387,95.88749,88.50736,84.5522,85.19921,88.90899,92.75055,94.29253,92.88766,89.68857,86.63099,85.19698,85.75369,87.73095,90.28728,92.87283,95.3092,97.48588,99.07858,99.63179,98.96146,97.50789,96.22141,95.93556,96.62009,97.11231,95.66196,91.07076,83.71861,75.75181,70.17056,69.26546,73.29836,80.21635,86.58886,89.20634,86.43077,78.57801,67.2523,54.20823,40.51633,26.52179,12.46973,-0.7865567,-11.60748,-18.12256,-19.18106,-15.07246,-7.534402,0.9672768,8.251417,13.14905,15.61027,16.27631,15.9086,15.05588,14.06982,13.27747,13.02457,13.47122,14.30251,14.66253,13.50027,10.20337,5.128141,-0.3692252,-4.50284,-5.931712,-4.416793,-0.858104,3.296506,6.874596,9.500934,11.51095,13.37735,15.10431,16.05045,15.31867,12.43544,7.828034,2.742811,-1.363638,-3.564255,-3.855042,-2.972673,-1.809458,-0.8581537,-0.06130826,0.883537,2.063245,3.136596,3.569285,3.141042,2.305022,2.048442,3.261584,6.014306,9.266747,11.29872,10.66401,7.098183,1.785852,-3.217,-6.080922,-6.155725,-4.203352,-1.796333,-0.2940385,-0.05703709,-0.3706668,-0.06860255,1.604724,4.471069,7.542962,9.649782,10.1003,8.94629,6.742302,4.072253,1.258035,-1.527265,-3.883716,-4.949618,-3.644765,0.6353166,7.300967,14.38904,19.21594,19.6269,15.16545,7.445323,-0.5730486,-6.054202,-7.696135,-6.278514,-4.053878,-3.362086,-5.295994,-9.185953,-13.15402,-15.34275,-15.04708,-13.07429,-11.16623,-10.88276,-12.64329,-15.48901,-17.6624,-17.62662,-14.91847,-10.38085,-5.700059,-2.562495,-1.903748,-3.607826,-6.726625,-10.01905,-12.49751,-13.74132,-13.90862,-13.53347,-13.2577,-13.61537,-14.91613,-17.21368,-20.33168,-23.9215,-27.54684,-30.78315,-33.31234,-34.99713,-35.90849,-36.29757,-36.51321,-36.87316,-37.52145,-38.33276,-38.93353,-38.87509,-37.91933,-36.29718,-34.76156,-34.32116,-35.71333,-38.86462,-42.66732,-45.29493,-45.00166,-41.03845,-34.18943,-26.5701,-20.71003,-18.35306,-19.61067,-22.94105,-25.98474,-26.80507,-24.84956,-21.10801,-17.41402,-15.32954,-15.28092,-16.43819,-17.36714,-17.01845,-15.43396,-13.74771,-13.50679,-15.7416,-20.34748,-26.11986,-31.38335,-34.82063,-36.034,-35.57904,-34.54166,-33.96114,-34.42866,-36.00739,-38.40034,-41.17801,-43.91616,-46.23055,-47.79345,-48.42111,-48.19871,-47.54173,-47.07724,-47.36062,-48.57288,-50.39883,-52.18583,-53.30067,-53.46219,-52.83002,-51.80604,-50.7033,-49.54469,-48.14958,-46.4529,-44.79108,-43.88201,-44.42737,-46.5564,-49.50726,-51.8477,-52.20438,-50.11929,-46.48409,-43.21338,-42.24995,-44.43468,-48.9098,-53.45548,-55.62208,-54.04175,-49.17094,-43.0323,-38.10534,-36.0151,-36.7765,-39.01157,-40.96233,-41.65015,-41.45602,-41.76849,-43.93486,-48.18409,-53.22075,-56.77838,-56.83968,-52.81189,-45.96427,-38.84889,-34.02234,-32.77442,-34.56814,-37.47299,-39.32086,-38.9152,-36.63445,-34.13456,-33.37045,-35.51777,-40.37849,-46.55096,-52.19262,-55.90415,-57.25006,-56.70284,-55.14004,-53.26773,-51.31569,-49.12855,-46.50557,-43.49984,-40.46565,-37.84864,-35.91697,-34.66129,-33.95796,-33.86101,-34.76687,-37.24918,-41.6052,-47.38158,-53.24276,-57.37156,-58.27618,-55.58593,-50.36787,-44.73088,-40.87865,-40.09932,-42.22588,-45.8385,-49.05262,-50.43611,-49.55021,-46.89581,-43.41148,-39.92211,-36.88636,-34.52658,-33.11141,-33.05785,-34.69027,-37.80083,-41.38665,-43.88284,-43.8871,-40.99566,-36.2026,-31.52824,-28.99881,-29.547,-32.50225,-36.01762,-38.20058,-38.26458,-36.9754,-36.10218,-37.21219,-40.57393,-44.88208,-47.98716,-48.18264,-45.23277,-40.50576,-36.14654,-33.83924,-33.94695,-35.53778,-37.19989,-38.04245,-38.18827,-38.47043,-39.61855,-41.58224,-43.51609,-44.43505,-44.02933,-42.97116,-42.41105,-42.98055,-44.0565,-43.9439,-41.01122,-35.08472,-28.07681,-23.20751,-23.06536,-27.61666,-33.48913,-35.22251,-28.02043,-10.54011,13.90902,38.57632,56.35754,63.13779,59.59027,50.50826,42.13754,39.05724,42.31347,49.66499,57.52766,63.26515,66.43688,68.41602,70.87746,74.33447,77.7374,79.34609,78.17091,74.918,71.71929,70.80907,73.0472,77.31142,81.22249,82.75461,81.68071,79.86703,80.16437,84.55183,92.69675,101.868,108.3266,109.3926,104.9617,97.56702,90.9276,87.82699,88.5525,90.78686,90.99813,86.53127,77.21465,65.60365,55.75068,51.19663,53.25872,60.49287,69.54527,76.87621,80.4317,80.41197,78.83776,78.21321,80.08378,84.23247,88.93053,92.02399,92.22774,89.87472,86.71119,84.85426,85.52061,88.27308,91.2497,92.26741,90.16344,85.58231,80.69176,77.95937,78.68896,82.20065,86.18742,88.07213,86.55586,82.40009,77.91566,75.44456,75.77888,77.56593,78.15701,75.45927,69.62676,63.42905,60.87923,64.77892,74.59078,85.99324,92.58894,88.99007,73.6642,49.97463,24.79462,5.40051,-3.739208,-2.639,4.809153,13.21475,18.4363,19.24064,17.16892,14.97533,14.73781,16.76447,19.7827,22.066,22.6431,21.81252,20.74152,20.53975,21.48507,22.89246,23.62987,22.86271,20.51578,17.20377,13.77571,10.85991,8.724538,7.474074,7.318494,8.604506,11.51372,15.64581,19.86306,22.6402,22.81173,20.28287,16.22215,12.52932,10.83404,11.6036,13.91314,16.04393,16.56366,15.23174,13.1666,12.1589,13.54676,17.34284,22.15417,25.95326,27.2383,25.88725,23.20114,21.12477,21.11956,23.35537,26.67811,29.32981,29.96143,28.33191,25.30822,22.22451,20.03848,18.81953,17.86654,16.34316,13.99729,11.4811,10.04539,10.77421,13.81523,18.0794,21.61509,22.47942,19.64382,13.46017,5.46145,-2.359072,-8.381521,-11.87445,-12.98171,-12.29535,-10.34914,-7.370425,-3.408877,1.311032,6.13073,10.04286,12.1274,12.08078,10.47749,8.543986,7.5281,8.02431,9.674974,11.45445,12.37588,12.17628,11.51674,11.53143,12.98297,15.57412,17.91772,18.27645,15.68646,10.77477,5.702387,3.155902,4.900167,10.72253,18.42765,24.95425,28.01733,27.34286,24.765,23.10819,24.49069,29.03294,34.72318,38.51497,38.00637,32.72151,24.27261,15.35678,8.234672,3.614486,0.5786983,-2.470803,-6.499963,-11.0126,-14.22818,-14.14948,-9.853202,-2.211674,6.384578,13.12696,16.06487,14.84835,10.59353,5.05893,-0.3090582,-4.908299,-8.875241,-12.55459,-15.98822,-18.78387,-20.40375,-20.60598,-19.68171,-18.30137,-17.09303,-16.27076,-15.59365,-14.6853,-13.46708,-12.36032,-12.06902,-13.06154,-15.11369,-17.27017,-18.32195,-17.543,-15.22157,-12.60894,-11.25711,-12.10634,-14.86648,-18.0884,-19.91876,-19.12204,-15.78561,-11.30487,-7.659134,-6.398099,-7.906975,-11.33891,-15.2079,-18.26441,-20.14683,-21.46455,-23.3202,-26.58849,-31.37651,-36.94395,-42.08204,-45.69921,-47.28483,-47.03858,-45.65627,-43.94799,-42.50874,-41.59257,-41.19058,-41.21367,-41.6425,-42.5593,-44.06688,-46.15448,-48.60214,-50.98576,-52.79082,-53.60055,-53.27392,-52.02817,-50.37028,-48.88087,-47.94657,-47.57399,-47.40687,-46.96474,-45.98563,-44.66923,-43.64128,-43.61435,-44.90977,-47.13763,-49.27145,-50.14222,-49.0998,-46.4514,-43.37457,-41.30104,-41.10117,-42.56224,-44.50488,-45.506,-44.81032,-42.8618,-41.09645,-41.08812,-43.56185,-47.89314,-52.4355,-55.49374,-56.33661,-55.60081,-54.81155,-55.32006,-57.35382,-59.82347,-61.05379,-59.98301,-57.04058,-54.07331,-53.28954,-55.84829,-60.98591,-66.29025,-69.02357,-67.72392,-63.09645,-57.63682,-54.17768,-54.24733,-57.23684,-60.88192,-62.74427,-61.75684,-58.86592,-56.37913,-56.44827,-59.64609,-64.53699,-68.49425,-69.24823,-66.20562,-60.75745,-55.44682,-52.55951,-53.0136,-56.16255,-60.50354,-64.7202,-68.33679,-71.61871,-74.89256,-77.88281,-79.59608,-78.86801,-75.19035,-69.20652,-62.50314,-56.79337,-53.03645,-51.06905,-49.97627,-48.9175,-47.79908,-47.31288,-48.30898,-50.96824,-54.40342,-57.04612,-57.61598,-56.03064,-53.60876,-52.34626,-53.67737,-57.50751,-62.17289,-65.40887,-65.7432,-63.42611,-60.26038,-58.38522,-58.74279,-60.20134,-59.94509,-54.98481,-43.94131,-28.06111,-10.8342,3.608694,12.45388,15.45141,14.79709,13.7681,14.90256,18.72726,23.67586,27.16213,27.14228,23.28393,17.1336,11.25052,7.840268,7.643697,9.658488,11.78946,12.03128,9.528898,4.966155,0.1086743,-3.217674,-4.149133,-3.262325,-2.270407,-3.119199,-6.98013,-13.67568,-21.82302,-29.58227,-35.57399,-39.46204,-41.92507,-44.10854,-46.94551,-50.75546,-55.29688,-60.09923,-64.71275,-68.61182,-70.82327,-69.68635,-63.17181,-49.87438,-30.22742,-7.153013,14.53029,29.97181,36.62401,35.76756,32.19715,31.97789,39.32891,54.32262,72.77224,88.48447,96.66453,96.50121,91.36013,86.38735,84.93741,85.99916,84.3297,73.38857,49.46355,14.5403,-23.87549,-56.05021,-74.63867,-78.03351,-70.57381,-59.56365,-50.93127,-46.08084,-41.74045,-32.74243,-15.91901,7.335311,31.40857,49.48751,57.38377,55.8535,50.04849,46.4911,49.42388,58.67916,70.21508,78.83434,81.34024,78.24949,73.16433,70.37337,72.25542,78.06102,84.67875,88.75341,88.76243,85.78912,82.66209,82.11118,85.15163,90.63089,96.07533,99.18666,99.02564,96.23566,92.34528,88.72484,85.90834,83.61773,81.31622,78.79384,76.34403,74.46677,73.40894,72.95462,72.66811,72.41204,72.71068,74.60806,78.99813,85.81305,93.61676,99.95537,102.3838,99.66808,92.50424,83.33989,75.34131,71.01373,71.14751,74.59761,78.96406,81.8003,81.76437,79.17216,75.75071,73.75868,74.91211,79.59666,86.67857,93.95155,98.98512,100.0167,96.54361,89.43777,80.6004,72.32465,66.60088,64.54755,66.05964,69.71413,72.93698,72.47452,65.1862,49.06929,24.25693,-6.440179,-37.85365,-63.79165,-79.08192,-81.56952,-73.16095,-59.27682,-46.77593,-41.1475,-44.24549,-53.65693,-64.05556,-69.90759,-68.18842,-59.75842,-48.73156,-40.23201,-37.77243,-41.64577,-49.12392,-56.23008,-60.00819,-59.99209,-58.12522,-57.30605,-59.52174,-64.69412,-70.84966,-75.40325,-76.6578,-74.61024,-70.63416,-66.39132,-62.79638,-59.75362,-56.79856,-54.07963,-52.82741,-54.76265,-60.64315,-68.8454,-75.03147,-73.43446,-59.36147,-31.70003,5.939633,46.18667,80.64658,103.1392,111.8983,109.7457,102.3024,95.26479,92.12724,93.35382,97.10714,100.8632,102.8773,102.7806,101.2149,98.99368,96.47057,93.49888,89.8911,85.94216,82.56202,80.88815,81.63607,84.6326,88.84786,92.90494,95.73966,97.00004,97.00159,96.32677,95.39902,94.30402,92.92959,91.24107,89.43622,87.85867,86.76003,86.13414,85.79027,85.6124,85.77679,86.68579,88.60091,91.22011,93.5684,94.39756,92.94409,89.57137,85.80575,83.61092,84.25289,87.44805,91.38321,93.69891,92.89237,89.26722,84.80103,81.9445,82.09071,84.70762,87.73103,89.01363,87.86562,85.60178,84.58355,86.26352,89.47109,90.20909,83.36835,65.58883,37.66065,4.963344,-24.52766,-43.76154,-49.82856,-45.14751,-36.00396,-29.25884,-29.03483,-35.1108,-43.73259,-50.17475,-51.48973,-47.9183,-42.35191,-38.39237,-38.28597,-41.91423,-47.25526,-51.81881,-54.06644,-53.99775,-52.73037,-51.53735,-51.05798,-51.14043,-51.2614,-51.07993,-50.67548,-50.33791,-50.16087,-49.83322,-48.84946,-46.98538,-44.65723,-42.82729,-42.46111,-43.88791,-46.52813,-49.21823,-50.94991,-51.52776,-51.68124,-52.52136,-54.69853,-57.82792,-60.59868,-61.52788,-59.8824,-56.1664,-51.8528,-48.52407,-46.98017,-46.87674,-47.10247,-46.61001,-45.13708,-43.34409,-42.31065,-42.77434,-44.6485,-47.14844,-49.40831,-51.13122,-52.77895,-55.14965,-58.62152,-62.60434,-65.62503,-66.056,-63.07187,-57.23399,-50.33181,-44.55907,-41.50229,-41.52087,-43.81823,-47.0795,-50.21848,-52.77358,-54.7868,-56.36164,-57.30339,-57.13723,-55.49192,-52.54357,-49.14547,-46.48389,-45.43311,-46.02309,-47.38539,-48.25285,-47.73051,-45.87055,-43.69044,-42.61433,-43.66631,-46.88797,-51.30936,-55.46602,-58.13555,-58.86511,-58.01827,-56.38125,-54.62442,-52.97306,-51.27192,-49.34658,-47.36792,-45.93059,-45.74735,-47.13181,-49.60929,-51.94675,-52.66688,-50.81633,-46.57835,-41.36712,-37.287,-36.18434,-38.75175,-44.14986,-50.3708,-55.18624,-57.21344,-56.55915,-54.69941,-53.65384,-54.87865,-58.45995,-63.02821,-66.43346,-66.80737,-63.45395,-57.12046,-49.55548,-42.66213,-37.73945,-35.19302,-34.77382,-36.06815,-38.84033,-42.98633,-48.17794,-53.53817,-57.69298,-59.2928,-57.74048,-53.65557,-48.71765,-44.89092,-43.44051,-44.31457,-46.27007,-47.68106,-47.53584,-46.0174,-44.31281,-43.78773,-45.06774,-47.61546,-50.07235,-51.13532,-50.38815,-48.54879,-46.97152,-46.73375,-47.90894,-49.49545,-50.04982,-48.61314,-45.33992,-41.43969,-38.48713,-37.5462,-38.65305,-40.93829,-43.24992,-44.83997,-45.67802,-46.24524,-47.03082,-48.11785,-49.15598,-49.69496,-49.59479,-49.16787,-48.93138,-49.14445,-49.49529,-49.20905,-47.56474,-44.48934,-40.81774,-37.98632,-37.29353,-39.1462,-42.74325,-46.39571,-48.31384,-47.42986,-43.82589,-38.59135,-33.2487,-29.09579,-26.78347,-26.2576,-26.97585,-28.20559,-29.25748,-29.6185,-29.03912,-27.60047,-25.73017,-24.08585,-23.2914,-23.62502,-24.84457,-26.29489,-27.27576,-27.4592,-27.08156,-26.75254,-26.97785,-27.70588,-28.22555,-27.53463,-24.98394,-20.79332,-16.08813,-12.39075,-10.85035,-11.66779,-14.05092,-16.70388,-18.52072,-19.0515,-18.49127,-17.28678,-15.70653,-13.71399,-11.22384,-8.497443,-6.304004,-5.627532,-7.050819,-10.23402,-13.90533,-16.46894,-16.9088,-15.42354,-13.35663,-12.42215,-13.6939,-16.99525,-21.0802,-24.47484,-26.40413,-27.16939,-27.72441,-28.76327,-30.00431,-30.23975,-28.19527,-23.63872,-17.92495,-13.48002,-12.42324,-15.16759,-19.95966,-23.79897,-24.29194,-21.31365,-17.34136,-16.05211,-19.85645,-27.78907,-35.12632,-35.20074,-22.62658,3.723567,39.62658,76.98343,107.1867,124.7026,129.1023,124.6166,117.6088,113.3899,114.0103,118.0166,122.0198,123.0147,120.1073,114.8159,109.9782,108.0565,109.8536,114.286,119.1908,122.5796,123.6011,122.7402,121.293,120.5365,121.1027,122.8571,125.2124,127.5994,129.7546,131.7004,133.5071,135.0623,136.0334,136.054,135.0035,133.1781,131.2568,130.0487,130.1846,131.8945,134.9626,138.8304,142.7824,146.1042,148.1914,148.6182,147.1967,144.0249,139.4944,134.2321,128.957,124.3208,120.7977,118.6807,118.1434,119.2972,122.1485,126.4504,131.5479,136.362,139.6166,140.2841,138.0374,133.4824,127.9746,123.0911,119.9726,118.9003,119.3185,120.2852,121.0636,121.5054,121.9796,122.9211,124.3183,125.5395,125.6673,124.2053,121.6774,119.6625,120.0645,123.8929,130.1932,135.806,136.2721,127.6059,108.1845,79.82398,47.45895,17.48735,-4.536461,-15.85577,-17.28616,-12.53504,-6.452757,-3.042082,-4.086631,-8.895559,-15.11584,-20.10032,-22.14947,-21.10205,-18.12669,-14.94956,-12.97608,-12.73785,-13.87001,-15.53721,-17.00894,-18.05757,-18.98397,-20.30772,-22.34027,-24.91533,-27.4383,-29.21912,-29.87435,-29.53953,-28.7511,-28.0609,-27.63413,-27.10237,-25.80158,-23.27883,-19.76434,-16.29338,-14.34973,-15.18392,-19.16286,-25.51162,-32.59406,-38.58266,-42.16187,-42.91845,-41.27316,-38.08648,-34.22409,-30.33104,-26.86558,-24.24555,-22.89375,-23.0876,-24.70866,-27.12116,-29.34461,-30.4925,-30.23035,-28.95448,-27.54518,-26.82158,-27.03846,-27.75348,-28.16205,-27.68017,-26.38694,-25.02033,-24.51731,-25.39494,-27.38562,-29.56348,-30.88231,-30.77078,-29.40821,-27.54169,-26.02215,-25.41464,-25.94308,-27.74731,-31.15422,-36.64027,-44.40466,-53.81729,-63.20259,-70.26544,-73.06667,-71.0288,-65.34471,-58.46221,-52.85793,-49.78855,-48.73911,-47.89376,-45.32888,-40.2014,-33.23095,-26.24238,-21.13891,-18.98601,-19.74371,-22.68455,-27.05307,-32.40016,-38.35223,-44.08464,-48.07367,-48.55562,-44.56482,-36.89561,-28.20582,-21.94011,-20.53307,-23.93789,-29.47025,-33.23053,-32.37668,-26.91461,-19.8622,-15.58965,-17.25247,-24.8363,-35.0096,-42.9129,-44.84043,-40.23859,-31.86255,-24.06083,-20.27474,-21.26003,-25.02623,-28.38741,-29.0458,-26.87895,-23.7041,-21.81067,-22.31954,-24.46938,-26.24307,-25.84144,-22.96709,-19.05514,-16.32623,-16.32553,-18.92653,-22.43498,-24.68136,-24.35395,-21.71052,-18.26786,-15.76221,-15.12345,-16.13217,-17.90651,-19.77695,-21.86481,-24.92775,-29.59587,-35.576,-41.44646,-45.26206,-45.62389,-42.53366,-37.46957,-32.61174,-29.69005,-29.15001,-30.1151,-31.11525,-31.07731,-29.95763,-28.6607,-28.36219,-29.7149,-32.44617,-35.55806,-37.95749,-39.09014,-39.20582,-39.14365,-39.83202,-41.81888,-45.07676,-49.10776,-53.21016,-56.71137,-59.08799,-59.99566,-59.30228,-57.16048,-54.0728,-50.85711,-48.45778,-47.66503,-48.85957,-51.90929,-56.23947,-61.01189,-65.30783,-68.27081,-69.23409,-67.87671,-64.40854,-59.66269,-54.96732,-51.71101,-50.74673,-51.91109,-53.97609,-55.14758,-53.93318,-49.94461,-44.19367,-38.68529,-35.48352,-35.72855,-39.10852,-44.04223,-48.44988,-50.69221,-50.20857,-47.59155,-44.14597,-41.2196,-39.65108,-39.53674,-40.343,-41.23185,-41.44571,-40.62844,-39.01219,-37.40699,-36.95493,-38.66835,-42.88642,-48.90145,-55.00631,-59.05865,-59.38439,-55.59745,-48.89361,-41.59608,-36.13372,-33.95958,-34.97892,-37.77937,-40.50573,-41.86085,-41.66527,-40.69859,-39.99452,-40.07542,-40.61542,-40.70979,-39.52536,-36.88022,-33.37621,-30.03102,-27.69553,-26.64527,-26.59093,-27.03017,-27.63802,-28.40335,-29.44925,-30.74028,-31.97732,-32.81942,-33.28414,-33.98758,-35.93213,-39.88052,-45.67198,-51.97497,-56.74421,-58.20461,-55.82019,-50.64527,-44.81516,-40.45438,-38.65192,-39.11348,-40.66001,-42.19271,-43.4506,-45.04322,-47.75357,-51.63483,-55.58644,-57.78788,-56.77077,-52.43197,-46.27641,-40.64449,-37.36302,-36.65438,-37.03414,-36.29227,-32.96257,-27.33518,-21.35087,-17.42758,-16.97376,-19.55358,-23.25537,-26.01488,-27.0044,-27.13798,-28.33284,-32.01353,-37.89828,-43.95985,-47.67711,-47.78786,-45.31367,-43.01636,-43.43057,-46.63239,-49.23786,-45.51899,-30.29012,-2.058132,35.38923,74.03314,104.9465,122.2195,125.4366,119.4138,111.4174,107.4496,109.6106,115.8592,122.0521,124.8623,123.7936,121.182,120.3808,123.4168,129.6484,136.2415,140.0607,139.7056,136.3456,132.8527,131.8176,133.7977,136.94,138.2698,135.8061,130.1352,124.3781,122.4958,126.9276,136.9753,148.9445,157.9726,160.5003,155.976,146.8802,137.1721,130.1653,127.0648,126.9321,127.8728,128.5513,129.0112,130.3252,133.4298,138.0219,142.3479,144.0841,141.7896,135.982,129.1247,124.4581,124.3181,128.897,136.1468,142.8529,146.2631,145.3869,141.2894,136.3446,132.8973,132.1033,133.4859,135.3679,135.8367,133.733,129.1857,123.5108,118.5881,116.03,116.5072,119.4919,123.5087,126.7857,128.0357,127.0029,124.507,121.8858,120.0796,118.8109,116.3575,110.1661,98.1049,79.75989,57.06052,33.79786,14.16822,1.017103,-5.327882,-7.019322,-7.460478,-9.534328,-14.22633,-20.34502,-25.42887,-27.2813,-25.26744,-20.68907,-16.10257,-14.02292,-15.74294,-20.85614,-27.6318,-33.9314,-38.13181,-39.62997,-38.7997,-36.59114,-34.06857,-32.10481,-31.27296,-31.84129,-33.77619,-36.73927,-40.14417,-43.32553,-45.77912,-47.34749,-48.21843,-48.71722,-49.01256,-48.93842,-48.07751,-46.07964,-43.02697,-39.6026,-36.91874,-36.0692,-37.62774,-41.35798,-46.27837,-51.04433,-54.45303,-55.84931,-55.28738,-53.4327,-51.28626,-49.84521,-49.79139,-51.27789,-53.86388,-56.63728,-58.51904,-58.6701,-56.84565,-53.52089,-49.70501,-46.51062,-44.68419,-44.33556,-44.99733,-45.96096,-46.67637,-46.99201,-47.12178,-47.40896,-48.06918,-49.08311,-50.26802,-51.43325,-52.46871,-53.30148,-53.78398,-53.65326,-52.64991,-50.73819,-48.26443,-45.88414,-44.25387,-43.66401,-43.86581,-44.24681,-44.26818,-43.86957,-43.54612,-44.00106,-45.58936,-47.94249,-50.08368,-51.01402,-50.41306,-48.97319,-48.08976,-49.05058,-52.21531,-56.71595,-60.89036,-63.18745,-62.97672,-60.75869,-57.67956,-54.73061,-52.20121,-49.75598,-47.02078,-44.1753,-42.0295,-41.45047,-42.53349,-44.1805,-44.52641,-42.06836,-36.79,-30.46578,-25.8057,-24.86874,-27.73908,-32.37655,-35.83542,-36.13335,-33.56102,-30.51701,-29.90924,-33.13175,-38.98995,-44.37267,-46.3166,-44.12428,-40.06168,-38.02898,-40.95356,-48.59188,-57.28845,-62.03794,-59.65756,-51.02136,-40.74312,-34.25768,-33.96004,-36.85426,-35.42351,-21.55277,8.579817,51.48701,97.14117,133.3295,151.3243,149.8131,134.9991,116.9696,104.4578,100.9413,104.0483,108.2463,108.8873,105.0771,99.75887,97.24839,100.0244,106.939,113.9849,117.0528,114.8014,109.7071,106.5009,108.8883,116.5738,124.4916,124.8943,111.2588,81.90662,41.35094,-1.376374,-36.53254,-57.65681,-63.79514,-59.05862,-50.03589,-42.58455,-39.63563,-40.86449,-43.98674,-46.63338,-47.6662,-47.35152,-46.60368,-46.02778,-45.47405,-44.33527,-42.26092,-39.67066,-37.6386,-37.19714,-38.55391,-40.80743,-42.42508,-42.21994,-40.19535,-37.66215,-36.48785,-37.90779,-41.65545,-46.00843,-48.78921,-48.7416,-46.41914,-43.98259,-43.9631,-47.71052,-54.4708,-61.6965,-66.43811,-67.00345,-63.88731,-59.41797,-56.34341,-56.23576,-58.68312,-61.7271,-63.21595,-62.17587,-59.32995,-56.46699,-55.14361,-55.61307,-56.70727,-56.73325,-54.74664,-51.30672,-48.17027,-47.10826,-48.65022,-51.61722,-53.79657,-53.33217,-49.91739,-44.9927,-40.82136,-39.07351,-39.87942,-41.99918,-43.9715,-45.42382,-47.57821,-52.53044,-61.71883,-74.59729,-88.45229,-99.57945,-105.1547,-104.6554,-99.95027,-94.02835,-89.19378,-85.88031,-82.79034,-78.19036,-71.42221,-63.58968,-56.95358,-53.4665,-53.46004,-55.39119,-56.82789,-56.02249,-53.02105,-49.58043,-47.95913,-49.39429,-53.26876,-57.47853,-59.71732,-58.80169,-55.19509,-50.47469,-46.21882,-43.14322,-41.0685,-39.63871,-39.13444,-40.64741,-45.36449,-53.42023,-63.1748,-71.57183,-75.52654,-73.56812,-66.70669,-57.94971,-50.70467,-47.03732,-46.81668,-48.21747,-49.16478,-48.73622,-47.61304,-47.34596,-49.01933,-52.26929,-55.35743,-56.24363,-53.92068,-49.1003,-43.79068,-40.05398,-38.7846,-39.29335,-39.92658,-39.24449,-36.93573,-33.88633,-31.42802,-30.37179,-30.52751,-31.02703,-31.14392,-30.94569,-31.25799,-32.96221,-36.18073,-40.01926,-43.10902,-44.56688,-44.58445,-44.06365,-43.41139,-41.33396,-34.66732,-19.72921,5.327172,38.52565,73.83694,103.2278,120.1647,122.7689,114.8414,104.0601,98.21966,101.4997,112.7507,126.6481,136.9592,140.0269,136.5418,130.7518,127.7661,130.63,138.8629,149.1263,157.4432,161.4782,161.5616,159.9883,159.231,160.318,162.3474,163.3576,161.8365,157.8222,152.8938,149.1079,147.6518,148.091,148.7041,147.6405,144.1329,138.9781,134.0184,130.9837,130.4331,131.4649,132.3208,131.484,128.5721,124.5333,121.0593,119.6413,120.8355,124.1105,128.2832,132.1843,135.1527,137.1223,138.373,139.2113,139.7941,140.1855,140.4809,140.8611,141.4781,142.2963,143.0516,143.42,143.3067,143.0087,143.0685,143.8291,144.9632,145.366,143.6185,138.8622,131.6131,123.916,118.5696,117.6634,121.1402,126.2274,128.207,122.3328,106.0423,80.37962,49.88453,20.90891,-0.8708211,-12.61318,-15.1673,-12.32037,-8.896984,-8.67747,-13.08506,-21.11344,-30.31868,-38.21722,-43.35712,-45.63186,-45.87389,-45.12864,-44.07816,-42.89349,-41.46715,-39.76889,-38.03331,-36.66795,-35.97921,-35.93681,-36.16308,-36.15931,-35.62561,-34.65598,-33.68307,-33.19989,-33.43295,-34.17075,-34.8657,-34.95048,-34.19144,-32.86921,-31.67292,-31.35966,-32.35231,-34.4957,-37.09915,-39.24394,-40.19899,-39.73014,-38.15883,-36.15308,-34.38047,-33.20999,-32.61489,-32.30688,-31.99305,-31.59795,-31.30479,-31.406,-32.05901,-33.10754,-34.0883,-34.42208,-33.6875,-31.81402,-29.09716,-26.04198,-23.13986,-20.70948,-18.87956,-17.67922,-17.1448,-17.35033,-18.34324,-20.04638,-22.20972,-24.45521,-26.37921,-27.63841,-27.96568,-27.14337,-25.01797,-21.6123,-17.29741,-12.87512,-9.418309,-7.834492,-8.337994,-10.1549,-11.73766,-11.50374,-8.758471,-4.270697,-0.06961755,1.545666,-0.6921623,-6.150339,-12.43741,-16.58014,-16.63734,-12.83495,-7.524892,-3.927663,-4.348066,-8.892861,-15.45219,-20.96856,-23.24244,-22.19852,-19.85874,-19.06085,-21.7152,-27.66955,-34.85566,-40.58569,-43.17091,-42.84848,-41.48002,-41.26149,-43.30103,-46.96204,-50.35205,-51.58664,-49.98895,-46.46981,-42.89599,-40.9174,-41.04393,-42.53904,-44.12738,-44.96908,-45.20921,-45.75005,-47.44668,-50.33528,-53.45093,-55.3809,-55.16492,-52.93036,-49.82723,-47.32431,-46.35228,-46.86417,-48.07438,-49.15272,-49.84926,-50.59975,-52.06559,-54.48111,-57.32968,-59.62789,-60.63693,-60.4836,-60.20255,-61.09294,-63.7824,-67.61506,-70.81572,-71.38291,-68.19013,-61.63625,-53.46353,-45.88098,-40.54363,-37.96961,-37.6517,-38.65426,-40.22273,-42.00886,-43.87217,-45.54461,-46.52305,-46.32332,-44.88815,-42.77338,-40.86348,-39.75035,-39.20795,-38.20522,-35.55335,-30.81329,-24.83747,-19.49095,-16.62867,-16.92798,-19.3523,-21.66898,-21.77757,-19.05391,-14.8515,-11.79142,-12.23389,-16.84969,-24.17103,-31.40004,-35.97751,-36.94769,-35.30713,-33.17779,-32.38015,-33.33458,-34.95729,-35.55558,-34.08363,-30.91168,-27.62843,-26.02721,-26.96916,-29.85234,-33.00489,-34.71524,-34.22366,-32.06725,-29.61721,-28.16377,-28.149,-29.00027,-29.59175,-28.97069,-26.87802,-23.79246,-20.57631,-18.03863,-16.70683,-16.87731,-18.77171,-22.5634,-28.17877,-35.01774,-41.86004,-47.14357,-49.55048,-48.59914,-44.89988,-39.90454,-35.28152,-32.25073,-31.21737,-31.82773,-33.3313,-34.98124,-36.26547,-36.92837,-36.89734,-36.2443,-35.21646,-34.24174,-33.80526,-34.19315,-35.25766,-36.40613,-36.89904,-36.33348,-34.99595,-33.82,-33.90197,-35.83815,-39.29919,-43.13994,-46.0083,-47.09281,-46.53324,-45.23928,-44.2538,-44.09105,-44.50416,-44.8166,-44.54319,-43.82029,-43.292,-43.52629,-44.41836,-45.11651,-44.64803,-42.8929,-41.17112,-41.83789,-46.85989,-56.08962,-66.31525,-71.90803,-67.02835,-48.42579,-17.37969,20.33484,56.58035,84.10168,99.29865,103.1986,100.2758,95.90054,93.8313,94.99786,97.98333,100.6261,101.6268,101.2035,100.5567,100.6868,101.4584,101.5609,99.36519,94.07893,86.41245,78.3215,72.0023,68.78138,68.58613,70.26696,72.49669,74.59049,76.72503,79.43407,82.81064,86.01645,87.52351,85.98994,81.22755,74.6124,68.60104,65.56838,66.61978,71.05875,76.82523,81.63408,84.14668,84.5127,84.00565,84.04715,85.25535,87.10207,88.35703,87.98759,85.90376,83.05988,80.84888,80.19066,80.91217,81.82825,81.48358,79.10057,75.13013,71.06335,68.61427,68.76424,71.23791,74.70019,77.52388,78.65289,78.05478,76.56885,75.30444,75.00914,75.77419,77.17397,78.63765,79.75172,80.31065,80.18408,79.24029,77.4903,75.38562,73.95613,74.47987,77.64877,82.61833,86.59377,85.44357,75.33288,54.7033,25.55771,-6.763404,-35.44377,-54.9126,-63.12906,-62.27807,-57.50399,-54.33223,-56.08657,-62.59888,-70.76789,-76.54365,-77.17882,-72.54446,-64.90676,-57.45778,-52.54112,-50.59621,-50.3285,-49.85842,-48.0535,-45.22009,-42.77179,-42.15563,-43.74255,-46.39819,-48.00734,-46.65988,-41.80569,-34.71021,-27.92803,-24.0626,-24.46177,-28.5308,-34.01832,-38.12692,-38.88291,-36.08086,-31.34145,-27.26747,-26.1368,-28.78552,-34.23474,-40.22915,-44.3919,-45.39375,-43.5384,-40.47797,-38.25012,-38.16864,-40.17932,-43.01375,-45.00718,-45.09249,-43.37861,-41.00123,-39.37059,-39.30709,-40.59549,-42.22115,-43.09783,-42.7953,-41.77628,-40.9982,-41.15205,-42.06738,-42.71461,-41.82818,-38.76369,-34.00829,-28.98753,-25.25051,-23.53649,-23.32748,-23.18166,-21.65797,-18.24349,-13.69241,-9.554825,-7.191986,-6.914176,-7.79587,-8.294558,-7.280324,-4.815879,-2.186627,-1.150023,-2.868897,-7.180596,-12.63221,-17.23844,-19.47437,-18.91705,-16.201,-12.41144,-8.371358,-4.299629,-0.01759923,4.521798,8.821363,11.89805,12.81111,11.32209,8.214284,5.015171,3.235815,3.573533,5.561492,7.885758,9.185819,8.85503,7.367855,5.949186,5.808058,7.416276,10.27445,13.29399,15.53731,16.83011,17.83866,19.53698,22.38593,25.75738,28.02515,27.37288,22.91917,15.51405,7.676033,2.571999,2.485871,7.572368,15.60996,22.99462,26.5402,25.16537,20.53687,16.23936,15.84038,20.85817,29.76311,38.62481,43.12458,40.87004,32.72459,22.39825,14.4872,12.05981,15.13684,20.90803,25.51029,26.28376,23.16563,18.43055,15.02109,14.58094,16.46046,18.31978,17.89388,14.71323,10.57232,8.359056,9.955012,14.61098,18.98532,19.03196,12.72883,1.995482,-7.47924,-8.618169,3.632001,29.66621,64.77807,101.1176,130.9834,149.7559,157.1056,156.1719,151.4704,146.789,144.0762,143.5147,144.3093,145.4494,146.0848,145.5685,143.5412,140.2441,136.8247,135.1626,136.9211,142.1272,148.1255,149.8523,141.7125,120.3907,87.12155,48.01286,11.92326,-13.23737,-23.94368,-22.41357,-15.15638,-9.501884,-10.00298,-16.61542,-25.49193,-31.72551,-32.33205,-27.76416,-21.2464,-16.56262,-15.77828,-18.27704,-21.54827,-23.0463,-21.84165,-19.03722,-16.80845,-16.82104,-19.1092,-22.10936,-23.72359,-22.63371,-18.99171,-14.11005,-9.480034,-5.862627,-3.069287,-0.4915292,2.111071,4.221583,4.90264,3.60606,0.823218,-1.978148,-3.179674,-2.077444,0.5485877,2.80333,2.804073,-0.1452507,-5.09625,-10.02515,-13.06344,-13.58644,-12.46062,-11.31621,-11.37045,-12.615,-13.92301,-13.97261,-12.32264,-9.850584,-8.212967,-8.677754,-11.13968,-14.04972,-15.37227,-13.98023,-10.54726,-7.290262,-6.654912,-9.749599,-15.54162,-21.37069,-24.49554,-23.71828,-20.06447,-16.08603,-14.23688,-15.35794,-18.2313,-20.47243,-20.1632,-17.15982,-13.23772,-10.99077,-12.20963,-16.77769,-22.76467,-27.61176,-29.60916,-28.72421,-26.31724,-24.0418,-22.74839,-22.15303,-21.43878,-20.27201,-19.39771,-20.29201,-24.04066,-30.24223,-36.80464,-40.9458,-40.88354,-37.14021,-32.52886,-30.66617,-33.82505,-41.42674,-50.18378,-55.92882,-56.13489,-51.63105,-46.45412,-45.82293,-53.33495,-68.94391,-88.85005,-107.3609,-119.6946,-124.2486,-123.1849,-121.182,-123.1065,-131.8417,-147.2481,-166.5474,-185.6868,-200.9533,-210.1259,-212.9345,-210.867,-206.5735,-203.0811,-202.9512,-207.5325,-216.5293,-228.1244,-239.7025,-248.9288,-254.6576,-257.1822,-257.6885,-257.2649,-256.18,-253.9825,-250.3996,-246.4039,-244.486,-247.5905,-257.012,-270.4409,-281.5554,-281.8804,-264.3908,-227.1536,-175.0335,-118.3042,-68.65852,-34.49823,-17.90001,-14.72725,-17.64178,-20.18756,-19.60167,-16.89099,-14.44573,-12.98705,-10.03435,-1.054795,17.32676,44.14524,73.19886,95.43026,103.5648,96.47836,80.66503,67.66728,68.58743,88.48874,123.7001,163.5069,195.3714,210.9097,209.5275,197.9162,185.9538,181.4068,186.3605,197.1655,207.5871,213.0828,213.5954,213.2899,217.4827,228.7017,244.2451,256.7104,257.2654,239.8727,204.296,156.3651,105.5913,61.45362,30.25914,13.8343,10.22041,15.48598,25.44765,36.5161,45.68786,50.30309,48.21118,38.49563,22.28812,2.941096,-14.87943,-26.94723,-31.24463,-28.80229,-23.12615,-18.50357,-18.07543,-22.64863,-30.75158,-39.71897,-47.08541,-51.52769,-52.99995,-52.25054,-50.20483,-47.64001,-45.20993,-43.56221,-43.23943,-44.2882,-45.8606,-46.21087,-43.31087,-35.86523,-24.17282,-10.26924,2.83471,12.4512,17.3414,18.04664,16.29076,13.88769,11.87514,10.39505,9.309149,9.01627,10.78767,16.27432,26.4219,40.48458,55.83949,68.83933,76.31598,76.94706,71.76396,63.58903,55.76844,50.90673,50.18559,53.43291,59.6541,67.57713,75.92532,83.45557,89.00678,91.76128,91.64273,89.55753,87.17336,86.21651,87.61441,90.9884,94.84216,97.37877,97.46836,95.20104,91.70229,88.37425,86.06496,84.69061,83.49689,81.71528,79.12708,76.15519,73.46574,71.41756,69.77225,67.84348,64.9284,60.64628,54.91951,47.65335,38.45776,26.75763,12.34105,-4.01539,-20.37099,-34.2038,-43.55063,-48.05414,-49.21686,-49.60107,-51.38925,-55.16842,-59.7173,-62.95305,-63.43744,-61.44683,-58.86332,-57.9239,