Bandpass,0,0.21086,911.56842,-8129.90625,-11997.9355,-10021.0186,-4247.35889,1403.93237,3590.87769,1674.12427,-2079.13428,-4328.46582,-3142.31445,683.106079,4361.08838,5268.86084,2880.21558,-924.499634,-3324.03857,-2647.83057,461.575226,3622.76318,4530.59912,2633.02783,-547.345093,-2620.55713,-2115.61206,484.407715,3181.20703,3988.67969,2385.47974,-365.031708,-2212.11353,-1847.23206,373.396393,2759.99878,3578.00635,2312.77954,-10.5967827,-1643.672,-1421.49084,414.646423,2456.7356,3209.69824,2186.10083,216.781387,-1214.22693,-1081.7782,452.551178,2210.82739,2903.13208,2073.54053,395.717529,-868.625977,-816.12677,455.411224,1963.2251,2596.25806,1931.71265,513.039795,-589.536865,-583.427124,480.131592,1780.64111,2360.83105,1830.85754,627.301941,-342.12912,-381.61615,494.92749,1606.0332,2129.84888,1709.86218,693.655029,-152.972992,-224.067871,491.662354,1430.64771,1894.18555,1567.9032,737.202881,53.7498207,42.5396004,720.778503,1602.60278,2070.49829,1827.5531,1097.85645,440.102692,326.98175,806.718994,1489.24133,1852.19531,1629.2948,994.186707,414.950287,300.047272,703.186646,1299.69226,1639.56543,1480.51746,954.764282,455.567963,338.880951,665.901611,1172.31335,1476.29968,1362.73706,932.708435,515.194946,415.976624,694.299805,1129.26807,1392.40869,1291.72632,906.224243,517.522339,397.045837,609.869812,977.11731,1217.21252,1155.32471,845.700562,521.836853,418.314087,599.304749,917.803589,1129.24353,1070.40479,771.72113,425.794708,242.61058,301.852966,508.428162,676.422852,672.157104,508.271271,323.067261,267.345612,387.865417,594.366455,730.939087,694.240967,508.864716,305.645996,222.643448,304.733551,475.598938,599.475281,583.241333,441.92392,281.053772,212.758408,270.841461,388.277435,451.808563,390.407593,230.394485,76.5292053,34.2733002,131.578842,297.721649,413.790588,397.068268,258.066467,90.4179993,3.08122492,44.8667374,174.452408,294.2724,320.684204,239.051605,106.533501,5.04571438,-17.9635315,22.3803272,68.7017288,70.7235947,24.3057117,-28.7134571,-37.4114151,14.8874407,94.8884506,143.146576,118.918579,31.7976017,-63.8551025,-107.71701,-77.0701752,-3.48552251,49.0946388,28.7351742,-69.2460938,-200.198151,-301.069031,-331.367004,-295.78421,-234.912216,-193.654236,-191.463898,-214.774521,-234.07666,-230.120224,-208.683029,-193.884338,-207.09671,-248.92984,-298.196442,-327.863983,-324.943146,-298.955414,-273.231934,-266.824951,-281.62851,-304.393707,-320.961273,-330.179962,-345.419922,-381.907593,-440.090363,-499.300598,-528.637512,-508.593933,-447.760651,-381.269775,-350.274506,-375.676971,-444.231232,-517.170715,-556.035522,-548.323181,-515.523865,-498.125977,-527.882813,-606.102417,-702.271973,-773.325378,-790.168091,-753.966187,-692.510132,-640.720764,-619.40094,-626.1026,-642.428162,-650.508057,-645.954834,-638.556091,-641.757324,-660.163818,-685.101501,-701.605225,-701.315369,-691.248413,-691.37085,-721.993774,-789.318848,-878.927429,-961.801758,-1009.38641,-1008.68561,-968.813416,-915.963379,-880.486511,-883.465576,-929.195801,-1005.79541,-1091.88721,-1165.28857,-1210.21191,-1221.24939,-1203.83203,-1171.4585,-1140.35425,-1123.03162,-1123.255,-1135.08801,-1147.13013,-1150.11841,-1143.56592,-1137.0188,-1144.46326,-1174.81006,-1224.3678,-1276.52002,-1309.57019,-1308.50122,-1273.64917,-1220.93713,-1173.40698,-1149.06812,-1152.18127,-1172.74463,-1193.8064,-1201.65161,-1192.71057,-1173.66052,-1155.64148,-1146.82751,-1147.91467,-1152.64856,-1152.27563,-1140.84094,-1118.46399,-1091.40796,-1069.50928,-1062.35107,-1075.46228,-1107.48145,-1149.15833,-1185.07678,-1198.42407,-1177.7124,-1122.70068,-1046.17236,-969.673401,-914.448364,-891.890808,-898.700012,-919.661072,-936.607361,-938.354431,-925.726013,-908.852844,-898.872864,-899.77478,-905.962463,-907.185425,-897.352844,-880.88147,-871.649963,-884.52124,-924.553833,-980.996582,-1030.50305,-1048.3302,-1021.19684,-954.274719,-868.258057,-788.417725,-732.234253,-702.711731,-690.617126,-683.234619,-673.420959,-663.113831,-659.567993,-667.629578,-683.968506,-697.697937,-697.278931,-679.095764,-651.628296,-631.779419,-634.993408,-665.052612,-710.0578,-747.577271,-756.388855,-728.097473,-671.793945,-608.975586,-561.722778,-541.113281,-542.616638,-550.919312,-550.916443,-537.953125,-520.993225,-516.806885,-538.774414,-587.155151,-646.77594,-693.671875,-706.994202,-679.544006,-621.234985,-553.869202,-500.357666,-474.226379,-474.631866,-488.816681,-500.023682,-496.444946,-476.821777,-450.402832,-431.778381,-433.27359,-458.369965,-499.009003,-538.048584,-556.115784,-540.211487,-490.322021,-420.641113,-354.071045,-311.895569,-303.418365,-321.139832,-344.738495,-352.473297,-334.078979,-297.63562,-265.721893,-262.231079,-297.104889,-358.180054,-415.723785,-437.841095,-408.155579,-335.309509,-248.370636,-180.618927,-151.296112,-156.220062,-172.726151,-175.528839,-153.361679,-115.928818,-86.9723969,-88.1123123,-123.894882,-177.564407,-220.15921,-227.137955,-192.215454,-130.140991,-67.2501831,-26.0897541,-13.5976238,-19.512188,-25.0270729,-15.5843353,10.2120895,40.5201263,58.3053932,52.1657829,23.5766621,-13.1424799,-37.5658875,-32.734417,7.14443541,74.1155624,149.757492,212.764771,247.815475,252.210693,237.302963,223.432983,229.840302,263.884003,315.263916,359.344025,369.210449,330.839569,252.952789,165.111542,103.915924,94.3553619,136.880493,207.945816,273.90332,309.936035,312.526428,298.038971,288.940643,297.185699,316.028809,325.729584,309.096283,265.991638,216.472443,189.880646,206.795074,265.768768,343.747314,410.00473,444.475098,448.546021,441.576385,445.990479,471.273346,507.567017,532.797607,528.11676,491.142242,438.405548,395.922791,384.545654,409.546692,460.227875,518.245056,567.947571,601.899841,619.395935,621.345276,607.141907,576.590454,534.930786,495.675903,477.123779,493.303589,545.003784,617.492615,687.497742,735.647278,756.478149,759.412598,760.12793,768.362183,780.740112,783.759949,764.958191,724.393188,678.093323,650.429016,659.893799,707.397827,774.74176,834.438904,864.843201,861.354309,837.233887,814.238281,809.384705,825.908447,853.139526,874.220459,876.205444,856.621033,823.684998,791.469299,773.621216,778.792847,808.794434,858.716797,918.079102,972.997009,1009.94653,1020.86035,1007.51288,982.125854,962.352966,962.102661,982.977112,1011.85083,1027.14331,1011.09338,961.122742,893.207947,834.579651,809.519775,826.438416,873.85083,927.550537,964.516663,975.166931,966.912415,957.588074,963.526123,989.88916,1028.79175,1065.40417,1087.29773,1090.88684,1081.50757,1068.25269,1057.91174,1052.20374,1049.42273,1048.13184,1049.22034,1054.33362,1061.97217,1064.87073,1051.76794,1013.60602,950.704163,876.031555,811.559875,778.745117,787.954895,832.689209,892.043213,940.385559,959.300476,945.656555,911.817932,878.18512,862.138794,869.070374,889.859985,905.779297,898.155334,857.973877,790.837219,715.041138,653.814697,625.430664,635.760498,676.554871,729.942444,776.694519,804.156799,810.184204,801.68103,789.196533,780.916992,779.323853,781.898071,784.733154,786.294312,788.768921,796.247681,811.15094,831.453491,850.689148,860.868408,856.569641,837.767273,809.817383,780.791809,757.850525,744.663391,740.967957,743.930664,750.048218,756.415161,761.047424,762.824463,761.806824,760.086487,762.472778,775.954407,807.407532,860.18042,931.204895,1010.41327,1083.25916,1135.53589,1158.37024,1151.02209,1120.13367,1075.83569,1026.69604,976.063721,921.598694,858.092651,781.91095,694.476074,602.655518,515.562317,439.321289,372.7099,306.449219,227.192139,124.723557,-1.1325953,-137.713425,-262.86731,-353.419159,-394.917511,-387.901367,-347.493439,-296.473511,-255.316757,-234.169327,-230.542526,-233.330704,-230.412231,-215.455673,-190.452438,-163.252106,-142.256821,-131.751663,-130.480179,-133.767761,-137.311447,-140.025955,-144.344543,-154.256653,-172.781174,-200.634491,-236.683746,-279.347748,-327.496063,-380.002563,-434.403015,-486.041077,-528.894409,-558.029968,-572.239685,-574.923767,-572.191467,-568.931519,-565.099976,-554.623779,-527.920166,-476.894592,-399.726807,-302.773773,-198.514236,-100.667213,-19.1086178,42.8612099,87.8471375,121.182831,147.365906,168.078613,182.506256,189.182144,187.810104,179.823044,167.483887,152.355301,134.302597,111.71579,82.752388,46.7371559,4.82009125,-40.4604225,-86.352623,-131.047684,-174.180008,-216.5224,-259.217072,-303.067474,-348.234924,-394.331573,-440.650696,-486.279602,-530.045288,-570.457092,-605.857971,-634.847717,-656.818542,-672.314087,-682.982422,-691.102112,-698.87854,-707.810791,-718.369995,-730.065796,-741.815979,-752.43927,-761.093567,-767.533813,-772.135376,-775.695374,-779.092468,-782.934509,-787.343445,-791.975037,-796.265625,-799.774109,-802.434326,-804.579773,-806.740112,-809.344727,-812.515137,-816.050781,-819.574097,-822.700073,-825.116211,-826.575989,-826.926025,-826.281494,-825.316223,-825.445251,-828.611023,-836.552795,-849.789551,-866.854858,-884.35376,-898.054504,-904.640564,-903.273438,-896.085876,-887.234314,-880.932922,-879.508423,-882.545898,-887.577637,-891.845154,-894.008545,-894.722778,-895.748047,-898.250671,-901.531006,-903.167419,-900.611084,-893.211792,-883.226868,-874.92395,-872.131042,-875.732422,-882.840576,-888.437439,-888.678772,-883.80249,-878.568665,-879.53418,-890.480225,-908.717468,-924.812561,-926.458496,-904.744812,-859.444153,-800.201294,-742.658386,-701.388672,-683.381958,-685.580261,-697.687073,-708.488831,-711.985352,-709.879089,-709.248474,-717.137329,-735.563782,-760.033569,-782.341431,-795.722839,-798.986511,-796.988464,-797.205933,-804.679321,-818.61145,-832.802734,-839.59967,-834.770935,-820.167297,-802.512695,-789.21582,-784.004028,-785.206482,-787.658691,-786.734375,-781.608032,-775.469727,-772.615356,-774.597961,-778.345032,-777.791199,-768.048706,-749.214722,-726.993347,-709.430908,-701.797607,-703.087341,-706.650513,-704.692261,-693.644958,-676.691101,-661.583496,-655.170654,-658.424744,-665.55249,-667.973877,-660.47052,-645.105835,-629.919983,-623.070068,-626.490601,-633.804626,-634.450867,-621.549255,-597.993164,-575.92627,-568.995483,-581.893127,-604.209778,-613.561523,-587.33374,-516.682495,-414.382843,-311.232147,-242.263168,-230.017654,-273.900391,-351.127472,-428.216461,-476.345276,-482.464478,-451.292053,-398.881073,-342.806885,-294.767181,-258.667755,-233.338608,-216.566711,-207.41037,-205.992172,-212.155014,-224.876831,-243.079651,-266.757355,-296.768616,-332.744598,-370.440826,-400.898315,-412.942352,-398.266602,-356.25351,-295.388153,-230.024048,-174.148895,-135.70961,-114.650787,-105.368019,-101.468353,-99.4884262,-99.3261032,-101.717949,-105.239029,-105.493546,-97.3239136,-78.4161224,-51.4615936,-22.9841213,0.622086763,17.1552353,29.8361549,44.6731148,65.6635437,91.1656494,114.100128,126.080864,122.867958,107.555412,89.3371582,78.574791,81.2718735,96.3583755,117.258949,136.414398,149.648331,157.65184,164.026855,171.708527,180.540985,187.722763,190.613098,189.620697,188.838867,193.754913,207.542053,228.576233,251.091263,268.774506,279.050293,285.204346,294.78714,315.072693,348.23291,389.129944,427.111755,450.890594,453.890137,437.296753,409.401093,381.770203,364.243042,361.031281,369.415131,381.250885,386.421539,376.825745,349.505768,307.888458,260.712952,218.971878,191.965439,184.058304,193.581207,214.39888,239.307877,263.377289,285.321869,306.175262,326.283356,342.849762,350.045593,342.049988,317.317657,281.286865,245.483032,223.174866,223.966522,250.431015,298.528503,361.018402,431.139069,503.936554,574.74115,636.867004,681.591431,701.877502,698.05957,681.215393,670.373596,683.334412,725.579346,784.221863,831.997864,840.548889,796.120789,708.401733,606.593811,524.293518,481.781616,476.271362,485.988159,485.381165,461.756714,422.771362,390.214996,384.492706,410.273163,452.876953,487.718719,496.370789,478.465424,451.603271,439.602509,457.196198,501.376831,554.707947,597.618591,620.815491,629.48645,637.28717,655.449036,685.374756,719.763428,750.361145,775.285034,799.524353,828.164612,858.399719,878.12384,874.032471,844.123047,804.573303,783.629639,804.250793,866.484741,942.732666,991.549377,982.902954,918.687988,833.861633,775.762085,774.173462,822.015076,880.371399,905.381409,879.117371,822.964417,783.39856,799.204163,872.860413,967.00061,1029.89709,1033.05713,993.880493,964.894348,993.584412,1078.46033,1152.54993,1110.02307,864.197632,403.456665,-189.723373,-770.598022,-1198.46655,-1400.31433,-1396.48633,-1276.24878,-1140.77551,-1048.77551,-995.364685,-932.038391,-810.05719,-617.328552,-386.473267,-172.585388,-18.6981144,67.2663422,110.59021,147.397842,199.293427,262.284058,315.458801,340.669556,337.819611,325.148712,325.67868,350.83075,393.349579,433.998413,456.211578,457.572418,450.092499,449.968201,465.109161,489.815552,510.142242,515.392212,506.868164,497.434265,502.486389,529.217529,572.025269,617.072815,652.181396,674.501038,690.405518,708.113892,729.05249,744.877075,742.781067,715.458923,668.466248,619.347534,588.578186,588.042786,614.463318,651.832336,680.944641,689.704712,677.901062,654.286011,628.989014,606.950623,586.609985,563.892944,537.774963,512.924316,497.457275,497.585907,513.151367,537.244751,560.088501,574.392029,578.589417,576.115906,571.753723,567.952271,563.668518,556.143677,543.828491,528.006104,511.90213,498.139954,486.686188,474.984039,460.209808,441.892487,422.808289,407.344269,398.442871,395.355835,393.915894,389.246124,379.067169,365.295959,352.79364,346.087341,346.279999,350.218536,352.437073,348.525116,337.667297,322.742157,308.06369,296.41452,287.40506,278.1922,265.936859,250.213928,233.67334,220.482056,213.591553,212.663757,214.054291,212.918457,206.153259,194.369003,181.688339,173.477631,173.316315,180.903519,192.022156,200.518738,201.20047,192.151947,175.375259,155.572464,137.801895,125.210625,117.895927,113.320641,107.937096,99.129921,86.5024872,71.9189606,58.3712082,48.3375587,42.5376663,39.7350883,37.6295776,34.2496185,28.9748058,22.5686932,16.2522469,10.497674,4.44242287,-3.56693697,-14.5792656,-27.7490444,-40.1951256,-48.4070282,-50.5725098,-48.4391479,-47.3739166,-54.2175598,-73.8494339,-106.284485,-146.012955,-184.145203,-212.366379,-226.646164,-228.741287,-224.745941,-221.592911,-223.521713,-230.463593,-239.104507,-245.799255,-249.466019,-252.686646,-260.376038,-276.851746,-303.057434,-335.557495,-367.857666,-393.28421,-407.844269,-411.61261,-408.100739,-402.175873,-397.776245,-396.588898,-398.158752,-401.055542,-404.22229,-407.69577,-412.395599,-419.274963,-428.464844,-438.975525,-449.142151,-457.554565,-463.939941,-469.48291,-476.342926,-486.52182,-500.574493,-516.798584,-531.406982,-539.800049,-538.540222,-527.208984,-509.222351,-491.023224,-479.77533,-480.447327,-493.601807,-514.999451,-537.323364,-553.285583,-558.651489,-553.727844,-542.647705,-530.945068,-522.791382,-519.377014,-519.178406,-519.71637,-519.549072,-519.18811,-520.393311,-524.412842,-530.470093,-535.68158,-536.671265,-531.993591,-523.833862,-517.749756,-520.323853,-535.852478,-563.849304,-598.779663,-632.254761,-656.592163,-667.939697,-667.450684,-660.085876,-651.858276,-647.045288,-646.7276,-649.160156,-651.470581,-651.582092,-649.323059,-646.282166,-644.686523,-646.030212,-650.181519,-655.351257,-658.848511,-658.225891,-652.316345,-641.764709,-628.868958,-616.790894,-608.41748,-605.302734,-607.122437,-611.894714,-616.889099,-619.809448,-619.680725,-617.015564,-613.229797,-609.701416,-607.052795,-605.06073,-603.16217,-601.12085,-599.324463,-598.473022,-598.893616,-600.033752,-600.597046,-599.331543,-595.969543,-591.631958,-588.312744,-587.67688,-589.920471,-593.472717,-595.811829,-594.936462,-590.577698,-584.375,-578.909302,-576.227234,-576.810425,-579.605103,-582.976746,-585.813843,-587.947205,-589.612244,-590.469971,-589.11554,-583.707214,-573.501465,-560.275269,-548.464417,-543.541992,-549.30365,-565.568359,-587.735962,-608.636841,-621.756104,-624.073364,-616.978271,-604.876282,-592.464905,-582.369507,-574.457153,-566.977356,-558.501892,-549.222229,-540.750305,-534.702026,-531.226074,-528.658691,-524.644836,-517.969604,-509.768982,-503.153656,-501.341553,-505.438324,-513.310669,-520.34845,-521.729431,-514.862427,-500.58786,-482.508575,-464.961182,-450.893646,-440.83136,-433.319946,-426.29715,-418.384796,-409.346375,-399.667389,-389.834564,-379.987671,-370.179993,-360.890869,-353.16925,-348.065979,-345.628326,-344.202637,-340.730621,-332.114044,-316.961121,-296.649506,-274.949707,-256.290863,-243.596664,-236.920395,-233.654282,-230.155014,-223.796646,-214.248611,-203.299377,-193.456787,-186.276321,-181.46019,-177.211914,-171.507385,-163.391586,-153.461029,-143.280136,-134.194794,-126.381844,-118.777588,-109.916473,-99.0942612,-87.0553284,-75.7190399,-67.0935364,-62.0590591,-59.7958374,-58.2275848,-55.2123146,-49.7437477,-42.4223785,-34.9124832,-28.7312508,-24.1284389,-19.7582111,-13.3632536,-3.08143353,11.3825874,28.3958282,45.0510559,58.475132,67.0950775,71.233078,72.7999268,74.3307495,77.8917313,84.3592987,93.3052139,103.404633,113.092285,121.181015,127.259735,131.798065,135.946869,141.06366,148.068695,156.856033,166.067566,173.470734,176.919693,175.526306,170.437042,164.698029,162.118378,165.601379,175.774323,190.655426,206.563477,219.794724,228.171768,231.674423,231.930557,231.01799,230.381638,230.490677,231.290741,232.945877,236.200546,242.026123,250.7995,261.666992,272.667969,281.673157,287.588501,291.02771,293.955933,298.475128,305.504883,314.20578,322.52301,328.497223,331.492523,332.558197,333.722595,336.721161,342.013916,348.724548,355.500916,361.686646,368.008331,376.323059,388.585938,405.673126,426.743347,449.45224,470.831024,488.329987,500.558411,507.525848,510.46286,511.401337,512.629944,516.062988,522.60498,531.734741,541.606995,549.810181,554.546509,555.639038,554.725769,554.394897,556.66626,561.711853,567.662964,571.727173,571.992859,568.792236,564.696045,563.054749,565.950073,572.855713,580.901794,586.626953,588.130676,586.254639,584.024475,584.702209,589.693604,597.64978,605.321594,609.593079,609.374512,606.159607,602.948547,602.299561,604.802063,608.923584,612.237061,613.124756,611.791687,609.953674,609.498901,611.115601,613.857483,615.926941,616.084106,614.651489,613.375244,614.21344,617.888611,623.223206,627.752991,629.239258,627.076843,622.65271,618.410645,616.251404,616.347107,617.170959,616.715942,614.064026,610.209717,607.529236,608.194885,612.564392,618.637756,623.014771,622.825134,617.46051,609.033997,601.261841,597.428711,598.64093,603.372192,608.496643,611.112854,610.040039,606.152283,601.492554,597.856567,595.791382,594.582092,593.09082,590.749329,587.96344,585.656677,584.331421,583.386719,581.263489,576.399841,568.378601,558.461853,549.068359,542.443115,539.325806,538.47345,537.379395,533.774658,526.988281,518.317078,510.176361,504.57254,501.869873,500.626373,498.58255,494.140045,487.356873,479.811523,473.442474,469.15509,466.155334,462.495148,456.504608,448.16684,439.482452,433.490387,432.479767,436.47995,442.992126,448.186249,448.890839,444.212524,435.845642,426.928162,420.167542,416.365906,414.178741,411.155884,405.343414,396.443787,385.883179,375.857758,368.044312,362.789886,359.200775,355.935638,352.088226,347.578583,342.885834,338.432068,334.131439,329.434723,323.793701,317.151154,310.061554,303.343353,297.524353,292.491241,287.590668,282.085144,275.606293,268.269775,260.396027,252.098465,243.108856,233.017059,221.757233,209.94342,198.733444,189.241287,181.874786,176.072617,170.659409,164.600922,157.640564,150.364578,143.645706,137.868973,132.514481,126.423149,118.572403,108.803253,97.9608841,87.3370667,77.8268814,69.4387665,61.5338326,53.5928612,45.8448029,39.1192932,33.841095,28.803091,20.704998,5.10934353,-21.4102097,-59.0209274,-103.636993,-147.948914,-184.128479,-206.889252,-215.367432,-212.966629,-205.458115,-198.52597,-196.064468,-199.86145,-210.338684,-227.423737,-250.760376,-279.16568,-309.959839,-338.993622,-361.728851,-374.938507,-378.056366,-373.327576,-364.623291,-355.608154,-348.327148,-342.957489,-338.684906,-334.949738,-332.147308,-331.33725,-333.268372,-337.522095,-342.479523,-346.211884,-347.715576,-347.642731,-347.997009,-350.951172,-357.524139,-366.943756,-377.07193,-385.592804,-391.210358,-394.14856,-395.730011,-397.390503,-399.790375,-402.549835,-404.689972,-405.424408,-404.779144,-403.689484,-403.573334,-405.67099,-410.51474,-417.756531,-426.364197,-435.043365,-442.699615,-448.794403,-453.498505,-457.587585,-462.078217,-467.701782,-474.428802,-481.303009,-486.745392,-489.251648,-488.156677,-484.045563,-478.548798,-473.602173,-470.575256,-469.760742,-470.497528,-471.803497,-473.08075,-474.433197,-476.423859,-479.495087,-483.503021,-487.718811,-491.292206,-493.821564,-495.584564,-497.231995,-499.158844,-501.035217,-501.899353,-500.817291,-497.678192,-493.540527,-490.206512,-489.224762,-490.942902,-494.248596,-497.210358,-498.234009,-496.993439,-494.531403,-492.479492,-491.941681,-492.811981,-493.987091,-494.299103,-493.473114,-492.38623,-492.401886,-494.23642,-497.195892,-499.407104,-498.977997,-495.329193,-489.740448,-484.634033,-481.981659,-481.887604,-482.384888,-480.735413,-475.50766,-468.08725,-462.508606,-463.485748,-473.670898,-491.748169,-512.575195,-529.428284,-537.173889,-534.634583,-524.876343,-513.336548,-504.917328,-501.681335,-502.337524,-503.614807,-502.562347,-498.397675,-492.924347,-489.445801,-490.936157,-498.527771,-511.049072,-525.679443,-539.208984,-549.20575,-554.609375,-555.671631,-553.477966,-549.373108,-544.515076,-539.634583,-534.987,-530.459778,-525.78772,-520.793152,-515.527954,-510.22937,-505.113708,-500.17099,-495.158508,-489.861877,-484.464294,-479.709076,-476.618347,-475.83432,-476.983124,-478.558777,-478.551849,-475.542908,-469.585876,-462.245728,-455.66629,-451.218964,-448.640259,-446.300934,-442.481659,-436.77121,-430.519348,-425.87442,-423.9599,-423.483429,-420.940613,-412.561707,-396.891296,-376.272339,-356.049042,-341.742401,-335.862579,-336.408417,-338.117615,-335.755249,-327.340729,-315.195709,-304.119202,-297.9375,-296.801392,-297.10321,-294.068207,-285.188629,-272.054596,-259.263123,-251.181152,-248.906097,-249.641541,-248.934662,-244.072617,-236.016663,-228.324783,-223.861694,-221.971146,-218.669998,-210.199554,-197.457794,-187.589752,-190.549225,-212.003494,-247.127014,-280.167053,-291.45752,-268.601532,-215.108582,-150.48259,-100.619301,-83.5540848,-99.0656433,-128.851791,-147.709045,-139.1884,-106.062325,-68.8560104,-53.0419502,-72.689949,-120.776855,-172.335175,-198.637482,-183.725143,-133.191635,-70.070488,-20.7695904,-0.0304546226,-4.12037754,-15.8925152,-17.7340794,-3.66647577,17.1252728,27.195919,13.2915459,-23.8428345,-68.4691849,-98.1017838,-95.7756424,-59.053257,-0.909371138,57.3468285,96.6255493,108.350029,96.8052063,75.4235992,59.7283516,60.4767952,79.6010818,109.940384,138.453491,151.777725,142.353134,112.769279,76.0130157,50.5644302,51.7987785,83.7110367,135.766373,187.529099,219.351974,223.326935,207.777039,191.949203,193.572723,216.832367,248.650238,266.304565,252.161942,206.335754,148.876556,109.447746,110.42543,153.779053,219.946609,279.444397,309.952423,308.254211,289.866638,277.145844,283.911438,306.527252,326.86853,324.820435,292.017883,238.143631,186.168442,159.891281,171.500961,216.174561,275.918304,329.388062,361.690521,369.338196,359.142151,343.163147,333.00235,335.706573,351.879425,375.697571,396.69046,403.424194,388.622162,353.825592,310.731689,277.247467,269.193237,291.800323,336.233582,383.966461,417.035339,428.068542,423.602966,418.264526,423.495514,438.510284,450.05719,441.744049,406.926697,356.171692,313.435791,302.546906,332.377106,390.523804,450.092285,485.61377,487.939331,468.428589,449.743469,449.483551,467.744904,487.112457,485.233093,451.544922,396.736786,348.164001,333.715668,364.363342,426.689484,490.36087,525.947327,521.919189,490.305359,457.808746,448.339142,468.064453,502.102051,524.409973,514.279785,469.16922,406.414978,353.461731,332.985687,351.651154,398.265594,451.166534,489.659912,503.021851,493.09967,470.725281,449.20462,438.595123,442.798096,459.391602,481.097198,498.059113,500.816132,483.886597,449.036987,406.400848,371.820068,360.532867,379.75708,424.154053,477.272217,519.002991,535.488281,526.081177,503.225037,484.996063,484.347382,501.215302,522.212097,528.350464,506.559509,458.405914,400.845734,358.248474,349.873199,379.618805,433.722687,487.747589,519.108948,518.359253,493.164276,462.953369,447.370056,455.024628,478.7995,500.22641,500.34729,470.861786,419.282593,365.290314,330.491119,327.437164,353.973175,395.678864,434.396271,457.46936,462.348877,454.514832,441.043274,424.78067,403.292786,373.124603,335.91806,301.343933,283.81131,294.263367,332.16449,383.324585,425.908325,441.779449,426.608124,392.45108,360.850403,350.263092,365.210571,393.612701,413.866425,407.39679,369.259583,310.791229,253.252533,216.692657,210.624344,231.319962,266.098022,300.899109,326.277069,339.001617,339.94751,331.228485,315.165314,295.29483,277.360199,268,270.910675,282.934784,293.548096,289.447388,262.377136,215.497314,163.745712,127.056091,119.897438,143.294449,184.297318,223.347504,245.028122,245.554672,232.547745,217.717377,207.728897,199.601135,183.785004,152.721344,108.788445,65.7599106,42.1264229,50.1095085,87.3090744,136.566223,174.622711,184.661621,165.319702,130.811584,102.124596,94.5338516,108.772903,130.909241,140.808075,124.135811,80.9876022,26.3428154,-17.7329674,-33.6668396,-17.3663006,20.1186657,58.8851852,80.7789993,78.4992599,58.3842316,35.574894,24.4105949,29.5092449,42.6407204,47.348381,28.9362106,-15.7467041,-74.4920807,-124.581894,-144.176819,-124.217735,-74.1311188,-17.7911911,18.4343872,19.1474304,-12.5556192,-57.7072906,-92.701889,-102.684029,-89.4713211,-69.6731491,-64.4223633,-86.9064102,-134.868057,-192.004547,-236.871933,-253.785263,-239.654449,-203.6987,-161.36618,-126.728683,-107.550232,-104.683495,-114.495773,-131.696777,-150.806305,-166.460007,-174.004288,-171.344299,-161.282547,-152.221344,-155.487686,-179.691956,-224.980148,-280.878387,-329.764526,-354.700043,-347.543549,-312.856506,-265.471344,-223.234222,-199.050186,-196.365829,-209.810654,-229.629181,-246.774887,-256.014435,-256.370575,-250.061035,-241.468475,-236.621307,-242.36734,-264.211029,-302.993683,-352.247955,-398.629181,-426.47757,-424.94342,-393.971497,-345.460632,-298.367462,-270.013672,-268.176392,-288.168274,-316.260468,-337.261963,-342.008514,-331.032562,-313.190369,-300.764679,-303.915131,-326.860229,-366.663422,-414.22818,-456.779663,-481.400116,-479.253632,-449.516266,-401.197937,-351.057098,-317.344116,-311.631256,-332.8685,-367.42511,-395.918457,-403.622803,-388.718811,-363.462036,-347.307983,-355.810059,-391.69043,-443.180939,-490.335297,-515.337952,-510.807526,-481.839508,-441.653992,-404.378998,-379.409607,-369.754944,-373.655182,-386.939911,-404.204529,-419.001495,-424.765076,-417.622803,-399.984344,-381.880371,-377.487091,-397.357483,-440.565613,-492.308655,-529.904541,-534.790405,-503.590485,-450.993469,-401.858917,-376.895264,-380.816986,-400.717438,-415.907379,-412.800659,-394.7966,-380.201172,-389.217865,-428.624237,-484.70636,-529.811707,-538.823914,-505.025635,-444.884186,-388.384399,-360.985413,-368.799103,-396.455872,-418.761444,-418.217194,-396.775299,-374.199982,-374.345886,-408.552399,-467.035858,-523.729004,-551.251953,-536.429871,-486.913818,-425.557861,-376.947205,-354.788086,-357.313385,-372.017517,-385.152435,-389.31427,-385.009125,-376.921631,-369.069702,-362.845795,-358.751068,-359.209595,-368.946564,-391.646271,-425.107788,-459.032196,-478.239899,-470.356384,-433.500702,-378.890961,-326.152374,-293.647369,-289.323578,-307.303528,-331.939362,-346.662628,-342.449127,-321.478271,-294.777802,-276.045624,-275.360535,-295.600555,-332.20755,-375.196777,-412.011902,-430.60141,-422.756836,-387.424438,-332.659302,-274.33374,-230.724686,-214.549927,-226.359833,-253.502899,-276.326172,-279.005249,-259.048767,-229.530502,-211.954514,-223.297729,-264.72702,-319.049438,-359.061707,-362.408356,-324.37796,-260.969757,-200.196487,-166.58844,-167.96965,-192.22142,-215.750519,-218.385376,-195.694382,-161.455963,-139.051147,-147.145782,-188.215927,-246.485764,-296.12146,-314.635986,-293.871216,-242.876526,-181.970764,-132.088913,-105.45433,-101.974846,-112.018578,-122.867416,-124.973961,-115.314102,-97.3317261,-78.6235275,-67.8381958,-71.6651459,-92.2448654,-125.445412,-160.928467,-184.907822,-185.412308,-158.118073,-109.647911,-55.8551521,-15.0879536,0.51890254,-8.94033146,-31.395155,-49.4758339,-50.0233879,-31.1095676,-2.68408346,19.285841,21.6031494,0.568119168,-36.7167892,-76.4126587,-104.420006,-111.624046,-95.8769531,-61.079586,-15.1075239,32.0644264,70.0649185,90.5054092,90.2146225,73.8659592,53.5607605,43.9762611,54.5526314,82.9683609,114.521805,129.093918,112.598473,66.3540115,8.29036999,-35.5063057,-44.4076271,-14.048377,42.1152763,101.211395,143.835541,163.360046,166.387009,165.202255,168.307205,175.808289,182.284805,183.90625,183.403473,188.396591,204.117371,226.499039,242.004593,235.804489,203.315811,156.656631,120.203743,116.773163,152.937195,213.507492,269.701416,296.422302,287.599854,259.350281,238.574356,244.365204,274.591553,306.741425,312.65451,277.499725,210.533661,140.666245,99.8743973,105.245567,150.819336,213.463531,267.778442,299.780731,311.122101,312.895081,315.19104,320.531647,325.178345,325.68808,324.130402,327.006439,338.609314,354.677704,362.548615,349.13681,311.627808,262.804596,226.015656,221.995499,255.892975,313.354736,368.699799,400.079193,401.754364,385.663055,371.831299,374.705841,394.835938,421.006805,440.211639,447.412323,447.763,450.138458,457.678986,463.421936,455.123322,426.05011,383.403107,347.133636,338.686737,366.805511,420.340942,473.719147,502.1362,496.662659,469.186646,443.822632,440.512024,461.767242,491.297241,505.182007,487.933472,442.817841,390.03125,354.548462,351.975983,381.267761,427.822571,473.368896,505.20993,519.14624,515.919495,495.906464,457.459564,400.530457,332.210876,268.603943,229.813324,230.059128,269.056763,330.652039,390.247528,426.871918,432.79538,415.34668,390.676422,374.045624,372.619629,384.173462,400.814636,414.013275,417.618408,408.244446,384.857574,349.504242,309.013397,275.296295,261.897919,277.166656,317.850281,368.09201,406.149445,415.998901,396.914215,364.374603,340.722595,340.796631,361.668121,383.606995,382.394867,345.554199,282.065002,218.933212,186.281754,200.062927,253.117279,319.996979,372.211914,394.094116,389.499634,375.910828,370.804169,379.868225,394.778381,401.273315,391.115265,369.043701,349.621216,346.186615,359.862762,376.757263,375.99826,343.789215,284.295715,219.854462,179.67453,183.536835,230.272186,297.95459,355.662903,379.826508,365.743134,328.110779,291.074097,274.174744,282.307495,304.71286,322.463898,319.343475,289.936951,241.26886,188.362427,147.104462,128.274994,134.893951,162.751358,202.673462,243.218018,273.375153,285.363129,277.223328,254.093506,226.802368,207.430679,203.365967,212.873245,225.047424,224.914795,201.472778,154.427826,95.728157,44.6895065,19.0788021,26.8219128,62.6472969,111.177505,154.447296,179.656677,183.330948,170.519989,150.526993,132.151932,120.859024,118.374535,123.528496,132.865585,140.662155,139.362244,121.736,84.7993927,33.5788879,-18.2207012,-52.500412,-54.9531975,-23.1240234,30.5744095,83.5878372,114.022369,111.918274,84.4930344,51.891098,35.4129906,44.8117867,72.1303635,95.9505844,93.8459854,55.8939781,-8.65936565,-75.539566,-118.031952,-120.77253,-86.9697037,-35.3425522,10.8348904,35.8087654,37.6519699,25.9413624,13.384635,7.3764329,6.80550241,5.40898275,-1.59278405,-12.874588,-21.9137402,-22.69491,-15.7742205,-9.73461723,-16.1781197,-41.0971642,-78.503624,-111.325516,-120.114044,-94.8277893,-42.3620186,15.4764996,53.2035179,55.8891106,27.860363,-9.76237106,-31.7652035,-24.5357742,4.63284874,30.5249176,24.003437,-30.8229408,-126.154114,-232.887466,-314.600037,-345.319061,-321.339142,-261.062256,-193.821198,-144.679413,-123.789719,-125.41243,-135.562881,-142.384933,-142.569519,-140.574188,-142.504242,-149.870361,-157.976944,-159.980759,-153.383469,-143.845093,-142.983383,-161.021301,-198.907318,-245.296112,-280.970123,-288.653503,-262.670349,-212.736206,-159.482574,-124.070267,-117.613846,-136.169601,-163.84082,-182.060974,-179.894089,-159.903168,-136.723648,-129.350754,-151.225998,-203.04454,-271.632477,-335.249786,-372.752563,-372.463043,-336.890564,-281.365723,-227.31752,-193.225708,-187.254059,-204.770508,-231.702774,-251.959122,-255.264572,-241.667084,-220.733871,-206.164886,-208.765976,-231.299545,-267.469727,-305.040161,-331.150146,-337.254517,-321.842377,-290.437134,-253.450897,-222.809448,-208.161636,-213.458984,-234.976456,-262.021484,-280.979126,-281.742249,-263.707489,-237.762543,-222.106216,-233.048416,-275.341064,-337.751678,-397.263367,-430.405518,-425.654968,-389.63797,-343.173798,-309.265961,-300.218628,-311.762695,-327.731384,-332.088715,-320.336578,-302.728058,-297.132629,-316.308075,-358.126404,-405.399292,-435.586182,-434.103546,-402.617737,-357.143066,-317.62442,-296.252014,-292.270966,-296.226868,-299.869415,-304.023132,-318.365082,-353.049774,-408.241272,-469.497284,-513.180603,-519.190308,-483.051483,-419.442505,-354.623108,-312.347412,-301.931915,-315.515625,-335.417816,-346.076111,-342.615417,-331.079254,-321.436798,-319.31778,-322.719543,-325.691315,-325.464966,-326.77652,-339.226654,-368.966095,-410.78653,-447.222504,-456.854034,-427.499298,-365.901733,-296.892181,-251.287109,-249.051666,-287.745789,-343.539825,-384.646729,-389.461548,-358.746948,-314.723602,-287.741486,-298.516266,-346.305878,-409.583801,-458.26001,-469.934601,-440.880341,-386.167725,-329.980438,-292.570831,-281.42688,-290.844147,-308.700775,-325.250092,-338.356842,-352.584137,-373.65564,-402.464172,-432.588257,-452.743744,-452.547485,-428.229584,-385.235229,-336.496948,-297.297241,-279.055328,-284.640503,-307.137543,-332.72998,-346.849701,-341.286987,-319.083282,-294.389069,-286.40741,-309.549133,-364.525024,-435.538666,-496.158783,-521.778015,-502.362488,-448.227142,-384.967712,-339.851776,-327.304047,-342.099915,-364.492645,-374.162415,-364.152191,-345.687775,-340.447113,-365.026886,-417.757874,-476.931915,-512.346741,-503.351563,-451.997986,-382.66098,-327.988556,-309.837738,-327.175415,-358.498962,-376.980011,-368.347198,-339.87326,-314.778412,-315.960968,-349.88678,-401.201111,-441.470398,-446.247192,-409.462036,-346.25177,-283.087921,-242.166306,-230.136307,-237.622757,-248.439911,-251.213516,-245.374542,-238.289749,-236.929276,-241.148544,-243.911102,-238.120255,-224.443146,-213.522629,-220.016937,-252.053955,-303.457184,-354.692352,-382.757019,-374.130127,-332.645935,-277.340088,-231.774292,-211.698105,-218.603943,-242.449661,-270.636292,-296.484283,-321.45459,-350.280975,-383.41745,-413.061493,-426.253082,-413.22876,-375.139618,-325.348633,-282.763214,-261.137878,-261.20166,-270.808655,-273.131104,-257.669189,-227.006226,-195.00383,-177.664658,-182.584595,-203.764648,-225.086807,-230.267044,-213.081848,-181.576843,-153.728683,-147.199158,-169.22197,-212.365433,-258.319,-287.270447,-287.562317,-260.616302,-219.077164,-179.840729,-155.967773,-151.433075,-160.626617,-171.952866,-173.171539,-155.940369,-118.02504,-62.9848671,1.92672694,68.630043,130.977402,186.729294,238.204224,291.253357,352.669983,426.84317,513.05658,604.848267,692.067322,764.948608,818.375916,854.219727,880.496765,907.704773,944.166443,992.712646,1050.25586,1110.18347,1165.99487,1214.06775,1254.16687,1287.78735,1315.75305,1336.83105,1348.32764,1348.22168,1337.30811,1319.7533,1301.46289,1287.08936,1277.45251,1268.99524,1255.72595,1232.61731,1198.54395,1157.09949,1114.8623,1078.14612,1050.09497,1029.69604,1013.09119,996.235718,977.24707,957.122986,938.60321,924.098999,914.111938,907.140808,901.037109,894.810181,889.600281,888.099243,892.730469,903.734375,918.417297,932.129517,940.477112,941.486816,936.434387,928.821167,922.094238,917.47876,913.263428,906.034607,893.172302,875.09021,855.733093,840.778259,834.343994,836.022278,840.113831,837.904175,822.160767,791.627808,752.975403,718.737305,701.814819,709.090393,737.480835,774.771301,805.186584,817.059204,808.608032,788.606628,771.351135,768.466064,781.969849,802.502686,813.878784,801.637085,761.006348,699.99054,635.968689,587.745972,567.331482,575.567749,603.297424,636.61377,662.803223,673.898376,666.858215,641.727783,600.103516,545.32373,483.849487,425.872498,383.424622,366.051514,376.163239,406.923004,444.329529,472.703522,480.742523,465.049469,429.724915,383.047516,333.765411,289.125153,254.920868,236.066238,235.890442,253.793121,282.890625,310.169647,320.483704,303.130646,257.543243,194.548843,132.011047,87.0170135,68.8723984,76.5448456,101.274139,131.872879,159.006836,176.245132,178.64592,161.717331,123.060074,66.2032394,3.31951666,-46.8577614,-66.7186508,-49.511795,-4.95309258,43.9822884,72.5818481,68.0216904,36.681076,-0.0108012501,-19.2831688,-11.9767265,10.9110022,24.7635193,7.29305124,-46.1066322,-117.623154,-176.374969,-196.312408,-171.536911,-119.438217,-69.7969971,-46.927227,-56.2241173,-83.3719482,-106.078835,-110.107445,-98.8545914,-90.3219147,-103.82988,-145.574142,-202.728043,-250.039764,-264.692841,-239.984375,-189.350555,-138.559341,-111.223106,-116.52578,-146.109497,-181.096725,-204.215851,-209.586426,-204.912384,-205.741394,-225.834976,-269.167419,-327.379242,-383.258667,-418.053497,-419.287628,-386.148895,-330.645935,-274.011047,-239.18895,-241.753952,-282.821747,-347.539917,-410.800781,-448.32193,-447.932373,-415.046997,-369.004089,-332.07135,-317.444305,-323.426697,-337.237488,-345.696655,-345.40686,-345.257721,-359.25827,-394.538879,-443.143158,-484.111328,-495.464539,-468.606293,-415.341858,-362.11322,-334.477631,-341.694092,-371.685211,-400.024841,-407.184906,-392.437012,-374.697449,-379.25058,-419.00293,-483.082977,-541.1521,-561.440491,-531.114258,-465.51123,-399.704865,-367.348083,-380.253998,-421.926666,-459.285645,-464.946777,-435.478027,-393.666351,-373.3255,-396.634491,-458.862183,-530.426147,-574.852234,-570.888,-524.561035,-463.837616,-420.054047,-408.736969,-422.30545,-438.727356,-439.335022,-423.031189,-406.970673,-413.390594,-451.962341,-510.231842,-559.257874,-571.179688,-537.208618,-474.005585,-413.977173,-385.609406,-396.530121,-430.176147,-458.007935,-459.079987,-434.101013,-404.869568,-399.577301,-433.599701,-498.171295,-564.157471,-598.514709,-583.213257,-525.205383,-451.889618,-395.44043,-375.690186,-391.340302,-423.600555,-448.862396,-452.318451,-434.95993,-411.093658,-399.080444,-411.113159,-447.272644,-495.958099,-539.404602,-561.162476,-552.453613,-515.407715,-462.370209,-411.44873,-379.499664,-374.967194,-393.792145,-421.019409,-438.278717,-433.903778,-410.159882,-382.817749,-372.360413,-391.338074,-435.430267,-484.237518,-512.147156,-503.153534,-460.527496,-405.014221,-362.356079,-347.882965,-358.032013,-374.301697,-376.989014,-359.472809,-333.292877,-320.358521,-337.340515,-382.784424,-435.920563,-468.441864,-461.791779,-418.662476,-361.118927,-316.612793,-301.178192,-310.880981,-326.905792,-330.380859,-316.469788,-297.878296,-295.298309,-321.401367,-369.584106,-415.612762,-431.651794,-403.743866,-341.29599,-272.218842,-226.650497,-219.537003,-242.951721,-272.651154,-284.274902,-268.720764,-237.188034,-213.262589,-217.570297,-254.760834,-310.526825,-359.765656,-380.303223,-363.909027,-318.838837,-263.69043,-217.213745,-190.08963,-182.381409,-186.463364,-192.415436,-192.562927,-183.524902,-166.123779,-144.368332,-124.253731,-112.248329,-113.124321,-127.501968,-150.389511,-172.093155,-181.759598,-172.142365,-143.171143,-102.375519,-61.9484062,-34.0724678,-26.8591843,-42.4782143,-77.4972763,-124.319817,-172.659729,-210.957092,-228.455139,-218.405075,-181.563248,-127.864647,-74.2038956,-38.0961647,-29.7091103,-46.5067558,-74.0453644,-93.3027191,-91.0259018,-67.3804855,-36.2748985,-17.7301178,-26.3103771,-62.1306953,-109.703857,-145.517853,-150.25531,-118.902725,-63.1848297,-5.10667372,34.6605568,47.0620041,38.0836716,23.7906151,20.1528873,33.5870667,57.5050621,76.622139,76.3985443,52.2011757,13.035409,-22.2400646,-34.1836014,-12.569519,38.4490433,102.434006,158.773987,192.479324,200.611664,192.254425,182.425644,183.457916,198.487213,220.314896,235.901077,233.804779,210.549225,172.736618,134.135712,109.519043,108.415604,131.604675,171.537415,215.932129,252.55632,273.105804,274.931946,260.52771,235.583176,206.742798,179.967636,159.855743,149.685196,151.572357,166.152771,191.633163,222.742477,250.629379,264.659912,256.179199,222.944778,171.927292,118.350494,80.465271,71.9500046,95.6023712,141.856216,193.340103,233.328979,253.520203,256.734894,253.055389,251.918274,255.293274,256.494995,245.588715,217.938446,180.086182,148.523376,141.342804,167.482376,220.231873,279.430695,321.618744,332.474823,314.322235,284.304993,264.340454,268.739532,296.573334,332.851929,357.358215,355.767212,326.877655,282.535706,241.160309,218.98941,223.613235,252.290131,294.672974,337.699677,370.277924,386.417175,386.500031,376.729858,366.703461,365.292664,375.968079,393.804291,406.511658,400.182037,367.555481,314.288666,258.841766,224.73967,228.581696,270.396027,332.375732,387.539307,413.913727,406.141602,377.540863,351.196594,345.363098,362.08667,386.116974,394.85965,373.234711,324.177979,268.172302,231.974304,233.371613,271.188873,326.438934,373.628052,395.12735,389.935883,371.933075,359.32135,362.253052,376.424103,386.422394,376.468689,341.701263,292.952911,251.993515,239.918198,265.351257,319.200867,378.939026,420.065063,428.502472,407.26712,373.921417,350.320007,350.276337,371.87677,398.669312,409.152435,389.414246,341.894073,285.189636,244.698273,239.070419,270.025604,321.41214,368.216461,390.437317,383.754639,360.700317,341.685272,341.441864,359.348846,379.785736,382.407288,355.902435,306.447083,255.282669,226.697433,233.813004,271.025513,317.752441,350.973053,358.555969,345.065826,326.76712,319.546753,327.88504,342.02652,344.934418,324.220398,281.190826,231.266754,195.700851,189.913071,215.487167,260.133423,304.838043,333.419281,339.102142,325.383514,302.150055,280.244843,267.393311,266.49469,275.594543,288.595337,296.643555,290.814606,266.126709,225.331284,179.828171,145.872467,136.995773,156.52536,194.937698,234.381516,258.255432,260.131226,246.280106,229.987366,221.342224,219.510406,213.134811,189.080292,143.785004,89.1444473,48.0228539,41.3084106,74.4354935,132.304474,186.586578,211.520691,198.622879,161.075287,124.894661,112.316711,127.8032,155.45546,169.416702,150.672318,99.7049408,37.166275,-7.74543428,-13.985384,19.6284809,74.3846588,122.760201,143.57869,132.357101,101.498024,71.306839,57.8933449,64.984848,83.499794,97.8650894,94.6227036,68.5952225,24.2575169,-27.0350342,-71.6292572,-97.8463058,-99.0493698,-75.4891586,-34.8080406,9.47246933,42.063549,51.9177017,37.6374168,8.99589062,-17.3438206,-26.6084843,-14.7022038,8.3521986,23.1502419,11.8972006,-30.4098396,-91.3991699,-146.636429,-172.297089,-158.05838,-112.658104,-58.7930336,-20.3853683,-9.81092358,-22.5978889,-42.4146347,-52.816227,-48.1827164,-37.033474,-35.8657417,-57.6415596,-102.287956,-155.157974,-194.382339,-202.648026,-176.484894,-127.911766,-77.9591599,-46.1311722,-41.6768188,-60.8611183,-90.7066803,-116.319542,-127.737312,-123.41407,-109.745468,-97.8463974,-99.3065414,-122.178185,-167.892883,-229.744156,-293.79068,-342.773956,-362.448608,-348.020752,-307.40567,-258.8461,-223.128693,-213.833817,-230.744247,-260.337677,-283.548676,-286.750122,-269.758881,-246.102249,-235.143661,-250.451935,-291.13205,-341.241852,-377.786591,-382.830078,-352.925262,-300.67749,-247.811325,-213.860107,-206.811905,-220.559753,-239.921509,-249.812744,-243.269363,-224.25238,-204.475983,-196.744308,-208.653625,-239.572006,-281.545715,-322.786285,-351.735809,-360.326294,-346.040039,-312.812042,-270.548584,-232.703278,-211.785736,-214.003799,-235.610413,-263.626923,-281.756287,-279.18811,-257.549622,-231.406982,-220.957336,-240.283188,-287.840057,-345.300323,-386.332245,-390.845459,-356.473267,-300.211914,-248.85318,-223.728165,-228.980911,-250.560974,-266.472778,-261.689941,-238.150375,-213.412094,-208.891068,-235.36557,-285.177124,-336.141113,-364.532104,-358.703552,-324.76004,-281.197174,-246.766464,-229.996765,-227.089615,-228.646545,-229.395767,-233.196243,-249.399536,-283.347107,-328.485535,-366.79895,-378.398163,-354.287811,-303.473785,-248.934113,-214.41777,-210.473114,-228.962387,-249.818161,-255.551804,-243.662659,-228.369644,-230.26001,-260.727875,-311.834412,-358.849823,-374.405701,-345.434265,-282.036011,-212.46666,-167.216995,-161.971588,-189.730515,-226.454742,-246.216675,-236.370804,-203.90126,-170.013947,-157.153183,-176.508438,-222.78186,-277.982819,-320.849762,-336.233093,-320.130371,-279.357544,-227.587143,-180.235107,-149.818512,-142.382248,-155.461456,-178.555435,-197.0345,-198.949371,-181.919983,-155.955597,-139.345016,-148.592987,-187.59462,-242.813522,-288.488739,-299.985321,-267.927368,-204.462006,-137.239868,-94.1303787,-87.6847382,-108.871323,-134.039673,-140.774841,-122.594139,-93.0779343,-76.7302017,-92.3791275,-139.77121,-198.040176,-237.210632,-235.653259,-192.71257,-128.845139,-73.4512787,-48.0894547,-55.2755737,-79.2032623,-97.1844101,-94.2225266,-71.7540131,-45.7258415,-35.9136124,-53.4423332,-93.9663544,-140.03009,-170.556274,-171.628616,-142.721405,-95.7502975,-48.483757,-16.4615803,-7.49243402,-20.6150799,-48.7786217,-82.9242859,-115.2034,-140.259171,-154.887131,-157.18486,-146.265671,-122.946159,-90.9772491,-57.7748871,-33.5594177,-28.4402084,-48.1426163,-90.2283401,-143.078705,-189.040039,-211.115067,-200.384689,-160.356201,-105.56321,-54.706131,-21.8034592,-10.235157,-13.055974,-19.2373619,-21.7742615,-22.3224182,-29.2092552,-50.0539742,-84.0152512,-119.272369,-138.145966,-127.222954,-86.2396393,-29.8042564,19.7239246,44.3262901,40.2120705,19.4527073,2.25903845,4.48207378,27.8064175,58.4344292,74.9393921,60.5950928,13.0862684,-53.6709518,-116.177849,-152.427338,-151.432724,-116.760376,-63.2726669,-9.73549938,28.6299744,44.5006866,38.7955704,18.1205521,-8.73384953,-33.6615219,-50.8244972,-57.0961685,-51.8580627,-36.6247749,-14.7780523,8.57454777,26.9090614,33.271347,22.3085747,-6.95229626,-48.8287125,-91.0005341,-118.026611,-117.740562,-87.7397614,-38.1624985,11.7706909,42.6628532,44.9333534,24.1219044,-2.18290615,-14.6841965,-4.19001532,22.3668594,45.8814545,47.1147881,19.6150494,-24.7001839,-61.2842636,-66.9637299,-33.7558517,26.1086102,87.1988907,125.638329,132.42746,117.171516,100.284859,99.1486206,117.395813,144.104889,162.867538,164.075699,151.790527,140.485077,144.057358,164.919861,190.993469,203.063171,187.840256,148.045685,102.603729,76.4242783,86.0088425,129.799896,189.142502,239.04039,261.959442,256.450745,236.004929,219.678329,220.681076,239.59549,265.403198,282.667236,280.124298,256.089569,218.691299,181.915054,159.963974,162.218033,190.043152,235.994553,285.78775,323.124939,336.349884,324.282562,297.776825,274.912354,271.213806,289.967133,318.831177,336.005585,323.409454,279.231201,221.545227,179.588043,177.088928,217.714737,282.121704,339.118622,364.309692,354.357941,327.503143,309.881073,316.750519,341.417908,359.698029,347.246613,298.088776,231.418152,181.367218,175.970871,219.130096,287.726379,346.047272,368.067017,352.791382,322.570557,305.861206,316.497742,343.834961,360.553467,342.670807,287.820648,219.003571,170.977615,168.369019,210.222763,271.253876,318.632385,332.682678,317.539032,295.065552,287.018829,298.38913,313.671051,308.506805,268.322815,200.770996,133.18338,96.6212921,107.16967,156.734177,218.899139,265.286438,281.331757,271.675171,253.085968,241.279068,241.286423,247.337753,250.679825,248.118393,244.284012,246.163254,254.847595,261.798859,253.472397,221.545761,171.292511,121.423256,94.5358276,103.994186,145.784439,200.702499,245.387619,265.023804,259.854828,242.221771,227.20285,223.631836,230.988571,242.791855,252.525757,257.124603,256.002045,247.836624,229.275986,197.806335,156.869385,118.42411,99.2093201,111.537689,154.230103,210.432816,255.205078,269.213348,250.179871,214.431641,186.925766,185.632843,210.097153,241.564072,254.74086,233.814789,182.678986,123.107361,82.2942657,77.6768341,108.179047,156.480881,199.883942,222.486374,221.552307,205.519226,186.554749,173.297302,167.999924,168.365738,171.069107,173.594025,173.423248,166.501205,147.768433,114.678085,71.5137863,30.6622219,8.39384174,16.4602604,54.3076553,107.229492,152.610336,171.385178,158.244904,124.437729,91.2376328,77.7061539,89.8078613,117.136009,139.0065,136.272629,102.116226,45.9495201,-11.3468342,-47.8767357,-51.154377,-23.3122044,20.9904137,62.2587624,85.2899094,85.3635178,68.9352493,48.9801903,37.5237122,39.0494843,48.0320663,51.9603081,38.5812263,3.79250765,-44.1592255,-87.0594025,-105.245476,-88.2132034,-41.4480972,14.9373903,55.8693848,64.4388046,41.0918427,3.20849466,-25.2103195,-28.0111637,-6.88720083,19.4066944,26.5427628,0.0694470555,-54.6429291,-114.302254,-150.593506,-146.406174,-105.587837,-50.3778687,-8.26439667,3.57035494,-13.1882095,-41.1916962,-59.7499275,-58.1589508,-41.7825584,-27.6293411,-32.8668823,-63.7987556,-111.93438,-158.891235,-186.430695,-185.386368,-158.817368,-118.807053,-79.9650345,-53.6545372,-45.263916,-54.2804184,-75.5798645,-100.868088,-120.553902,-126.812714,-117.49295,-98.7660141,-83.8792725,-87.1587219,-115.718025,-163.781036,-213.891769,-245.386612,-245.652145,-217.303421,-176.501053,-143.188568,-129.426727,-133.448395,-143.285614,-147.245422,-143.642471,-142.580215,-158.143997,-196.362244,-247.737106,-290.408386,-302.747192,-277.356171,-226.924637,-177.482803,-153.001343,-161.277939,-190.401398,-218.085205,-227.491135,-218.755173,-208.351227,-216.74678,-252.855148,-306.050446,-351.427277,-365.007019,-338.852325,-286.10495,-232.753189,-201.774857,-200.21228,-217.441513,-235.108246,-241.299866,-238.893875,-242.354111,-265.4599,-308.858429,-356.554443,-384.359344,-375.091919,-330.514801,-271.87207,-228.201172,-219.526459,-245.396469,-285.88385,-314.328247,-313.828949,-287.337646,-255.374115,-243.094986,-264.817841,-315.312469,-372.730042,-410.937164,-413.659271,-382.308655,-333.63324,-289.496368,-265.359802,-264.047852,-277.494385,-294.117157,-306.395416,-313.853455,-320.259399,-327.907013,-333.695831,-330.23822,-311.486084,-278.921997,-243.556625,-221.458725,-224.807693,-253.753815,-294.450775,-325.214935,-327.833252,-297.648834,-246.42421,-196.082886,-166.83075,-166.548904,-187.560471,-212.355087,-224.408066,-217.294342,-196.699112,-174.70282,-160.698029,-155.210571,-150.550705,-137.309677,-111.675728,-78.1817245,-46.0289764,-21.9961948,-5.57589626,9.63046741,29.0350304,50.0024033,60.6727371,46.8460121,3.06227994,-59.859581,-117.156425,-142.432953,-123.012779,-68.4570007,-6.02085924,34.9625168,40.2880707,18.6248741,-5.4739666,-8.97084999,13.2725592,44.2335663,55.8710861,28.6418343,-33.5546417,-103.324936,-145.304565,-137.57402,-85.1572189,-16.7769222,33.0464973,44.8738403,24.6634178,-2.85685682,-12.7846146,2.29167914,27.5905437,37.4132156,14.4003172,-36.7122841,-90.5352402,-116.916191,-100.581429,-51.2058868,2.9187181,33.286377,29.1464615,2.94994092,-20.1327057,-21.0557613,-0.837567031,20.1918259,17.3622398,-19.5743084,-77.0991821,-124.869316,-134.671188,-98.7963257,-35.4546814,22.5248947,48.2633514,37.039711,7.51522446,-12.534605,-6.10687256,21.0519524,44.4475594,38.0567551,-6.88384676,-74.1934204,-131.421097,-149.303009,-119.411568,-58.7436104,1.3544172,34.4165726,33.7754211,13.9691887,-1.49305558,2.64985085,22.6922264,38.5217972,27.3608379,-20.5552597,-94.5231628,-168.702133,-216.575958,-225.384445,-201.880875,-166.600555,-140.987305,-135.677856,-146.791199,-161.543442,-168.637909,-166.325699,-163.082626,-170.891708,-195.836456,-232.250107,-264.302643,-274.269623,-252.678513,-204.377777,-146.890793,-101.763588,-83.5577393,-92.5040512,-114.911453,-131.227814,-127.413162,-103.302818,-73.0872726,-57.2916031,-70.4843521,-111.669952,-163.184021,-199.28685,-199.991928,-162.30098,-102.139458,-45.564537,-14.2399549,-13.8308496,-32.3643608,-49.4897308,-50.6335068,-36.7673264,-23.2070618,-28.0455933,-57.8979683,-100.838821,-131.993469,-128.857483,-86.554512,-22.6636868,32.317646,53.3623657,36.4447784,0.899570704,-23.3348103,-15.5568686,21.7276287,64.0653305,80.9805756,56.2664185,-0.675068796,-59.9414787,-89.3572235,-73.8808975,-23.6541843,34.0902786,73.221405,84.4609146,78.3143005,74.0183182,83.1155396,99.804924,105.115944,81.8867722,29.6394768,-31.6737499,-72.3303223,-71.0223694,-28.2881851,33.930378,86.2212601,109.591995,105.353539,90.9463654,85.5832977,96.4567719,115.263718,126.843597,122.697571,108.672455,100.672638,111.500877,138.965134,164.9048,166.944901,135.188904,81.7781296,35.6478691,25.0477791,59.2631531,122.071167,181.73996,211.088379,204.123688,178.065842,159.634232,165.352951,189.714966,209.474243,200.99231,158.390656,99.663475,56.2716026,53.2056808,93.0584259,154.793533,207.710815,230.780258,224.189178,205.798355,195.92424,201.862076,213.283676,211.479172,185.304474,141.87114,103.843224,94.884285,123.390953,176.049591,225.960281,249.897003,242.869278,220.017044,204.680496,211.091217,233.843979,251.579178,242.427155,200.57048,142.393311,97.6868515,91.4749908,128.352921,189.581604,244.725128,270.10321,262.063202,236.789063,217.407471,217.456955,231.895691,241.513504,227.539734,186.439102,134.771576,100.524536,106.179657,154.21405,224.321198,284.341553,308.382446,291.201752,250.288467,214.616104,207.05719,231.059586,269.335602,294.919403,287.596069,245.803848,187.226212,138.309708,119.472954,134.902863,172.475143,212.835785,241.187744,254.237625,258.514374,262.254425,267.24234,266.694855,250.777954,215.762131,169.991211,131.752701,119.590454,140.941605,186.562714,234.815048,263.629669,262.927277,239.79631,213.205841,201.606384,211.209503,232.214722,245.172485,233.3582,193.487747,138.421066,90.5852432,70.3380432,86.0165176,130.775681,186.996353,234.968338,261.03833,261.772064,243.415451,218.087677,198.739838,194.402405,206.710464,228.694489,246.878555,246.916504,221.07724,173.92981,122.342705,88.3939972,88.0438843,121.782547,173.287933,217.822464,236.008224,224.712585,198.017303,177.2966,176.578598,192.796432,207.664749,200.334793,162.628616,106.558266,58.638195,44.1819916,71.5619888,126.68541,181.383026,210.349396,205.73407,180.161377,156.656601,152.504501,167.779358,185.859116,185.154694,154.043076,99.2794266,42.7962379,9.37841988,13.1509466,50.8393936,104.903435,153.521317,181.019272,183.33403,167.026978,144.129288,126.387894,121.247398,129.932541,147.112427,162.143356,162.535217,139.626434,94.4508057,40.1175346,-2.26297998,-13.5318317,12.6272449,64.7039566,118.461395,150.131927,149.975784,127.403084,103.816925,97.4520264,110.277176,126.195541,122.391151,86.5076447,27.7775993,-26.2481422,-46.1153908,-19.5354996,39.764698,99.8298874,130.196686,120.601669,86.1858978,55.7363434,51.0566368,71.673233,95.4598083,94.7917099,57.0515366,-4.82418489,-59.3164558,-76.3438873,-46.8533211,11.2761068,64.9538193,87.1931915,73.5838242,43.0102844,22.6299953,27.8750687,51.4372444,68.7562408,56.0205688,8.08631706,-56.1253281,-104.53714,-111.816811,-75.0159073,-14.8005466,38.0431519,61.4462204,53.7786179,31.3768845,14.6397581,12.9516373,18.8860512,15.2371006,-10.5923891,-55.2502899,-99.2293625,-118.152161,-98.1467361,-45.2645798,17.1055355,61.1424065,69.7930222,45.2357063,6.12393665,-23.9856262,-29.7855644,-11.5818634,16.427145,34.9107056,29.7641068,-1.28583097,-48.3608894,-94.49086,-123.004227,-124.002754,-97.8259583,-54.857254,-12.1104078,12.3019276,5.2325964,-36.7966309,-105.999557,-185.679642,-255.876083,-300.214935,-311.328369,-292.878235,-257.73761,-223.381042,-206.281677,-216.983673,-256.944031,-317.764832,-383.179565,-433.789764,-453.676819,-436.79538,-390.278931,-332.406464,-285.23819,-264.88382,-274.245575,-302.374908,-331.247498,-346.483673,-345.916809,-340.777588,-348.420319,-380.639648,-434.575897,-492.025574,-528.157532,-524.988586,-481.903198,-416.959442,-357.93811,-328.013,-334.058563,-364.10318,-395.187347,-406.966034,-393.236053,-364.926819,-343.09903,-346.205627,-379.018188,-429.490295,-475.171204,-495.331818,-481.832947,-442.688568,-396.630219,-362.208862,-348.012085,-349.684875,-355.155731,-354.379059,-347.097809,-343.390228,-356.403412,-391.872589,-441.467682,-484.97226,-500.829956,-479.028412,-428.234833,-372.156921,-336.624176,-334.891937,-360.216675,-390.585724,-402.969574,-388.300201,-357.616455,-335.187469,-342.680725,-384.329254,-442.66983,-487.857208,-494.926514,-458.258484,-394.248688,-330.721161,-290.038605,-276.684845,-276.868408,-269.670593,-241.809341,-196.140305,-148.693115,-116.99527,-108.171249,-114.98671,-122.073669,-117.337303,-100.128944,-80.4697037,-70.3384476,-73.8465652,-83.8034515,-87.2753525,-75.8974686,-52.9896278,-31.7635441,-25.5458279,-37.1262512,-55.4294052,-62.6754379,-47.5099678,-14.7923183,15.5046463,20.4757061,-10.167819,-65.728302,-119.43779,-143.939133,-127.425606,-79.9974289,-26.3229427,10.162961,20.8367424,14.4613228,7.83218765,11.7951717,22.8412361,26.1538677,7.63530731,-33.9780388,-83.7923965,-118.811897,-121.928352,-92.3263321,-45.416214,-2.74225092,20.9349861,24.6819687,18.4619312,13.312602,12.3113127,8.88214493,-6.75466633,-38.2362556,-78.0201797,-110.509415,-121.163956,-105.202736,-70.0337982,-30.2368565,0.87134856,17.1227016,19.4234905,11.1387672,-6.3341198,-33.7736206,-70.0980072,-108.075424,-134.497299,-136.225845,-108.652054,-60.4549179,-10.4396667,22.4464455,29.7931042,17.9984322,3.04419065,-0.9160375,8.49964333,20.274416,17.988533,-7.81254864,-51.2404289,-92.5732117,-109.121597,-88.8003006,-37.9200668,21.6927052,64.5571213,75.3048325,56.379425,25.55896,5.22337055,9.78441429,38.2262878,75.3735886,100.571442,98.7581558,68.178421,21.1696339,-21.9124393,-42.3568687,-31.6422482,5.08830881,52.1124458,91.1554108,110.332199,109.41626,98.6132965,91.4542847,95.8349838,108.599159,117.281746,108.394905,77.3619232,33.6645546,-2.71009016,-12.086525,13.1406889,63.2594185,116.239777,150.294922,156.281662,142.046143,125.86264,123.244957,135.912842,150.445831,147.793594,117.469826,66.857399,18.9912968,-0.345182955,21.7275715,76.7553177,139.256119,181.235641,187.966568,165.42836,135.192429,120.387001,131.626099,161.287476,188.939896,193.886124,167.009171,115.371864,57.9533806,16.0226974,3.87241864,24.1948891,68.9644012,123.845345,173.417175,205.535904,214.408493,202.244995,178.810608,158.023407,151.889816,164.147202,187.323303,205.907028,204.922089,179.381332,138.671066,102.397804,89.4777756,106.917999,145.477463,185.31012,208.217453,208.597809,195.828308,186.467148,191.618866,208.280121,220.928467,212.601013,177.983948,129.30835,90.479126,82.8308105,111.759666,163.14502,212.030579,237.842453,236.055405,218.728668,203.99855,202.188034,208.428696,207.033356,184.51239,141.884735,97.1638718,75.5372314,93.2973251,146.186996,210.255814,255.242935,262.251831,234.575287,194.865845,170.562088,176.853928,207.788193,240.707977,250.76825,226.245422,175.404587,121.391426,89.0201492,91.7358093,126.022308,175.338654,219.962036,246.449997,251.912186,242.261948,227.116501,214.963898,210.655472,214.998322,225.114304,234.858414,235.907867,220.54364,185.953552,137.960068,91.1886749,64.0642624,70.1705093,110.40831,170.826767,228.247177,261.289246,260.937439,234.683975,201.80687,182.427567,186.545746,209.127029,233.674484,241.841919,223.473694,181.695541,130.884689,89.360527,71.0948639,80.5095825,112.125481,154.142151,193.516693,220.252563,229.766113,223.326385,207.018066,189.590942,179.483688,181.62384,195.115387,213.055115,225.044357,221.665283,199.009384,161.079697,118.799057,85.968605,73.9340286,87.2045898,121.714279,166.252594,206.448334,229.928848,230.947037,212.790421,186.735977,167.366318,165.663818,182.843384,208.343521,223.97168,213.114334,170.672073,108.060043,49.5474548,20.8325996,35.5529976,87.3616028,152.613098,202.728241,219.400803,203.754074,173.936829,152.637909,152.309952,167.434708,178.780563,166.943573,126.410454,70.9041138,26.2754574,15.2122221,43.3617706,95.6557007,145.165024,168.900742,160.683014,133.252335,108.741646,103.934196,119.734756,141.241653,147.896576,126.952255,81.8084717,30.402462,-4.83608389,-9.04974174,17.9720802,63.0955772,107.728203,137.098526,145.87709,138.097717,122.860077,109.117157,102.269226,103.324486,109.724739,116.610809,118.073944,108.729126,85.8724213,51.6079292,13.5542116,-17.024147,-29.4550686,-18.4567547,12.9901562,54.3104134,91.2518005,111.042755,106.349098,76.5958862,26.855175,-34.3931541,-97.3512726,-152.429459,-191.588211,-209.903168,-207.076447,-187.96933,-161.351761,-137.045959,-122.761002,-122.239281,-135.472961,-160.290268,-193.69429,-231.773376,-268.534729,-295.425171,-303.288116,-286.77298,-248.85849,-202.041458,-164.080994,-149.538025,-161.601044,-189.460983,-213.773392,-217.861496,-198.282913,-168.03363,-149.652054,-161.645279,-206.183655,-265.839722,-312.049316,-320.863098,-286.826965,-226.563828,-169.615829,-141.781143,-150.834183,-183.170105,-213.305176,-220.300903,-200.936188,-171.483765,-157.032501,-175.046783,-223.450409,-280.721161,-318.034058,-316.033295,-275.993164,-218.656738,-171.684586,-153.582901,-163.922928,-185.470062,-196.281952,-183.720963,-151.493408,-115.659363,-92.820694,-88.6462708,-94.3780975,-93.4313126,-73.3854065,-35.0944557,7.33715343,35.7433929,40.0331612,24.9883137,6.95879936,2.48277879,16.3906898,37.4973221,45.1109657,22.4672661,-31.4836388,-99.6334991,-155.425964,-177.449234,-160.962463,-119.465523,-75.8052139,-48.8219566,-43.9944801,-53.4996758,-64.7276077,-70.8518448,-76.0514297,-91.9133377,-127.655479,-181.025452,-236.340591,-271.498566,-269.99408,-230.728226,-169.661713,-112.206352,-80.611824,-83.2998657,-111.73259,-146.053879,-166.053879,-161.532837,-136.921814,-108.280777,-94.6297531,-108.103905,-147.676468,-199.313217,-242.386414,-259.298645,-243.742249,-203.550293,-156.600769,-121.710968,-109.226906,-116.459267,-130.660522,-137.946045,-132.826324,-122.260811,-121.215286,-142.045456,-184.365219,-232.387466,-262.401031,-256.51355,-214.237976,-154.189102,-104.070084,-84.6939774,-98.0245819,-127.052528,-147.820374,-145.842743,-125.972023,-108.840942,-115.93409,-153.226837,-204.744446,-241.086578,-237.92128,-192.394592,-126.269714,-73.1220245,-57.5493546,-79.9592514,-117.108414,-138.23996,-126.20314,-89.4170837,-56.4734688,-56.7301292,-99.7241898,-167.222488,-223.468979,-237.144363,-200.772141,-134.987473,-75.1016235,-49.0086479,-60.9546127,-91.4426193,-112.592072,-108.044189,-83.8464508,-63.2580528,-69.5010834,-108.556389,-163.798645,-206.004166,-211.831161,-178.361588,-124.262794,-77.3115234,-57.0314674,-63.9990883,-82.342453,-92.8275833,-87.0107117,-72.775795,-67.9263916,-86.7543716,-129.010178,-178.652115,-212.917465,-215.495163,-185.360001,-136.241196,-88.0134811,-56.0825844,-45.1656342,-50.0835342,-61.3907547,-71.2043762,-75.7449417,-74.389534,-67.6730347,-56.7402725,-44.5879631,-37.1445656,-41.8962212,-63.7439117,-100.467812,-141.301987,-170.566269,-174.998505,-150.726089,-105.687164,-55.9567451,-18.0654793,-1.63350415,-6.10725021,-22.685236,-39.5810089,-47.451313,-42.5859947,-27.3079662,-8.44886589,5.0420723,4.90293217,-13.3293219,-47.5220108,-87.9644394,-119.778793,-128.838409,-108.896606,-65.9621506,-16.6605759,19.512537,30.247961,17.0128345,-6.04782248,-20.6610451,-15.5416021,6.61952257,30.6351528,37.9845314,18.1861496,-24.3892307,-72.1927872,-103.49617,-103.41552,-70.9053955,-18.4175453,34.798214,71.6469421,83.8669357,73.90168,52.1803741,31.8792953,23.5644264,31.4204082,51.9216309,75.2299728,89.0904083,84.1789703,58.8766098,21.0507927,-14.6246767,-33.0727959,-25.901619,4.64747047,47.1789665,87.2009888,114.17067,125.455566,125.321312,120.395302,115.204124,110.82341,106.912895,104.606392,107.108376,116.95031,132.042465,144.29921,143.155823,122.561737,86.7982559,50.4094849,31.1352024,39.6900711,72.9629059,115.4692,148.548096,161.44696,156.913284,147.515701,145.30687,152.184189,157.958496,147.788818,113.946648,63.5710106,16.5945072,-5.28275156,8.52304745,51.2113991,102.950706,142.687347,159.3909,155.551254,141.543015,125.987152,109.747726,87.9559402,57.947361,26.1419125,7.42931795,16.2848701,55.5215874,111.206543,158.600098,176.311264,159.614975,123.679413,93.8419418,88.865387,108.239479,132.307327,135.586533,104.694359,48.8944168,-4.09965611,-24.7555046,-0.191517293,57.4736633,118.32502,152.773392,148.983383,118.664207,88.002243,80.097847,100.419754,134.330643,157.573959,152.302322,118.162292,71.8106995,36.0852165,26.5079136,43.757225,76.0046997,108.187195,131.10437,144.303314,151.858612,155.46994,150.980392,131.43277,94.4601212,48.1060753,9.82968998,-1.90122533,21.3832378,71.7341537,127.672592,165.324875,171.362885,149.912354,119.148972,99.6277695,101.499504,118.463211,132.156281,124.273544,88.9718933,37.9223022,-5.21903133,-17.8190384,8.79613495,64.0157471,123.341591,161.442352,165.448242,141.03537,108.054008,88.4364548,93.4271317,117.399498,141.613708,145.537552,119.105896,68.9212036,15.0238523,-19.7013264,-21.3414154,8.54627037,54.9472847,98.1201859,123.645599,128.199203,118.550606,105.526611,97.3582993,96.4186172,100.44339,106.116447,111.64431,116.384361,118.456718,113.257515,95.2578125,62.7056084,21.9311352,-12.725358,-24.8857975,-5.36642885,40.9554825,95.6734467,135.602264,145.229584,125.463142,92.999649,70.2158127,71.4641418,94.1555328,120.253304,127.406311,102.939331,52.1365204,-4.1692028,-41.0752029,-43.1069832,-11.8211527,36.392849,80.1184387,103.92704,104.339478,88.4222641,67.4733658,50.6463852,42.142868,42.1990471,49.3159866,61.0555,73.0069351,78.0254669,68.2205505,39.8863602,-1.61517906,-41.3228836,-60.6739388,-47.7042656,-5.37443447,47.9939728,87.7526474,96.7791901,75.6977234,42.5677757,21.5130863,27.0025349,53.7827263,79.3283997,77.859642,37.4228973,-30.7760773,-97.0032425,-129.127197,-110.572937,-49.2959518,27.3685246,88.3941269,115.497124,110.678947,91.3696594,77.5407867,79.651123,94.7538986,111.996933,122.454277,125.932678,130.307281,144.644653,171.709457,205.487289,235.350128,253.536453,260.322693,263.157593,270.57782,285.532196,303.073303,314.082184,312.248199,299.166016,283.793671,276.566742,282.243195,296.396942,307.88858,305.563782,284.753143,249.618362,210.437119,178.205124,160.162308,158.423431,171.224533,194.587692,222.691895,247.273132,258.02124,245.594437,206.622375,147.702484,85.0116882,38.4511871,22.8354301,40.9644089,82.6592102,130.306839,167.511948,185.788803,185.937119,174.497375,158.711365,143.607925,132.302582,127.563843,131.718857,143.891144,156.772873,156.771118,129.637833,69.4734879,-14.5883837,-99.543129,-158.564178,-174.885147,-151.087708,-107.51918,-70.2919769,-56.2536507,-64.5885849,-80.4454269,-87.8313675,-82.5534744,-75.8356934,-85.7481918,-122.357742,-177.369476,-226.352142,-243.019897,-216.388184,-159.053436,-100.435471,-68.9174652,-74.5407639,-103.805885,-130.111023,-132.78418,-111.779411,-87.9805374,-88.7901764,-128.657562,-197.64093,-265.723328,-300.12204,-284.377014,-227.164581,-155.875504,-99.9731598,-75.2373276,-78.3875351,-93.8726196,-106.48381,-110.47226,-109.648911,-110.234245,-113.455338,-114.328705,-107.470993,-94.6588364,-87.0327911,-98.8131332,-136.222656,-189.779068,-236.620483,-252.789886,-228.106842,-173.688705,-116.491348,-83.710022,-86.8111877,-115.514984,-145.690506,-156.007477,-142.395706,-120.769745,-116.168037,-145.356491,-204.228134,-268.269806,-306.030884,-297.343323,-245.164124,-173.993851,-116.084251,-93.8604507,-108.835655,-142.974594,-170.918335,-175.353622,-156.549881,-131.029938,-120.825752,-139.948212,-185.821167,-240.232468,-278.925354,-284.346375,-254.638474,-204.226563,-155.938919,-129.058258,-129.75473,-148.973969,-168.784698,-173.540283,-159.488083,-137.228165,-125.410652,-139.138931,-179.823959,-232.669739,-273.692108,-282.551392,-253.862625,-200.318604,-145.684402,-111.722076,-106.735504,-122.408279,-140.533661,-145.229446,-133.006729,-114.581383,-107.54982,-124.676636,-165.079926,-213.612518,-248.645386,-253.510239,-225.017166,-174.569427,-121.87101,-85.2038803,-73.5534973,-84.1263962,-105.527672,-124.109291,-130.112686,-121.154381,-102.31572,-83.4896545,-75.2587509,-84.6509171,-112.043381,-150.340424,-187.062271,-208.952621,-207.424454,-182.396545,-142.517059,-101.460114,-72.028717,-60.9796562,-67.0093079,-82.5181732,-97.7608795,-105.044151,-101.180824,-87.8207321,-70.41008,-56.6461639,-54.6234703,-70.3476715,-104.691414,-151.005997,-195.405014,-221.056305,-215.559814,-177.939331,-120.900856,-65.9615784,-33.1175957,-30.4668598,-49.9908638,-72.5512695,-79.6674728,-65.186203,-39.5456161,-23.5669632,-35.1558647,-76.9439697,-132.690598,-175.131012,-180.976578,-144.276321,-80.1598358,-16.6630459,20.6004601,21.9873466,-2.14149714,-28.9175148,-37.2743225,-20.5968018,9.50191975,30.1665707,20.8043156,-24.6064243,-93.1661453,-158.872192,-195.326599,-188.592224,-143.644852,-81.3772049,-27.9674664,-2.17497826,-6.99008894,-29.7165279,-50.2064247,-52.7505646,-35.1769371,-10.1090593,2.49240518,-12.4752932,-55.2003059,-109.060951,-148.51947,-152.784775,-117.589073,-58.1100159,-0.979568422,30.2871914,28.0364532,3.86516285,-19.3907604,-22.2389984,-0.812686503,30.6615524,48.7210617,35.4122543,-10.0917358,-70.013443,-117.384598,-130.54834,-104.171097,-50.7298241,7.53627014,50.6777611,69.8768692,68.7424164,57.8676643,47.3412094,42.162838,42.477932,46.749649,54.2429276,64.5557556,75.0509109,79.2943878,69.1176987,39.9860916,-3.77801514,-48.1746864,-74.9459,-70.9027252,-35.7700615,16.5186024,64.4296188,89.8741684,87.4044037,66.2918549,44.435257,37.8083687,51.5554543,77.5627289,99.3864288,101.331223,76.5998917,30.5381546,-21.9854546,-63.0778389,-78.8532867,-64.173172,-23.8199177,29.6701107,80.4447556,114.669456,125.241241,114.310654,92.3742218,73.7843552,70.1749573,84.693985,110.033791,131.639557,134.82103,112.281784,68.1961899,16.7460194,-24.038372,-39.9175301,-25.8805943,12.7801018,63.5098877,111.6082,145.059952,157.629761,149.938889,128.824661,105.202271,90.5189285,92.3418198,110.575478,136.421432,155.529129,154.717239,129.234161,86.4674759,43.4118271,18.6048679,22.6894321,52.9612312,95.1989517,131.785995,151.271988,153.581161,147.804688,144.234406,146.019867,146.104446,131.700775,93.6303406,34.5469284,-29.4888878,-75.6551666,-85.792984,-56.1804886,-0.0613647737,58.5786285,96.6181488,102.576111,81.0336914,48.8035965,25.3442059,22.6779308,39.9098282,64.7127228,80.4859848,75.2143402,47.5540924,7.37411356,-29.1369724,-47.0909691,-39.4310684,-9.37248993,32.0312119,71.5118561,99.2906036,112.058861,112.251991,104.837776,94.1106262,82.5391617,71.9115753,65.1312332,66.4338989,79.045311,101.569649,126.015617,139.930511,132.582474,102.044777,58.5893211,21.3322392,9.00166225,29.6540318,75.4808731,126.316971,160.373077,166.141113,148.370346,124.367554,112.73999,121.445305,142.596222,157.393784,148.292068,110.92627,58.3443794,14.703517,1.98762274,27.5407314,79.738472,134.278641,167.363617,168.170471,143.666443,113.428055,97.8285065,106.451698,133.061279,159.488312,165.85675,141.39859,90.2350998,29.5135727,-18.6739445,-37.2479744,-21.1475182,21.5686607,74.4227982,120.258644,148.178162,156.647995,151.905777,143.152283,137.425156,136.85051,139.337616,141.65329,142.431778,142.899353,144.824753,147.365875,145.58551,132.538437,104.339981,65.0929108,27.8257523,9.55725956,22.3277683,65.2261734,122.750412,171.60231,192.866882,182.672409,154.588974,131.586609,131.810394,156.714005,189.230865,203.787796,182.514404,127.697098,62.3578224,17.9673729,16.405447,57.1630478,117.796646,167.460175,185.111862,171.002319,144.349594,128.997238,136.622192,158.61998,172.074417,155.907608,106.499268,42.2681503,-6.16197824,-14.1661358,21.8804913,82.3892136,136.489136,160.40213,150.556366,123.36792,102.403236,101.782219,116.872757,128.250977,116.009293,74.6846924,18.7648811,-25.0064125,-33.6657028,-2.18369317,53.2004356,104.451073,127.982758,117.649597,86.8160248,58.8087616,52.0767784,69.1727982,95.8225937,110.001305,95.1581802,49.8540916,-11.2259007,-64.7352371,-90.0010681,-78.2415314,-35.5631294,20.7945938,70.3962097,97.8705063,98.2272263,77.6214828,49.7491951,29.4689617,26.114624,39.1771927,58.3664207,68.4145584,56.7819519,20.6859264,-30.2582378,-77.5821686,-102.305206,-93.9556198,-55.5766945,-2.09141397,46.9914055,76.5239487,81.6510773,68.0807343,47.3766975,30.5164394,23.2875938,25.3175964,32.0837402,37.8261108,37.6060944,28.1780224,8.48988914,-19.4641438,-49.8359299,-73.5170975,-81.1502304,-67.8691406,-37.2027092,-1.1661526,24.6392937,28.9433289,11.3319893,-16.8786163,-38.6542625,-41.1628227,-23.8929672,0.0850644559,10.9245405,-6.70365858,-54.1954536,-116.900162,-170.621078,-193.22876,-175.195755,-123.710213,-58.6981468,-3.30484104,26.1622963,26.1788521,5.71428347,-19.3528194,-34.1019058,-31.2638836,-14.1880703,4.89433193,10.6031523,-8.0376339,-51.3460426,-107.09082,-154.571121,-173.592194,-154.452499,-103.764717,-42.3931656,4.26981497,19.0039215,1.50126922,-32.0881844,-58.9547958,-63.3043671,-45.8094788,-22.9890308,-16.6939392,-40.0383987,-88.4833221,-141.697235,-175.120895,-174.072479,-141.692627,-96.0457306,-58.670536,-42.2160263,-45.0364304,-55.6474762,-63.1921463,-66.1077423,-72.7151566,-93.3757782,-130.062424,-171.317581,-197.034561,-190.631729,-150.685608,-93.857193,-46.3524704,-28.748354,-43.70438,-74.619545,-96.441597,-91.9821472,-63.3651619,-31.1556816,-21.4821835,-49.1259918,-107.194565,-169.931839,-207.050858,-200.874344,-155.973114,-95.762207,-48.5442467,-31.7058334,-43.4547424,-66.4513779,-80.3143005,-74.8604889,-56.0441399,-41.4666252,-48.7634087,-84.1773682,-138.03067,-189.366989,-216.686707,-208.596069,-168.81987,-113.564934,-63.3414497,-33.7752876,-29.7376003,-44.8920441,-66.0348511,-79.7256546,-78.2464294,-62.6371994,-41.8661842,-28.6010628,-33.254528,-58.7262383,-98.2272949,-137.50885,-160.900574,-158.561447,-131.374222,-90.7536011,-53.1458664,-31.9154472,-30.961525,-43.6363144,-57.6122322,-62.8720665,-58.0651131,-51.3371735,-55.0010796,-77.1599884,-115.355858,-156.249374,-181.833755,-178.82576,-145.973053,-95.1932373,-45.9806976,-16.2546501,-14.5861692,-37.6106529,-73.2601624,-107.264656,-129.052216,-134.31163,-124.047783,-102.120544,-73.6044464,-44.8130379,-23.8102589,-19.3636379,-37.400425,-76.3929138,-124.914131,-164.238358,-176.102905,-152.171875,-99.7671967,-39.7574539,3.26543498,13.6221418,-7.12916422,-41.2960548,-65.3457947,-63.6052437,-37.322216,-3.66101289,14.7653027,3.47670794,-35.3732605,-84.5277176,-121.860657,-132.702225,-116.699173,-85.5570374,-54.0570145,-30.8968277,-15.4604349,-2.06780243,12.1621084,22.1812687,16.8372478,-13.2987614,-67.5777969,-132.534653,-187.227097,-213.64917,-205.773773,-171.709381,-128.05484,-90.5531006,-67.146698,-57.3001137,-56.763649,-63.2600021,-78.4522934,-104.897102,-140.853851,-177.644958,-202.390106,-204.806763,-183.515121,-147.362961,-110.694275,-85.7060013,-76.9857178,-81.565361,-93.7174072,-110.320023,-132.467224,-162.17601,-197.118011,-228.144211,-242.477859,-231.144485,-195.657425,-148.930801,-109.064995,-89.5584717,-92.1537018,-106.974495,-119.835304,-121.859566,-115.077225,-110.447693,-119.825844,-147.299149,-185.523666,-219.237488,-233.513184,-221.61795,-188.112549,-146.155792,-111.384727,-96.0426865,-105.802055,-139.406525,-189.761703,-245.345612,-292.078491,-316.514343,-310.422699,-275.04071,-222.159805,-170.16478,-136.020508,-127.171631,-138.115997,-154.064606,-159.832581,-148.68074,-125.656654,-103.39756,-93.2226181,-97.4403229,-108.000412,-112.386566,-102.766136,-82.1525192,-63.2355652,-60.3667564,-79.7642441,-114.307716,-146.466934,-157.781494,-139.188492,-95.9712982,-44.4496613,-2.56173182,19.9406509,25.9831238,28.0763397,39.9734192,68.3544693,109.43708,152.13916,185.386597,204.817062,214.784637,224.669144,242.066391,267.311951,292.88681,308.158386,306.515411,290.329346,270.348389,259.483276,264.514313,280.851593,294.002014,287.529846,253.243225,197.58046,139.968643,103.447891,102.527679,135.202286,183.93483,225.266739,242.550873,234.305878,213.241241,196.678787,194.471039,202.187088,204.12381,184.470016,139.572113,83.1817627,40.6675911,35.0306396,72.9442673,139.477448,205.205612,241.97113,238.16745,204.478271,166.587936,149.189026,160.905746,189.273636,208.878998,197.77887,152.214966,90.5342636,43.6448021,37.4520149,77.6449509,145.948074,210.199692,242.397217,234.069702,199.921692,167.711105,160.5979,182.727539,216.833755,235.314453,217.985092,165.578491,100.606476,54.9048729,51.3465462,90.7834244,152.056076,204.856247,227.370819,217.852173,193.282639,176.530533,180.608047,200.25766,216.146118,208.674545,172.18071,120.127968,77.799057,67.1491547,93.5120087,142.578339,189.375702,213.310532,209.644485,190.373764,174.49942,174.469498,187.75827,198.88858,190.274048,154.643555,101.03569,50.6670609,25.3899422,35.8271751,76.0564957,127.414986,168.588837,185.967209,178.850342,157.605988,136.801483,127.462776,132.196213,144.833725,154.0289,148.879654,124.309204,84.203537,40.9167786,10.8149242,7.13478613,33.1205673,79.0986252,125.869118,153.632889,152.188431,126.627518,94.6779175,76.5400009,82.8256683,107.876251,132.866592,137.184753,111.286034,63.0666962,13.7297478,-14.3056755,-9.91756725,21.4153137,62.3478432,94.7821884,109.882317,110.785072,107.127174,106.075134,106.559387,100.657677,80.7155151,46.7129974,8.40521812,-19.3463421,-24.8159504,-5.72042131,30.2216148,70.1021118,102.17688,119.61602,120.255768,104.312241,73.243988,31.1506462,-13.0455275,-46.0214577,-54.8953514,-34.5268211,7.66993046,53.77248,84.3615112,89.4389343,74.0532608,54.3276596,45.9606667,52.7743492,63.4313583,59.2163353,28.0994415,-24.5144176,-76.3000031,-100.40461,-82.1561432,-29.1366673,32.3667564,72.6943283,76.2532654,49.8920822,16.9459591,1.09733021,10.7940331,34.3867531,48.8692589,36.0935555,-4.3999157,-54.2528648,-87.296814,-85.312706,-48.5038681,5.4279027,52.1845779,74.3556595,69.3427582,48.0043755,26.4068089,16.7024364,22.347971,38.9511948,58.2637405,71.8326035,72.696991,56.1011848,21.0220394,-27.2983952,-76.0346222,-107.556061,-106.895393,-70.5971832,-11.2035828,46.8915367,79.3869934,75.4420166,44.1284256,9.16248322,-5.66714144,8.33482361,38.7207298,59.3200684,46.9642258,-2.84004712,-71.3417511,-126.340134,-140.577927,-107.513939,-44.8694191,16.0143929,48.2349777,43.7161903,15.5434761,-12.3782082,-21.2114201,-8.56286621,11.2715778,17.5574875,-3.10131288,-48.0331726,-99.6939774,-135.41127,-139.494247,-110.85128,-62.5494957,-14.5495033,15.831953,20.8720245,4.17156219,-22.543951,-45.3089867,-53.855175,-45.6194496,-26.7261772,-9.60610485,-7.75007057,-29.2266846,-71.6725769,-121.60231,-159.366104,-168.195801,-143.035141,-94.139801,-42.737484,-10.4123192,-7.83479118,-29.3612633,-56.9666901,-71.501503,-64.6733627,-44.4090309,-30.0532112,-40.0385513,-79.437149,-135.13887,-181.957916,-196.3797,-169.953125,-114.400703,-55.3663368,-18.4085217,-15.3707314,-38.932621,-68.2529297,-82.1206436,-71.7825089,-46.0129395,-25.6605682,-31.0155373,-69.358284,-129.783707,-188.16571,-219.446381,-210.490692,-166.615906,-108.487991,-61.2989769,-42.1465569,-52.2746353,-78.0310364,-99.6663284,-102.964554,-87.3196945,-65.9062805,-57.9192619,-77.1653061,-123.289246,-180.542389,-224.966019,-236.314514,-208.437531,-152.595673,-91.9346848,-50.0459137,-39.654995,-57.2942123,-86.4866714,-107.363533,-107.320808,-87.0624084,-59.1854019,-40.6261024,-43.4264374,-68.7502823,-106.858955,-142.344559,-161.337219,-156.953949,-130.851563,-91.1164551,-48.3834076,-12.243206,10.9851379,19.1845703,14.5666828,3.12328124,-6.98162603,-8.34423256,2.08387923,20.4844131,36.7033691,38.5436859,18.3109646,-21.7550869,-68.6147537,-103.461418,-110.656776,-85.9895782,-39.5476303,8.82364178,39.4067345,42.6014938,23.4989414,-1.58637023,-14.7491217,-6.89532137,16.9698467,40.5867271,45.8455238,23.4717674,-21.0120621,-69.4195251,-100.015785,-98.6865768,-66.1623001,-17.4979401,25.7971554,46.7026863,40.9142952,18.1425228,-3.99012613,-10.0543251,4.47600365,30.4615917,49.6789436,44.3542099,6.77916718,-55.8337212,-123.674652,-172.712845,-185.126465,-156.926193,-99.3874893,-33.868145,17.4177647,40.4515228,34.3839149,10.5212479,-13.9252739,-24.3912449,-16.0191422,3.85445833,18.9186134,11.5270882,-28.5074196,-97.9400101,-179.948288,-250.376495,-287.93866,-283.77298,-245.625061,-194.236877,-153.360489,-138.273727,-148.789886,-170.616333,-184.45694,-177.84845,-152.966232,-125.739204,-116.555756,-137.810196,-185.55603,-240.287949,-276.61496,-276.415161,-238.083664,-176.843338,-116.319351,-76.4594193,-64.565094,-73.8626709,-89.4039001,-97.0873032,-90.5390472,-72.70578,-52.5343018,-39.6528893,-40.1744766,-55.0522881,-80.4849701,-109.148384,-131.700104,-138.963593,-125.180504,-91.4674759,-47.2544022,-7.58513212,13.651907,11.4021988,-6.81330156,-24.4324074,-25.6659737,-6.05922127,23.1813679,40.871006,29.0231419,-14.378376,-71.5323868,-113.347404,-115.932251,-75.0962906,-9.55944061,49.605545,77.0347595,67.4130936,37.1191864,12.3279753,11.4612083,33.4356461,59.1830139,65.0735092,39.0983429,-10.8790655,-61.9115143,-90.1321487,-84.6670151,-52.4421043,-11.6984138,20.2579346,36.209362,39.3513145,36.0734825,28.0572109,10.5858383,-21.4446583,-64.9556198,-105.368126,-122.789513,-104.625435,-55.8887138,0.984711647,38.1978416,39.4162903,10.1853876,-25.5974236,-41.4894371,-26.3771248,7.65033388,33.0899887,25.632288,-18.7322788,-79.6655045,-124.443184,-128.19278,-89.1628494,-29.1550274,20.8099594,39.8090591,28.5678406,6.13968468,-5.19605541,4.01756048,24.3841972,35.3173065,20.5898647,-19.1912403,-65.6620407,-93.7106247,-86.8345795,-46.7784576,8.29453182,55.0712662,77.9999619,75.9237289,59.5325317,42.9256973,35.6197853,39.6118774,51.5833588,66.7565079,80.8356934,89.3854294,87.0205536,69.1235428,36.1071854,-3.0932591,-32.4205208,-36.1265602,-8.52588749,40.5586205,89.4915619,116.643303,113.295532,88.9629211,64.9058762,59.5255585,75.295311,96.4625626,99.7792282,71.4977341,19.0489655,-31.1814766,-49.4190865,-21.6338768,40.4639549,105.637604,142.000107,136.470642,102.124619,68.6192017,62.0461044,87.5577164,126.231445,148.130997,132.764709,83.3173981,25.3028107,-9.30920219,-1.90442073,41.9454803,97.3048477,136.536285,146.371887,134.186981,119.963615,120.207413,135.322525,149.241455,141.471542,103.110229,45.6099701,-4.0800848,-19.2354755,10.103735,70.4737473,132.566269,168.310287,166.769501,139.11673,109.998985,101.144196,117.667526,145.483963,161.054855,147.034698,103.965248,50.8872147,14.6693258,14.6288939,51.6000099,107.688667,156.52475,177.806015,167.755112,139.805038,115.589264,111.747009,130.160904,157.033157,171.103531,156.225906,111.210136,51.4607582,1.51127231,-17.4589729,1.65809584,48.7039757,102.15683,140.68866,153.853638,145.991806,131.423477,124.120682,128.305313,135.850204,132.193848,107.137283,63.6272507,18.5603256,-5.60128164,6.17263889,51.6911087,111.290375,157.914917,171.984543,152.29837,116.286583,89.1988754,88.5632553,113.296989,144.201813,155.727554,131.987854,77.3162384,14.8744583,-25.9740353,-26.0380573,13.2583456,71.366684,120.806755,142.533798,135.375671,114.395279,99.8891983,104.210129,124.444656,144.95311,147.628021,123.301758,77.5499649,27.9279747,-5.18965769,-8.66926003,17.739851,62.4403458,108.20694,139.874893,149.912079,140.082794,119.401962,99.753067,90.8118668,95.8280334,109.738358,120.78978,115.808922,87.4080811,39.6608887,-11.4493866,-44.3429909,-42.6068344,-4.59335709,54.0915794,107.662308,133.602264,124.959488,93.9798965,64.4053497,56.7008476,75.1277618,104.775566,120.639977,103.296906,51.5042076,-16.0503998,-70.8358154,-90.0595474,-68.2891998,-18.604044,36.379673,77.1652374,95.8314209,96.1755371,87.3948135,77.00354,67.9602585,60.7182693,56.7181702,59.0323868,68.9603195,81.677742,85.8230438,69.3418045,28.7079639,-25.127264,-69.6779327,-82.6397018,-55.6586723,-0.894513249,54.9294167,86.0926056,83.2492828,58.2832718,35.0347862,31.9365921,48.4900894,65.279892,58.0381317,16.3093357,-46.4516144,-99.0998459,-111.972733,-76.4335556,-11.4117565,47.9512863,72.330864,56.2652664,20.0862064,-5.49294138,-1.46844506,25.9826641,50.0457077,42.7533073,-4.09682465,-71.245163,-123.14518,-130.67337,-90.0505676,-25.1792965,28.0700684,44.8199463,25.8180008,-5.83853865,-22.9647102,-14.3126154,7.81673861,17.5824413,-4.11002827,-53.7094383,-105.144196,-126.364395,-101.097168,-40.7607689,21.9117088,53.4985886,40.9642067,-0.925960481,-40.6546669,-51.7699509,-30.6320438,1.75562584,14.7361908,-10.6109324,-68.1553116,-130.173904,-164.853638,-155.893341,-111.392632,-56.9316711,-18.4969158,-7.25869274,-16.0790443,-28.8718071,-34.9273148,-37.3049812,-49.2676201,-81.7667694,-131.665848,-179.980881,-202.266037,-184.469955,-133.347534,-73.8676758,-34.7410355,-31.2894993,-56.8344612,-88.2486877,-101.975235,-89.9159241,-64.7018356,-50.8840599,-67.8586426,-115.776711,-173.770157,-211.8582,-209.084503,-166.441513,-106.456825,-59.7497559,-47.0036659,-67.5336304,-101.330879,-122.954948,-118.295586,-93.5965576,-71.1369476,-74.3970871,-112.121109,-171.366974,-224.04277,-243.060425,-218.276611,-162.49498,-103.900009,-69.6042328,-70.3986816,-95.9536819,-123.159378,-132.087311,-119.318581,-100.096161,-97.8764114,-127.922127,-185.495331,-246.451233,-280.284302,-267.807404,-212.644394,-139.504517,-80.3865356,-57.2266693,-71.4163895,-105.952522,-137.893463,-152.552383,-150.427109,-143.272476,-143.153366,-152.722046,-163.505463,-162.909973,-144.345779,-112.781891,-81.5531464,-62.7551498,-58.354599,-58.7349281,-50.0409088,-25.2029877,9.40348053,36.8782692,40.8154411,17.0773144,-21.8694782,-53.3764877,-57.8478966,-30.2078686,17.7664471,65.4289246,95.9121857,105.010918,100.950546,96.2588043,98.274353,105.176147,109.775726,107.273254,100.285225,96.8302078,102.754547,114.827698,120.698196,106.893837,69.6886215,20.7638817,-17.3960419,-24.3582687,5.32377768,57.9515038,108.55423,135.892914,134.659378,116.720215,100.773811,97.8841782,103.29982,100.564003,75.1322021,27.6909027,-22.8327446,-49.6112213,-35.2265587,15.7427883,77.8675156,119.711418,122.997635,93.5251312,56.522541,39.4261246,53.4901848,86.4781952,111.319901,104.963364,64.8309174,11.8531933,-22.0715408,-14.0874872,35.1005554,101.502884,152.570297,166.800354,145.811737,111.642502,91.6049805,100.717697,132.744843,164.924759,172.726456,145.087402,90.9881439,34.1210747,-0.338158846,1.21925831,34.8762512,82.3215103,119.932175,128.395416,98.7078552,33.4846306,-55.0549736,-148.61235,-227.042892,-273.334259,-278.898285,-247.367386,-194.349716,-141.828247,-108.853951,-103.003265,-117.512314,-136.211395,-143.789078,-135.417786,-119.837982,-113.848579,-131.471085,-174.440918,-229.900803,-276.708435,-296.493622,-282.88031,-243.741882,-195.857391,-155.83165,-132.81134,-126.59539,-130.872787,-138.300766,-143.856827,-145.12558,-140.904282,-130.564178,-115.30162,-100.012482,-93.1866074,-103.280106,-132.879562,-174.448547,-211.413544,-225.364029,-205.993484,-157.929825,-99.7801361,-55.1194153,-40.1600151,-55.194561,-84.9633331,-107.889648,-108.825058,-87.8186951,-59.7938385,-45.4188347,-58.6135674,-97.9797745,-146.999176,-182.706604,-187.795715,-159.440475,-110.246254,-61.2439919,-31.0516872,-27.0331402,-42.8042068,-62.8702316,-71.5386276,-61.3623199,-36.9525261,-12.5169296,-4.56220579,-23.3995399,-67.505394,-123.359024,-170.833344,-191.69664,-177.40184,-132.682724,-73.3956757,-19.6565571,12.5733366,17.6760368,1.69983053,-21.5135517,-37.3603973,-37.3175888,-22.5273876,-2.69162178,9.00268745,2.50252247,-23.9451084,-62.3805923,-98.1504364,-116.139366,-107.555443,-74.209137,-28.1403713,13.5570726,36.5546112,36.0646286,19.0641346,0.521657884,-4.72286177,9.73836136,37.969883,64.584465,73.1272964,55.4404297,16.7516842,-26.469326,-54.7610474,-55.4233093,-28.4090958,14.6305056,57.0921059,85.7304993,95.8768997,91.3101273,79.9956436,69.1323013,62.5939522,61.4732285,65.960228,76.0957565,90.4521408,104.18895,109.139824,97.413147,67.1022797,26.2742538,-8.46724796,-19.461853,2.08150125,49.7397842,103.742538,140.934891,147.460892,126.538162,96.209671,77.9822693,83.0886917,104.947838,122.848251,114.973579,72.9138031,8.59275246,-51.0030518,-78.4621964,-61.3039665,-8.86645699,53.337616,98.2574158,112.015953,99.9388504,80.6755905,72.5954742,81.305397,96.2043381,98.1343002,73.1202927,23.333046,-31.8844357,-65.914917,-59.9019165,-13.9139118,52.4890633,110.688347,138.340469,130.74324,101.891998,75.0579376,68.7685318,86.4332047,115.314201,134.840256,128.922546,95.0545044,45.3946724,-0.0252776276,-23.4819584,-17.3640957,14.0058689,58.293499,101.57756,133.549896,149.556702,149.983551,138.742798,122.097763,107.616158,102.240166,109.176445,125.003265,139.473267,139.610382,116.984352,74.2452927,26.3560982,-5.50967264,-4.91618252,30.1548996,85.068573,135.860611,162.336517,159.180695,138.101715,119.430374,118.326408,134.442459,151.940231,150.176743,118.336731,64.4258118,12.3931198,-11.2870846,6.6569767,58.1897888,118.694923,161.587677,173.566742,160.926926,143.222488,138.801498,151.945816,170.15036,173.284363,148.468414,100.666687,51.7211914,28.0529079,44.6360817,95.3649216,155.982574,197.905731,204.5289,180.147659,146.275497,127.854279,137.862366,169.539917,200.648453,206.957077,176.865143,118.707344,56.7767563,18.5922546,20.6601086,60.4319344,118.420776,168.816666,192.593521,186.176758,161.480377,137.836029,130.521835,142.168167,161.606812,170.69487,155.361633,114.78495,63.4571991,24.6124706,18.2118435,49.8966179,107.152245,165.210083,199.831009,200.028091,173.498932,141.462982,125.694702,135.274979,161.018555,181.167755,175.197922,137.483414,82.3459244,36.990284,26.1547108,57.5061264,116.625793,174.808395,205.205322,197.761322,164.095169,129.548218,117.368698,134.65773,168.468353,194.151901,190.630081,153.270386,96.787735,46.8249588,25.6256447,40.3983421,80.8435669,126.480675,158.618622,169.572235,164.103165,153.26619,145.4422,140.589737,131.15239,108.550095,70.6874847,25.5016422,-11.7598238,-25.9517441,-9.88329315,31.6605053,83.6077881,126.737785,144.949493,130.350662,84.5455933,16.6213417,-60.3811951,-132.786499,-188.658142,-219.503799,-221.863831,-198.793213,-160.405563,-122.311646,-101.406998,-109.882957,-149.75412,-210.682846,-272.874146,-314.57193,-321.233185,-292.151917,-241.058365,-189.944534,-158.802597,-156.306686,-176.267578,-201.835434,-215.288925,-208.105682,-185.713409,-164.203613,-160.814667,-183.580093,-226.067337,-270.229492,-295.738281,-290.490906,-256.453796,-207.856506,-163.210373,-135.979477,-129.06897,-135.605835,-144.627533,-147.686356,-142.485245,-132.112366,-121.413971,-113.562645,-109.115326,-107.606308,-109.721107,-117.779327,-133.756638,-156.217712,-178.693588,-191.321014,-185.412094,-158.495773,-116.736259,-72.9702682,-41.106617,-29.7558327,-38.4235649,-58.183506,-76.3352432,-82.5543365,-73.4979019,-53.8661041,-33.7977867,-24.1364574,-31.7879925,-56.9939613,-93.3012924,-129.919769,-155.44725,-161.696243,-146.47113,-114.460533,-75.8911819,-43.2005386,-26.67309,-30.5142307,-50.9407005,-77.3292236,-96.3523026,-97.7056122,-79.0849915,-48.0406456,-19.4362316,-9.15056419,-26.5786114,-69.430748,-123.630318,-168.865067,-187.512741,-172.700562,-131.364777,-80.5532837,-38.7545662,-16.8274574,-13.4572659,-17.5794792,-16.1895561,-2.7421639,19.0359211,38.2553482,44.8139229,36.8719749,22.671711,15.1202564,22.4477348,41.2311058,56.9934464,52.8546371,21.2255955,-29.0621376,-75.5269089,-94.0037918,-73.0092468,-21.5641308,34.9382744,68.9676743,66.8113937,36.3643913,1.62999225,-12.9230795,1.58624613,32.3047409,52.6741524,39.8885956,-9.22948837,-74.3016739,-122.426247,-127.659203,-86.8415375,-21.7155056,34.1693764,55.600193,40.1761322,7.99569941,-13.0481968,-6.62960863,20.7852821,44.3486633,38.0928116,-6.32001877,-71.9211197,-125.319122,-136.810822,-98.9045639,-31.2533817,31.3069649,59.9873047,48.8881264,16.7024078,-7.52959394,-4.93601751,20.1664314,43.4840202,38.068737,-5.86570787,-72.0698853,-126.643547,-138.604385,-99.4291229,-28.8584881,36.8885994,66.9711609,53.8825111,16.2183342,-15.0716562,-17.6168747,7.97948647,39.3968086,48.2086639,19.2795944,-38.7534943,-98.4358063,-130.229797,-119.971901,-76.071106,-22.6203499,16.1825657,29.7582035,24.5067062,15.7655106,14.9247093,20.9623032,21.9696999,5.03299713,-32.8326721,-80.4152832,-117.632866,-126.893562,-103.156693,-56.5727425,-6.60186148,28.2656555,38.964283,28.2399158,6.91093302,-12.6576986,-21.9221172,-18.3382053,-4.81399536,11.9567471,23.3086872,20.8363533,-0.415113628,-38.4411888,-82.6365814,-116.356544,-123.935715,-99.1727524,-50.2470818,2.82247901,37.8909378,42.523407,20.8630905,-9.1159811,-26.8370705,-22.1711731,-2.08764338,13.6162405,5.20416498,-33.4279518,-89.1703033,-135.994781,-149.634277,-121.83744,-65.5057297,-7.53881216,26.3305988,25.6377563,-0.0607387163,-28.3078251,-38.1364174,-22.9568386,5.66579914,25.3435822,16.7415161,-24.235096,-82.9664001,-133.244644,-150.914047,-126.499916,-70.1203461,-6.35440731,37.9065437,46.1449776,19.0936928,-27.1741695,-70.2742767,-92.5576096,-88.5164642,-65.2798462,-36.7993126,-15.5418634,-6.4182415,-5.96081161,-6.54132462,-2.57735467,5.21821976,10.0513515,3.43005753,-19.0454063,-53.9765625,-90.7148438,-115.873055,-119.378632,-99.0049973,-61.3141861,-18.8447857,14.9520426,30.806982,26.858614,9.00325489,-11.6485329,-23.3788757,-19.0016251,0.45235914,25.3732471,41.3547935,36.0462265,6.05706835,-39.8368263,-83.5900269,-106.167099,-97.199852,-60.6728668,-13.0685387,25.3857994,41.5201225,35.7219658,20.1940308,10.0569468,12.9351673,23.74403,28.1611633,12.6747522,-25.2535648,-73.612709,-111.448921,-120.416733,-95.2512207,-46.8221626,3.90805626,37.1517868,44.0121155,29.3195477,6.83029509,-9.41398907,-12.109623,-2.58577704,12.1491356,24.0865707,27.3807907,18.9457703,-2.14426923,-34.4630318,-72.805954,-107.268394,-125.225632,-116.808006,-81.3394318,-30.2889061,16.5020294,40.4754982,34.7149849,8.40610027,-18.205162,-26.0906906,-9.68623638,18.7895088,36.2815094,23.371994,-22.5350246,-83.7700577,-131.341995,-141.219482,-108.202477,-48.9638062,7.57172775,36.6457977,31.0003223,3.3591826,-22.9344368,-28.9755974,-11.7813139,14.4627752,27.6067047,11.2281742,-35.3888245,-96.4704285,-148.005707,-169.871811,-155.105072,-111.913353,-58.3914223,-13.5708857,10.4401503,11.9616785,-1.66501689,-18.7282143,-28.5626793,-25.7070656,-11.7174835,5.64156246,15.5411472,8.70681572,-18.0224762,-59.1644096,-101.684151,-129.873032,-132.204041,-106.94136,-63.4556389,-18.1753559,13.0703659,22.4670544,13.5017147,-1.61519611,-8.93065071,-0.258409649,22.8969822,51.0353127,72.8099442,81.9756546,81.0920258,79.8410721,88.9095993,112.93602,146.622543,176.441422,187.320435,170.909668,131.006943,83.0442581,47.5662918,40.8124428,67.1461563,117.242569,172.993042,216.555908,238.773239,242.560776,239.689011,243.075043,259.171906,284.831512,310.228607,325.733612,328.265991,323.104675,320.113129,326.96814,343.937103,363.735229,376.627991,377.393982,369.375671,362.611145,366.901733,384.158783,405.184326,413.528534,394.71051,345.581482,278.174652,215.366501,180.332718,185.35376,225.937378,283.290192,333.652588,359.485382,356.826263,335.478973,312.557159,303.137329,312.804626,335.467529,356.981323,362.392548,343.226227,301.577148,249.428284,203.730621,179.468033,183.60701,212.341095,252.623901,287.235809,301.248413,287.319366,247.914352,193.948944,140.756912,103.063774,90.5674744,105.106064,139.803741,180.346802,208.509399,207.707397,169.423615,98.1455917,11.9589453,-62.9434547,-102.801208,-97.6525726,-57.7078819,-10.4155884,11.6696596,-13.0807581,-83.638588,-175.585739,-252.535904,-284.170166,-261.392578,-200.395767,-133.461639,-91.6987915,-89.3522186,-118.196205,-154.548477,-174.208557,-166.394867,-138.881485,-112.082626,-106.294159,-129.84314,-174.696716,-221.267456,-248.883957,-245.747589,-213.34964,-164.042831,-114.230713,-77.3017044,-59.5251961,-59.7621727,-71.7876816,-87.357605,-98.7875977,-100.795631,-91.8036194,-74.6226044,-56.0020828,-44.5858421,-47.5628662,-67.2592163,-99.3341827,-133.703857,-158.058517,-162.577362,-143.87648,-106.568748,-61.8134842,-23.3602676,-2.47057319,-3.53208852,-22.119524,-46.594902,-63.0723,-61.9723854,-43.1907196,-16.9762135,0.618135095,-4.01526642,-34.2425766,-80.3305893,-123.633514,-145.942993,-138.872116,-107.82962,-68.2216797,-36.258709,-20.1167755,-16.936903,-17.2633247,-13.5458336,-6.59704065,-5.33976841,-19.8884563,-52.787899,-94.7386932,-128.245697,-137.241333,-116.565613,-75.1209793,-30.6637058,0.316542298,11.0897961,6.41538811,-2.84164548,-7.80485725,-6.59694862,-3.261729,-2.36021399,-4.15570498,-4.52256155,0.332781166,8.41157436,10.7911968,-3.20854735,-37.5865669,-84.0912704,-124.351135,-139.421143,-121.066689,-77.3500748,-28.4801235,4.72403955,12.3765516,-0.38536635,-19.1895294,-31.7627029,-36.6978798,-43.4219627,-63.4310341,-99.2057266,-139.133316,-162.779724,-153.628906,-110.890884,-52.0906944,-3.97329617,12.989398,-3.26285076,-35.48172,-58.2510643,-54.2466354,-25.3662243,8.30439663,21.0589752,-2.16266441,-55.8569908,-116.386772,-155.139847,-154.410767,-116.68808,-62.3182297,-17.5330048,-0.214945003,-11.5091095,-37.4086647,-58.4886436,-61.6173058,-47.0283203,-27.369051,-20.0119762,-37.2972755,-79.8720322,-136.109695,-187.308746,-215.771057,-212.017212,-178.268539,-127.162422,-76.5507584,-42.5477982,-33.4887466,-47.092762,-71.9877548,-93.0932846,-98.6974564,-86.1138077,-63.1717796,-44.5504684,-44.4321976,-68.9350281,-112.159142,-158.085114,-187.681351,-187.863602,-157.865265,-109.757652,-62.7714043,-34.2064514,-31.4696331,-49.2018852,-72.8648376,-86.8595428,-82.9525375,-64.6456604,-45.2221031,-40.459713,-59.7704849,-100.387077,-147.713791,-181.835724,-187.009888,-159.385895,-109.04158,-55.2859001,-17.5883045,-6.69413757,-20.3127995,-45.3519135,-65.2960205,-68.7919464,-55.0893517,-33.8140144,-19.539896,-24.1561089,-50.8528061,-92.4416046,-134.461807,-161.352707,-162.86235,-138.095444,-95.7743835,-50.7772408,-18.2921715,-7.75612926,-18.9601536,-42.1604347,-62.619709,-67.9978333,-55.2268448,-33.0758972,-18.2628708,-26.3100529,-61.7091713,-113.196938,-157.783646,-172.339462,-146.695206,-90.4872971,-28.9737282,10.5707769,14.2275429,-10.7877598,-41.1515121,-52.6284752,-36.1150665,-4.15517902,16.7672348,3.75922322,-46.2228241,-112.20134,-160.466522,-164.688202,-122.179977,-55.7434998,0.329161763,21.2116165,5.92327595,-24.136631,-41.2949715,-31.3694191,-3.64679265,15.7666693,2.75329351,-46.6995544,-111.624382,-158.119202,-160.512222,-117.581314,-53.0230751,0.0107962415,19.7683067,8.102355,-13.8743124,-23.0738773,-12.1226082,5.2139554,4.7859354,-28.6398716,-87.4331589,-142.948669,-162.723709,-131.774155,-63.5178413,7.43369007,46.2588806,39.0321274,0.175275698,-38.4210663,-49.126667,-26.6658287,9.17582035,27.5454216,7.54405022,-47.633461,-112.292908,-153.84462,-151.840057,-108.454269,-44.8439789,12.7665167,47.4768066,57.8737831,53.8895264,47.2888641,44.2844734,44.6934166,46.3170547,49.4430313,57.2007065,71.8046722,90.680397,106.734711,113.396095,110.561348,106.10228,110.635986,128.699203,153.018051,167.13031,155.807922,116.643562,64.4505768,24.4528427,17.8714581,49.0816841,102.904388,153.969513,181.982483,182.809723,168.385101,156.317062,157.136795,168.331238,178.888824,180.103027,173.760437,171.021896,182.665573,208.363937,233.931137,239.814194,215.519226,169.539658,126.751282,113.812157,141.865143,198.409683,254.421341,282.46283,273.821747,243.145248,217.476517,217.250961,242.273712,272.162933,280.70163,254.026505,200.197922,143.958954,110.828537,111.750793,138.484085,171.814407,195.556244,205.777023,209.071716,212.502548,214.256561,203.294876,168.863892,112.397125,51.5640259,11.4903097,7.87650394,33.7336998,60.2184601,52.9007721,-6.1116972,-104.684906,-205.390564,-266.310791,-265.079407,-211.029358,-138.060211,-83.4058533,-66.3551407,-80.272995,-101.736053,-109.024811,-96.5749969,-75.8966293,-63.7478371,-67.4771423,-78.9609909,-81.6344299,-65.0084991,-35.2527199,-13.1543131,-20.0594158,-61.4967155,-120.430222,-165.735825,-170.935532,-130.893936,-65.2629776,-6.2830739,20.9856606,12.980752,-12.6160755,-30.8844948,-27.4723244,-8.074296,6.51975441,-3.99951768,-44.084816,-97.533432,-136.364014,-137.461121,-96.3339157,-29.6397686,34.4668388,71.7031784,73.5017624,49.1502838,18.3527145,-0.362929821,1.34492636,19.2503319,40.5867043,51.2205696,42.2113037,13.3980856,-26.5902996,-63.4398575,-82.4403534,-74.5103226,-40.752861,6.93958378,50.5306091,74.3322296,73.1367416,55.0252914,36.3951607,31.494421,42.7625275,58.5293159,60.3561859,35.9248886,-10.858983,-59.7718391,-85.2114029,-71.7782516,-24.5108833,33.2525597,73.540535,80.4325256,59.0200462,30.7952137,18.5256634,30.6640568,55.6739502,70.0442429,54.6261177,8.39731216,-49.4793625,-90.6429291,-94.3728333,-59.5008965,-4.18221188,45.6072731,70.9491653,68.9091034,50.9086647,33.1571846,26.4234524,31.6428604,42.7848053,53.1219444,59.402916,61.2435684,57.6694183,45.2604828,20.7085571,-13.8033695,-47.3991623,-63.7741547,-50.4842186,-8.50346947,45.273468,85.9338837,95.0016479,72.2596054,36.4871635,13.5800142,19.2003193,47.4871864,73.9922791,71.7249451,30.1105175,-35.8932533,-93.2282486,-110.541771,-77.7465515,-12.5140429,50.7143517,82.1342621,74.4569016,45.7087784,25.4688206,34.038372,68.5477295,105.098183,115.149811,84.9225998,24.8849506,-36.6076851,-70.7706146,-65.1173019,-28.8071671,15.8029346,48.4728317,62.3532143,64.1359329,64.5144272,67.2812271,65.7917023,49.3934593,14.4963627,-28.8161297,-60.5438766,-63.0050812,-33.0420151,14.7870712,56.8316231,75.147049,68.2338791,50.1910629,38.9475479,42.1113815,50.8320274,46.4449959,15.439539,-37.987812,-91.2847443,-116.199562,-96.7650757,-40.5257301,24.9033794,68.1533508,72.8367233,46.5595932,14.5058746,2.09238052,18.2638245,50.2695885,72.896286,65.5693436,25.8874722,-28.958168,-73.0896835,-87.4120407,-69.5560455,-32.683712,4.65671587,29.8399334,41.076416,43.7756119,42.5828438,36.0458794,18.2235298,-14.2386951,-55.5459938,-90.5710297,-102.286903,-82.3188629,-37.4375725,12.8242302,46.4753609,51.0903244,30.2010441,0.311807513,-19.3301983,-17.817627,1.92708874,25.8589497,37.3370743,26.1406021,-6.80023003,-50.59692,-89.809845,-110.798492,-106.347397,-77.5537567,-33.2079124,12.8273077,45.8911781,55.7814751,41.3418503,11.9415569,-15.9640265,-26.634901,-13.6986723,15.2974749,41.8256149,46.0613708,18.2553158,-34.8589439,-92.7511749,-131.670563,-137.043442,-110.438637,-67.2094269,-26.7500801,-1.79095089,6.60484362,5.80748463,3.2573576,-0.575118661,-12.6584005,-40.9114304,-85.5086288,-134.579041,-168.139984,-168.57132,-131.333496,-69.0703354,-6.12728024,33.6365013,38.7892075,15.283637,-18.0700283,-40.5998764,-40.7955818,-21.43437,3.3203218,16.4375267,7.11544418,-24.13237,-66.2406311,-102.92382,-119.514565,-108.336754,-70.9598312,-17.1490345,38.7152138,82.5409088,105.301346,106.087135,92.0731812,75.0330429,65.6572113,68.3735809,79.5520477,90.388588,93.0496368,86.418335,77.6153412,77.8018646,94.3966904,124.49971,154.131699,164.678711,143.454666,92.3338852,28.9734077,-20.8456993,-36.0328674,-11.1791553,40.5177383,94.1998672,126.398216,126.953117,103.269333,74.7753983,60.9918976,70.0727081,94.1745529,113.977867,109.560814,71.5232544,6.46688843,-65.7310257,-121.018654,-141.793777,-123.948624,-77.5206299,-21.4139977,24.8137589,48.3719406,47.0942421,28.7911873,6.8873229,-5.75378799,-2.5071435,13.9548473,32.5812187,38.8510437,21.9669952,-18.7996235,-71.9781876,-117.812798,-137.105377,-120.932701,-76.0306778,-22.3691864,16.5188122,25.633173,6.34470272,-24.7629814,-45.8052292,-42.7943611,-18.3805714,9.30694294,17.4079113,-7.49089956,-60.2398109,-118.780182,-155.908829,-154.356735,-116.288521,-61.6205215,-16.2941933,2.33456445,-5.78559256,-25.5533485,-37.9320107,-32.884552,-15.8181467,-3.59840369,-12.8383856,-48.0024223,-96.915863,-136.621231,-146.133621,-118.491302,-65.0002213,-9.29254627,25.2424965,27.4524059,3.29056454,-28.7053699,-48.3273048,-44.7602615,-21.9099121,4.45512486,15.7817879,1.02556312,-37.1508446,-83.2743683,-116.468124,-120.6511,-92.523468,-43.3779335,6.28364229,36.8183708,39.1793709,19.1887035,-6.20022488,-18.9504032,-10.8742771,10.9468288,27.926281,21.3366394,-15.147316,-69.4923172,-116.300812,-130.621292,-102.706604,-44.6301079,15.839057,50.9607391,48.9771767,20.3668232,-9.72997475,-18.3095703,0.161580026,29.9070778,44.2711601,23.8919392,-29.1987419,-91.01474,-129.411667,-123.66378,-77.3069839,-15.9369383,28.6478939,37.7318115,16.0117569,-13.4364805,-25.8373966,-11.7484512,16.8572197,35.29142,23.5643215,-19.2742863,-73.4399261,-110.413864,-110.636719,-75.3306351,-25.0233078,13.7779121,24.7196007,10.1388111,-12.9124374,-25.6713943,-20.580862,-5.67252731,1.88432515,-11.8514748,-47.7290306,-92.3379822,-125.726173,-132.630524,-110.266968,-68.6413956,-24.3140907,7.90147638,20.654398,15.1600246,-1.28947639,-19.0193291,-29.1766434,-26.186964,-9.77526379,13.862072,33.0984383,35.1679955,12.735218,-30.6019382,-79.8210831,-114.624466,-119.663658,-93.0389709,-47.5808868,-3.61205626,22.5887508,27.3245068,19.500864,12.2990618,12.4755468,15.0482416,7.42758512,-19.7402458,-62.8770409,-104.460548,-122.408333,-104.148621,-55.8732109,-0.202989414,36.8721886,41.5146446,19.7798176,-7.66936541,-20.3835106,-12.4501896,3.51594377,5.6123085,-21.0321579,-72.0067825,-124.08387,-148.632889,-129.526199,-73.9159088,-8.77119064,34.772419,39.4119225,10.844635,-27.2591724,-48.8033066,-41.2976036,-12.5682745,15.3387337,20.4887848,-5.585639,-53.3330727,-101.274658,-128.148209,-123.608414,-91.9024277,-47.7702217,-8.17884731,15.1338387,19.0668869,8.2697649,-8.24666119,-21.0216331,-23.5491219,-14.8449497,-0.628034294,7.96759033,-1.12333024,-34.2432175,-86.3996735,-140.650482,-174.44072,-170.743149,-128.138229,-63.4594269,-4.31619215,25.1475906,17.273756,-15.2370214,-47.3646698,-57.2022018,-39.4715652,-8.74486732,9.73232174,-4.00388336,-51.7647285,-115.314468,-166.447906,-182.662201,-158.89566,-108.717171,-55.1976013,-17.8869438,-3.95833993,-7.97801971,-18.7447586,-27.4313431,-31.494566,-32.8460922,-33.3075333,-32.0098648,-27.1099911,-20.0053043,-17.5982246,-29.3413258,-60.0402908,-103.457779,-142.301865,-156.313492,-134.348602,-82.7297745,-23.6658287,16.3881474,21.7932167,-3.2016561,-37.4261436,-56.2612152,-47.2213097,-17.7080345,10.0500517,13.5847082,-15.1405439,-64.3869247,-109.859398,-129.539093,-116.420074,-81.1929321,-43.8382263,-20.4265728,-14.2156467,-16.6569405,-16.7395248,-11.2742167,-8.27539063,-20.7645187,-55.4137917,-104.45121,-147.299255,-161.78035,-137.946106,-85.3508148,-28.5538311,6.7767663,8.58003426,-15.3099537,-43.2228546,-54.1047783,-41.1149521,-15.7688913,-0.129860103,-12.115242,-53.2068977,-106.184364,-144.181595,-145.477417,-105.216293,-37.4586983,33.056179,84.1283569,106.601219,106.718956,100.039124,101.353256,116.725197,141.741592,165.988861,180.239166,181.7948,175.166458,168.380753,167.746628,174.460709,184.916122,194.102173,199.597122,203.437622,210.638031,225.368622,247.399918,271.371979,289.706818,297.55603,296.570862,294.64389,301.105927,319.89035,344.996521,361.799255,354.491882,315.986053,254.412766,191.632538,153.507538,156.705414,199.397339,261.511292,314.919281,338.095734,326.960022,295.693726,267.187103,258.914215,272.693237,294.31662,302.979309,284.548401,240.609299,188.05835,149.862961,142.765182,169.073792,216.729355,266.687622,302.676544,317.804321,315.224854,303.93338,293.19635,288.873718,292.697296,303.356506,317.58606,330.492889,335.868225,327.721497,303.242126,265.709961,225.06012,194.783844,186.143845,202.695648,238.311386,279.958923,313.636017,329.987152,326.530548,305.7789,271.230835,224.391403,164.929825,93.6127777,15.5568972,-58.9493752,-117.149971,-148.772934,-150.467255,-127.297333,-90.6403275,-53.7777443,-27.3852558,-16.6742458,-20.7592297,-33.8512192,-47.6138229,-54.1945343,-49.4473419,-35.4071846,-20.5984802,-17.0677681,-34.5228806,-74.0298767,-124.933159,-167.758041,-182.795151,-160.437363,-107.480331,-45.1213646,1.16271579,14.7475052,-3.39455247,-35.6737061,-58.4089355,-55.9709816,-30.1894035,0.734199762,13.3491182,-6.45715809,-54.2069206,-108.591446,-143.284897,-141.760574,-106.266663,-55.7344627,-14.1860914,3.05294085,-3.11663556,-18.6159573,-27.370306,-23.0525951,-13.5702906,-15.2645988,-40.5764503,-87.3755798,-137.35527,-165.253372,-153.673538,-104.374176,-38.6768913,13.83465,31.8576298,14.2078371,-20.3585072,-45.364418,-43.4210548,-17.1905842,12.4297895,19.9079895,-7.9856348,-62.6072769,-117.468842,-143.610809,-126.872795,-76.3151855,-18.5413094,18.4672546,21.7929726,0.00372456317,-24.2445927,-30.3102589,-13.7025528,11.0091724,20.3306255,-1.76109564,-52.0511589,-108.765961,-144.316025,-141.831039,-104.850616,-54.1816101,-14.4354839,0.617033541,-5.64890671,-18.2766991,-23.5278206,-19.5292263,-17.2323704,-31.2028198,-67.0559387,-114.795097,-153.211182,-162.728821,-138.072128,-92.0638123,-47.8522987,-24.7384968,-27.1164856,-43.8316154,-58.047348,-60.4759331,-56.5748062,-62.5738831,-93.0227814,-148.519196,-212.302399,-258.462891,-266.716339,-234.313004,-177.609131,-122.651848,-91.1241837,-90.4861755,-113.690399,-147.113266,-180.112915,-209.416916,-236.172928,-259.359589,-271.970367,-263.995239,-230.557861,-178.933594,-128.165314,-99.9117126,-105.624031,-138.513229,-176.358826,-194.350937,-180.355026,-142.914963,-106.573807,-97.058197,-125.382156,-180.701035,-236.267303,-264.669067,-252.93309,-208.546921,-153.464661,-110.65641,-91.8940735,-93.8493195,-103.656494,-109.036011,-105.812057,-98.3375549,-93.7165222,-94.916748,-98.1188583,-96.091629,-84.7825165,-67.976532,-56.3341103,-61.1646233,-86.9881744,-127.756836,-169.144211,-195.427887,-196.83757,-173.413773,-133.933563,-91.3705444,-57.7446861,-40.5887871,-41.5934868,-56.824398,-77.9358444,-94.4906616,-97.6430664,-84.4633255,-60.7657089,-39.9450035,-37.0186195,-60.1870422,-104.671921,-153.23761,-184.234985,-183.177856,-151.026962,-103.783188,-63.2128296,-44.2868805,-47.30476,-59.7862434,-66.7493744,-62.2234726,-53.8374519,-56.9905319,-82.4402924,-126.081802,-168.648926,-186.478867,-166.720932,-116.807968,-61.3502312,-27.8264637,-30.087141,-60.4636993,-95.8037872,-113.533577,-107.061867,-90.1297455,-87.0125122,-114.980827,-170.763824,-230.308014,-262.451782,-247.971085,-191.840042,-120.86203,-68.1706467,-54.3620567,-76.8873825,-113.795433,-138.761658,-137.538437,-115.696518,-93.5808563,-92.5530624,-121.573921,-172.148483,-223.811569,-255.809738,-257.548096,-232.196991,-192.744095,-154.22139,-127.123688,-114.992981,-115.808563,-124.743462,-136.148071,-144.446716,-145.069901,-136.302521,-121.347412,-108.597366,-108.554489,-128.061005,-164.947662,-206.847275,-235.895874,-237.415955,-207.844345,-157.162994,-104.153893,-67.04702,-54.8662872,-64.2277679,-82.925972,-97.5936966,-100.618874,-92.5246124,-79.2604218,-67.0366135,-58.4237595,-51.9671097,-44.8149185,-35.8364906,-26.7172012,-20.328537,-17.8183174,-16.7819519,-12.0004148,1.68203139,26.2900238,59.4974442,95.9887924,130.429031,160.137695,185.934814,210.903824,238.06601,268.412567,300.277557,330.136169,354.205902,370.029358,377.429504,378.554565,377.009186,376.329407,378.378723,382.481049,385.967346,386.106842,382.390411,377.534882,376.046906,380.743652,389.377258,394.115692,385.27243,357.860077,317.034149,278.244415,260.627808,276.514587,323.117523,382.076752,428.25174,443.337036,426.28714,393.822632,370.108429,371.576813,396.335999,425.121033,433.581085,408.336304,356.531128,302.538635,273.660797,283.832306,325.698486,376.007965,410.552673,418.698029,408.021851,396.423737,397.631561,410.485107,419.642761,407.296051,367.630707,313.615753,270.811432,261.83847,291.775879,344.428009,392.20459,413.164703,403.869659,379.517975,361.518402,361.28775,371.685608,372.244781,344.750549,288.33075,223.166489,179.398331,177.83284,214.914719,262.114014,280.831238,244.045883,151.649017,30.4053421,-80.9434052,-152.029007,-174.605652,-162.558365,-139.93306,-125.746544,-125.166267,-131.365219,-134.936234,-133.224594,-132.962891,-144.938339,-175.089188,-218.595459,-261.066162,-285.925873,-283.130859,-253.926193,-209.337921,-164.121155,-130.182373,-112.897041,-111.192726,-119.905151,-132.297943,-141.738495,-142.958755,-133.688812,-116.471062,-99.2106171,-92.9145126,-106.621933,-141.772629,-189.445908,-232.841141,-254.446732,-244.377884,-205.360809,-151.575836,-102.004547,-71.9059296,-66.7952271,-81.5348129,-104.20121,-122.130859,-127.124527,-117.974632,-100.110413,-83.1475067,-77.2641296,-89.1870193,-118.773811,-157.64653,-191.288971,-204.768814,-190.049866,-151.090973,-103.20549,-65.9663773,-52.9437256,-64.1546326,-86.1967545,-100.664711,-96.1262207,-76.1733704,-58.0123711,-61.8370323,-97.2768555,-155.504181,-212.390106,-241.264664,-227.723831,-177.536545,-113.000694,-60.287178,-35.7100296,-39.0325851,-56.952301,-73.3106308,-78.7778549,-74.0989838,-66.1331406,-61.0015373,-60.0629082,-61.4100838,-64.6801758,-74.0955658,-96.0929031,-132.588272,-175.199844,-206.064941,-206.578796,-169.330109,-105.190369,-39.7513695,-0.0320203751,0.832680523,-28.8181248,-64.5468063,-81.0923767,-67.8712387,-34.6963196,-4.07967806,4.60182953,-11.6534939,-37.7904205,-51.6677513,-40.1126938,-8.94077015,20.1412773,23.9131489,-6.28578997,-57.6626816,-103.058998,-117.494484,-93.3642273,-44.4721031,3.40681171,28.8417873,27.0563564,10.4421606,-2.31266212,-0.439299554,11.3117332,16.7291527,0.704406381,-38.6477203,-86.7751389,-120.619278,-122.370041,-90.0039139,-38.0103302,11.5980425,41.6960754,47.9699554,38.173687,24.6312218,16.0053215,13.832408,15.0201797,16.9029236,19.9965763,26.155529,34.1669235,37.3690567,26.5299625,-3.09020996,-45.5114479,-84.025589,-98.9333649,-79.0169601,-29.4768028,29.3480034,72.5033951,84.1558533,66.1582489,36.1027603,16.0576458,18.9825058,41.1517105,65.0127792,70.3889084,46.9831352,0.735884964,-49.3229866,-81.3407135,-81.8218613,-51.6740494,-4.57713032,40.4964066,68.1585007,72.5966339,58.6103897,38.1681328,24.5293751,26.3084736,43.4763069,66.7160263,80.7652969,71.0935898,31.5605755,-30.571701,-95.5545807,-138.778427,-142.168182,-103.61319,-38.9216728,25.529129,65.9690933,73.0367661,55.410347,33.0951576,24.3742599,34.3328667,51.9509888,57.4894485,35.5329514,-14.4086599,-76.2544022,-125.613518,-142.911499,-123.625275,-79.931572,-33.3889542,-3.39501762,1.93113315,-12.0941048,-31.6630039,-42.8460503,-38.574192,-21.0946712,0.30866152,14.2905331,12.5120687,-7.0112958,-38.9869537,-72.3676834,-94.0246429,-93.7925568,-69.2572632,-27.9637299,14.8354435,42.8023567,46.6952133,29.6154976,5.71092081,-7.77958632,-1.03344142,21.5938301,43.2121201,44.2270393,14.8852873,-37.1383934,-89.2441406,-115.646011,-101.721245,-52.4702797,10.0508709,58.8757935,76.661171,64.1069794,37.6335258,18.2400513,18.5947399,36.0307655,55.120327,57.603199,33.3657913,-13.8181038,-68.4087219,-111.022179,-127.284172,-113.153198,-75.0021896,-25.7206497,20.5002556,52.52528,64.9399414,59.079113,42.4423065,26.188961,20.7284603,30.6573143,51.5708771,71.2351227,75.602478,57.0783234,20.3289738,-18.4259739,-39.1737289,-29.0217247,10.0830612,61.7619324,103.955528,121.061531,112.222801,90.7489777,75.0971909,77.0713806,94.5823975,113.362022,116.369637,94.8957977,54.5136452,12.4396982,-11.7944527,-6.61632586,26.198061,73.4737701,117.952965,146.352951,153.990906,144.558868,126.544395,109.033371,98.8432617,99.2627487,109.629768,125.242477,138.052841,139.007935,122.057266,88.2345428,47.2187233,14.5200405,4.82513809,24.627676,68.2561111,119.880692,160.809341,178.322433,171.363205,150.152344,130.145905,123.699684,133.735718,152.346725,164.649643,155.821976,118.159409,55.3078423,-17.9715118,-80.6234283,-113.307083,-106.847015,-67.6281204,-16.9002113,16.9086552,10.4536438,-43.0715942,-129.295135,-218.136215,-277.525787,-288.693176,-254.865845,-198.478561,-148.395859,-124.496651,-128.546555,-146.422241,-159.701355,-158.833755,-149.302383,-146.93779,-165.779129,-206.825378,-255.40538,-289.130096,-291.321594,-261.173767,-214.088852,-172.155319,-151.15889,-152.575378,-165.369461,-175.699341,-177.394455,-175.854279,-182.836868,-206.073105,-241.289444,-272.58783,-281.379089,-258.160736,-209.358765,-154.595734,-115.934464,-105.764427,-120.708588,-144.922897,-160.190521,-156.209274,-134.88121,-106.702492,-82.4980087,-66.3683853,-54.3103828,-38.7621727,-15.2994928,13.4735346,39.5271606,55.2032051,58.980854,57.0565796,59.506485,73.5344696,98.3443375,125.175392,142.687546,144.36113,133.158096,120.286285,118.538719,134.103394,161.853668,187.22467,193.956573,173.479111,130.582718,81.9684296,48.2129211,43.4071617,68.0994415,109.398575,148.126785,168.988861,168.06012,153.475586,139.141235,135.352432,142.022522,148.699326,141.498077,112.847702,68.0500107,24.3028679,2.19236541,14.2171564,56.9694405,111.807739,154.125931,166.302429,147.066925,111.817871,83.4811325,78.9701538,99.0148392,127.393776,140.299026,120.665268,69.2225113,5.66998911,-41.1029091,-48.4996681,-12.7142277,48.9435349,107.365273,137.411072,131.168213,101.156326,71.7496719,63.9582672,82.581192,113.313026,131.466263,117.082649,67.4508057,-0.340456903,-58.2234154,-82.0667343,-64.0175705,-15.4499397,40.5030823,81.7864227,97.9245758,92.6424179,78.3579636,67.1730881,64.3945007,67.9807739,72.7966919,75.4344482,75.715683,74.2745361,69.1559067,55.3259659,28.5581493,-8.84121799,-45.3805008,-64.3032303,-53.0030975,-12.2561913,41.4537163,83.4547119,94.6826324,73.3475952,36.5185814,9.67922592,10.2214918,35.3902855,62.990345,65.2212677,27.3049774,-41.0859528,-109.48983,-143.799316,-126.467514,-67.0714874,3.53659296,51.8321075,61.1653252,39.934391,13.5668888,6.0626173,23.5229549,50.4906616,61.2075462,37.9383354,-16.0485649,-77.462944,-117.110466,-117.640472,-83.3028564,-35.7691383,0.483165711,13.0107203,6.69776344,-3.21680236,-4.522686,2.17612267,4.26664305,-12.3360138,-50.8370056,-98.6084061,-133.562302,-137.716599,-108.700821,-61.3271446,-18.2196674,4.02438593,3.76979041,-7.3488636,-14.9532576,-13.3972864,-9.88563442,-18.3596611,-47.668644,-92.6775818,-134.97702,-153.187119,-136.175125,-90.4230804,-36.6761665,1.91068017,12.4718523,-1.85880828,-26.11763,-43.9434967,-47.0478897,-37.9877129,-25.6746235,-18.0195084,-17.4121418,-21.7607365,-29.0962658,-40.9762688,-61.1821632,-90.4365997,-121.704254,-140.929291,-134.306641,-97.9771271,-43.310997,6.96937513,30.6971626,19.308672,-16.4110622,-52.2236481,-64.9794388,-47.0048637,-11.2191734,16.52631,13.3498764,-26.3457203,-87.045372,-141.084412,-164.690887,-151.103058,-112.895775,-72.6985168,-48.8195572,-45.1583748,-51.509922,-53.2628136,-43.3538475,-28.1392632,-23.2192516,-42.1460762,-85.7436676,-139.349518,-180.05719,-189.513504,-164.287491,-117.463661,-70.7327957,-42.1238823,-36.9461517,-47.1091576,-58.5331879,-61.4062309,-56.6402283,-54.6622734,-67.667366,-100.464325,-145.713043,-186.518387,-204.919388,-191.465256,-150.585327,-98.8910828,-57.3409195,-41.3075714,-53.5052032,-83.2088699,-112.09024,-123.803154,-112.606659,-86.6581421,-64.0678635,-63.3697777,-93.0811539,-145.892776,-201.012802,-234.028809,-229.412964,-188.925171,-131.008362,-81.1420135,-58.3508492,-65.543335,-89.334816,-109.47303,-112.146965,-98.962738,-85.9093246,-92.7998428,-129.681503,-188.756378,-247.078583,-278.67157,-268.887115,-222.44545,-160.494293,-108.687569,-83.5264206,-84.8478775,-98.208168,-104.810966,-92.4462891,-61.0546417,-20.5200539,16.7346268,43.0402298,58.3070297,67.5968552,76.178566,85.9656219,95.5712204,103.23587,109.82917,119.357925,136.531357,163.240433,196.610199,230.102783,256.958771,273.685577,281.398834,284.395874,287.178772,291.967255,298.114685,303.380249,305.842194,305.108215,302.287415,299.155151,297.313934,297.773163,300.748291,305.276398,308.683899,306.580963,294.174591,268.928986,233.365845,196.04985,169.337524,164.236435,184.71666,224.67897,269.731995,303.389465,314.713867,303.406586,279.577576,258.274719,251.668777,262.970062,285.089233,304.457672,307.815979,288.541168,249.677567,202.67511,162.797577,143.322815,150.740234,182.48941,227.856232,271.74762,300.226837,305.946991,291.259216,267.249908,248.509949,245.612457,258.959839,277.626953,284.614014,266.400055,221.794388,164.750412,118.666168,104.439835,128.492859,177.613525,224.092865,238.953659,206.36235,131.449646,37.3871231,-46.3923454,-98.0785904,-111.938812,-97.4749298,-71.1498032,-46.6914864,-30.0303974,-21.0577641,-19.4057293,-28.7707443,-55.7548332,-103.682777,-166.138168,-225.879913,-261.483826,-258.624115,-219.102142,-161.380692,-111.386665,-88.5974121,-95.791748,-118.903412,-137.190094,-137.323975,-122.339027,-109.502312,-118.249435,-155.851639,-210.220367,-254.974792,-264.204956,-228.110825,-159.854248,-89.1498795,-46.1338959,-44.9591599,-76.7264862,-115.74379,-135.173569,-122.710152,-87.1833267,-52.5839272,-43.4405403,-70.3064957,-123.653648,-179.264908,-211.547134,-206.953262,-170.153717,-120.124741,-79.0890198,-60.9203148,-65.3583145,-80.6302338,-92.2102356,-92.2078552,-83.9189911,-79.1356735,-90.0491409,-120.625572,-162.583893,-198.500778,-210.562988,-190.264816,-143.661346,-89.0722809,-48.1932487,-35.2415695,-49.9704208,-78.3875732,-100.816589,-102.864586,-83.2330551,-54.1096878,-34.1010895,-37.8553734,-68.233017,-115.158127,-161.254623,-190.556992,-195.26181,-177.280685,-144.865143,-107.406853,-71.8964233,-42.5050926,-22.0633316,-12.9430199,-15.8993502,-27.8254337,-41.0407143,-46.1003418,-37.413044,-18.1789131,-0.62829262,