Bandpass,0,0.47541,-49.62969,-152.8705,-215.8128,-233.3121,-218.3685,-193.3307,-177.3917,-177.5199,-187.4445,-194.338,-188.4161,-169.4029,-146.287,-131.1752,-131.5962,-146.1444,-165.9021,-180.2545,-183.1614,-176.0183,-165.7101,-159.6117,-160.9485,-167.375,-173.2602,-173.7843,-168.0247,-159.1647,-152.0445,-149.9137,-152.5593,-156.8302,-158.8849,-156.5315,-150.1658,-142.0035,-134.4446,-128.8173,-125.2428,-123.3899,-123.2652,-125.2921,-129.6557,-135.5479,-141.0968,-144.2165,-143.8557,-140.748,-137.0449,-134.9968,-135.5461,-137.7795,-139.6101,-139.2132,-136.2367,-131.9645,-128.378,-126.7973,-127.0623,-127.7831,-127.4312,-125.4611,-122.6559,-120.498,-120.0428,-121.1359,-122.5193,-122.7347,-121.1553,-118.4043,-115.883,-114.7615,-115.1651,-116.1207,-116.2742,-114.8441,-112.128,-109.2309,-107.2376,-106.4496,-106.2181,-105.4699,-103.5095,-100.5094,-97.35268,-94.9644,-93.64175,-92.87069,-91.73575,-89.61526,-86.64061,-83.60264,-81.39276,-80.40304,-80.30306,-80.33397,-79.85281,-78.73426,-77.33939,-76.1453,-75.35014,-74.78196,-74.15519,-73.42556,-72.91141,-73.04395,-73.93459,-75.1381,-75.85712,-75.48484,-74.07726,-72.31673,-70.90674,-69.77436,-67.71339,-62.87731,-53.96285,-41.38649,-27.63355,-16.39362,-10.85232,-12.08554,-18.50692,-26.72289,-33.29664,-36.38747,-36.33323,-34.93347,-34.00365,-34.18007,-34.71384,-34.27833,-32.12954,-28.75977,-25.5933,-23.96542,-24.14889,-25.13478,-25.34221,-23.75913,-20.7072,-17.68299,-16.37045,-17.49191,-20.28811,-22.97659,-23.88192,-22.47078,-19.61026,-16.89892,-15.55718,-15.63898,-16.09166,-15.59414,-13.57651,-10.71175,-8.546562,-8.529179,-11.08285,-15.33066,-19.61831,-22.46243,-23.29857,-22.5899,-21.30961,-20.22515,-19.48705,-18.75959,-17.70858,-16.4224,-15.42069,-15.2459,-15.96378,-16.98042,-17.35303,-16.40569,-14.22274,-11.66293,-9.86148,-9.540149,-10.58374,-12.15555,-13.26053,-13.37093,-12.69304,-11.92639,-11.70652,-12.14008,-12.75154,-12.86383,-12.12694,-10.80772,-9.633567,-9.29256,-9.943958,-11.07879,-11.83648,-11.57177,-10.29732,-8.711246,-7.788042,-8.196271,-9.903329,-12.20116,-14.11739,-14.94742,-14.59184,-13.52559,-12.4612,-11.93264,-12.04174,-12.48413,-12.78921,-12.60888,-11.89219,-10.87307,-9.914752,-9.313011,-9.154988,-9.288424,-9.401561,-9.18275,-8.505962,-7.57688,-6.968617,-7.505305,-10.00612,-14.97903,-22.39545,-31.65615,-41.76859,-51.64592,-60.3834,-67.39182,-72.38151,-75.28303,-76.22324,-75.58018,-74.0569,-72.6061,-72.14449,-73.13068,-75.24213,-77.41166,-78.30025,-77.02543,-73.73827,-69.68208,-66.60067,-65.78754,-67.29271,-69.79684,-71.29037,-70.22234,-66.47588,-61.56948,-57.90731,-57.45432,-60.55919,-65.61437,-69.77087,-70.3541,-66.21056,-58.27026,-49.04912,-41.37749,-37.06903,-36.2066,-37.34776,-38.42898,-37.80817,-34.9,-30.16995,-24.66384,-19.45728,-15.35817,-12.91377,-12.52098,-14.38206,-18.23092,-23.02736,-26.95935,-27.96721,-24.65889,-17.15124,-7.297986,1.964512,7.91195,9.311804,6.964898,3.167476,0.3701035,-0.1962992,0.8959563,1.855882,1.105285,-1.300254,-3.157534,-0.9093507,8.610219,26.40338,50.47564,76.4059,99.03899,114.4255,121.0999,120.1861,114.4811,107.1334,100.5826,96.11697,93.96705,93.61691,94.07565,94.09509,92.50488,88.77766,83.64178,79.34967,79.1857,86.21234,101.7388,124.3312,150.0123,173.7115,191.3043,201.1882,204.5886,204.4666,203.7237,203.7676,204.2167,203.7927,201.6794,198.4075,195.6652,195.2103,197.676,202.1243,206.6558,209.6593,210.7862,210.9276,211.1326,211.1899,208.8781,200.5499,182.8458,154.6234,117.9539,77.57735,39.08454,6.808629,-17.4747,-34.48692,-46.2858,-54.84016,-61.17948,-65.45937,-67.63193,-68.09694,-67.83738,-68.0069,-69.36504,-71.99661,-75.48099,-79.25723,-82.78898,-85.30602,-85.34812,-80.61459,-68.53818,-47.52486,-18.25383,15.78492,49.02839,75.67126,91.762,96.52555,92.30322,83.21926,73.36524,65.42699,60.30669,57.62587,56.55122,56.33029,56.32336,55.76287,53.67778,49.22435,42.2651,33.74474,25.4746,19.33695,16.34003,16.11529,17.19108,17.87909,17.21667,15.39207,13.44826,12.5505,13.36215,15.92696,20.02459,25.58713,32.72958,41.29684,50.29337,57.77452,61.52412,60.27082,54.69794,47.47214,42.0629,40.9054,43.98546,48.77601,51.68138,50.18798,44.42778,37.14591,32.04214,31.47307,34.9551,39.44941,41.31511,38.75743,33.2368,28.90361,30.30383,39.67193,55.39925,72.59611,85.44307,90.0013,85.92232,76.17664,65.09302,55.9319,49.39948,43.85604,36.92973,27.43972,16.42598,6.688125,1.166246,1.173396,5.543602,11.18937,14.7365,14.29787,10.40265,5.589407,2.925028,4.272618,9.241576,15.35351,19.30561,18.64946,13.0154,4.2834,-4.344852,-9.862228,-10.78196,-7.632976,-2.445322,2.427434,5.488202,6.665704,7.041715,7.986497,10.26471,13.6486,17.22993,20.17857,22.42233,24.78228,28.45659,34.16946,41.52999,49.02739,54.70515,57.13099,56.10262,52.68784,48.60164,45.31042,43.38937,42.46492,41.69706,40.43174,38.59999,36.6522,35.14072,34.28854,33.84808,33.31885,32.33811,30.94506,29.54142,28.59866,28.3459,28.66256,29.23416,29.82062,30.41537,31.17121,32.17307,33.26456,34.10294,34.41639,34.2676,34.07553,34.33016,35.18231,36.22779,36.72271,36.15384,34.80172,33.85086,34.85519,38.77983,45.18656,52.12033,56.88251,57.33582,53.02871,45.47915,37.42575,31.45274,28.75815,28.74066,29.58645,29.44675,27.48475,24.19492,20.89034,18.7627,18.1471,18.43665,18.63674,18.13381,17.1476,16.57382,17.35401,19.81284,23.40539,27.03159,29.68896,31.02943,31.46211,31.76512,32.49097,33.58042,34.44575,34.46156,33.52246,32.26618,31.76057,32.79377,35.16588,37.42565,37.27909,32.53963,22.1961,7.073233,-10.2702,-26.41738,-38.39169,-44.81664,-46.41025,-45.57545,-45.25129,-47.53392,-52.70732,-59.14244,-64.12096,-65.19105,-61.38829,-53.71867,-44.67218,-37.04044,-32.66994,-31.80428,-33.33698,-35.7818,-38.37775,-41.68762,-47.36698,-57.2614,-72.37328,-92.28165,-115.3089,-139.2747,-162.3584,-183.577,-202.6869,-219.6748,-234.2694,-245.8434,-253.7707,-258.0022,-259.4382,-259.7911,-260.9603,-264.1651,-269.3115,-274.8588,-278.2706,-276.8505,-268.6197,-252.9768,-230.9164,-204.8241,-177.9108,-153.4402,-133.9532,-120.7081,-113.5128,-111.0081,-111.2828,-112.5541,-113.6091,-113.8483,-113.0052,-110.8113,-106.8987,-101.0504,-93.62903,-85.84235,-79.54559,-76.57488,-77.91103,-83.15208,-90.63378,-98.16147,-103.9764,-107.4114,-108.9115,-109.4663,-109.8559,-110.1879,-109.9716,-108.5931,-105.8176,-101.9582,-97.63686,-93.37507,-89.36877,-85.61772,-82.28198,-79.90676,-79.20653,-80.47223,-82.96751,-84.83431,-83.74786,-78.06842,-67.84875,-55.0448,-42.70474,-33.53176,-28.62416,-27.11816,-26.92116,-26.05634,-23.78074,-20.80628,-18.55611,-18.0118,-18.95145,-20.08629,-19.97134,-18.04032,-15.04028,-12.56677,-12.03369,-13.79778,-17.04135,-20.47096,-23.30068,-25.78216,-28.86902,-33.24204,-38.42907,-42.73751,-44.18501,-41.88198,-36.93228,-32.14427,-30.59248,-33.83983,-40.92894,-48.80918,-53.99808,-54.47839,-50.68397,-45.00298,-40.16169,-37.56983,-36.68585,-35.75686,-33.35739,-29.60641,-26.18576,-25.12122,-27.18818,-31.11424,-34.24961,-34.36636,-31.39304,-27.80627,-27.18465,-31.63791,-39.6735,-45.98214,-43.57914,-27.34385,2.932679,41.73542,79.83685,108.1825,121.6872,121.0405,111.7184,100.9111,94.06914,92.85012,95.31048,97.89848,97.9056,94.96296,90.88483,88.19395,88.36091,90.82092,93.27058,92.9407,88.05391,78.66578,66.54178,54.27042,44.18634,37.62136,34.73746,34.82151,36.75605,39.40181,41.80821,43.311,43.60281,42.78944,41.36411,40.02853,39.38714,39.65427,40.54402,41.43855,41.7497,41.27402,40.32034,39.52724,39.47011,40.29829,41.62349,42.73531,43.0181,42.32608,41.09572,40.12312,40.13232,41.3783,43.49574,45.68336,47.10665,47.30852,46.403,44.97217,43.72976,43.15098,43.26828,43.73204,44.0854,44.078,43.82947,43.74503,44.23361,45.40398,46.9328,48.20185,48.63556,48.04673,46.76983,45.4923,44.86429,45.1194,45.93887,46.64677,46.6254,45.69542,44.21836,42.86015,42.17094,42.25811,42.77156,43.20957,43.32409,43.32236,43.69168,44.73076,46.10633,46.77273,45.38762,41.03584,33.83801,25.05646,16.59466,10.14606,6.482654,5.276156,5.516706,6.221193,6.949858,7.809941,8.992606,10.23467,10.65868,9.187826,5.305483,-0.3598708,-6.093689,-9.873156,-10.4568,-8.123345,-4.562355,-1.920955,-1.550376,-3.209772,-5.23751,-5.614494,-3.290564,1.034633,5.166375,6.575452,3.792971,-2.768184,-11.01812,-18.26933,-22.54439,-23.38287,-21.76253,-19.30051,-17.28916,-16.14273,-15.50517,-14.82141,-13.91353,-13.15971,-13.19053,-14.35357,-16.34531,-18.27654,-19.14585,-18.43409,-16.46437,-14.31627,-13.33438,-14.46658,-17.72379,-21.97553,-25.15329,-24.81006,-18.89638,-6.544253,11.39578,32.32027,52.48168,68.14041,76.87606,78.49492,75.07803,70.04593,66.6506,66.58984,69.45216,73.2448,75.69129,75.55269,73.24241,70.42854,68.92641,69.6007,71.92967,74.46236,75.81586,75.54887,74.34957,73.46122,73.75032,75.05393,76.21913,75.79312,72.89629,67.73289,61.44698,55.47459,50.83739,47.80563,46.05145,45.0859,44.60682,44.53827,44.81803,45.20497,45.34549,45.08434,44.76015,45.16535,47.08293,50.65153,55.02129,58.63591,60.08881,59.0643,56.7468,55.33535,56.85915,61.95321,69.33653,76.35953,80.3486,79.99602,76.00233,70.6344,66.46152,65.01802,66.10385,68.02618,68.53137,65.84097,59.25695,49.16403,36.63174,22.98637,9.593875,-2.189523,-11.10601,-16.28774,-17.66856,-16.22934,-13.79178,-12.32977,-13.10226,-16.08471,-20.0506,-23.27991,-24.49363,-23.48537,-21.1115,-18.70336,-17.30552,-17.20303,-17.97514,-18.95403,-19.72973,-20.36852,-21.24763,-22.67804,-24.59149,-26.47268,-27.51055,-26.81842,-23.59683,-17.2531,-7.581486,4.945683,18.92006,32.05402,41.76132,46.16272,45.04678,40.16915,34.53917,30.90537,30.22979,31.07775,30.43693,25.65324,16.43711,5.727087,-1.254463,0.5920827,13.5913,35.82722,61.69055,84.19211,97.85272,100.7321,94.6842,83.93673,72.91679,64.49646,59.39392,56.69957,54.91446,52.78226,49.57256,44.96959,38.95544,31.94621,25.05638,20.10654,19.07841,23.13012,31.709,42.4029,51.80653,57.06092,57.24169,53.76744,49.53429,47.22738,47.76084,49.73869,50.2292,46.38319,36.96057,22.94233,6.981939,-7.869633,-19.38239,-26.68163,-29.97929,-29.89887,-26.95681,-21.53737,-14.25633,-6.29928,0.6566374,5.002168,5.916631,3.777531,-0.03346454,-3.835961,-6.448751,-7.625091,-7.928442,-8.219288,-9.14493,-10.95358,-13.66861,-17.37866,-22.3269,-28.67701,-36.12754,-43.71722,-50.07088,-54.02204,-55.25054,-54.50724,-53.23139,-52.76171,-53.6154,-55.29256,-56.71842,-57.02883,-56.17705,-54.9666,-54.50075,-55.43687,-57.54548,-59.8642,-61.30888,-61.30214,-59.97386,-57.8224,-55.11923,-51.55436,-46.44056,-39.39453,-31.0035,-22.95013,-17.37369,-15.77615,-18.13238,-22.79695,-27.32876,-29.77549,-29.64355,-27.96834,-26.462,-26.31064,-27.41675,-28.58558,-28.51414,-26.89982,-24.88943,-24.51155,-27.42148,-33.76071,-41.88767,-49.18942,-53.48594,-54.15582,-52.29809,-49.86853,-48.38613,-48.07084,-47.94155,-46.74705,-44.03831,-40.61237,-38.01369,-37.45543,-38.93717,-41.20639,-42.62603,-42.34643,-40.94957,-40.07099,-41.21965,-44.60004,-48.79227,-51.5816,-51.4301,-48.60375,-45.13108,-43.53345,-45.11076,-48.9269,-52.23674,-52.18312,-47.72524,-40.55719,-34.35809,-32.77419,-37.33816,-46.597,-56.97862,-64.83923,-68.41812,-68.52275,-67.60863,-67.9334,-70.02969,-72.45428,-72.89367,-69.82278,-63.5713,-56.12093,-49.82779,-45.98141,-44.17492,-42.86163,-40.64043,-37.33116,-34.07983,-32.45255,-33.19489,-35.5722,-37.78008,-38.15338,-36.32483,-33.50873,-31.69012,-32.25958,-35.02765,-38.29439,-39.93679,-38.7829,-35.36411,-31.56038,-29.40955,-29.87952,-32.39693,-35.36828,-37.25846,-37.46817,-36.45318,-35.12518,-34.06861,-33.19677,-32.06712,-30.54726,-29.23517,-29.23861,-31.43401,-35.75816,-41.10374,-45.94952,-49.29905,-51.23947,-52.6936,-54.54284,-56.79254,-58.45899,-58.32871,-56.05248,-52.71847,-50.35545,-50.59873,-53.42227,-56.90367,-58.33755,-56.03446,-50.59096,-44.66802,-41.31316,-41.90809,-45.17321,-48.00875,-47.67295,-43.80532,-38.78645,-36.04059,-37.3803,-41.32806,-43.87156,-41.47435,-34.47168,-28.3629,-31.59163,-50.6,-84.91241,-125.4176,-157.4361,-167.3902,-149.6698,-109.8488,-62.3618,-23.71384,-4.838351,-6.605997,-20.65583,-34.72585,-39.27529,-31.77437,-16.67744,-1.705167,6.963193,7.737564,3.48937,-1.100654,-2.682024,-0.8791878,2.273533,4.308007,4.142746,2.557716,1.245173,1.362011,2.727478,4.190732,4.757464,4.526581,4.695494,6.644415,10.81473,16.23851,21.07102,23.73581,23.85201,22.29993,20.43495,19.07821,18.04464,16.53445,14.03714,11.00469,8.723952,8.438495,10.3574,13.32197,15.43714,15.27773,12.82932,9.47712,7.018136,6.36658,6.866604,6.719065,4.257381,-0.7990478,-6.989529,-11.92617,-13.74411,-12.21794,-8.797548,-5.556057,-3.7785,-3.157185,-2.126916,0.9088945,6.317375,12.80712,18.11903,20.36815,19.14541,15.67509,11.98078,9.658395,9.075533,9.467668,9.76174,9.479282,9.071649,9.493428,11.3755,14.42904,17.51653,19.32559,19.16388,17.32507,14.81489,12.68598,11.47907,11.14293,11.40833,12.24233,13.97283,16.95889,21.07961,25.49195,28.9333,30.4279,29.91877,28.35136,27.09404,27.05699,28.11005,29.21404,29.19294,27.61328,25.14893,23.14824,22.68924,23.7797,25.28656,25.68696,24.15656,21.25889,18.73105,18.45764,21.26776,26.32239,31.49196,34.50352,34.15864,30.90478,26.47194,22.86208,21.33635,21.97292,23.94476,26.21239,28.12736,29.59889,30.83457,31.95867,32.83278,33.19112,32.92197,32.22698,31.50239,31.03819,30.78893,30.4222,29.6253,28.43254,27.29783,26.82399,27.32568,28.55257,29.80124,30.36827,30.03571,29.23574,28.76041,29.20422,30.53277,32.09386,33.07948,33.11979,32.58396,32.35399,33.20091,35.19047,37.52975,38.99056,38.64897,36.46505,33.33276,30.56397,29.14398,29.2217,30.12751,30.86786,30.75375,29.77369,28.52764,27.82423,28.23106,29.82934,32.24208,34.82916,36.89394,37.83515,37.29794,35.38197,32.85478,31.18177,32.18203,37.30155,46.79299,59.26593,71.98038,81.87515,86.88234,86.85109,83.55673,79.77578,77.91398,78.94327,82.17683,85.9158,88.49639,89.07245,87.73565,85.02149,81.27517,76.35728,69.90812,61.9248,53.18164,45.131,39.28564,36.46391,36.38737,37.88509,39.56787,40.53127,40.66059,40.40472,40.25216,40.31606,40.31769,39.93204,39.19022,38.58755,38.78775,40.11749,42.23119,44.21346,45.09137,44.42648,42.60393,40.62172,39.52287,39.83754,41.37339,43.44563,45.34195,46.69094,47.5151,48.00406,48.24591,48.15366,47.6388,46.86217,46.30523,46.5516,47.89122,50.04359,52.2315,53.61225,53.78919,53.06337,52.22762,52.03339,52.69158,53.75177,54.45559,54.31355,53.49672,52.74934,52.87101,54.12022,55.96571,57.38311,57.51145,56.23495,54.29721,52.85745,52.79087,54.18491,56.35706,58.3444,59.50657,59.8238,59.7093,59.52183,59.17486,58.1635,55.99937,52.72701,49.09734,46.21237,44.84136,44.87423,45.32984,44.9668,43.12705,40.24255,37.63348,36.6853,37.92147,40.58949,43.05664,43.79563,42.33839,39.57374,37.1888,36.59702,38.04227,40.45298,42.14836,41.93686,39.89742,37.32985,35.8926,36.47342,38.5121,40.22282,39.60225,35.62481,28.89907,21.39017,15.36105,12.14542,11.44789,11.55664,10.3228,6.349414,-0.2560537,-7.938468,-14.48314,-18.08415,-18.14053,-15.42149,-11.59183,-8.401617,-6.96128,-7.422283,-9.134443,-11.12126,-12.59245,-13.24896,-13.28214,-13.13817,-13.2156,-13.66788,-14.38994,-15.15951,-15.81679,-16.36726,-16.95272,-17.73056,-18.75436,-19.94143,-21.14841,-22.28639,-23.3851,-24.541,-25.7862,-26.97307,-27.79367,-27.95022,-27.39389,-26.46628,-25.8167,-26.09917,-27.60474,-30.05321,-32.69059,-34.66914,-35.49523,-35.28891,-34.68949,-34.46755,-35.08121,-36.44585,-38.05436,-39.35722,-40.14094,-40.66042,-41.43769,-42.87471,-44.94903,-47.20024,-49.02023,-50.04565,-50.38373,-50.51126,-50.91768,-51.73312,-52.61005,-52.94732,-52.31867,-50.8238,-49.11538,-48.07177,-48.3128,-49.85659,-52.13236,-54.33357,-55.88311,-56.72535,-57.2818,-58.12594,-59.6044,-61.64431,-63.84381,-65.74885,-67.11405,-67.97212,-68.49648,-68.78378,-68.74339,-68.17349,-66.97179,-65.31083,-63.63483,-62.45131,-62.05157,-62.34052,-62.90025,-63.2522,-63.15543,-62.74687,-62.44712,-62.68864,-63.65377,-65.18063,-66.88663,-68.40903,-69.59621,-70.52942,-71.37352,-72.19051,-72.85783,-73.16199,-73.00539,-72.56773,-72.28442,-72.63023,-73.82632,-75.66999,-77.62193,-79.12018,-79.94735,-80.40977,-81.18063,-82.88112,-85.62515,-88.83769,-91.49962,-92.73318,-92.40779,-91.38348,-91.16399,-93.0739,-97.35464,-102.7083,-106.6203,-106.4088,-100.534,-89.50619,-75.88531,-63.30012,-54.92422,-52.14526,-54.08118,-58.1676,-61.49066,-62.16499,-60.06388,-56.59153,-53.70487,-52.79016,-54.01141,-56.42856,-58.72215,-60.02439,-60.35372,-60.44623,-61.16336,-62.89993,-65.36901,-67.85904,-69.73968,-70.84916,-71.51035,-72.20046,-73.1412,-74.12227,-74.68584,-74.53867,-73.87612,-73.36983,-73.79682,-75.54282,-78.31409,-81.2678,-83.47711,-84.45328,-84.38411,-83.95891,-83.89449,-84.48886,-85.48209,-86.28647,-86.42063,-85.83431,-84.93039,-84.274,-84.22208,-84.71655,-85.37296,-85.79075,-85.84386,-85.76717,-85.97627,-86.77061,-88.12191,-89.69143,-91.04255,-91.89691,-92.25499,-92.32502,-92.33401,-92.37284,-92.37971,-92.24415,-91.92008,-91.44572,-90.85213,-90.0516,-88.83091,-86.99064,-84.54247,-81.80957,-79.30157,-77.39776,-76.0294,-74.57441,-72.08731,-67.76163,-61.3824,-53.48595,-45.13683,-37.42816,-30.99409,-25.78802,-21.22922,-16.59445,-11.41843,-5.694469,0.1834991,5.647057,10.18772,13.4927,15.46886,16.21317,15.97406,15.09695,13.9159,12.59073,10.97039,8.610582,5.01659,0.02933815,-5.869375,-11.57896,-15.81463,-17.77227,-17.64279,-16.61135,-16.2489,-17.58084,-20.36048,-23.02089,-23.40891,-19.93693,-12.51009,-2.677416,7.112354,14.7498,19.50486,22.29162,25.03554,29.54238,36.53341,45.37415,54.5774,62.69413,69.00972,73.64343,77.06776,79.45946,80.38264,79.07382,75.15748,69.33073,63.50774,60.25068,61.71772,68.66922,80.06687,93.47176,106.0531,115.7039,121.7341,124.8824,126.6967,128.6609,131.4903,134.8964,137.8704,139.3064,138.6337,136.1757,133.0825,130.8619,130.7379,133.1058,137.3498,142.1141,145.9071,147.7604,147.621,146.2621,144.7771,143.9128,143.6261,143.102,141.2495,137.3735,131.6542,125.1394,119.2579,115.1212,113.0095,112.3162,111.9597,111.0043,109.143,106.7902,104.7954,103.9743,104.7481,107.0387,110.4053,114.2699,118.073,121.3004,123.4704,124.1767,123.2273,120.8033,117.4942,114.1208,111.4015,109.6296,108.5719,107.6526,106.3225,104.3826,102.0671,99.83302,98.02251,96.61867,95.28451,93.64109,91.59945,89.48753,87.86686,87.12385,87.11587,87.12013,86.17152,83.62822,79.64392,75.2626,72.04843,71.41919,74.01006,79.37081,86.1218,92.45617,96.74968,98.01324,96.05705,91.38557,84.93555,77.78404,70.90992,65.02289,60.4598,57.15627,54.71851,52.59378,50.29756,47.60817,44.63846,41.74206,39.30538,37.53484,36.35535,35.46942,34.53162,33.33682,31.90912,30.45135,29.19422,28.24064,27.49133,26.69289,25.5699,23.96899,21.94104,19.72372,17.63796,15.94469,14.72235,13.81411,12.87696,11.52638,9.538758,7.031799,4.535384,2.88377,2.930951,5.17922,9.480735,14.97032,20.30599,24.14823,25.68416,24.95208,22.8026,20.49845,19.13584,19.16634,20.25057,21.51145,22.04454,21.41143,19.856,18.13356,17.05811,17.0279,17.79895,18.63502,18.74935,17.7783,16.00766,14.20764,13.15715,13.13143,13.65761,13.70531,12.22888,8.766974,3.75065,-1.678392,-6.264578,-9.32993,-11.1661,-12.88553,-15.78883,-20.58706,-26.91524,-33.42516,-38.43242,-40.77169,-40.40929,-38.46824,-36.66746,-36.4826,-38.47527,-42.14447,-46.32398,-49.86672,-52.20216,-53.46323,-54.15377,-54.60907,-54.60973,-53.40729,-50.15219,-44.46779,-36.823,-28.47367,-20.99085,-15.62578,-12.84007,-12.2277,-12.82849,-13.6369,-14.03043,-13.92457,-13.63525,-13.58013,-14.01394,-14.92621,-16.11064,-17.3158,-18.35838,-19.14042,-19.59401,-19.63075,-19.16271,-18.19953,-16.95115,-15.84651,-15.41348,-16.05305,-17.81495,-20.3064,-22.81071,-24.58674,-25.22245,-24.86639,-24.21392,-24.23665,-25.77269,-29.17215,-34.16475,-40.00801,-45.82984,-50.97301,-55.17206,-58.48218,-61.04334,-62.85432,-63.72379,-63.44044,-62.05354,-60.05263,-58.28329,-57.58526,-58.33635,-60.16798,-62.06092,-62.81314,-61.66308,-58.71877,-54.94879,-51.71399,-50.08432,-50.31156,-51.74454,-53.22705,-53.74365,-52.94907,-51.29619,-49.7092,-49.01622,-49.47635,-50.66373,-51.74894,-51.9957,-51.17437,-49.66878,-48.23925,-47.59763,-48.0415,-49.32549,-50.81487,-51.80727,-51.84524,-50.87625,-49.21653,-47.37512,-45.83243,-44.86954,-44.49166,-44.45488,-44.3712,-43.86042,-42.7106,-40.99192,-39.08465,-37.58958,-37.15204,-38.24681,-41.01083,-45.18157,-50.15486,-55.13865,-59.34744,-62.19007,-63.41174,-63.16631,-61.98315,-60.6156,-59.77803,-59.85578,-60.70537,-61.66974,-61.84544,-60.50993,-57.50494,-53.36814,-49.11188,-45.75003,-43.81717,-43.15096,-43.05743,-42.7596,-41.85506,-40.50792,-39.26367,-38.62358,-38.6668,-38.97395,-38.90728,-38.05791,-36.54833,-34.97905,-34.03317,-34.0024,-34.55223,-34.90694,-34.34716,-32.70856,-30.54889,-28.85475,-28.45943,-29.52517,-31.41405,-33.02538,-33.39274,-32.18211,-29.8109,-27.1532,-25.04738,-23.91696,-23.69938,-24.0579,-24.67452,-25.40233,-26.20579,-26.99437,-27.53586,-27.55993,-26.98489,-26.07554,-25.36176,-25.31914,-26.00627,-26.9267,-27.25561,-26.33396,-24.12172,-21.30215,-18.93246,-17.83203,-18.08966,-19.00948,-19.54611,-18.96432,-17.30017,-15.33026,-14.06404,-14.08491,-15.16318,-16.38518,-16.71046,-15.5944,-13.28463,-10.61889,-8.479182,-7.268717,-6.741236,-6.263052,-5.297458,-3.767244,-2.060111,-0.7023396,0.04290142,0.3531187,0.6758873,1.34303,2.263119,2.934096,2.786288,1.624994,-0.1441135,-1.686199,-2.216443,-1.47931,0.08869257,1.634258,2.427585,2.323795,1.844888,1.829999,2.879879,4.953245,7.371744,9.226478,9.923484,9.526633,8.691519,8.249294,8.711772,10.00408,11.57248,12.77393,13.28702,13.28935,13.31195,13.88268,15.19321,16.98899,18.72865,19.89767,20.283,20.05928,19.66107,19.53493,19.91549,20.73001,21.65827,22.29542,22.33793,21.7154,20.62887,19.48365,18.73767,18.71452,19.45241,20.66694,21.86618,22.5838,22.62141,22.16345,21.68229,21.66457,22.30842,23.37845,24.32334,24.60926,24.07747,23.09928,22.41453,22.72829,24.29854,26.76305,29.3178,31.14108,31.80947,31.45538,30.58792,29.71143,29.00845,28.30157,27.312,26.018,24.83213,24.41971,25.22598,26.99643,28.62627,28.50787,25.25859,18.46285,9.024217,-1.091732,-9.624689,-14.92368,-16.55363,-15.3315,-12.82036,-10.57387,-9.513575,-9.705081,-10.56404,-11.30728,-11.37797,-10.64602,-9.346176,-7.860099,-6.503429,-5.42834,-4.65288,-4.14769,-3.897215,-3.89614,-4.100692,-4.392358,-4.593862,-4.536397,-4.137299,-3.439409,-2.590101,-1.771765,-1.125568,-0.7043292,-0.4721226,-0.3413117,-0.2220542,-0.06518365,0.1166793,0.2501503,0.2259166,-0.05756342,-0.6396396,-1.453038,-2.315814,-2.979217,-3.22609,-2.981711,-2.379664,-1.73403,-1.410254,-1.643977,-2.394754,-3.321328,-3.914092,-3.740618,-2.6934,-1.11011,0.3163876,0.8225612,-0.06555668,-2.268805,-5.132756,-7.684278,-9.06645,-8.946952,-7.69099,-6.189542,-5.408052,-5.871597,-7.35827,-8.980571,-9.63949,-8.627836,-6.060726,-2.880636,-0.4076717,0.3435441,-0.790893,-3.031589,-5.091279,-5.908477,-5.263049,-3.895138,-3.019199,-3.477355,-5.012602,-6.115358,-4.605741,1.296463,11.95902,25.93085,40.39739,52.29958,59.57074,61.87663,60.51667,57.58352,54.8638,53.06446,51.7333,49.83966,46.62083,42.18336,37.53273,34.04572,32.72969,33.6977,36.14555,38.80532,40.58853,41.05548,40.48198,39.54513,38.85947,38.64581,38.68984,38.56536,37.94167,36.78086,35.33102,33.96145,32.96804,32.46641,32.40195,32.63113,32.99142,33.32551,33.47982,33.32605,32.83057,32.12709,31.51935,31.36611,31.8805,32.9589,34.16351,34.90557,34.75235,33.6832,32.13613,30.78893,30.19472,30.4767,31.2694,31.95047,32.02404,31.42773,30.57107,30.08164,30.40747,31.51813,32.88553,33.75884,33.56973,32.24277,30.2337,28.29154,27.0904,26.932,27.65905,28.78818,29.75224,30.11186,29.65599,28.39446,26.51112,24.32952,22.29047,20.89296,20.55953,21.44991,23.31706,25.51904,27.22841,27.77118,26.92888,25.03896,22.82317,21.02473,20.04711,19.78328,19.72287,19.26413,18.04984,16.14349,13.9672,12.05745,10.79322,10.24571,10.20936,10.36608,10.46666,10.42796,10.31396,10.24461,10.30537,10.5114,10.82567,11.198,11.58674,11.9542,12.25801,12.4579,12.54074,12.53622,12.49691,12.44595,12.32932,12.02595,11.43375,10.58796,9.728245,9.235991,9.442657,10.40076,11.76155,12.86292,13.01906,11.86949,9.592074,6.840189,4.417643,2.863897,2.185071,1.893387,1.340114,0.1494694,-1.504996,-2.955961,-3.409358,-2.416324,-0.1764217,2.510659,4.626729,5.442746,4.874384,3.496313,2.217633,1.805449,2.513079,3.998835,5.549508,6.46308,6.378879,5.396014,3.95569,2.587419,1.670618,1.324021,1.442911,1.821029,2.267765,2.660974,2.936509,3.054383,2.98391,2.718505,2.298352,1.810003,1.352431,0.9875356,0.7099198,0.4562001,0.1462247,-0.2753218,-0.827983,-1.5175,-2.365086,-3.408301,-4.657409,-6.030615,-7.32267,-8.245762,-8.547694,-8.15113,-7.235759,-6.202642,-5.525592,-5.556123,-6.382535,-7.813084,-9.487466,-11.04908,-12.2824,-13.1493,-13.72263,-14.07844,-14.22469,-14.11029,-13.69763,-13.03638,-12.27512,-11.59699,-11.12077,-10.83806,-10.63734,-10.40731,-10.14776,-10.01219,-10.23569,-10.98243,-12.20046,-13.58093,-14.659,-15.01649,-14.47915,-13.20544,-11.61704,-10.2123,-9.357835,-9.160982,-9.47296,-10.00005,-10.4522,-10.6541,-10.57961,-10.31989,-10.02162,-9.833385,-9.870041,-10.19172,-10.78615,-11.56096,-12.35741,-12.99456,-13.33192,-13.31517,-12.97763,-12.39637,-11.6346,-10.71815,-9.67365,-8.602573,-7.728608,-7.356307,-7.731507,-8.872374,-10.47804,-12.0007,-12.87217,-12.77188,-11.78152,-10.32289,-8.904981,-7.834561,-7.075176,-6.357162,-5.469684,-4.531549,-4.026939,-4.531882,-6.271449,-8.795191,-11.0334,-11.78408,-10.40316,-7.295869,-3.872221,-1.905195,-2.597051,-5.864854,-10.28806,-13.81351,-14.88303,-13.37555,-10.82271,-9.729564,-12.32281,-19.37566,-29.73292,-40.78958,-49.67568,-54.52444,-55.19241,-53.10815,-50.40277,-48.83352,-49.06881,-50.64043,-52.48223,-53.66499,-53.89176,-53.51677,-53.17418,-53.30289,-53.88765,-54.53298,-54.77676,-54.39144,-53.48047,-52.32846,-51.15421,-49.96028,-48.59278,-46.96069,-45.23426,-43.8516,-43.30107,-43.79504,-45.06483,-46.42294,-47.09046,-46.61357,-45.12488,-43.28798,-41.95639,-41.72575,-42.62874,-44.12661,-45.38673,-45.68079,-44.70039,-42.64895,-40.10806,-37.7793,-36.24,-35.79488,-36.44391,-37.92052,-39.77231,-41.46653,-42.5344,-42.72898,-42.14475,-41.21711,-40.5631,-40.70525,-41.8085,-43.57067,-45.349,-46.4618,-46.50995,-45.53888,-43.95773,-42.28246,-40.86733,-39.79401,-38.96541,-38.31251,-37.94442,-38.11538,-39.02394,-40.59478,-42.41929,-43.93352,-44.73604,-44.83756,-44.65552,-44.72751,-45.33022,-46.26399,-46.98217,-47.01207,-46.38406,-45.7454,-45.99968,-47.62731,-50.09285,-51.76245,-50.49258,-44.66281,-34.11683,-20.47651,-6.598348,4.587289,11.27826,13.43297,12.54299,10.72103,9.636439,9.86722,10.95079,11.99507,12.40538,12.26978,12.20963,12.85735,14.35188,16.19579,17.56144,17.82983,17.00137,15.7112,14.84593,15.01163,16.18778,17.77047,18.9583,19.22536,18.59095,17.54216,16.68594,16.36733,16.48909,16.62168,16.30787,15.35806,13.95919,12.55251,11.57529,11.2308,11.41244,11.80134,12.05892,11.99796,11.64724,11.19981,10.89091,10.87741,11.16942,11.6364,12.07764,12.32495,12.33918,12.25422,12.33808,12.87391,14.00861,15.65044,17.48361,19.1106,20.24996,20.8709,21.17205,21.40756,21.67083,21.79496,21.46044,20.46748,18.99342,17.63503,17.15451,18.04055,20.14731,22.66541,24.49274,24.82872,23.64501,21.73621,20.28911,20.20363,21.56972,23.61529,25.1694,25.36277,24.14505,22.30446,20.98902,21.02787,22.46828,24.59614,26.39582,27.14226,26.75391,25.71663,24.67908,24.02055,23.68677,23.37606,22.90585,22.46678,22.55713,23.63514,25.73058,28.30644,30.49028,31.55191,31.32226,30.29049,29.31596,29.14313,30.02303,31.6579,33.46548,34.94964,35.925,36.46271,36.65311,36.40364,35.46009,33.65285,31.18741,28.72506,27.14331,27.07557,28.50769,30.70225,32.5303,33.03942,31.93633,29.71665,27.37753,25.90083,25.80894,27.01489,29.0004,31.15454,33.04858,34.51376,35.5429,36.16153,36.38486,36.28679,36.0817,36.09951,36.62222,37.67236,38.91454,39.77325,39.73328,38.64563,36.84642,34.99519,33.72559,33.3181,33.59444,34.08768,34.36575,34.28989,34.04986,33.96756,34.2272,34.72815,35.16533,35.27398,35.06285,34.85329,35.08476,36.00426,37.44508,38.85311,39.56251,39.16322,37.74942,35.89645,34.37981,33.79264,34.25825,35.38704,36.47544,36.83774,36.10712,34.37711,32.14574,30.09967,28.84288,28.67102,29.47607,30.81355,32.10711,32.90776,33.09431,32.91064,32.81773,33.22207,34.23547,35.6008,36.84157,37.54961,37.63731,37.38449,37.24521,37.528,38.163,38.72395,38.70425,37.87701,36.49303,35.16394,34.48998,34.66479,35.32604,35.77076,35.40957,34.16674,32.5556,31.36483,31.1463,31.8399,32.78879,33.14011,32.37441,30.61707,28.52944,26.86824,26.01838,25.82364,25.8204,25.68065,25.50744,25.71549,26.53407,27.47103,27.1766,23.92668,16.55198,5.301517,-7.910212,-20.11303,-28.50548,-31.67387,-30.16568,-26.11713,-22.15641,-20.18589,-20.67315,-22.75964,-25.01628,-26.34027,-26.47595,-25.93321,-25.46068,-25.47864,-25.84107,-26.032,-25.60587,-24.54188,-23.27494,-22.40805,-22.32696,-22.9881,-24.01146,-24.99029,-25.78497,-26.59274,-27.74677,-29.3967,-31.3006,-32.88325,-33.53727,-32.98004,-31.44153,-29.56583,-28.09377,-27.51428,-27.88883,-28.92902,-30.24952,-31.61982,-33.05575,-34.71194,-36.66401,-38.74474,-40.55128,-41.62995,-41.72687,-40.95055,-39.74087,-38.66081,-38.12337,-38.2094,-38.67993,-39.16169,-39.39442,-39.39313,-39.42076,-39.79629,-40.6518,-41.79717,-42.78494,-43.1501,-42.69144,-41.62244,-40.48757,-39.88188,-40.12605,-41.08917,-42.27045,-43.09743,-43.26669,-42.91951,-42.54973,-42.69389,-43.59885,-45.06767,-46.57255,-47.55893,-47.74443,-47.22712,-46.36081,-45.49654,-44.78368,-44.15944,-43.50974,-42.85471,-42.39679,-42.37582,-42.83627,-43.50335,-43.89837,-43.64854,-42.78765,-41.80776,-41.38072,-41.9023,-43.16079,-44.38917,-44.71652,-43.74324,-41.85667,-40.03558,-39.2361,-39.74989,-40.99351,-41.91534,-41.79443,-40.88613,-40.40849,-41.76471,-45.41303,-50.10918,-53.10387,-51.33329,-43.02456,-28.81577,-11.70334,4.216746,15.56534,21.07411,21.83178,20.32813,18.92419,18.66332,19.05605,18.83391,17.07613,13.939,10.54548,8.183682,7.41856,7.743264,7.99899,7.250187,5.491188,3.683699,3.091713,4.364576,6.995543,9.532942,10.42012,8.925241,5.567746,1.785592,-0.9194788,-1.800503,-1.144554,0.1085742,1.092461,1.566745,1.937951,2.783071,4.261001,5.860069,6.676757,6.034947,4.00604,1.456805,-0.4267984,-0.8312716,0.2292619,1.980538,3.414292,3.90753,3.52948,2.864212,2.514657,2.661445,2.983704,2.974856,2.392679,1.496194,0.8830725,1.045264,1.977066,3.138755,3.829395,3.713813,3.120739,2.870543,3.71295,5.744133,8.21235,9.885211,9.778792,7.795943,4.854819,2.40284,1.596971,2.646967,4.719637,6.453995,6.762313,5.429462,3.165794,1.116781,0.1643227,0.4558384,1.424994,2.243522,2.381009,1.911565,1.399442,1.47691,2.417037,3.976587,5.588367,6.745032,7.30516,7.526451,7.823695,8.435234,9.228075,9.769607,9.60993,8.587442,6.961879,5.301341,4.200899,4.007315,4.698746,5.962139,7.391048,8.67254,9.666505,10.36621,10.80294,10.97744,10.86114,10.44892,9.809186,9.085777,8.44463,7.999226,7.761461,7.643343,7.50555,7.222322,6.735233,6.078374,5.376005,4.816475,4.607506,4.916572,5.808668,7.202815,8.87377,10.50722,11.79451,12.52969,12.66701,12.31744,11.69205,11.02523,10.50916,10.25893,10.30218,10.58232,10.97036,11.29216,11.37977,11.13956,10.60747,9.953737,9.418476,9.202036,9.365489,9.803277,10.30927,10.69957,10.91581,11.04006,11.20942,11.48717,11.78343,11.88897,11.61311,10.93888,10.08685,9.428942,9.286978,9.730873,10.49933,11.10196,11.05072,10.09809,8.352248,6.216825,4.204293,2.733213,2.012327,2.042891,2.694053,3.774478,5.053241,6.245938,7.024408,7.094889,6.328324,4.864574,3.104619,1.561005,0.6314438,0.4218878,0.7294966,1.203517,1.587823,1.893024,2.383706,3.383837,5.024101,7.096405,9.117492,10.56999,11.17516,11.02779,10.51418,10.06962,9.936332,10.07445,10.27351,10.37462,10.43688,10.72487,11.51768,12.87154,14.50788,15.92174,16.65883,16.58861,15.99221,15.39637,15.24667,15.62158,16.17248,16.33394,15.68015,14.20781,12.36973,10.83512,10.12101,10.31648,11.05852,11.76352,11.96391,11.54902,10.77922,10.09273,9.843801,10.13854,10.848,11.75431,12.70447,13.65976,14.62214,15.52078,16.17142,16.3656,16.03683,15.38294,14.83031,14.83319,15.61662,17.021,18.56051,19.67016,20.00401,19.60161,18.83189,18.15545,17.85905,17.92655,18.11296,18.15632,17.9723,17.70879,17.62879,17.91808,18.54814,19.28253,19.80205,19.85463,19.32607,18.21578,16.57581,14.50237,12.20709,10.0971,8.745661,8.687495,10.11122,12.63928,15.38809,17.3541,17.94803,17.35115,16.41941,16.10788,16.71061,17.38346,16.32543,11.63411,2.433589,-10.35161,-24.07525,-35.36112,-41.5532,-41.88872,-37.7795,-32.04965,-27.54808,-25.8683,-26.82563,-28.89347,-30.26805,-29.91586,-28.02989,-25.71494,-24.18336,-23.99605,-24.79658,-25.64237,-25.66368,-24.61231,-22.97249,-21.6133,-21.24092,-22.0031,-23.46408,-24.91435,-25.78185,-25.89043,-25.44325,-24.8078,-24.27956,-23.97718,-23.89105,-23.99405,-24.29566,-24.79967,-25.42337,-25.9801,-26.2718,-26.24035,-26.05322,-26.03181,-26.4425,-27.27968,-28.20073,-28.68137,-28.3138,-27.06521,-25.32724,-23.72119,-22.77576,-22.67719,-23.23325,-24.05053,-24.78518,-25.30079,-25.64608,-25.91425,-26.11985,-26.20045,-26.13605,-26.06249,-26.24976,-26.92164,-28.0317,-29.18283,-29.79864,-29.47992,-28.32121,-26.95018,-26.21179,-26.65926,-28.17021,-29.95724,-31.00784,-30.70516,-29.2426,-27.55427,-26.77787,-27.57093,-29.70109,-32.16973,-33.79476,-33.89533,-32.64947,-30.92866,-29.72663,-29.56649,-30.2452,-31.05037,-31.2641,-30.60198,-29.31238,-27.91629,-26.8152,-26.06774,-25.48225,-24.91492,-24.50283,-24.61095,-25.50148,-26.97851,-28.31454,-28.59197,-27.28335,-24.68444,-21.86163,-20.07974,-20.03832,-21.41525,-23.05664,-23.74282,-23.05531,-21.75572,-21.35865,-23.08946,-26.84612,-30.85124,-32.30559,-28.76425,-19.49832,-6.062925,8.280065,20.00551,26.87577,28.79503,27.56903,25.77915,25.43055,27.09077,29.89727,32.29868,33.03151,31.7752,29.20594,26.52686,24.82328,24.60147,25.68786,27.43724,29.05798,29.8838,29.52574,27.93381,25.40984,22.5688,20.20237,19.02583,19.38354,21.05863,23.32952,25.28689,26.27153,26.19389,25.54486,25.08461,25.38934,26.52174,28.02099,29.20311,29.57693,29.11802,28.24283,27.52265,27.33745,27.68743,28.26579,28.70975,28.84665,28.76838,28.70479,28.8096,29.02373,29.11264,28.84523,28.17342,27.27988,26.46225,25.94177,25.73733,25.69745,25.65503,25.58047,25.60655,25.89855,26.46527,27.06425,27.2994,26.87071,25.81783,24.57859,23.79706,23.97286,25.16319,26.92648,28.55158,29.4433,29.42896,28.80367,28.09442,27.69837,27.62617,27.51401,26.88943,25.51726,23.60155,21.70757,20.44798,20.11942,20.51321,21.01508,20.94431,19.93759,18.16522,16.25791,14.98872,14.87801,15.92887,17.61962,19.14801,19.79491,19.2301,17.61909,15.49813,13.49566,12.04281,11.21427,10.76243,10.31325,9.607392,8.654966,7.719869,7.145524,7.126433,7.560937,8.080301,8.245534,7.80228,6.840104,5.756226,5.034662,4.96977,5.500674,6.262768,6.826387,6.974094,6.836977,6.7963,7.206858,8.121722,9.205724,9.913373,9.832926,8.983568,7.864069,7.199963,7.522471,8.828857,10.53456,11.76294,11.81171,10.53394,8.414449,6.305727,4.981703,4.763641,5.418716,6.358943,6.997002,7.040894,6.570834,5.892329,5.291061,4.858636,4.486109,4.001462,3.333939,2.587028,1.974827,1.679501,1.732593,2.002695,2.288291,2.446526,2.469668,2.46708,2.578975,2.890216,3.403434,4.075176,4.871873,5.789467,6.815114,7.865041,8.75744,9.261928,9.212116,8.616475,7.692922,6.792885,6.246228,6.20665,6.579472,7.066245,7.300087,7.003489,6.098141,4.73032,3.214456,1.927504,1.189256,1.162339,1.791258,2.803799,3.782779,4.301462,4.081631,3.110955,1.662756,0.1954958,-0.8271507,-1.1164,-0.6551458,0.3258956,1.469679,2.443107,3.047349,3.255707,3.190297,3.068545,3.141329,3.621537,4.596931,5.946615,7.311984,8.178935,8.078188,6.829738,4.692818,2.300872,0.3705106,-0.6833172,-0.9992086,-1.210341,-2.066448,-3.936257,-6.495599,-8.82653,-9.91416,-9.267303,-7.280219,-5.078908,-3.898738,-4.344886,-5.987024,-7.563712,-7.706801,-5.764339,-2.220955,1.558378,4.122581,4.787011,4.017334,3.094132,3.252466,4.822205,6.9077,7.82011,6.022722,1.032902,-6.248609,-13.96558,-20.22931,-24.00054,-25.44571,-25.62059,-25.73872,-26.48718,-27.7826,-29.03423,-29.67483,-29.57614,-29.09608,-28.77351,-28.92487,-29.43214,-29.85835,-29.7852,-29.12614,-28.19765,-27.51765,-27.48441,-28.16195,-29.30212,-30.56135,-31.73561,-32.84557,-34.02264,-35.31189,-36.5522,-37.44429,-37.76168,-37.5454,-37.13486,-36.99042,-37.42021,-38.38129,-39.48687,-40.20755,-40.13842,-39.17262,-37.50803,-35.5156,-33.58434,-32.02037,-31.01504,-30.62811,-30.73961,-31.00669,-30.91086,-29.96253,-28.0117,-25.48444,-23.33516,-22.63171,-23.92421,-26.74526,-29.58593,-30.46933,-27.89201,-21.64991,-13.07719,-4.521296,1.694104,4.27543,3.406875,0.4403919,-2.937907,-5.549069,-7.102206,-7.974329,-8.638066,-9.188493,-9.301895,-8.624997,-7.267347,-5.987158,-5.870443,-7.668975,-11.22532,-15.39172,-18.55099,-19.46026,-17.92105,-14.87518,-11.87217,-10.23047,-10.38389,-11.76741,-13.25394,-13.83396,-13.12256,-11.43628,-9.474647,-7.869564,-6.890754,-6.437996,-6.235694,-6.039124,-5.712999,-5.192149,-4.439956,-3.499686,-2.607502,-2.225155,-2.867578,-4.753848,-7.494674,-10.08273,-11.30271,-10.39432,-7.579942,-4.082975,-1.542313,-1.120744,-2.840712,-5.590299,-7.841294,-8.660277,-8.368257,-8.390159,-10.33734,-14.87317,-21.08913,-26.84006,-29.89333,-29.22489,-25.6651,-21.47442,-19.07221,-19.66629,-22.59972,-25.79409,-27.00511,-25.12672,-20.77028,-15.81528,-12.26175,-11.11905,-11.99195,-13.54969,-14.49566,-14.36471,-13.63586,-13.13468,-13.18271,-13.11508,-11.53225,-7.154287,0.2653829,9.562007,18.58751,25.21325,28.32818,28.26513,26.44923,24.52459,23.49949,23.39688,23.53925,23.2127,22.23937,21.09818,20.55487,21.08241,22.48033,23.95058,24.59019,23.98928,22.55869,21.37025,21.58319,23.76569,27.48103,31.36479,33.66711,33.00457,28.97193,22.3471,14.80272,8.263536,4.184248,3.046774,4.270583,6.555673,8.492366,9.163876,8.475853,7.079445,5.946866,5.828073,6.869024,8.578798,10.14189,10.8806,10.60063,9.629683,8.553784,7.83375,7.551907,7.440434,7.15111,6.566301,5.925414,5.669694,6.110418,7.149373,8.260584,8.767519,8.24812,6.80391,5.010816,3.57298,2.900805,2.889638,3.043402,2.858759,2.206092,1.443489,1.175185,1.812533,3.234801,4.79365,5.679115,5.419657,4.189224,2.708678,1.791599,1.820659,2.495076,3.018136,2.609434,1.01074,-1.345962,-3.618737,-5.100784,-5.666416,-5.816375,-6.286251,-7.478568,-9.111696,-10.34862,-10.35464,-8.931271,-6.7899,-5.22812,-5.344176,-7.23935,-9.717402,-10.73082,-8.397591,-2.05972,7.206801,16.94398,24.37952,27.67439,26.7151,23.06417,19.12513,16.97896,17.49265,20.10986,23.35525,25.71383,26.39285,25.59895,24.25566,23.40093,23.62532,24.84249,26.45404,27.74938,28.28127,28.02196,27.26437,26.38501,25.63832,25.09071,24.69229,24.39182,24.19316,24.119,24.12446,24.04841,23.65831,22.77124,21.37355,19.65729,17.93951,16.51478,15.52663,14.93292,14.57408,14.28601,13.9787,13.63494,13.24939,12.77225,12.1184,11.24357,10.23137,9.311338,8.769259,8.786663,9.307907,10.02842,10.53173,10.50407,9.902011,8.968827,8.086534,7.553711,7.427548,7.525939,7.583751,7.455911,7.229694,7.170122,7.532933,8.370459,9.462649,10.42623,10.93696,10.92639,10.62632,10.42881,10.6482,11.32782,12.20957,12.88142,13.01129,12.53266,11.68038,10.87007,10.49774,10.77068,11.64434,12.87145,14.11481,15.06059,15.49584,15.34549,14.68099,13.70384,12.69392,11.91828,11.52337,11.46205,11.50919,11.37617,10.87474,10.03767,9.117032,8.451416,8.276447,8.594748,9.188711,9.767762,10.15184,10.36666,10.58418,10.94857,11.41196,11.70138,11.45445,10.44363,8.744489,6.735481,4.923597,3.705436,3.209673,3.30743,3.758305,4.3701,5.053277,5.743413,6.279155,6.369423,5.722256,4.276685,2.373047,0.7036996,0.01345578,0.6931434,2.509985,4.664951,6.181355,6.421354,5.432068,3.911859,2.807774,2.779552,3.841711,5.387779,6.562871,6.746962,5.858339,4.316385,2.726591,1.515081,0.748833,0.2298593,-0.2421469,-0.6537416,-0.7749784,-0.3697928,0.5411381,1.576004,2.149263,1.812458,0.5624079,-1.093205,-2.376907,-2.65982,-1.814625,-0.2955309,1.099474,1.645023,1.050984,-0.4173264,-2.102036,-3.287206,-3.522306,-2.788353,-1.463536,-0.1439168,0.5820814,0.3244383,-0.9941599,-3.112271,-5.496662,-7.501461,-8.592608,-8.566014,-7.659085,-6.477415,-5.741666,-5.959949,-7.190857,-9.024584,-10.79627,-11.91287,-12.11234,-11.52131,-10.50725,-9.442706,-8.54094,-7.849145,-7.36351,-7.140348,-7.29342,-7.869101,-8.705702,-9.416817,-9.557156,-8.89146,-7.58439,-6.159639,-5.21854,-5.078478,-5.567537,-6.124954,-6.159602,-5.438752,-4.24491,-3.1824,-2.753745,-2.992168,-3.417554,-3.376803,-2.563183,-1.36948,-0.8086076,-2.002565,-5.522866,-10.98029,-17.12853,-22.44057,-25.83167,-27.11423,-26.94242,-26.31151,-25.94396,-25.93366,-25.84014,-25.12319,-23.6056,-21.65241,-19.96306,-19.13022,-19.26821,-19.95502,-20.51535,-20.45246,-19.74447,-18.8255,-18.27747,-18.44466,-19.21667,-20.10603,-20.55646,-20.27779,-19.40819,-18.42416,-17.87571,-18.11538,-19.16561,-20.76569,-22.53057,-24.11255,-25.28908,-25.97258,-26.18836,-26.06425,-25.83098,-25.80024,-26.28481,-27.47472,-29.32787,-31.54593,-33.6683,-35.24843,-36.02703,-36.01683,-35.46312,-34.71838,-34.09739,-33.78719,-33.82919,-34.16057,-34.66569,-35.21057,-35.65896,-35.88136,-35.77667,-35.29848,-34.48095,-33.44275,-32.3685,-31.4717,-30.9418,-30.88292,-31.25328,-31.83098,-32.24345,-32.08265,-31.08593,-29.30418,-27.15243,-25.27771,-24.27313,-24.3752,-25.31984,-26.46399,-27.12746,-26.9642,-26.1338,-25.15154,-24.50536,-24.2895,-24.11795,-23.40596,-21.85529,-19.80305,-18.14899,-17.82756,-19.10991,-21.18879,-22.37346,-20.87947,-15.80961,-7.761883,1.320466,9.02028,13.5717,14.6194,13.20413,11.02651,9.460678,8.908229,8.839262,8.413482,7.216277,5.603084,4.438603,4.44281,5.62452,7.215644,8.169455,7.889058,6.683918,5.625285,5.873535,7.908818,11.17295,14.36699,16.22153,16.25035,15.00753,13.69587,13.39132,14.38868,16.08014,17.42061,17.65035,16.7965,15.62977,15.12908,15.8185,17.41516,19.00629,19.62209,18.82514,16.94679,14.84459,13.36901,12.88846,13.15672,13.55904,13.53582,12.898,11.86053,10.83039,10.13737,9.894877,10.04577,10.49636,11.19074,12.05612,12.88868,13.3256,12.99357,11.77695,10.01893,8.469213,7.940663,8.845317,10.89253,13.1664,14.57751,14.44539,12.87421,10.69331,8.998652,8.565749,9.477373,11.16406,12.79987,13.78346,14.00984,13.79539,13.5517,13.45673,13.34941,12.9012,11.92603,10.59495,9.39804,8.868057,9.24519,10.29739,11.41368,11.91237,11.38678,9.895237,7.913162,6.100713,5.029817,5.005391,6.033718,7.900017,10.27687,12.80363,15.12967,16.94803,18.04302,18.34281,17.94406,17.08105,16.04659,15.10471,14.4371,14.13927,14.24357,14.73064,15.51396,16.41656,17.18328,17.55329,17.37289,16.68419,15.72888,14.84679,14.32377,14.27148,14.61075,15.15714,15.74551,16.30604,16.84722,17.37311,17.81053,18.01529,17.85799,17.32474,16.5469,15.72287,14.97851,14.26753,13.39764,12.17936,10.60362,8.917734,7.529132,6.782733,6.752445,7.191767,7.688363,7.931885,7.918493,7.950745,8.422372,9.525191,11.07543,12.58597,13.55015,13.76077,13.45642,13.19384,13.51844,14.63772,16.29707,17.92971,18.97682,19.17274,18.6265,17.67095,16.6117,15.55714,14.44508,13.22564,12.04385,11.25792,11.25045,12.14372,13.61701,14.97728,15.47317,14.68285,12.74311,10.27881,8.071044,6.663667,6.141492,6.199282,6.434486,6.657103,7.007924,7.812759,9.278914,11.25191,13.21027,14.52149,14.80279,14.15794,13.12813,12.38178,12.32916,12.90538,13.65388,14.05375,13.87445,13.32168,12.87457,12.91833,13.41951,13.87765,13.6119,12.22403,9.942807,7.60872,6.268019,6.591138,8.457784,10.97161,12.91947,13.42314,12.40616,10.60248,9.102305,8.71199,9.51254,10.87779,11.92288,12.08739,11.47648,10.7459,10.61798,11.35707,12.56028,13.40762,13.20543,11.85481,9.92221,8.256777,7.415084,7.296374,7.257714,6.645456,5.368428,4.075704,3.745011,4.897495,6.956956,8.245957,6.744167,1.240538,-7.792253,-18.17173,-26.92381,-31.67942,-31.77675,-28.45057,-24.02571,-20.61003,-19.06451,-18.82397,-18.59365,-17.40913,-15.34683,-13.44339,-12.92089,-14.27488,-16.85896,-19.25002,-20.14803,-19.20523,-17.23074,-15.63906,-15.51526,-16.9213,-18.89738,-20.13867,-19.88181,-18.39886,-16.77964,-16.16126,-16.94225,-18.5174,-19.70775,-19.58861,-18.14624,-16.31694,-15.3771,-16.09677,-18.21991,-20.61635,-22.0011,-21.74535,-20.25434,-18.68463,-18.20866,-19.31228,-21.56643,-23.97493,-25.62559,-26.19761,-26.0171,-25.6865,-25.59851,-25.69583,-25.62412,-25.12541,-24.34254,-23.78478,-23.96679,-24.98852,-26.37699,-27.3329,-27.23038,-26.03419,-24.34695,-23.04487,-22.74817,-23.47197,-24.67716,-25.66063,-26.00273,-25.76781,-25.34759,-25.10017,-25.06884,-24.98999,-24.56694,-23.77981,-22.97232,-22.6316,-23.01759,-23.93007,-24.81158,-25.13852,-24.82437,-24.3238,-24.32722,-25.23388,-26.77679,-28.10162,-28.29923,-27.06686,-25.0394,-23.51584,-23.68332,-25.78975,-28.78642,-30.7073,-29.61974,-24.63407,-16.41759,-6.943301,1.375454,6.691216,8.374439,7.05572,4.152704,1.208267,-0.6266694,-0.8068604,0.6485746,3.302658,6.445302,9.236343,10.90365,11.00434,9.649129,7.529802,5.657272,4.889961,5.492936,6.994369,8.450541,8.986218,8.292986,6.786997,5.329888,4.693971,5.109835,6.175582,7.16707,7.528187,7.212568,6.657782,6.428037,6.782146,7.467115,7.877865,7.470658,6.148287,4.353589,2.808807,2.072061,2.201652,2.74537,3.056336,2.728657,1.874401,1.071234,1.019075,2.118526,4.220324,6.681143,8.677841,9.59768,9.300286,8.141351,6.779984,5.887505,5.891022,6.840893,8.422533,10.08591,11.24375,11.48013,10.70661,9.20555,7.527926,6.271801,5.829642,6.22666,7.137889,8.082706,8.693046,8.907231,8.980285,9.309804,10.18455,11.60601,13.28055,14.77311,15.71734,15.95802,15.5593,14.70926,13.60684,12.41178,11.26854,10.34929,9.846239,9.888921,10.43351,11.21022,11.78853,11.74431,10.84588,9.156557,7.003573,4.842649,3.099925,2.068588,1.884606,2.547719,3.939425,5.820075,7.832719,9.559134,10.64092,10.92078,10.52126,9.80114,9.197182,9.034975,9.410532,10.19941,11.16463,12.07811,12.77834,13.15359,13.1067,12.56911,11.57518,10.33146,9.186863,8.469353,8.265941,8.303553,8.054541,7.056254,5.263923,3.194007,1.715034,1.565315,2.878999,5.035687,6.968563,7.772831,7.241982,5.979907,4.995605,5.028523,6.044521,7.248081,7.619461,6.628578,4.638629,2.705727,1.883525,2.491341,3.856236,4.739489,4.197969,2.313788,0.2788222,-0.2784089,1.666941,5.784229,10.429,13.49654,13.59317,10.82241,6.713821,3.346792,2.206923,3.449676,5.968443,8.155507,8.843238,7.857109,5.915001,4.041053,2.936255,2.702011,3.01074,3.497317,4.029409,4.667789,5.408943,5.987975,5.966553,5.082175,3.591976,2.300052,2.165965,3.706886,6.59514,9.761087,11.98467,12.61814,11.96906,11.08098,11.04565,12.29749,14.35799,16.19514,16.94703,16.51229,15.60514,15.24011,16.00797,17.64079,19.16585,19.53849,18.31939,15.93896,13.38295,11.53556,10.64068,10.2443,9.629511,8.408013,6.834074,5.618768,5.39411,6.229128,7.559239,8.581411,8.82156,8.451449,8.115662,8.397037,9.327012,10.32612,10.64498,9.992299,8.865456,8.289319,9.091717,11.21268,13.5713,14.66247,13.54348,10.55786,7.268145,5.569941,6.520255,9.641944,13.19112,15.25198,14.96573,13.07351,11.3823,11.46279,13.41888,15.56357,15.28276,10.60891,1.548345,-9.675876,-19.65766,-25.53635,-26.41922,-23.69469,-20.10449,-18.17566,-18.94579,-21.67184,-24.57797,-26.07442,-25.66934,-24.06456,-22.50014,-21.86377,-22.17661,-22.73857,-22.75551,-21.96088,-20.80091,-20.08749,-20.39905,-21.66541,-23.21735,-24.24122,-24.30703,-23.60647,-22.75714,-22.33946,-22.50175,-22.9034,-23.01109,-22.51648,-21.57046,-20.67375,-20.31551,-20.62517,-21.28351,-21.74817,-21.62149,-20.89998,-19.93467,-19.14902,-18.73033,-18.52378,-18.20264,-17.58131,-16.82591,-16.39086,-16.70447,-17.81869,-19.27777,-20.32151,-20.31463,-19.13082,-17.24141,-15.44529,-14.41079,-14.32062,-14.8413,-15.4191,-15.69177,-15.72922,-15.94169,-16.72466,-18.09565,-19.59367,-20.53431,-20.47213,-19.56248,-18.55862,-18.4085,-19.67074,-22.10998,-24.74048,-26.32559,-26.05959,-24.03812,-21.2311,-18.9671,-18.21785,-19.09521,-20.84608,-22.33367,-22.71281,-21.89553,-20.53818,-19.57808,-19.61297,-20.51684,-21.52471,-21.73675,-20.7193,-18.81851,-16.97059,-16.09927,-16.4549,-17.30356,-17.18608,-14.64438,-9.031624,-0.9644191,7.842858,15.2894,19.78271,20.86775,19.29441,16.53372,14.03066,12.58987,12.17829,12.17917,11.89351,10.98443,9.638749,8.405181,7.851425,8.255148,9.487731,11.11502,12.61946,13.6046,13.89111,13.49712,12.56565,11.30431,9.964889,8.835455,8.201744,8.26032,9.014435,10.21824,11.42577,12.14876,12.06926,11.21186,9.988994,9.08595,9.218914,10.85665,14.0145,18.20248,22.55544,26.10022,28.0655,28.12062,26.4528,23.65869,20.5015,17.63487,15.40904,13.82341,12.62532,11.48277,10.14507,8.526517,6.707558,4.885727,3.320024,2.283959,2.012934,2.628093,4.048816,5.946178,7.800589,9.078796,9.468221,9.041117,8.231137,7.601116,7.511226,7.882547,8.218278,7.900729,6.606,4.581593,2.589631,1.513547,1.837854,3.311564,5.019313,5.846303,5.085434,2.837604,-0.03132383,-2.352789,-3.268541,-2.643237,-1.05679,0.5845026,1.55836,1.649064,1.120349,0.4127111,-0.1932329,-0.7118012,-1.318125,-2.080052,-2.787494,-3.034255,-2.512004,-1.308983,0.02128078,0.7094461,0.2087622,-1.447663,-3.606949,-5.31856,-5.83728,-5.012395,-3.341838,-1.675634,-0.7612715,-0.8971956,-1.868988,-3.152024,-4.211916,-4.710155,-4.529995,-3.683037,-2.229869,-0.3031616,1.801455,3.59242,4.514813,4.230498,2.88749,1.173426,0.05618805,0.307585,2.072242,4.749122,7.286015,8.739451,8.778555,7.833386,6.794993,6.446071,6.970495,7.842066,8.165263,7.262016,5.147024,2.597582,0.7639701,0.5387583,2.044749,4.531895,6.741957,7.540195,6.47608,3.985387,1.149619,-0.841028,-1.234727,-0.00841594,2.212368,4.524327,6.194387,6.956083,7.029414,6.889866,6.941882,7.287873,7.719895,7.930998,7.814943,7.664247,8.12361,9.887395,13.28172,17.95872,22.89606,26.74869,28.40782,27.49645,24.54384,20.73921,17.38146,15.30802,14.58803,14.62185,14.56096,13.79613,12.2448,10.30766,8.56703,7.440426,7.001328,7.045718,7.312122,7.674924,8.169107,8.8474,9.601725,10.11391,10.00593,9.107531,7.655419,6.262571,5.639512,6.215989,7.890171,10.06646,11.96753,13.0357,13.18633,12.76828,12.27662,12.0146,11.9275,11.71056,11.10425,10.16655,9.320024,9.124208,9.907008,11.4941,13.22927,14.30441,14.22389,13.13286,11.80068,11.2422,12.16599,14.54847,17.57664,20.01278,20.80674,19.64509,17.14192,14.55185,13.12942,13.44051,14.97932,16.30349,15.65783,11.80823,4.691267,-4.445979,-13.5043,-20.39042,-23.87582,-24.05006,-22.16333,-19.9508,-18.78986,-19.11295,-20.3525,-21.40761,-21.34599,-19.95098,-17.82378,-16.01126,-15.39362,-16.18689,-17.8338,-19.33095,-19.79651,-18.96076,-17.31557,-15.85477,-15.54956,-16.83686,-19.37432,-22.17557,-24.05498,-24.16821,-22.40848,-19.48115,-16.62461,-15.09319,-15.61503,-18.0607,-21.47499,-24.47487,-25.85351,-25.11753,-22.70271,-19.75438,-17.57053,-16.98621,-18.01626,-19.93828,-21.75768,-22.78079,-22.96177,-22.82774,-23.04606,-23.91968,-25.13616,-25.94136,-25.62703,-24.02163,-21.66231,-19.52627,-18.47855,-18.7774,-19.93682,-21.02745,-21.2168,-20.21723,-18.38302,-16.43287,-15.0066,-14.34847,-14.28754,-14.47652,-14.67919,-14.89749,-15.27527,-15.89521,-16.65727,-17.34567,-17.82297,-18.1715,-18.6367,-19.38732,-20.27907,-20.839,-20.54458,-19.23797,-17.37387,-15.86956,-15.58752,-16.76037,-18.75732,-20.40688,-20.71938,-19.5515,-17.74251,-16.56124,-16.76788,-17.89439,-18.26721,-15.86232,-9.535474,0.1083564,10.78167,19.54448,24.24273,24.53529,21.9255,18.80655,17.11198,17.3726,18.69483,19.58895,19.05949,17.25059,15.27477,14.39987,15.17672,17.08689,18.91593,19.56354,18.73192,17.0449,15.55837,15.03251,15.47112,16.22293,16.53082,16.11357,15.35729,14.9918,15.49924,16.69479,17.79235,17.92273,16.74413,14.71713,12.84022,12.01834,12.48956,13.69834,14.69895,14.81217,14.08317,13.22611,13.08923,14.00328,15.4615,16.36656,15.7085,13.25409,9.813269,6.907469,6.024932,7.884446,12.10271,17.40796,22.23389,25.35336,26.25276,25.14347,22.71979,19.85114,17.35365,15.85462,15.69493,16.82833,18.76342,20.64327,21.51796,20.73692,18.2764,14.80102,11.38955,9.042803,8.234148,8.744783,9.863411,10.81564,11.16079,10.93046,10.46,10.05834,9.752703,9.275335,8.284787,6.654194,4.619958,2.685015,1.338435,0.7763042,0.803301,0.9741578,0.8793002,0.3917055,-0.27324,-0.7096047,-0.5781521,0.191718,1.366379,2.53852,3.326203,3.519139,3.104292,2.191834,0.9185967,-0.5971736,-2.232204,-3.808893,-5.083758,-5.807794,-5.832332,-5.195073,-4.122947,-2.938984,-1.919754,-1.182049,-0.66155,-0.1908991,0.3738998,1.054106,1.732568,2.223469,2.377351,2.152925,1.612646,0.8523027,-0.07751409,-1.192477,-2.511287,-3.946392,-5.234622,-5.986852,-5.868979,-4.833317,-3.257088,-1.867486,-1.438024,-2.385775,-4.487042,-6.902487,-8.547544,-8.64428,-7.159535,-4.863369,-2.941288,-2.34891,-3.268248,-4.990041,-6.31159,-6.23495,-4.559946,-2.011061,0.1888393,1.051235,0.4172354,-0.9529741,-1.859367,-1.418158,0.3752117,2.631486,4.116452,4.021992,2.474492,0.457849,-0.8014668,-0.6006812,0.8066572,2.382736,2.967985,2.009284,-0.1098185,-2.340225,-3.656703,-3.715782,-3.059036,-2.736713,-3.602402,-5.737659,-8.37766,-10.38211,-10.94635,-10.10089,-8.686276,-7.831456,-8.26937,-9.917285,-11.96519,-13.3914,-13.56597,-12.56997,-11.06084,-9.81142,-9.242174,-9.245209,-9.382908,-9.292607,-9.001305,-8.93058,-9.591825,-11.18191,-13.35903,-15.35969,-16.39759,-16.10576,-14.75437,-13.11435,-12.04906,-12.07207,-13.1174,-14.63329,-15.92027,-16.50361,-16.3305,-15.70437,-15.03074,-14.55339,-14.2475,-13.92318,-13.45129,-12.94178,-12.73447,-13.18418,-14.36672,-15.90131,-17.03802,-17.0072,-15.45858,-12.73636,-9.802012,-7.805745,-7.51612,-8.922947,-11.24886,-13.37889,-14.46779,-14.37172,-13.64796,-13.13423,-13.38742,-14.35917,-15.53505,-16.44906,-17.20975,-18.63117,-21.80285,-27.31836,-34.65902,-42.19588,-47.90334,-50.42391,-49.83303,-47.59293,-45.66937,-45.32698,-46.37327,-47.37513,-46.75804,-44.09041,-40.67545,-38.9384,-40.87661,-46.47707,-53.15031,-56.68062,-53.29899,-41.76487,-24.25489,-5.496555,9.42436,17.40131,18.54175,15.70971,12.76642,12.59408,16.00673,22.01065,29.018,36.08361,43.34471,51.47387,60.66767,69.99217,77.6201,81.84102,82.14297,79.60287,76.25964,73.84586,72.69241,71.52919,68.32006,61.60083,51.47238,39.6352,28.48023,19.85345,14.28418,11.11127,9.322545,8.45133,8.877095,11.32841,15.97741,21.82063,26.86166,29.05873,27.45981,22.78443,17.045,12.4148,10.0354,9.498684,9.303251,7.965838,5.060684,1.527302,-0.9288521,-0.9335988,1.671329,5.710035,9.369867,11.25157,11.11153,9.862779,8.888839,9.14456,10.61555,12.43625,13.52877,13.3089,12.00251,10.40967,9.323044,9.015611,9.134033,9.036408,8.311949,7.111236,6.059904,5.820029,6.602362,7.963238,9.033069,9.039154,7.796395,5.855982,4.212007,3.735721,4.667984,6.466126,8.090253,8.56347,7.486188,5.222629,2.665787,0.7261536,-0.1614307,-0.2377109,-0.2214118,-0.8360601,-2.337962,-4.320406,-5.912407,-6.264781,-5.047596,-2.670463,-0.08939584,1.699064,2.192024,1.634235,0.8432267,0.7064194,1.648603,3.387805,5.125565,6.052606,5.85649,4.914185,4.049459,4.007389,4.979271,6.479774,7.655199,7.826138,6.919569,5.516267,4.488524,4.462363,5.445176,6.843593,7.84086,7.878126,6.936719,5.471232,4.083747,3.188783,2.891382,3.116205,3.827253,5.115094,7.050486,9.415709,11.56408,12.602,11.85857,9.369186,6.02136,3.191123,2.021644,2.761365,4.587691,6.064843,5.985936,4.085777,1.16948,-1.440257,-2.797184,-2.995595,-3.164,-4.768699,-8.651448,-14.40697,-20.50596,-25.10176,-27.04313,-26.48574,-24.74934,-23.53098,-23.96502,-26.08184,-28.93976,-31.28016,-32.25639,-31.79522,-30.43293,-28.81679,-27.25603,-25.62173,-23.61681,-21.17216,-18.65069,-16.69199,-15.79987,-15.95533,-16.52719,-16.54984,-15.20576,-12.23003,-8.023195,-3.448533,0.5363815,3.211663,4.269976,3.841101,2.440882,0.891578,0.1840849,1.224551,4.47789,9.650376,15.62475,20.79134,23.70533,23.77195,21.57793,18.63882,16.65031,16.63304,18.44942,20.96668,22.7642,22.9589,21.65751,19.78221,18.4088,18.05634,18.3822,18.46345,17.46328,15.23795,12.48737,10.35442,9.732056,10.71799,12.5517,14.05676,14.30104,13.07418,10.92075,8.758371,7.352594,6.969722,7.372171,8.086728,8.720105,9.116137,9.303396,9.341788,9.231645,8.9626,8.637489,8.527263,8.958883,10.08069,11.66924,13.14515,13.83374,13.32965,11.73666,9.616562,7.672173,6.367594,5.734862,5.487288,5.342013,5.299769,5.651838,6.676657,8.225787,9.511893,9.315154,6.562819,0.9783589,-6.587509,-14.37957,-20.44064,-23.44318,-23.22213,-20.74737,-17.58597,-15.17103,-14.25974,-14.81898,-16.30647,-18.10747,-19.84625,-21.42607,-22.85273,-24.03116,-24.70911,-24.61333,-23.67032,-22.13884,-20.54227,-19.42583,-19.08254,-19.41159,-19.99137,-20.31828,-20.06783,-19.23543,-18.09632,-17.02781,-16.31155,-16.01756,-16.01387,-16.06608,-15.95469,-15.54346,-14.78051,-13.6524,-12.13599,-10.18272,-7.747869,-4.852331,-1.648583,1.543342,4.260521,5.996277,6.358683,5.235923,2.893551,-0.06255795,-2.871704,-4.892656,-5.847948,-5.91655,-5.618462,-5.538219,-6.024014,-7.015001,-8.086283,-8.683514,-8.418539,-7.271128,-5.597472,-3.958192,-2.866489,-2.588764,-3.080007,-4.054693,-5.128594,-5.952691,-6.295269,-6.074212,-5.363238,-4.384124,-3.469381,-2.973238,-3.13548,-3.950027,-5.117593,-6.137658,-6.524232,-6.0485,-4.879183,-3.531934,-2.640723,-2.664473,-3.681794,-5.37853,-7.225434,-8.740523,-9.693135,-10.15215,-10.37793,-10.6413,-11.07856,-11.64979,-12.19641,-12.54014,-12.5626,-12.23659,-11.62125,-10.8426,-10.06633,-9.448665,-9.054242,-8.767748,-8.25911,-7.068098,-4.813837,-1.447972,2.593256,6.463735,9.225382,10.27849,9.681234,8.163091,6.789053,6.428743,7.3049,8.870628,10.08833,9.965145,8.05486,4.661559,0.6519658,-2.997298,-5.65243,-7.234333,-8.106749,-8.753314,-9.464285,-10.21901,-10.80387,-11.04795,-10.99476,-10.88781,-10.98773,-11.35835,-11.78075,-11.86627,-11.3011,-10.06507,-8.47755,-7.034001,-6.130662,-5.845597,-5.910253,-5.88755,-5.446273,-4.566591,-3.555301,-2.866511,-2.83633,-3.486525,-4.506625,-5.421278,-5.845713,-5.691265,-5.214251,-4.88742,-5.162727,-6.242306,-7.965823,-9.862521,-11.34544,-11.96141,-11.59104,-10.51328,-9.303641,-8.604692,-8.860556,-10.12788,-12.04227,-13.95912,-15.20496,-15.33277,-14.2725,-12.32285,-10.0046,-7.856987,-6.271736,-5.424933,-5.305205,-5.792548,-6.727493,-7.940638,-9.249623,-10.45513,-11.36243,-11.82775,-11.80485,-11.36268,-10.66156,-9.90432,-9.285586,-8.961186,-9.034478,-9.547283,-10.46488,-11.66321,-12.9388,-14.05452,-14.81071,-15.10588,-14.95153,-14.43195,-13.63956,-12.63484,-11.46055,-10.19589,-8.993979,-8.05118,-7.506814,-7.336556,-7.331609,-7.211496,-6.82277,-6.288508,-5.972568,-6.222076,-7.011047,-7.717595,-7.23611,-4.453741,1.115648,8.888238,17.25625,24.17769,28.05734,28.47608,26.37862,23.60595,22.01151,22.62246,25.26945,28.8368,31.94366,33.65054,33.82161,33.01041,32.02034,31.45135,31.48675,31.97608,32.67064,33.39893,34.06715,34.53765,34.54604,33.7813,32.10936,29.77665,27.41344,25.77159,25.33565,26.04025,27.29532,28.31633,28.56573,28.02928,27.16169,26.55424,26.55526,27.09853,27.83722,28.46194,28.95887,29.61282,30.75454,32.44771,34.35488,35.90025,36.61952,36.45146,35.75065,35.00891,34.48465,34.01856,33.18519,31.68557,29.68599,27.83623,26.90442,27.25681,28.5419,29.83027,30.15309,29.10213,27.0868,25.05843,23.87096,23.70642,23.96613,23.7173,22.4006,20.30471,18.45135,17.93415,19.13743,21.37934,23.26056,23.53377,21.93995,19.44907,17.70566,18.00291,20.42991,23.74792,26.09537,26.09417,23.66465,20.04852,17.04038,15.93474,16.85809,18.88431,20.80576,21.9986,22.78194,24.0231,26.27694,29.07444,30.90012,29.94256,25.18852,17.17431,7.900152,-0.08545962,-4.917979,-6.26558,-5.333126,-4.066894,-4.058442,-5.778673,-8.52591,-11.02422,-12.24668,-11.96571,-10.76276,-9.57962,-9.146215,-9.628998,-10.65283,-11.60392,-11.98547,-11.62749,-10.69173,-9.543176,-8.597265,-8.203279,-8.559253,-9.637004,-11.13774,-12.54006,-13.28113,-13.02541,-11.87474,-10.35998,-9.162876,-8.692361,-8.771666,-8.663834,-7.477395,-4.744443,-0.8266313,3.128269,5.699343,5.909701,3.742131,0.1547764,-3.415726,-5.779883,-6.544863,-6.202422,-5.750103,-6.099922,-7.618105,-10.01793,-12.59659,-14.61875,-15.61322,-15.46268,-14.32474,-12.50949,-10.41118,-8.486671,-7.204129,-6.902963,-7.60504,-8.908257,-10.08686,-10.4075,-9.514419,-7.658316,-5.609725,-4.280009,-4.256221,-5.518817,-7.502428,-9.450359,-10.83711,-11.6021,-12.07301,-12.65833,-13.52992,-14.50138,-15.16443,-15.16919,-14.45342,-13.27864,-12.07273,-11.20503,-10.843,-10.95666,-11.42127,-12.10828,-12.8913,-13.59229,-13.95767,-13.74124,-12.87065,-11.58103,-10.38789,-9.866573,-10.34715,-11.71765,-13.48075,-15.04883,-16.10104,-16.76636,-17.50317,-18.7453,-20.54859,-22.48012,-23.84303,-24.10014,-23.2278,-21.76571,-20.52678,-20.14799,-20.76539,-22.00423,-23.2677,-24.11387,-24.46777,-24.55046,-24.60819,-24.66673,-24.50205,-23.85287,-22.70932,-21.44427,-20.65924,-20.8181,-21.90933,-23.37452,-24.3833,-24.30099,-23.06796,-21.25144,-19.73355,-19.22151,-19.86905,-21.22195,-22.49704,-23.01001,-22.50024,-21.19208,-19.60266,-18.25101,-17.44392,-17.22927,-17.48467,-18.03642,-18.72578,-19.40946,-19.94661,-20.22235,-20.20812,-20.00314,-19.80036,-19.77672,-19.97494,-20.27052,-20.46286,-20.43906,-20.29411,-20.31102,-20.79545,-21.86873,-23.35839,-24.86762,-25.98024,-26.46731,-26.35957,-25.84905,-25.10822,-24.17148,-22.97072,-21.4897,-19.90027,-18.54339,-17.73767,-17.53922,-17.64174,-17.52846,-16.80914,-15.52667,-14.20622,-13.57647,-14.11508,-15.71054,-17.68077,-19.16498,-19.65422,-19.31326,-18.87056,-19.12625,-20.38838,-22.20948,-23.60907,-23.65785,-22.05982,-19.36351,-16.66943,-15.02061,-14.85777,-15.86691,-17.27719,-18.38236,-18.92946,-19.13847,-19.3914,-19.85114,-20.31043,-20.37499,-19.8303,-18.89431,-18.13859,-18.10386,-18.87813,-19.95298,-20.4939,-19.86725,-18.07316,-15.77607,-13.89174,-12.99966,-12.98133,-13.1445,-12.75892,-11.63214,-10.3032,-9.674389,-10.28938,-11.73568,-12.61635,-11.19441,-6.385989,1.476977,10.59156,18.41956,22.84156,23.11599,20.15339,15.99759,12.83893,12.09159,13.966,17.64616,21.85519,25.44752,27.75292,28.61364,28.24006,27.04829,25.55797,24.31166,23.74645,24.01872,24.88539,25.77038,26.05034,25.43667,24.21303,23.14914,23.09316,24.46518,26.96685,29.70866,31.69915,32.40545,32.04021,31.39361,31.32524,32.23922,33.87965,35.55944,36.65225,37.00391,36.98816,37.17717,37.86926,38.81618,39.35107,38.84082,37.15829,34.84665,32.84751,31.96221,32.38825,33.633,34.84828,35.36543,35.07325,34.40884,33.9869,34.13932,34.68103,35.05329,34.73105,33.60431,32.06753,30.76147,30.15483,30.25237,30.62763,30.73945,30.30299,29.4558,28.61588,28.1538,28.13295,28.31058,28.39399,28.34401,28.47877,29.26848,30.95161,33.25295,35.43645,36.70444,36.69357,35.73116,34.65359,34.26871,34.81702,35.7901,36.26426,35.54962,33.72989,31.71111,30.70342,31.42087,33.50518,35.55107,35.76414,32.884,26.84516,18.80023,10.51807,3.528022,-1.485895,-4.733948,-6.866148,-8.375119,-9.265956,-9.185075,-7.86812,-5.552721,-3.03738,-1.322924,-1.066442,-2.207301,-4.0101,-5.494643,-5.976163,-5.383564,-4.187861,-3.034604,-2.350224,-2.170748,-2.250669,-2.29948,-2.118568,-1.525811,-0.1654454,2.561537,7.263383,14.06629,22.15549,29.71319,34.44237,34.51237,29.46609,20.57859,10.40904,1.733668,-3.612557,-5.392231,-4.809002,-3.675816,-3.40546,-4.376589,-5.971198,-7.1683,-7.272793,-6.329069,-5.011194,-4.125258,-4.085731,-4.703958,-5.394009,-5.618777,-5.257025,-4.650043,-4.315121,-4.538831,-5.134585,-5.530672,-5.132117,-3.722253,-1.648418,0.324353,1.402635,1.167266,-0.233944,-2.19208,-3.957114,-4.981899,-5.115618,-4.579905,-3.785355,-3.115314,-2.78454,-2.811952,-3.075529,-3.38991,-3.566794,-3.453175,-2.963576,-2.114418,-1.046483,-0.01065092,0.6956219,0.822678,0.25212,-0.9709827,-2.668515,-4.599662,-6.529461,-8.263927,-9.649963,-10.56339,-10.91603,-10.6915,-9.992942,-9.064707,-8.258524,-7.936737,-8.342963,-9.489781,-11.11889,-12.76164,-13.89556,-14.14638,-13.45801,-12.14898,-10.81278,-10.07772,-10.32129,-11.47078,-13.00349,-14.17385,-14.37531,-13.46261,-11.85583,-10.35273,-9.728627,-10.3291,-11.87693,-13.60707,-14.66255,-14.53741,-13.32584,-11.64853,-10.31145,-9.901295,-10.54291,-11.93368,-13.59682,-15.1714,-16.5606,-17.86679,-19.19459,-20.47896,-21.46667,-21.8559,-21.48791,-20.45302,-19.03848,-17.56408,-16.22706,-15.06206,-14.02711,-13.1307,-12.48404,-12.22894,-12.39489,-12.80814,-13.14589,-13.12185,-12.68314,-12.07086,-11.68389,-11.82232,-12.4813,-13.3454,-13.9986,-14.21477,-14.12652,-14.14669,-14.68404,-15.84111,-17.30388,-18.50612,-18.96555,-18.56709,-17.60442,-16.55541,-15.75536,-15.19719,-14.60301,-13.70485,-12.52202,-11.41478,-10.85327,-11.05534,-11.75817,-12.3148,-12.08727,-10.88923,-9.172893,-7.807633,-7.562317,-8.613069,-10.39499,-11.90541,-12.27635,-11.25904,-9.322376,-7.318559,-5.94898,-5.381678,-5.255288,-5.035016,-4.450524,-3.701456,-3.292043,-3.622901,-4.640932,-5.807585,-6.420061,-6.071462,-4.935101,-3.675347,-3.042185,-3.418142,-4.613969,-6.035445,-7.091823,-7.562622,-7.683566,-7.919591,-8.606921,-9.72404,-10.93877,-11.86883,-12.3423,-12.46025,-12.42833,-12.31536,-11.9546,-11.09367,-9.689466,-8.104459,-7.00573,-6.975862,-8.07993,-9.708255,-10.86229,-10.75422,-9.347548,-7.460696,-6.308624,-6.722682,-8.526668,-10.48531,-10.90768,-8.579301,-3.478178,3.156697,9.454702,13.87525,15.94659,16.3738,16.49477,17.44539,19.53812,22.19273,24.39502,25.35588,24.94987,23.70374,22.40079,21.59919,21.37182,21.39657,21.27679,20.84581,20.24979,19.78405,19.63204,19.71109,19.73156,19.42084,18.73969,17.93551,17.39188,17.3766,17.85447,18.48518,18.80746,18.49316,17.5234,16.19173,14.94518,14.15851,13.95847,14.18091,14.46542,14.43749,13.89418,12.91355,11.84013,11.14237,11.19245,12.0626,13.44192,14.73703,15.3325,14.89438,13.55526,11.86609,10.5234,10.00959,10.34848,11.11582,11.69644,11.63231,10.85043,9.643273,8.436502,7.512683,6.879471,6.355913,5.792156,5.242396,4.951856,5.164137,5.898948,6.879208,7.681317,8.0115,7.905905,7.700027,7.778234,8.285303,9.020162,9.601116,9.781493,9.664009,9.622334,9.960648,10.56873,10.88023,10.24549,8.50788,6.354261,5.081618,5.78842,8.432039,11.39661,11.99995,7.820167,-1.83497,-15.18821,-28.51897,-37.78965,-40.54227,-37.03991,-30.02373,-23.24184,-19.5878,-19.87967,-22.8782,-26.38743,-28.66935,-29.29683,-29.01824,-28.87272,-29.25749,-29.60088,-28.82522,-26.21065,-22.01985,-17.43227,-13.84965,-12.07043,-11.90397,-12.45915,-12.85583,-12.81862,-12.7326,-13.16269,-14.25476,-15.52521,-16.23726,-16.08407,-15.60437,-15.90583,-17.7669,-20.70858,-22.7663,-21.30545,-14.53645,-2.841917,10.97453,22.81571,29.25383,29.23231,24.51166,18.58848,14.72064,14.21637,15.96364,17.401,16.25746,11.96442,5.904906,0.4397873,-2.591691,-2.917413,-1.804822,-1.069601,-1.83999,-3.899942,-5.994378,-6.817139,-5.965335,-4.211905,-2.946745,-3.210856,-5.005785,-7.342668,-8.968331,-9.24179,-8.545682,-7.954565,-8.40247,-9.939226,-11.60308,-12.01645,-10.32135,-6.837883,-3.002905,-0.6101648,-0.8134617,-3.496271,-7.371369,-10.72101,-12.31518,-11.9753,-10.50351,-9.092517,-8.612975,-9.194034,-10.28375,-11.07524,-10.99944,-10.0051,-8.522143,-7.199272,-6.598905,-6.998328,-8.339991,-10.29033,-12.34929,-13.98336,-14.77744,-14.58192,-13.59296,-12.2925,-11.23446,-10.76177,-10.8138,-10.95905,-10.66251,-9.640274,-8.077143,-6.548317,-5.668393,-5.677143,-6.230287,-6.551867,-5.877668,-3.928116,-1.115517,1.653254,3.468909,3.913179,3.25974,2.270939,1.727412,1.985266,2.824615,3.659348,3.949457,3.545689,2.749343,2.072028,1.870711,2.106367,2.379269,2.207511,1.360047,0.02098459,-1.319875,-2.178081,-2.386748,-2.209464,-2.180393,-2.766935,-4.060643,-5.687454,-6.999428,-7.445396,-6.910823,-5.827847,-4.97944,-5.088006,-6.401242,-8.501444,-10.45537,-11.25145,-10.3107,-7.812293,-4.651464,-2.034473,-0.9043619,-1.490389,-3.218436,-5.033447,-5.962649,-5.613248,-4.333673,-2.956677,-2.28365,-2.61861,-3.628554,-4.604079,-4.947669,-4.573668,-3.95944,-3.811187,-4.558082,-6.007858,-7.401455,-7.852615,-6.905779,-4.857369,-2.62463,-1.225967,-1.184098,-2.219474,-3.425772,-3.823124,-2.952553,-1.152403,0.6439452,1.456929,0.8217305,-0.9654304,-3.038707,-4.449564,-4.648397,-3.693418,-2.111079,-0.544582,0.5714831,1.132102,1.262223,1.123932,0.7903927,0.2625433,-0.4219676,-1.107297,-1.553082,-1.568387,-1.144273,-0.4780682,0.1378399,0.4875396,0.5440837,0.4491081,0.3854986,0.4470733,0.6029177,0.7712613,0.9251925,1.126558,1.44908,1.858606,2.177357,2.210926,1.985373,1.921369,2.766544,5.244404,9.582135,15.20973,20.87071,25.15789,27.2126,27.18894,26.18507,25.64616,26.56284,28.93135,31.7978,33.85983,34.26375,33.11651,31.40466,30.38417,30.82355,32.56622,34.66578,35.98885,35.88645,34.52528,32.69194,31.23657,30.54097,30.35754,30.10214,29.3735,28.32474,27.62059,27.99646,29.7145,32.28624,34.66389,35.80179,35.24825,33.40589,31.3035,30.02301,30.12833,31.42235,33.14994,34.48572,34.9954,34.80779,34.42833,34.36012,34.78493,35.49084,36.05398,36.12272,35.60755,34.68187,33.6301,32.68038,31.94214,31.46627,31.33865,31.70624,32.68563,34.22118,36.01519,37.61126,38.60777,38.87282,38.61167,38.23029,38.07114,38.18816,38.31578,38.05141,37.13534,35.63613,33.91653,32.39911,31.29389,30.47895,29.62536,28.48384,27.13241,25.99453,25.58924,26.1575,27.41441,28.61724,28.93947,27.94563,25.87195,23.52495,21.83905,21.35109,21.91333,22.82527,23.30968,23.03362,22.33875,22.01388,22.72768,24.46292,26.3159,26.82694,24.69834,19.51946,12.09985,4.20968,-2.15149,-5.591224,-5.855122,-3.814442,-0.9624767,1.290344,2.167437,1.69062,0.4533783,-0.810305,-1.608805,-1.85448,-1.784334,-1.746639,-2.000749,-2.623667,-3.527773,-4.530963,-5.416345,-5.960085,-5.950725,-5.23512,-3.796921,-1.831578,0.2396545,1.854358,2.479219,1.802845,-0.131471,-2.912891,-5.879599,-8.323038,-9.707209,-9.829967,-8.873998,-7.332604,-5.833449,-4.918553,-4.859412,-5.580808,-6.729261,-7.862111,-8.671948,-9.136838,-9.515717,-10.18666,-11.41243,-13.16213,-15.09338,-16.70789,-17.59833,-17.64663,-17.07101,-16.30103,-15.76266,-15.6968,-16.09826,-16.7829,-17.51312,-18.0944,-18.40005,-18.34931,-17.8983,-17.08022,-16.06964,-15.19397,-14.83313,-15.22625,-16.28975,-17.58321,-18.48854,-18.53839,-17.71388,-16.52164,-15.77253,-16.16068,-17.87709,-20.48299,-23.12992,-25.00148,-25.72374,-25.50766,-24.95333,-24.65319,-24.84636,-25.32964,-25.6626,-25.50841,-24.88311,-24.15169,-23.79059,-24.08709,-24.97605,-26.1166,-27.13868,-27.88573,-28.48879,-29.23969,-30.36269,-31.85332,-33.48384,-34.95464,-36.06115,-36.75862,-37.08717,-37.04974,-36.56675,-35.56778,-34.161,-32.72665,-31.81446,-31.86029,-32.88385,-34.38362,-35.54684,-35.69095,-34.68889,-33.10624,-31.94068,-32.08866,-33.8432,-36.71458,-39.67805,-41.70302,-42.2559,-41.50541,-40.15311,-39.03102,-38.72565,-39.4221,-40.99162,-43.18045,-45.73083,-48.35849,-50.66745,-52.15078,-52.36472,-51.21511,-49.15975,-47.14284,-46.22584,-47.08585,-49.66068,-53.16273,-56.46901,-58.66663,-59.45462,-59.18094,-58.54306,-58.1621,-58.30692,-58.89807,-59.73098,-60.70717,-61.88836,-63.35355,-64.99602,-66.45632,-67.29224,-67.26873,-66.57219,-65.74749,-65.3701,-65.66219,-66.32614,-66.74197,-66.4256,-65.44313,-64.47594,-64.44352,-65.89592,-68.56348,-71.38565,-73.04737,-72.72351,-70.58097,-67.71178,-65.52951,-64.97522,-66.02209,-67.76337,-69.00813,-69.00957,-67.86301,-66.35912,-65.41776,-65.49053,-66.32253,-67.20331,-67.50932,-67.14887,-66.61662,-66.6182,-67.54451,-69.16152,-70.73853,-71.53283,-71.30109,-70.48949,-69.95878,-70.42517,-71.98115,-74.03123,-75.68754,-76.38355,-76.29297,-76.2524,-77.20885,-79.50662,-82.46895,-84.55573,-84.07017,-80.03083,-72.75359,-63.79986,-55.33374,-49.20937,-46.25975,-46.11663,-47.59838,-49.39763,-50.68493,-51.32534,-51.66315,-52.07499,-52.59649,-52.86486,-52.38633,-50.9386,-48.82864,-46.80422,-45.647,-45.67392,-46.46238,-47.00491,-46.24697,-43.71941,-39.86707,-35.81069,-32.58806,-30.25287,-27.36137,-21.24734,-9.088608,10.67915,37.31047,67.67041,97.28698,122.1238,140.2398,152.5289,162.1495,172.9283,187.5413,206.3773,227.6217,248.4397,266.5454,281.2882,293.6863,305.4493,317.6263,329.6712,339.5115,344.538,342.9761,334.8584,322.0423,307.3099,293.0494,280.2249,268.1674,255.2414,239.9306,221.8131,201.8912,182.2083,165.0047,151.8496,143.1258,137.9972,134.7756,131.479,126.4029,118.5873,108.1256,96.24191,85.05696,76.99155,73.91813,76.33981,82.97392,91.01841,97.1039,98.56696,94.49407,86.01622,75.70394,66.34834,59.73089,55.9922,53.87773,51.67013,48.24544,43.67276,39.04007,35.66449,34.18533,34.08913,33.94438,32.19579,28.04427,21.90161,15.16695,9.477364,5.874286,4.360637,4.071609,3.919318,3.303762,2.4662,2.289768,3.683258,6.920078,11.31857,15.44417,17.7204,17.12138,13.59543,8.029124,1.808634,-3.774608,-7.983562,-10.77119,-12.58628,-14.00111,-15.37144,-16.69468,-17.7078,-18.14335,-17.98474,-17.56861,-17.45827,-18.13201,-19.6348,-21.38996,-22.31319,-21.24099,-17.51362,-11.43871,-4.374959,1.670358,4.79756,3.990928,-0.4611548,-7.121827,-14.06992,-19.73621,-23.48728,-25.67103,-27.14888,-28.62958,-30.21932,-31.46176,-31.81721,-31.25548,-30.54747,-31.02505,-33.91282,-39.60637,-47.33236,-55.40669,-61.96897,-65.79249,-66.74816,-65.69792,-63.94006,-62.54758,-61.95884,-61.99463,-62.18493,-62.14987,-61.78365,-61.18511,-60.45096,-59.53501,-58.28332,-56.60201,-54.60331,-52.59203,-50.88966,-49.63055,-48.69622,-47.85419,-47.00457,-46.34179,-46.27663,-47.14515,-48.89421,-50.98663,-52.63179,-53.23253,-52.75636,-51.77149,-51.08239,-51.18447,-51.88801,-52.39644,-51.82417,-49.84733,-47.05714,-44.72763,-44.06733,-45.35924,-47.49775,-48.25814,-45.22416,-36.93922,-23.71184,-7.661563,8.018234,20.23426,27.07607,28.36669,25.51764,20.83854,16.64331,14.50824,14.9116,17.29794,20.46751,23.11033,24.29416,23.75515,21.91016,19.60453,17.70657,16.73038,16.65404,17.01562,17.22334,16.90503,16.10112,15.20149,14.68064,14.80188,15.47458,16.33864,17.00445,17.28049,17.24548,17.13415,17.14076,17.28338,17.42249,17.39734,17.16548,16.82854,16.53122,16.32317,16.10782,15.73198,15.15236,14.53927,14.21151,14.42541,15.16149,16.07822,16.69304,16.68587,16.11543,15.38305,14.95486,15.03194,15.41617,15.68518,15.56562,15.22431,15.23171,16.17949,18.20149,20.76278,22.92887,23.98945,24.01831,23.92007,24.81499,27.0714,29.61011,30.03691,25.69893,15.17134,-0.6612254,-18.62871,-34.50384,-44.8461,-48.48928,-46.8765,-43.10005,-40.22119,-39.82229,-41.5528,-43.79512,-44.92411,-44.3334,-42.6427,-41.06981,-40.4912,-40.85873,-41.34352,-41.04765,-39.73636,-38.06493,-37.13935,-37.73348,-39.72303,-42.13332,-43.77324,-44.00602,-43.12219,-42.04972,-41.6058,-41.81247,-41.78071,-40.27105,-36.59198,-31.24482,-25.86342,-22.45058,-22.34221,-25.51301,-30.61985,-35.73169,-39.29725,-40.79044,-40.72231,-40.09631,-39.71597,-39.7676,-39.88711,-39.57768,-38.64287,-37.34922,-36.23769,-35.7583,-35.99221,-36.63495,-37.21969,-37.40139,-37.1061,-36.47992,-35.71156,-34.88617,-33.97166,-32.92403,-31.80058,-30.7744,-30.02997,-29.62403,-29.42673,-29.19697,-28.74328,-28.05256,-27.29059,-26.67546,-26.32015,-26.16339,-26.04288,-25.85348,-25.66891,-25.72499,-26.26572,-27.3542,-28.78262,-30.15008,-31.06386,-31.3363,-31.05575,-30.49862,-29.95609,-29.59688,-29.4451,-29.46142,-29.63515,-30.00071,-30.55944,-31.17883,-31.57009,-31.3968,-30.46454,-28.87089,-27.0045,-25.37364,-24.36055,-24.04847,-24.22664,-24.55944,-24.80227,-24.92168,-25.04906,-25.31729,-25.71005,-26.0391,-26.0704,-25.70968,-25.10861,-24.60544,-24.52425,-24.95751,-25.67499,-26.22484,-26.17356,-25.34921,-23.94629,-22.43829,-21.3488,-21.00456,-21.39441,-22.1903,-22.90367,-23.09615,-22.55244,-21.34953,-19.8109,-18.36392,-17.35893,-16.91539,-16.86363,-16.81506,-16.34263,-15.19609,-13.44231,-11.45091,-9.722569,-8.647898,-8.333817,-8.596539,-9.118643,-9.663127,-10.19709,-10.842,-11.68945,-12.62503,-13.30612,-13.33751,-12.54276,-11.14423,-9.706386,-8.848361,-8.890577,-9.660417,-10.58871,-11.04485,-10.69949,-9.686018,-8.464207,-7.490503,-6.924161,-6.567834,-6.069819,-5.228731,-4.171889,-3.273261,-2.873473,-3.011973,-3.380749,-3.543792,-3.268939,-2.721874,-2.364792,-2.613675,-3.495442,-4.560368,-5.13622,-4.763189,-3.508898,-1.93566,-0.7316334,-0.2621201,-0.3616117,-0.5206809,-0.3342987,0.1243644,0.2995185,-0.4493923,-2.321857,-4.815911,-6.962137,-7.928318,-7.582124,-6.592772,-5.955881,-6.2447,-7.122174,-7.509499,-6.358916,-3.521474,-0.06143644,2.314229,2.449071,0.8077695,-0.3473343,2.054118,10.19628,23.94553,40.57737,55.9129,66.28879,70.26673,69.13535,65.96125,63.79921,64.12737,66.38047,68.74024,69.56786,68.53014,66.74033,65.90449,67.11899,70.12878,73.50764,75.59573,75.5336,73.73307,71.51203,70.20522,70.35558,71.50387,72.63863,72.93909,72.28929,71.24547,70.54739,70.5715,71.11517,71.62778,71.67332,71.25288,70.75614,70.60553,70.88814,71.26859,71.2468,70.55714,69.38792,68.2473,67.57774,67.41787,67.37867,66.97332,66.04569,64.96483,64.40793,64.86306,66.22074,67.76674,68.62251,68.3486,67.27399,66.29739,66.27436,67.40102,69.03316,70.08733,69.76225,68.08389,65.89129,64.27008,63.82769,64.3244,64.91998,64.85727,64.0793,63.30868,63.51485,65.13159,67.60632,69.64993,70.05907,68.56134,66.0694,64.13015,63.896,65.3241,67.18066,67.88482,66.65171,64.12213,62.0098,61.92622,64.15605,67.22935,68.66062,66.45657,60.4534,52.58605,45.8507,42.53234,42.76281,44.29941,43.68759,38.13767,27.03758,12.26702,-2.793576,-14.91508,-22.38339,-25.39993,-25.48255,-24.40275,-23.34903,-22.71664,-22.43116,-22.38658,-22.61324,-23.1084,-23.58646,-23.48019,-22.29702,-20.09602,-17.67838,-16.24591,-16.65671,-18.75076,-21.24344,-22.34827,-20.80914,-16.71367,-11.55583,-7.474648,-6.107792,-7.749679,-11.30553,-15.0281,-17.54344,-18.52186,-18.62064,-18.8193,-19.64913,-20.84436,-21.61315,-21.28686,-19.86187,-18.04851,-16.81553,-16.76681,-17.794,-19.23259,-20.37609,-20.96033,-21.26511,-21.77802,-22.69495,-23.65607,-23.94398,-23.02575,-21.05578,-18.95403,-17.95863,-18.90853,-21.71386,-25.35787,-28.4377,-29.90948,-29.58237,-28.08739,-26.38983,-25.19408,-24.61945,-24.31053,-23.8411,-23.09268,-22.34683,-22.05991,-22.51886,-23.64353,-25.06639,-26.40483,-27.50238,-28.45646,-29.4325,-30.43689,-31.25216,-31.60451,-31.43858,-31.06733,-31.04508,-31.81421,-33.36335,-35.15517,-36.40562,-36.55544,-35.6217,-34.18508,-33.0078,-32.53746,-32.62774,-32.67249,-32.0602,-30.63766,-28.86357,-27.54255,-27.3196,-28.27692,-29.90125,-31.43347,-32.34969,-32.64374,-32.72685,-33.04234,-33.68592,-34.31979,-34.44358,-33.82536,-32.76982,-32.00942,-32.27109,-33.79821,-36.16047,-38.48344,-39.95736,-40.29248,-39.8365,-39.29406,-39.26129,-39.88977,-40.88815,-41.81906,-42.4443,-42.85963,-43.32797,-43.96033,-44.51427,-44.48691,-43.46106,-41.4542,-39.00677,-36.9105,-35.74137,-35.51321,-35.68928,-35.56157,-34.73857,-33.41572,-32.23982,-31.8606,-32.47771,-33.69329,-34.76255,-35.06793,-34.48317,-33.38742,-32.33894,-31.65643,-31.22082,-30.63778,-29.62905,-28.34938,-27.37047,-27.31539,-28.39171,-30.16439,-31.75731,-32.37364,-31.79524,-30.51655,-29.41351,-29.16315,-29.80843,-30.76722,-31.27631,-30.95901,-30.11077,-29.49543,-29.78456,-31.03959,-32.61589,-33.58326,-33.38961,-32.30771,-31.32494,-31.51411,-33.28031,-35.99021,-38.25986,-38.7496,-36.97507,-33.61509,-30.11767,-27.84749,-27.31022,-27.93918,-28.55208,-28.15975,-26.59471,-24.56352,-23.12491,-22.96714,-23.97964,-25.38636,-26.32174,-26.42667,-26.04582,-25.8987,-26.4723,-27.5867,-28.46122,-28.2572,-26.73031,-24.52548,-22.87869,-22.88808,-24.81919,-27.9058,-30.79302,-32.347,-32.31051,-31.38002,-30.65746,-30.85109,-31.76998,-32.46814,-31.96313,-30.04716,-27.6212,-26.25159,-27.15087,-30.1764,-33.48838,-34.16135,-29.5012,-18.40122,-2.019234,16.59074,33.70951,46.42965,53.66293,56.25366,56.24747,55.7739,56.13136,57.46946,59.0998,60.15026,60.1468,59.2347,57.99194,57.01672,56.56551,56.42929,56.09017,55.02951,53.0132,50.2166,47.14584,44.4235,42.54531,41.70581,41.75594,42.2853,42.79285,42.87399,42.36184,41.36978,40.21982,39.29043,38.84857,38.93853,39.38652,39.91268,40.29388,40.49127,40.67096,41.11229,42.0501,43.53864,45.41075,47.34787,49.01357,50.17706,50.76008,50.80102,50.37558,49.54284,48.35721,46.93128,45.49921,44.40803,44.01842,44.55196,45.96412,47.92427,49.92622,51.47599,52.26748,52.2543,51.5943,50.51708,49.20273,47.74656,46.2174,44.74379,43.54297,42.84866,42.77173,43.19284,43.78214,44.16134,44.12841,43.7917,43.51307,43.66504,44.35116,45.28675,45.9627,46.0294,45.66428,45.64007,46.94787,50.09341,54.44305,58.04489,58.16993,52.44152,40.05595,22.47354,3.152811,-13.64326,-24.46783,-27.99441,-25.3936,-19.63394,-14.07785,-11.07806,-11.23063,-13.55454,-16.37197,-18.32916,-18.99936,-18.81695,-18.5132,-18.48884,-18.54297,-18.09578,-16.70452,-14.48166,-12.11384,-10.45754,-9.987892,-10.48004,-11.15588,-11.21601,-10.4118,-9.267377,-8.774819,-9.724106,-12.08415,-14.84653,-16.47835,-15.7594,-12.52772,-7.89153,-3.753719,-1.893968,-3.10132,-6.820386,-11.48029,-15.29815,-17.10576,-16.77274,-15.06166,-13.07621,-11.66467,-11.10268,-11.16548,-11.44237,-11.63346,-11.63479,-11.4132,-10.83874,-9.664616,-7.712248,-5.13466,-2.530862,-0.7616386,-0.5175511,-1.888198,-4.226561,-6.44619,-7.618546,-7.526561,-6.820461,-6.645534,-7.932693,-10.76813,-14.23853,-16.87759,-17.48011,-15.81501,-12.81106,-10.08788,-9.088387,-10.30498,-13.03997,-15.82924,-17.27544,-16.80809,-14.94465,-12.92969,-11.98907,-12.64377,-14.46683,-16.38977,-17.3439,-16.85031,-15.23481,-13.38811,-12.25504,-12.36641,-13.65774,-15.62001,-17.63008,-19.23705,-20.25452,-20.66647,-20.47847,-19.65578,-18.19797,-16.27444,-14.28435,-12.75088,-12.08053,-12.32187,-13.08504,-13.69486,-13.51512,-12.27523,-10.22399,-8.027713,-6.468027,-6.097022,-7.017894,-8.881619,-11.07516,-12.98655,-14.21383,-14.63735,-14.35554,-13.55522,-12.40417,-11.02345,-9.538572,-8.155654,-7.191609,-7.011089,-7.875085,-9.767815,-12.30057,-14.77237,-16.4023,-16.65438,-15.50725,-13.52068,-11.62994,-10.73743,-11.2875,-13.04464,-15.20468,-16.80209,-17.20686,-16.44545,-15.16302,-14.24275,-14.29277,-15.29151,-16.59842,-17.32456,-16.84982,-15.18552,-12.97485,-11.1328,-10.34093,-10.69168,-11.67881,-12.52685,-12.65221,-11.98646,-10.98345,-10.32907,-10.53831,-11.67591,-13.34341,-14.91444,-15.86424,-16.00893,-15.54286,-14.88832,-14.46074,-14.47742,-14.88587,-15.41789,-15.72333,-15.52406,-14.73479,-13.51786,-12.24533,-11.36503,-11.20516,-11.79782,-12.82156,-13.72729,-14.01614,-13.53524,-12.61647,-11.94526,-12.19778,-13.63608,-15.90062,-18.14391,-19.45232,-19.32014,-17.89845,-15.87221,-14.04918,-12.92167,-12.47547,-12.34397,-12.17174,-11.90612,-11.79591,-12.10059,-12.74282,-13.21194,-12.86147,-11.45456,-9.583405,-8.608112,-10.03818,-14.65685,-21.9111,-29.98791,-36.60912,-40.13171,-40.32132,-38.34237,-35.97471,-34.5493,-34.26595,-34.31495,-33.69275,-32.13326,-30.47615,-30.1511,-32.04758,-35.49367,-38.08081,-36.59216,-28.6235,-14.01369,4.752828,23.46603,37.99089,46.01719,47.86348,45.97861,43.49839,42.68393,44.06139,46.60335,48.68744,49.17972,48.01171,46.01777,44.26356,43.36732,43.2291,43.2775,42.97871,42.23949,41.44292,41.13797,41.63188,42.77191,44.04999,44.93158,45.17661,44.94539,44.64936,44.66393,45.1118,45.82925,46.51628,46.9388,47.05648,47.0109,47.0177,47.25134,47.78707,48.6057,49.61512,50.65646,51.50069,51.88094,51.5832,50.57305,49.07553,47.53687,46.45897,46.1845,46.75151,47.90725,49.25857,50.46138,51.32814,51.80603,51.87832,51.50316,50.66166,49.49007,48.36069,47.80046,48.22729,49.65194,51.55752,53.09242,53.52296,52.68327,51.12727,49.83043,49.58117,50.42127,51.52025,51.6147,49.80201,46.20859,42.08531,39.20662,38.87625,41.12591,44.61806,47.36847,47.90536,46.18143,43.66056,42.46453,44.01752,47.96769,52.03881,52.97589,48.13326,36.88079,21.08428,4.397592,-9.270985,-17.34913,-19.48104,-17.34176,-13.58502,-10.5356,-9.287444,-9.573997,-10.3321,-10.53529,-9.80509,-8.511882,-7.406474,-7.078916,-7.589185,-8.464349,-9.016691,-8.759963,-7.673223,-6.18148,-4.89708,-4.291026,-4.478942,-5.217119,-6.078912,-6.692223,-6.908742,-6.83411,-6.732696,-6.879601,-7.440711,-8.427162,-9.722469,-11.14591,-12.51173,-13.66328,-14.48348,-14.89888,-14.88958,-14.5048,-13.87045,-13.17458,-12.62641,-12.40191,-12.59627,-13.2043,-14.13323,-15.23984,-16.37201,-17.39833,-18.21896,-18.76605,-19.00325,-18.93041,-18.58987,-18.06031,-17.43497,-16.78882,-16.15775,-15.5484,-14.98125,-14.5402,-14.38663,-14.70642,-15.59774,-16.95397,-18.4208,-19.48526,-19.68575,-18.85697,-17.27751,-15.61757,-14.67466,-15.00546,-16.63223,-18.98591,-21.13757,-22.22517,-21.86767,-20.36092,-18.54881,-17.43199,-17.70501,-19.45057,-22.13138,-24.86403,-26.82329,-27.57333,-27.18265,-26.1055,-24.9344,-24.16318,-24.06843,-24.71404,-26.01752,-27.79821,-29.7789,-31.57912,-32.76604,-32.99392,-32.18362,-30.63262,-28.95134,-27.80947,-27.59855,-28.19279,-28.96292,-29.07372,-27.92895,-25.52648,-22.51501,-19.89525,-18.50718,-18.57701,-19.57757,-20.4914,-20.3488,-18.75469,-16.12035,-13.47634,-11.96434,-12.2795,-14.34691,-17.38402,-20.28872,-22.13045,-22.49523,-21.53766,-19.77547,-17.78416,-15.97531,-14.55004,-13.58866,-13.15815,-13.33243,-14.10844,-15.30134,-16.52904,-17.34034,-17.43615,-16.84841,-15.95335,-15.28764,-15.26132,-15.93721,-17.01215,-18.0172,-18.61667,-18.81833,-18.96483,-19.50297,-20.67493,-22.3224,-23.93277,-24.90472,-24.87876,-23.93504,-22.54229,-21.29097,-20.57605,-20.41653,-20.51172,-20.48423,-20.14514,-19.61374,-19.21957,-19.26123,-19.78948,-20.56077,-21.20077,-21.46778,-21.44408,-21.51364,-22.12491,-23.47544,-25.31402,-26.99684,-27.78475,-27.22153,-25.38328,-22.85556,-20.45397,-18.84642,-18.2839,-18.57788,-19.30623,-20.10474,-20.85859,-21.68956,-22.77066,-24.11298,-25.47906,-26.48895,-26.84884,-26.54935,-25.89279,-25.32306,-25.15681,-25.38806,-25.6931,-25.6347,-24.93893,-23.67005,-22.19081,-20.93861,-20.16355,-19.79929,-19.54808,-19.11709,-18.44059,-17.7347,-17.33939,-17.459,-17.97765,-18.49168,-18.55023,-17.95418,-16.91092,-15.92868,-15.50451,-15.79967,-16.51857,-17.0792,-16.97925,-16.12522,-14.90832,-13.97242,-13.81216,-14.45823,-15.45287,-16.13448,-16.05077,-15.23445,-14.16312,-13.4319,-13.3524,-13.74203,-14.04277,-13.69207,-12.50455,-10.81505,-9.291493,-8.538477,-8.746478,-9.60624,-10.53127,-11.03172,-10.99321,-10.68736,-10.52752,-10.75064,-11.24626,-11.64192,-11.57387,-10.94706,-10.005,-9.167986,-8.761988,-8.830059,-9.152599,-9.44739,-9.593554,-9.712039,-10.04739,-10.74988,-11.72937,-12.7049,-13.41803,-13.85151,-14.27568,-15.06725,-16.41634,-18.13631,-19.73322,-20.7163,-20.94828,-20.78514,-20.88498,-21.78691,-23.53057,-25.57689,-27.09745,-27.45168,-26.53552,-24.77128,-22.75681,-20.83743,-18.93165,-16.76245,-14.33661,-12.28921,-11.74368,-13.63464,-17.83757,-22.66758,-25.19052,-22.35502,-12.45513,3.832566,23.4406,42.02031,55.67427,62.47116,63.02982,59.93454,56.35711,54.61742,55.37807,57.76736,60.21039,61.42392,61.03148,59.5579,57.93406,56.89254,56.61678,56.78606,56.90518,56.65986,56.07905,55.44579,55.05964,55.03195,55.23497,55.4082,55.33434,54.96432,54.43377,53.97771,53.81084,54.03939,54.63225,55.44717,56.28395,56.93924,57.25382,57.14504,56.62125,55.77492,54.75903,53.75213,52.92191,52.39624,52.22821,52.36443,52.62304,52.72282,52.37811,51.44815,50.06836,48.6669,47.80834,47.90322,48.93223,50.36425,51.37208,51.27547,49.97902,48.12683,46.83464,47.09784,49.2028,52.49467,55.67911,57.51034,57.47541,56.05313,54.3895,53.57642,53.99307,55.13077,56.01429,55.93674,55.00091,54.07687,54.17415,55.64272,57.77819,59.16973,58.64167,56.19248,53.26465,52.03507,54.04423,58.95371,64.25069,66.2183,61.75689,50.09778,33.43562,16.08083,2.533396,-4.51642,-5.224821,-2.179809,1.151152,2.210527,0.4197313,-2.944127,-5.834465,-6.749154,-5.505899,-3.125548,-1.036766,-0.183045,-0.5825673,-1.532122,-2.217009,-2.269805,-1.923848,-1.726835,-2.079445,-2.947986,-3.932557,-4.596027,-4.777105,-4.645816,-4.472291,-4.306846,-3.841433,-2.589475,-0.2781244,2.827016,5.921312,8.032258,8.551659,7.594696,5.945838,4.611138,4.24778,4.821191,5.69386,6.076326,5.542775,4.284671,2.953858,2.214238,2.303705,2.889091,3.297304,2.958947,1.770367,0.1433096,-1.276006,-2.023387,-2.091431,-1.890202,-1.932114,-2.459208,-3.261899,-3.806338,-3.582437,-2.44334,-0.7176104,0.9740127,2.074963,2.394857,2.173617,1.88164,1.898035,2.27808,2.751857,2.939159,2.626823,1.919842,1.169815,0.7338441,0.7281038,0.9405252,0.9593652,0.4325952,-0.7103952,-2.21612,-3.66639,-4.733052,-5.362915,-5.778869,-6.304922,-7.137224,-8.216217,-9.281962,-10.07303,-10.53072,-10.86636,-11.43765,-12.50612,-14.03028,-15.63019,-16.75876,-16.98508,-16.22891,-14.8103,-13.29097,-12.20012,-11.80059,-12.01346,-12.5234,-12.98356,-13.19424,-13.16811,-13.07034,-13.09725,-13.3737,-13.91532,-14.64645,-15.43192,-16.09256,-16.41303,-16.17515,-15.24172,-13.6639,-11.74733,-10.0058,-8.989356,-9.052,-10.17692,-11.96239,-13.78521,-15.06261,-15.47458,-15.04038,-14.03221,-12.80448,-11.65606,-10.79127,-10.36382,-10.5162,-11.34085,-12.76523,-14.45371,-15.84096,-16.34182,-15.65452,-13.97797,-11.98188,-10.49773,-10.07924,-10.6833,-11.67762,-12.19481,-11.64134,-10.05939,-8.11604,-6.716116,-6.464306,-7.302873,-8.545541,-9.285476,-8.926078,-7.509354,-5.649709,-4.129923,-3.427053,-3.467338,-3.750942,-3.742021,-3.251017,-2.553479,-2.17712,-2.517893,-3.559726,-4.896478,-6.040629,-6.797314,-7.430659,-8.485504,-10.36882,-12.97118,-15.60411,-17.33227,-17.51852,-16.24835,-14.35415,-12.9976,-13.04208,-14.57705,-16.8714,-18.77722,-19.34324,-18.28727,-16.07794,-13.61673,-11.7419,-10.85046,-10.82798,-11.26925,-11.8025,-12.29869,-12.85916,-13.64024,-14.67212,-15.80987,-16.83414,-17.60405,-18.12927,-18.50562,-18.77129,-18.81729,-18.44747,-17.5674,-16.36449,-15.31883,-14.98513,-15.64494,-17.04472,-18.41524,-18.81435,-17.63032,-14.96492,-11.65909,-8.919399,-7.734724,-8.40417,-10.4389,-12.8875,-14.8894,-16.12719,-16.91394,-17.87596,-19.43877,-21.45465,-23.22928,-23.96587,-23.37722,-22.08566,-21.51623,-23.26095,-28.20526,-35.87767,-44.42135,-51.29246,-54.41071,-53.23299,-49.20163,-45.29418,-44.81863,-49.97196,-60.8134,-75.13332,-89.29053,-99.65284,-103.9892,-102.2295,-96.28085,-89.07165,-83.29476,-80.44256,-80.50578,-82.36795,-84.58002,-86.07594,-86.49953,-86.07127,-85.19479,-84.10921,-82.79728,-81.16104,-79.27245,-77.47895,-76.25056,-75.87234,-76.20232,-76.70043,-76.75555,-76.11313,-75.10948,-74.50536,-74.96974,-76.50446,-78.19688,-78.52837,-76.14494,-70.68976,-63.20245,-55.79365,-50.7043,-49.2189,-51.02781,-54.39453,-57.06662,-57.42048,-55.2256,-51.61359,-48.31481,-46.63821,-46.79834,-47.96757,-48.95093,-49.0153,-48.30845,-47.60007,-47.54296,-47.9876,-47.87715,-45.86709,-41.31,-34.953,-28.80615,-25.14378,-25.16791,-28.13986,-31.58074,-32.52813,-29.18397,-22.00921,-13.58606,-7.267006,-5.339594,-7.735946,-12.0182,-14.64456,-12.79619,-5.747905,4.931955,16.36802,25.8958,32.21278,35.57872,37.11108,37.78046,37.82375,36.94132,35.05494,33.00132,32.56491,35.70644,43.40704,54.85585,67.53506,78.2468,84.53419,85.74534,83.15964,79.17384,76.04219,74.87145,75.36185,76.30528,76.46069,75.25735,73.01454,70.65761,69.21394,69.38959,71.39835,74.99478,79.59276,84.38677,88.48669,91.13297,91.9635,91.20828,89.63162,88.17194,87.4399,87.37653,87.34174,86.6144,85.00884,83.142,82.09474,82.59518,84.24424,85.35267,83.64312,77.502,67.06908,54.44916,42.83517,34.98299,31.91648,32.61737,34.86234,36.64241,37.24359,37.29987,37.83298,38.98718,39.40888,36.79857,29.3652,17.25516,2.959874,-9.691577,-17.44138,-19.29063,-16.92062,-13.55917,-11.96679,-12.76569,-14.1362,-13.05546,-7.30677,2.977854,15.17034,25.45942,30.81358,30.44005,25.95305,20.2809,16.06071,14.47907,15.11517,16.66796,17.93921,18.42141,18.23797,17.68947,16.89408,15.84042,14.762,14.42923,15.98025,20.2717,27.13727,35.09385,41.79317,45.03195,43.75757,38.48105,30.89046,22.95222,16.08806,10.89534,7.45653,5.863415,6.460382,9.581613,14.99939,21.58297,27.56548,31.3811,32.58264,32.20543,32.2502,34.51639,39.47383,45.86753,51.33008,53.6572,52.01224,47.40007,42.22363,39.27814,40.78885,47.93927,60.90954,79.10251,101.2198,125.1438,147.921,166.2218,177.3486,180.3935,176.8539,170.182,164.3188,161.9168,163.2279,166.2767,168.2335,167.1468,163.0433,157.7682,153.7881,152.75,154.7045,158.3613,162.0622,164.7106,166.0688,166.3654,165.7107,163.9359,161.0251,157.7449,155.7345,156.6377,160.6081,165.1623,165.4239,156.0643,134.1385,101.2553,63.64681,29.82139,6.863084,-2.672831,-1.572622,3.930595,7.634182,6.425844,1.255639,-4.331987,-6.986823,-5.828134,-2.83603,-1.287251,-3.433269,-9.047302,-15.80252,-21.16733,-24.46938,-27.66965,-34.26015,-46.95222,-65.63387,-86.92333,-105.6377,-117.3101,-120.2749,-116.1714,-108.7133,-101.6014,-96.85415,-94.4032,-92.93285,-91.17593,-88.76649,-86.2004,-84.1653,-82.91236,-82.17167,-81.63837,-81.52181,-82.62485,-85.78802,-91.08447,-97.4164,-102.934,-106.1145,-106.8196,-106.5715,-107.7609,-112.1934,-119.8513,-128.6669,-135.4911,-137.71,-134.5735,-127.5001,-119.2559,-112.5539,-108.9145,-108.3404,-109.801,-112.0576,-114.2332,-115.8575,-116.5533,-115.7788,-112.9406,-107.835,-101.0615,-94.02564,-88.41725,-85.43687,-85.24134,-86.96172,-89.27172,-91.13718,-92.28034,-93.10664,-94.21359,-95.85076,-97.69781,-99.05222,-99.25445,-98.02806,-95.54478,-92.243,-88.60072,-85.04207,-81.96722,-79.76939,-78.69176,-78.57388,-78.69836,-77.98676,-75.5525,-71.32137,-66.28049,-62.07945,-60.12401,-60.71746,-62.85015,-64.88021,-65.73076,-65.79938,-66.86278,-70.8576,-78.22149,-86.87527,-92.67963,-91.33412,-80.74492,-62.4763,-41.34166,-23.24318,-12.41056,-9.583572,-12.12824,-15.93588,-17.90055,-17.47752,-16.45221,-17.19887,-20.64581,-25.30477,-27.99296,-25.77132,-17.84616,-6.222393,5.298968,13.14869,15.80781,14.36691,11.59815,10.21459,11.41797,14.54251,17.84859,19.80929,20.01776,19.2108,18.54066,18.70705,19.5575,20.35798,20.43268,19.64717,18.38913,17.1217,15.91868,14.38565,12.05155,8.920105,5.720298,3.597226,3.401771,5.066669,7.533568,9.336953,9.490127,8.089354,6.220475,5.220583,5.783102,7.510715,9.216834,9.767793,8.8859,7.357265,6.495236,7.222547,9.404863,11.90433,13.33681,13.03373,11.55757,10.40911,11.09724,14.16596,18.8116,23.33676,26.14597,26.63889,25.43768,23.82985,22.8287,22.50428,22.04545,20.51384,17.77371,14.92604,13.88391,16.27033,22.28575,30.26251,37.2468,40.35239,38.16255,31.41223,22.57335,14.58828,9.450734,7.401157,7.124357,6.761518,5.104231,2.275108,-0.460196,-1.581342,-0.3298509,2.765562,6.157787,8.162932,7.915247,5.828259,3.307773,1.913823,2.48871,4.762656,7.636707,9.919509,11.02921,11.22448,11.25758,11.72709,12.59839,13.22821,12.86272,11.23622,8.807096,6.418726,4.597865,3.007613,0.531222,-3.941864,-10.46951,-17.46668,-22.10024,-21.61571,-14.9129,-3.423802,9.338308,19.43472,24.49397,24.90057,23.45359,23.64596,27.54498,34.51722,41.56038,45.05297,42.88889,35.7231,26.59998,19.19701,15.74189,15.82551,16.77739,15.31985,9.490444,-0.2827045,-11.49856,-20.99305,-26.53869,-27.72335,-25.7335,-22.36415,-18.98774,-16.10705,-13.62697,-11.46959,-9.972859,-9.754834,-11.17937,-13.88644,-16.80926,-18.73677,-19.05601,-18.14602,-17.10921,-16.98622,-17.96953,-19.15843,-19.05437,-16.50139,-11.47407,-5.20156,0.4612607,4.027402,5.125303,4.562747,3.712331,3.643274,4.550395,5.802067,6.509724,6.198411,5.129765,4.095398,3.861269,4.657154,6.044587,7.220191,7.523199,6.804645,5.441566,4.034472,3.027998,2.514807,2.322236,2.271657,2.389663,2.907799,4.058755,5.830792,7.871952,9.626511,10.62313,10.73181,10.23187,9.657917,9.525941,10.10022,11.31559,12.86433,14.36991,15.54351,16.26328,16.57327,16.63554,16.66098,16.83652,17.25166,17.85196,18.45021,18.81301,18.7889,18.40457,17.85803,17.40032,17.17686,17.14459,17.13324,17.02058,16.88979,17.03304,17.76291,19.14228,20.83183,22.1997,22.67277,22.11848,20.99883,20.14822,20.28345,21.53759,23.33534,24.71881,24.94331,23.96689,22.50792,21.61121,21.98492,23.53307,25.39133,26.45351,26.05717,24.39193,22.37433,21.08267,21.11926,22.30784,23.88622,25.03369,25.3543,25.00665,24.43731,23.9628,23.54116,22.90804,21.96063,21.06086,20.96664,22.37169,25.34153,29.05991,32.12829,33.30119,32.22297,29.69734,27.27995,26.42031,27.6568,30.34854,33.09543,34.56797,34.23111,32.5395,30.5306,29.12787,28.62004,28.62239,28.48761,27.83286,26.80255,25.89915,25.53462,25.64887,25.6897,24.98185,23.23687,20.8485,18.75616,17.94594,18.89595,21.30096,24.23894,26.6597,27.90239,27.95353,27.34292,26.78968,26.83078,27.62679,28.99395,30.5772,32.02749,33.09547,33.63892,33.59016,32.92621,31.63625,29.67294,26.89668,23.06283,17.91426,11.3792,3.783415,-4.070835,-11.0674,-16.1597,-18.8087,-19.2496,-18.42957,-17.62931,-17.94415,-19.8637,-23.11868,-26.82055,-29.7906,-30.93621,-29.56969,-25.62173,-19.72072,-13.09115,-7.226639,-3.365986,-1.944218,-2.29692,-2.858284,-1.870862,1.688376,7.463345,13.78013,18.47276,20.0684,18.6509,15.85252,13.91498,14.34207,16.96678,20.04209,21.35382,19.6949,15.76857,11.90103,10.66978,13.2516,18.51013,23.42812,24.68039,20.4436,11.38838,0.2897434,-9.480164,-15.66638,-18.07047,-18.25775,-18.34161,-19.67405,-22.23135,-24.96132,-26.71441,-27.06278,-26.47631,-25.84221,-25.77499,-26.26705,-26.91575,-27.48785,-28.3117,-30.12331,-33.43503,-37.90648,-42.26477,-44.95843,-45.18728,-43.61005,-42.17479,-43.05295,-47.28859,-54.01168,-60.77402,-64.8698,-64.8741,-61.4552,-56.95287,-53.95781,-53.75543,-55.57174,-57.06995,-55.77597,-50.57171,-42.37563,-33.64555,-27.03631,-24.00638,-24.13978,-25.48186,-25.6143,-22.84022,-16.89224,-8.915908,-0.8759621,5.247431,8.131837,7.482617,4.084442,-0.4209931,-3.996005,-4.85051,-2.116663,3.713964,10.86613,16.96342,20.08963,19.73035,17.07204,14.43375,14.07892,17.03579,22.57958,28.67411,33.119,34.7402,33.94856,32.36887,31.81032,33.19498,36.07044,38.92348,40.03761,38.35125,33.84082,27.31446,19.87258,12.44339,5.652795,-0.02053421,-4.088151,-6.152407,-6.275752,-5.344338,-5.055899,-7.353676,-13.49647,-23.25452,-34.7355,-45.03819,-51.46754,-52.70805,-49.35368,-43.52427,-37.79229,-33.99566,-32.54405,-32.51631,-32.41641,-31.11854,-28.4782,-25.32914,-22.93113,-22.22441,-23.30367,-25.36834,-27.12922,-27.42714,-25.74018,-22.34778,-18.11897,-14.07237,-10.94706,-8.985584,-7.996499,-7.611376,-7.55929,-7.789751,-8.383883,-9.333223,-10.36296,-10.95768,-10.62761,-9.279456,-7.452999,-6.218822,-6.709459,-9.48829,-14.10092,-19.10563,-22.64356,-23.30482,-20.84999,-16.38724,-11.88025,-9.217542,-9.322733,-11.76662,-15.06879,-17.50355,-17.96219,-16.41876,-13.79071,-11.33333,-9.944265,-9.766934,-10.26945,-10.68843,-10.53447,-9.857776,-9.152755,-9.001863,-9.700247,-11.07988,-12.61018,-13.68508,-13.91734,-13.28492,-12.07959,-10.71753,-9.530128,-8.637435,-7.945568,-7.246725,-6.36331,-5.26884,-4.136383,-3.290011,-3.070755,-3.666533,-4.981974,-6.623201,-8.025584,-8.679873,-8.349691,-7.165741,-5.541241,-3.956385,-2.735303,-1.94412,-1.459383,-1.143673,-0.9959038,-1.165021,-1.8174,-2.958051,-4.346561,-5.584587,-6.328006,-6.47892,-6.218541,-5.849708,-5.55831,-5.269519,-4.715942,-3.682876,-2.255852,-0.8742578,-0.1155351,-0.3252346,-1.334992,-2.479391,-2.939182,-2.219957,-0.4692262,1.580203,3.021475,3.293231,2.486416,1.250328,0.3640627,0.2523466,0.7537389,1.279313,1.244258,0.4810469,-0.6344005,-1.416448,-1.298713,-0.1760032,1.551356,3.235819,4.353173,4.741396,4.577698,4.15433,3.645448,3.038783,2.261652,1.373843,0.6463146,0.4365919,0.9351458,1.971235,3.040957,3.568066,3.239503,2.192361,0.9226863,-0.02727526,-0.3944668,-0.3172525,-0.1809251,-0.3061161,-0.7068506,-1.090718,-1.096511,-0.5925276,0.1869412,0.7731447,0.7744439,0.1461901,-0.7787524,-1.526904,-1.824334,-1.79441,-1.862072,-2.418687,-3.474864,-4.548722,-4.884636,-3.877054,-1.434319,1.945375,5.42676,8.252547,10.06403,10.9539,11.26713,11.32779,11.28767,11.17214,11.03095,11.02293,11.32836,11.94529,12.54841,12.57515,11.54278,9.409971,6.721143,4.385941,3.187418,3.317669,4.257871,5.113737,5.213965,4.580411,3.933182,4.185987,5.736615,8.031017,9.743571,9.53762,6.981127,3.04272,-0.1994326,-0.551264,3.116479,10.15909,18.34004,24.83432,27.53078,25.95396,21.35217,15.9621,11.89237,10.22491,10.75358,12.38922,13.90657,14.57815,14.38329,13.77419,13.23475,12.94072,12.70846,12.20459,11.23288,9.896256,8.545714,7.577199,7.221371,7.453682,8.052439,8.738235,9.29696,9.621421,9.682248,9.478214,9.017614,8.335159,7.514704,6.681183,5.956083,5.407614,5.036389,4.809692,4.716151,4.792116,5.089776,5.605655,6.22818,6.759672,7.019307,6.969999,6.780433,6.762805,7.204436,8.186786,9.509128,10.77782,11.62287,11.91621,11.85511,11.8484,12.26428,13.18851,14.34486,15.2369,15.4364,14.8509,13.80778,12.89548,12.64864,13.25407,14.44896,15.67028,16.36853,16.30704,15.67909,14.98608,14.75743,15.27677,16.46328,17.95498,19.32129,20.26721,20.71911,20.77032,20.56006,20.18856,19.72306,19.26972,19.02013,19.20255,19.94048,21.11085,22.31889,23.04773,22.92122,21.92933,20.46394,19.11485,18.33113,18.14498,18.13794,17.68733,16.35483,14.18489,11.72482,9.743768,8.816726,9.020436,9.920466,10.84401,11.25812,11.01443,10.32101,9.488918,8.651909,7.667884,6.27329,4.375465,2.255977,0.5104222,-0.2701661,0.1202354,1.320849,2.567793,3.127015,2.732193,1.743772,0.9137895,0.8952777,1.806627,3.136049,4.055354,3.947121,2.804336,1.240286,0.09691109,-0.09655204,0.5381538,1.316899,1.454431,0.5992726,-0.9078005,-2.224516,-2.529475,-1.543543,0.2809736,2.020074,2.816832,2.355941,0.9832128,-0.58408,-1.746266,-2.382292,-2.856875,-3.692441,-5.147915,-6.997615,-8.658269,-9.569904,-9.566773,-8.986143,-8.446276,-8.448572,-9.070885,-9.951007,-10.55532,-10.5374,-9.942506,-9.133042,-8.510022,-8.244216,-8.21032,-8.158769,-7.976122,-7.818306,-7.993622,-8.667867,-9.614941,-10.22949,-9.847828,-8.198091,-5.68063,-3.259153,-1.981047,-2.394037,-4.214973,-6.469631,-8.036752,-8.277104,-7.368474,-6.150167,-5.583149,-6.170016,-7.694974,-9.432363,-10.66848,-11.18428,-11.37943,-11.96128,-13.41154,-15.592,-17.75894,-18.98863,-18.74392,-17.21772,-15.22845,-13.73017,-13.24695,-13.58691,-14.01293,-13.75386,-12.52629,-10.73233,-9.212179,-8.71114,-9.402345,-10.76545,-11.89435,-12.03845,-11.04256,-9.421862,-8.041019,-7.607331,-8.288692,-9.672628,-11.06178,-11.89793,-12.04731,-11.79123,-11.56459,-11.64,-11.96879,-12.26666,-12.25856,-11.89837,-11.40655,-11.10617,-11.18003,-11.52432,-11.80433,-11.67703,-11.02804,-10.06064,-9.17254,-8.697842,-8.685143,-8.856483,-8.779209,-8.144142,-6.977608,-5.658489,-4.730711,-4.623968,-5.443017,-6.935315,-8.637633,-10.10423,-11.08815,-11.59396,-11.8035,-11.94102,-12.1593,-12.49152,-12.86563,-13.14983,-13.20128,-12.90718,-12.22186,-11.19322,-9.960989,-8.71083,-7.592383,-6.643765,-5.775774,-4.841799,-3.761674,-2.617336,-1.641586,-1.08306,-1.020641,-1.254435,-1.371525,-0.9788067,0.02450944,1.31311,2.255369,2.250237,1.098517,-0.8195154,-2.688468,-3.664607,-3.31954,-1.862353,-0.008260927,1.426159,1.95641,1.635093,0.9215529,0.3240048,0.06187943,-0.02973906,-0.3050241,-0.9757463,-1.890838,-2.595534,-2.638639,-1.914229,-0.7867795,0.1107279,0.2914052,-0.2323282,-0.9066881,-0.9587376,0.1087176,2.167659,4.497687,6.194315,6.698167,6.105927,5.062133,4.306565,4.184502,4.456088,4.544579,4.060697,3.23706,2.941965,4.204463,7.511618,12.31775,17.11244,20.0718,19.95994,16.77984,11.79659,6.908192,3.710743,2.767718,3.468092,4.511031,4.705761,3.619969,1.730177,0.03650919,-0.5899782,0.06755174,1.46,2.598535,2.595623,1.103938,-1.568488,-4.68071,-7.448425,-9.369507,-10.33562,-10.52786,-10.21811,-9.618352,-8.852229,-8.022089,-7.279754,-6.824122,-6.814324,-7.258435,-7.962219,-8.588434,-8.807764,-8.463752,-7.662941,-6.737802,-6.097501,-6.03626,-6.590348,-7.509976,-8.35932,-8.700312,-8.280568,-7.141613,-5.600225,-4.108358,-3.052685,-2.584353,-2.558764,-2.615252,-2.360938,-1.571066,-0.309489,1.088209,2.158566,2.510246,1.986475,0.7220004,-0.9176844,-2.471719,-3.527117,-3.815755,-3.247423,-1.892885,0.05611408,2.333127,4.645641,6.727352,8.386161,9.530714,10.15964,10.3182,10.04867,9.37231,8.318918,6.988996,5.597395,4.452053,3.853995,3.959461,4.678799,5.67831,6.498322,6.73763,6.215709,5.037672,3.539136,2.150031,1.245924,1.044755,1.568697,2.656783,4.005478,5.22976,5.951118,5.911325,5.080914,3.703998,2.228888,1.127739,0.6798671,0.8354413,1.248093,1.472923,1.222713,0.5291636,-0.2940073,-0.8662152,-0.99534,-0.8024621,-0.6272612,-0.7733013,-1.270009,-1.828135,-2.040364,-1.703886,-1.038571,-0.6204339,-1.031587,-2.429179,-4.321689,-5.738797,-5.742511,-3.995485,-1.034253,1.953705,3.757828,3.829049,2.614622,1.325562,1.248814,2.990605,6.089333,9.228486,10.93608,10.37871,7.809089,4.430368,1.770327,0.9218169,2.055716,4.433513,6.860704,8.297216,8.297982,7.094378,5.347211,3.763087,2.793598,2.537802,2.829438,3.400336,4.0116,4.508152,4.817839,4.939449,4.937103,4.925627,5.023274,5.278358,5.615877,5.855127,5.810287,5.421574,4.828141,4.317794,4.166098,4.457097,5.002956,5.425032,5.358182,4.657314,3.481374,2.203865,1.210104,0.7072513,0.6564546,0.8473859,1.039961,1.062529,0.8049384,0.1391496,-1.132246,-3.214171,-6.148747,-9.643518,-13.04091,-15.50262,-16.35028,-15.38628,-13.00869,-10.03852,-7.342056,-5.452923,-4.396076,-3.795857,-3.181135,-2.293399,-1.219185,-0.2919174,0.1454569,-0.04910244,-0.7610559,-1.728785,-2.718415,-3.633471,-4.49271,-5.315619,-6.022398,-6.438351,-6.40675,-5.923936,-5.186914,-4.503525,-4.117904,-4.070094,-4.192742,-4.252456,-4.139907,-3.973941,-4.039778,-4.596391,-5.681057,-7.045797,-8.273446,-9.00035,-9.102253,-8.724879,-8.150401,-7.59908,-7.105866,-6.549937,-5.801166,-4.861878,-3.890134,-3.082021,-2.504976,-2.017012,-1.351165,-0.3202317,1.003503,2.278626,3.090967,3.244056,2.947071,2.751728,3.244978,4.671124,6.721729,8.643374,9.62187,9.227957,7.660867,5.6457,4.043431,3.403165,3.711319,4.466476,5.010526,4.902943,4.120443,2.990208,1.934386,1.206751,0.7828831,0.446625,-0.01287784,-0.6374152,-1.270908,-1.666781,-1.646777,-1.20901,-0.5316456,0.1101855,0.4566162,0.3543229,-0.1887695,-0.9795411,-1.650365,-1.730181,-0.7985901,1.302781,4.295866,7.45457,9.827885,10.64138,9.687613,7.478685,5.034407,3.384138,3.042312,3.759948,4.708395,4.99755,4.221846,2.701533,1.271682,0.7542729,1.451214,2.981992,4.564805,5.548031,5.833952,5.908835,6.460114,7.842776,9.764042,11.41268,11.95799,11.08959,9.233554,7.293068,6.083234,5.839911,6.13307,6.241269,5.724004,4.787142,4.172033,4.629692,6.335832,8.663097,10.49787,10.9214,9.816016,7.985808,6.689004,6.86478,8.546165,10.83671,12.46575,12.56303,11.1547,9.07523,7.376079,6.643485,6.681377,6.756427,6.209194,4.987529,3.715707,3.243602,3.990825,5.557954,6.904919,7.008945,5.572666,3.296077,1.497199,1.297971,2.89064,5.36716,7.242081,7.353932,5.582435,2.929023,0.9094319,0.637854,2.170352,4.502418,6.200872,6.260106,4.652795,2.261549,0.2746101,-0.544739,-0.2594763,0.3867213,0.5216791,-0.2778911,-1.747254,-3.151177,-3.778461,-3.378201,-2.273106,-1.11644,-0.484159,-0.5712018,-1.156007,-1.803342,-2.131999,-1.969084,-1.329888,-0.2991525,1.053684,2.651727,4.320773,5.745736,6.559213,6.537652,5.777809,4.711975,3.915847,3.804535,4.399659,5.317095,5.990211,5.995805,5.28636,4.198755,3.252013,2.872888,3.215374,4.157305,5.432052,6.774527,7.979077,8.859485,9.191267,8.731378,7.341976,5.143307,2.569407,0.2471963,-1.266184,-1.745935,-1.402738,-0.7568138,-0.3535369,-0.4896958,-1.10841,-1.908543,-2.576897,-2.980418,-3.197332,-3.386678,-3.610495,-3.751235,-3.591756,-3.002127,-2.094223,-1.221662,-0.8072844,-1.100589,-2.020163,-3.185652,-4.123043,-4.519944,-4.380218,-3.997146,-3.777153,-4.03076,-4.848353,-6.108967,-7.581093,-9.030712,-10.27297,-11.16549,-11.59193,-11.4801,-10.85499,-9.877667,-8.815269,-7.933436,-7.366974,-7.056211,-6.803332,-6.422511,-5.888021,-5.374364,-5.150596,-5.390845,-6.027241,-6.7531,-7.186606,-7.096445,-6.540656,-5.822773,-5.286995,-5.084123,-5.066374,-4.888269,-4.25675,-3.170957,-1.990767,-1.276575,-1.486101,-2.705119,-4.571776,-6.437541,-7.66966,-7.923261,-7.242527,-5.962672,-4.502626,-3.18637,-2.185691,-1.578072,-1.429925,-1.810507,-2.710205,-3.930468,-5.057457,-5.590686,-5.19157,-3.918449,-2.289956,-1.100838,-1.054594,-2.397549,-4.756711,-7.28554,-9.055108,-9.491328,-8.631103,-7.067183,-5.623588,-4.943495,-5.211386,-6.14066,-7.202446,-7.939548,-8.177037,-8.024934,-7.704602,-7.339455,-6.858383,-6.073895,-4.869834,-3.356048,-1.868923,-0.8027384,-0.3763749,-0.4927106,-0.7924832,-0.878115,-0.5653465,0.004577382,0.4723195,0.5220069,0.1225443,-0.4198532,-0.6462212,-0.2544842,0.670964,1.672695,2.185489,1.891367,0.9329224,-0.1655162,-0.8327433,-0.8327462,-0.4433894,-0.303227,-1.008826,-2.709798,-4.958132,-6.913192,-7.78241,-7.235475,-5.552171,-3.440818,-1.665086,-0.7201943,-0.7320802,-1.580328,-3.089059,-5.107332,-7.421627,-9.611341,-11.03983,-11.09001,-9.555434,-6.930297,-4.340246,-3.055645,-3.812049,-6.337042,-9.412017,-11.49579,-11.58245,-9.789507,-7.301899,-5.676782,-5.908156,-7.814131,-10.12632,-11.23694,-10.15738,-7.113523,-3.428686,-0.7825105,-0.3043995,-2.036862,-5.047945,-8.059781,-10.15997,-11.16002,-11.43961,-11.47284,-11.42142,-11.08804,-10.2288,-8.942206,-7.789373,-7.500518,-8.439963,-10.20793,-11.70152,-11.66006,-9.390908,-5.226123,-0.4117703,3.520023,5.523241,5.49989,4.202909,2.687005,1.682526,1.281013,1.08309,0.6438056,-0.1289125,-0.8978452,-1.165231,-0.6607578,0.4481442,1.670975,2.531963,2.865179,2.842391,2.723357,2.539591,1.985609,0.637194,-1.641919,-4.416966,-6.781572,-7.839808,-7.281837,-5.652643,-4.080436,-3.580846,-4.359553,-5.580736,-5.804594,-3.873646,0.2785616,5.412907,9.539816,10.95565,9.169474,5.184553,0.9710937,-1.560867,-1.502094,0.7131084,3.7052,6.000641,6.815912,6.343872,5.443147,4.990088,5.318358,6.066768,6.47345,5.883461,4.140062,1.645665,-0.8946189,-2.84878,-3.919538,-4.171843,-3.871474,-3.284021,-2.568899,-1.80125,-1.051761,-0.423441,-0.0001585653,0.2499885,0.5228017,1.110691,2.236977,3.887689,5.753412,7.332956,8.154676,7.998786,7.002013,5.592155,4.293034,3.50306,3.355644,3.716448,4.299527,4.830701,5.17453,5.369787,5.569401,5.925189,6.481844,7.13693,7.690845,7.963321,7.914747,7.69947,7.60659,7.904604,8.66614,9.676374,10.4945,10.65716,9.925295,8.437489,6.674007,5.237318,4.563121,4.721593,5.418417,6.189114,6.664209,6.74516,6.590599,6.437672,6.389807,6.32114,5.966841,5.140037,3.925505,2.707894,1.99761,2.148082,3.135722,4.541608,5.75493,6.286161,6.014864,5.236774,4.494288,4.292801,4.859129,6.058056,7.487889,8.683245,9.313604,9.292678,8.774368,8.063984,7.496526,7.323642,7.636646,8.338107,9.1738,9.822256,10.01905,9.663644,8.853779,7.820494,6.794713,5.885378,5.049582,4.181213,3.261616,2.461969,2.104673,2.479728,3.6181,5.172498,6.511042,7.00174,6.341456,4.735636,2.811843,1.301409,0.6654263,0.8763441,1.477021,1.873224,1.679417,0.9147851,-0.05330066,-0.7626522,-0.9355295,-0.6110756,-0.0640398,0.4155421,0.7241223,0.9936346,1.463042,2.266361,3.283639,4.156106,4.461179,3.944959,2.680453,1.068408,-0.3128665,-0.9290002,-0.4819956,0.9947996,3.155736,5.452993,7.298753,8.240406,8.106994,7.079862,5.646536,4.430472,3.948114,4.395288,5.57215,6.996953,8.159218,8.778955,8.926452,8.933757,9.151286,9.699138,10.36477,10.71011,10.31799,9.023442,6.991179,4.604499,2.254705,0.1774323,-1.562613,-2.952197,-3.8911,-4.165224,-3.576017,-2.144921,-0.2356604,1.528384,2.542649,2.546853,1.79379,0.9367538,0.6780453,1.374335,2.832025,4.418281,5.425248,5.471567,4.703958,3.682272,3.025464,3.035096,3.521173,3.926839,3.667748,2.480599,0.5801379,-1.452672,-2.97187,-3.580657,-3.293856,-2.488262,-1.699664,-1.392414,-1.808289,-2.930752,-4.529684,-6.231318,-7.585256,-8.143788,-7.578942,-5.828052,-3.204145,-0.3809218,1.799086,2.651146,1.970133,0.1747714,-1.833715,-3.065436,-2.912666,-1.45929,0.5434473,2.042953,2.219389,0.9171584,-1.254639,-3.212142,-3.933837,-2.96939,-0.6593006,2.042981,4.044484,4.627483,3.737588,1.911516,-0.08879811,-1.709789,-2.858327,-3.8423,-5.060225,-6.649973,-8.325179,-9.50722,-9.67273,-8.701406,-7.002399,-5.331984,-4.403233,-4.515765,-5.422699,-6.506745,-7.151807,-7.081701,-6.46644,-5.749581,-5.324539,-5.278712,-5.36982,-5.241081,-4.719672,-3.987501,-3.494698,-3.65856,-4.535347,-5.682295,-6.315557,-5.692028,-3.504617,-0.06994928,3.793518,7.125186,9.223619,9.88789,9.402753,8.316442,7.156316,6.229558,5.578607,5.064011,4.494132,3.728475,2.725674,1.549473,0.3515269,-0.6652833,-1.312286,-1.503299,-1.324364,-1.025174,-0.8982003,-1.082542,-1.401833,-1.36078,-0.3569499,1.963887,5.389867,9.062314,11.7268,12.23592,10.07405,5.639999,0.1348427,-4.902133,-8.193437,-9.1862,-8.187252,-6.151256,-4.258073,-3.483605,-4.324193,-6.729794,-10.20497,-13.99649,-17.3018,-19.46686,-20.15429,-19.4427,-17.81013,-15.96702,-14.57556,-13.96443,-13.98367,-14.08966,-13.63767,-12.23572,-9.969131,-7.367449,-5.131882,-3.778247,-3.40242,-3.698858,-4.210189,-4.645011,-5.062337,-5.807452,-7.240492,-9.431078,-12.0157,-14.31721,-15.66887,-15.75998,-14.80714,-13.45429,-12.45631,-12.32005,-13.08813,-14.36674,-15.56126,-16.17936,-16.0434,-15.31934,-14.37773,-13.58651,-13.14993,-13.06695,-13.19748,-13.3736,-13.4784,-13.45382,-13.25521,-12.80477,-11.99384,-10.74432,-9.093464,-7.240041,-5.508564,-4.2314,-3.602743,-3.580454,-3.892589,-4.151166,-4.017689,-3.336653,-2.172967,-0.744424,0.7007498,1.98622,3.035511,3.8283,4.336071,4.500317,4.278732,3.726487,3.041482,2.515997,2.399855,2.750181,3.369647,3.893023,3.990731,3.573964,2.869708,2.304509,2.251973,2.793914,3.64739,4.315105,4.377729,3.752992,2.75811,1.93046,1.711966,2.190768,3.060852,3.825498,4.117292,3.933783,3.641602,3.74757,4.580071,6.077171,7.806149,9.194639,9.826246,9.626582,8.847444,7.886934,7.076756,6.566647,6.348447,6.360123,6.563212,6.926795,7.341519,7.556881,7.229604,6.090625,4.1415,1.746297,-0.4645427,-1.852836,-2.063148,-1.188312,0.2782527,1.672408,2.44409,2.354357,1.509165,0.2514445,-0.9996899,-1.877433,-2.130056,-1.641411,-0.4463167,1.251663,3.093629,4.650559,5.579179,5.784478,5.490875,5.156938,5.255743,6.031796,7.3718,8.866904,10.03175,10.55142,10.41259,9.854291,9.186601,8.604817,8.11655,7.610362,6.995378,6.296429,5.634802,5.116126,4.72382,4.310982,3.708416,2.869596,1.935304,1.15489,0.7089309,0.5647161,0.4879982,0.2293313,-0.2341238,-0.5866202,-0.3148599,0.9399409,3.024715,5.165205,6.238311,5.332202,2.299736,-2.028402,-6.142431,-8.55213,-8.532085,-6.506576,-3.848734,-2.179105,-2.530142,-4.818158,-7.902681,-10.19396,-10.47993,-8.53247,-5.186354,-1.871441,0.1297091,0.3004081,-0.9280506,-2.493099,-3.314149,-2.860762,-1.38312,0.28422,1.20353,0.8199359,-0.8034276,-3.097239,-5.341207,-7.036164,-8.080252,-8.672902,-9.04143,-9.190755,-8.853407,-7.683411,-5.574808,-2.893559,-0.4481588,0.8256873,0.3182442,-1.907687,-5.078473,-8.020223,-9.669985,-9.530162,-7.839712,-5.392815,-3.119526,-1.659531,-1.140994,-1.2465,-1.485501,-1.495188,-1.203263,-0.7902807,-0.5116966,-0.50852,-0.7176638,-0.9151424,-0.8428633,-0.3340206,0.6261191,1.914428,3.328515,4.649683,5.690495,6.328445,6.530424,6.361233,5.961361,5.489395,5.053812,4.677483,4.326172,3.987725,3.741455,3.74747,4.134773,4.846062,5.553954,5.743304,4.959616,3.103142,0.5892504,-1.751909,-3.018993,-2.656942,-0.7194355,2.17069,5.137074,7.451237,8.790325,9.225205,8.996105,8.266942,7.043888,5.306028,3.222473,1.253293,0.009400704,-0.07132163,0.9838098,2.644607,4.16093,5.007327,5.199288,5.253665,5.797298,7.074022,8.69178,9.808659,9.668997,8.148148,5.935625,4.203092,3.937541,5.351412,7.746906,9.929103,10.91094,10.46531,9.179707,7.996651,7.557615,7.788973,7.998939,7.404753,5.722132,3.414561,1.434552,0.637357,1.261649,2.817109,4.432261,5.40457,5.571286,5.267678,4.946552,4.778001,4.553864,3.980306,3.132282,2.68798,3.69094,6.917476,12.23721,18.4163,23.56644,26.03641,25.24277,21.94724,17.8099,14.48685,12.80072,12.45662,12.41573,11.64172,9.730674,7.058563,4.419312,2.453257,1.266173,0.4652833,-0.4685288,-1.774512,-3.2665,-4.526764,-5.263456,-5.549054,-5.761939,-6.287761,-7.218488,-8.282617,-9.059503,-9.311116,-9.171322,-9.043629,-9.278431,-9.878106,-10.46361,-10.54336,-9.889725,-8.731565,-7.592235,-6.863995,-6.421642,-5.584208,-3.505316,0.2288583,5.188658,10.17666,13.78489,15.10897,14.18461,11.88327,9.352649,7.372841,6.033168,4.900382,3.508506,1.795776,0.1779999,-0.7697382,-0.760744,-0.02236371,0.8752128,1.45224,1.668973,1.897919,2.511472,3.393623,3.787039,2.678442,-0.4648771,-5.098944,-9.618072,-12.09106,-11.34364,-7.732197,-3.084757,0.2279104,0.5798052,-2.020696,-5.977028,-9.058949,-9.684174,-7.752784,-4.554029,-1.852835,-0.7683067,-1.159747,-1.87802,-1.66701,-0.08659884,2.159807,3.695417,3.4042,1.196127,-1.904036,-4.392786,-5.21959,-4.402571,-2.940444,-2.106103,-2.60569,-4.156502,-5.737472,-6.315033,-5.542864,-3.975121,-2.674869,-2.50284,-3.568132,-5.189515,-6.361303,-6.387168,-5.260769,-3.571407,-2.050431,-1.104018,-0.6541967,-0.3612587,-0.0155888,0.2286449,-0.02696502,-1.036659,-2.557002,-3.828525,-3.962542,-2.507135,0.1868571,3.071137,4.946115,5.122196,3.782885,1.822085,0.264224,-0.3567997,-0.2650793,-0.2003818,-0.848343,-2.335468,-4.128043,-5.395766,-5.587313,-4.823329,-3.837794,-3.502233,-4.245741,-5.755359,-7.155972,-7.55725,-6.616692,-4.76092,-2.929166,-2.006853,-2.306684,-3.4132,-4.471192,-4.722419,-3.95535,-2.606573,-1.479916,-1.278554,-2.237013,-4.048678,-6.087286,-7.751843,-8.720174,-8.992412,-8.753805,-8.193607,-7.40751,-6.427663,-5.319692,-4.248959,-3.454703,-3.149584,-3.415399,-4.161053,-5.157693,-6.115963,-6.758111,-6.870132,-6.349892,-5.270161,-3.933182,-2.853409,-2.608654,-3.574871,-5.660124,-8.209929,-10.20201,-10.69686,-9.338349,-6.623654,-3.753332,-2.088911,-2.482782,-4.838828,-8.154658,-11.03396,-12.39015,-11.95489,-10.32006,-8.517016,-7.400872,-7.206635,-7.518967,-7.63519,-7.064826,-5.843939,-4.48131,-3.595858,-3.498089,-3.98814,-4.491227,-4.429975,-3.588538,-2.243042,-0.9911386,-0.4038447,-0.7205979,-1.760492,-3.072993,-4.205384,-4.911453,-5.191925,-5.18119,-4.990522,-4.6241,-4.009908,-3.097307,-1.930451,-0.6395378,0.636059,1.82427,2.933785,3.996394,4.988541,5.798333,6.264161,6.254881,5.729104,4.735346,3.367308,1.728058,-0.05536861,-1.781544,-3.154877,-3.858828,-3.716348,-2.843374,-1.668445,-0.7531745,-0.4824363,-0.8067439,-1.224066,-1.058909,0.09823967,2.058501,4.044322,5.080493,4.561152,2.650969,0.2550631,-1.457044,-1.709267,-0.5695574,1.081002,2.045962,1.481036,-0.6618615,-3.658568,-6.454317,-8.224192,-8.711454,-8.180408,-7.092173,-5.780101,-4.361612,-2.907911,-1.670399,-1.103433,-1.580448,-2.965218,-4.373168,-4.394638,-1.766607,3.845337,11.43307,18.91281,23.99713,25.22508,22.58416,17.39057,11.52744,6.513028,2.948017,0.6146054,-0.9280553,-1.724141,-1.237928,1.25405,5.969621,12.12871,18.05173,21.858,22.37654,19.7299,15.23912,10.71295,7.547193,6.150952,5.987144,6.12209,5.88342,5.206293,4.496702,4.175413,4.262155,4.297413,3.640375,1.916549,-0.7034798,-3.579263,-5.963539,-7.39703,-7.879107,-7.734003,-7.308744,-6.742561,-5.965697,-4.897958,-3.659162,-2.600893,-2.11503,-2.358409,-3.111869,-3.902367,-4.320368,-4.30939,-4.207388,-4.490245,-5.387064,-6.645182,-7.63424,-7.74596,-6.826124,-5.333067,-4.084508,-3.736768,-4.334596,-5.244263,-5.53986,-4.608552,-2.582715,-0.303678,1.179092,1.263148,0.1815834,-1.134518,-1.642848,-0.8584395,0.8224844,2.353911,2.685378,1.416279,-0.951121,-3.31746,-4.656988,-4.633258,-3.778805,-3.131753,-3.558596,-5.178945,-7.24169,-8.523499,-8.012554,-5.48235,-1.637667,2.227499,4.85135,5.561378,4.49261,2.401289,0.2266849,-1.340448,-2.072958,-2.147449,-1.904666,-1.598636,-1.268618,-0.7700961,0.09495309,1.44668,3.265655,5.410638,7.674889,9.829623,11.63138,12.81192,13.09228,12.25164,10.2442,7.310192,4.007751,1.114677,-0.5976379,-0.6426168,0.9685502,3.688495,6.610923,8.804909,9.666725,9.129487,7.634677,5.883046,4.495247,3.755349,3.561003,3.587523,3.552159,3.413596,3.387194,3.773687,4.713705,6.027521,7.247256,7.831899,7.44636,6.146072,4.364349,2.709795,1.683908,1.464324,1.854035,2.404986,2.639735,2.260866,1.260287,-0.1013911,-1.419783,-2.317193,-2.594247,-2.309298,-1.755338,-1.334715,-1.372924,-1.94756,-2.819908,-3.523535,-3.587616,-2.794553,-1.329976,0.2733997,1.389606,1.622354,1.015306,0.0206365,-0.7649867,-0.9453261,-0.5434728,0.03972403,0.299937,-0.03565497,-0.8288786,-1.621372,-1.935441,-1.587011,-0.8007358,-0.05030724,0.2733462,0.1431187,-0.06738375,0.1765942,1.205724,2.896004,4.702114,5.963295,6.292346,5.806254,5.052605,4.681014,5.063343,6.090685,7.257472,7.96289,7.834966,6.89072,5.463758,3.980357,2.741516,1.833972,1.187524,0.6973146,0.3091746,0.02341555,-0.1459498,-0.1854778,-0.03586576,0.4720607,1.610626,3.622221,6.501977,9.830941,12.80359,14.49707,14.27855,12.13918,8.758172,5.238783,2.640615,1.546067,1.876191,3.025629,4.212849,4.842259,4.702079,3.94398,2.918459,1.9946,1.454251,1.465295,2.079885,3.213041,4.61566,5.901959,6.674916,6.717302,6.139244,5.364359,4.922771,5.14817,5.962255,6.898501,7.375671,7.066381,6.127256,5.129469,4.714596,5.182617,6.275823,7.308018,7.573244,6.783812,5.262449,3.760455,3.007235,3.264158,4.154969,4.873633,4.642337,3.145522,0.6921464,-1.96988,-4.05696,-5.128096,-5.236084,-4.80375,-4.337597,-4.162689,-4.313934,-4.600683,-4.760254,-4.591119,-4.006774,-3.023595,-1.733599,-0.2946115,1.074665,2.131119,2.689577,2.713529,2.34613,1.8362,1.384936,1.006875,0.5076231,-0.3876256,-1.823105,-3.656427,-5.471945,-6.774191,-7.252318,-6.95091,-6.237905,-5.586229,-5.307014,-5.40143,-5.617023,-5.658622,-5.404723,-4.984545,-4.673687,-4.6939,-5.063882,-5.604431,-6.084179,-6.389699,-6.588398,-6.836816,-7.207308,-7.57305,-7.653436,-7.203258,-6.214425,-4.975046,-3.920501,-3.358882,-3.251064,-3.205597,-2.713308,-1.483582,0.3330023,2.188447,3.432297,3.680204,3.026357,1.967144,1.084877,0.6927491,0.6623405,0.5362275,-0.1541519,-1.570868,-3.44911,-5.23909,-6.409517,-6.719761,-6.302393,-5.5292,-4.768928,-4.200701,-3.788459,-3.405566,-2.998075,-2.662748,-2.587229,-2.903716,-3.567929,-4.354031,-4.973651,-5.240493,-5.17343,-4.97171,-4.879949,-5.029141,-5.350046,-5.608278,-5.537419,-4.994032,-4.052106,-2.991516,-2.18946,-1.964719,-2.441038,-3.483653,-4.737115,-5.756702,-6.189729,-5.934849,-5.2027,-4.433209,-4.089767,-4.422443,-5.326064,-6.384641,-7.09571,-7.1577,-6.65002,-5.982988,-5.629442,-5.792255,-6.222915,-6.332125,-5.555634,-3.767692,-1.475776,0.3586564,0.8074327,-0.495931,-3.102826,-5.942933,-7.874988,-8.286291,-7.391058,-6.050847,-5.223574,-5.374184,-6.202983,-6.855376,-6.480573,-4.79278,-2.286469,0.02895319,1.215655,0.9586362,-0.25042,-1.404715,-1.570818,-0.4235341,1.582197,3.487576,4.374971,3.857996,2.245452,0.3178899,-1.11831,-1.62466,-1.261112,-0.42512,0.4523396,1.142532,1.653168,2.081537,2.429685,2.534619,2.169177,1.235385,-0.1014664,-1.452971,-2.415262,-2.816318,-2.835943,-2.906026,-3.438209,-4.541594,-5.908677,-6.95155,-7.120715,-6.22667,-4.579882,-2.86728,-1.832101,-1.930875,-3.146612,-5.04166,-6.999904,-8.514732,-9.371198,-9.651361,