Bandpass,0,0.47541,1691.04163,-13814.4678,-20364.5938,-16824.8438,-6760.62158,3034.927,6785.66309,3412.94653,-3122.44434,-7012.98682,-4915.79492,1765.26404,8173.19287,9749.71973,5592.54053,-1015.53644,-5165.3125,-3962.01123,1458.49231,6939.37695,8469.6582,5103.31396,-487.340027,-4122.69922,-3233.05811,1336.9353,6095.01563,7566.04395,4826.56104,65.6544495,-3149.79907,-2538.33936,1288.52271,5400.52393,6789.14648,4566.00781,517.093201,-2318.7561,-1922.50891,1277.05579,4824.50781,6118.95801,4318.11865,874.986877,-1623.91675,-1395.9364,1272.61572,4326.97754,5521.56494,4067.1123,1142.39282,-1052.70288,-947.391052,1281.60901,3916.0293,5017.60156,3851.73145,1370.11047,-558.218689,-551.000305,1300.40515,3562.98364,4567.02295,3634.83301,1531.28845,-158.076202,-220.216812,1316.83838,3259.33545,4170.33105,3428.83789,1646.77405,167.91394,55.0424614,1326.95032,2990.9292,3811.86401,3224.18091,1714.93054,421.878143,274.554657,1325.21057,2749.45483,3486.52539,3023.76343,1746.52576,617.415527,448.482208,1315.38123,2534.65503,3195.83813,2835.6604,1756.18958,770.55542,587.083923,1297.15833,2335.86108,2923.19067,2642.68115,1729.18408,868.713501,677.976929,1257.50476,2141.16846,2661.38745,2445.17334,1673.29126,923.910095,733.18335,1205.88525,1957.98901,2418.42261,2253.97534,1601.89673,948.985657,761.001892,1143.81641,1782.11011,2188.06812,2064.90479,1514.91089,947.105591,765.173279,1073.10657,1612.5686,1967.44312,1874.50818,1408.82849,914.087036,739.919678,986.421265,1441.96252,1751.22253,1680.7467,1284.01062,849.9823,682.194702,876.89801,1262.09326,1534.78064,1487.56421,1155.42859,779.2453,620.817017,770.991882,1091.11401,1324.55713,1289.37012,1007.83887,681.212219,534.890991,652.789612,922.233582,1124.73743,1100.00464,860.273499,573.784058,435.208374,522.555725,745.51947,918.875122,901.827332,698.719055,449.353668,320.904602,384.660767,568.230103,714.745789,701.139343,526.5578,307.708801,188.617432,234.396393,387.226349,513.912231,506.285614,358.894623,168.338287,58.2252312,87.8040314,211.637344,317.453979,311.071472,184.326523,17.2002583,-84.4853363,-67.4684372,32.3896561,120.215569,113.987419,3.85991907,-143.791473,-238.121887,-231.141098,-150.802567,-77.2319336,-81.9596024,-176.13681,-305.121704,-391.32782,-391.920105,-328.582794,-268.853912,-274.777222,-357.787659,-472.494049,-552.207092,-558.47522,-507.88562,-457.581848,-461.874359,-532.851624,-633.524597,-707.044006,-719.063904,-681.761169,-642.804565,-648.888428,-711.58374,-800.344116,-866.590759,-879.946167,-849.644775,-816.140564,-820.326355,-873.778015,-951.662354,-1012.46832,-1028.98645,-1007.4563,-981.459778,-986.146912,-1032.47437,-1100.24573,-1154.19458,-1170.36035,-1153.07153,-1130.57922,-1133.48157,-1172.4325,-1231.40125,-1280.66687,-1299.15295,-1289.37183,-1274.40991,-1279.98279,-1315.3645,-1367.1991,-1410.16846,-1425.99316,-1416.52014,-1401.59192,-1403.90442,-1432.46289,-1476.75146,-1515.37622,-1532.20581,-1527.87512,-1518.45459,-1522.84387,-1548.63806,-1586.92053,-1619.45056,-1632.48047,-1626.80164,-1616.77832,-1619.46375,-1642.10229,-1677.18018,-1708.34521,-1722.47937,-1718.93909,-1709.40845,-1708.89355,-1724.77625,-1751.927,-1777.11426,-1789.0509,-1786.50989,-1778.70557,-1778.04346,-1790.8894,-1813.19006,-1833.91968,-1843.48669,-1840.73975,-1833.51294,-1832.58142,-1843.70142,-1863.60693,-1882.70032,-1892.20142,-1890.38586,-1883.45264,-1880.65527,-1887.49475,-1901.98291,-1916.5022,-1923.61401,-1921.39453,-1914.46619,-1910.22803,-1913.30725,-1922.3822,-1931.56531,-1935.07507,-1931.57629,-1924.99487,-1921.36731,-1924.2356,-1932.06519,-1939.52075,-1941.51489,-1936.93274,-1929.29749,-1923.99219,-1924.20557,-1928.62622,-1932.52246,-1931.30103,-1923.86536,-1913.33057,-1904.67761,-1901.15845,-1902.09949,-1903.61755,-1901.58521,-1894.59216,-1884.76135,-1875.95288,-1870.81018,-1868.87671,-1867.11353,-1862.31909,-1853.57373,-1842.89087,-1833.65417,-1828.06726,-1825.52917,-1823.09814,-1817.64014,-1808.04199,-1795.88708,-1784.17847,-1775.1272,-1768.65564,-1762.66052,-1754.73755,-1744.01172,-1731.70251,-1720.05786,-1710.52698,-1702.5918,-1694.14282,-1683.10559,-1669.08264,-1653.76538,-1639.7915,-1628.87061,-1620.53748,-1612.43518,-1601.92212,-1587.86023,-1571.32825,-1554.79382,-1540.36804,-1528.38989,-1517.30542,-1504.86877,-1489.76453,-1472.50232,-1454.99243,-1439.16162,-1425.61279,-1413.25415,-1400.09998,-1384.63074,-1366.75488,-1347.75427,-1329.33069,-1312.47363,-1296.927,-1281.54919,-1265.22009,-1247.60767,-1229.27539,-1211.12891,-1193.67395,-1176.64294,-1159.2356,-1140.75073,-1121.11902,-1100.95337,-1081.11072,-1062.10498,-1043.79785,-1025.55701,-1006.72968,-987.070435,-966.834961,-946.520447,-926.490845,-906.77832,-887.182861,-867.548157,-847.959045,-828.688171,-809.930786,-791.550354,-773.054443,-753.851624,-733.619629,-712.52301,-691.118835,-670.006409,-649.459351,-629.286682,-609.006836,-588.200439,-566.791748,-545.070496,-523.456421,-502.188232,-481.163391,-460.036774,-438.498962,-416.529938,-394.446472,-372.710876,-351.634064,-331.174133,-310.960663,-290.51889,-269.538727,-248.014267,-226.179306,-204.303329,-182.501205,-160.68512,-138.679764,-116.405342,-93.9903259,-71.7297134,-49.9151268,-28.6513615,-7.78278351,13.020998,34.0749359,55.5039253,77.189621,98.8640213,120.283066,141.36879,162.236526,183.101028,204.131531,225.350021,246.631821,267.796509,288.721954,309.406891,329.948425,350.460968,370.997284,391.523529,411.95697,432.230225,452.332672,472.303619,492.191345,512.018494,531.783813,551.494751,571.194397,590.946167,610.773804,630.598755,650.232544,669.452393,688.127136,706.315613,724.260254,742.262756,760.506104,778.933472,797.268311,815.17395,832.459473,849.206604,865.736816,882.440186,899.57196,917.139099,934.933716,952.674255,970.152832,987.298767,1004.14136,1020.72925,1037.08435,1053.22461,1069.21729,1085.19324,1101.27979,1117.48962,1133.65662,1149.49072,1164.74426,1179.38354,1193.63708,1207.86511,1222.32251,1236.97559,1251.51208,1265.55188,1278.92175,1291.79492,1304.58337,1317.64612,1331.01782,1344.3623,1357.20056,1369.26392,1380.7157,1392.06592,1403.82129,1416.11438,1428.59216,1440.6665,1451.96619,1462.65942,1473.37976,1484.7627,1496.89478,1509.08508,1520.18225,1529.29236,1536.4502,1542.76575,1549.88062,1559.01147,1570.16052,1582.01147,1592.62634,1600.55835,1605.72058,1609.47815,1613.89966,1620.60498,1629.88818,1640.61206,1650.90149,1659.19202,1665.01294,1669.08374,1672.7428,1677.10986,1682.49817,1688.38257,1693.86328,1698.27795,1701.57703,1704.27014,1707.04358,1710.32703,1714.08044,1717.89502,1721.29968,1724.05786,1726.28076,1728.31909,1730.52856,1733.06042,1735.78979,1738.4032,1740.58496,1742.20154,1743.39197,1744.51929,1745.99768,1748.06543,1750.61353,1753.16895,1755.07129,1755.78015,1755.15833,1753.56506,1751.67517,1750.1012,1749.03088,1748.11023,1746.67053,1744.18616,1740.68298,1736.82556,1733.59412,1731.7251,1731.25562,1731.46277,1731.2522,1729.76318,1726.81873,1722.94751,1718.98218,1715.5105,1712.54065,1709.58276,1706.05945,1701.73901,1696.88672,1692.04089,1687.59985,1683.5293,1679.4104,1674.78174,1669.51416,1663.92358,1658.53015,1653.6355,1649.0387,1644.11804,1638.23938,1631.20837,1623.43933,1615.71216,1608.68518,1602.50403,1596.78113,1590.94263,1584.67371,1578.12744,1571.74658,1565.84717,1560.30151,1554.58008,1548.13611,1540.83813,1533.10266,1525.5968,1518.71362,1512.21704,1505.3501,1497.36169,1488.08032,1478.10608,1468.45178,1459.87402,1452.37439,1445.24829,1437.65479,1429.28784,1420.63367,1412.59473,1405.73914,1399.74036,1393.46387,1385.69385,1376.00647,1365.15198,1354.6344,1345.74927,1338.74597,1332.70947,1326.24536,1318.47119,1309.58582,1300.60376,1292.46301,1285.20056,1277.8479,1269.16699,1258.68933,1247.25586,1236.58752,1228.13,1221.98376,1216.72095,1210.27698,1201.33118,1190.21057,1178.66736,1168.67688,1161.10193,1155.16382,1149.07239,1141.32825,1131.73938,1121.43579,1111.92725,1103.96436,1097.0791,1090.12292,1082.32495,1073.98303,1066.20056,1059.86792,1054.73047,1049.36157,1042.15515,1032.60779,1021.85602,1011.95081,1004.33685,998.687683,993.059265,985.34967,975.007263,963.64801,954.003601,947.902405,944.803284,942.074158,936.911011,928.486633,918.64447,910.504272,905.967285,904.024597,901.166931,893.435852,878.118103,853.152649,814.220581,751.932861,652.521667,503.744598,304.026428,69.5907822,-165.92926,-361.325165,-483.375122,-520.273682,-485.41861,-409.175903,-323.232025,-246.565994,-180.90863,-117.350945,-48.486721,22.9955006,85.5318527,128.613892,153.444794,174.902679,210.881454,264.193878,308.858154,291.829285,152.783768,-146.722305,-600.408813,-1154.3407,-1727.01575,-2242.70239,-2660.68726,-2985.44824,-3253.66162,-3506.86255,-3765.9104,-4021.10083,-4241.68262,-4397.05566,-4475.94189,-4492.41846,-4476.63965,-4457.43018,-4448.021,-4443.04736,-4427.12598,-4388.15234,-4326.28613,-4253.28467,-4183.58936,-4123.80615,-4067.79492,-4000.49756,-3907.81909,-3786.10547,-3645.27979,-3503.8667,-3379.15308,-3278.48096,-3196.64697,-3120.46289,-3037.29517,-2942.3562,-2840.69287,-2743.25928,-2659.93774,-2593.8689,-2540.26025,-2489.90405,-2434.83496,-2372.54419,-2306.39819,-2242.44458,-2185.00122,-2133.9563,-2085.3457,-2034.50037,-1979.39404,-1921.83154,-1865.74976,-1813.99939,-1766.07849,-1718.6134,-1668.34692,-1615.43481,-1564.3678,-1521.3197,-1489.25171,-1463.97522,-1434.20557,-1386.34583,-1311.70886,-1212.08826,-1100.27356,-994.955627,-912.713562,-861.384705,-838.123657,-832.59552,-832.935608,-831.103882,-825.4729,-820.745667,-826.78479,-857.58667,-929.960205,-1060.17371,-1257.46777,-1515.927,-1809.0354,-2091.86963,-2313.0354,-2433.13184,-2441.80615,-2364.53418,-2254.3999,-2171.50244,-2159.19214,-2228.27856,-2356.36719,-2501.70825,-2623.75293,-2699.92188,-2731.15088,-2735.43945,-2734.86523,-2743.92041,-2764.74634,-2789.9021,-2808.9939,-2814.30322,-2802.57178,-2773.47925,-2727.53027,-2665.78784,-2591.69141,-2512.99438,-2441.36646,-2388.76733,-2362.13354,-2359.43457,-2369.63232,-2376.86768,-2366.75977,-2331.60425,-2272.11499,-2195.4563,-2111.27539,-2028.10083,-1951.64148,-1885.01855,-1829.85999,-1787.11499,-1757.19434,-1739.84192,-1734.34717,-1740.22021,-1757.79565,-1788.03235,-1831.28821,-1885.70398,-1946.35815,-2006.06738,-2057.73267,-2097.07886,-2124.25195,-2143.28784,-2159.65063,-2177.08203,-2195.31763,-2209.64111,-2212.2417,-2194.51636,-2149.28711,-2072.31836,-1963.08252,-1825.01843,-1665.38647,-1494.51794,-1324.17395,-1165.08911,-1024.39697,-904.065369,-801.285278,-710.911743,-628.964539,-555.492188,-495.270599,-455.835052,-443.71521,-460.7146,-502.103027,-557.640686,-614.935242,-663.499451,-697.613159,-716.813782,-724.104858,-723.102173,-715.724365,-701.535828,-678.793457,-646.276062,-604.628418,-556.395935,-504.837585,-452.398865,-399.900208,-346.95697,-293.262115,-239.73024,-188.563599,-142.040878,-100.766869,-62.6129417,-23.246954,21.8393612,74.9228973,134.745346,197.209869,257.760834,314.050964,367.269592,421.304932,480.256927,545.845093,616.306824,687.418091,754.919495,816.779785,873.910095,929.01062,984.452087,1040.64978,1095.9397,1147.87183,1194.88208,1237.15857,1276.25232,1314.02515,1352.08118,1392.44226,1439.13501,1499.35303,1582.72668,1698.21436,1849.68823,2032.43445,2232.71387,2431.15112,2608.75073,2752.90161,2860.6626,2937.96606,2995.41138,3042.90918,3085.78418,3123.93604,3153.92847,3172.40527,3178.73535,3175.46802,3166.50854,3154.19385,3136.95215,3108.82446,3061.0769,2985.052,2874.87354,2728.82593,2549.0376,2339.98877,2106.8645,1854.6405,1588.15051,1312.68591,1034.35669,759.699829,494.645813,243.515793,8.77731419,-208.213135,-405.990417,-582.218567,-734.072021,-859.618713,-959.20459,-1035.59204,-1092.26404,-1130.54333,-1147.20703,-1134.34863,-1082.15759,-983.613037,-838.819763,-656.685486,-452.941437,-245.413803,-48.8565369,128.260315,283.838562,419.696106,538.364319,640.970947,727.032959,795.69104,847.180664,883.518494,908.18457,925.335449,939.253784,954.300659,975.035645,1005.92908,1050.41907,1109.68384,1181.88953,1262.50635,1345.65039,1425.7854,1498.96069,1563.17603,1618.10571,1664.77026,1705.54248,1744.30676,1786.1593,1836.17065,1897.41406,1969.20483,2046.69531,2122.3623,2188.83984,2241.68823,2280.67725,2309.01538,2331.17505,2350.68433,2369.09399,2386.38013,2402.0769,2416.07715,2428.52686,2439.11646,2446.62671,2449.37451,2446.38525,2438.36914,2427.55054,2416.19067,2404.71313,2390.86084,2370.78882,2341.69702,2304.41821,2264.16211,2228.65845,2204.58618,2194.34888,2195.1355,2200.80298,2205.36841,2205.92822,2203.29297,2200.18213,2198.42065,2197.13306,2193.11597,2182.99878,2165.58545,2142.72729,2118.18677,2095.39575,2075.72388,2058.40845,2042.00586,2026.10608,2011.91602,2001.25757,1994.83289,1991.27563,1988.00037,1983.50525,1979.55347,1981.48193,1995.98657,2027.40649,2074.66309,2130.7793,2185.42993,2229.17554,2257.05835,2269.70752,2271.65894,2268.20166,2262.73145,2255.96362,2246.97412,2234.88672,2219.83032,2202.5957,2183.51318,2161.67822,2135.30176,2103.0249,2065.20947,2024.16467,1983.02454,1943.98511,1907.12939,1870.67151,1832.4563,1791.62952,1749.25232,1707.36487,1667.12134,1627.32849,1584.51062,1534.63,1475.47974,1408.28601,1337.53345,1269.1145,1207.89331,1156.01343,1112.69666,1075.30444,1040.76416,1006.48969,970.530396,931.347778,887.82312,839.729675,788.301697,736.239197,686.792786,642.287109,603.021179,567.417786,533.538391,501.099274,472.621246,452.740082,445.826721,453.207642,471.671021,494.270416,513.078064,522.341919,520.239868,508.283447,488.878052,462.673767,427.445099,379.255554,315.22641,236.228424,147.849411,59.0016289,-21.124321,-86.1814728,-134.355576,-167.9953,-191.672836,-209.862686,-225.386246,-239.136093,-250.826447,-260.06073,-267.044464,-272.661621,-278.06543,-284.162079,-291.318512,-299.416321,-308.163574,-317.469482,-327.69281,-339.648895,-354.359985,-372.643921,-394.730133,-420.124847,-447.861969,-477.07312,-507.581665,-540.129639,-575.996094,-616.125244,-660.250122,-706.612,-752.598816,-796.075867,-836.681458,-876.257202,-918.004822,-964.698486,-1016.89612,-1072.18579,-1125.97339,-1173.45801,-1211.76477,-1241.10852,-1264.4231,-1285.74451,-1308.28955,-1333.24255,-1359.75732,-1385.94617,-1410.12708,-1431.58813,-1450.56726,-1467.67358,-1483.27783,-1497.29016,-1509.39172,-1519.44604,-1527.73938,-1534.88562,-1541.5127,-1548.0022,-1554.4657,-1560.92834,-1567.50745,-1574.39929,-1581.66553,-1589.0188,-1595.83618,-1601.47205,-1605.68835,-1608.89197,-1611.96399,-1615.74792,-1620.52075,-1625.81763,-1630.75586,-1634.65918,-1637.56323,-1640.23999,-1643.70227,-1648.51428,-1654.37659,-1660.28748,-1665.18945,-1668.66809,-1671.22559,-1673.92004,-1677.59753,-1682.22351,-1686.77551,-1689.79236,-1690.24805,-1688.19824,-1684.79126,-1681.64648,-1680.00024,-1680.15881,-1681.57361,-1683.44226,-1685.39661,-1687.80566,-1691.49634,-1697.09888,-1704.47778,-1712.65002,-1720.2677,-1726.3689,-1730.92273,-1734.82458,-1739.34875,-1745.39319,-1752.974,-1761.25134,-1769.04236,-1775.48853,-1780.48401,-1784.64172,-1788.86023,-1793.77551,-1799.41211,-1805.19873,-1810.29089,-1813.99341,-1816.05603,-1816.72595,-1816.58093,-1816.26001,-1816.22083,-1816.60376,-1817.22412,-1817.66882,-1817.45935,-1816.2301,-1813.86328,-1810.52478,-1806.57666,-1802.39709,-1798.19617,-1793.92712,-1789.34863,-1784.20081,-1778.39209,-1772.07898,-1765.59106,-1759.24988,-1753.20056,-1747.35742,-1741.48486,-1735.34656,-1728.81396,-1721.87195,-1714.54504,-1706.82678,-1698.68994,-1690.17603,-1681.48645,-1672.9801,-1665.04102,-1657.88867,-1651.45898,-1645.45349,-1639.54028,-1633.57825,-1627.70093,-1622.18555,-1617.18005,-1612.46899,-1607.45154,-1601.37292,-1593.68579,-1584.328,-1573.75208,-1562.69861,-1551.85901,-1541.62805,-1532.06177,-1523.00488,-1514.24084,-1505.53284,-1496.53503,-1486.68933,-1475.25427,-1461.526,-1445.14783,-1426.30737,-1405.65369,-1383.93896,-1361.58093,-1338.4187,-1313.83801,-1287.21924,-1258.45471,-1228.22925,-1197.89038,-1168.97864,-1142.67456,-1119.45203,-1099.08057,-1080.90796,-1064.20911,-1048.3999,-1033.04053,-1017.71362,-1001.92474,-985.123596,-966.825684,-946.731873,-924.752441,-900.932129,-875.356201,-848.133057,-819.47052,-789.768005,-759.608337,-729.600647,-700.150452,-671.317261,-642.887268,-614.644531,-586.662842,-559.391174,-533.417725,-509.018555,-485.776581,-462.562775,-437.972168,-411.019073,-381.699951,-351.07132,-320.758545,-292.151398,-265.744385,-241.005264,-216.84584,-192.405396,-167.669571,-143.548264,-121.366943,-102.080307,-85.6788712,-71.1336517,-56.8944435,-41.6310844,-24.7815075,-6.61189365,12.1968908,31.1430054,50.3017311,70.3031311,91.9393311,115.672791,141.3535,168.29808,195.649521,222.775192,249.464554,275.839569,302.078949,328.160645,353.787872,378.524414,402.02417,424.190826,445.169922,465.19931,484.438019,502.896637,520.50946,537.283264,553.40686,569.23761,585.171082,601.481323,618.235352,635.327698,652.598938,669.945068,687.34314,704.783569,722.170898,739.274658,755.774292,771.370728,785.892578,799.331665,811.800171,823.45575,834.45874,844.987732,855.280151,865.633118,876.32428,887.480225,898.978821,910.472046,921.549866,931.968384,941.811462,951.478516,961.493713,972.240173,983.770996,995.804138,1007.89069,1019.64685,1030.90649,1041.72095,1052.23474,1062.54956,1072.67371,1082.58337,1092.32312,1102.04871,1111.95764,1122.1532,1132.54456,1142.87598,1152.8822,1162.47095,1171.80151,1181.18982,1190.89343,1200.91626,1210.97046,1220.63159,1229.58728,1237.81787,1245.58472,1253.23645,1260.96692,1268.69055,1276.11841,1282.97852,1289.21899,1295.04895,1300.78357,1306.60376,1312.40356,1317.84192,1322.57654,1326.52661,1329.98669,1333.50842,1337.6178,1342.54041,1348.10266,1353.8573,1359.34607,1364.33044,1368.86194,1373.1748,1377.49805,1381.91687,1386.36243,1390.703,1394.84595,1398.76538,1402.44214,1405.78076,1408.59021,1410.66907,1411.9502,1412.60596,1413.02905,1413.67798,1414.86707,1416.61694,1418.65161,1420.54126,1421.90881,1422.58777,1422.65601,1422.34338,1421.87891,1421.36536,1420.74036,1419.83228,1418.47034,1416.58667,1414.26611,1411.724,1409.2262,1406.9873,1405.08618,1403.4342,1401.80981,1399.94653,1397.63831,1394.81641,1391.56213,1388.05176,1384.46277,1380.88989,1377.3092,1373.60315,1369.62305,1365.25146,1360.43567,1355.1853,1349.54907,1343.59216,1337.38416,1330.99121,1324.46606,1317.83264,1311.07617,1304.15002,1297.00159,1289.60095,1281.95056,1274.07007,1265.96863,1257.6355,1249.06445,1240.30054,1231.46582,1222.72815,1214.20752,1205.87561,1197.52002,1188.82788,1179.56079,1169.72754,1159.63501,1149.76233,1140.5094,1131.96179,1123.82092,1115.55823,1106.70984,1097.13513,1087.07166,1076.94531,1067.052,1057.31946,1047.31458,1036.50793,1024.63416,1011.91272,998.970276,986.490234,974.795837,963.62561,952.254211,939.899414,926.178284,911.33905,896.128784,881.376892,867.545227,854.511108,841.699768,828.468384,814.491455,799.912415,785.1828,770.715881,756.595825,742.538452,728.12677,713.153992,697.829956,682.691711,668.254395,654.620667,641.312073,627.463562,612.296631,595.602356,577.93811,560.393372,544.033508,529.32312,515.858704,502.569031,488.277985,472.318481,454.857666,436.762848,419.100098,402.562134,387.147522,372.252167,357.0867,341.149811,324.474884,307.526031,290.841522,274.672546,258.848633,242.940323,226.591003,209.783447,192.858871,176.277481,160.284698,144.712036,129.052322,112.768394,95.6401443,77.9274139,60.2426033,43.2092819,27.1140709,11.7575884,-3.41790247,-19.014967,-35.3741493,-52.4432335,-69.8692474,-87.2231522,-104.204689,-120.716087,-136.799194,-152.521393,-167.912567,-182.99501,-197.864044,-212.732849,-227.881943,-243.529266,-259.702301,-276.202118,-292.692749,-308.869324,-324.607544,-340.00885,-355.320404,-370.779755,-386.472778,-402.277771,-417.917633,-433.088684,-447.605103,-461.499573,-475.041046,-488.6586,-502.790741,-517.707031,-533.372681,-549.425598,-565.299866,-580.461182,-594.651306,-608.012573,-621.01178,-634.187439,-647.852356,-661.923828,-675.988892,-689.5755,-702.470703,-714.885498,-727.35498,-740.419922,-754.278076,-768.619751,-782.756836,-795.979309,-807.936218,-818.821106,-829.259827,-839.970093,-851.391052,-863.489746,-875.840027,-887.912415,-899.398804,-910.387939,-921.299438,-932.620117,-944.593506,-957.034546,-969.377197,-980.941772,-991.293945,-1000.5105,-1009.19891,-1018.23523,-1028.32983,-1039.63989,-1051.64905,-1063.40857,-1074.03381,-1083.18372,-1091.22156,-1098.91296,-1106.79016,-1114.53931,-1120.81287,-1123.66235,-1121.43994,-1113.71851,-1101.73315,-1088.08423,-1075.84875,-1067.56836,-1064.6311,-1067.29761,-1075.22205,-1088.02942,-1105.52588,-1127.41357,-1152.76501,-1179.70544,-1205.64258,-1228.02002,-1245.20898,-1257.03149,-1264.60852,-1269.62549,-1273.44067,-1276.52979,-1278.51965,-1278.6969,-1276.60876,-1272.37927,-1266.60229,-1259.96423,-1252.90454,-1245.53857,-1237.84399,-1229.91223,-1222.04224,-1214.6001,-1207.77075,-1201.42114,-1195.21082,-1188.89111,-1182.57251,-1176.74512,-1172.00171,-1168.63269,-1166.36877,-1164.46423,-1162.09363,-1158.82104,-1154.84216,-1150.84033,-1147.54114,-1145.23804,-1143.58252,-1141.76221,-1138.95435,-1134.78357,-1129.52173,-1123.93481,-1118.88684,-1114.93958,-1112.16174,-1110.22131,-1108.66711,-1107.2157,-1105.88074,-1104.89331,-1104.4906,-1104.71082,-1105.31812,-1105.8938,-1106.0343,-1105.53845,-1104.48291,-1103.14734,-1101.83704,-1100.70728,-1099.6875,-1098.54431,-1097.04004,-1095.08447,-1092.77771,-1090.31238,-1087.7937,-1085.09375,-1081.84949,-1077.62561,-1072.15918,-1065.54077,-1058.21313,-1050.77307,-1043.68115,-1037.0426,-1030.58496,-1023.84149,-1016.43121,-1008.27246,-999.615601,-990.890137,-982.466614,-974.471558,-966.745605,-958.945618,-950.715454,-941.830811,-932.258728,-922.131958,-911.675354,-901.128357,-890.68573,-880.464294,-870.492249,-860.723145,-851.069275,-841.438354,-831.745667,-821.889648,-811.707886,-800.965454,-789.422058,-776.97583,-763.80896,-750.423645,-737.494324,-725.570129,-714.774597,-704.686279,-694.50354,-683.429932,-671.073608,-657.62677,-643.717163,-630.022644,-616.890564,-604.197083,-591.519775,-578.48877,-565.062378,-551.535217,-538.279541,-525.415955,-512.663452,-499.493164,-485.490723,-470.672455,-455.521851,-440.701385,-426.62439,-413.178192,-399.795013,-385.832611,-371.012756,-355.622314,-340.340271,-325.806274,-312.219635,-299.231384,-286.190948,-272.568268,-258.263245,-243.60321,-229.053116,-214.858536,-200.878204,-186.716156,-172.045883,-156.883362,-141.607498,-126.710526,-112.454842,-98.6785049,-84.8865356,-70.5654907,-55.5069046,-39.9240799,-24.2934418,-9.03932476,5.71995831,20.2006836,34.7549477,49.5964966,64.6445236,79.5858002,94.1010437,108.093727,121.769264,135.521896,149.714706,164.49472,179.743362,195.162323,210.41478,225.233582,239.463287,253.065598,266.133453,278.918518,291.82254,305.294525,319.633972,334.789398,350.289459,365.39743,379.451202,392.219421,404.063293,415.783234,428.210999,441.765411,456.225281,470.854462,484.808716,497.589081,509.282837,520.465759,531.843079,543.856934,556.490417,569.362976,582.025879,594.25116,606.131714,617.948975,629.92218,642.023315,653.988464,665.512207,676.48645,687.112061,697.799744,708.919189,720.558594,732.453735,744.137085,755.218201,765.620422,775.629211,785.720337,796.273132,807.337646,818.588806,829.485718,839.539185,848.537415,856.616211,864.158264,871.596436,879.234009,887.165833,895.315002,903.538696,911.733582,919.890625,928.084351,936.414917,944.932007,953.570801,962.124817,970.278198,977.703003,984.202026,989.840576,994.992432,1000.24579,1006.17944,1013.09943,1020.86859,1028.93665,1036.57642,1043.21838,1048.70459,1053.32434,1057.60742,1062.0022,1066.62524,1071.2373,1075.44934,1079.02539,1082.08032,1085.04224,1088.39661,1092.37378,1096.78406,1101.10962,1104.80273,1107.60852,1109.71033,1111.61096,1113.82434,1116.5697,1119.65247,1122.5968,1124.93811,1126.49182,1127.44006,1128.20007,1129.1676,1130.49951,1132.05505,1133.51038,1134.55444,1135.04187,1135.02197,1134.65491,1134.08911,1133.3855,1132.52197,1131.45313,1130.16626,1128.69507,1127.09094,1125.38879,1123.59949,1121.73303,1119.82385,1117.92517,1116.06726,1114.21216,1112.2478,1110.04126,1107.52563,1104.75708,1101.89148,1099.07788,1096.33167,1093.47327,1090.18994,1086.20203,1081.43994,1076.12122,1070.66589,1065.4834,1060.75012,1056.30652,1051.74194,1046.62427,1040.74329,1034.22595,1027.45581,1020.84448,1014.59277,1008.58429,1002.47437,995.919006,988.801392,981.316589,973.859802,966.786194,960.187195,953.820435,947.234192,940.01123,931.985107,923.303223,914.31012,905.333923,896.513123,887.767029,878.909546,869.814453,860.507568,851.122864,841.75946,832.354492,822.679504,812.483337,801.695862,790.55072,779.525818,769.113708,759.548096,750.651062,741.898987,732.676086,722.570496,711.548462,699.919128,688.133179,676.549622,665.306213,654.344482,643.531677,632.768921,622.004761,611.163208,600.071472,588.476685,576.173096,563.163757,549.737671,536.382568,523.561401,511.47644,499.967987,488.615936,476.986969,464.876617,452.397522,439.865082,427.561188,415.533997,403.564972,391.322998,378.602112,365.485504,352.326019,339.550446,327.405304,315.797424,304.321838,292.459259,279.828339,266.356903,252.291733,238.060608,224.074188,210.570435,197.56308,184.892197,172.327774,159.66864,146.800629,133.70752,120.447662,107.112289,93.7790451,80.4735336,67.1548309,53.7378273,40.1502571,26.3983154,12.5995798,-1.04946768,-14.3682642,-27.302702,-39.982605,-52.6776352,-65.6600571,-79.0443497,-92.6992722,-106.295555,-119.475914,-132.0578,-144.151871,-156.121887,-168.402466,-181.276367,-194.738144,-208.519745,-222.255386,-235.679886,-248.738663,-261.550323,-274.261871,-286.90744,-299.375275,-311.508362,-323.264679,-334.812286,-346.473114,-358.532227,-371.03299,-383.704254,-396.091614,-407.832703,-418.909851,-429.71051,-440.83548,-452.752869,-465.50235,-478.635834,-491.44162,-503.325775,-514.123474,-524.154663,-533.995789,-544.116333,-554.610413,-565.18866,-575.425781,-585.092468,-594.348633,-603.666931,-613.53241,-624.112976,-635.117004,-645.937012,-655.998657,-665.104248,-673.562805,-682.025452,-691.120728,-701.096985,-711.668823,-722.14502,-731.761169,-740.042053,-747.018921,-753.214172,-759.420898,-766.387207,-774.537598,-783.831055,-793.79657,-803.723572,-812.9375,-821.057922,-828.136597,-834.609558,-841.070801,-847.966125,-855.35614,-862.880554,-869.95697,-876.114502,-881.277832,-885.829712,-890.407166,-895.543518,-901.369629,-907.558289,-913.545959,-918.894714,-923.563354,-927.914856,-932.458252,-937.494141,-942.902161,-948.212036,-952.914063,-956.802063,-960.116516,-963.386536,-967.072693,-971.247131,-975.531555,-979.341797,-982.28302,-984.434509,-986.32666,-988.615051,-991.65625,-995.262939,-998.803833,-1001.59418,-1003.33105,-1004.29462,-1005.18219,-1006.67572,-1009.01434,-1011.84186,-1014.42657,-1016.11591,-1016.74402,-1016.74579,-1016.92004,-1018.008,-1020.36072,-1023.89923,-1028.36694,-1033.67175,-1040.05554,-1047.94897,-1057.6012,-1068.76013,-1080.69092,-1092.62488,-1104.4458,-1117.198,-1133.02148,-1154.37231,-1182.78296,-1217.72034,-1256.15051,-1293.14136,-1323.36438,-1342.90564,-1350.60327,-1348.30481,-1339.90906,-1329.61084,-1320.12659,-1311.6875,-1302.21338,-1288.53528,-1268.05005,-1240.02686,-1205.98547,-1169.04602,-1132.63831,-1099.23206,-1069.67383,-1043.35669,-1019.00592,-995.582825,-972.81604,-951.143799,-931.212219,-913.313721,-897.135803,-881.953918,-867.105591,-852.408203,-838.240234,-825.240479,-813.835999,-803.919006,-794.885681,-786.002625,-776.846252,-767.514099,-758.46167,-750.080261,-742.309143,-734.562866,-726.044373,-716.252136,-705.34668,-694.119934,-683.562256,-674.284607,-666.156921,-658.392639,-650.031494,-640.520508,-630.031799,-619.32428,-609.244141,-600.182922,-591.831726,-583.375061,-573.992371,-563.347656,-551.771912,-540.045471,-528.935547,-518.782043,-509.365509,-500.100098,-490.390472,-479.917511,-468.699036,-456.942474,-444.840698,-432.4711,-419.851837,-407.071075,-394.346832,-381.934418,-369.929962,-358.1203,-346.019379,-333.109314,-319.154755,-304.38858,-289.432404,-274.980011,-261.427765,-248.67691,-236.22998,-223.519348,-210.2612,-196.616806,-183.069962,-170.110931,-157.935257,-146.345886,-134.907715,-123.240112,-111.251419,-99.1693726,-87.3636017,-76.0920105,-65.3450012,-54.8861084,-44.4511032,-33.9626465,-23.6119118,-13.7511311,-4.6661725,3.62580895,11.4285469,19.239809,27.5241413,36.5150414,46.1463432,56.1292877,66.112381,75.8319092,85.1890793,94.2453995,103.169876,112.177406,121.476196,131.219086,141.45285,152.077682,162.846832,173.430984,183.539001,193.04686,202.068787,210.924866,220.010834,229.627441,239.849564,250.495255,261.205994,271.598267,281.418762,290.640503,299.465881,308.239899,317.307709,326.870026,336.891907,347.106934,357.124207,366.6008,375.40509,383.687134,391.811401,400.176086,409.01062,418.264832,427.656647,436.853729,445.679993,454.216766,462.731201,471.474457,480.480621,489.503998,498.146301,506.100922,513.358948,520.240417,527.223694,534.676453,542.657837,550.914795,559.070251,566.874756,574.357727,581.783875,589.453491,597.488953,605.749878,613.928894,621.75177,629.14032,636.229004,643.236877,650.299255,657.388184,664.378601,671.204956,677.980957,684.977356,692.45874,700.485596,708.825195,717.045837,724.747437,731.781555,738.318909,744.716919,751.275391,758.039978,764.783508,771.177368,777.038696,782.489563,787.919861,793.77124,800.271301,807.278992,814.335449,820.892151,826.589783,831.437012,835.798767,840.208801,845.107971,850.639954,856.595093,862.519043,867.923584,872.497681,876.223389,879.351379,882.256165,885.248596,888.441528,891.734192,894.91687,897.826782,900.457336,902.947327,905.458313,908.022705,910.4776,912.547668,914.04126,915.033508,915.898438,917.13678,919.078369,921.637817,924.288696,926.301514,927.126099,926.700378,925.500122,924.295593,923.754761,924.122803,925.152222,926.300415,927.051941,927.161926,926.69104,925.849243,924.785889,923.476685,921.770691,919.538025,916.796509,913.726685,910.580505,907.566467,904.798096,902.324646,900.183716,898.397278,896.89093,895.403381,893.494507,890.705872,886.812622,882.009277,876.883728,872.155151,868.310852,865.360779,862.868225,860.239929,857.089722,853.436829,849.614868,845.964417,842.534546,839.009705,834.919678,829.98407,824.343811,818.502075,813.003296,808.065369,803.421997,798.493042,792.77655,786.199219,779.184692,772.390076,766.281067,760.828857,755.527527,749.717957,743.00415,735.49353,727.717468,720.300049,713.59967,707.545715,701.748352,695.774353,689.388489,682.608582,675.57196,668.342773,660.81958,652.809143,644.202148,635.10614,625.825745,616.693237,607.862671,599.206909,590.384766,581.03009,570.940308,560.153015,548.886047,537.405273,525.917786,514.545532,503.360413,492.415863,481.725677,471.203369,460.627167,449.693237,438.157654,425.995026,413.471222,401.071838,389.313507,378.540161,368.812988,359.93924,351.598389,343.470062,335.287323,326.809204,317.775665,307.923553,297.091034,285.35968,273.13324,261.071564,249.877243,240.02359,231.555191,224.062912,216.848572,209.202301,200.666901,191.17897,181.040482,170.749847,160.773849,151.354492,142.422348,133.644318,124.583595,114.906555,104.549149,93.7639389,83.0154495,72.7608795,63.2161255,54.2266006,45.3191376,35.9202042,25.6328011,14.4251223,2.6261797,-9.27024269,-20.8818111,-32.1338959,-43.2611465,-54.6149712,-66.3953094,-78.4738998,-90.4248428,-101.754898,-112.20401,-121.937378,-131.50592,-141.580765,-152.59697,-164.498993,-176.732346,-188.498505,-199.152435,-208.546112,-217.146912,-225.870575,-235.708359,-247.3237,-260.802856,-275.662018,-291.087799,-306.27948,-320.725922,-334.296997,-347.135712,-359.440033,-371.27243,-382.505493,-392.924469,-402.411499,-411.089996,-419.331177,-427.609589,-436.284851,-445.433136,-454.826447,-464.0737,-472.847595,-481.073364,-488.979218,-496.986969,-505.507935,-514.75531,-524.667603,-534.971863,-545.341919,-555.567505,-565.657288,-575.846008,-586.522949,-598.122803,-611.014832,-625.406006,-641.261902,-658.259033,-675.798157,-693.111328,-709.466675,-724.419128,-738.007446,-750.787598,-763.651611,-777.474548,-792.731506,-809.258118,-826.276855,-842.689148,-857.501831,-870.187622,-880.813232,-889.887817,-898.031616,-905.653687,-912.813232,-919.326538,-925.037598,-930.073608,-934.915649,-940.221985,-946.489563,-953.739197,-961.411194,-968.551758,-974.219177,-977.922485,-979.883911,-980.998535,-982.508606,-985.534973,-990.665771,-997.762207,-1006.03931,-1014.36224,-1021.62244,-1027.04456,-1030.32373,-1031.57385,-1031.13989,-1029.37732,-1026.49719,-1022.5365,-1017.44836,-1011.25201,-1004.15125,-996.551575,-988.95813,-981.802917,-975.290161,-969.338745,-963.650635,-957.864258,-951.711121,-945.098877,-938.095459,-930.849792,-923.514893,-916.222412,-909.107788,-902.339844,-896.104553,-890.529724,-885.593689,-881.087585,-876.675232,-872.033203,-866.994446,-861.608521,-856.081482,-850.636169,-845.384277,-840.292786,-835.254883,-830.201599,-825.156189,-820.180664,-815.247986,-810.145142,-804.506531,-797.99408,-790.530457,-782.434021,-774.343628,-766.944214,-760.63562,-755.336731,-750.548462,-745.650757,-740.263,-734.45752,-728.698792,-723.547241,-719.306152,-715.825012,-712.575073,-708.950195,-704.612732,-699.681763,-694.658508,-690.136414,-686.464172,-683.545044,-680.872192,-677.765198,-673.674744,-668.402039,-662.145325,-655.377686,-648.638611,-642.336548,-636.630615,-631.408447,-626.34436,-621.008179,-614.999817,-608.084106,-600.289429,-591.927917,-583.508606,-575.556274,-568.401306,-562.036499,-556.119202,-550.128662,-543.609558,-536.377991,-528.585693,-520.611389,-512.84436,-505.480774,-498.439545,-491.427643,-484.097931,-476.196411,-467.619812,-458.375122,-448.501709,-438.032593,-427.029114,-415.651306,-404.186066,-392.976746,-382.270813,-372.076294,-362.131348,-352.031769,-341.456085,-330.355682,-318.985382,-307.745819,-296.929871,-286.534668,-276.264038,-265.72757,-254.71254,-243.353561,-232.085236,-221.401016,-211.564499,-202.450531,-193.611572,-184.524338,-174.865036,-164.653259,-154.195694,-143.885773,-133.991974,-124.553215,-115.414078,-106.341515,-97.1303635,-87.641037,-77.7815552,-67.4893723,-56.7543983,-45.6701813,-34.4565659,-23.4049492,-12.7559357,-2.58176875,7.24061394,16.9349747,26.6658249,36.4242172,46.0462341,55.3587189,64.3499603,73.2344437,82.3481674,91.9319458,101.949852,112.079659,121.901634,131.173904,140.013046,148.851501,158.187592,168.284058,179.009598,189.926865,200.567474,210.711975,220.491379,230.250061,240.271362,250.558365,260.820404,270.671539,279.901794,288.632172,297.247742,306.155273,315.53125,325.230255,334.910034,344.283844,353.324402,362.283173,371.515381,381.23175,391.34259,401.492645,411.256531,420.363922,428.815216,436.83139,444.692963,452.586365,460.552094,468.545074,476.538086,484.578827,492.759521,501.13205,509.642944,518.143066,526.465027,534.506165,542.253113,549.732422,556.933044,563.775024,570.160034,576.076294,581.676514,587.256226,593.126648,599.45105,606.149414,612.937561,619.483154,625.586609,631.279602,636.789246,642.399841,648.30249,654.518982,660.925232,667.336731,673.587585,679.560181,685.174316,690.375061,695.148743,699.554565,703.725037,707.801025,711.820068,715.630249,718.913452,721.341248,722.797241,723.534485,724.152588,725.375793,727.733215,731.310669,735.712036,740.250793,744.265503,747.390137,749.649841,751.361572,752.927979,754.651367,756.654419,758.911316,761.328613,763.81311,766.300415,768.765442,771.23822,773.821289,776.669922,779.907776,783.499329,787.162781,790.413574,792.760376,793.966431,794.211243,794.018311,793.94574,794.201294,794.421997,793.789734,791.458435,787.066101,781.028931,774.422546,768.496826,764.090637,761.276794,759.43103,757.661621,755.327515,752.334595,749.058533,745.984863,743.329041,740.890259,738.22345,734.994507,731.267822,727.528259,724.42041,722.371277,721.332336,720.79126,720.033081,718.483887,715.94104,712.582886,708.792908,704.928833,701.173279,697.522644,693.880188,690.168518,686.391113,682.623535,678.960815,675.457764,672.08844,668.730835,665.181396,661.2052,656.624084,651.417114,645.78302,640.108887,634.831299,630.240417,626.328796,622.77655,619.095154,614.857056,609.886597,604.310486,598.455017,592.669739,587.189636,582.10376,577.410217,573.077332,569.041077,565.141785,561.076843,556.451782,550.945679,544.502625,537.416626,530.222717,523.435059,517.282288,511.609985,506.015625,500.127808,493.84021,487.341278,480.924988,474.727112,468.589264,462.162384,455.182709,447.710815,440.130493,432.860687,425.941071,418.767975,410.191589,398.976135,384.400909,366.687988,347.03537,327.253662,309.205139,294.310852,283.301178,276.219147,272.563446,271.448334,271.738739,272.201477,271.720947,269.551941,265.497681,259.889954,253.344284,246.406769,239.29451,231.884399,223.945435,215.442307,206.685333,198.205688,190.431702,183.390808,176.656784,169.597351,161.766327,153.176132,144.260315,135.546021,127.259155,119.136475,110.581841,101.06916,90.5241394,79.4274826,68.5677109,58.6031609,49.7143784,41.5591736,33.5358353,25.1608257,16.3092289,7.18235445,-1.93382597,-10.9162169,-19.8708229,-28.9817181,-38.2776375,-47.5153465,-56.2909279,-64.3167114,-71.6700516,-78.8275223,-86.4398651,-94.9794083,-104.479462,-114.525055,-124.491005,-133.870499,-142.496201,-150.54509,-158.366226,-166.272079,-174.425827,-182.860336,-191.561966,-200.52063,-209.703415,-218.994812,-228.18811,-237.071091,-245.559814,-253.774017,-261.973846,-270.378326,-278.987549,-287.547821,-295.709198,-303.283508,-310.424072,-317.583527,-325.25354,-333.646057,-342.530853,-351.351135,-359.555542,-366.93573,-373.749847,-380.552185,-387.843353,-395.773071,-404.085052,-412.324615,-420.1521,-427.542267,-434.741516,-442.032715,-449.49173,-456.91687,-463.978271,-470.469421,-476.469452,-482.293213,-488.267273,-494.500366,-500.821808,-506.936951,-512.68457,-518.200745,-523.858093,-530.012329,-536.733643,-543.719604,-550.463562,-556.572205,-562.017883,-567.150146,-572.456787,-578.231995,-584.374695,-590.444092,-595.928284,-600.540466,-604.354736,-607.712585,-610.994995,-614.432495,-618.077759,-621.927124,-626.059998,-630.655273,-635.849609,-641.539063,-647.291443,-652.473206,-656.547302,-659.367004,-661.27594,-662.939026,-664.997925,-667.754639,-671.064941,-674.487244,-677.575134,-680.124451,-682.236694,-684.190735,-686.234314,-688.440247,-690.704041,-692.855896,-694.790161,-696.523193,-698.160645,-699.819519,-701.569641,-703.423462,-705.354187,-707.303589,-709.166565,-710.782104,-711.971008,-712.627075,-712.811096,-712.767944,-712.823242,-713.199829,-713.866394,-714.532532,-714.816284,-714.492676,-713.660583,-712.705078,-712.060547,-711.9198,-712.080811,-712.044922,-711.314819,-709.708496,-707.483948,-705.191406,-703.343872,-702.115356,-701.257507,-700.279541,-698.766663,-696.626953,-694.111694,-691.609985,-689.366516,-687.316223,-685.142334,-682.513733,-679.338135,-675.862061,-672.551697,-669.828247,-667.81897,-666.266479,-664.640381,-662.37854,-659.125671,-654.858276,-649.859314,-644.582825,-639.484131,-634.881531,-630.878601,-627.35321,-624.003906,-620.447205,-616.346985,-611.539246,-606.102844,-600.33374,-594.623108,-589.288818,-584.442383,-579.959717,-575.570251,-571.014648,-566.181824,-561.150696,-556.11676,-551.250671,-546.572083,-541.913025,-536.991577,-531.557556,-525.529724,-519.05127,-512.427979,-505.979034,-499.871918,-494.028748,-488.156281,-481.891205,-474.992096,-467.479126,-459.645691,-451.930908,-444.716156,-438.152435,-432.108612,-426.261536,-420.26828,-413.916504,-407.171631,-400.111359,-392.814209,-385.29422,-377.531006,-369.565521,-361.571899,-353.824188,-346.551422,-339.764557,-333.179321,-326.312378,-318.720093,-310.249969,-301.15213,-291.974915,-283.296143,-275.440247,-268.337402,-261.592621,-254.707642,-247.319168,-239.32724,-230.869827,-222.195587,-213.530045,-205.004669,-196.655197,-188.448486,-180.298462,-172.070602,-163.60614,-154.789185,-145.634476,-136.332489,-127.194618,-118.503357,-110.347977,-102.556953,-94.7885513,-86.7375412,-78.3280411,-69.7588882,-61.3603249,-53.3508835,-45.6611481,-37.9555588,-29.8518162,-21.1967411,-12.206234,-3.35768652,4.91357708,12.5238438,19.8492508,27.5456982,36.1760216,45.8667183,56.2044716,66.4394608,75.8788757,84.244606,91.7975922,99.172821,107.032707,115.734917,125.182076,134.905899,144.313705,152.959076,160.713303,167.782303,174.589188,181.58847,189.089111,197.148941,205.576965,214.042786,222.249908,230.091614,237.702667,245.363586,253.297165,261.475647,269.572571,277.121704,283.81427,289.757782,295.514313,301.852661,309.330231,317.947449,327.098724,335.87738,343.570923,350.05368,355.83432,361.726715,368.350403,375.77655,383.540863,391.003601,397.806427,404.111328,410.45575,417.322235,424.723145,432.101868,438.644379,443.815125,447.766266,451.335663,455.607605,461.295532,468.329102,475.90567,482.976563,488.866455,493.644623,498.029449,502.903229,508.752014,515.37854,522.048706,527.955811,532.696106,536.464966,539.87738,543.555908,547.763184,552.300171,556.706238,560.602173,563.945496,567.047668,570.368103,574.238586,578.695251,583.502502,588.321472,592.894409,597.130859,601.070129,604.782288,608.299011,611.620972,614.77594,617.858154,620.998352,624.272644,627.617065,630.818176,633.604797,635.793823,637.406616,638.682251,639.978516,641.610596,643.712891,646.187683,648.759644,651.101318,652.972351,654.314331,655.267517,656.103577,657.096619,658.380554,659.854675,661.19342,661.97699,661.899902,660.959595,659.516541,658.169739,657.490662,657.746338,658.766541,660.038208,660.982727,661.261292,660.930847,660.360718,659.965881,659.924927,660.059082,659.942505,659.167908,657.594727,655.426819,653.082275,650.955811,649.231995,647.859924,646.675659,645.557617,644.488098,643.479614,642.443604,641.131714,639.230774,636.570007,633.292175,629.843628,626.746338,624.274658,622.243164,620.06427,617.067993,612.90387,607.778503,602.375244,597.494995,593.629822,590.720703,588.231384,585.476624,581.995789,577.755432,573.089661,568.454407,564.169983,560.300293,556.702942,553.168335,549.531677,545.698059,541.607544,537.212341,532.506714,527.575928,522.588745,517.693237,512.865051,507.831146,502.1698,495.570526,488.103394,480.297699,472.926147,466.583618,461.310974,456.520905,451.312134,445.006287,437.579498,429.70462,422.358307,416.227142,411.285858,406.817322,401.862732,395.814087,388.769928,381.434906,374.640747,368.806915,363.685211,358.533173,352.579254,345.466156,337.400757,328.954041,320.687286,312.869751,305.451996,298.25589,291.192596,284.32666,277.751587,271.405396,265.004974,258.179688,250.715698,242.720917,234.569351,226.649872,219.100891,211.735458,204.223938,196.403473,188.474197,180.911499,174.129364,168.125031,162.371613,156.066452,148.595535,139.911926,130.571045,121.39106,112.959732,105.311096,97.976532,90.3564987,82.144371,73.5105667,64.9358826,56.8339882,49.2459526,41.8241615,34.1042061,25.8526058,17.2293816,8.64893913,0.450637311,-7.36820984,-15.1529779,-23.3234921,-32.0377846,-41.0425568,-49.8283386,-57.9803619,-65.4665451,-72.6443024,-79.9716949,-87.6295319,-95.3382568,-102.528229,-108.778938,-114.250717,-119.823318,-126.833374,-136.543716,-149.622513,-165.87561,-184.304214,-203.384811,-221.403183,-236.739029,-248.107986,-254.813263,-256.99585,-255.761124,-253.016724,-250.957474,-251.340149,-254.86676,-261.000488,-268.336182,-275.344879,-281.097443,-285.588104,-289.522949,-293.757935,-298.76236,-304.429443,-310.302765,-316.007721,-321.562042,-327.350555,-333.802551,-341.021606,-348.643158,-356.025665,-362.642731,-368.404968,-373.693848,-379.091217,-384.992584,-391.359924,-397.762177,-403.653687,-408.693634,-412.907196,-416.619873,-420.253662,-424.146332,-428.497986,-433.424713,-439.010254,-445.263702,-451.997864,-458.745758,-464.841217,-469.683807,-473.062958,-475.3367,-477.323486,-479.932983,-483.731506,-488.689423,-494.253296,-499.689331,-504.485443,-508.576691,-512.28363,-516.038147,-520.09314,-524.397156,-528.686218,-532.69751,-536.339905,-539.712708,-542.982239,-546.230164,-549.394958,-552.347229,-555.031433,-557.555542,-560.148193,-563.005981,-566.136475,-569.316467,-572.207031,-574.561951,-576.397583,-578.011475,-579.828308,-582.158081,-585.003967,-588.031738,-590.719543,-592.609741,-593.530945,-593.678162,-593.512024,-593.530396,-594.024475,-594.940674,-595.916321,-596.47583,-596.292603,-595.384705,-594.137634,-593.130432,-592.847717,-593.42749,-594.587708,-595.780457,-596.493835,-596.528992,-596.087524,-595.613953,-595.489014,-595.766724,-596.125793,-596.070129,-595.250366,-593.694641,-591.791565,-590.035095,-588.703552,-587.696228,-586.647583,-585.245117,-583.527649,-581.937683,-581.062073,-581.213623,-582.131165,-583.021606,-582.951721,-581.367065,-578.415955,-574.869202,-571.674194,-569.416687,-568.019653,-566.858154,-565.203796,-562.70636,-559.606201,-556.553467,-554.163696,-552.602356,-551.45813,-549.970215,-547.453186,-543.654907,-538.85022,-533.65448,-528.705566,-524.412292,-520.879822,-517.986572,-515.502747,-513.158264,-510.659119,-507.716309,-504.142059,-499.979065,-495.552917,-491.349487,-487.733215,-484.663483,-481.617188,-477.827606,-472.742676,-466.430695,-459.649139,-453.478668,-448.702942,-445.304657,-442.409576,-438.749023,-433.386414,-426.272552,-418.286896,-410.733368,-404.597748,-400.017151,-396.273346,-392.286255,-387.277008,-381.182037,-374.584747,-368.253906,-362.621857,-357.545441,-352.473328,-346.861603,-340.524902,-333.687714,-326.736328,-319.890991,-313.062927,-306.003174,-298.613495,-291.153564,-284.147095,-278.016693,-272.698456,-267.532959,-261.559326,-254.061035,-245.023392,-235.197266,-225.709564,-217.453827,-210.637024,-204.753616,-198.977554,-192.694946,-185.82608,-178.747726,-171.908478,-165.435516,-159.020462,-152.159744,-144.564972,-136.434433,-128.375305,-121.014877,-114.56411,-108.637848,-102.466599,-95.3701172,-87.1864471,-78.3791885,-69.7591934,-62.0062828,-55.2961578,-49.2531853,-43.2274628,-36.6904144,-29.4905014,-21.8334599,-14.0508337,-6.35359764,1.25317848,8.86389923,16.4969463,24.0182362,31.2394409,38.1124725,44.8488312,51.8372192,59.3865547,67.4698563,75.6705704,83.4061203,90.3054886,96.4902573,102.549881,109.197014,116.809433,125.159203,133.523422,141.126099,147.636917,153.401443,159.241074,165.936935,173.722153,182.111069,190.184402,197.159622,202.889786,207.975845,213.417313,220.015823,227.898331,236.4496,244.687332,251.84166,257.783478,263.050598,268.475586,274.659485,281.617218,288.797119,295.439758,301.039825,305.630035,309.736572,314.064117,319.12326,325.02179,331.513428,338.228149,344.906738,351.490875,358.039673,364.570801,370.965668,377.016724,382.578491,387.702057,392.642029,397.719788,403.132202,408.839905,414.614044,420.207703,425.528229,430.683136,435.86377,441.150208,446.386597,451.233032,455.377838,458.773499,461.7276,464.766174,468.338074,472.544434,477.074341,481.40332,485.139221,488.297577,491.32254,494.826965,499.204651,504.355316,509.697937,514.473389,518.158752,520.748535,522.741455,524.84906,527.604431,531.096069,534.961548,538.61676,541.566223,543.618958,544.916626,545.804016,546.650269,547.7229,549.147034,550.911987,552.872131,554.729126,556.039124,556.302124,555.141907,552.505859,548.76593,544.633301,540.898438,538.117737,536.410156,535.472229,534.794556,533.948242,532.776978,531.401794,530.065308,528.93927,528.028015,527.219727,526.431763,525.734192,525.357422,525.575256,526.542297,528.190979,530.25,532.36261,534.224915,535.664001,536.630676,537.143738,537.247742,537.017029,536.587585,536.16449,535.967163,536.125366,536.586609,537.102173,537.314514,536.908081,535.745728,533.925232,531.739136,529.572998,527.793518,526.661865,526.273621,526.517578,527.063904,527.413818,527.040405,525.598572,523.114746,520.037109,517.07135,514.846558,513.570496,512.875366,511.968475,510.032837,506.664093,502.095276,497.074707,492.467346,488.815887,486.117371,483.929688,481.710052,479.147858,476.274292,473.301239,470.336975,467.212524,463.567108,459.140686,454.053802,448.842072,444.174805,440.418121,437.338043,434.173676,430.076599,424.658112,418.290924,411.946289,406.639893,402.817963,400.068085,397.34494,393.578613,388.291199,381.842804,375.166199,369.172577,364.213562,359.932312,355.573212,350.52005,344.693787,338.551453,332.705933,327.442017,322.469025,317.083038,310.632202,302.973877,294.619476,286.470764,279.317749,273.416046,268.396667,263.539063,258.208374,252.174164,245.632553,238.964874,232.432571,226.023865,219.533829,212.783539,205.792755,198.773926,191.962631,185.427246,179.012329,172.461334,165.621307,158.56546,151.531708,144.719269,138.101868,131.412628,124.330803,116.743439,108.885353,101.236267,94.2259064,87.9440308,82.0627594,76.0381165,69.4617691,62.3223724,54.9923592,47.9468956,41.4125214,35.197525,28.8297806,21.9070435,14.4065113,6.72173643,-0.61317116,-7.32322359,-13.6257887,-20.1129608,-27.3443508,-35.4265213,-43.8830414,-51.9304161,-58.9939575,-65.118454,-70.9822388,-77.4819641,-85.1478043,-93.7737656,-102.514999,-110.39846,-116.918419,-122.331078,-127.462471,-133.165787,-139.791885,-147.017929,-154.129883,-160.54863,-166.23378,-171.696808,-177.631012,-184.427597,-191.915085,-199.492477,-206.548294,-212.864304,-218.725601,-224.675354,-231.104904,-237.978409,-244.883759,-251.360077,-257.253052,-262.834167,-268.597168,-274.884369,-281.620636,-288.356812,-294.59726,-300.177368,-305.414154,-310.910492,-317.141083,-324.106262,-331.299255,-338.015472,-343.795441,-348.700439,-353.236206,-357.986359,-363.215118,-368.715698,-374.002625,-378.701538,-382.853607,-386.913452,-391.440582,-396.700317,-402.455566,-408.0961,-413.017395,-416.989563,-420.270233,-423.397491,-426.82309,-430.649323,-434.648621,-438.532623,-442.254089,-446.100067,-450.488678,-455.604675,-461.140747,-466.356018,-470.452667,-473.049896,-474.454193,-475.54245,-477.317413,-480.399231,-484.753448,-489.800507,-494.811554,-499.326019,-503.334656,-507.141907,-511.035492,-515.007874,-518.722412,-521.741211,-523.851074,-525.261597,-526.533936,-528.276733,-530.795105,-533.908203,-537.046265,-539.572144,-541.139771,-541.88855,-542.367249,-543.234131,-544.895935,-547.275452,-549.825134,-551.775452,-552.494202,-551.782349,-549.966797,-547.751831,-545.905823,-544.940063,-544.934387,-545.588928,-546.458923,-547.231873,-547.884583,-548.632019,-549.708008,-551.12677,-552.593201,-553.635986,-553.892273,-553.360718,-552.444885,-551.736145,-551.655457,-552.179016,-552.832336,-552.971008,-552.178711,-550.527161,-548.526367,-546.793884,-545.659973,-544.971802,-544.230896,-542.968567,-541.099731,-539.003662,-537.263,-536.232788,-535.73822,-535.12384,-533.64325,-530.941895,-527.307556,-523.510193,-520.321167,-518.023499,-516.236694,-514.179199,-511.199249,-507.223541,-502.823578,-498.848541,-495.862427,-493.753937,-491.77829,-489.008606,-484.909241,-479.66629,-474.069336,-469.026215,-465.020844,-461.849182,-458.78186,-455.031464,-450.224792,-444.59671,-438.813202,-433.558258,-429.146179,-425.374054,-421.665222,-417.385162,-412.139343,-405.913757,-399.033264,-392.0065,-385.349792,-379.444824,-374.44165,-370.207245,-366.340942,-362.287109,-357.544708,-351.902771,-345.57959,-339.160461,-333.329468,-328.517944,-324.662628,-321.219147,-317.432617,-312.711548,-306.889313,-300.230621,-293.203156,-286.180298,-279.269836,-272.36261,-265.33667,-258.246674,-251.349594,-244.945618,-239.153702,-233.791779,-228.45845,-222.767471,-216.576248,-210.052521,-203.536636,-197.298355,-191.356094,-185.47644,-179.341995,-172.761322,-165.775818,-158.602158,-151.470718,-144.487015,-137.611877,-130.755219,-123.890121,-117.085968,-110.43515,-103.943031,-97.4865189,-90.8915482,-84.0753632,-77.1322174,-70.2711716,-63.6279068,-57.0847626,-50.2531776,-42.671814,-34.1155052,-24.8092651,-15.3804455,-6.54704571,1.27680922,8.20559502,14.7830067,21.6145401,28.9694195,36.6153717,43.9973602,50.64048,56.5044975,62.048027,67.9555588,74.7071609,82.2756729,90.1488419,97.6556396,104.377098,110.375206,116.105682,122.095352,128.613251,135.54953,142.557312,149.328278,155.793411,162.11441,168.497208,174.990295,181.433533,187.598694,193.410217,199.067291,204.959076,211.419525,218.49324,225.883484,233.127106,239.878571,246.104385,252.051315,258.012268,264.059875,269.943787,275.233887,279.617523,283.147034,286.262177,289.562836,293.474884,298.024872,302.867584,307.544678,311.807434,315.800537,319.999207,324.946991,330.956451,337.940826,345.453644,352.888824,359.719574,365.66095,370.707703,375.071777,379.077057,383.058533,387.28598,391.914612,396.96698,402.355865,407.94632,413.630493,419.370972,425.181183,431.054962,436.901794,442.551086,447.84314,452.754333,457.462402,462.282867,467.494904,473.161774,479.073273,484.866699,490.261322,495.251526,500.11792,505.232788,510.782806,516.601196,522.242004,527.267395,531.565674,535.481079,539.648071,544.617981,550.507935,556.901001,563.067566,568.372925,572.615784,576.089478,579.341003,582.798401,586.515564,590.193848,593.448792,596.125671,598.440491,600.849243,603.736145,607.132935,610.658936,613.720886,615.839661,616.89386,617.129211,616.942383,616.589661,616.012085,614.884094,612.845154,609.759827,605.842163,601.572815,597.464722,593.821716,590.627686,587.619385,584.485901,581.070435,577.455627,573.888428,570.594971,567.603882,564.697693,561.545898,557.969604,554.198792,550.959412,549.294617,550.159424,553.963867,560.301514,568.029297,575.694214,582.107849,586.778076,589.973572,592.403442,594.717468,597.131897,599.399109,601.105469,602.065125,602.511353,602.933228,603.661072,604.496338,604.671753,603.205322,599.432617,593.353577,585.53125,576.572571,566.507385,554.468445,538.887695,518.095947,490.955383,457.157745,417.06781,371.311188,320.466339,265.107239,206.144699,145.152374,84.3404846,26.0797329,-27.7890968,-76.4440384,-120.066071,-159.346024,-194.855804,-226.693787,-254.588837,-278.297913,-297.923828,-313.872131,-326.48877,-335.718079,-341.145599,-342.497437,-340.265564,-335.93338,-331.478699,-328.327911,-326.389709,-323.855194,-318.029022,-306.796692,-289.885864,-269.167511,-247.836639,-229.025848,-214.745499,-205.769333,-202.370682,-205.164825,-215.200699,-232.986511,-256.975922,-282.600647,-302.781525,-310.025513,-299.217468,-269.688293,-225.444672,-173.418289,-120.64904,-71.8260498,-28.2954292,11.2558222,49.1368294,87.0902328,125.610901,164.231079,202.25853,239.313873,275.340088,310.241577,343.581482,374.653351,402.884094,428.222839,451.169128,472.379395,492.136902,510.096008,525.521851,537.876709,547.336304,554.853027,561.693848,568.750366,576.074951,582.937744,588.346252,591.669556,592.972534,592.892822,592.210449,591.43335,590.65094,589.66803,588.223389,586.077942,582.917603,578.213135,571.236755,561.305176,548.107788,531.872314,513.21991,492.808502,471.053497,448.180023,424.596252,401.267944,379.679657,361.208344,346.185852,333.273407,319.722198,302.605316,280.449951,254.309937,227.513687,204.051163,186.415817,174.14502,163.986343,151.688797,134.418869,112.359222,88.4782181,66.5452652,48.5635262,33.2115135,16.3315334,-6.7257762,-38.2619324,-76.6409149,-117.020813,-154.118347,-185.47496,-213.32283,-243.896545,-284.478699,-339.759186,-409.46994,-488.511871,-569.373291,-645.394409,-713.080872,-772.375305,-825.083435,-872.708618,-915.151062,-951.00531,-979.055786,-999.776062,-1015.69012,-1030.27148,-1046.08545,-1063.41113,-1080.271,-1093.86255,-1102.45142,-1106.48535,-1108.2196,-1110.1366,-1113.24805,-1116.42676,-1117.20276,-1113.45764,-1104.83557,-1092.8811,-1079.78857,-1066.61072,-1052.17993,-1033.55676,-1007.815,-974.071899,-934.464783,-893.410156,-855.547974,-823.58667,-797.306885,-774.244995,-751.54248,-727.779907,-703.705322,-681.525085,-663.328186,-649.695557,-639.332703,-629.852234,-619.112671,-606.242249,-591.773071,-576.928467,-562.621033,-548.817566,-534.601868,-518.78595,-500.610687,-480.110107,-458.007751,-435.325867,-413.0112,-391.769257,-372.085846,-354.280029,-338.467072,-324.455292,-311.712708,-299.516968,-287.258942,-274.72876,-262.193176,-250.200592,-239.232513,-229.423141,-220.515945,-212.059708,-203.690735,-195.31311,-187.087341,-179.285324,-172.148178,-165.842163,-160.494431,-156.209488,-152.991638,-150.609314,-148.532547,-146.062332,-142.639297,-138.162354,-133.093521,-128.234802,-124.275803,-121.379814,-119.073593,-116.519363,-112.999779,-108.307556,-102.801643,-97.1223907,-91.7875824,-86.9561157,-82.504509,-78.3185883,-74.5401611,-71.5474167,-69.6602173,-68.789856,-68.3222275,-67.3738785,-65.2921906,-62.0763931,-58.4217491,-55.3284111,-53.5078239,-52.9629211,-53.01054,-52.7266846,-51.5219116,-49.4787941,-47.2525215,-45.6276588,-45.0389862,-45.3625031,-46.0781059,-46.6504707,-46.8469467,-46.7885132,-46.7419815,-46.847065,-46.9995499,-46.9717903,-46.6585388,-46.2379227,-46.1059151,-46.6223373,-47.8587189,-49.546032,-51.2755852,-52.8158913,-54.3141136,-56.2244568,-58.997612,-62.7377472,-67.0635529,-71.2751083,-74.7237701,-77.1500549,-78.7828674,-80.1570969,-81.7877197,-83.9140778,-86.4553757,-89.1607437,-91.812088,-94.3291779,-96.7273865,-99.0020752,-101.063255,-102.787971,-104.146118,-105.28315,-106.469406,-107.931503,-109.682434,-111.481949,-112.970642,-113.89386,-114.260757,-114.324997,-114.398941,-114.63237,-114.911247,-114.945053,-114.476357,-113.46225,-112.103996,-110.715942,-109.538948,-108.634346,-107.920807,-107.301193,-106.759262,-106.340744,-106.040138,-105.706001,-105.075943,-103.951263,-102.395546,-100.792313,-99.6743927,-99.3972626,-99.8579483,-100.460236,-100.382858,-99.0098953,-96.2659836,-92.6475296,-88.9291763,-85.7298203,-83.2079163,-81.0658493,-78.8375397,-76.2515182,-73.4226303,-70.7518692,-68.6161499,-67.0707474,-65.7742004,-64.1921005,-61.9480705,-59.0925751,-56.1136017,-53.677269,-52.2526474,-51.839817,-51.9506874,-51.8411751,-50.8567429,-48.7082787,-45.553894,-41.8766747,-38.246624,-35.0899391,-32.5577507,-30.5228386,-28.6763573,-26.6683006,-24.2353992,-21.2759571,-17.8536644,-14.1381617,-10.3149195,-6.51123428,-2.77692771,0.874526083,4.40040398,7.69736052,10.6452007,13.2138042,15.5652571,18.0667572,21.1721821,25.2123814,30.2040272,35.794426,41.391922,46.4253273,50.5969734,53.9940262,57.0041695,60.0938263,63.5802956,67.5191498,71.7469254,76.0229187,80.1656952,84.1062393,87.853447,91.4317703,94.8593369,98.1855545,101.543282,105.144958,109.189514,113.721268,118.537254,123.227806,127.357162,130.694626,133.360779,135.792465,138.536346,141.985458,146.208649,150.964035,155.873123,160.635391,165.147964,169.467606,173.662521,177.673721,181.29277,184.275757,186.514191,188.141052,189.493317,190.949387,192.744888,194.883606,197.195297,199.494141,201.727158,204.014725,206.562607,209.513016,212.839005,216.351212,219.805557,223.032852,226.00351,228.794098,231.494553,234.133789,236.678925,239.100067,241.437637,243.80545,246.31485,248.972626,251.636887,254.082932,256.152283,257.890839,259.573059,261.575012,264.156036,267.276398,270.567383,273.485565,275.574036,276.689362,277.072174,277.227112,277.684753,278.776215,280.534271,282.757263,285.180054,287.644409,290.170502,292.88916,295.870483,298.936493,301.557434,302.900604,302.040833,298.276001,291.440491,282.094116,271.496674,261.351471,253.390945,248.943481,248.629547,252.278641,259.065857,267.783691,277.135101,285.96463,293.405792,298.966736,302.576172,304.574554,305.611237,306.427795,307.579834,309.219818,311.073151,312.654297,313.62796,314.108307,314.693176,316.170471,319.036865,323.109192,327.485596,330.924957,332.4617,331.917755,330.015015,328.014557,327.082489,327.736786,329.672882,332.033325,333.928436,334.887299,334.993652,334.679138,334.358093,334.161041,333.923187,333.393127,332.47879,331.343048,330.28598,329.51297,328.966248,328.34494,327.299438,325.663391,323.565796,321.356995,319.409332,317.929138,316.889374,316.094086,315.296265,314.276062,312.847504,310.842346,308.144348,304.79422,301.095581,297.608093,294.963287,293.562103,293.32132,293.643219,293.664948,292.670502,290.433044,287.284973,283.87616,280.774353,278.158173,275.788086,273.253418,270.313446,267.094391,264.010284,261.468536,259.568695,258.005035,256.241913,253.843597,250.736832,247.23291,243.799652,240.741531,238.002396,235.217896,231.974564,228.09758,223.775879,219.446747,215.5215,212.132965,209.064056,205.894318,202.264099,198.089691,193.604218,189.212662,185.258392,181.839462,178.76973,175.688965,172.247559,168.26445,163.786987,159.040268,154.305618,149.791016,145.549622,141.475983,137.376755,133.082581,128.548355,123.889969,119.332115,115.086929,111.226563,107.625038,104.012367,100.118088,95.8223114,91.2196503,86.5513077,82.0444794,77.7630463,73.5713577,69.2396469,64.6218567,59.7804756,54.9624405,50.4303856,46.2586212,42.2388458,37.9762268,33.1299782,27.6482353,21.8383389,16.2131176,11.1990299,6.88753176,2.98989272,-0.971935868,-5.35864019,-10.1883535,-15.1396809,-19.7823734,-23.8870144,-27.6120987,-31.4438248,-35.9201355,-41.3058357,-47.4147758,-53.6828575,-59.4443359,-64.2484818,-68.0427322,-71.1392212,-74.0110168,-77.050293,-80.4185638,-84.0437317,-87.7272339,-91.2752991,-94.5820084,-97.6433868,-100.528366,-103.343292,-106.206085,-109.221611,-112.446945,-115.855888,-119.332359,-122.718071,-125.905197,-128.92424,-131.964813,-135.300171,-139.148117,-143.549454,-148.341782,-153.249496,-158.034088,-162.607376,-167.034393,-171.429016,-175.821945,-180.102783,-184.087662,-187.673431,-190.971603,-194.31868,-198.135513,-202.707001,-208.010239,-213.694839,-219.230209,-224.137802,-228.184128,-231.443283,-234.220016,-236.898666,-239.804886,-243.133423,-246.940048,-251.163269,-255.648209,-260.176422,-264.522125,-268.537292,-272.229645,-275.772705,-279.413544,-283.308563,-287.384338,-291.32785,-294.743591,-297.40506,-299.448547,-301.371338,-303.804321,-307.174225,-311.452057,-316.148499,-320.572815,-324.210022,-326.993256,-329.307495,-331.724152,-334.62973,-337.974976,-341.29303,-343.969757,-345.598633,-346.212219,-346.26712,-346.411835,-347.18573,-348.81543,-351.192566,-354.000458,-356.882385,-359.555359,-361.840851,-363.652832,-364.998505,-366.006042,-366.938904,-368.140747,-369.898682,-372.284302,-375.074921,-377.827545,-380.086731,-381.615509,-382.509491,-383.118256,-383.818146,-384.777344,-385.861877,-386.742371,-387.130035,-386.985596,-386.563416,-386.261749,-386.379211,-386.938599,-387.692566,-388.30246,-388.567657,-388.549713,-388.510315,-388.709167,-389.201904,-389.77771,-390.080872,-389.837738,-389.04007,-387.966248,-387.027832,-386.539642,-386.555634,-386.861572,-387.113922,-387.026184,-386.489746,-385.574951,-384.442108,-383.242645,-382.074982,-381.001617,-380.080841,-379.362061,-378.837799,-378.397064,-377.838318,-376.959106,-375.673462,-374.072632,-372.372009,-370.768585,-369.304871,-367.844269,-366.188782,-364.263184,-362.225861,-360.403046,-359.062042,-358.166229,-357.292603,-355.805328,-353.212494,-349.49588,-345.194702,-341.161743,-338.112915,-336.230377,-335.058868,-333.762665,-331.592285,-328.285156,-324.171051,-319.939911,-316.232727,-313.309692,-310.977417,-308.778992,-306.289917,-303.321442,-299.92807,-296.26712,-292.454224,-288.534424,-284.572937,-280.756714,-277.380646,-274.684204,-272.636963,-270.840729,-268.657562,-265.522644,-261.260925,-256.201233,-250.999084,-246.265381,-242.228409,-238.638947,-234.972046,-230.787415,-226.011551,-220.964462,-216.128403,-211.826324,-208.027008,-204.39563,-200.53418,-196.231323,-191.548889,-186.702576,-181.848083,-176.949326,-171.83548,-166.403198,-160.800217,-155.429077,-150.736404,-146.914993,-143.72522,-140.577271,-136.8452,-132.223892,-126.901985,-121.43618,-116.403732,-112.052025,-108.163399,-104.212044,-99.70298,-94.4737244,-88.7747345,-83.0952835,-77.8623047,-73.2067795,-68.9299622,-64.6618881,-60.0871391,-55.0913353,-49.7594147,-44.2662048,-38.7615242,-33.3286209,-28.016161,-22.8794022,-17.9674644,-13.256216,-8.59392834,-3.73701429,1.51060903,7.1339097,12.844552,18.1984882,22.8521194,26.8048286,30.458498,34.4266167,39.1882324,44.7969398,50.8376312,56.6747208,61.846611,66.3571625,70.671257,75.408226,80.9259567,87.0679169,93.2473221,98.8263092,103.550667,107.753746,112.181786,117.531876,123.983009,131.016632,137.653305,142.97998,146.664459,149.158386,151.473892,154.66571,159.313217,165.280487,171.858124,178.170883,183.602615,188.014526,191.681702,195.044525,198.45813,202.084045,205.94664,210.062134,214.515549,219.4216,224.807098,230.517395,236.234177,241.61058,246.443176,250.770844,254.837143,258.941498,263.273682,267.830139,272.450806,276.936554,281.163971,285.130249,288.920624,292.644714,296.397186,300.263245,304.338501,308.714844,313.41333,318.300629,323.063141,327.293091,330.671295,333.155884,335.060242,336.954865,339.427765,342.827057,347.126404,351.9841,356.953979,361.719696,366.218018,370.59433,375.039307,379.623566,384.233948,388.638306,392.619537,396.084808,399.086639,401.76532,404.273254,406.741791,409.300751,412.106567,415.323853,419.045807,423.202637,427.537201,431.694214,435.390808,438.565704,441.403076,444.200409,447.156738,450.221161,453.113068,455.513641,457.308868,458.716675,460.196899,462.183075,464.799561,467.751068,470.470825,472.45166,473.562561,474.15329,474.875122,476.317474,478.673035,481.625916,484.524597,486.734283,487.96701,488.412598,488.616577,489.192444,490.531433,492.649994,495.221527,497.740692,499.721466,500.845581,501.029541,500.421356,499.351196,498.248871,497.534515,497.498383,498.209076,499.495026,501.019501,502.420868,503.447235,504.015747,504.172577,503.994904,503.512909,502.71051,501.600586,500.306549,499.069916,498.153473,497.690521,497.583038,497.533783,497.213593,496.470581,495.450867,494.544586,494.17981,494.581482,495.636475,496.941559,497.999725,498.44812,498.193939,497.402863,496.376129,495.404144,494.672394,494.238434,494.049164,493.96048,493.754181,493.17868,492.035278,490.285767,488.11319,485.868164,483.898712,482.350372,481.067261,479.679749,477.843536,475.481934,472.860016,470.419342,468.467255,466.929993,465.356903,463.202637,460.217285,456.680267,453.295197,450.780853,449.403351,448.753693,447.930756,446.034668,442.672821,438.170013,433.362427,429.117798,425.886536,423.549255,421.616089,419.605804,417.337891,414.962585,412.753204,410.842072,409.091766,407.162231,404.680298,401.358887,396.987976,391.356323,384.234467,375.490326,365.261841,354.01004,342.323944,330.539551,318.428955,305.243713,290.19754,273.148621,255.023087,237.587646,222.543472,210.363724,199.545364,186.800522,168.22937,140.968445,104.52449,61.1512642,15.115015,-28.7690353,-66.6591721,-96.6823959,-119.160881,-136.191666,-150.885284,-166.538696,-185.890457,-210.529663,-240.55246,-274.602051,-310.369019,-345.435089,-378.120697,-407.926727,-435.347382,-461.191315,-485.853363,-508.996429,-529.799438,-547.496887,-561.702576,-572.169312,-578.113708,-577.683777,-568.210632,-547.435669,-515.19574,-474.558289,-431.518829,-393.118591,-364.793335,-348.321381,-341.503845,-339.773712,-338.839264,-336.887665,-335.17157,-336.788788,-344.530212,-359.157349,-379.102478,-401.62973,-424.584564,-447.562592,-471.799225,-498.970123,-529.795227,-563.411499,-597.90332,-631.574707,-664.051636,-696.437195,-730.390808,-766.721436,-804.407166,-840.68219,-872.16864,-896.403625,-912.907776,-923.247498,-930.139771,-936.155579,-942.711243,-949.778503,-956.297424,-960.92749,-962.697693,-961.292114,-956.972656,-950.319458,-941.984131,-932.553162,-922.510254,-912.242737,-902.060425,-892.22998,-883.027222,-874.777222,-867.83075,-862.451721,-858.660034,-856.132996,-854.259705,-852.359436,-849.962708,-846.997559,-843.767883,-840.733643,-838.227356,-836.278748,-834.648376,-833.032593,-831.29364,-829.56012,-828.133423,-827.266479,-826.960815,-826.907837,-826.604309,-825.561035,-823.477234,-820.2901,-816.095398,-811.013794,-805.092773,-798.295227,-790.558716,-781.868713,-772.295044,-761.976135,-751.072937,-739.724792,-728.024841,-716.013489,-703.679504,-690.970215,-677.820679,-664.208435,-650.215454,-636.060181,-622.062195,-608.539063,-595.676758,-583.442993,-571.591309,-559.748901,-547.528809,-534.592712,-520.637024,-505.341827,-488.36618,-469.450378,-448.600861,-426.246002,-403.223419,-380.532562,-358.927429,-338.547882,-318.809784,-298.659912,-277.105377,-253.759872,-229.117188,-204.39534,-181.02272,-160.033463,-141.682999,-125.463669,-110.470421,-95.876915,-81.245369,-66.5240402,-51.7969322,-37.00383,-21.8488827,-5.96831083,10.7648211,28.0273933,45.1005745,61.1902466,75.8280106,89.1018372,101.564049,113.866302,126.34362,138.801849,150.632797,161.175568,170.09462,177.546951,184.056,190.196808,196.302994,202.36705,208.160019,213.449463,218.147781,222.299789,225.954071,229.053223,231.456863,233.097,234.146683,235.053253,236.373596,238.492294,241.399414,244.68013,247.735657,250.104126,251.685608,252.74231,253.695282,254.867218,256.33963,257.99527,259.678223,261.32843,262.986786,264.68573,266.342651,267.775726,268.858765,269.70282,270.702454,272.364227,274.996399,278.462769,282.192169,285.477631,287.897369,289.586212,291.162415,293.334808,296.431671,300.159882,303.762665,306.485931,308.056641,308.860138,309.697693,311.277069,313.76297,316.67395,319.184662,320.633423,320.911041,320.498657,320.155731,320.478271,321.606873,323.239258,324.88913,326.184845,327.010956,327.439209,327.557465,327.363739,326.81366,325.963043,325.056366,324.449524,324.394928,324.845947,325.449677,325.768738,325.59375,325.116547,324.807892,325.048523,325.756012,326.287659,325.737732,323.482513,319.63681,315.109772,311.184357,308.849152,308.279541,308.78363,309.241547,308.758484,307.124359,304.809662,302.534668,300.726624,299.239166,297.516998,295.074951,291.940186,288.730316,286.28891,285.110626,284.944092,284.857635,283.752869,281.016083,276.89975,272.394196,268.671906,266.451813,265.669617,265.62912,265.497223,264.795746,263.572693,262.174866,260.823364,259.325195,257.146484,253.807999,249.323654,244.355484,239.939728,236.927734,235.487457,234.98938,234.364563,232.725403,229.873459,226.389404,223.260147,221.279617,220.58548,220.593246,220.336288,218.980408,216.202377,212.237671,207.623459,202.841568,198.095062,193.330994,188.446777,183.506088,178.807663,174.766785,171.697388,169.637054,168.315308,167.269104,166.030151,164.28923,161.979797,159.272705,156.501312,154.037872,152.140915,150.812897,149.736893,148.363708,146.164078,142.957062,139.137619,135.628723,133.50856,133.45517,135.296875,137.945709,139.805984,139.481522,136.416153,131.118301,124.846138,118.93734,114.169403,110.505287,107.333939,104.009888,100.324287,96.608429,93.4294586,91.1137238,89.4440842,87.7524796,85.3557968,82.0465012,78.3070145,75.0964737,73.3375244,73.4237061,75.0496216,77.4521179,79.8879929,82.0341568,84.0669785,86.4016724,89.2957077,92.5946198,95.7839355,98.2941742,99.8388596,100.556717,100.876007,101.210991,101.706268,102.195351,102.381798,102.09758,101.45192,100.774384,100.407066,100.50161,100.960182,101.543953,102.049232,102.409775,102.652054,102.75248,102.528542,101.675453,99.9501953,97.385498,94.3763428,91.5527191,89.4901199,88.4193192,88.1055908,87.9680786,87.368515,85.9046707,83.5543213,80.6144485,77.5002823,74.533905,71.832695,69.3291702,66.8746719,64.348175,61.7142792,59.0220032,56.3703346,53.8686371,51.6028366,49.6055527,47.8329659,46.164959,44.4455566,42.5586853,40.5014572,38.4031754,36.462204,34.8262215,33.4876938,32.2682877,30.9141121,29.2493458,27.2902145,25.2406616,23.366209,21.8248024,20.5648537,19.3582401,17.9465828,16.2042675,14.2122221,12.19837,10.3897877,8.87604809,7.56796503,6.26581478,4.77935982,3.01825619,1.00761759,-1.15472519,-3.34543824,-5.42793322,-7.23883867,-8.59499741,-9.35639763,-9.52622128,-9.31650448,-9.10648441,-9.28370857,-10.0458603,-11.2882004,-12.6636248,-13.7957888,-14.5198298,-14.9967375,-15.6222792,-16.7842388,-18.6225052,-20.9449406,-23.3472881,-25.4496384,-27.0896397,-28.3526344,-29.4404831,-30.4940605,-31.5077057,-32.3925781,-33.1239052,-33.8387451,-34.7900887,-36.1804657,-38.0026054,-40.0215416,-41.9298019,-43.5697899,-45.0514908,-46.6588249,-48.5946846,-50.7498817,-52.6872482,-53.8910751,-54.1357193,-53.7175865,-53.3618011,-53.8264999,-55.4432297,-57.8973579,-60.4101486,-62.2208481,-63.059845,-63.2992363,-63.6766357,-64.7747116,-66.6076584,-68.5979156,-69.9637375,-70.2585602,-69.6974564,-69.0488815,-69.1636581,-70.4570618,-72.6868896,-75.163147,-77.2298203,-78.6794128,-79.8203812,-81.169487,-83.0064468,-85.120079,-86.9316635,-87.9070206,-87.9601669,-87.556366,-87.4357758,-88.1477814,-89.7187271,-91.6791306,-93.4207916,-94.6226501,-95.4417725,-96.3411026,-97.6908493,-99.4449539,-101.13871,-102.218781,-102.470444,-102.227654,-102.198181,-103.007545,-104.769707,-106.984688,-108.845474,-109.758156,-109.7323,-109.382637,-109.541443,-110.735405,-112.863472,-115.271393,-117.157684,-118.039764,-117.991112,-117.528114,-117.256218,-117.52224,-118.283989,-119.241081,-120.097496,-120.762527,-121.370186,-122.138618,-123.194756,-124.488792,-125.83683,-127.033493,-127.942467,-128.51532,-128.760101,-128.717453,-128.476028,-128.201096,-128.118576,-128.425766,-129.168762,-130.176895,-131.123947,-131.702271,-131.807281,-131.607193,-131.4431,-131.620636,-132.232834,-133.133865,-134.074738,-134.89418,-135.618332,-136.395004,-137.318359,-138.29039,-139.043716,-139.327362,-139.123383,-138.721085,-138.566498,-138.968292,-139.859406,-140.794479,-141.210052,-140.790192,-139.695419,-138.492996,-137.823151,-138.015121,-138.904297,-139.968353,-140.686356,-140.876114,-140.784027,-140.873917,-141.467682,-142.489059,-143.486771,-143.919281,-143.50531,-142.403534,-141.105423,-140.121017,-139.672424,-139.595245,-139.499222,-139.063629,-138.259811,-137.355438,-136.711853,-136.526505,-136.700958,-136.918427,-136.866043,-136.440536,-135.79599,-135.209335,-134.868179,-134.73616,-134.592697,-134.218018,-133.590744,-132.954025,-132.693115,-133.093094,-134.128235,-135.418472,-136.388199,-136.54039,-135.691711,-134.040573,-132.04007,-130.159103,-128.671204,-127.582314,-126.717995,-125.894768,-125.057533,-124.297035,-123.745834,-123.433296,-123.208145,-122.793068,-121.947563,-120.637741,-119.097557,-117.726479,-116.871063,-116.616943,-116.721268,-116.735374,-116.250153,-115.116364,-113.503067,-111.758316,-110.164581,-108.753937,-107.312416,-105.577271,-103.494667,-101.351028,-99.6622162,-98.8623581,-98.9784927,-99.5103378,-99.6246948,-98.5830383,-96.1660004,-92.8413086,-89.5595398,-87.2766113,-86.4634018,-86.8736572,-87.6938858,-87.9819336,-87.1433105,-85.1859436,-82.6333237,-80.1747665,-78.2715225,-76.9428787,-75.833847,-74.4967575,-72.7024231,-70.5942078,-68.6016998,-67.1730652,-66.4860001,-66.3046494,-66.0670624,-65.1627426,-63.2585297,-60.5021324,-57.4904099,-55.0039024,-53.6281815,-53.4469223,-53.9677277,-54.3337555,-53.7305984,-51.7898331,-48.7793732,-45.4714241,-42.7460098,-41.1342583,-40.5470047,-40.3396797,-39.6813278,-38.0244751,-35.4141006,-32.4631615,-30.011425,-28.6622238,-28.4562149,-28.8556938,-29.03298,-28.2897816,-26.3768711,-23.5595245,-20.4278622,-17.5853901,-15.3897257,-13.8583965,-12.7446489,-11.7062855,-10.4763718,-8.98423767,-7.42023993,-6.2480793,-6.14550543,-7.83763981,-11.8172493,-18.0248966,-25.6391296,-33.1347656,-38.6697731,-40.6938286,-38.5265579,-32.6280289,-24.4118652,-15.6743479,-7.90836143,-1.82546604,2.71082497,6.36292028,9.8295536,13.4702539,17.2212734,20.7863998,23.926609,26.6411285,29.1360989,31.6355,34.1938591,36.6553726,38.7882538,40.4917908,41.919487,43.4202232,45.3283424,47.7420387,50.4420738,53.0108719,55.0780373,56.5333366,57.5701294,58.5358315,59.6950302,61.0679436,62.4539032,63.6212921,64.5287018,65.4157333,66.6862106,68.6477356,71.2757263,74.1674423,76.7369766,78.5483551,79.5868454,80.294838,81.3363113,83.219429,85.9992905,89.2407837,92.2684708,94.5575027,96.0321579,97.0917892,98.347847,100.230927,102.707878,105.284424,107.297012,108.321747,108.454788,108.293442,108.624191,109.99807,112.438957,115.449272,118.300316,120.429688,121.713676,122.468399,123.202339,124.28894,125.763268,127.354652,128.712158,129.661331,130.321762,131.015732,132.037735,133.442398,134.990189,136.282791,136.998276,137.076859,136.747986,136.393463,136.341309,136.715942,137.42099,138.240936,138.979782,139.548965,139.967026,140.298187,140.589447,140.850418,141.077164,141.286819,141.528854,141.865067,142.338043,142.953018,143.679916,144.462524,145.219254,145.839935,146.201736,146.222336,145.934616,145.530167,145.31633,145.57872,146.41391,147.639908,148.86412,149.691101,149.950256,149.790054,149.55986,149.544205,149.728943,149.778107,149.265778,148.024475,146.36557,144.987488,144.587769,145.409515,147.026794,148.542969,149.110321,148.454849,147.061462,145.880325,145.724335,146.740021,148.298508,149.384933,149.237137,147.817123,145.807465,144.141251,143.385742,143.395386,143.463928,142.862625,141.387543,139.534485,138.177261,137.969482,138.88179,140.195999,140.965118,140.629318,139.371994,137.976898,137.287094,137.633682,138.617371,139.381866,139.184341,137.873398,135.957626,134.232773,133.233826,132.889572,132.609039,131.731186,130.024628,127.895996,126.165421,125.555206,126.221619,127.623283,128.799576,128.878204,127.50647,124.971443,121.978729,119.25679,117.226181,115.894463,114.980019,114.141296,113.161156,112.004181,110.761452,109.555763,108.472878,107.53891,106.724556,105.95224,105.104065,104.045845,102.67569,100.97876,99.0513763,97.0679321,95.2007217,93.5381699,92.0524445,90.6362076,89.1825867,87.6553574,86.1068726,84.6396713,83.3441849,82.2535858,81.3354721,80.5102158,79.6725998,78.7054291,77.4949417,75.9643784,74.1239014,72.1061707,70.14711,68.4962692,67.2903366,66.4604874,65.7376785,64.7663727,63.2703133,61.1798286,58.6537857,55.9958115,53.5255737,51.4804039,49.9829941,49.0534172,48.6158981,48.4762764,48.300663,47.6579323,46.1599426,43.6553764,40.3629189,36.8316116,33.706871,31.4096889,29.9145432,28.7733707,27.3894062,25.3835716,22.8267612,20.1883297,18.0310516,16.6490021,15.8840866,15.2389641,14.2060413,12.5879259,10.5938568,8.65356827,7.0868535,5.86640501,4.64322805,3.01504421,0.841640115,-1.62674367,-3.91107917,-5.64853859,-6.87386465,-8.02292347,-9.63403511,-11.9407921,-14.643384,-17.0408707,-18.4678631,-18.763401,-18.4570942,-18.5242844,-19.8358192,-22.6316738,-26.3460217,-29.901413,-32.3026009,-33.1784515,-32.9559631,-32.5791779,-32.9592857,-34.4914017,-36.9109993,-39.5401344,-41.737133,-43.260643,-44.3428497,-45.4682083,-47.0365944,-49.1389313,-51.5713997,-54.0418663,-56.3991241,-58.718792,-61.1957932,-63.9345665,-66.7967834,-69.4204636,-71.4029388,-72.5292206,-72.9012909,-72.8935699,-72.9722519,-73.4938812,-74.5949173,-76.210289,-78.1737366,-80.3142929,-82.4910278,-84.5728683,-86.4171524,-87.8951721,-88.9624863,-89.7198486,-90.4017792,-91.2752838,-92.4989395,-94.0320435,-95.6609955,-97.1367111,-98.3406525,-99.3712234,-100.487778,-101.938866,-103.778091,-105.784599,-107.546013,-108.664902,-108.975883,-108.651459,-108.136116,-107.942039,-108.412445,-109.572639,-111.139999,-112.682495,-113.843086,-114.518578,-114.906258,-115.395981,-116.359863,-117.942848,-119.962227,-121.976105,-123.498116,-124.255615,-124.354141,-124.24749,-124.511467,-125.531265,-127.273872,-129.283981,-130.922134,-131.722031,-131.664093,-131.200562,-131.008347,-131.608994,-133.078842,-135.021011,-136.811905,-137.967209,-138.401276,-138.427094,-138.512314,-138.961319,-139.732819,-140.503616,-140.920319,-140.858185,-140.510147,-140.253662,-140.398239,-140.99379,-141.82843,-142.603836,-143.150787,-143.525955,-143.925842,-144.494095,-145.177155,-145.74501,-145.964569,-145.79245,-145.433075,-145.204529,-145.301254,-145.627548,-145.835068,-145.55394,-144.664154,-143.416534,-142.310501,-141.803162,-142.041855,-142.795441,-143.621124,-144.141342,-144.237152,-144.036682,-143.734711,-143.403183,-142.950745,-142.260971,-141.386108,-140.612762,-140.305771,-140.615143,-141.266891,-141.638245,-141.139236,-139.695648,-138.016022,-137.417191,-139.238373,-144.135773,-151.648148,-160.287628,-168.118866,-173.519852,-175.731918,-174.950912,-171.984833,-167.73613,-162.820526,-157.498688,-151.874084,-146.151337,-140.745605,-136.167511,-132.776978,-130.585983,-129.24704,-128.232651,-127.087502,-125.600052,-123.808075,-121.866768,-119.889656,-117.871796,-115.732185,-113.425133,-111.026894,-108.728912,-106.738083,-105.148682,-103.869019,-102.651161,-101.20929,-99.3617554,-97.1203308,-94.6816788,-92.3292542,-90.300148,-88.6864929,-87.4204178,-86.3445206,-85.3229523,-84.3244781,-83.4243698,-82.7202835,-82.2135239,-81.7363892,-80.9871597,-79.6707077,-77.6712799,-75.1505966,-72.4967957,-70.1361465,-68.3077621,-66.9351501,-65.6782684,-64.1421585,-62.1193504,-59.717804,-57.2951813,-55.2412605,-53.7461739,-52.6995163,-51.7786598,-50.6615067,-49.2213898,-47.5799942,-45.9944534,-44.6659813,-43.605217,-42.6425018,-41.5666046,-40.2868271,-38.9019623,-37.629509,-36.6477547,-35.9607964,-35.3757744,-34.6008949,-33.3939781,-31.6676083,-29.500185,-27.0722218,-24.5903568,-22.2482719,-20.2232571,-18.6669998,-17.6567154,-17.1219921,-16.8097725,-16.3472023,-15.400857,-13.8516302,-11.8706102,-9.82839966,-8.07601547,-6.72858715,-5.59379053,-4.2992487,-2.54146934,-0.293223202,2.17071676,4.44933033,6.27545595,7.68437386,8.97663307,10.501729,12.4116697,14.5531435,16.570282,18.1456738,19.2154198,20.0174675,20.9502983,22.3462219,24.3103886,26.7156353,29.3251934,31.9306679,34.4024467,36.6400337,38.5042076,39.8320198,40.5602875,40.8717728,41.2241745,42.1810493,44.1056023,46.9022369,49.9971657,52.6147995,54.2112007,54.8022003,54.9673157,55.5057526,56.9463425,59.2180328,61.6951447,63.5956421,64.4829102,64.5526276,64.5228119,65.1993256,66.9938736,69.6948242,72.6215744,75.0464859,76.6075745,77.4607468,78.1051483,79.0286407,80.4201279,82.1237793,83.8297501,85.3371735,86.6956329,88.1393661,89.8861847,91.9638443,94.1905212,96.3083878,98.1537018,99.7282867,101.126839,102.396049,103.458397,104.177757,104.520767,104.674606,104.999054,105.813522,107.158257,108.714645,109.975616,110.580566,110.595772,110.533745,111.068199,112.610641,115.023239,117.669334,119.786194,120.948486,121.322655,121.543457,122.290314,123.838882,125.879402,127.716408,128.713989,128.694229,128.035629,127.423538,127.431992,128.215546,129.498322,130.836578,131.949387,132.881775,133.89946,135.211258,136.735718,138.088745,138.804855,138.636337,137.720627,136.502686,135.471802,134.897339,134.738174,134.768448,134.806122,134.863861,135.110275,135.679688,136.487732,137.210938,137.467545,137.083405,136.252167,135.461151,135.212036,135.71048,136.727158,137.724365,138.167511,137.821487,136.845627,135.640366,134.564133,133.720764,132.958954,132.070999,131.035339,130.115051,129.726379,130.154221,131.307312,132.689911,133.631302,133.646027,132.708115,131.270798,130.017029,129.488266,129.806793,130.642441,131.423599,131.652481,131.13942,130.040695,128.712723,127.498383,126.577461,125.944931,125.487007,125.071175,124.584999,123.92363,122.979897,121.688347,120.116478,118.531761,117.358337,116.997032,117.582092,118.81852,120.026344,120.409988,119.433044,117.098701,113.97229,110.920181,108.699738,107.619942,107.449341,107.602898,107.481743,106.764496,105.497482,103.96653,102.464432,101.115433,99.8572769,98.5630798,97.1919861,95.8503418,94.720993,93.9192276,93.3861618,92.9007492,92.2045059,91.1534119,89.7947769,88.32267,86.9489288,85.7796249,84.7721939,83.7852173,82.6695633,81.3348465,79.7626648,77.9916916,76.1201324,74.3391571,72.9548798,72.3304062,72.7198181,74.0558319,75.8272324,77.1738434,77.2172852,75.4922791,72.2441559,68.393074,65.1309738,63.3266525,63.0395432,63.4040031,62.9573898,60.2551346,54.4761925,45.7470398,35.0761261,23.9867306,14.0524855,6.52499914,2.13650632,1.05007887,2.8891933,6.81411171,11.6689672,16.2326794,19.5459728,21.1997566,21.434639,20.9666824,20.5981159,20.8052063,21.5256405,22.2615166,22.4296474,21.7426834,20.3888512,18.907547,17.8501434,17.4471569,17.4900837,17.4910278,17.0033607,15.8904057,14.3760691,12.863945,11.6637716,10.8143511,10.1119652,9.30354309,8.29096127,7.19371033,6.22762012,5.4960742,4.85776043,3.98248982,2.57028675,0.584632397,-1.67188609,-3.71249175,-5.16794825,-6.04304266,-6.75182056,-7.89106035,-9.88033772,-12.6895485,-15.8279905,-18.6099777,-20.5397644,-21.5829659,-22.160881,-22.8756962,-24.1402702,-25.9427814,-27.8887157,-29.4870453,-30.4944687,-31.0969429,-31.8118916,-33.17099,-35.381134,-38.1753006,-40.9474373,-43.0914078,-44.3407135,-44.9084244,-45.3504257,-46.2412987,-47.8585663,-50.0556374,-52.381958,-54.360054,-55.745266,-56.6213455,-57.2978745,-58.097702,-59.1772728,-60.4826546,-61.8441582,-63.1232185,-64.3034515,-65.4708405,-66.7129288,-68.0218964,-69.276947,-70.3189316,-71.0627899,-71.5694351,-72.0307083,-72.6827469,-73.7070236,-75.1762924,-77.0609283,-79.266571,-81.66185,-84.0816193,-86.33004,-88.2212448,-89.6657867,-90.7595673,-91.8010635,-93.1878662,-95.2173996,-97.8932724,-100.860306,-103.532562,-105.367302,-106.143394,-106.08725,-105.769875,-105.827721,-106.659828,-108.262558,-110.27887,-112.215134,-113.69281,-114.601707,-115.096786,-115.476074,-116.031944,-116.95565,-118.318123,-120.096214,-122.200439,-124.48671,-126.769432,-128.861191,-130.638306,-132.095612,-133.344498,-134.540802,-135.783279,-137.055618,-138.263153,-139.347931,-140.397644,-141.650543,-143.359283,-145.578033,-148.011612,-150.053009,-151.032333,-150.565445,-148.808975,-146.460464,-144.477448,-143.649658,-144.248611,-145.94043,-148.001923,-149.711868,-150.697754,-151.055527,-151.19809,-151.545074,-152.246613,-153.098022,-153.677505,-153.605682,-152.763931,-151.347275,-149.737488,-148.289871,-147.16716,-146.310303,-145.539398,-144.697876,-143.736801,-142.69165,-141.587631,-140.363358,-138.887253,-137.067657,-134.978058,-132.891281,-131.168167,-130.045853,-129.455017,-128.999405,-128.143051,-126.518303,-124.175301,-121.607635,-119.512352,-118.404663,-118.308861,-118.71608,-118.847984,-118.081627,-116.288452,-113.887688,-111.584839,-109.956223,-109.131058,-108.756821,-108.25354,-107.184258,-105.504478,-103.542664,-101.743851,-100.360794,-99.3024902,-98.2359161,-96.862854,-95.1763763,-93.5173264,-92.3859558,-92.125351,-92.6758652,-93.5528946,-94.0601044,-93.610817,-91.9784546,-89.355896,-86.2248001,-83.1357346,-80.5218201,-78.6137848,-77.4461899,-76.9006042,-76.7440796,-76.6642914,-76.3295288,-75.4856186,-74.0569077,-72.1880417,-70.1813431,-68.347168,-66.8482132,-65.6333389,-64.5042191,-63.2718811,-61.8978844,-60.5235939,-59.3662567,-58.5522232,-58.0017471,-57.4464798,-56.5727539,-55.2016716,-53.395359,-51.4289017,-49.6523209,-48.3284416,-47.5344238,-47.1631241,-46.9977417,-46.8015099,-46.3779373,-45.5948448,-44.3924408,-42.7928391,-40.9051247,-38.9052315,-36.9812927,-35.2662659,-33.8004379,-32.5540276,-31.4961147,-30.6546669,-30.1093483,-29.9053555,-29.9431,-29.9344635,-29.4871006,-28.2948418,-26.3292789,-23.9059696,-21.5621853,-19.7966671,-18.8126926,-18.4120388,-18.1015129,-17.3491516,-15.8431168,-13.6141729,-10.9726629,-8.32106686,-5.96325493,-4.01032543,-2.40555334,-1.01656938,0.280613363,1.56855667,2.89664054,4.29318094,5.75876331,7.25440311,8.71678448,10.1123142,11.4976711,13.0282831,14.8793001,17.1084843,19.550333,21.8339024,23.5478249,24.4742661,24.7494888,24.8349915,25.2928123,26.4851742,28.3767624,30.5639324,32.5176773,33.8933601,34.7176514,35.3406372,36.1904221,37.4914627,39.1274223,40.7326469,41.9475632,42.6686211,43.1291389,43.7575455,44.90271,46.6009674,48.5342255,50.2104797,51.2605057,51.6721115,51.8185005,52.258564,53.4225769,55.3668289,57.7442894,60.0140762,61.7711105,62.9998093,64.0915222,65.5996475,67.8670883,70.7520447,73.6387405,75.7583847,76.6502151,76.4804459,75.9912567,76.0590439,77.0911102,78.6272812,79.4376297,78.1367035,74.0180893,67.6402664,60.7904091,55.7814598,54.4188652,57.1788445,63.0383339,70.0372925,76.2470627,80.6058426,83.1895447,84.84021,86.4526825,88.3900681,90.3668823,91.8065948,92.3718262,92.2789307,92.186676,92.7563782,94.2049332,96.1639709,97.936264,98.9644394,99.1899872,99.0682297,99.2480545,100.148727,101.719261,103.522041,105.052994,106.060097,106.647911,107.126549,107.747078,108.528534,109.290192,109.834976,110.1185,110.264153,110.421303,110.59819,110.625572,110.300507,109.605812,108.821815,108.413445,108.742592,109.800949,111.16674,112.243652,112.639832,112.432953,112.131752,112.346382,113.381332,115.023491,116.6688,117.701767,117.870949,117.40976,116.830795,116.547852,116.595764,116.643585,116.286659,115.404404,114.322922,113.657036,113.929367,115.220352,117.085258,118.796455,119.754189,119.802261,119.25489,118.635551,118.314232,118.283997,118.211952,117.711136,116.637657,115.211815,113.888771,113.072662,112.865318,113.008919,113.05024,112.613747,111.611534,110.27037,108.977036,108.051155,107.585785,107.438187,107.354385,107.134018,106.731865,106.245865,105.817635,105.522072,105.319717,105.097679,104.765564,104.338951,103.953003,103.793358,103.983452,104.495125,105.137138,105.6315,105.735718,105.342049,104.498642,103.346268,102.017357,100.56768,98.9866791,97.2748871,95.5228271,93.9170151,92.6460495,91.7569046,91.0645218,90.2029495,88.8219604,86.8282776,84.51651,82.4794083,81.3134918,81.2722473,82.0732727,82.9939423,83.2254028,82.2949524,80.3147736,77.9089966,75.8587265,74.6720123,74.3278885,74.3346939,74.05159,73.0682602,71.415535,69.4972763,67.8106155,66.6439743,65.9368668,65.3664322,64.5779724,63.3980713,61.9016647,60.3164558,58.8544998,57.5936317,56.4761429,55.3997459,54.3149452,53.253376,52.27668,51.3995323,50.5550613,49.6289177,48.5284309,47.2254066,45.7375031,44.0700111,42.1785622,39.9992065,37.5339203,34.9238319,32.4371376,30.3541889,28.8116379,27.7099266,26.7575397,25.6370354,24.1923046,22.515728,20.8765736,19.5368423,18.5763607,17.8417473,17.0493584,15.9685364,14.5606661,12.9845924,11.4731121,10.1712923,9.04666138,7.92500067,6.61704302,5.04457188,3.28490663,1.51673043,-0.0838166475,-1.42570424,-2.52447915,-3.474226,-4.40979052,-5.48411989,-6.84903526,-8.60963058,-10.746954,-13.0531836,-15.1510744,-16.6371098,-17.3033085,-17.3129559,-17.1971684,-17.6279697,-19.0642967,-21.4690456,-24.2798462,-26.6787148,-28.0248146,-28.205389,-27.698597,-27.3096828,-27.7356377,-29.2106857,-31.4264259,-33.7478104,-35.573391,-36.6233711,-37.0125275,-37.1151657,-37.3485985,-38.016571,-39.2709122,-41.1460342,-43.5793381,-46.3781128,-49.1804085,-51.5011787,-52.907177,-53.2538834,-52.8324585,-52.2937851,-52.3459549,-53.3799477,-55.2515297,-57.3707008,-59.0617485,-59.9781113,-60.3111572,-60.6581917,-61.6345291,-63.4815903,-65.924057,-68.3617401,-70.2585526,-71.4632034,-72.2504349,-73.0691986,-74.1873932,-75.4916611,-76.5873184,-77.1276169,-77.1339493,-77.0664215,-77.5722961,-79.0635071,-81.4021378,-83.9151154,-85.7523422,-86.3806839,-85.9143906,-85.0789032,-84.8267441,-85.830162,-88.1392136,-91.1850281,-94.1013489,-96.1636124,-97.1022339,-97.146431,-96.8206711,-96.6441498,-96.9056396,-97.6091309,-98.57164,-99.5785828,-100.498055,-101.308968,-102.060081,-102.808937,-103.579758,-104.35022,-105.05584,-105.600815,-105.877113,-105.799385,-105.352554,-104.629478,-103.827553,-103.189148,-102.905373,-103.03331,-103.478508,-104.060493,-104.627876,-105.153107,-105.742813,-106.547783,-107.620941,-108.811775,-109.773895,-110.101379,-109.532692,-108.113144,-106.21962,-104.420921,-103.236282,-102.913116,-103.337379,-104.118942,-104.799149,-105.064407,-104.854004,-104.320198,-103.688484,-103.120819,-102.668343,-102.32711,-102.130264,-102.18261,-102.589928,-103.327675,-104.163643,-104.737953,-104.80513,-104.514114,-104.532341,-105.872498,-109.442024,-115.51712,-123.428024,-131.664124,-138.394058,-142.166565,-142.447113,-139.728363,-135.18222,-130.067993,-125.227074,-120.914116,-116.995232,-113.321205,-109.998787,-107.378487,-105.785416,-105.198921,-105.123001,-104.761589,-103.410133,-100.830132,-97.3796158,-93.821907,-90.9284668,-89.1073685,-88.2586594,-87.9108887,-87.527153,-86.7871323,-85.6936951,-84.4785309,-83.4021683,-82.5873032,-81.9757843,-81.4051285,-80.728775,-79.8964081,-78.9582367,-78.0156784,-77.1675415,-76.4831772,-75.9984818,-75.7099228,-75.5547562,-75.3953247,-75.0415726,-74.3264313,-73.2052765,-71.8164139,-70.4476929,-69.4072113,-68.8617477,-68.7382965,-68.7550964,-68.5726166,-67.9788895,-66.998764,-65.8601074,-64.8367462,-64.0631409,-63.4321785,-62.6367111,-61.3296661,-59.3108101,-56.6383247,-53.6120529,-50.6482658,-48.1194115,-46.2381783,-45.0285492,-44.3744774,-44.1015625,-44.0441742,-44.073452,-44.0910225,-44.0109749,-43.7516594,-43.2458076,-42.4624672,-41.4261971,-40.2201309,-38.9668503,-37.7912331,-36.7783394,-35.9437141,-35.2300262,-34.5326805,-33.7421646,-32.7816505,-31.6215477,-30.2686653,-28.7458191,-27.0843678,-25.3393135,-23.6121292,-22.0493393,-20.7932739,-19.8959713,-19.2466354,-18.5755024,-17.5632172,-16.01758,-14.0199833,-11.9382076,-10.2667999,-9.36104012,-9.21088314,-9.39923096,-9.29334927,-8.37979794,-6.55638456,-4.2058115,-1.99614084,-0.514790237,0.0541801192,0.0216844585,0.00321705523,0.563898981,1.91190219,3.81700039,5.78767776,7.38239002,8.45725918,9.2065115,9.99220562,11.0924273,12.5367737,14.1254425,15.5983629,16.8240261,17.8764191,18.9573479,20.2336693,21.714695,23.2584286,24.6959915,25.9756031,27.2136383,28.6096458,30.2835274,32.15308,33.9457016,35.3461304,36.1875954,36.5622597,36.7798538,37.2029991,38.0650635,39.3798447,40.9840431,42.6637268,44.269371,45.7487755,47.1003189,48.3113327,49.3508034,50.2297363,51.0723724,52.1159515,53.6014442,55.6050415,57.9239693,60.1172523,61.7096863,62.4537201,62.4877968,62.2785835,62.3641701,63.0457039,64.2178574,65.4496689,66.2720718,66.4946899,66.3504257,66.3708115,67.0641251,68.5947418,70.664299,72.6711807,74.0520706,74.5977783,74.5539093,74.4529114,74.788887,75.7380905,77.0904388,78.4192047,79.3679657,79.8681488,80.1554871,80.5878525,81.393425,82.5159378,83.6544952,84.4665833,84.7993393,84.7989426,84.8287277,85.2478409,86.1879425,87.4643555,88.6737061,89.4182663,89.5248795,89.1348343,88.6202393,88.3820343,88.6467285,89.3711014,90.296875,91.1131897,91.6306839,91.873642,92.0473862,92.4067993,93.0999527,94.0687103,95.055748,95.7148972,95.7742081,95.1776047,94.1396179,93.0828094,92.4764786,92.6393967,93.5906219,95.0197296,96.4012909,97.2142029,97.1732559,96.3648987,95.2163162,94.3034821,94.084877,94.6901855,95.8715134,97.1442795,98.0465088,98.3806763,98.3090134,98.249527,98.6271515,99.6136169,100.997398,102.257439,102.80603,102.277359,100.714325,98.5593033,96.4550629,94.9560852,94.2920532,94.2942123,94.5127563,94.4604187,93.8604126,92.7797165,91.5879822,90.7668762,90.6656723,91.3224716,92.4381866,93.5154343,94.0946274,93.9707184,93.2831879,92.4342422,91.8767548,91.8800735,92.3931732,93.0729523,93.4588852,93.1998062,92.2151489,90.7143555,89.0777969,87.6750946,86.7202759,86.2295074,86.0798645,86.1111984,86.1996231,86.2654572,86.2317123,85.9854355,85.3885574,84.3448029,82.8827744,81.1959152,79.6004028,78.419281,77.84552,77.8518677,78.1934204,78.5039291,78.4438248,77.8362732,76.7352142,75.3987579,74.1791458,73.3733444,73.0950851,73.2239761,73.4581757,73.4522934,72.9786301,72.0313873,70.8155746,69.6207809,68.6471481,67.8860855,67.1341171,66.1415634,64.8106003,63.3142281,62.0438995,61.3933334,61.4933739,62.0584183,62.454731,61.9779854,60.2026672,57.2157631,53.6042862,50.1993141,47.7102127,46.4361534,46.1900368,46.4487267,46.627285,46.3283424,45.4571991,44.1823463,42.7992325,41.5800552,40.6638412,39.9954948,39.2996521,38.088562,35.7302284,31.6072083,25.3569527,17.1189423,7.66763115,-1.67377436,-9.358181,-14.081605,-15.2125692,-13.0039721,-8.49555969,-3.14813948,1.63844192,4.93458509,6.47646666,6.60724831,6.02518082,5.45918036,5.39586544,5.94125795,6.84195423,7.63617086,7.86820316,7.28455544,5.93922377,4.16873121,2.44811583,1.18970299,0.573885679,0.488135666,0.599125445,0.517324626,-0.0308483411,-1.10660517,-2.57457328,-4.20387125,-5.78538609,-7.19938469,-8.4103756,-9.41771507,-10.215909,-10.8023157,-11.2259426,-11.6323519,-12.2547503,-13.3347712,-15.0055609,-17.2011662,-19.6480675,-21.9516659,-23.7398224,-24.79743,-25.1353989,-24.974247,-24.6623039,-24.5688477,-24.9883289,-26.074337,-27.8080406,-30.00284,-32.3490334,-34.4975471,-36.1649437,-37.22258,-37.7278519,-37.8772926,-37.9016037,-37.9587059,-38.0855942,-38.2353401,-38.370575,-38.5445747,-38.9058113,-39.6122971,-40.7073326,-42.0442963,-43.3257141,-44.2512131,-44.6933289,-44.7910576,-44.8924713,-45.3676758,-46.3974953,-47.8649979,-49.4198341,-50.6807899,-51.4558258,-51.8456841,-52.1681099,-52.7513771,-53.727787,-54.9579201,-56.133091,-56.9894104,-57.4947052,-57.8854179,-58.5259132,-59.6762772,-61.3156281,-63.1354179,-64.7123566,-65.7576218,-66.289772,-66.6240158,-67.1822281,-68.2380142,-69.7500916,-71.3837585,-72.7058105,-73.4353027,-73.6011353,-73.5165024,-73.5909576,-74.0957184,-75.0211182,-76.1044769,-77.0024109,-77.4971313,-77.6117706,-77.5706863,-77.6383591,-77.9432678,-78.3987961,-78.7699051,-78.8421478,-78.5854416,-78.2073364,-78.0573807,-78.4345322,-79.4097748,-80.7691498,-82.1139908,-83.0638046,-83.4486313,-83.384285,-83.1920395,-83.2127686,-83.6234055,-84.3572922,-85.1660538,-85.7776184,-86.0527725,-86.0498734,-85.9675064,-86.0090942,-86.2565918,-86.6281662,-86.9376144,-87.0095367,-86.7743759,-86.2878189,-85.6743469,-85.0453186,-84.4550934,-83.924675,-83.5076828,-83.3352356,-83.5857315,-84.377594,-85.6459045,-87.0924149,-88.2679672,-88.7697449,-88.4571152,-87.5607529,-86.6047058,-86.1609802,-86.5557404,-87.6854706,-89.0517654,-90.0080414,-90.0924072,-89.2679214,-87.9375305,-86.7241745,-86.1371994,-86.310257,-86.9535217,-87.5391083,-87.6047592,-86.9965286,-85.9149399,-84.7526245,-83.8394699,-83.2628174,-82.8740082,-82.4644012,-81.9779053,-81.5996017,-81.6430359,-82.2995529,-83.419426,-84.4909973,-84.8670654,-84.1258774,-82.3533478,-80.1616211,-78.4077682,-77.7563171,-78.3290634,-79.6413269,-80.8601303,-81.2353821,-80.4615173,-78.7783356,-76.7792892,-75.0626068,-73.9354172,-73.3255157,-72.9155426,-72.3832397,-71.5881348,-70.6050034,-69.6164627,-68.7622757,-68.0513611,-67.3798981,-66.6194077,-65.6987762,-64.6258163,-63.4506493,-62.2180939,-60.9549904,-59.6988106,-58.5313644,-57.5728874,-56.9237671,-56.5872803,-56.4290848,-56.2090912,-55.6742287,-54.6615257,-53.1587143,-51.3013687,-49.3244286,-47.5010529,-46.0866394,-45.2621346,-45.0676994,-45.344101,-45.7306557,-45.7663078,-45.0864754,-43.6287498,-41.716198,-39.9277077,-38.7865143,-38.430233,-38.4740868,-38.1897964,-36.9336967,-34.5827103,-31.6986065,-29.2827015,-28.2314301,-28.8033466,-30.4246979,-31.9692936,-32.3610764,-31.1455574,-28.6920815,-25.9173279,-23.7171688,-22.4684582,-21.9026928,-21.4025459,-20.496664,-19.209549,-18.0348301,-17.5621891,-18.0211277,-19.0551624,-19.8794079,-19.7174931,-18.2345276,-15.6970911,-12.7797642,-10.1660128,-8.20626545,-6.83022213,-5.7234807,-4.60693741,-3.41592622,-2.27890229,-1.35434973,-0.679285884,-0.150042802,0.36730212,0.910128236,1.3996228,1.75520468,2.0467546,2.54020286,3.56425476,5.26835203,7.44584036,9.57505226,11.0890427,11.7178354,11.6775198,11.5659418,12.0147886,13.3140144,15.250452,17.2654095,18.8259583,19.7632771,20.3553867,21.1049576,22.3682499,24.0899162,25.8246078,27.0319538,27.4478035,27.2845097,27.1266537,27.5884609,28.9513798,31.008606,33.2066307,34.9861298,36.1059341,36.7555618,37.401535,38.4765854,40.1075821,42.04142,43.8007393,44.9663162,45.4184494,45.4049759,45.4077492,45.8885956,47.0524559,48.7470665,50.5432549,51.9492683,52.6499252,52.6527748,52.2713661,51.9570999,52.0691376,52.7063599,53.695034,54.739563,55.6449394,56.4659119,57.4691887,58.9040298,60.7050323,62.3190689,62.8030701,61.1944237,56.9898071,50.4822006,42.7605972,35.3488922,29.6544209,26.4974804,25.941494,27.4700546,30.3676777,34.0673256,38.2811279,42.8881569,47.7111015,52.3723869,56.3493767,59.2010193,60.8151016,61.505188,61.879818,62.5498352,63.8402748,65.6695709,67.6560974,69.3772125,70.6216431,71.4893646,72.2921829,73.3281937,74.6743088,76.1231842,77.3003311,77.8897476,77.833992,77.3922882,77.0232925,77.1594162,77.998764,79.4265213,81.1000671,82.6376724,83.7959366,84.537384,84.9659653,85.1941605,85.2454834,85.0630646,84.6113052,83.9822159,83.4071198,83.1405945,83.2844315,83.6809769,83.9748306,83.8306961,83.1740723,82.2820053,81.6332932,81.5896301,82.1130219,82.7293777,82.8027115,81.9727097,80.4727783,79.09021,78.7444077,79.9148254,82.2758942,84.7966232,86.2839508,86.0637436,84.3873291,82.3031693,81.055809,81.3660583,83.021286,85.0139771,86.1316757,85.633812,83.6182022,80.8909454,78.4655151,77.0258179,76.670105,77.0379944,77.6674576,78.3037949,78.9590912,79.7266541,80.536293,81.0668716,80.9004517,79.812233,77.9822235,75.9642105,74.4152451,73.7529221,73.9545517,74.6139145,75.2022781,75.3580322,75.0314865,74.4245605,73.8021011,73.3179092,72.9595184,72.6144333,72.1775284,71.6116562,70.9333115,70.16465,69.3135376,68.402771,67.5094833,66.754097,66.2184219,65.8442993,65.4040909,64.5999832,63.2560272,61.4817963,59.6796837,58.3572006,57.8379593,58.0486946,58.529892,58.6840096,58.1220703,56.8978729,55.4812698,54.4811859,54.2845306,54.8288269,55.642067,56.1179199,55.8534279,54.8467522,53.4479904,52.1115685,51.1148987,50.416748,49.7304077,48.7500343,47.3777542,45.8073158,44.4149132,43.5276718,43.2123909,43.2124367,43.072197,42.379734,40.9916954,39.1146545,37.1971664,35.6908531,34.8111572,34.4290543,34.1534843,33.5586815,32.4284821,30.8783035,29.2837238,28.056097,27.3968735,27.177475,27.0182419,26.5188408,25.4973164,24.0866299,22.6259632,21.4162693,20.5018806,19.6291656,18.4214058,16.6643658,14.5137091,12.4724417,11.1268559,10.7874689,11.2552576,11.8712692,11.842165,10.665411,8.41028118,5.68886042,3.32957149,1.93740988,1.58819735,1.8226608,1.93181849,1.36132753,0.00401306106,-1.77594495,-3.38535666,-4.36175776,-4.64536762,-4.61806583,-4.89794683,-6.00804663,-8.09588242,-10.8438225,-13.6069489,-15.7029676,-16.7124519,-16.6530094,-15.9573135,-15.2761278,-15.2016563,-16.0339336,-17.6862049,-19.7595997,-21.7426624,-23.2400475,-24.1274529,-24.5694561,-24.9031582,-25.4532452,-26.3725376,-27.5841732,-28.846344,-29.8971577,-30.5979824,-30.9983845,-31.2911644,-31.6874294,-32.2858238,-33.0135002,-33.6760521,-34.0912895,-34.2300758,-34.2769089,-34.5618706,-35.3867645,-36.8338432,-38.6677361,-40.4017525,-41.5148048,-41.7177505,-41.1289597,-40.2552299,-39.7729111,-40.2131958,-41.7128143,-43.9608841,-46.3666992,-48.3522453,-49.6070671,-50.1722107,-50.3262634,-50.3647957,-50.4208565,-50.4351006,-50.2770805,-49.9160919,-49.5091972,-49.3357735,-49.6190147,-50.3588104,-51.2988205,-52.0626068,-52.3790703,-52.2537193,-51.9741364,-51.9442635,-52.4521523,-53.515934,-54.8981323,-56.267849,-57.3987999,-58.2780533,-59.0689583,-59.9706955,-61.07761,-62.3269386,-63.5521431,-64.5865631,-65.3400116,-65.8081818,-66.0349426,-66.0795288,-66.0213928,-65.9848328,-66.1329041,-66.598938,-67.3842468,-68.3018723,-69.0388718,-69.334259,-69.1752472,-68.8730621,-68.9344788,-69.7737122,-71.4280777,-73.4640656,-75.159462,-75.8776627,-75.420845,-74.1481781,-72.7808228,-72.0050049,-72.1065674,-72.8477249,-73.6447449,-73.9235611,-73.4343033,-72.3503036,-71.1239166,-70.2185364,-69.8899612,-70.1281052,-70.7485809,-71.5330124,-72.3147125,-72.9788055,-73.4261246,-73.5721893,-73.4033127,-73.039444,-72.7244186,-72.7112732,-73.0993881,-73.7394562,-74.2952423,-74.4466019,-74.1083527,-73.5096664,-73.060463,-73.0768661,-73.5454178,-74.0943985,-74.209549,-73.5649948,-72.2543869,-70.7645721,-69.7014313,-69.4418106,-69.9350815,-70.7770309,-71.4968719,-71.8581772,-71.9726791,-72.1601791,-72.6638412,-73.4265823,-74.0856171,-74.1871262,-73.4711685,-72.0334473,-70.2624435,-68.6070251,-67.3407822,-66.47686,-65.8677521,-65.3882294,-65.0468674,-64.9389725,-65.086998,-65.312233,-65.2663803,-64.6322784,-63.3650246,-61.7930222,-60.4777031,-59.8940315,-60.1285057,-60.8012466,-61.2876434,-61.1242523,-60.3564796,-59.6074867,-59.8079987,-61.7264366,-65.5548248,-70.7706146,-76.3346329,-81.1027603,-84.2306061,-85.3853149,-84.7093201,-82.6190796,-79.5854645,-76.0079803,-72.2025986,-68.4429321,-64.9769363,-61.9859085,-59.5169029,-57.4520683,-55.557476,-53.5977554,-51.454052,-49.1767349,-46.9437103,-44.9531822,-43.3168221,-42.0138664,-40.9246559,-39.9130402,-38.9015045,-37.8945045,-36.9429321,-36.0805168,-35.2778397,-34.4447403,-33.4789162,-32.3285904,-31.0285606,-29.685421,-28.4190636,-27.2944336,-26.2843647,-25.2864685,-24.1850567,-22.9217968,-21.5330257,-20.1320019,-18.8486176,-17.766161,-16.8958359,-16.2033691,-15.6641655,-15.3007889,-15.1664906,-15.2778902,-15.5425978,-15.742548,-15.6055059,-14.9396334,-13.7563562,-12.3009071,-10.9577694,-10.0725985,-9.78641796,-9.97450829,-10.3213902,-10.4825211,-10.2355766,-9.5397234,-8.48836231,-7.21145105,-5.80868673,-4.35786772,-2.97327113,-1.84069562,-1.16831076,-1.06020868,-1.39323366,-1.79980528,-1.80493152,-1.06503201,0.424305677,2.28531265,3.92622566,4.84158659,4.8809495,4.3334837,3.77928925,3.79082847,4.65011787,6.23124456,8.09812832,9.74724197,10.8556709,11.4095716,11.6682663,12.009284,12.7488422,14.0216284,15.7545004,17.7177238,19.6133938,21.1650543,22.1896381,22.6432362,22.63344,22.390564,22.2003288,22.3187275,22.9037704,23.9930286,25.5305481,27.4169579,29.5450039,31.7991657,34.0315247,36.0505867,37.6545715,38.7068939,39.2131157,39.3454857,39.3867111,39.6138916,40.1831779,41.0772972,42.1395798,43.1663704,43.9996033,44.5725861,44.902462,45.0596771,45.1496544,45.3136482,45.7215729,46.5231743,47.7571945,49.2685623,50.7078629,51.6554794,51.8341446,51.2984085,50.4744949,49.9936562,50.3836708,51.7818069,53.840023,55.8932037,57.3082085,57.8180504,57.6464615,57.3484077,57.4615173,58.1781082,59.2350311,60.0856209,60.2459259,59.6028671,58.498455,57.5435944,57.2790298,57.8883171,59.1277084,60.5001335,61.5537758,62.1205521,62.3603706,62.6050415,63.1166229,63.9157295,64.7773438,65.3799744,65.5025711,65.1468964,64.5231476,63.9265099,63.5928078,63.6169357,63.9627495,64.5297623,65.2154465,65.9333267,66.5941696,67.0902557,67.317009,67.2289276,66.8890076,66.4643097,66.1527023,66.0745773,66.1939392,66.3216248,66.2066498,65.6694717,64.7067566,63.5155716,62.4298706,61.8050804,61.9022484,62.8098068,64.4157562,66.4266663,68.4288177,69.9898376,70.7901001,70.748291,70.0820694,69.2502823,68.7704163,68.9776611,69.8447037,70.9725342,71.7812958,71.8160858,71.0039749,69.7107391,68.5531921,68.0651703,68.4070663,69.2880478,70.1446075,70.4643021,70.0567093,69.1109695,68.018631,67.0916672,66.3698273,65.6457138,64.6841812,63.4753456,62.3324966,61.747818,62.0844917,63.3025436,64.9058075,66.1619949,66.4738693,65.6814575,64.1169434,62.3891525,61.0406952,60.2908058,60.0080032,59.8989716,59.7613182,59.6193352,59.6577034,60.0173149,60.6153717,61.131237,61.1785316,60.5483704,59.3549194,57.9787369,56.8407097,56.1536255,55.8116646,55.4834328,54.8382797,53.7530899,52.3701057,50.985302,49.8609657,49.0968094,48.6371384,48.3842926,48.3115005,48.4769974,48.9259109,49.5612106,50.0974846,50.1556664,49.4530983,47.9677925,45.9650307,43.8636513,42.0261192,40.6046562,39.5328827,38.6491127,37.8489952,37.1534195,36.6483841,36.3532944,36.1291809,35.7087708,34.8391609,33.441925,31.6783733,29.8712845,28.3331814,27.2136402,26.4607906,25.9091187,25.4182796,24.9588337,24.5891113,24.3547859,24.2026768,23.9880295,23.5792179,22.9824677,22.383831,22.058279,22.1910114,22.7262821,23.35215,23.6466293,23.3057537,22.3171597,20.9725227,19.7094364,18.875351,18.5492344,18.516634,18.4006596,17.8648186,16.7742863,15.2397089,13.5409498,11.9890585,10.801713,10.0412569,9.62150383,9.35947704,9.04278469,8.49444675,7.62642145,6.47229576,5.18346786,3.97647738,3.03850484,2.42664313,2.01320505,1.51813769,0.628856897,-0.841520667,-2.83651114,-5.0471015,-7.02902985,-8.39913177,-9.01700687,-9.05741501,-8.92731285,-9.05873108,-9.67693043,-10.6670046,-11.6237803,-12.0823259,-11.8288383,-11.1340532,-10.7698069,-11.7643719,-14.9826689,-20.7174358,-28.4891644,-37.1616631,-45.3278885,-51.7873383,-55.8955612,-57.6426125,-57.4667206,-55.9454231,-53.5501518,-50.5807076,-47.2627754,-43.8837585,-40.8295326,-38.4719124,-36.9798431,-36.1980438,-35.7024536,-35.0237312,-33.9096375,-32.460186,-31.0459805,-30.06143,-29.6744232,-29.7368774,-29.9114017,-29.9225483,-29.7563267,-29.6685257,-29.995676,-30.9004478,-32.2303162,-33.5909462,-34.5875854,-35.0709991,-35.2206001,-35.4090462,-35.9422112,-36.8525658,-37.8848267,-38.6786995,-39.0182304,-38.9743156,-38.844635,-38.9376297,-39.3547783,-39.9235001,-40.3260536,-40.3326683,-39.9768486,-39.5529594,-39.4396553,-39.8696938,-40.7969131,-41.9389191,-42.9527626,-43.6181755,-43.9123726,-43.9492722,-43.8550148,-43.6884193,-43.4659843,-43.2574234,-43.2530937,-43.7202759,-44.8508606,-46.5956688,-48.6090393,-50.3660049,-51.4017677,-51.5370293,-50.9538383,-50.0771255,-49.3375893,-48.962307,-48.9146767,-49.0033607,-49.070488,-49.124054,-49.3261108,-49.8520164,-50.7260094,-51.7550468,-52.6171036,-53.0562134,-53.0627861,-52.9203415,-53.0770874,-53.9043427,-55.4726944,-57.4710884,-59.3199043,-60.427166,-60.4631081,-59.5185013,-58.0697479,-56.7678757,-56.152668,-56.4269218,-57.3937073,-58.5781364,-59.4646072,-59.7267456,-59.337841,-58.5187225,-57.5702934,-56.6982536,-55.9329338,-55.1811981,-54.3602791,-53.5114975,-52.8083,-52.4483871,-52.5037537,-52.8376122,-53.15765,-53.1844711,-52.8331413,-52.2899094,-51.9282532,-52.1088943,-52.9810486,-54.3993988,-55.9964867,-57.3555756,-58.1770744,-58.3534393,-57.9403687,-57.0801086,-55.9470444,-54.7425957,-53.7056961,-53.0813332,-53.0245934,-53.4856491,-54.164566,-54.6012268,-54.3817902,-53.3551636,-51.7274513,-49.9658051,-48.5594406,-47.7775688,-47.5669441,-47.6411209,-47.6892281,-47.5599632,-47.3044052,-47.068737,-46.9358978,-46.8467445,-46.6633415,-46.3214378,-45.9421196,-45.794796,-46.1128769,-46.8822174,-47.7621117,-48.2230492,-47.8412476,-46.5736427,-44.8329544,-43.2988396,-42.5659027,-42.8344917,-43.8262482,-44.9678497,-45.7229004,-45.8677788,-45.5536995,-45.1391563,-44.9200211,-44.9378014,-44.9814796,-44.7638321,-44.1408882,-43.2235184,-42.3105659,-41.6944847,-41.4717445,-41.4810905,-41.4044075,-40.9589424,-40.0553246,-38.8251457,-37.5113029,-36.303627,-35.2337837,-34.1993828,-33.0971947,-31.96875,-31.0473022,-30.6543045,-30.990984,-31.9473419,-33.0576935,-33.6594048,-33.1963615,-31.5158863,-28.9928551,-26.3940353,-24.5311203,-23.8707409,-24.3044529,-25.206068,-25.7535038,-25.3487549,-23.9137325,-21.906168,-20.0532761,-18.9554443,-18.7790432,-19.1999779,-19.6126251,-19.4707966,-18.563406,-17.0811386,-15.4615555,-14.1262426,-13.2698021,-12.8079472,-12.4835768,-12.0393114,-11.3454971,-10.4249964,-9.3936615,-8.38179111,-7.49108887,-6.79326153,-6.33586359,-6.12220716,-6.07078791,-5.99843502,-5.67112684,-4.91980982,-3.75876999,-2.42083073,-1.26354277,-0.583642066,-0.446480215,-0.640053809,-0.79026109,-0.570428252,0.125617325,1.15522742,2.25516891,3.23258138,4.08338833,4.95602322,5.99045277,7.1552,8.21162033,8.84719086,8.89657021,8.49677467,8.05490875,8.0273037,8.63910484,9.72536564,10.8089476,11.3845034,11.2428169,10.6332417,10.150877,10.398632,11.6144381,13.4852829,15.2710743,16.1874771,15.846487,14.5119534,13.0191002,12.3836756,13.2935162,15.7438679,19.0106716,21.9856892,23.7108536,23.8423615,22.8059025,21.5601501,21.0888348,21.8859711,23.7055359,25.7074776,26.9192219,26.7603321,25.3451195,23.4040585,21.8799858,21.4356003,22.1496277,23.5576305,24.9847584,25.949688,26.3931236,26.6114273,26.9707146,27.6117668,28.3470802,28.8092728,28.7351284,28.1797771,27.5095901,27.1791248,27.446701,28.222086,29.1444016,29.8280716,30.1030102,30.0888691,30.0685978,30.2708416,30.7289505,31.3160477,31.9121494,32.5491867,33.387291,34.501873,35.6176567,35.9996529,34.6405067,30.7057552,24.0249081,15.3593864,6.2782135,-1.32927108,-5.89247942,-6.67359209,-3.95450139,1.14535332,7.10886621,12.5296545,16.5112705,18.8479748,19.9598522,20.6257992,21.6131172,23.3390789,25.7020721,28.1659184,30.0713139,31.0254211,31.1570606,31.0770607,31.5425568,33.0061417,35.3193321,37.7845345,39.5425453,40.0687866,39.4729652,38.4136581,37.6842003,37.7391014,38.4674454,39.3513603,39.885273,39.9541817,39.901268,40.236927,41.2002869,42.4972076,43.4230423,43.3095322,42.0003929,40.0249825,38.3339462,37.7537727,38.5078316,40.1086006,41.6791191,42.4817123,42.3089981,41.5047531,40.6436539,40.1228561,39.9510536,39.8511429,39.553791,39.0294113,38.4762993,38.0918999,37.8365593,37.4108162,36.4952278,35.0774422,33.5927925,32.7213707,32.9441414,34.1731834,35.7667427,36.9961243,37.7033539,38.7059784,41.6147919,48.0830574,58.8812599,73.3396149,89.510994,104.988754,117.927773,127.705994,134.89505,140.629578,145.807892,150.612747,154.593201,157.172882,158.19455,158.127655,157.821823,157.998566,158.830902,159.876175,160.377472,159.713791,157.710129,154.643967,151.000961,147.184296,143.375336,139.602097,135.911285,132.475998,129.541382,127.251045,125.497414,123.926079,122.110878,119.789467,117.002975,114.04895,111.285294,108.920715,106.927803,105.12178,103.33165,101.533508,99.8531494,98.4459534,97.3493347,96.417778,95.386055,94.0135498,92.2091827,90.0564804,87.7323303,85.3840027,83.0486145,80.6583099,78.1101227,75.3402786,72.3540573,69.2071609,65.973793,62.7368584,59.6023979,56.7051315,54.1712112,52.0428925,50.2170219,48.461525,46.5306816,44.3250885,41.9901543,39.8651657,38.2824554,37.3218536,36.6752205,35.7279549,33.8396454,30.6799221,26.4300308,21.729166,17.3880501,14.0234079,11.8055925,10.4380722,9.3511858,7.98042488,5.97604561,3.25947309,-0.0529864021,-3.76979399,-7.70368624,-11.6901426,-15.5859184,-19.3000317,-22.8638363,-26.4857903,-30.5163574,-35.2954102,-40.9419594,-47.2110672,-53.5303726,-59.2341805,-63.8893967,-67.5345917,-70.6841202,-74.073822,-78.2724686,-83.3659515,-88.8871765,-94.0321732,-98.047081,-100.58065,-101.821259,-102.358749,-102.858238,-103.725288,-104.932846,-106.08371,-106.655563,-106.287582,-104.959831,-102.984268,-100.827675,-98.8687134,-97.2153854,-95.6712418,-93.8609314,-91.4485855,-88.3392105,-84.7627029,-81.1952667,-78.1500702,-75.9333344,-74.4843292,-73.3846054,-72.0447845,-69.9890442,-67.102211,-63.7114868,-60.4497185,-57.9558067,-56.5571899,-56.0990982,-56.0185585,-55.6371613,-54.5283432,-52.7673035,-50.9248695,-49.7959938,-49.992878,-51.6065407,-54.109169,-56.5492706,-57.9466362,-57.7004128,-55.8259621,-52.9269867,-49.9348526,-47.7435265,-46.8944168,-47.4224815,-48.8962402,-50.6118469,-51.8593369,-52.17062,-51.4734077,-50.103363,-48.6671524,-47.7990875,-47.9016914,-48.9806404,-50.6550827,-52.3460426,-53.552845,-54.0737915,-54.0523376,-53.8287315,-53.6938782,-53.7040443,-53.676487,-53.3666801,-52.703167,-51.9103394,-51.419178,-51.6092186,-52.5469818,-53.9010391,-55.1049995,-55.6759148,-55.4867477,-54.8150787,-54.1350975,-53.7913055,-53.7738037,-53.7483711,-53.3219757,-52.3616447,-51.1436005,-50.2206192,-50.0854759,-50.8490753,-52.1472054,-53.3413544,-53.8856964,-53.6241722,-52.8307457,-51.9784889,-51.4026718,-51.0888863,-50.7269516,-49.9872169,-48.8227577,-47.5811005,-46.8355713,-47.0339508,-48.1879387,-49.8080101,-51.1378326,-51.5561485,-50.909771,-49.5819778,-48.259079,-47.5353165,-47.5871315,-48.10075,-48.4855232,-48.2403145,-47.257,-45.8872528,-44.7380791,-44.3167877,-44.7303123,-45.6121674,-46.3216515,-46.3065338,-45.4267235,-44.0549049,-42.8918419,-42.5926361,-43.4073334,-45.0336075,-46.762207,-47.8331528,-47.8052711,-46.7407227,-45.1184387,-43.5471344,-42.4549217,-41.9267273,-41.7531967,-41.6204453,-41.2969475,-40.7044907,-39.8628693,-38.793045,-37.4802284,-35.9296799,-34.25214,-32.6760483,-31.4371166,-30.6069107,-29.9994583,-29.2660122,-28.1558743,-26.7762718,-25.6413155,-25.4142647,-26.4601135,-28.4944191,-30.6061707,-31.7236366,-31.2991028,-29.8020859,-28.6711845,-29.6702461,-33.9558601,-41.3649063,-50.3364182,-58.5366516,-63.8635101,-65.302597,-63.2106171,-58.9408493,-54.086998,-49.7903252,-46.4487915,-43.8795319,-41.7153893,-39.7287521,-37.8999863,-36.2702904,-34.7718048,-33.2118721,-31.4329929,-29.5064087,-27.7735863,-26.6603069,-26.3682976,-26.6621647,-26.9259911,-26.4880085,-25.0246277,-22.7869511,-20.4949684,-18.9502277,-18.5930634,-19.2621288,-20.2871819,-20.8464794,-20.3754883,-18.8059464,-16.5340805,-14.1765938,-12.2733326,-11.0887127,-10.576333,-10.4735889,-10.4445295,-10.2023325,-9.58456039,-8.58412266,-7.33982992,-6.08095551,-5.02671957,-4.27208233,-3.72088981,-3.12244892,-2.21461701,-0.903372109,0.632042825,1.98925269,2.73731661,2.64848423,1.82658303,0.650219142,-0.434031636,-1.13627934,-1.42389345,-1.44295871,-1.3302002,-1.0607301,-0.449421734,0.68962568,2.34091997,4.19932604,5.78212833,6.69159889,6.86770153,6.66353655,6.67999983,7.44580936,9.12683487,11.4328384,13.7710609,15.5520945,16.4727802,16.6285763,16.4177952,16.31847,16.6737843,17.5902443,18.9674854,20.6014328,22.2801552,23.8266888,25.0990734,25.9897346,26.4537258,26.5541611,26.4808731,26.5034084,26.8613663,27.6437187,28.7287292,29.8292522,30.6300068,30.9480782,30.8310127,30.5379276,30.4116669,30.7073898,31.4652958,32.4904442,33.4473305,34.0194473,34.0546379,33.627449,32.9930916,32.4604492,32.2490234,32.3986702,32.7722549,33.1440811,33.3253059,33.261734,33.0561256,32.9079628,33.0061798,33.4334908,34.1324234,34.9483681,35.7228127,36.3825378,36.9729805,37.6145554,38.4040298,39.3160858,40.1647072,40.6563492,40.5191612,39.6488571,38.1957321,36.5402908,35.1580238,34.431736,34.5008659,35.2220764,36.2586746,37.2479477,37.9542999,38.3281021,38.4500465,38.4127235,38.2287636,37.8323669,37.1712799,36.3155479,35.488781,34.9760475,34.9518967,35.3410683,35.8208389,35.9907494,35.6222763,34.8334503,34.0635986,33.8402824,34.463726,35.7965775,37.2938347,38.2677383,38.2421608,37.1980591,35.5785255,34.0638313,33.2535133,33.4276886,34.4913635,36.0880699,37.7831078,39.2104607,40.138504,40.4791412,40.2881699,39.7718544,39.2665176,39.147995,39.6752815,40.8429222,42.3462372,43.7134056,44.5510216,44.7592964,44.5736427,44.3942223,44.5096359,44.9029388,45.2809677,45.3145409,44.9212837,44.3788757,44.1656418,44.6196327,45.6513252,46.7296791,47.1852036,46.6509323,45.3478012,44.0034409,43.4278183,44.0021286,45.4102173,46.7972603,47.2696381,46.4281616,44.6028137,42.6462593,41.4224129,41.3124733,42.0371819,42.8825226,43.1615448,42.6116829,41.4930267,40.3605003,39.6878815,39.5927315,39.817009,39.9377289,39.6426125,38.8923111,37.8938484,36.9432335,36.264286,35.9407272,35.9488335,36.2255516,36.7018433,37.2849731,37.830986,38.1593895,38.1199036,37.6672897,36.8844185,35.9322815,34.9656067,34.081028,33.3342171,32.7963905,32.5771484,32.763092,33.299427,33.9133835,34.1766052,33.7148247,32.4533272,30.729044,29.1614761,28.3285103,28.4368858,29.2030869,30.0361633,30.4139233,30.2047348,29.7129669,29.4098949,29.5331554,29.8416843,29.718586,28.5774479,26.3076782,23.4472694,20.9388294,19.6005554,19.6425343,20.5419922,21.3642807,21.3281956,20.2575798,18.6400299,17.2746601,16.7563305,17.1373081,17.9701195,18.6684608,18.9120235,18.8096428,18.7237015,18.9093266,19.2549152,19.3323421,18.7332306,17.4479904,15.9963264,15.1793642,15.5867319,17.1747742,19.2060299,20.6167316,20.6041641,19.0796967,16.712328,14.5390329,13.3807545,13.4108362,14.1160049,14.6445475,14.3111782,12.9579468,10.9841623,9.06946278,7.78571653,7.32842159,7.49421978,7.87054491,8.09068489,8.0009222,7.6699748,7.27621984,6.96803999,6.78169203,6.64458179,6.43647051,6.0602479,5.48791218,4.77340651,4.03918076,3.44286942,3.12643957,3.15560627,3.47175956,3.8871727,4.14199352,4.00906658,3.39902163,2.40883875,1.28321981,0.306421578,-0.31805864,-0.537568271,-0.441248,-0.191923201,0.0493175946,0.160135701,0.0461545661,-0.387654543,-1.24067044,-2.57460165,-4.34608126,-6.36315775,-8.3104744,-9.84984493,-10.7556324,-11.0171013,-10.8510876,-10.6117773,-10.6363192,-11.0973921,-11.9315186,-12.8777905,-13.6134653,-13.9318161,-13.8886194,-13.8524446,-14.4259329,-16.2513046,-19.7588558,-24.9475193,-31.2876301,-37.8021584,-43.3207016,-46.8308372,-47.8034935,-46.3662148,-43.2491646,-39.5161629,-36.1824188,-33.8713493,-32.6490936,-32.0997925,-31.5983334,-30.6486187,-29.1268597,-27.3176289,-25.7335777,-24.8193283,-24.6994152,-25.1069565,-25.5329189,-25.51511,-24.9065647,-23.970499,-23.2428493,-23.233284,-24.1290474,-25.6682243,-27.2565842,-28.2661514,-28.3519821,-27.6150455,-26.528223,-25.6767235,-25.4645329,-25.9480247,-26.8741932,-27.8786163,-28.7109909,-29.354187,-29.9805679,-30.7937851,-31.8689442,-33.0922585,-34.2275581,-35.0533333,-35.4755516,-35.5485764,-35.405468,-35.1593437,-34.8489075,-34.4599228,-33.9935226,-33.5176277,-33.1536369,-33.0040588,-33.0766716,-33.2693291,-33.4376602,-33.5054512,-33.5398216,-33.7302132,-34.2739906,-35.2383385,-36.4913788,-37.7544174,-38.7474022,-39.3342056,-39.5705109,-39.6207275,-39.601326,-39.463459,-39.0068359,-38.0284233,-36.5110931,-34.7170982,-33.1027069,-32.0858154,-31.8037548,-32.0209312,-32.2621613,-32.1056213,-31.4587021,-30.6375198,-30.185297,-30.5295467,-31.6882553,-33.2162437,-34.439621,-34.8452492,-34.3878517,-33.5202217,-32.9200592,-33.0769157,-33.9944038,-35.1947784,-36.0256119,-36.0778236,-35.4521713,-34.7044716,-34.5007477,-35.1962814,-36.6012077,-38.0799255,-38.9242897,-38.7721519,-37.8173294,-36.688015,-36.0740242,-36.3316956,-37.2998123,-38.4234428,-39.0952187,-39.0014534,-38.2732048,-37.3729782,-36.8073807,-36.8470383,-37.4090118,-38.143734,-38.6460304,-38.6538887,-38.1325226,-37.2293358,-36.1625786,-35.1258392,-34.2514763,-33.6184654,-33.2611122,-33.1522522,-33.1774178,-33.1434517,-32.8496628,-32.1996155,-31.2866783,-30.3850727,-29.8295288,-29.8400421,-30.3929653,-31.2211075,-31.9503441,-32.2951813,-32.1965637,-31.8197575,-31.4180527,-31.1528492,-30.9876461,-30.7241344,-30.1552296,-29.2326317,-28.1359234,