Bandpass,0,0.47541,117.6873,-794.68652,-1178.5912,-967.34271,-371.86288,206.52634,426.983,226.47443,-160.31511,-389.93268,-265.04193,130.85254,510.17114,603.30927,357.19382,-33.565853,-278.23203,-205.48172,117.23911,443.4953,535.38715,336.50775,4.911942,-211.70473,-160.58365,109.00242,390.75955,478.85849,318.00943,36.999992,-153.54985,-118.55015,106.35779,348.45645,430.16409,298.92862,60.097301,-106.93755,-82.956421,106.68996,316.90408,393.95761,288.01038,84.866455,-62.638016,-49.116394,108.58013,289.08517,359.72882,273.88138,101.2055,-28.304308,-21.860378,110.01265,265.66418,330.46396,260.99133,113.58178,-1.141398,-1.3151065,107.77303,241.44586,300.94537,246.0835,121.90358,21.94903,17.772024,107.64433,221.07285,273.36526,228.19719,122.12727,34.800076,28.941099,105.25977,204.54312,253.38533,218.30956,128.44135,51.558632,43.005154,105.89269,191.10834,235.37674,207.96471,131.61266,63.582699,52.407024,102.93935,174.81081,213.92361,192.54666,128.39081,69.684692,58.638447,100.89516,162.98373,198.39999,182.04552,127.5587,75.668312,63.341167,97.051376,149.45155,180.81343,168.50272,122.65948,77.296661,64.42971,90.866188,134.44797,161.58893,152.33862,114.33868,75.987381,64.736427,87.02964,124.45927,148.23425,140.6032,107.30667,72.382187,59.894154,76.482239,107.39447,128.27013,123.35885,96.602074,67.831909,57.550434,71.919411,98.899559,117.83973,114.89713,92.767273,67.890045,57.76054,68.081947,89.165329,103.78697,100.2252,80.681725,59.100735,50.426891,59.535461,77.972511,90.596924,86.88871,68.486923,47.607872,37.852604,44.382481,60.600491,73.442093,73.046112,59.607044,42.606693,33.389004,36.822624,48.15942,57.094284,55.672112,44.045345,29.961006,22.660757,25.954098,35.616035,42.846004,40.980129,30.364471,17.856607,11.523251,14.623821,23.347479,29.846409,28.154781,18.541452,7.1432261,1.2919331,4.0905681,12.229075,18.538115,17.281067,8.2626715,-3.1759019,-10.130726,-9.0811644,-2.2343917,4.2887588,4.9397392,-1.421417,-11.024798,-18.182919,-19.43116,-15.789077,-11.648129,-11.311732,-15.846747,-22.518925,-27.070625,-27.008839,-23.429869,-20.104778,-20.618757,-25.744755,-32.959827,-38.363033,-39.496246,-36.989532,-33.911499,-33.426174,-36.548225,-41.61108,-45.720222,-47.000214,-45.934139,-44.860199,-46.101357,-50.189804,-55.5047,-59.531132,-60.736683,-59.648575,-58.367249,-58.941818,-61.856003,-65.739502,-68.467827,-68.782379,-67.214546,-65.66124,-65.979027,-68.668488,-72.604668,-75.954628,-77.542892,-77.633759,-77.586777,-78.712013,-81.239189,-84.189804,-86.221825,-86.763321,-86.535301,-87.039406,-89.385094,-93.346886,-97.387741,-99.674583,-99.374413,-97.297112,-95.408455,-95.539688,-98.188179,-102.2344,-105.751,-107.32134,-106.95142,-105.97223,-106.04726,-108.00854,-111.32512,-114.53146,-116.2663,-116.1761,-115.07842,-114.32821,-114.88005,-116.70967,-118.95737,-120.62766,-121.3079,-121.4017,-121.75659,-123.00317,-125.10241,-127.41068,-129.17918,-130.09848,-130.49284,-131.04517,-132.27721,-134.17076,-136.19228,-137.68079,-138.30487,-138.26379,-138.10876,-138.33463,-139.0424,-139.90244,-140.4214,-140.30504,-139.65662,-138.88475,-138.40578,-138.36238,-138.55399,-138.61588,-138.31137,-137.73326,-137.28265,-137.44574,-138.51363,-140.41171,-142.72278,-144.86896,-146.33951,-146.85365,-146.40817,-145.22774,-143.66833,-142.11549,-140.89371,-140.19121,-140.01221,-140.18048,-140.41051,-140.43115,-140.10977,-139.51125,-138.85367,-138.37912,-138.20882,-138.2663,-138.31601,-138.10017,-137.49933,-136.62665,-135.79982,-135.39937,-135.68263,-136.64699,-138.01248,-139.33437,-140.19217,-140.36327,-139.89801,-139.06294,-138.18707,-137.49489,-137.01501,-136.60878,-136.09381,-135.38309,-134.55212,-133.79314,-133.2859,-133.06931,-132.99684,-132.80615,-132.25912,-131.26363,-129.90199,-128.35403,-126.77264,-125.19939,-123.57594,-121.83687,-120.01059,-118.24873,-116.75591,-115.66544,-114.94848,-114.42432,-113.86958,-113.15459,-112.31376,-111.5016,-110.86511,-110.42177,-110.02863,-109.464,-108.56422,-107.31898,-105.85944,-104.34956,-102.86199,-101.33131,-99.622322,-97.666367,-95.56472,-93.574997,-91.974983,-90.885506,-90.170074,-89.486435,-88.470146,-86.944077,-85.027061,-83.074005,-81.481224,-80.47052,-79.974991,-79.685074,-79.217926,-78.306587,-76.905037,-75.165489,-73.322075,-71.561867,-69.955399,-68.469185,-67.028717,-65.578484,-64.102646,-62.608315,-61.100624,-59.577324,-58.045143,-56.534843,-55.08934,-53.722065,-52.373833,-50.908092,-49.165073,-47.054108,-44.630116,-42.100231,-39.744545,-37.788223,-36.295902,-35.14949,-34.121532,-32.99892,-31.683107,-30.211262,-28.695946,-27.232311,-25.838169,-24.463345,-23.05249,-21.607363,-20.19746,-18.908806,-17.769363,-16.7096,-15.592494,-14.295707,-12.787429,-11.138597,-9.4589119,-7.8019657,-6.1122823,-4.2617207,-2.1581717,0.14864597,2.4482107,4.4679222,6.038651,7.2209816,8.2995529,9.6318388,11.43382,13.634369,15.896685,17.805555,19.115061,19.908871,20.57369,21.596628,23.30192,25.677092,28.38413,30.942656,32.976784,34.390205,35.385242,36.334503,37.589924,39.333328,41.5322,43.997921,46.493408,48.827106,50.89658,52.681782,54.212311,55.534363,56.690903,57.716198,58.640812,59.503418,60.364384,61.311756,62.448498,63.85717,65.554703,67.464073,69.428871,71.275146,72.89447,74.302597,75.636345,77.085365,78.794846,80.793907,82.988594,85.218208,87.335854,89.263855,90.997162,92.565651,93.991714,95.275414,96.412109,97.419434,98.344406,99.240952,100.13609,101.01543,101.84458,102.61236,103.36075,104.17282,105.12204,106.21912,107.39991,108.56994,109.67793,110.76423,111.94289,113.32227,114.91536,116.60349,118.18346,119.47119,120.39583,121.02453,121.50713,121.98486,122.52846,123.1433,123.82383,124.60024,125.52839,126.62347,127.79131,128.82385,129.48442,129.64026,129.35651,128.88289,128.53265,128.52786,128.90833,129.55785,130.31836,131.10217,131.91907,132.8051,133.71947,134.50612,134.96825,135.01363,134.76248,134.52284,134.62758,135.23108,136.20393,137.20718,137.90651,138.18611,138.21625,138.32445,138.75722,139.49747,140.26747,140.71886,140.6788,140.2791,139.87387,139.79921,140.13931,140.66203,140.96988,140.76425,140.04265,139.09628,138.31345,137.92587,137.8698,137.84868,137.5452,136.83191,135.84233,134.86942,134.17862,133.87123,133.88052,134.0764,134.37526,134.76215,135.21661,135.62355,135.76938,135.45584,134.65799,133.59821,132.6519,132.12117,132.02129,132.03793,131.70802,130.72334,129.15939,127.46771,126.22033,125.76221,125.995,126.4342,126.50404,125.87865,124.65115,123.23092,122.05175,121.29504,120.81135,120.27807,119.46517,118.41024,117.37617,116.62625,116.1861,115.77505,114.96984,113.49712,111.45314,109.29034,107.56466,106.59898,106.27917,106.11676,105.54187,104.24354,102.34708,100.32425,98.700134,97.74292,97.32299,97.014534,96.361847,95.140785,93.463356,91.680603,90.161324,89.08683,88.374588,87.755035,86.935738,85.749962,84.213524,82.47834,80.728233,79.082565,77.553558,76.065826,74.515785,72.837242,71.044319,69.234665,67.549011,66.09803,64.88459,63.761982,62.46471,60.719131,58.395123,55.621712,52.789021,50.406902,48.869751,48.241978,48.186401,48.09277,47.356628,45.668747,43.159836,40.318443,37.725327,35.75177,34.390888,33.313587,32.109692,30.566578,28.817141,27.26836,26.353163,26.252958,26.754713,27.326416,27.367985,26.496376,24.710091,22.352694,19.90955,17.758739,16.009365,14.498581,12.92548,11.031429,8.7272844,6.1141658,3.4108043,0.84580731,-1.4235433,-3.3361316,-4.9050441,-6.180737,-7.2271638,-8.1186819,-8.9468212,-9.8207626,-10.852967,-12.133085,-13.700279,-15.524703,-17.505766,-19.491886,-21.322151,-22.882479,-24.157206,-25.249426,-26.349461,-27.654661,-29.274977,-31.176674,-33.203457,-35.170525,-36.977634,-38.666317,-40.375523,-42.216801,-44.152645,-45.973061,-47.408283,-48.321129,-48.852276,-49.40229,-50.429596,-52.170132,-54.4562,-56.771767,-58.540981,-59.490414,-59.858032,-60.29845,-61.517796,-63.849247,-67.033463,-70.352524,-73.046616,-74.758904,-75.727951,-76.603706,-78.005005,-80.107788,-82.536575,-84.63382,-85.929344,-86.493156,-86.925697,-87.977921,-90.043793,-92.861588,-95.631943,-97.490532,-98.038872,-97.594261,-96.998657,-97.109993,-98.3013,-100.28169,-102.33846,-103.82638,-104.57849,-104.97894,-105.67059,-107.11015,-109.27108,-111.67955,-113.73771,-115.10149,-115.86116,-116.42311,-117.20025,-118.33781,-119.65746,-120.83427,-121.65682,-122.17368,-122.62788,-123.24452,-124.04377,-124.82542,-125.33701,-125.4959,-125.49316,-125.69308,-126.39233,-127.60821,-129.04822,-130.28822,-131.04245,-131.34627,-131.53436,-132.03424,-133.11252,-134.73111,-136.58658,-138.28557,-139.5347,-140.23952,-140.48741,-140.46674,-140.395,-140.48682,-140.93762,-141.8811,-143.31529,-145.047,-146.72284,-147.97006,-148.5871,-148.66751,-148.56296,-148.68718,-149.2719,-150.22885,-151.21187,-151.84489,-151.97098,-151.76051,-151.60855,-151.88956,-152.73137,-153.95381,-155.20671,-156.21001,-156.93614,-157.61742,-158.57863,-160.00557,-161.79395,-163.56654,-164.84152,-165.25293,-164.70963,-163.42815,-161.84656,-160.47404,-159.73915,-159.87866,-160.88765,-162.53978,-164.47815,-166.35776,-167.9902,-169.42226,-170.89691,-172.70401,-174.99702,-177.68544,-180.47495,-183.03661,-185.19611,-187.01253,-188.68388,-190.33641,-191.84373,-192.81537,-192.78596,-191.4976,-189.09196,-186.07541,-183.06335,-180.45731,-178.25833,-176.13628,-173.70683,-170.83211,-167.74428,-164.91147,-162.73848,-161.30582,-160.32448,-159.33656,-158.02667,-156.43422,-154.92581,-153.94882,-153.73413,-154.14702,-154.78163,-155.22835,-155.32686,-155.23053,-155.23938,-155.51971,-155.91093,-155.96629,-155.2216,-153.532,-151.2625,-149.19907,-148.21126,-148.84468,-151.06221,-154.26711,-157.58304,-160.23108,-161.80504,-162.31874,-162.03075,-161.16701,-159.70001,-157.29498,-153.43677,-147.66133,-139.7762,-129.97302,-118.79301,-106.9687,-95.209343,-84.009903,-73.549393,-63.71067,-54.210171,-44.7836,-35.347214,-26.057709,-17.234039,-9.1698723,-1.9275746,4.7725616,11.490897,18.844276,27.221909,36.59103,46.508045,56.34618,65.628899,74.289436,82.706871,91.487953,101.10809,111.61081,122.53878,133.14061,142.74022,151.06027,158.31769,165.04167,171.72668,178.52466,185.15201,191.05412,195.71826,198.94632,200.93631,202.14612,203.04306,203.89661,204.72353,205.38457,205.73824,205.73932,205.43137,204.87064,204.0658,202.99181,201.66151,200.17856,198.70036,197.3125,195.90016,194.13039,191.59886,188.0787,183.71919,179.04643,174.72955,171.22685,168.51817,166.09485,163.22955,159.37582,154.4617,148.9017,143.32248,138.1731,133.4606,128.77075,123.55451,117.49735,110.74191,103.83146,97.417717,91.917419,87.32399,83.273651,79.304482,75.134857,70.791016,66.523148,62.587898,59.054119,55.760822,52.447048,48.957241,45.378349,42.013268,39.204159,37.116745,35.621048,34.342693,32.853333,30.886255,28.453344,25.805262,23.273371,21.098829,19.35107,17.971115,16.88936,16.120363,15.757754,15.867725,16.358393,16.930885,17.173584,16.767698,15.68976,14.279893,13.112076,12.717869,13.309452,14.659935,16.215984,17.385225,17.838137,17.65505,17.241587,17.074308,17.437254,18.307486,19.446596,20.620893,21.793142,23.154453,24.978329,27.402397,30.293823,33.296631,36.032806,38.320972,40.262001,42.132374,44.160851,46.348694,48.466503,50.237919,51.58474,52.755508,54.230545,56.446838,59.515095,63.118065,66.668449,69.636505,71.843979,73.540047,75.215057,77.277733,79.807503,82.538887,85.077354,87.191559,88.979218,90.79361,92.982117,95.616089,98.397232,100.80762,102.40945,103.10462,103.19355,103.2047,103.60847,104.59091,106.00825,107.51938,108.78609,109.60997,109.94289,109.80727,109.21886,108.1827,106.75631,105.10891,103.50266,102.18394,101.25071,100.59307,99.960274,99.119026,97.997925,96.715752,95.468155,94.345512,93.205688,91.692055,89.392586,86.045082,81.668716,76.556717,71.158211,65.940628,61.315639,57.642746,55.252373,54.41309,55.221512,57.477192,60.650585,64.016075,66.919098,69.045616,70.537857,71.87999,73.615593,76.065971,79.219742,82.852257,86.778839,91.051559,95.942993,101.70539,108.25745,115.0215,121.05799,125.46201,127.81093,128.39995,128.11096,127.97021,128.63257,130.07318,131.64423,132.44278,131.76595,129.40117,125.62422,120.96388,115.92224,110.83157,105.90258,101.36856,97.564262,94.840393,93.356682,92.910866,92.959824,92.865257,92.233315,91.131332,90.024902,89.454063,89.644722,90.309174,90.780067,90.410423,88.994179,86.9375,85.061089,84.145767,84.497314,85.79612,87.317886,88.380226,88.734924,88.672394,88.797546,89.645157,91.391884,93.837234,96.632538,99.569748,102.71349,106.28484,110.39125,114.81258,119.01674,122.41665,124.70592,126.04676,126.97443,128.06758,129.58789,131.31187,132.65236,132.98317,131.96057,129.65433,126.43849,122.74702,118.86849,114.89895,110.84292,106.74873,102.75827,99.038445,95.667419,92.58873,89.687386,86.93425,84.474899,82.570084,81.409454,80.932846,80.811615,80.639862,80.226837,79.784241,79.847336,80.941383,83.191612,86.142296,88.936287,90.774635,91.378159,91.14846,90.90506,91.348778,92.589622,94.049805,94.817421,94.2332,92.333771,89.858673,87.804634,86.801079,86.696709,86.612701,85.422607,82.355064,77.351242,70.980408,64.004646,56.897793,49.63015,41.83707,33.232796,23.982212,14.791208,6.6746297,0.56812716,-2.9705198,-3.8138781,-2.0963495,2.0062888,8.3681097,16.808996,26.882242,37.723606,48.095242,56.636314,62.212528,64.211174,62.671257,58.225037,51.89864,44.845524,38.079376,32.26334,27.61171,23.950838,20.940599,18.377857,16.433535,15.675789,16.831387,20.391687,26.282721,33.803223,41.881695,49.502743,56.038754,61.283108,65.185822,67.506264,67.667709,64.963989,59.012505,50.146545,39.442883,28.301832,17.795286,8.1718817,-1.1695968,-11.213854,-22.653812,-35.416306,-48.659149,-61.202324,-72.089645,-80.927818,-87.838112,-93.138153,-97.043167,-99.622017,-101.01399,-101.68732,-102.47063,-104.2541,-107.51565,-111.98572,-116.7011,-120.45179,-122.36634,-122.292,-120.76427,-118.62666,-116.5679,-114.85595,-113.37483,-111.8512,-110.05389,-107.82456,-104.97204,-101.19059,-96.137238,-89.652664,-81.962784,-73.682823,-65.584503,-58.273289,-52.003643,-46.760529,-42.523094,-39.469429,-37.915005,-37.995682,-39.348114,-41.109741,-42.37336,-42.898857,-43.644104,-46.725899,-54.760571,-69.949318,-93.472481,-125.57659,-166.27061,-216.09766,-276.3313,-348.27158,-431.90231,-524.64941,-621.03717,-713.61676,-794.88116,-859.36292,-905.03033,-933.4657,-948.89667,-956.61981,-961.49036,-966.95105,-974.72852,-985.04517,-997.1012,-1009.6294,-1021.4109,-1031.6765,-1040.3105,-1047.7882,-1054.8575,-1062.0995,-1069.574,-1076.7219,-1082.5491,-1085.9613,-1086.0599,-1082.2755,-1074.3584,-1062.3435,-1046.5831,-1027.828,-1007.2347,-986.17706,-965.86713,-946.9411,-929.22791,-911.83051,-893.47296,-872.92316,-849.29541,-822.15863,-791.51447,-757.75488,-721.63074,-684.14801,-646.29401,-608.62329,-570.91907,-532.2204,-491.34821,-447.73901,-402.11191,-356.49588,-313.48355,-275.0712,-241.75978,-212.4809,-185.4057,-159.11363,-133.34326,-108.81776,-86.273575,-65.391129,-44.426899,-20.886047,7.13936,39.814877,75.334969,110.75253,143.30862,171.42538,194.84201,214.03333,229.54419,241.82327,251.59824,260.25177,269.55063,280.60425,292.72159,303.23605,308.92963,308.56311,304.94678,304.82462,315.92599,342.34885,380.83838,420.48175,446.64722,447.52844,419.90253,370.85086,314.30362,264.19241,227.99152,204.25079,185.41452,164.12419,139.16527,117.45531,110.83036,129.44679,175.56403,241.20796,310.97305,368.38345,402.44223,411.17529,400.8399,381.80896,363.61996,351.61829,346.32443,345.05423,344.36047,341.91171,337.17987,331.13046,325.48962,322.04028,322.07196,325.93597,332.74982,340.47217,346.55362,349.06143,347.76895,344.53787,342.60971,345.0484,353.14029,365.65854,379.43042,390.88361,397.6871,399.60107,398.19635,395.81171,394.51099,395.64371,400.06265,408.53491,421.78647,439.99295,462.07343,485.42502,506.51721,522.18091,530.89886,533.32208,531.68817,528.50293,525.29694,522.17944,518.34363,513.04333,506.2919,498.80954,491.34671,483.98666,476.03497,466.63419,455.65482,444.15146,433.95166,426.5784,422.23987,419.64529,416.87302,412.77213,407.94644,404.57513,405.06537,410.32913,418.78964,426.82031,430.444,427.32904,417.92288,405.09012,392.52585,382.92599,376.97153,373.61035,371.29398,369.27969,368.16983,369.43512,374.34769,383.0816,394.53876,406.90936,418.48206,428.11407,435.09793,438.65842,437.60846,430.57507,416.76376,396.77924,372.89465,348.45685,326.65222,309.27835,296.19562,285.74606,275.86816,265.25275,253.90538,242.8712,233.38309,226.00227,220.26385,214.9854,208.98436,201.73413,193.57639,185.41431,178.1273,172.08229,167.01118,162.27092,157.27393,151.80588,146.0574,140.39648,135.0647,130.00453,124.91703,119.49081,113.63754,107.57423,101.69819,96.333107,91.505318,86.890625,81.970909,76.316086,69.833786,62.845169,55.941643,49.697803,44.393948,39.894455,35.741386,31.405338,26.554296,21.199881,15.656941,10.359707,5.6521859,1.6707051,-1.6327035,-4.3690677,-6.5922275,-8.2658205,-9.3350449,-9.8443861,-10.008787,-10.175939,-10.689211,-11.726617,-13.208702,-14.828567,-16.187664,-16.965387,-17.039913,-16.512661,-15.642445,-14.735358,-14.044153,-13.711547,-13.763412,-14.138113,-14.731518,-15.439581,-16.184372,-16.915359,-17.587528,-18.132158,-18.445999,-18.419426,-17.999941,-17.256872,-16.398487,-15.711999,-15.443832,-15.684054,-16.328672,-17.152594,-17.955162,-18.686678,-19.469486,-20.494184,-21.858692,-23.463808,-25.046555,-26.338476,-27.244076,-27.912075,-28.641317,-29.680014,-31.058977,-32.583138,-33.995373,-35.197445,-36.359821,-37.821877,-39.836037,-42.337116,-44.923615,-47.102028,-48.653164,-49.864357,-51.427608,-54.011112,-57.742561,-61.938484,-65.295303,-66.482864,-64.820206,-60.637661,-55.100506,-49.589325,-45.002331,-41.390865,-38.128773,-34.483521,-30.218531,-25.870083,-22.598848,-21.837391,-25.108328,-34.242432,-51.854366,-81.5812,-127.52835,-192.71629,-276.94162,-375.01663,-476.4718,-567.33356,-633.68719,-665.82593,-661.3504,-625.89612,-571.12152,-510.75735,-456.33044,-414.24283,-385.1879,-365.78238,-351.34375,-338.39145,-325.81787,-314.50226,-305.95172,-300.93518,-298.88147,-298.23355,-297.36365,-295.39548,-292.44977,-289.26685,-286.55515,-284.53067,-282.91028,-281.27469,-279.47458,-277.76285,-276.57327,-276.13687,-276.24179,-276.32651,-275.84137,-274.61411,-272.94934,-271.38464,-270.27365,-269.49115,-268.47025,-266.54916,-263.3902,-259.18921,-254.54338,-250.08395,-246.13411,-242.61729,-239.2502,-235.84682,-232.48973,-229.43671,-226.84213,-224.52278,-221.97452,-218.66301,-214.40065,-209.53833,-204.81178,-200.91631,-198.07751,-195.9024,-193.61737,-190.54597,-186.52068,-181.96721,-177.61639,-174.03951,-171.31012,-169.00008,-166.49159,-163.38519,-159.73666,-155.98575,-152.649,-149.99341,-147.89847,-145.97046,-143.80321,-141.2002,-138.22638,-135.09152,-131.97893,-128.94809,-125.96037,-122.9744,-120.01315,-117.14547,-114.40958,-111.76061,-109.10214,-106.383,-103.67223,-101.1296,-98.870064,-96.816345,-94.667023,-92.039902,-88.72319,-84.871765,-80.998062,-77.730873,-75.471428,-74.156143,-73.27932,-72.168381,-70.344566,-67.75074,-64.719383,-61.724121,-59.091934,-56.861073,-54.853504,-52.876469,-50.886017,-48.990681,-47.306442,-45.793232,-44.21875,-42.296143,-39.902672,-37.213482,-34.63549,-32.568138,-31.147844,-30.154322,-29.150015,-27.761871,-25.913332,-23.848167,-21.934507,-20.393564,-19.149908,-17.910007,-16.405785,-14.614692,-12.780321,-11.20484,-9.9617863,-8.7550993,-7.0619054,-4.4959984,-1.1531509,2.3210573,5.0371637,6.3889308,6.4795942,6.1565042,6.5899415,8.617362,12.237172,16.566126,20.306036,22.460205,22.885374,22.357924,22.118221,23.162386,25.693064,29.038664,32.069477,33.851555,34.153301,33.524254,32.927723,33.168694,34.462589,36.386196,38.211567,39.395954,39.920174,40.275051,41.118565,42.827065,45.223286,47.650322,49.347343,49.899342,49.48941,48.801327,48.629955,49.430038,51.068447,52.921791,54.255905,54.659718,54.279068,53.720409,53.691372,54.597027,56.32769,58.351589,60.041611,61.032303,61.397846,61.560898,62.006443,62.984005,64.373268,65.777367,66.769066,67.134087,66.975098,66.636322,66.515678,66.882858,67.795654,69.131958,70.685905,72.255608,73.680351,74.834946,75.619232,75.972786,75.911469,75.554115,75.10762,74.805817,74.829834,75.250107,76.015564,76.986069,77.983849,78.839996,79.429039,79.698502,79.697113,79.588127,79.621429,80.048912,81.002617,82.393593,83.899445,85.073792,85.544014,85.203384,84.291313,83.305244,82.777039,83.024269,84.005829,85.357948,86.589684,87.331047,87.501785,87.31665,87.135918,87.253014,87.739471,88.427017,89.025337,89.298492,89.196243,88.869087,88.566551,88.48455,88.65287,88.926331,89.080307,88.951736,88.542236,88.024933,87.653412,87.627472,87.992165,88.623993,89.304649,89.832664,90.10598,90.133766,89.985306,89.72364,89.376404,88.961647,88.539635,88.236351,88.202194,88.520149,89.124939,89.801559,90.286201,90.421074,90.266792,90.089165,90.211472,90.813286,91.802223,92.848671,93.573128,93.773254,93.544327,93.208961,93.095505,93.30864,93.648048,93.738358,93.292267,92.333488,91.223442,90.460152,90.370239,90.893471,91.607681,91.988632,91.744362,91.008614,90.263687,90.03595,90.554771,91.591507,92.580956,92.948067,92.434464,91.224831,89.806076,88.662766,88.009384,87.722672,87.49675,87.096924,86.531822,86.03064,85.851349,86.059799,86.434013,86.558647,86.047211,84.751198,82.833649,80.67881,78.710007,77.228073,76.344559,76.006721,76.056709,76.271606,76.380806,76.101616,75.228073,73.75322,71.945076,70.290771,69.290527,69.18895,69.799042,70.547508,70.749474,69.976563,68.307846,66.305298,64.711205,64.032417,64.251122,64.833702,65.036026,64.329185,62.699162,60.649715,58.912148,58.034229,58.084423,58.633755,59.014782,58.702312,57.600811,56.086086,54.790363,54.257614,54.656185,55.69339,56.763737,57.243507,56.779545,55.435516,53.637985,51.962692,50.871239,50.520931,50.726963,51.08083,51.158985,50.720684,49.80677,48.701717,47.784698,47.34174,47.422131,47.796043,48.023312,47.597767,46.107529,43.353882,39.394939,34.510136,29.106585,23.601974,18.320379,13.42939,8.9318075,4.7064319,0.57590646,-3.6271219,-8.0171785,-12.640312,-17.472616,-22.41654,-27.292562,-31.844782,-35.787842,-38.905151,-41.169296,-42.819565,-44.329765,-46.244987,-48.941212,-52.421757,-56.266407,-59.779789,-62.279171,-63.379673,-63.130291,-61.935135,-60.314602,-58.648613,-57.044762,-55.389233,-53.523129,-51.414639,-49.212391,-47.152763,-45.393368,-43.889988,-42.399036,-40.600979,-38.262604,-35.339298,-31.966484,-28.364771,-24.730843,-21.179171,-17.750145,-14.45198,-11.290739,-8.2698708,-5.3775969,-2.593632,0.075827122,2.5623567,4.7404785,6.4895411,7.7785649,8.7092505,9.4710169,10.224785,10.99369,11.647848,12.010107,12.01774,11.819506,11.717698,11.970722,12.582588,13.238253,13.461323,12.91924,11.681604,10.24123,9.2468128,9.0887604,9.5972281,10.065709,9.6205883,7.7342439,4.571527,0.94457239,-2.1168783,-3.9353809,-4.5604181,-4.7262764,-5.4215083,-7.3284798,-10.460642,-14.195424,-17.658432,-20.213015,-21.7673,-22.743078,-23.762518,-25.265518,-27.283562,-29.475168,-31.363647,-32.614475,-33.1987,-33.382694,-33.588818,-34.220322,-35.524811,-37.520554,-39.977779,-42.451946,-44.384182,-45.277119,-44.907116,-43.476597,-41.598053,-40.067146,-39.504547,-40.048225,-41.282146,-42.469894,-42.981857,-42.67347,-41.98098,-41.659103,-42.302437,-43.934731,-45.923244,-47.287884,-47.238613,-45.633743,-43.094097,-40.707447,-39.492699,-39.922256,-41.752117,-44.220848,-46.470303,-47.937283,-48.516533,-48.45507,-48.097668,-47.66711,-47.204529,-46.667805,-46.080093,-45.60154,-45.467136,-45.835762,-46.658672,-47.661354,-48.456367,-48.722191,-48.346123,-47.457783,-46.34837,-45.333694,-44.639301,-44.358566,-44.483585,-44.969055,-45.781239,-46.906258,-48.323727,-49.972504,-51.735542,-53.455784,-54.977314,-56.195045,-57.094269,-57.765099,-58.382851,-59.153404,-60.23457,-61.658272,-63.287708,-64.839294,-65.976196,-66.445358,-66.199966,-65.443718,-64.56208,-63.960072,-63.878666,-64.283615,-64.891525,-65.329491,-65.349136,-64.978088,-64.517365,-64.375549,-64.826302,-65.82943,-67.029427,-67.947098,-68.262779,-68.023834,-67.64122,-67.658524,-68.416573,-69.81105,-71.298454,-72.16468,-71.911293,-70.536308,-68.54126,-66.657104,-65.450584,-65.045181,-65.11882,-65.167068,-64.855728,-64.234695,-63.679688,-63.607941,-64.160904,-65.066109,-65.770203,-65.756905,-64.845032,-63.280727,-61.577049,-60.218052,-59.421268,-59.095562,-58.985664,-58.868362,-58.648029,-58.300781,-57.756847,-56.878334,-55.623287,-54.325054,-53.874325,-55.586346,-60.696545,-69.670731,-81.686295,-94.616638,-105.62169,-112.13214,-112.79228,-107.92783,-99.333824,-89.508286,-80.708809,-74.253738,-70.32209,-68.236504,-66.9953,-65.758522,-64.091606,-61.944485,-59.48217,-56.916813,-54.429577,-52.175308,-50.30444,-48.944183,-48.13446,-47.764839,-47.569118,-47.200237,-46.357193,-44.903221,-42.919041,-40.669788,-38.505161,-36.737816,-35.546169,-34.931572,-34.737442,-34.718418,-34.633163,-34.326885,-33.771347,-33.045033,-32.262257,-31.487293,-30.681389,-29.716715,-28.454716,-26.84709,-24.999294,-23.153265,-21.589933,-20.499092,-19.885693,-19.565401,-19.25605,-18.721813,-17.899141,-16.941221,-16.15535,-15.856151,-16.1964,-17.051006,-18.014065,-18.527401,-18.104103,-16.560818,-14.151657,-11.521739,-9.4704475,-8.6075964,-9.0547638,-10.345366,-11.596272,-11.892053,-10.706386,-8.1515427,-4.9235497,-1.9639603,-0.0080060279,0.75001973,0.70645213,0.59850812,1.0983051,2.4685349,4.4522352,6.4347944,7.7737145,8.1176376,7.5632215,6.5978251,5.8847089,6.0071311,7.2790756,9.6754675,12.875046,16.3755,19.63695,22.220648,23.89694,24.697474,24.891376,24.884758,25.07399,25.708477,26.818804,28.236536,29.688503,30.916664,31.772316,32.257149,32.513515,32.781525,33.336563,34.411118,36.107136,38.323994,40.745743,42.924515,44.45359,45.162773,45.231144,45.134518,45.427174,46.457195,48.168961,50.11227,51.666744,52.364712,52.133785,51.323025,50.501801,50.152111,50.432602,51.141514,51.881119,52.307842,52.313175,52.03968,51.748764,51.646263,51.782558,52.077087,52.425102,52.793221,53.231575,53.802673,54.493763,55.190613,55.740067,56.05621,56.187077,56.285168,56.497589,56.855694,57.250305,57.518333,57.581799,57.533028,57.589252,57.930878,58.528973,59.092594,59.199825,58.555641,57.222939,55.668865,54.568893,54.458546,55.426483,57.033039,58.515743,59.1777,58.746128,57.502926,56.119488,55.295815,55.409786,56.365269,57.702652,58.882259,59.562008,59.715572,59.551319,59.317974,59.140285,58.986446,58.7645,58.45319,58.155792,58.031895,58.160175,58.443027,58.638134,58.509548,57.99855,57.290352,56.718403,56.561344,56.867992,57.434021,57.951595,58.229759,58.325977,58.484745,58.915638,59.567612,60.077602,59.963131,58.957024,57.262764,55.533485,54.543663,54.73064,55.892914,57.258934,57.915485,57.345364,55.729126,53.790672,52.24826,51.199894,49.850365,46.81105,40.865753,31.795858,20.783699,10.120592,2.3242586,-0.89939553,0.67548341,5.8204021,12.521333,18.908297,23.959522,27.662762,30.642748,33.551094,36.602276,39.497818,41.716225,42.928951,43.256351,43.211845,43.395702,44.152275,45.40794,46.774143,47.826859,48.372498,48.537498,48.644745,48.976784,49.586212,50.26796,50.695251,50.619011,50.002209,49.016224,47.920956,46.919384,46.0797,45.359478,44.693882,44.072662,43.551388,43.199482,43.037224,43.019112,43.079758,43.202778,43.447693,43.896263,44.543159,45.210373,45.566978,45.275356,44.196323,42.527809,40.770641,39.508713,39.107208,39.498013,40.187668,40.502422,39.94482,38.463455,36.480522,34.659489,33.546371,33.289867,33.594059,33.914314,33.763405,32.940224,31.558907,29.894363,28.176588,26.483831,24.796459,23.145321,21.715027,20.797472,20.609777,21.105642,21.932007,22.589954,22.711521,22.268875,21.563684,20.990286,20.728075,20.581213,20.093918,18.881414,16.956884,14.818845,13.211491,12.689289,13.259138,14.337816,15.066335,14.793635,13.432038,11.470172,9.6495705,8.5213547,8.1609869,8.1978664,8.1022692,7.5143571,6.4012942,4.9751201,3.4805884,2.0386746,0.65901655,-0.62165052,-1.630201,-2.1093655,-1.9226097,-1.2554055,-0.62643307,-0.64571226,-1.6497605,-3.4609003,-5.4589062,-6.9468551,-7.5802317,-7.567729,-7.4978647,-7.9049854,-8.8780775,-9.9954996,-10.642766,-10.494019,-9.8089399,-9.3148928,-9.7337332,-11.271768,-13.432702,-15.300208,-16.113224,-15.749954,-14.793966,-14.140973,-14.418792,-15.615507,-17.15659,-18.352526,-18.882927,-18.972124,-19.148516,-19.788851,-20.802305,-21.696001,-21.96986,-21.535095,-20.82885,-20.526888,-21.065548,-22.338472,-23.808973,-24.960972,-25.737806,-26.604292,-28.141457,-30.454493,-32.863422,-34.18959,-33.533432,-31.04566,-28.119293,-26.760595,-28.437962,-33.09906,-39.007645,-43.577919,-44.765282,-42.205688,-37.425694,-32.997711,-31.143381,-32.599873,-36.373463,-40.449104,-42.964592,-43.136864,-41.45475,-39.146057,-37.353821,-36.558517,-36.536373,-36.753517,-36.835861,-36.778934,-36.812412,-37.10342,-37.575104,-37.98476,-38.172924,-38.248882,-38.531502,-39.268375,-40.349682,-41.261765,-41.361729,-40.315395,-38.402683,-36.462124,-35.477894,-36.05022,-38.070263,-40.790558,-43.232708,-44.673782,-44.929253,-44.306393,-43.319595,-42.388855,-41.707767,-41.312107,-41.228081,-41.541416,-42.321156,-43.473785,-44.677197,-45.491383,-45.601547,-45.030838,-44.1581,-43.502029,-43.39941,-43.791042,-44.266994,-44.349472,-43.826145,-42.90593,-42.086201,-41.817627,-42.195,-42.889053,-43.371632,-43.283997,-42.695038,-42.06583,-41.935078,-42.533092,-43.58773,-44.463455,-44.552887,-43.668102,-42.171997,-40.756954,-40.008926,-40.037849,-40.414509,-40.455631,-39.672935,-38.09655,-36.266563,-34.902889,-34.470226,-34.91753,-35.751396,-36.382294,-36.507786,-36.281334,-36.165543,-36.581585,-37.599915,-38.883858,-39.922825,-40.394222,-40.404587,-40.439655,-41.045738,-42.444305,-44.329994,-45.98938,-46.677666,-46.031246,-44.274834,-42.109234,-40.355782,-39.566479,-39.809715,-40.720509,-41.746677,-42.425987,-42.544128,-42.123657,-41.304825,-40.228928,-39.002239,-37.738827,-36.616104,-35.870739,-35.71352,-36.208454,-37.196182,-38.322205,-39.171249,-39.448311,-39.119148,-38.440266,-37.858047,-37.81348,-38.53075,-39.880596,-41.388386,-42.403938,-42.37933,-41.138107,-38.999779,-36.672009,-34.932056,-34.239849,-34.487297,-35.040043,-35.078121,-34.066319,-32.090519,-29.852358,-28.30341,-28.115866,-29.29483,-31.163143,-32.729218,-33.216476,-32.436512,-30.792583,-28.939983,-27.350107,-26.079779,-24.899069,-23.677607,-22.741175,-22.916954,-25.18647,-30.129457,-37.494156,-46.167484,-54.580711,-61.325943,-65.642784,-67.530472,-67.479759,-66.041252,-63.51445,-59.92445,-55.243229,-49.654598,-43.655476,-37.919498,-33.020229,-29.200279,-26.328838,-24.055218,-22.041534,-20.12578,-18.336384,-16.78964,-15.569235,-14.672797,-14.037705,-13.592754,-13.273793,-12.990151,-12.586704,-11.86132,-10.654263,-8.9598742,-6.9774942,-5.0489163,-3.5050895,-2.5092359,-1.9887941,-1.6898686,-1.309218,-0.61764592,0.4878394,2.0013006,3.8420265,5.8571696,7.7973042,9.3216944,10.089497,9.9288979,8.9934769,7.7832408,6.9672112,7.0687394,8.182416,9.9011421,11.522058,12.432157,12.455328,11.954729,11.626396,12.10497,13.613297,15.854838,18.195034,20.005064,20.958271,21.121454,20.826368,20.440315,20.193718,20.152176,20.30286,20.64855,21.218653,21.994307,22.830217,23.469984,23.680981,23.432554,22.986923,22.812719,23.344936,24.725159,26.684185,28.650469,30.030798,30.502481,30.149607,29.372826,28.640028,28.234941,28.14913,28.162632,28.039515,27.702539,27.280659,27.015884,27.106676,27.594675,28.35821,29.196831,29.934246,30.468861,30.754192,30.75128,30.415787,29.748585,28.876669,28.090078,27.774942,28.248669,29.578161,31.492956,33.465031,34.93412,35.566734,35.406567,34.827274,34.309029,34.163486,34.365891,34.593613,34.450462,33.744202,32.649204,31.649841,31.288704,31.861849,33.239845,34.924057,36.311226,37.015743,37.063396,36.845169,36.862457,37.4189,38.444679,39.555725,40.305149,40.465935,40.166733,39.797485,39.748463,40.15239,40.797089,41.26619,41.218472,40.626102,39.817142,39.291706,39.425026,40.24168,41.399246,42.38681,42.811207,42.595074,41.974964,41.318993,40.894897,40.739536,40.701313,40.605602,40.413338,40.256733,40.330479,40.723045,41.316368,41.833191,42.005264,41.747452,41.215229,40.701969,40.443684,40.464817,40.57251,40.505299,40.134109,39.574112,39.123615,39.064053,39.453377,40.056591,40.47134,40.378349,39.760342,38.946209,38.443398,38.653027,39.636406,41.07119,42.421249,43.217743,43.288124,42.808731,42.166912,41.729427,41.658794,41.876423,42.17366,42.38308,42.49469,42.646538,43.002777,43.601944,44.274151,44.683853,44.483028,43.498936,41.86137,40.001877,38.515129,37.93346,38.505077,40.07011,42.094898,43.863621,44.75885,44.516712,43.342224,41.824497,40.680531,40.440517,41.220932,42.692703,44.255451,45.325573,45.591892,45.117268,44.253025,43.432018,42.960159,42.908314,43.13588,43.402721,43.49202,43.28513,42.776451,42.052307,41.260624,40.576427,40.150902,40.042103,40.156319,40.250309,40.025555,39.28751,38.083012,36.71785,35.616928,35.091221,35.151447,35.496529,35.700497,35.487026,34.909157,34.302361,34.028484,34.180038,34.459198,34.341618,33.440544,31.832481,30.104214,29.048893,29.174004,30.330246,31.719862,32.315449,31.455704,29.256592,26.574955,24.53194,23.875484,24.561525,25.79776,26.509756,25.93795,24.012449,21.309874,18.662535,16.689964,15.536103,14.930428,14.471854,13.909394,13.235242,12.567147,11.952629,11.268648,10.297865,8.9158659,7.2354493,5.5878305,4.3450718,3.7074573,3.6039767,3.7690344,3.929847,3.9638233,3.9169924,3.8853679,3.8649685,3.6949,3.1402824,2.0501683,0.46681175,-1.3982483,-3.3006468,-5.1030545,-6.8077312,-8.4586134,-9.9987097,-11.211993,-11.818712,-11.671144,-10.906309,-9.9270573,-9.2002134,-8.9974566,-9.258358,-9.6785097,-9.967165,-10.090893,-10.319496,-11.026457,-12.376819,-14.131328,-15.730289,-16.630209,-16.678875,-16.264523,-16.1082,-16.804985,-18.403864,-20.317854,-21.662548,-21.849131,-21.079613,-20.42627,-21.408571,-25.272074,-32.347664,-41.82579,-52.048866,-61.149326,-67.699677,-71.076752,-71.433731,-69.393044,-65.69101,-60.968369,-55.757267,-50.571236,-45.952656,-42.393448,-40.163048,-39.16563,-38.945595,-38.871628,-38.416039,-37.382607,-35.96167,-34.588432,-33.688343,-33.450027,-33.741508,-34.200203,-34.432384,-34.206768,-33.542183,-32.656601,-31.822533,-31.219263,-30.86429,-30.653286,-30.472229,-30.304029,-30.257538,-30.495565,-31.102772,-31.976397,-32.817169,-33.244144,-32.984234,-32.036701,-30.716698,-29.541996,-29.012032,-29.3897,-30.597589,-32.278263,-33.978569,-35.352669,-36.276417,-36.825829,-37.156132,-37.372494,-37.476414,-37.410938,-37.156685,-36.797085,-36.4972,-36.406025,-36.550617,-36.800579,-36.935566,-36.778351,-36.309612,-35.689991,-35.174053,-34.969154,-35.125313,-35.519264,-35.935062,-36.186245,-36.206726,-36.06612,-35.915756,-35.908649,-36.139469,-36.624542,-37.312943,-38.108421,-38.892174,-39.550682,-40.013737,-40.291496,-40.483234,-40.734921,-41.153809,-41.725822,-42.294525,-42.630428,-42.560013,-42.075768,-41.350872,-40.64098,-40.134026,-39.851036,-39.670162,-39.458382,-39.210861,-39.081936,-39.264507,-39.791534,-40.410549,-40.654823,-40.108635,-38.717819,-36.934746,-35.564732,-35.362198,-36.596264,-38.850666,-41.199524,-42.677971,-42.782532,-41.710674,-40.203484,-39.094818,-38.844254,-39.329754,-40.003441,-40.284061,-39.921349,-39.105377,-38.275883,-37.78643,-37.663532,-37.620331,-37.300014,-36.56501,-35.622066,-34.893501,-34.724995,-35.134483,-35.778553,-36.16341,-35.961624,-35.225155,-34.355835,-33.85508,-34.016579,-34.756023,-35.676117,-36.311832,-36.392818,-35.963799,-35.307377,-34.742409,-34.438183,-34.354248,-34.318596,-34.166039,-33.833752,-33.360561,-32.814571,-32.22179,-31.553419,-30.772194,-29.886395,-28.956642,-28.045374,-27.15403,-26.211126,-25.137772,-23.951635,-22.82752,-22.050117,-21.866154,-22.320635,-23.187756,-24.057095,-24.537907,-24.463221,-23.967451,-23.385637,-23.033579,-23.003962,-23.104597,-22.975616,-22.310913,-21.045643,-19.396154,-17.732698,-16.368015,-15.391579,-14.644173,-13.837417,-12.737043,-11.299503,-9.6906118,-8.1916895,-7.0609813,-6.4309134,-6.2843924,-6.4985805,-6.9095764,-7.3555422,-7.6872768,-7.7663708,-7.477551,-6.7624731,-5.6553712,-4.289968,-2.861654,-1.5581651,-0.49424252,0.31587628,0.93779141,1.4663854,1.9775866,2.5065472,3.054981,3.6124611,4.1737003,4.7440653,5.3374205,5.9728093,6.6698108,7.4362268,8.2462559,9.0210676,9.6347256,9.9610891,9.950366,9.6927376,9.4177771,9.4064379,9.8472862,10.715462,11.755786,12.598914,12.958663,12.800029,12.374208,12.090846,12.296865,13.091538,14.288061,15.541526,16.559347,17.260391,17.786325,18.368338,19.14686,20.068521,20.926239,21.507174,21.739939,21.737307,21.708506,21.809113,22.039536,22.265041,22.339842,22.241379,22.114027,22.189028,22.638975,23.473101,24.547918,25.679991,26.769663,27.836329,28.935629,30.025845,30.900536,31.26454,30.924448,29.967594,28.790304,27.92487,27.751095,28.268467,29.08213,29.627262,29.503532,28.715614,27.67012,26.931229,26.88796,27.538397,28.516792,29.333525,29.667225,29.527088,29.1985,29.028576,29.203619,29.658907,30.159945,30.477842,30.530123,30.399584,30.240288,30.157438,30.15357,30.169432,30.168962,30.185678,30.285795,30.479588,30.664267,30.665319,30.367302,29.84597,29.394171,29.395401,30.104073,31.466375,33.104336,34.488998,35.208363,35.17197,34.631542,34.012486,33.669369,33.72065,34.057793,34.50256,34.986717,35.61747,36.577049,37.926888,39.462387,40.739498,41.283001,40.861042,39.654205,38.200382,37.129135,36.829617,37.242874,37.902168,38.20277,37.750313,36.591366,35.198093,34.218021,34.130367,34.99749,36.441776,37.85107,38.693504,38.770782,38.281624,37.674019,37.375118,37.543194,37.963535,38.128834,37.451809,35.501568,32.158482,27.635723,22.384762,16.950857,11.851399,7.5182276,4.2978201,2.4686015,2.2308407,3.6517951,6.5891147,10.644622,15.198541,19.539732,23.056322,25.412058,26.630276,27.045454,27.144375,27.371445,27.986254,29.027115,30.372906,31.843954,33.273361,34.516979,35.426151,35.840542,35.641613,34.850384,33.698128,32.592278,31.957777,32.024036,32.686123,33.545612,34.132778,34.188942,33.830566,33.474857,33.555668,34.204586,35.114254,35.697613,35.464821,34.382305,32.967361,32.027046,32.17997,33.454048,35.223671,36.545002,36.695385,35.586975,33.798904,32.211693,31.478317,31.663534,32.265335,32.579723,32.152996,31.026188,29.6341,28.461077,27.710705,27.214968,26.621292,25.694231,24.496292,23.317345,22.420275,21.812443,21.231634,20.367731,19.153519,17.892645,17.103613,17.167976,18.026003,19.145922,19.809895,19.538095,18.370098,16.816029,15.514352,14.832122,14.676431,14.63146,14.304977,13.625609,12.877217,12.453568,12.521706,12.848236,12.923717,12.304266,10.932075,9.2093935,7.771801,7.11237,7.3035679,7.9866967,8.6110926,8.7441587,8.2492361,7.2471166,5.9411016,4.470418,2.9048092,1.3544344,0.059305273,-0.66693133,-0.63918275,-0.0076876222,0.71279114,0.86967176,0.050248686,-1.6245881,-3.5005898,-4.7189474,-4.694788,-3.4601314,-1.6614577,-0.21330363,0.1822781,-0.63164389,-2.2584417,-4.0331473,-5.4009609,-6.1598125,-6.4545493,-6.580461,-6.7616415,-7.0519018,-7.393455,-7.7508073,-8.19732,-8.8864927,-9.9375668,-11.328873,-12.880093,-14.333908,-15.477264,-16.223387,-16.614738,-16.766325,-16.801327,-16.817158,-16.881611,-17.033125,-17.269287,-17.537525,-17.758625,-17.891861,-18.005983,-18.291964,-18.977755,-20.174788,-21.753025,-23.348,-24.530151,-25.054504,-25.035326,-24.916758,-25.230812,-26.275364,-27.909857,-29.605616,-30.732334,-30.913082,-30.233789,-29.183002,-28.364475,-28.161827,-28.554359,-29.179068,-29.579105,-29.473804,-28.891523,-28.107965,-27.45491,-27.129013,-27.106916,-27.192158,-27.142626,-26.799541,-26.162127,-25.393202,-24.767237,-24.576403,-25.010626,-26.042854,-27.374207,-28.496223,-28.883427,-28.249395,-26.73324,-24.889006,-23.446274,-22.948895,-23.471222,-24.58515,-25.608957,-25.994213,-25.61614,-24.791874,-24.027676,-23.67354,-23.720642,-23.871878,-23.820147,-23.520069,-23.243973,-23.371572,-24.063393,-25.066002,-25.815844,-25.799091,-24.932024,-23.690245,-22.869322,-23.106056,-24.461033,-26.339314,-27.815998,-28.173731,-27.320606,-25.831493,-24.593584,-24.282854,-24.993876,-26.235891,-27.271297,-27.565529,-27.06835,-26.175524,-25.431042,-25.183636,-25.414646,-25.821054,-26.065262,-26.007265,-25.767647,-25.597534,-25.661749,-25.890545,-25.999907,-25.665154,-24.735359,-23.354336,-21.914557,-20.86994,-20.512589,-20.834194,-21.543135,-22.223106,-22.545698,-22.422928,-22.019556,-21.620903,-21.432709,-21.431784,-21.363323,-20.899042,-19.871208,-18.439789,-17.0749,-16.34005,-16.587149,-17.743116,-19.328793,-20.717314,-21.489231,-21.671682,-21.71072,-22.18749,-23.449717,-25.385069,-27.473862,-29.081329,-29.800919,-29.637398,-28.93429,-28.122107,-27.472717,-27.019426,-26.666328,-26.368523,-26.220831,-26.377485,-26.870647,-27.488008,-27.834248,-27.560715,-26.60832,-25.279699,-24.069059,-23.353973,-23.163233,-23.190552,-23.050812,-22.595757,-22.054092,-21.881542,-22.417992,-23.598213,-24.936096,-25.811901,-25.871281,-25.255104,-24.491619,-24.121674,-24.322742,-24.803183,-25.045101,-24.717468,-23.949152,-23.246012,-23.096691,-23.552437,-24.107935,-24.012056,-22.83065,-20.884623,-19.242495,-19.229143,-21.732498,-26.727991,-33.300598,-40.12252,-46.061504,-50.542175,-53.487389,-54.975163,-54.93565,-53.150028,-49.552105,-44.572193,-39.200191,-34.63448,-31.692677,-30.363222,-29.818626,-28.918915,-26.905188,-23.845945,-20.553429,-18.032841,-16.830999,-16.708351,-16.833662,-16.350471,-14.926182,-12.92475,-11.111876,-10.117434,-10.028375,-10.374673,-10.488822,-9.9673052,-8.9101915,-7.7882581,-7.0543866,-6.788693,-6.6305223,-6.0402026,-4.7024016,-2.7897685,-0.90708351,0.24676679,0.28042668,-0.67178732,-2.0315931,-3.0841565,-3.3142986,-2.5889096,-1.1242502,0.68955225,2.476119,3.979275,5.0790949,5.767096,6.1264877,6.3180041,6.5385098,6.9347239,7.5065823,8.0728865,8.3527746,8.1410904,7.4769945,6.6862464,6.2447467,6.5259247,7.5802627,9.0881853,10.525597,11.4481,11.723197,11.571172,11.395419,11.513868,11.961115,12.481218,12.708794,12.420492,11.700487,10.920894,10.550442,10.902459,11.962185,13.383853,14.654959,15.340921,15.289025,14.696155,14.0126,13.730311,14.156106,15.276601,16.778996,18.216059,19.229177,19.70871,19.801506,19.762106,19.741917,19.658415,19.245657,18.2722,16.791077,15.241444,14.295836,14.506617,15.95214,18.115211,20.106134,21.133268,20.954794,20.032728,19.275595,19.50564,20.964148,23.156115,25.133451,26.046951,25.631536,24.332722,23.008158,22.401724,22.721502,23.574141,24.27335,24.304268,23.64002,22.719912,22.12854,22.205786,22.847479,23.614141,24.054382,24.013065,23.718924,23.606188,24.005882,24.922392,26.042139,26.957346,27.444498,27.607891,27.797955,28.36722,29.43087,30.786812,32.038769,32.833584,33.058308,32.8801,32.61945,32.549706,32.74963,33.088253,33.332588,33.299625,32.962933,32.466873,32.060356,31.997738,32.45261,33.465282,34.92408,36.577854,38.085854,39.110329,39.436543,39.073887,38.278172,37.45974,37.000797,37.065804,37.509045,37.94231,37.939278,37.271217,36.042042,34.641342,33.535812,33.01453,33.0336,33.251278,33.235329,32.724045,31.789688,30.808149,30.249533,30.407179,31.218298,32.278301,33.042301,33.103638,32.39782,31.223194,30.07082,29.358809,29.214725,29.419874,29.539871,29.167601,28.148478,26.671864,25.18491,24.176414,23.941219,24.440687,25.323328,26.090002,26.320829,25.856476,24.853996,23.699774,22.828924,22.539595,22.886221,23.691492,24.656809,25.504908,26.079767,26.360441,26.398848,26.23575,25.858,25.228104,24.363991,23.406626,22.614016,22.264801,22.516764,23.304165,24.344252,25.261007,25.760607,25.756422,25.368959,24.804092,24.192139,23.49777,22.565056,21.270428,19.679272,18.091946,16.933205,16.541693,16.986345,18.024826,19.231703,20.217024,20.800674,21.041044,21.115351,21.146429,21.100777,20.826414,20.196833,19.25094,18.221037,17.41931,17.053003,17.089855,17.263815,17.219608,16.706146,15.702494,14.409676,13.129468,12.115923,11.48701,11.228977,11.260291,11.49255,11.847926,12.240992,12.564878,12.712414,12.623645,12.318948,11.882384,11.400806,10.906317,10.374261,9.7866802,9.2118607,8.8243694,8.8242989,9.2921724,10.079165,10.828873,11.146696,10.8269,9.990386,9.0276842,8.3627024,8.1763544,8.2691364,8.1635666,7.3964014,5.8243065,3.7503653,1.7867639,0.5327577,0.26120988,0.79791868,1.6544932,2.3193617,2.523591,2.3293767,2.0113385,1.8289509,1.8414204,1.8695123,1.6045444,0.77807093,-0.71182293,-2.7714269,-5.1638856,-7.5898967,-9.7558498,-11.425667,-12.473346,-12.937451,-13.044881,-13.159369,-13.644572,-14.695684,-16.237444,-17.965948,-19.527294,-20.730076,-21.651951,-22.559101,-23.681211,-24.991171,-26.14941,-26.671087,-26.222336,-24.85379,-23.007915,-21.281063,-20.087605,-19.448795,-19.055515,-18.574863,-18.002094,-17.815357,-18.80505,-21.651991,-26.49045,-32.710014,-39.114647,-44.35545,-47.41029,-47.880901,-46.003075,-42.42963,-37.944443,-33.252254,-28.894173,-25.243689,-22.508499,-20.706528,-19.650524,-19.000433,-18.402393,-17.658833,-16.829021,-16.185904,-16.041794,-16.542641,-17.554941,-18.71118,-19.578699,-19.84334,-19.402527,-18.335972,-16.808739,-14.997161,-13.089628,-11.33622,-10.067453,-9.6186876,-10.17299,-11.614479,-13.502425,-15.213856,-16.197664,-16.208223,-15.393656,-14.199493,-13.154359,-12.661092,-12.891903,-13.805758,-15.231901,-16.945396,-18.70129,-20.250427,-21.380287,-21.991295,-22.163866,-22.148106,-22.247038,-22.644175,-23.285591,-23.910608,-24.231991,-24.156013,-23.887152,-23.825161,-24.301247,-25.322214,-26.506403,-27.28126,-27.238058,-26.421001,-25.3519,-24.751307,-25.112925,-26.391462,-28.003195,-29.147806,-29.260658,-28.32391,-26.853928,-25.582718,-25.034338,-25.250153,-25.812202,-26.126242,-25.775572,-24.733624,-23.329266,-22.016924,-21.111155,-20.643366,-20.403131,-20.109138,-19.590542,-18.876806,-18.167276,-17.723024,-17.751568,-18.334351,-19.407312,-20.779005,-22.171129,-23.278698,-23.849483,-23.766817,-23.100704,-22.092093,-21.064447,-20.299667,-19.941492,-19.975513,-20.287033,-20.74781,-21.267916,-21.781176,-22.190407,-22.33707,-22.047937,-21.251799,-20.094107,-18.955774,-18.327694,-18.581627,-19.754816,-21.47683,-23.098951,-23.975634,-23.759321,-22.557634,-20.873665,-19.364141,-18.541954,-18.56926,-19.230047,-20.073572,-20.638603,-20.642973,-20.058685,-19.062099,-17.910204,-16.818537,-15.898239,-15.166525,-14.603166,-14.205995,-14.008011,-14.04769,-14.31572,-14.717693,-15.084431,-15.233561,-15.052688,-14.556654,-13.881254,-13.211736,-12.685651,-12.330221,-12.076278,-11.841814,-11.62721,-11.548038,-11.76645,-12.352282,-13.16469,-13.850388,-13.991449,-13.338056,-11.990843,-10.407044,-9.198679,-8.8182793,-9.30826,-10.266809,-11.062479,-11.181272,-10.506624,-9.3696661,-8.3442879,-7.915266,-8.2202091,-9.0133829,-9.8556232,-10.394586,-10.552434,-10.511674,-10.530688,-10.732136,-11.01559,-11.148813,-10.96086,-10.487828,-9.9590206,-9.6299429,-9.5832443,-9.6464834,-9.4951124,-8.8763571,-7.7992592,-6.5539751,-5.5395656,-5.0139289,-4.9371729,-5.0182395,-4.9340506,-4.5687213,-4.1027603,-3.8839242,-4.1632271,-4.8772306,-5.6318707,-5.9100151,-5.3738894,-4.0680571,-2.3925562,-0.86646658,0.16346215,0.68514371,0.96343327,1.3198901,1.9090792,2.6386456,3.2685909,3.5970945,3.5867083,3.3416855,2.9688473,2.4489143,1.6403499,0.43455741,-1.0460342,-2.370949,-2.9453642,-2.3261361,-0.52860248,1.8805305,3.9967077,5.0067177,4.6034217,3.1508355,1.5010145,0.56123322,0.84850401,2.267637,4.2137284,5.9162612,6.8190231,6.7944341,6.1076283,5.1954117,4.4165015,3.9164128,3.6550756,3.5371618,3.5328405,3.7047794,4.1364698,4.8286791,5.6483159,6.37146,6.7938838,6.8366685,6.5802927,6.2102628,5.9146371,5.8001065,5.8737369,6.0884991,6.4077449,6.8356929,7.3911843,8.0475378,8.6891966,9.1269903,9.1741705,8.7431107,7.9062133,6.8850617,5.9746346,5.4450145,5.4689589,6.0982862,7.2772198,8.8630705,10.636743,12.314823,13.593478,14.240377,14.208537,13.706313,13.157348,13.036528,13.647846,14.964852,16.638811,18.19051,19.286873,19.937492,20.479738,21.345137,22.741623,24.454243,25.908628,26.483747,25.898211,24.432648,22.836311,21.952534,22.271589,23.670517,25.492188,26.91497,27.393864,26.919237,25.958767,25.143009,24.90151,25.265924,25.932827,26.509428,26.762367,26.713181,26.546848,26.430086,26.384697,26.302273,26.070698,25.698833,25.332991,25.148781,25.203768,25.372671,25.42845,25.220995,24.822233,24.515179,24.604099,25.14814,25.786613,25.784464,24.303593,20.776312,15.198952,8.2073984,0.90919226,-5.4411774,-9.7851868,-11.506208,-10.52922,-7.2861757,-2.5846138,2.5862522,7.284184,10.838265,13.008105,14.01186,14.392643,14.763682,15.540858,16.789938,18.262751,19.594843,20.545172,21.134354,21.600779,22.20813,23.033438,23.879938,24.38142,24.240116,23.447691,22.339191,21.428549,21.113049,21.426632,22.005363,22.305826,21.958372,21.040621,20.087751,19.806458,20.64328,22.463665,24.552576,25.967283,26.059284,24.864853,23.121744,21.879013,21.908867,23.25798,25.206705,26.671349,26.822752,25.56208,23.575281,21.936022,21.494169,22.410648,24.105211,25.631041,26.235697,25.767887,24.69949,23.777893,23.546631,24.035872,24.796846,25.2274,24.958372,24.053041,22.914028,21.990885,21.50235,21.355757,21.293653,21.136045,20.927795,20.880911,21.159206,21.674004,22.058226,21.86212,20.853441,19.219469,17.519459,16.393354,16.193581,16.765749,17.520584,17.764418,17.098087,15.650945,14.013697,12.910195,12.798063,13.624314,14.867832,15.83541,16.038607,15.442464,14.457768,13.695106,13.62651,14.341313,15.52035,16.627535,17.201643,17.084822,16.469322,15.749674,15.275221,15.147605,15.176564,15.013406,14.380045,13.257823,11.924697,10.816491,10.288594,10.411909,10.918965,11.333551,11.216381,10.396431,9.0661335,7.691977,6.7887535,6.6731124,7.3171792,8.367218,9.3094435,9.6978922,9.338892,8.3558702,7.1176157,6.0715876,5.5578623,5.6789351,6.2718215,6.985899,7.4294763,7.3237948,6.603013,5.4227753,4.0792828,2.8791571,2.0203512,1.535651,1.3169907,1.1978748,1.0449663,0.81174409,0.53426045,0.28360379,0.11076067,0.016325833,-0.044511318,-0.13495316,-0.31025377,-0.60632312,-1.0409685,-1.6156088,-2.3098431,-3.0745633,-3.8380597,-4.5328407,-5.1326089,-5.6727672,-6.2312984,-6.8710232,-7.5758538,-8.2274752,-8.651268,-8.7167234,-8.4360056,-7.9940791,-7.67764,-7.7308135,-8.216095,-8.9649324,-9.6553726,-9.9804373,-9.8147545,-9.2848034,-8.7026205,-8.4021664,-8.5730801,-9.1849194,-10.037957,-10.900537,-11.644677,-12.29941,-12.99744,-13.857893,-14.884004,-15.939197,-16.811541,-17.321424,-17.405588,-17.132723,-16.653534,-16.127174,-15.67173,-15.359007,-15.236551,-15.341645,-15.685539,-16.219625,-16.820343,-17.324286,-17.609497,-17.677889,-17.679445,-17.846712,-18.364601,-19.248598,-20.30966,-21.237637,-21.763269,-21.807295,-21.528673,-21.242466,-21.255619,-21.716351,-22.560219,-23.572964,-24.51895,-25.251095,-25.742579,-26.041222,-26.199558,-26.24041,-26.178205,-26.063354,-25.994625,-26.071655,-26.31608,-26.628975,-26.83806,-26.823479,-26.64109,-26.542908,-26.85034,-27.737429,-29.059753,-30.358526,-31.070538,-30.839985,-29.746771,-28.299011,-27.173895,-26.848873,-27.341993,-28.221615,-28.88303,-28.923483,-28.384029,-27.708645,-27.447748,-27.893576,-28.877127,-29.854858,-30.232964,-29.730934,-28.564178,-27.336866,-26.709547,-27.034483,-28.162355,-29.518606,-30.395092,-30.293095,-29.142298,-27.301451,-25.364723,-23.887091,-23.162981,-23.147991,-23.536554,-23.939856,-24.073631,-23.872499,-23.486366,-23.169369,-23.120935,-23.362194,-23.714464,-23.893963,-23.671036,-23.001709,-22.051411,-21.09506,-20.356535,-19.892824,-19.600473,-19.338133,-19.07391,-18.942114,-19.15398,-19.81501,-20.781796,-21.680088,-22.101694,-21.866516,-21.171974,-20.508165,-20.366404,-20.913565,-21.843872,-22.518318,-22.321381,-21.022753,-18.924732,-16.709372,-15.08539,-14.449524,-14.749035,-15.588649,-16.471771,-17.007301,-16.979883,-16.308466,-15.000552,-13.182854,-11.181693,-9.5356989,-8.8393068,-9.4420462,-11.174913,-13.316696,-14.893567,-15.185855,-14.147609,-12.459129,-11.144468,-10.966761,-11.974419,-13.490888,-14.559447,-14.55518,-13.561769,-12.266014,-11.448005,-11.42163,-11.81737,-11.868528,-11.016992,-9.4298487,-8.0670433,-8.2306347,-10.862376,-16.014168,-22.796104,-29.798317,-35.698532,-39.691982,-41.548237,-41.374729,-39.349499,-35.653511,-30.627031,-24.960554,-19.676483,-15.807276,-13.919224,-13.785501,-14.455092,-14.724101,-13.753547,-11.473895,-8.5446472,-5.9139252,-4.2644386,-3.6832247,-3.7275674,-3.7974381,-3.5404305,-3.0230482,-2.5815926,-2.4864562,-2.6677172,-2.6923845,-2.0067017,-0.28496823,2.3322215,5.2486682,7.6586738,8.8900499,8.6737747,7.2304578,5.1625094,3.2190247,2.0300195,1.8974894,2.7050636,3.9771345,5.0771985,5.4818554,5.0193911,3.9552972,2.8654103,2.3454082,2.7047122,3.8159783,5.2100348,6.361021,6.9869132,7.1785598,7.2801332,7.607759,8.2018309,8.7865829,8.9688902,8.5419664,7.6818633,6.8917656,6.7168169,7.4090791,8.7605677,10.216494,11.200239,11.446769,11.138923,10.769983,10.827955,11.500936,12.576775,13.580305,14.047078,13.764843,12.854907,11.675083,10.62692,9.9830742,9.8104372,9.9936008,10.313743,10.534407,10.472035,10.051803,9.3467617,8.5802069,8.0652924,8.0814123,8.7328243,9.8662748,11.109155,12.027445,12.32904,12.003045,11.316129,10.667668,10.385895,10.57726,11.103736,11.684387,12.049953,12.061599,11.742003,11.226301,10.681718,10.245508,10.000931,9.9793358,10.16716,10.510746,10.930015,11.353102,11.764012,12.231954,12.888165,13.84432,15.090404,16.438301,17.564356,18.151094,18.064211,17.466923,16.795378,16.588629,17.246935,18.836971,21.044596,23.303061,25.035387,25.891878,25.868238,25.253788,24.4482,23.751551,23.24024,22.787186,22.19907,21.376265,20.391947,19.442415,18.707155,18.219704,17.846382,17.397438,16.799797,16.206318,15.946973,16.329538,17.407816,18.876106,20.183359,20.821976,20.623549,19.87252,19.152966,19.011858,19.645037,20.802988,21.973318,22.71483,22.918154,22.820467,22.774364,22.944881,23.161072,23.0387,22.292263,21.008301,19.665972,18.863234,18.920422,19.635693,20.37883,20.483551,19.687515,18.32258,17.115753,16.721642,17.293682,18.383198,19.240046,19.319214,18.656527,17.861012,17.725435,18.709641,20.633919,22.778311,24.31621,24.796835,24.370996,23.634125,23.213152,23.379477,23.931757,24.39666,24.383194,23.839146,23.046558,22.384197,22.04319,21.900942,21.635862,20.992798,20.007761,19.034035,18.549805,18.87183,19.956079,21.404909,22.669847,23.325928,23.264114,22.70882,22.07114,21.730833,21.861814,22.377838,23.008369,23.454815,23.547085,23.325417,23.007776,22.856871,23.014223,23.395523,23.719749,23.673748,23.126793,22.26062,21.512474,21.337351,21.920057,23.022728,24.088314,24.561779,24.237165,23.399103,22.644249,22.477293,22.940355,23.534168,23.509659,22.359926,20.193195,17.727808,15.89206,15.277267,15.799787,16.795908,17.485184,17.487267,17.039413,16.767616,17.175423,18.215469,19.256563,19.485294,18.473621,16.517853,14.50143,13.356444,13.475136,14.461923,15.3901,15.390871,14.185455,12.219573,10.33473,9.2192116,9.0127611,9.3102484,9.5216074,9.3046713,8.7593422,8.2654428,8.1135406,8.2242584,8.1748304,7.5156121,6.1390357,4.4205604,3.0142174,2.4351397,2.7171094,3.3844161,3.760582,3.4062712,2.3950021,1.25135,0.60546845,0.79900849,1.6921213,2.7713025,3.4580653,3.4071634,2.6244388,1.3800712,0.026909349,-1.1367624,-1.8994615,-2.111037,-1.6898836,-0.69913679,0.57060206,1.6240442,1.9465208,1.2796222,-0.1893156,-1.887265,-3.1857712,-3.8356497,-4.2389894,-5.3560343,-8.2491465,-13.48747,-20.735714,-28.762497,-35.879562,-40.595211,-42.163708,-40.786148,-37.410446,-33.273666,-29.424465,-26.427254,-24.325663,-22.813759,-21.491051,-20.078995,-18.526438,-16.991518,-15.732919,-14.967448,-14.756536,-14.971047,-15.350823,-15.629126,-15.654213,-15.436244,-15.089217,-14.705245,-14.249726,-13.560651,-12.469128,-10.969621,-9.3194437,-7.9779592,-7.3952837,-7.7656388,-8.8987789,-10.301617,-11.434417,-11.993571,-12.051082,-11.968103,-12.141569,-12.747613,-13.644109,-14.488197,-14.983165,-15.08602,-15.036408,-15.188568,-15.759764,-16.663704,-17.541229,-17.970877,-17.725468,-16.912066,-15.909214,-15.14472,-14.855753,-14.979009,-15.231423,-15.320414,-15.14406,-14.85426,-14.747269,-15.056453,-15.781579,-16.663378,-17.320492,-17.466913,-17.081429,-16.43136,-15.939054,-15.96749,-16.641476,-17.793779,-19.053286,-20.018393,-20.424345,-20.230221,-19.602676,-18.825132,-18.185799,-17.889536,-18.012426,-18.495539,-19.168251,-19.797039,-20.158876,-20.12809,-19.746548,-19.235884,-18.924902,-19.106028,-19.881823,-21.084501,-22.326183,-23.171511,-23.351807,-22.906149,-22.165531,-21.580196,-21.480186,-21.901554,-22.576414,-23.092106,-23.126902,-22.626404,-21.822323,-21.090841,-20.742289,-20.869421,-21.337906,-21.909315,-22.40517,-22.801435,-23.196783,-23.686808,-24.240587,-24.673103,-24.740227,-24.297405,-23.416611,-22.379583,-21.543932,-21.160694,-21.253744,-21.632582,-22.025925,-22.24885,-22.298487,-22.322733,-22.489798,-22.849779,-23.282484,-23.568169,-23.536957,-23.200748,-22.779995,-22.601328,-22.920341,-23.769619,-24.918791,-25.970695,-26.543644,-26.446037,-25.758318,-24.788731,-23.932856,-23.507895,-23.63476,-24.209223,-24.959848,-25.557344,-25.729244,-25.342762,-24.436682,-23.20022,-21.908884,-20.836107,-20.16609,-19.936302,-20.032328,-20.240986,-20.343596,-20.211046,-19.857616,-19.426792,-19.113527,-19.058517,-19.264843,-19.578079,-19.74164,-19.504917,-18.738335,-17.506889,-16.070702,-14.809139,-14.092763,-14.146305,-14.951794,-16.231859,-17.529451,-18.365442,-18.420031,-17.66354,-16.372185,-15.008803,-14.012379,-13.592461,-13.632904,-13.760963,-13.55192,-12.761628,-11.457399,-9.9705286,-8.6962404,-7.8594341,-7.3889656,-6.9796042,-6.3044229,-5.2434292,-3.979949,-2.898165,-2.3432746,-2.3978627,-2.8211868,-3.1933794,-3.1707246,-2.6821737,-1.9350033,-1.2272736,-0.70042652,-0.21264413,0.5648343,1.8822145,3.6583431,5.4310226,6.5755219,6.6750207,5.8104053,4.5695653,3.7453632,3.8912072,5.0028701,6.5252943,7.6839981,7.9389257,7.2840061,6.2166862,5.4113326,5.3126779,5.9036279,6.7766352,7.4373374,7.6271615,7.4579163,7.2922897,7.47718,8.1228399,9.0681438,10.027487,10.787336,11.300335,11.62084,11.759098,11.598553,10.96867,9.833683,8.4472866,7.3244243,7.0025377,7.7237558,9.2498894,10.956859,12.178594,12.598912,12.443028,12.337254,12.914389,14.407138,16.482841,18.421515,19.524082,19.498373,18.59432,17.425541,16.60957,16.457077,16.88553,17.572186,18.208395,18.672134,19.01819,19.327782,19.557781,19.518303,19.001394,17.964371,16.625265,15.387155,14.627807,14.48728,14.791482,15.162866,15.2498,14.933744,14.392223,13.988697,14.064075,14.754081,15.927821,17.262867,18.396477,19.065077,19.171951,18.776796,18.041739,17.174599,16.388325,15.87052,15.749538,16.056734,16.702581,17.489614,18.170626,18.535084,18.48807,18.086113,17.513323,17.007565,16.766947,16.873758,17.265524,17.765856,18.165646,18.323915,18.243921,18.083042,18.079159,18.415951,19.086662,19.827642,20.16688,19.577044,17.667295,14.326146,9.7548761,4.3923492,-1.2104645,-6.4918561,-10.917635,-13.978797,-15.212798,-14.300402,-11.226718,-6.4221182,-0.7707718,4.5790596,8.565526,10.585854,10.716415,9.6639233,8.45755,8.0187492,8.8036633,10.672241,13.022897,15.105758,16.355284,16.59503,16.046062,15.168402,14.431607,14.122502,14.261411,14.641459,14.956103,14.954459,14.562793,13.92792,13.366486,13.237973,13.789986,15.040906,16.755562,18.532047,19.965492,20.813089,21.079102,20.976713,20.788097,20.700018,20.706543,20.632618,20.262499,19.495508,18.434967,17.35516,16.563581,16.238615,16.338581,16.636457,16.860075,16.854122,16.666521,16.506222,16.596752,17.013872,17.607931,18.063324,18.06632,17.486113,16.462547,15.34585,14.519056,14.20262,14.351014,14.696779,14.910473,14.77912,14.300164,13.645833,13.035205,12.605539,12.365465,12.248555,12.211886,12.292997,12.573312,13.072399,13.660085,14.072958,14.05256,13.529219,12.725122,12.085264,12.05036,12.795141,14.093182,15.403542,16.142025,15.984164,15.024796,13.706482,12.569938,11.982282,11.998162,12.41032,12.921431,13.304285,13.452563,13.325242,12.8736,12.043628,10.86753,9.5607805,8.5095673,8.1022215,8.4838591,9.4005251,10.271279,10.487453,9.7765064,8.4001122,7.0411587,6.4277358,6.9170814,8.2983065,9.9372177,11.166359,11.665081,11.587173,11.368839,11.368513,11.600224,11.748538,11.446873,10.608887,9.5604563,8.8598261,8.9177408,9.6798563,10.602203,10.955553,10.270324,8.6346092,6.6531477,5.098083,4.4805984,4.8122244,5.6841431,6.5751204,7.1562028,7.3879442,7.3754396,7.1305351,6.4552116,5.0606747,2.8480785,0.13846533,-2.345562,-3.7819858,-3.6734083,-2.1350977,0.13750283,2.2118633,3.3743899,3.4414389,2.7663486,1.9703988,1.5773088,1.759359,2.3070209,2.7913046,2.793577,2.0783284,0.6556434,-1.2449259,-3.2408447,-4.879034,-5.7415719,-5.5795202,-4.4388394,-2.7033093,-0.99030268,0.090939574,0.21419816,-0.50655186,-1.5814371,-2.4115837,-2.6156032,-2.2302427,-1.6707516,-1.4791793,-2.0122478,-3.248163,-4.8104668,-6.174509,-6.924377,-6.9205184,-6.3123937,-5.4261241,-4.6114368,-4.1219316,-4.0551615,-4.3409119,-4.7643356,-5.0304961,-4.881588,-4.245604,-3.3451836,-2.6767104,-2.8194089,-4.1385369,-6.5395284,-9.4360542,-11.989016,-13.509474,-13.801646,-13.238998,-12.519967,-12.247959,-12.593663,-13.245966,-13.670572,-13.494352,-12.755075,-11.853628,-11.254131,-11.151549,-11.346039,-11.412915,-11.043352,-10.304486,-9.6211605,-9.4797134,-10.05844,-11.052892,-11.837444,-11.871509,-11.080868,-9.9490347,-9.2422304,-9.5382509,-10.865038,-12.684901,-14.230964,-14.969877,-14.886947,-14.418461,-14.099586,-14.186032,-14.513418,-14.679944,-14.403657,-13.781629,-13.252254,-13.280636,-13.994294,-15.043011,-15.805084,-15.816298,-15.129244,-14.342201,-14.252523,-15.346002,-17.454828,-19.816687,-21.50876,-21.984911,-21.37578,-20.366362,-19.740501,-19.894342,-20.631483,-21.357845,-21.527269,-21.028135,-20.251411,-19.802584,-20.061886,-20.896208,-21.719374,-21.86043,-20.994284,-19.350607,-17.568304,-16.297686,-15.814157,-15.890304,-15.995575,-15.676395,-14.858946,-13.880197,-13.240976,-13.258059,-13.849939,-14.591221,-14.987196,-14.778818,-14.080072,-13.272291,-12.744311,-12.661432,-12.911913,-13.248141,-13.505566,-13.736827,-14.167229,-15.007434,-16.258286,-17.645216,-18.729042,-19.122517,-18.677856,-17.538965,-16.046082,-14.571775,-13.394007,-12.664252,-12.448345,-12.768111,-13.587384,-14.750941,-15.944075,-16.744535,-16.778475,-15.909606,-14.346843,-12.587611,-11.206233,-10.591588,-10.773717,-11.431316,-12.071484,-12.282135,-11.929579,-11.218241,-10.610991,-10.672112,-11.907365,-14.642796,-18.943142,-24.557211,-30.89802,-37.093636,-42.143642,-45.17173,-45.698814,-43.820019,-40.189571,-35.799294,-31.636686,-28.369133,-26.186052,-24.849098,-23.899868,-22.910059,-21.659925,-20.18565,-18.706245,-17.487204,-16.706867,-16.372841,-16.310482,-16.224874,-15.819824,-14.935784,-13.648057,-12.26545,-11.204335,-10.779114,-11.012446,-11.582123,-11.96093,-11.695045,-10.670011,-9.1998758,-7.866817,-7.1889176,-7.3097968,-7.9043651,-8.3695965,-8.1908646,-7.257854,-5.92944,-4.8040328,-4.3413153,-4.5785675,-5.1231995,-5.4215569,-5.1225042,-4.2945042,-3.3569193,-2.780607,-2.7668228,-3.122829,-3.412493,-3.2692289,-2.6496077,-1.8530868,-1.3010545,-1.2366972,-1.5579568,-1.8954675,-1.8706642,-1.3443033,-0.4812389,0.40082237,1.0698926,1.5168362,1.8884259,2.2804515,2.5746195,2.4787123,1.7721996,0.58309871,-0.53590876,-0.8459751,0.1344769,2.2631948,4.7542567,6.567883,6.9999061,6.106935,4.6839123,3.7858739,4.0809889,5.440064,7.0247436,7.819953,7.2715945,5.6249208,3.7558734,2.6169102,2.6630304,3.6247735,4.7564983,5.3738589,5.3122993,5.0061879,5.151607,6.1950331,7.9978695,9.8984919,11.122203,11.261225,10.510822,9.519146,8.9650211,9.1462812,9.8367844,10.48093,10.575345,9.9825392,8.9890957,8.1007195,7.7306423,7.9819555,8.6358328,9.3125973,9.6754141,9.5534258,8.947422,7.9695897,6.7925916,5.6368442,4.7603331,4.3973851,4.6414418,5.3412194,6.1101518,6.4949403,6.2373528,5.4731464,4.7192712,4.6171222,5.5581636,7.4129004,9.5427246,11.112041,11.532782,10.7836,9.4131069,8.2224207,7.8133092,8.266223,9.1311369,9.7256508,9.555747,8.6111422,7.3712721,6.5317822,6.6182456,7.7050686,9.3833103,10.974935,11.861796,11.753618,10.773211,9.3457222,7.9765873,7.0406055,6.6743236,6.7942586,7.1982703,7.6789103,8.0921202,8.3653688,8.4682693,8.3851128,8.1162577,7.7060328,7.2685804,6.9780765,7.0105734,7.459476,8.2730112,9.2596951,10.173038,10.83694,11.239749,11.533448,11.926702,12.528653,13.241774,13.784569,13.851957,13.332489,12.452829,11.746838,11.839809,13.146815,15.641913,18.825533,21.914022,24.157663,25.12866,24.844927,23.690407,22.200121,20.835577,19.857029,19.32435,19.180794,19.340637,19.725933,20.252419,20.807087,21.260641,21.521324,21.59412,21.595366,21.699326,22.041058,22.633942,23.354561,24.005463,24.41613,24.51926,24.358595,24.032274,23.618103,23.135376,22.567055,21.919472,21.268129,20.748272,20.490583,20.545177,20.849684,21.268539,21.680038,22.050589,22.44026,22.929285,23.512669,24.039181,24.249462,23.906145,22.945515,21.557087,20.132412,19.098488,18.719767,18.973957,19.56735,20.07902,20.155619,19.658039,18.695999,17.551525,16.54674,15.926338,15.799215,16.141275,16.831974,17.695791,18.53828,19.183561,19.519276,19.538277,19.351324,19.149582,19.122705,19.36982,19.852764,20.420218,20.889261,21.13508,21.135771,20.950668,20.655685,20.285427,19.82144,19.227758,18.499023,17.680183,16.844469,16.053473,15.338585,14.721287,14.248962,13.998816,14.022237,14.256486,14.477563,14.362253,13.658669,12.374242,10.846804,9.6144037,9.1257019,9.4553185,10.216249,10.756657,10.546205,9.5155916,8.1188574,7.0544586,6.8098707,7.3300858,8.0485439,8.283124,7.7415056,6.779531,6.2008672,6.6957626,8.2879534,10.193748,11.24807,10.664736,8.6315718,6.2938123,5.0497613,5.548264,7.0317178,7.518208,4.8248801,-2.1058321,-12.358743,-23.229761,-31.409903,-34.547272,-32.330452,-26.507343,-19.867964,-14.803931,-12.261588,-11.620413,-11.447997,-10.575953,-8.8112946,-6.8985715,-5.8583755,-6.2112813,-7.6175318,-9.1384344,-9.89217,-9.6286364,-8.8353243,-8.3294153,-8.6435366,-9.6370964,-10.590367,-10.698992,-9.6198282,-7.7009754,-5.7581816,-4.5681982,-4.4254212,-5.0406623,-5.8121328,-6.2486801,-6.2451153,-6.041523,-5.937398,-6.0020108,-6.008142,-5.6357532,-4.7829194,-3.7358894,-3.0497417,-3.2024658,-4.2562962,-5.7678819,-7.0258298,-7.4729285,-7.0428729,-6.194849,-5.6260724,-5.8491583,-6.9006896,-8.3518925,-9.5919838,-10.186443,-10.084118,-9.5674305,-9.0173168,-8.675602,-8.5623255,-8.5738935,-8.6513195,-8.8658772,-9.3473425,-10.114999,-10.959293,-11.494987,-11.381582,-10.573995,-9.4241276,-8.5386963,-8.4573364,-9.3407001,-10.863897,-12.388164,-13.31121,-13.385822,-12.818583,-12.099831,-11.681878,-11.709262,-11.96164,-12.029675,-11.599918,-10.666117,-9.5419121,-8.6798,-8.4176102,-8.8068504,-9.6143961,-10.477943,-11.108708,-11.421118,-11.528135,-11.62708,-11.860001,-12.233431,-12.634256,-12.917176,-13.002838,-12.929749,-12.837324,-12.896935,-13.2307,-13.856941,-14.683333,-15.546392,-16.278774,-16.777227,-17.044338,-17.185318,-17.35693,-17.685682,-18.18981,-18.744101,-19.112816,-19.046246,-18.403559,-17.245577,-15.847503,-14.61376,-13.921982,-13.960261,-14.632845,-15.585964,-16.354685,-16.573891,-16.158617,-15.362727,-14.674754,-14.587716,-15.348696,-16.816113,-18.507723,-19.827349,-20.359209,-20.073816,-19.329155,-18.661581,-18.481344,-18.846741,-19.44816,-19.809755,-19.584959,-18.764156,-17.667665,-16.732359,-16.231138,-16.106266,-16.022535,-15.60258,-14.688416,-13.458687,-12.32898,-11.706594,-11.76367,-12.372622,-13.23126,-14.075233,-14.822574,-15.554746,-16.364672,-17.202265,-17.848375,-18.048159,-17.708864,-17.008846,-16.321444,-15.990553,-16.108765,-16.457287,-16.658512,-16.441233,-15.833647,-15.145205,-14.746445,-14.802267,-15.151917,-15.427028,-15.326725,-14.8495,-14.304698,-14.081774,-14.335211,-14.81733,-14.999801,-14.424574,-13.053472,-11.367178,-10.120389,-9.8902884,-10.703992,-11.992076,-12.909642,-12.828178,-11.68956,-10.003597,-8.5027294,-7.6868467,-7.553123,-7.6720209,-7.5356369,-6.9275761,-6.0618105,-5.4065409,-5.3285904,-5.8134813,-6.4575577,-6.7362161,-6.3614016,-5.4821281,-4.5913448,-4.2027674,-4.5149131,-5.2845221,-5.9884276,-6.1616402,-5.6880178,-4.8587313,-4.1709104,-4.0062165,-4.3977108,-5.0245318,-5.4211464,-5.2549477,-4.4965596,-3.3910863,-2.2721882,-1.3541226,-0.63444942,0.046355333,0.84804088,1.7911054,2.7242532,3.4088125,3.6543794,3.4161463,2.8009977,1.9943217,1.1662189,0.41671371,-0.21870065,-0.72723848,-1.0851145,-1.2610245,-1.2504576,-1.1069192,-0.93620759,-0.84624928,-0.8782993,-0.96256953,-0.93100756,-0.58870453,0.18795171,1.3747159,2.7842982,4.1241264,5.105011,5.5552464,5.4908538,5.1097507,4.7088852,4.5565825,4.774322,5.2814107,5.8314013,6.128016,5.9699087,5.3564091,4.5019217,3.7493987,3.4225743,3.6872656,4.486424,5.5752177,6.6316729,7.3838181,7.6934705,7.5677686,7.1114326,6.4601398,5.7342043,5.0272336,4.4166303,3.971065,3.7407241,3.7375879,3.9267671,4.2437057,4.630528,5.0658388,5.5630169,6.1346893,6.7496476,7.3196464,7.7355437,7.9345927,7.951488,7.9091921,7.9448462,8.1152906,8.3499203,8.4930868,8.4170427,8.1301727,7.7979646,7.647789,7.8118505,8.2173805,8.6145248,8.7441797,8.5448561,8.2528791,8.3035164,9.0671816,10.574528,12.413558,13.890888,14.3876,13.708477,12.210879,10.620879,9.6292601,9.4933815,9.8697443,9.9665565,8.9223166,6.1977906,1.7833033,-3.8499365,-9.9756536,-15.859357,-20.903383,-24.670912,-26.860056,-27.312086,-26.074553,-23.460098,-20.016024,-16.372639,-13.03142,-10.212232,-7.8529992,-5.7572513,-3.7858453,-1.961061,-0.41881019,0.74211317,1.5876143,2.3457682,3.2680681,4.4569817,5.7946382,7.0360231,8.004961,8.7457867,9.50634,10.547981,11.91185,13.317532,14.289548,14.448822,13.780598,12.689808,11.78761,11.5327,11.955524,12.648128,13.033291,12.744993,11.878503,10.95178,10.604375,11.224413,12.732702,14.645616,16.360464,17.475981,17.956156,18.061111,18.119963,18.308426,18.568766,18.700771,18.539154,18.089022,17.535563,17.136183,17.076208,17.379099,17.913084,18.470797,18.862833,18.976484,18.788853,18.354151,17.787367,17.246529,16.89872,16.860596,17.13047,17.553013,17.854923,17.754835,17.10326,15.980165,14.690897,13.651107,13.210587,13.500032,14.374959,15.482737,16.418821,16.896761,16.853146,16.442282,15.929421,15.540038,15.343888,15.235475,15.022707,14.575788,13.949285,13.39708,13.255188,13.745723,14.812053,16.091537,17.062265,17.298655,16.698105,15.545795,14.371595,13.673192,13.660207,14.163089,14.752661,14.991589,14.666198,13.870096,12.911186,12.122082,11.700251,11.663102,11.911887,12.325712,12.804518,13.242296,13.484922,13.348016,12.719219,11.684719,10.571991,9.8367128,9.8262491,10.553657,11.636308,12.466045,12.532767,11.716217,10.367245,9.1220713,8.5552006,8.8739004,9.8277845,10.872169,11.473205,11.37145,10.666654,9.7089539,8.8935728,8.4882746,8.5686026,9.0492783,9.7487144,10.437407,10.872546,10.854142,10.316901,9.414341,8.5140553,8.0539532,8.3027267,9.1598005,10.142655,10.613355,10.141192,8.7879839,7.1227999,5.927062,5.747787,6.5666447,7.7954183,8.6115885,8.4346313,7.2527256,5.602973,4.2268724,3.6251025,3.7909474,4.2767825,4.5283742,4.2535682,3.5829234,2.9301782,2.6641464,2.8244362,3.0746176,2.9208789,2.046761,0.54242289,-1.1178454,-2.3306468,-2.687948,-2.1760564,-1.1454264,-0.093566366,0.59287417,0.78814363,0.60791057,0.26794237,-0.07038264,-0.37570429,-0.71955734,-1.1889106,-1.8042634,-2.4869902,-3.0798163,-3.3986735,-3.2934277,-2.7056596,-1.7145783,-0.55265152,0.43411303,0.89128822,0.59802639,-0.42097068,-1.8849931,-3.3747098,-4.5288577,-5.2147765,-5.5714221,-5.8944626,-6.4300566,-7.203938,-7.993259,-8.4593763,-8.3573599,-7.6897559,-6.7096581,-5.7763295,-5.1594443,-4.9152913,-4.9044409,-4.9251218,-4.8650556,-4.7721276,-4.8075995,-5.1258802,-5.7672982,-6.6293883,-7.5206828,-8.246316,-8.6658545,-8.7003126,-8.3130941,-7.5075145,-6.3584118,-5.0498152,-3.8668835,-3.112967,-2.9799275,-3.4475696,-4.2855372,-5.1715832,-5.8615518,-6.3050632,-6.6307764,-7.0111828,-7.5011792,-7.9673376,-8.16537,-7.9198828,-7.2837443,-6.5600567,-6.1579309,-6.3659601,-7.1876655,-8.3468847,-9.4608021,-10.266707,-10.753181,-11.111522,-11.547142,-12.087421,-12.526314,-12.551562,-11.972212,-10.889577,-9.6870222,-8.8326359,-8.6148539,-8.9789457,-9.5689583,-9.9468775,-9.8478031,-9.3112669,-8.6161785,-8.0781517,-7.8544946,-7.8855419,-7.9970999,-8.0721436,-8.1541557,-8.4006891,-8.9224539,-9.6348076,-10.246932,-10.417424,-9.9809418,-9.0885086,-8.1521149,-7.6134963,-7.6797371,-8.198204,-8.7565498,-8.9462271,-8.6199999,-7.9784946,-7.4354119,-7.3569293,-7.8491998,-8.7267885,-9.6661005,-10.422567,-10.955723,-11.383127,-11.814524,-12.205696,-12.354083,-12.048304,-11.262806,-10.246468,-9.4234734,-9.1584158,-9.539443,-10.32876,-11.118876,-11.592031,-11.708251,-11.695797,-11.854023,-12.308205,-12.889142,-13.22421,-12.980862,-12.098823,-10.854321,-9.7125282,-9.0646563,-9.020196,-9.3853807,-9.8368807,-10.177712,-10.517428,-11.272508,-12.991923,-16.105228,-20.715073,-26.513319,-32.831005,-38.783684,-43.462975,-46.13649,-46.424412,-44.411983,-40.649899,-36.014744,-31.455992,-27.717854,-25.149776,-23.681591,-22.954168,-22.516836,-21.981964,-21.078711,-19.63232,-17.547956,-14.857018,-11.805465,-8.8917084,-6.7619457,-5.9571548,-6.6243978,-8.3673029,-10.358805,-11.692522,-11.797659,-10.689149,-8.9125099,-7.2219501,-6.1863151,-5.9503894,-6.2687726,-6.7522717,-7.1408839,-7.4234004,-7.7493544,-8.2304497,-8.7986526,-9.231514,-9.3193588,-9.0370007,-8.5778894,-8.2142296,-8.0831127,-8.0633564,-7.8492789,-7.1850152,-6.0982447,-4.9575305,-4.2892327,-4.4543386,-5.3903427,-6.5940838,-7.3743401,-7.2327528,-6.1487145,-4.6004047,-3.3121049,-2.8762131,-3.461422,-4.7553453,-6.1490211,-7.0417619,-7.099875,-6.3537717,-5.1197743,-3.8193288,-2.7971711,-2.2115667,-2.0170982,-2.0189016,-1.9621743,-1.6252073,-0.89309537,0.20455697,1.5018722,2.7478876,3.6810119,4.0979619,3.8953335,3.0816307,1.7735664,0.18862861,-1.3727254,-2.5773492,-3.1547985,-3.0134556,-2.3140364,-1.4338044,-0.80572814,-0.69969183,-1.0711031,-1.5846094,-1.821602,-1.5565915,-0.92401826,-0.3500835,-0.2721594,-0.81910008,-1.6718712,-2.2210281,-1.9424548,-0.75375092,0.89385873,2.2715693,2.8280227,2.5484295,1.9696819,1.8238024,2.5334535,3.8951507,5.1740875,5.5655942,4.7289286,3.0396085,1.383368,0.6147781,1.0274502,2.178936,3.1821883,3.2701938,2.2650714,0.6536417,-0.7618137,-1.3881716,-1.1858448,-0.61348629,-0.23407508,-0.27397925,-0.45049992,-0.1884232,0.9293595,2.7970445,4.7688398,6.0134902,6.0110474,4.8671536,3.244051,1.9625307,1.5399853,1.9571047,2.7785146,3.5119221,3.9419279,4.2144675,4.6390562,5.3789234,6.2718649,6.920259,6.9865465,6.4754868,5.7873487,5.4844837,5.9175715,6.9645519,8.0700293,8.5771713,8.1482344,7.0040545,5.8218699,5.344461,5.935163,7.3481426,8.8521099,9.6324167,9.2341671,7.7930112,5.9338117,4.4129577,3.7194731,3.856174,4.4024143,4.7943201,4.6459265,3.9334629,2.9630868,2.1717155,1.8937682,2.2228456,3.0217991,4.0421052,5.0609732,5.9564605,6.6987872,7.2955794,7.750865,8.0728207,8.3165522,8.6136312,9.1448269,10.053709,11.346785,12.846115,14.236054,15.190741,15.518081,15.242505,14.582498,13.839072,13.260353,12.955526,12.895677,12.984505,13.144087,13.36162,13.677862,14.139192,14.754659,15.486403,16.270576,17.04285,17.745209,18.314693,18.677526,18.771652,18.594929,18.24486,17.90757,17.781109,17.966522,18.39422,18.843695,19.060596,18.909201,18.465681,17.985607,17.754671,17.908096,18.330631,18.705292,18.690016,18.122578,17.134621,16.107683,15.494122,15.599869,16.441172,17.741251,19.056507,19.961554,20.206173,19.784903,18.907108,17.895554,17.060379,16.594994,16.528027,16.746555,17.080383,17.409456,17.738527,18.191584,18.918335,19.960417,21.161188,22.190115,22.688515,22.46307,21.610712,20.487999,19.529537,19.01646,18.933115,18.998016,18.845417,18.238932,17.183678,15.878799,14.563666,13.379126,12.340684,11.424369,10.672582,10.211055,10.144221,10.407299,10.70925,10.648981,9.9568396,8.7006397,7.2927513,6.2598753,5.9092927,6.1194539,6.4178562,6.3167229,5.6857343,4.8925695,4.5848727,5.2353411,6.754384,8.4556217,9.4359322,9.1468773,7.7841043,6.2188568,5.4876661,6.1517668,7.9357233,9.8826656,10.93111,10.546117,9.0075397,7.1885343,5.9912758,5.818491,6.4119272,7.1241264,7.3978176,7.1083407,6.551734,6.1313,6.0088568,5.9920769,5.7314854,5.05405,4.1523581,3.4612391,3.3024731,3.5738411,3.7476172,3.223834,1.8098102,-0.027129406,-1.3603213,-1.3813562,-0.005202773,1.8976789,2.826766,1.3742119,-3.0631371,-9.9806452,-18.015018,-25.562502,-31.39522,-34.963047,-36.30838,-35.765648,-33.703869,-30.46447,-26.451832,-22.208364,-18.338428,-15.297009,-13.197801,-11.804744,-10.739408,-9.7666683,-8.9489393,-8.5481253,-8.7437124,-9.3829784,-9.9695854,-9.9287615,-8.9800129,-7.3547478,-5.6908894,-4.6573291,-4.5520811,-5.1413841,-5.8431897,-6.1220288,-5.8199472,-5.2003679,-4.6895366,-4.5147567,-4.5075336,-4.2161484,-3.2469544,-1.5885911,0.31495422,1.7991605,2.3637259,1.9494052,0.93045342,-0.15405679,-0.93308377,-1.3757168,-1.7072834,-2.1606328,-2.7613723,-3.3026502,-3.5123355,-3.2714334,-2.7133067,-2.1340239,-1.7924925,-1.7594265,-1.9273652,-2.159631,-2.4420907,-2.898989,-3.6472225,-4.6046944,-5.4248438,-5.6494179,-5.0070124,-3.6568034,-2.1866474,-1.3270035,-1.5375167,-2.724648,-4.2797532,-5.4271722,-5.6723475,-5.0745931,-4.1810575,-3.6739328,-3.9587691,-4.946734,-6.1479387,-6.9933524,-7.170393,-6.7707014,-6.1854439,-5.8438168,-5.9701681,-6.4951658,-7.1405177,-7.5917215,-7.6439357,-7.2551265,-6.5157957,-5.5877304,-4.6534276,-3.8801382,-3.3808796,-3.1705768,-3.1477656,-3.1405303,-3.0176923,-2.8053041,-2.7170694,-3.0449576,-3.95104,-5.289649,-6.5980043,-7.3006105,-7.0287728,-5.8607321,-4.3151965,-3.0786178,-2.6216471,-2.944761,-3.619936,-4.1056924,-4.1292472,-3.8788474,-3.8710997,-4.5758486,-6.0490565,-7.8264689,-9.1620779,-9.4662228,-8.6627169,-7.2343173,-5.9290023,-5.319376,-5.4976053,-6.09026,-6.5611477,-6.5834818,-6.2301488,-5.8687725,-5.8568244,-6.2652588,-6.8281026,-7.1471071,-6.9970679,-6.5080271,-6.0916243,-6.1629114,-6.8537407,-7.9177442,-8.8889112,-9.376482,-9.2861423,-8.8172436,-8.252758,-7.7120838,-7.0636005,-6.0737872,-4.6867146,-3.2160888,-2.2760055,-2.4541266,-3.9208591,-6.2370954,-8.5145311,-9.8616152,-9.8579988,-8.7692499,-7.3668818,-6.4610515,-6.430244,-7.0310001,-7.5937338,-7.4716439,-6.4597759,-4.9302621,-3.6127832,-3.1662028,-3.8036292,-5.1850715,-6.6204014,-7.4443893,-7.3429551,-6.4637341,-5.2846508,-4.3475056,-4.0136042,-4.3525419,-5.1805634,-6.1878133,-7.0732841,-7.6354442,-7.8085113,-7.6570654,-7.3397498,-7.0461206,-6.9175467,-6.9826636,-7.14709,-7.2565775,-7.2054772,-7.0217857,-6.8621364,-6.9054008,-7.2089238,-7.6315875,-7.8945913,-7.7578197,-7.1990314,-6.4643607,-5.9357462,-5.888515,-6.3012047,-6.8593836,-7.168375,-7.0387516,-6.6416259,-6.4059205,-6.7061429,-7.5484319,-8.4869671,-8.8617907,-8.2280941,-6.6966748,-4.9381738,-3.8128016,-3.8406315,-4.8529344,-6.0676432,-6.5642138,-5.8673587,-4.2645755,-2.6438115,-1.9455284,-2.5765944,-4.162313,-5.794322,-6.6091437,-6.3185911,-5.3513842,-4.5282755,-4.5029774,-5.3495727,-6.5659947,-7.471848,-7.7085042,-7.4852543,-7.3994098,-7.9610996,-9.1641579,-10.416101,-10.891733,-10.077995,-8.1384621,-5.8419938,-4.0939002,-3.3784797,-3.4841943,-3.6932275,-3.3048804,-2.1384983,-0.67771918,0.23900066,-0.027982021,-1.4920315,-3.5204391,-5.229125,-6.0252442,-5.9410853,-5.5509839,-5.5435586,-6.2438793,-7.3988724,-8.3512621,-8.4670067,-7.5253868,-5.8267555,-3.9768591,-2.5210297,-1.6803675,-1.3425348,-1.2644401,-1.2990432,-1.4642051,-1.8157223,-2.254087,-2.4563105,-2.030287,-0.80863672,0.93307334,2.5259933,3.2456014,2.7497711,1.3350618,-0.17764848,-0.88743001,-0.32966185,1.2517103,3.0478539,4.1595192,4.1125569,3.1047313,1.848289,1.1263968,1.3492601,2.3753014,3.6762528,4.7036533,5.2028399,5.284646,5.2473798,5.3110843,5.4667935,5.5377831,5.381959,5.0602512,4.828269,4.9500237,5.4750223,6.1561499,6.5867658,6.4724836,5.8464313,5.0669565,4.5870514,4.6490765,5.1185422,5.5793819,5.6311064,5.1823745,4.5301576,4.1566167,4.3699636,5.0272722,5.528069,5.0907941,3.1409998,-0.42477602,-5.2411089,-10.700362,-16.221296,-21.375353,-25.819006,-29.145052,-30.836273,-30.425703,-27.794538,-23.400448,-18.235418,-13.471868,-9.9655914,-7.898798,-6.7793441,-5.799459,-4.3355589,-2.2867897,-0.059620123,1.7637175,2.8365757,3.2651236,3.5007606,3.9997337,4.8937368,5.8978224,6.5137591,6.3864198,5.572506,4.5460272,3.9418836,4.2060137,5.36904,7.0676098,8.7746429,10.077951,10.839926,11.17001,11.268844,11.271596,11.191685,10.97724,10.611606,10.170758,9.7971153,9.6173239,9.6682987,9.8801498,10.117254,10.241142,10.157386,9.8356152,9.3167706,8.7201853,8.239728,8.1013985,8.4704084,9.3402386,10.474478,11.465099,11.908302,11.616701,10.743293,9.7288523,9.0863152,9.1405039,9.8764935,10.986238,12.078514,12.913681,13.51303,14.08039,14.802,15.670196,16.455086,16.842039,16.638346,15.908168,14.949155,14.133703,13.723906,13.773882,14.160343,14.691578,15.204261,15.591055,15.774597,15.690348,15.322117,14.766685,14.250799,14.039214,14.257387,14.743299,15.060998,14.719848,13.496622,11.655824,9.8927584,8.9852638,9.3369188,10.69272,12.227634,12.985864,12.422288,10.717828,8.6692324,7.215498,6.8918443,7.5478907,8.4978018,8.9946175,8.7179289,7.9637995,7.4256334,7.7203879,8.9726086,10.71989,12.187364,12.7425,12.239038,11.048886,9.7925844,8.9664669,8.707305,8.8179989,8.9924612,9.0554848,9.0500536,9.1355639,9.4021597,9.7573805,9.9714851,9.8383179,9.3194437,8.5572386,7.7493587,6.9890594,6.204524,5.2532439,4.1015182,2.9422023,2.1380839,2.0048018,2.5752695,3.5203643,4.3063197,4.5075216,4.0761876,3.3843265,2.9958506,3.3059087,4.2781949,5.45331,6.2264929,6.2173672,5.4945745,4.514997,3.824836,3.7232561,4.1063085,4.5818853,4.7629471,4.5320172,4.0985203,3.8193486,3.9164009,4.291863,4.5692735,4.3305826,3.3866787,1.9015092,0.29508874,-0.99851453,-1.7514629,-2.0025866,-1.9414779,-1.7238163,-1.3637296,-0.77826053,0.064225726,1.0225242,1.7994251,2.1022501,1.8385538,1.2029997,0.58207828,0.33141026,0.57248235,1.1452446,1.7451622,2.1450536,2.3442411,2.5417447,2.9574995,3.6347489,4.3705063,4.8295627,4.7669392,4.2062278,3.4512081,2.9225888,2.9289372,3.5194871,4.5027409,5.5981956,6.6032519,7.4615822,8.2036104,8.8280392,9.2325993,9.2566233,8.8057528,7.9617052,6.9876571,6.2148404,5.8804975,6.0193124,6.4687839,6.969357,7.2837038,7.2657485,6.866065,6.1141744,5.1234369,4.1177998,3.4276199,3.398325,4.2179899,5.7544966,7.528223,8.8865528,9.3174667,8.7271471,7.499382,6.2756276,5.5739503,5.4825187,5.6294079,5.4561739,4.6186852,3.2449355,1.8675896,1.0669484,1.0629115,1.5406191,1.8451576,1.430998,0.26985085,-1.0665063,-1.725858,-1.109468,0.71673119,3.0014982,4.7019253,5.0547814,3.9808555,2.0887275,0.2973175,-0.6748302,-0.64488727,0.047919851,0.84773511,1.35019,1.4959508,1.4969274,1.5897157,1.8132031,1.9656011,1.7540703,1.0145743,-0.15752791,-1.4496911,-2.5060632,-3.1098297,-3.2626128,-3.1347959,-2.948899,-2.8863063,-3.064234,-3.5596938,-4.4203057,-5.6267405,-7.0327411,-8.350791,-9.2337198,-9.4335337,-8.9499159,-8.0685987,-7.2495456,-6.919065,-7.2826881,-8.2624769,-9.5818472,-10.929339,-12.092953,-12.992693,-13.620044,-13.957723,-13.955247,-13.578946,-12.886584,-12.052072,-11.304193,-10.814457,-10.615317,-10.61234,-10.682856,-10.783195,-10.973873,-11.332406,-11.815577,-12.186574,-12.090723,-11.260227,-9.7234974,-7.8669963,-6.2776108,-5.4368916,-5.4510007,-6.0002422,-6.5677547,-6.8299031,-6.9726415,-7.7203364,-10.020948,-14.534555,-21.197975,-29.109755,-36.810638,-42.823555,-46.184799,-46.717037,-44.945732,-41.751316,-37.970032,-34.14682,-30.523394,-27.195732,-24.287697,-22.005796,-20.541882,-19.904318,-19.81233,-19.751255,-19.185513,-17.823841,-15.789838,-13.593663,-11.904299,-11.228074,-11.651654,-12.778483,-13.892941,-14.274571,-13.512235,-11.670377,-9.234355,-6.8710046,-5.1291504,-4.2285094,-4.0330496,-4.2046442,-4.4380331,-4.6396675,-4.9515505,-5.6149282,-6.7636924,-8.2789478,-9.7987719,-10.88343,-11.240861,-10.879251,-10.095445,-9.3062801,-8.8233662,-8.7041178,-8.7623787,-8.7227392,-8.4156437,-7.889863,-7.3761487,-7.1323214,-7.2734847,-7.6956258,-8.1367989,-8.3318501,-8.1618795,-7.7111139,-7.2087455,-6.9046421,-6.9588113,-7.3993649,-8.1480207,-9.0691423,-9.9986277,-10.745857,-11.100499,-10.880276,-10.01882,-8.6441193,-7.0801859,-5.7407331,-4.9543781,-4.8172531,-5.1653404,-5.6900177,-6.1287808,-6.4114342,-6.6695175,-7.1075339,-7.8282962,-8.7348013,-9.5758104,-10.099116,-10.200045,-9.9584808,-9.5430202,-9.0630598,-8.4914436,-7.7267179,-6.7511959,-5.7535243,-5.0934057,-5.0952973,-5.7943311,-6.8204064,-7.5381126,-7.3951883,-6.2779436,-4.6398211,-3.2933991,-2.9655848,-3.8749824,-5.5901976,-7.2608609,-8.0835781,-7.7210817,-6.4289899,-4.8354998,-3.538532,-2.7874374,-2.4393055,-2.1815898,-1.8328241,-1.4942752,-1.4486549,-1.8949586,-2.7307627,-3.5579543,-3.921768,-3.6176171,-2.8436401,-2.0816262,-1.7814392,-2.0659504,-2.6622663,-3.1066012,-3.0768819,-2.6168694,-2.0937932,-1.9229244,-2.2603681,-2.8886123,-3.3800609,-3.4210382,-3.0587609,-2.6847298,-2.7563031,-3.4501603,-4.4988809,-5.339736,-5.4863377,-4.8715076,-3.920001,-3.2885563,-3.4369023,-4.3114824,-5.3522129,-5.8206692,-5.2392249,-3.6649847,-1.6383263,0.13997807,1.1839805,1.4202194,1.117087,0.63816237,0.21101072,-0.14065433,-0.49439123,-0.8757987,-1.1958073,-1.3285258,-1.2544283,-1.1344993,-1.2340298,-1.7371985,-2.5889392,-3.4921811,-4.0790997,-4.1447906,-3.7787673,-3.2966006,-3.0143008,-3.0212324,-3.1105323,-2.9165721,-2.1643164,-0.8583464,0.71709049,2.1845515,3.3189938,4.1923623,5.1337295,6.5475721,8.7176437,11.712813,15.423572,19.665209,24.255615,29.023577,33.779896,38.319019,42.48357,46.248924,49.739941,53.124344,56.423176,59.365501,61.416656,62.008923,60.861237,58.19146,54.669502,51.114494,48.105301,45.73785,43.675266,41.45171,38.829342,35.978184,33.369854,31.466183,30.414171,29.945669,29.536695,28.710255,27.282562,25.407204,23.41761,21.59934,20.050949,18.706396,17.464722,16.301027,15.265868,14.385706,13.56798,12.616858,11.375488,9.8973999,8.503891,7.6492558,7.6507664,8.4501724,9.5735331,10.338854,10.200772,9.0284042,7.1512156,5.1546288,3.5630693,2.609123,2.214932,2.1605039,2.2902486,2.5988603,3.142899,3.8660963,4.49898,4.6428638,4.0084491,2.6514139,1.0257909,-0.21631408,-0.58183044,-0.038077053,0.93548524,1.5926187,1.3277549,0.0088926908,-1.9568709,-3.8566251,-5.0588679,-5.3265262,-4.8847685,-4.2272487,-3.7975614,-3.7419543,-3.8679509,-3.8090005,-3.2760663,-2.2415209,-0.95971197,0.1662357,0.7787413,0.71234465,0.031027894,-1.035259,-2.1992736,-3.2118278,-3.9145021,-4.2528996,-4.2671299,-4.0697494,-3.8106239,-3.6284635,-3.601295,-3.7194562,-3.8997464,-4.036869,-4.0626831,-3.976126,-3.8254759,-3.6588135,-3.482604,-3.2629573,-2.9707887,-2.6348827,-2.3549325,-2.2526505,-2.3868189,-2.6931174,-3.0019541,-3.1373653,-3.0385423,-2.8180604,-2.7023549,-2.876725,-3.3300071,-3.8105536,-3.9457474,-3.4723666,-2.4407499,-1.2509817,-0.4682315,-0.49991369,-1.3184968,-2.4121065,-3.0308018,-2.6271019,-1.2613103,0.26649401,0.67051721,-1.265646,-6.084125,-13.293092,-21.442146,-28.619186,-33.155769,-34.231041,-32.11586,-27.969542,-23.306549,-19.390097,-16.821795,-15.482142,-14.798706,-14.166118,-13.288251,-12.278181,-11.49601,-11.24902,-11.545866,-12.05328,-12.276977,-11.852788,-10.768209,-9.3774366,-8.1984243,-7.612844,-7.6481414,-7.9691157,-8.0771084,-7.5891185,-6.4263711,-4.8073492,-3.0699944,-1.4548905,0.003942593,1.419009,2.8817518,4.3236394,5.5158129,6.209795,6.312561,5.9590259,5.4191065,4.901979,4.4044132,3.726105,2.6544378,1.1883249,-0.37408853,-1.5747478,-2.0906904,-1.9873165,-1.7380975,-1.9646318,-3.0432837,-4.83143,-6.7053585,-7.9057693,-7.9827423,-7.0596032,-5.7476816,-4.7700377,-4.5408487,-4.9701533,-5.6058412,-5.9940743,-5.9950891,-5.8322101,-5.8485355,-6.1586361,-6.4613266,-6.1668067,-4.7657728,-2.1882925,1.104092,4.3719358,7.0373874,9.0168066,10.721044,12.722301,15.314886,18.271551,20.965275,22.776876,23.512709,23.547552,23.592764,24.242054,25.596123,27.212448,28.407019,28.700933,28.11368,27.115211,26.281942,25.898285,25.774473,25.398247,24.310452,22.447315,20.221081,18.29068,17.179575,16.991688,17.400398,17.898882,18.131113,18.083311,18.023922,18.255451,18.862593,19.630165,20.17734,20.203981,19.674435,18.816465,17.945602,17.243029,16.639593,15.878332,14.703759,13.044981,11.072929,9.1040325,7.4252648,6.1588283,5.2447262,4.5315018,3.89448,3.2950542,2.7510684,2.26091,1.7570755,1.1364702,0.34846741,-0.53017622,-1.3019383,-1.7488427,-1.7690665,-1.4603025,-1.089617,-0.96137947,-1.2604421,-1.963618,-2.8689663,-3.7196481,-4.3444257,-4.7334476,-5.0133238,-5.347353,-5.8260241,-6.409627,-6.9478383,-7.2575712,-7.2158384,-6.8257494,-6.2324553,-5.6859212,-5.4618783,-5.7618618,-6.6227865,-7.872839,-9.1641903,-10.086963,-10.3288,-9.8119001,-8.7379341,-7.5104814,-6.5665755,-6.1990032,-6.4567189,-7.1667747,-8.0532398,-8.8783627,-9.5286608,-10.011633,-10.386585,-10.687378,-10.887486,-10.920008,-10.727795,-10.306445,-9.717886,-9.076045,-8.5178823,-8.1679258,-8.0958691,-8.2714767,-8.5393524,-8.6484776,-8.3540649,-7.560463,-6.4233375,-5.3231535,-4.6835923,-4.7125306,-5.2210288,-5.6611919,-5.4046817,-4.1244869,-2.0492542,0.0908783,1.4293517,1.4404057,0.24118158,-1.474408,-2.8362784,-3.2856777,-2.8459294,-2.0180969,-1.3944187,-1.2682506,-1.5088055,-1.76896,-1.8465967,-1.9052304,-2.3656833,-3.5352337,-5.2578444,-6.881465,-7.6225071,-7.1091518,-5.7214942,-4.4503498,-4.3142176,-5.6922097,-8.0221462,-10.097154,-10.803704,-9.8397284,-7.9453902,-6.4848094,-6.6363611,-8.7018986,-11.963778,-15.158278,-17.239645,-17.940582,-17.797071,-17.674803,-18.154991,-19.196722,-20.268045,-20.801668,-20.621611,-20.041506,-19.595533,-19.631058,-20.074894,-20.535183,-20.641155,-20.350197,-19.988966,-20.005264,-20.626471,-21.684502,-22.733915,-23.365662,-23.475708,-23.291206,-23.148912,-23.21134,-23.349161,-23.282551,-22.86585,-22.280952,-21.969152,-22.331532,-23.413086,-24.81204,-25.899504,-26.208082,-25.720146,-24.853317,-24.156155,-23.933264,-24.065229,-24.141615,-23.794127,-22.973373,-21.961475,-21.116796,-20.552525,-20.004122,-19.000809,-17.226566,-14.807459,-12.305811,-10.40838,-9.5149555,-9.507041,-9.850503,-9.9535093,-9.5294199,-8.7239571,-7.9434867,-7.5324459,-7.5395985,-7.7254534,-7.7720084,-7.5099468,-6.9855437,-6.3360925,-5.6065407,-4.6875935,-3.4471641,-1.9496872,-0.55814487,0.21724708,0.06287726,-0.83924025,-1.8049608,-1.9978325,-0.94116253,1.1456925,3.4362829,4.984848,5.3087611,4.6808782,3.9310753,3.8866723,4.8304272,6.3445263,7.6397381,8.1253595,7.8003464,7.169353,6.730896,6.4106598,5.3861995,2.5043406,-2.9165516,-10.404413,-18.252216,-24.171091,-26.356939,-24.377699,-19.376205,-13.477514,-8.7448072,-6.2656312,-5.837388,-6.3454175,-6.5327129,-5.6833959,-3.8650293,-1.687911,0.17263964,1.3549782,1.8893024,2.010731,1.9113593,1.6326751,1.1537966,0.56498706,0.15363348,0.30793172,1.2930709,3.0597644,5.2280145,7.2662997,8.7499142,9.531312,9.7235737,9.5327682,9.0772419,8.3294764,7.2147932,5.7776275,4.2719598,3.0874538,2.5470097,2.7138841,3.3511291,4.0754824,4.6106029,4.9670835,5.4176884,6.2723269,7.5992241,9.0881395,10.170146,10.343116,9.5093575,8.1061954,6.9250312,6.7015452,7.7050204,9.5660686,11.449929,12.484495,12.20707,10.786497,8.9093952,7.4094162,6.8540735,7.3096881,8.3870583,9.5066566,10.211307,10.354326,10.08855,9.7057505,9.4490843,9.407671,9.5261192,9.6833696,9.76682,9.6987133,9.4271383,8.9249563,8.2223768,7.4513841,6.8474674,6.6706166,7.0678144,7.9584894,9.0321674,9.8866558,10.240768,10.093007,9.7177467,9.488884,9.6365509,10.095583,10.55246,10.66843,10.334284,9.7815924,9.4626713,9.7638531,10.7332,12.004272,12.977015,13.152521,12.41786,11.107845,9.8120775,9.054409,9.0435295,9.6340113,10.491529,11.325891,12.02821,12.636666,13.190134,13.610544,13.725115,13.422492,12.821755,12.308319,12.378973,13.377901,15.29528,17.770033,20.304964,22.556007,24.502682,26.385086,28.453438,30.707712,32.814915,34.2705,34.701195,34.106308,32.873447,31.556635,30.56464,29.965225,29.527485,28.959316,28.165018,27.34005,26.838808,26.912182,27.501534,28.234371,28.625788,28.350168,27.405697,26.075516,24.731354,23.626139,22.812721,22.219578,21.794155,21.580194,21.658438,21.999886,22.364223,22.35577,21.635279,20.159704,18.278988,16.59716,15.657999,15.638656,16.242338,16.862129,16.91927,16.170975,14.805997,13.284157,12.036859,11.224906,10.699887,10.174239,9.4691162,8.666049,8.0618706,7.9617853,8.4522457,9.3053846,10.078885,10.350215,9.9422445,9.0068998,7.9225011,7.0706048,6.6233492,6.4589729,6.2458825,5.6420212,4.498302,2.9584141,1.4055033,0.28531051,-0.10363007,0.25267038,1.0871089,1.9929035,2.6282578,2.8736579,2.853143,2.8048058,2.8755307,2.9686899,2.7538731,1.8557466,0.12383832,-2.1835415,-4.4379458,-5.9165263,-6.1811628,-5.3457251,-4.0600882,-3.1946108,-3.386462,-4.701045,-6.6044812,-8.2659616,-9.0159655,-8.696702,-7.7099128,-6.7515779,-6.4074664,-6.8540764,-7.8274264,-8.8462706,-9.5234203,-9.7641296,-9.7478352,-9.7432957,-9.9105024,-10.228367,-10.575877,-10.87324,-11.15008,-11.477075,-11.820418,-11.957373,-11.559775,-10.426046,-8.7116661,-6.9745369,-5.9533815,-6.1755705,-7.625926,-9.6995392,-11.501156,-12.336411,-12.106655,-11.362381,-10.971329,-11.593744,-13.27919,-15.427942,-17.137831,-17.723434,-17.094271,-15.772489,-14.555923,-14.046186,-14.331463,-15.002763,-15.466975,-15.339718,-14.666096,-13.843013,-13.314872,-13.256644,-13.456326,-13.470549,-12.945529,-11.888182,-10.705191,-9.97717,-10.104397,-11.043755,-12.303128,-13.203369,-13.255904,-12.433265,-11.172762,-10.110591,-9.7020788,-9.949831,-10.39822,-10.397916,-9.4886065,-7.6812506,-5.4800286,-3.6331401,-2.7532659,-3.016948,-4.1002069,-5.3700914,-6.2105675,-6.2982712,-5.6900597,-4.7055774,-3.7055864,-2.9109073,-2.3571687,-1.9784118,-1.7292292,-1.644259,-1.7960396,-2.197185,-2.7370074,-3.2148206,-3.4548466,-3.4208555,-3.2436934,-3.1370509,-3.2594149,-3.6205721,-4.0965595,-4.5329838,-4.8477306,-5.0464139,-5.1392813,-5.0397272,-4.5561671,-3.5251224,-2.0125232,-0.42316544,0.6153757,0.58589143,-0.54905957,-2.1989515,-3.3819711,-3.2807229,-1.8235548,0.073143907,0.81193453,-1.1264297,-6.3498678,-14.105221,-22.4841,-29.206263,-32.58791,-32.206596,-28.949369,-24.468769,-20.373795,-17.583099,-16.12817,-15.418385,-14.738505,-13.672188,-12.248918,-10.805923,-9.7125244,-9.1419773,-9.0001888,-9.0055962,-8.8376465,-8.2674665,-7.2286243,-5.8305326,-4.3300328,-3.0653324,-2.3505597,-2.3490591,-2.9773214,-3.9041696,-4.6752763,-4.921464,-4.5460968,-3.7815993,-3.071893,-2.8396873,-3.2693515,-4.2281237,-5.3632941,-6.3059478,-6.8530269,-7.0256848,-6.9911852,-6.9239554,-6.9087262,-6.9407892,-6.9963503,-7.093133,-7.2772942,-7.5426097,-7.7556653,-7.6704922,-7.0552011,-5.8639002,-4.3361382,-2.9367537,-2.1467867,-2.2178555,-3.0369859,-4.1887488,-5.1822371,-5.7085114,-5.7764621,-5.6529527,-5.6562285,-5.9400082,-6.4041963,-6.7805886,-6.8277249,-6.502214,-5.9951787,-5.6141038,-5.5906668,-5.9395037,-6.4560971,-6.8507705,-6.9307585,-6.7156124,-6.4171081,-6.3002567,-6.5136147,-6.991806,-7.4865003,-7.7049775,-7.4748149,-6.8424129,-6.0540109,-5.4341612,-5.2296848,-5.5005684,-6.1088181,-6.8026719,-7.3455563,-7.6213017,-7.6648111,-7.6096101,-7.5869575,-7.6343441,-7.6633434,-7.5034862,-6.9977522,-6.0978251,-4.9078631,-3.6532967,-2.5910554,-1.9073932,-1.6533613,-1.7443267,-2.0142038,-2.2881253,-2.4352436,-2.3842804,-2.113209,-1.6392772,-1.0267967,-0.40417874,0.039429054,0.10489491,-0.32255903,-1.178928,-2.1904924,-2.9489043,-3.0784161,-2.420207,-1.1332327,0.35611051,1.5443827,2.088542,1.9631481,1.4481075,0.9513036,0.76575482,0.90113562,1.0877901,0.95062602,0.24951476,-0.95699787,-2.3223348,-3.3907888,-3.8391998,-3.6403863,-3.0561898,-2.4702981,-2.1643386,-2.1697576,-2.2776508,-2.1923127,-1.7305825,-0.9472996,-0.11628358,0.41639513,0.41806653,-0.11137531,-0.94792819,-1.7656295,-2.297545,-2.4465623,-2.2929559,-2.0071828,-1.7275833,-1.476553,-1.1610794,-0.65230906,0.10696454,1.0339558,1.9218929,2.5379186,2.7520151,2.6239729,2.3929904,2.3655765,2.755034,3.558141,4.5397854,5.3396134,5.6463294,5.3457937,4.5636458,3.5849965,2.7055149,2.1045873,1.8092022,1.7519855,1.8637611,2.1243529,2.5367763,3.0582426,3.5630565,3.8920436,3.9706779,3.9077866,3.9776545,4.4599762,5.4216404,6.5927196,7.4544382,7.5265102,6.6940703,5.3559337,4.2616291,4.0962796,5.0503349,6.6516662,7.9963951,8.2688322,7.2441387,5.4555926,3.9023683,3.4605284,4.3559656,6.0315528,7.4988661,7.9578443,7.2930169,6.1296291,5.4135442,5.7862082,7.1600804,8.7718754,9.6813698,9.39328,8.1974411,7.0027018,6.7656097,7.8757777,9.8880901,11.771803,12.5212,11.750153,9.9110031,8.0180702,7.0597939,7.4602804,8.8984919,10.55851,11.624295,11.708593,10.981087,9.9687233,9.1987705,8.9212389,9.0582714,9.361268,9.6300879,9.8377562,10.098235,10.533897,11.158384,11.857762,12.466042,12.861881,13.011224,12.938172,12.670848,12.225274,11.647621,11.070746,10.71366,10.789425,11.364854,12.271882,13.155473,13.656733,13.629744,13.250107,12.929427,13.072279,13.820472,14.947202,15.973863,16.440866,16.16453,15.321629,14.316044,13.522448,13.076208,12.839016,12.546076,12.019788,11.298189,10.595573,10.134906,9.9797277,9.9866991,9.907959,9.563653,8.9584208,8.2619896,7.6768546,7.297543,7.0674033,6.8607635,6.6209021,6.4409051,6.5176907,7.0066352,7.8823037,8.9109535,9.7617893,10.183999,10.129395,9.7404585,9.2214603,8.6930904,8.1382551,7.4732914,6.6812115,5.8949437,5.3559365,5.2687469,5.6538529,6.307106,6.900207,7.1571112,6.9903727,6.514925,5.9478116,5.4799895,5.2127395,5.1847115,5.4333849,6.0060315,6.8866806,7.8965812,8.677722,8.8285351,8.1454277,6.8169088,5.4077764,4.585712,4.7158165,5.5626345,6.3052297,5.8963375,3.5870442,-0.67056161,-6.1647358,-11.731121,-16.240717,-19.000547,-19.883266,-19.185392,-17.368252,-14.863166,-12.023086,-9.1670237,-6.5995212,-4.5389104,-3.0029974,-1.7751613,-0.53539741,0.88985455,2.3268249,3.2764192,3.1985047,1.9063262,-0.19104417,-2.1948237,-3.1533997,-2.585675,-0.76590025,1.4233906,2.9960163,3.420033,2.8865077,2.130162,1.9284469,2.6062772,3.8582954,4.9842329,5.3624992,4.8428321,3.8098576,2.8993607,2.577235,2.86604,3.3853102,3.6507778,3.4104853,2.7903206,2.1701851,1.9004687,2.0658677,2.4499733,2.7012792,2.564126,2.0117457,1.2095792,0.36781994,-0.38770077,-1.0337114,-1.5690204,-1.931872,-2.0076075,-1.732563,-1.2045451,-0.68770123,-0.47483018,-0.68820632,-1.1673163,-1.5479143,-1.5046668,-1.0021504,-0.37378266,-0.15265964,-0.74643886,-2.1633439,-3.9740102,-5.5436783,-6.3911686,-6.4467468,-6.0486369,-5.6915102,-5.7009687,-6.0477648,-6.4112749,-6.4297829,-5.9557252,-5.1454883,-4.3405433,-3.8434153,-3.7545457,-3.9750495,-4.3481932,-4.8100238,-5.4221139,-6.2612357,-7.2613225,-8.1489582,-8.5475721,-8.1961794,-7.1325727,-5.7035303,-4.3803854,-3.4966013,-3.0834744,-2.9158385,-2.7334034,-2.4783831,-2.3749022,-2.7838972,-3.9246414,-5.6521554,-7.4498391,-8.6585579,-8.8098698,-7.8646998,-6.2207294,-4.4974203,-3.2381718,-2.7024682,-2.8438337,-3.4431686,-4.2790132,-5.2197704,-6.2026963,-7.1545119,-7.9431705,-8.4106379,-8.4612541,-8.1304951,-7.5734682,-6.9761434,-6.453897,-6.0115385,-5.5899606,-5.155601,-4.7554307,-4.4893661,-4.4215531,-4.50705,-4.6049266,-4.5833111,-4.4439635,-4.3652902,-4.6108837,-5.3467216,-6.4861755,-7.6791272,-8.4745255,-8.5694122,-7.9914837,-7.0952692,-6.3665304,-6.1516247,-6.4770331,-7.0665836,-7.5376906,-7.6463456,-7.4259987,-7.1412315,-7.1000352,-7.4561062,-8.1293488,-8.885602,-9.5080328,-9.9361362,-10.278852,-10.700196,-11.2641,-11.850303,-12.201779,-12.074232,-11.391739,-10.311072,-9.1578798,-8.2768164,-7.8842707,-8.0006714,-8.4838791,-9.1258087,-9.7474194,-10.243796,-10.572254,-10.712531,-10.63765,-10.317288,-9.7486658,-8.9913692,-8.1809444,-7.5074291,-7.1611228,-7.2616029,-7.7954612,-8.5910149,-9.3513708,-9.7471914,-9.5413742,-8.6931934,-7.3873696,-5.9634042,-4.7714796,-4.0253973,-3.729708,-3.7182806,-3.7755806,-3.761838,-3.6637559,-3.5457571,-3.4481115,-3.3168886,-3.0271981,-2.4890821,-1.7560405,-1.0424317,-0.61402822,-0.60955507,-0.91376269,-1.1845329,-1.0414344,-0.31118068,0.82613963,1.8959767,2.3738108,1.9749997,0.8148436,-0.65876263,-1.9163851,-2.624723,-2.7830124,-2.6478791,-2.5159495,-2.5211515,-2.5819747,-2.5210776,-2.2554214,-1.9061127,-1.7365835,-1.9532874,-2.5069146,-3.041584,-3.0469351,-2.135313,-0.28137031,2.120136,4.4150486,5.9790158,6.4786892,5.9768929,4.851203,3.5954916,2.6188982,2.1307378,2.1342375,2.4947939,3.0302544,3.5870869,4.0903578,4.5644956,5.116735,5.8748655,6.8913159,8.0585518,9.0978518,9.6578321,9.4943247,8.6372604,7.4340439,6.4161906,6.0411744,6.448669,7.3775725,8.3028774,8.719389,8.4065552,7.5185513,6.4531593,5.5920892,5.0826745,4.7952557,4.467474,3.9211252,3.1949239,2.5048251,2.0714846,1.9501753,1.9928534,1.9705832,1.7613357,1.4553723,1.2888048,1.4457676,1.8759477,2.2757175,2.2702615,1.6856759,0.7209776,-0.11733044,-0.30002522,0.39310294,1.7111216,3.0543609,3.8121276,3.7035601,2.9054306,1.8912927,1.0974042,0.6437819,0.29634207,-0.31181413,-1.3608203,-2.6538813,-3.694689,-3.9863381,-3.353945,-2.076483,-0.74155813,0.08027523,0.13167186,-0.4445242,-1.2601415,-1.9519745,-2.3789306,-2.6281207,-2.8575003,-3.1154404,-3.2795823,-3.1540067,-2.6377492,-1.8244624,-0.95115155,-0.2355324,0.26794171,0.67572296,1.135767,1.6506273,2.0116994,1.9158736,1.1957988,-0.0032977902,-1.2439909,-2.0225728,-2.0552638,-1.4232709,-0.46608707,0.50561595,1.4618882,2.6593277,4.3547134,6.4012265,8.0242834,7.9999313,5.2174397,-0.65329993,-8.7792463,-17.331221,-24.168457,-27.713583,-27.575548,-24.611784,-20.424818,-16.583311,-13.976856,-12.602298,-11.818663,-10.858882,-9.2865419,-7.1713657,-4.9519634,-3.1306577,-2.005085,-1.5721873,-1.6085784,-1.8292361,-2.0104234,-2.0230572,-1.8021995,-1.3172531,-0.58532125,0.28607169,1.0818204,1.5346421,1.4480127,0.82403654,-0.086849853,-0.8621434,-1.0865563,-0.54729378,0.65791136,2.1612713,3.4969563,4.3178368,4.5466437,4.3870296,4.1946559,4.2812648,4.7567658,5.4892211,6.195384,6.6024761,6.585907,6.2071323,5.6393838,5.0382705,4.4467902,3.7989099,3.0170507,2.1308606,1.3231591,0.85316205,0.89216965,1.3782191,2.0014815,2.359165,2.2068565,1.6538478,1.1616539,1.3123254,2.4578481,4.4536319,6.6523342,8.1933327,8.4460745,7.3603592,5.5141306,3.816293,3.0230968,3.3411343,4.3446612,5.2533126,5.404922,4.6448174,3.4057417,2.4395356,2.3681474,3.3228292,4.8781605,6.3048096,6.9770536,6.691318,5.7229886,4.6169868,3.8640966,3.6643431,3.9008327,4.3022041,4.6584101,4.9412079,5.2660847,5.748899,6.37711,6.9915323,7.3851104,7.4388266,7.192256,6.7996597,6.4084897,6.0523629,5.636528,5.0244665,4.1615376,3.1478906,2.2119703,1.6061954,1.4952843,1.9026301,2.7301686,3.8148646,4.970686,5.9967232,6.678277,6.8253164,6.3612351,5.4170413,4.3510084,3.6390896,3.6611977,4.4906254,5.8172302,7.0713706,7.6982517,7.4342341,6.4262042,5.1242528,4.0140414,3.3512549,3.0552211,2.8152754,2.3301508,1.5228615,0.59904283,-0.076793104,-0.19779061,0.31426898,1.279562,2.3710623,3.2808266,3.8397758,4.0393715,3.9766066,3.7845061,3.5955853,3.5373304,3.7234147,4.2129726,4.9541597,5.7649636,6.3954377,6.65833,6.551352,6.2776494,6.1263862,6.272409,6.6252646,6.8450246,6.5421958,5.5519385,4.1059389,2.7721179,2.1720653,2.6317401,3.9760644,5.6003809,6.7863855,7.0802083,6.5124254,5.5377097,4.743176,4.5096836,4.8266902,5.3539815,5.6675162,5.5228419,4.978723,4.3286757,3.911401,3.9312572,4.3866439,5.1144342,5.8838134,6.464448,6.6465011,6.250896,5.1807766,3.5162945,1.5858785,-0.077015221,-0.9274984,-0.68160444,0.48763236,1.9742304,3.0108125,3.0591855,2.0991335,0.63636559,-0.58841193,-1.0240396,-0.61443937,0.1977476,0.76595706,0.64398044,-0.15374473,-1.1916275,-1.9121121,-1.98974,-1.5083131,-0.85576004,-0.42305556,-0.32191613,-0.3157346,-0.0069400137,0.85352272,2.1512537,3.4379799,4.1880403,4.1114898,3.3187616,2.2351639,1.3310283,0.84987026,0.70645267,0.60246992,0.26064956,-0.39033005,-1.1957067,-1.9078696,-2.3550456,-2.5170822,-2.467031,-2.2496598,-1.8174255,-1.0918065,-0.10508863,0.90509993,1.5578682,1.5429181,0.85269362,-0.14294609,-0.86785364,-0.87747443,-0.15291652,0.85559976,1.4917148,1.3138034,0.4049578,-0.64249605,-1.0799118,-0.48083308,0.96118736,2.5185378,3.360764,3.067807,1.9010582,0.65512091,0.17618412,0.84432358,2.3404338,3.8394847,4.5052299,3.9777319,2.5583825,0.99403679,0.012736803,-0.091999777,0.4209758,0.96874541,1.0484279,0.54941785,-0.21490733,-0.75112385,-0.72416359,-0.1624065,0.59310019,1.140185,1.2837158,1.1389399,1.0126543,1.1601837,1.59589,2.0883405,2.3361797,2.1930411,1.7783135,1.3938987,1.3059818,1.5471529,1.8817633,1.9644388,1.5866801,0.84230089,0.094261527,-0.24137227,0.046047974,0.832017,1.742901,2.40083,2.6642952,2.7038436,2.8631551,3.4002869,4.2854052,5.1940207,5.7035565,5.5634289,4.857872,3.9512112,3.2506604,2.9443035,2.8885896,2.71908,2.1076596,0.99161565,-0.37919113,-1.6047198,-2.3903534,-2.7165046,-2.8063993,-2.9218597,-3.1429384,-3.3021867,-3.133445,-2.5334191,-1.7374198,-1.2545149,-1.5709052,-2.8046477,-4.5546689,-6.0781975,-6.7152653,-6.298429,-5.2710414,-4.4130311,-4.3348536,-5.0738721,-6.0855145,-6.6730952,-6.5966444,-6.444489,-7.4617386,-10.858914,-16.973726,-24.802309,-32.243431,-36.996017,-37.654522,-34.40274,-28.913244,-23.501612,-20.001785,-18.973083,-19.639347,-20.528748,-20.392536,-18.860943,-16.49975,-14.31683,-13.087319,-12.930228,-13.360487,-13.713921,-13.615931,-13.174586,-12.798959,-12.811182,-13.153365,-13.40625,-13.104333,-12.117351,-10.817667,-9.8979206,-9.9421043,-11.024076,-12.598188,-13.765083,-13.761658,-12.386423,-10.11292,-7.831893,-6.3776379,-6.1070833,-6.7535653,-7.6111503,-7.9246407,-7.2660613,-5.7107811,-3.7504621,-2.0179527,-0.97909504,-0.73987114,-1.0431497,-1.4340237,-1.5007071,-1.0748336,-0.30174741,0.44638735,0.77039146,0.45932865,-0.38601232,-1.3872823,-2.0679941,-2.0885301,-1.4132674,-0.319915,0.75238216,1.4283286,1.5665764,1.2822648,0.822272,0.38369319,-0.0033637048,-0.45683911,-1.1104609,-1.9679997,-2.8509135,-3.4802959,-3.6404467,-3.3149109,-2.7036273,-2.1086123,-1.760492,-1.6930526,-1.7375954,-1.6316233,-1.1704545,-0.31638697,0.78165495,1.8484817,2.5792816,2.7320375,2.1990998,1.0556804,-0.4258759,-1.8235509,-2.6955638,-2.768877,-2.1026065,-1.1173785,-0.42927673,-0.53816092,-1.5296097,-2.9777265,-4.141973,-4.3774261,-3.5285628,-2.0583251,-0.80575556,-0.4925344,-1.2693334,-2.5897923,-3.5110548,-3.255043,-1.6917018,0.55924535,2.4810457,3.256238,2.7391963,1.5122912,0.49490738,0.35720462,1.1121697,2.1413813,2.6283853,2.1117947,0.79700989,-0.57259333,-1.1955719,-0.7267698,0.50826627,1.734136,2.2328687,1.8066198,0.89967936,0.30903906,0.67732161,2.0942559,4.0516186,5.7624331,6.6251993,6.5364227,5.8717957,5.1814523,4.8244338,4.7864075,4.7803426,4.5284495,4.0055118,3.4652398,3.237215,3.4516041,3.9027929,4.1645336,3.8883984,3.0816381,2.1652832,1.7571752,2.3096652,3.8325188,5.8787723,7.8008275,9.1097984,9.7095509,9.8669243,9.9585848,10.180943,10.425023,10.395555,9.8789606,8.9590721,8.0153236,7.4910617,7.5848832,8.0810671,8.4505949,8.1759682,7.0989437,5.5642252,4.2542796,3.8038783,4.4239831,5.7625923,7.0870953,7.6790533,7.2094741,5.8832011,4.2865329,3.0471487,2.5125773,2.6203475,3.0024834,3.2283266,3.0283382,2.3838856,1.4716614,0.53949821,-0.19263984,-0.56476301,-0.47046471,0.13108836,1.1616211,2.3697703,3.352993,3.6983404,3.1979387,2.0153835,0.67435664,-0.17004178,-0.079827607,0.89063841,2.1693048,2.935137,2.5505764,0.91899395,-1.4410536,-3.6544042,-4.9369521,-4.9782095,-4.0462837,-2.7709928,-1.7518501,-1.2332608,-1.0336905,-0.74738657,-0.066684373,0.99306279,2.1069093,2.868937,3.0710254,2.8391821,2.5362859,2.4999249,2.7953172,3.1530735,3.1386578,2.4474182,1.1359165,-0.36020032,-1.4378552,-1.6428744,-0.90669382,0.42660257,1.7852541,2.6507485,2.7793989,2.2629349,1.42846,0.66036218,0.24486977,0.29589677,0.76026762,1.4654498,2.1777732,2.6639297,2.7605546,2.4418666,1.8497633,1.2469352,0.88949782,0.87442493,1.0553248,1.0988727,0.67434263,-0.32381225,-1.6603765,-2.841258,-3.3656745,-3.0078688,-1.9557277,-0.7119177,0.19164644,0.49501371,0.34076473,0.15187386,0.33452407,0.99633312,1.8621838,2.4441676,2.3591101,1.5920725,0.53758752,-0.20925757,-0.1841649,0.69343555,2.0924463,3.4718294,4.3788266,4.6630564,4.4919171,4.1834831,3.9815855,3.9186347,3.8398275,3.5522377,2.9872801,2.269007,1.6525298,1.3830768,1.5705152,2.1531613,2.9602053,3.8202605,4.6433363,5.4313173,6.2235508,7.023766,7.7600265,8.3030462,8.5304632,8.3988323,7.9825664,7.4570365,7.0301661,6.851191,6.9382505,7.1629076,7.3084574,7.1841288,6.7430506,6.1376572,5.6680198,5.6328754,6.1546202,7.0791001,8.0225611,8.5582237,8.4474182,7.7808094,6.9358859,6.3607202,6.2997718,6.618165,6.8265395,6.2914767,4.510047,1.299775,-3.1775801,-8.5276747,-14.261897,-19.864084,-24.774277,-28.371237,-30.056759,-29.468225,-26.722525,-22.518532,-17.968864,-14.184744,-11.807693,-10.74978,-10.308515,-9.6086111,-8.1205482,-5.9492326,-3.7208714,-2.1448488,-1.5329213,-1.5860143,-1.5867165,-0.87190658,0.72466075,2.752944,4.433918,5.1695333,4.9416542,4.3334394,4.1501861,4.8786063,6.3344383,7.7340817,8.1593189,7.1341982,4.9589305,2.5923977,1.149047,1.3055533,2.9586504,5.3164697,7.3471689,8.31042,8.0741339,7.0698767,5.96173,5.2553787,5.0753579,5.2047606,5.3120012,5.190639,4.8620358,4.5038848,4.2863541,4.2446356,4.2721319,4.2233882,4.0405445,3.8085873,3.7020295,3.8627203,4.2931409,4.8349676,5.2449775,5.3203139,5.0004568,4.3937502,3.7233825,3.2295475,3.079093,3.31932,3.8843956,4.6387782,5.4325337,6.1468401,6.7178965,7.1373649,7.4353709,7.6569195,7.8434296,8.025876,8.2268276,8.4606762,8.7225389,8.9678574,9.0998096,8.9861364,8.5128527,7.654253,6.5164504,5.3157988,4.2887788,3.5772974,3.1592853,2.8755715,2.5450249,2.0980279,1.6374515,1.3777922,1.4944787,1.9827461,2.6283839,3.1222804,3.2504463,3.0309687,2.696434,2.523432,2.6216342,2.8343315,2.8348844,2.3687904,1.4795041,0.55023861,0.10675938,0.48859245,1.598152,2.9041355,3.7200336,3.5991707,2.6035445,1.2753453,0.32475457,0.22630377,0.97097176,2.1164033,3.0831699,3.4913239,3.3194501,2.8032064,2.1754293,1.457243,0.46375924,-0.97659814,-2.7581615,-4.4072685,-5.2736239,-4.9144063,-3.4303744,-1.5158378,-0.14981644,-0.081923351,-1.4085454,-3.4972394,-5.3179784,-5.9997087,-5.2964211,-3.700649,-2.1492879,-1.5011331,-2.0877395,-3.5820227,-5.2343545,-6.3149719,-6.4982224,-5.9808154,-5.2978702,-4.9773116,-5.250937,-5.9818711,-6.8204088,-7.4599671,-7.8172398,-8.0276051,-8.2788572,-8.61479,-8.856885,-8.7080307,-7.9747167,-6.7563663,-5.4625545,-4.6244168,-4.6009364,-5.3569617,-6.456737,-7.2905617,-7.4093108,-6.7713132,-5.7546635,-4.9278789,-4.7172642,-5.1698976,-5.9489837,-6.552959,-6.6135831,-6.0871258,-5.2305136,-4.3977032,-3.8054543,-3.4281857,-3.0847242,-2.6433394,-2.188868,-2.022795,-2.4846966,-3.7106075,-5.4932966,-7.3470683,-8.7468119,-9.3968267,-9.3648272,-9.0029449,-8.7118797,-8.6986752,-8.8743782,-8.9427643,-8.6116819,-7.790648,-6.6602483,-5.5864167,-4.9442387,-4.9542675,-5.6060872,-6.6802516,-7.8296657,-8.6733027,-8.8799658,-8.2447481,-6.7595177,-4.6547942,-2.3723969,-0.44503114,0.68990153,0.86183178,0.23147386,-0.79608923,-1.7693998,-2.3919389,-2.6160328,-2.5856481,-2.4794614,-2.3656106,-2.1643651,-1.7355196,-1.019034,-0.12130905,0.71998894,1.2721163,1.4510707,1.3729824,1.2762412,1.366423,1.6881744,2.1084502,2.4183671,2.4806244,2.320847,2.102252,2.0040498,2.0886455,2.2488658,2.271678,1.9786419,1.3547845,0.58667088,-0.014006496,-0.15919088,0.27237684,1.1671532,2.2119973,3.0136881,3.2527602,2.8136406,1.8430316,0.70986772,-0.12903331,-0.31637862,0.23937647,1.3014289,2.3946226,3.0249934,2.9286149,2.2149453,1.3113801,0.72192734,0.72723055,1.2022096,1.6713697,1.5841351,0.65447462,-0.94050545,-2.6309958,-3.7598302,-3.9421873,-3.2628798,-2.1949039,-1.2974206,-0.88756287,-0.89025211,-0.94829619,-0.7041229,-0.058149103,0.76373851,1.363026,1.4205776,0.86766559,-0.13314165,-1.3607135,-2.7116714,-4.2331929,-5.9824324,-7.8280244,-9.3715944,-10.093345,-9.6609268,-8.2012672,-6.3278155,-4.8593669,-4.3732619,-4.8649845,-5.7419,-6.1776543,-5.6208873,-4.1411958,-2.3871768,-1.1747994,-0.96595263,-1.5782341,-2.3286169,-2.5370085,-2.0749578,-1.5960685,-2.2660637,-5.1152196,-10.377438,-17.208338,-23.96771,-28.93148,-31.053999,-30.376438,-27.881495,-24.905397,-22.452633,-20.786825,-19.487211,-17.882652,-15.569359,-12.69857,-9.8843899,-7.8209896,-6.8658924,-6.8475981,-7.2014961,-7.3299975,-6.95086,-6.2175212,-5.5487785,-5.2912335,-5.4413962,-5.6117983,-5.267612,-4.0859723,-2.2094283,-0.2262751,1.123318,1.3488225,0.48455337,-0.92163938,-2.0982809,-2.450458,-1.8450408,-0.6322723,0.58664012,1.2946203,1.3035563,0.79016399,0.13932537,-0.28211573,-0.28174186,0.13867891,0.86577052,1.7671463,2.7220757,3.5908792,4.1871099,4.3173385,3.8913476,3.0294447,2.0689464,1.4264621,1.3747677,1.8697451,2.5518539,2.9446738,2.7427173,2.0110054,1.1634871,0.72355735,1.011475,1.9546781,3.1411579,4.0795398,4.4960055,4.4761434,4.3652229,4.5019689,4.9702697,5.5367208,5.8123159,5.5233903,4.7050943,3.6881573,2.894402,2.586735,2.7445779,3.1404626,3.5471792,3.9132633,4.3734298,5.0888939,6.0464292,6.9844208,7.525528,7.4386425,6.8413525,6.1748581,5.9323568,6.3018336,6.968123,7.2383518,6.4512572,4.4340148,1.7137419,-0.67752862,-1.7208692,-0.96181238,1.2285937,3.8426437,5.7703338,6.3732371,5.7751412,4.7212553,4.1124148,4.4990568,5.8197179,7.5026913,8.830142,9.3273344,8.9588108,8.0581427,7.0841169,6.3786321,6.0617442,6.0827866,6.3423591,6.7762599,7.3513894,8.0089293,8.6323471,9.0880775,9.3144541,9.3818378,9.459157,9.6925507,10.076829,10.419809,10.443032,9.9663858,9.057085,8.036315,7.3254156,7.2194338,7.7265139,8.5714264,9.3565159,9.7747374,9.7426462,9.3827915,8.8893986,8.3861771,7.8790278,7.3275642,6.7656527,6.3618546,6.3540449,6.8888011,7.875628,8.9699936,9.7201824,9.802866,9.2055178,8.2383108,7.3608036,6.9246073,6.9867134,7.3046622,7.5114608,7.3574996,6.8678951,6.3199792,6.0595698,6.2744317,6.8673387,7.5075827,7.8294525,7.6579452,7.1266189,6.6171551,6.5530624,7.1617246,8.3343134,9.6579609,10.602241,10.763691,10.046983,8.6983356,7.1830888,5.9745603,5.3591857,5.3474131,5.721962,6.185143,6.5201988,6.6808238,6.7675409,6.9152308,7.167017,7.4166298,7.4596691,7.1262708,6.4140735,5.5340266,4.8297086,4.6062894,4.9631877,5.7281609,6.5351968,7.0059185,6.9339137,6.3703928,5.568634,4.8274689,4.3300519,4.0700846,3.8984742,3.6484962,3.2538438,2.786881,2.4014223,2.2265151,2.2844861,2.4840424,2.6856496,2.7894237,2.7851074,2.7338591,2.6998332,2.6827557,2.6005266,2.3364949,1.8234563,1.1117548,0.37649885,-0.14767948,-0.27629071,0.023914961,0.59457403,1.1331371,1.3164785,0.95268607,0.093163304,-0.95468718,-1.7369815,-1.8518715,-1.153424,0.14069477,1.5067096,2.3308611,2.1932735,1.0814092,-0.58200634,-2.123451,-2.9312363,-2.7406497,-1.7460842,-0.48513499,0.43962443,0.65170175,0.15531798,-0.71448725,-1.5013021,-1.8716022,-1.7641482,-1.380637,-1.0454386,-1.0266654,-1.415799,-2.1162074,-2.9258621,-3.655194,-4.2155271,-4.6407804,-5.0433693,-5.5340242,-6.1457739,-6.7960558,-7.3044286,-7.4613366,-7.1214085,-6.2799668,-5.0931001,-3.8246889,-2.7401993,-1.9987454,-1.5995351,-1.410679,-1.2604367,-1.034524,-0.72201926,-0.38930875,-0.11068615,0.089126095,0.24022806,0.38509005,0.53191632,0.64904094,0.70731699,0.73036629,0.79750282,0.97911644,1.2459657,1.4325109,1.3108984,0.75355381,-0.11842597,-0.92093104,-1.1742733,-0.57694721,0.77944553,2.405134,3.6458297,4.0284953,3.5096812,2.4701006,1.4603481,0.86568856,0.7096495,0.71730608,0.57578838,0.19091901,-0.25417545,-0.48139584,-0.3963511,-0.23398319,-0.43027076,-1.2845962,-2.6529305,-3.9209585,-4.3270121,-3.4518144,-1.5461346,0.5552845,1.9186792,2.0984938,1.4302596,0.79973513,0.99775618,2.0614779,3.0459378,2.4220586,-1.0923305,-7.7449012,-16.472591,-25.306278,-32.225693,-35.983135,-36.464336,-34.459064,-31.067966,-27.149864,-23.118486,-19.11731,-15.339294,-12.190565,-10.153615,-9.4585342,-9.8317261,-10.545539,-10.776761,-10.054892,-8.5065479,-6.7333751,-5.4055848,-4.840817,-4.8404093,-4.8744664,-4.4713197,-3.5380981,-2.400573,-1.552574,-1.3040205,-1.576087,-1.9776263,-2.0953405,-1.7843707,-1.2547747,-0.90050203,-1.000784,-1.5105258,-2.0892606,-2.3479877,-2.1401942,-1.6920016,-1.4757437,-1.904338,-3.0437219,-4.5297313,-5.7453928,-6.1524916,-5.5811448,-4.3139305,-2.9286387,-2.0009935,-1.8351128,-2.3547599,-3.1873233,-3.8712168,-4.0710721,-3.7055666,-2.9523206,-2.1519458,-1.6630217,-1.7211496,-2.3434339,-3.3067689,-4.21385,-4.6370096,-4.296782,-3.2037866,-1.6916274,-0.30747283,0.4061608,0.14418368,-1.0247372,-2.6875138,-4.2692065,-5.2793884,-5.50316,-5.0512919,-4.2602286,-3.5074353,-3.0411808,-2.9021878,-2.9566562,-3.0018246,-2.8781676,-2.5347481,-2.0312765,-1.4958912,-1.0719891,-0.8786369,-0.98924351,-1.4193702,-2.1147318,-2.9420025,-3.6957581,-4.1350775,-4.0501032,-3.3398244,-2.0689089,-0.47292256,1.1007844,2.3020747,2.8982463,2.8573949,2.3577116,1.7140306,1.2478867,1.153937,1.4204625,1.8408009,2.1130087,1.9844182,1.3754514,0.42529956,-0.56192178,-1.2453506,-1.3905258,-0.96337909,-0.13698722,0.78468126,1.4855416,1.7455736,1.4991436,0.83326817,-0.058498546,-0.94035119,-1.5964684,-1.8823926,-1.7627972,-1.329041,-0.78406632,-0.38487139,-0.35044676,-0.76738328,-1.5401402,-2.4215121,-3.1216598,-3.4478929,-3.4019008,-3.1758578,-3.0421071,-3.1940534,-3.6303442,-4.1549416,-4.4992428,-4.4965534,-4.2014623,-3.8739848,-3.8287611,-4.2356186,-4.9953184,-5.7755814,-6.1971951,-6.0646353,-5.5005155,-4.8940396,-4.6832681,-5.093905,-5.9894028,-6.9260545,-7.387351,-7.0655432,-6.0299253,-4.6879258,-3.5662987,-3.0419405,-3.1745398,-3.7257206,-4.3358636,-4.7409997,-4.8998876,-4.9678574,-5.1528206,-5.5566721,-6.1032171,-6.5888824,-6.8116298,-6.6885719,-6.2894058,-5.7738895,-5.2843108,-4.8674145,-4.4735184,-4.0253878,-3.5042698,-2.993155,-2.6487632,-2.6204212,-2.9651325,-3.607022,-4.3607206,-5.0030231,-5.3553357,-5.3401461,-4.992053,-4.4257903,-3.7793102,-3.1564071,-2.5913589,-2.0497603,-1.4660293,-0.80147964,-0.093555912,0.53450584,0.91807616,0.93494421,0.58698267,0.031333327,-0.46547538,-0.63592905,-0.33078101,0.41226709,1.3862445,2.3083582,2.9386594,3.1642864,3.0145977,2.6148102,2.1171896,1.6520267,1.3166653,1.1897787,1.3416269,1.8195741,2.6129134,3.6229091,4.6669331,5.5276847,6.0320349,6.1251917,5.9052444,5.5992661,5.4858823,5.7905636,6.5916457,7.7753644,9.0643129,10.118074,10.67193,10.654517,10.223666,9.6919355,9.3691959,9.4011612,9.6954041,9.9847116,9.9983253,9.6415348,9.0702105,8.6060104,8.537775,8.9329824,9.5842352,10.133881,10.303296,10.080077,9.7374754,9.6672316,10.129932,11.084239,12.206425,13.087076,13.475311,13.412296,13.173546,13.069532,13.245774,13.614485,13.949508,14.059018,13.901617,13.564651,13.136823,12.593193,11.802299,10.666071,9.2876444,8.020505,7.3240237,7.4903779,8.4165277,9.5885706,10.318991,10.111584,8.9370813,7.251019,5.7444115,4.9828138,5.150115,6.0333557,7.222425,8.3670692,9.3191586,10.091782,10.706794,11.07594,11.019094,10.404132,9.2912121,7.9570565,6.7665911,5.9778652,5.6197405,5.5285363,5.5100179,5.4988379,5.5918307,5.9323354,6.5429158,7.2494059,7.7714877,7.9223008,7.7635989,7.5821671,7.6813321,8.1275091,8.6446295,8.7602825,8.1308365,6.8315897,5.3974347,4.5501471,4.7542949,5.8667893,7.099978,7.3327456,5.5992484,1.492295,-4.709549,-12.204596,-19.974714,-27.050705,-32.638161,-36.138733,-37.172516,-35.667824,-31.97559,-26.886765,-21.456728,-16.664343,-13.065092,-10.635302,-8.9063568,-7.3134584,-5.5490613,-3.7111628,-2.1732702,-1.2837578,-1.1055237,-1.3648661,-1.6265105,-1.5584033,-1.1007062,-0.4357444,0.1967185,0.68991226,1.1276834,1.6803371,2.4329529,3.2852581,4.000618,4.36446,4.3307152,4.047883,3.7503195,3.6006598,3.5994298,3.6186965,3.5177236,3.2402894,2.8196745,2.3047383,1.6935717,0.95636529,0.14537261,-0.50503653,-0.60784334,0.18052064,1.8961035,4.1210113,6.0985551,7.0942187,6.8092332,5.5862465,4.25037,3.6507466,4.1661878,5.4782262,6.760056,7.1735258,6.3728347,4.7088642,3.016659,2.1277115,2.4119651,3.6201446,5.0953045,6.1903963,6.6165814,6.519156,6.2732387,6.1724138,6.2318373,6.2230139,5.885056,5.1410804,4.1641846,3.2616308,2.6807871,2.4867077,2.5921555,2.8946257,3.3915715,4.1669335,5.2516589,6.471879,7.4242125,7.6337466,6.8154359,5.0720935,2.8890355,0.9122532,-0.36218634,-0.80233252,-0.63801384,-0.26358911,0.012138594,0.10795827,0.13321616,0.23039523,0.43230432,0.64091808,0.73008686,0.6743381,0.58737487,0.62873483,0.84782827,1.0938672,1.0798223,0.57400781,-0.41135979,-1.5787207,-2.5007124,-2.8827684,-2.7570832,-2.4664226,-2.4338171,-2.8636181,-3.5767121,-4.1027713,-3.9841282,-3.0996082,-1.7930099,-0.70926785,-0.42787316,-1.1162425,-2.4183009,-3.6490765,-4.1776252,-3.7678881,-2.679934,-1.4870834,-0.73751891,-0.67256051,-1.1610805,-1.8617418,-2.482075,-2.9555476,-3.4290166,-4.0882092,-4.9565907,-5.8142586,-6.2972631,-6.1154146,-5.2493129,-4.0018425,-2.8707643,-2.3156769,-2.5483758,-3.4523718,-4.6578836,-5.7161899,-6.2793589,-6.2096305,-5.5943089,-4.6881537,-3.8226933,-3.3120086,-3.3688459,-4.0411243,-5.18718,-6.5122399,-7.6719141,-8.4127541,-8.6864033,-8.6712503,-8.6753063,-8.9594364,-9.572566,-10.294101,-10.725585,-10.491021,-9.4417057,-7.7556677,-5.8783746,-4.3375821,-3.5301576,-3.5863786,-4.3663745,-5.5682049,-6.8727126,-8.0456696,-8.9589157,-9.5480137,-9.7581692,-9.5254192,-8.8051176,-7.6224751,-6.1045284,-4.4672456,-2.961056,-1.8018975,-1.1179993,-0.9280892,-1.1481472,-1.6155757,-2.1237497,-2.467582,-2.499903,-2.1864746,-1.6337848,-1.0634702,-0.72807735,-0.79656923,-1.2638952,-1.936603,-2.5118296,-2.7167847,-2.4395344,-1.7827531,-1.0119969,-0.42681673,-0.2237054,-0.42099363,-0.87781417,-1.3857238,-1.7743837,-1.9721659,-1.9963818,-1.8932698,-1.6772305,-1.3149456,-0.7674939,-0.062394045,0.65659887,1.147302,1.1635487,0.5893296,-0.45638666,-1.6110318,-2.3840666,-2.3630321,-1.4209982,0.1818748,1.8737216,3.0129149,3.1956494,2.4775205,1.3823868,0.67078584,0.96763456,2.4357822,4.6723642,6.894587,8.3247814,8.5707159,7.7953115,6.5877619,5.6186943,5.2844477,5.5438976,6.0268426,6.3236594,6.259594,5.9801059,5.8083167,5.9899201,