Bandpass,0,0.47541,51.036102,-149.63635,-230.83585,-178.83716,-41.951221,89.028885,137.59973,90.616737,2.3462207,-48.951698,-19.117588,71.641373,156.94337,175.38495,115.81858,23.903614,-33.216026,-16.529013,57.774483,132.58873,153.34464,107.674,32.51474,-15.109627,-0.72688258,63.24612,128.46059,147.39343,107.98789,40.995068,-4.179328,3.8223939,56.333103,112.77332,131.62781,100.72508,44.803867,5.8653188,11.826571,56.818386,106.94719,126.18008,102.60034,55.904594,21.54162,24.115284,59.921928,100.93481,116.36091,95.264252,53.718147,21.969387,21.863619,51.408226,87.378227,103.22838,88.55407,55.857086,30.289396,30.659744,55.971642,87.058319,101.41376,89.769974,62.223839,39.916241,39.014797,59.077618,84.128433,95.096313,84.006958,59.441212,39.617622,38.671284,56.450607,79.154427,89.906883,81.148933,59.742104,41.382179,38.85709,52.966335,72.582863,83.379242,78.441467,62.925301,49.622303,49.097946,61.884399,78.388802,86.286934,79.691414,63.305351,48.703224,45.743229,55.548538,70.093796,78.419479,74.676727,62.082684,50.101952,47.219055,54.773441,66.311615,72.690468,68.954712,57.880394,47.718956,46.007488,54.103714,66.390602,74.54245,73.556786,65.119606,55.999802,52.871765,57.485798,65.66777,70.687141,68.336235,59.946667,51.243259,48.055794,52.139645,60.121262,66.172554,66.287666,60.985874,54.576057,51.718464,53.950787,58.73069,61.570473,59.535915,53.454021,47.239803,44.941448,47.760853,53.239616,57.1301,56.487118,51.683846,45.936447,42.800053,43.558887,46.425365,48.053745,46.152832,41.221924,36.153084,34.057102,35.963818,40.086903,43.14576,42.723083,38.920334,34.145992,31.267023,31.527248,33.745407,35.314716,34.19825,30.425457,26.017498,23.450308,23.819407,26.042879,27.642256,26.490673,22.255033,16.535801,11.679264,9.1732187,8.7712145,8.8967075,7.9305239,5.3847675,2.1235487,-0.45462316,-1.5898827,-1.784385,-2.4269931,-4.7343936,-8.8218193,-13.595024,-17.530811,-19.761988,-20.678841,-21.630857,-23.967028,-28.108578,-33.291187,-38.112724,-41.459343,-43.157166,-43.94268,-44.851669,-46.514385,-48.850636,-51.314995,-53.430862,-55.176945,-56.956085,-59.225658,-62.122124,-65.38385,-68.611015,-71.622673,-74.601074,-77.89888,-81.670868,-85.644745,-89.242767,-91.985886,-93.874733,-95.437637,-97.375229,-100.03942,-103.12683,-105.83017,-107.36823,-107.53712,-106.89715,-106.45397,-107.04109,-108.81638,-111.20594,-113.3214,-114.55682,-114.95933,-115.1338,-115.76617,-117.10521,-118.76015,-119.94765,-120.01657,-118.89907,-117.19395,-115.83344,-115.54871,-116.46432,-118.05484,-119.46796,-120.00502,-119.48022,-118.27576,-117.09544,-116.57866,-116.98646,-118.10548,-119.38922,-120.24121,-120.29327,-119.55109,-118.35051,-117.15564,-116.30287,-115.82262,-115.43826,-114.75436,-113.53888,-111.93568,-110.46199,-109.75741,-110.20229,-111.62367,-113.28334,-114.19363,-113.61158,-111.44137,-108.31113,-105.27097,-103.27782,-102.75469,-103.45939,-104.70551,-105.771,-106.23649,-106.07207,-105.47481,-104.62092,-103.52942,-102.1227,-100.40504,-98.584717,-97.010513,-95.943565,-95.327492,-94.743668,-93.619736,-91.578598,-88.701469,-85.519325,-82.719627,-80.745964,-79.543945,-78.614746,-77.337135,-75.346176,-72.726517,-69.908806,-67.356972,-65.265892,-63.467255,-61.588299,-59.333927,-56.688606,-53.905331,-51.30732,-49.057568,-47.062515,-45.067394,-42.857903,-40.411133,-37.887222,-35.481007,-33.260464,-31.125082,-28.919399,-26.610237,-24.379795,-22.54501,-21.345785,-20.751043,-20.430592,-19.928486,-18.92955,-17.440327,-15.762021,-14.278069,-13.208193,-12.501228,-11.934393,-11.333202,-10.735702,-10.364823,-10.416381,-10.814331,-11.12367,-10.712864,-9.0875826,-6.1935377,-2.4951022,1.2267215,4.2402725,6.1813421,7.1526423,7.5764008,7.9170461,8.4469376,9.1710825,9.9100075,10.448816,10.649366,10.481174,9.9967728,9.3035059,8.555644,7.9459815,7.6618791,7.8031454,8.30762,8.9469833,9.4167213,9.4766607,9.0564775,8.2629261,7.2980452,6.3631334,5.6255031,5.2593646,5.4931846,6.5765319,8.6474733,11.588466,15.010923,18.441925,21.629841,24.752621,28.324583,32.781002,37.967731,42.893475,45.989349,45.802208,41.724934,34.277008,24.695974,14.057117,2.5083623,-10.787645,-26.826323,-45.473267,-64.540909,-79.958412,-87.175888,-83.19664,-68.183212,-45.733967,-21.611912,-1.5327157,10.90033,15.161563,13.360358,8.8324327,4.6213264,2.5852182,3.352284,6.8144536,12.629135,20.377747,29.416409,38.736401,47.129326,53.667385,58.201839,61.499866,64.854477,69.361191,75.298058,81.993195,88.24958,93.037941,96.012222,97.547798,98.338867,98.879562,99.19809,98.999336,98.063423,96.569817,95.087959,94.233871,94.243851,94.779808,95.115402,94.581818,92.971504,90.632561,88.205658,86.200096,84.705193,83.423683,81.98053,80.270569,78.591209,77.466827,77.289429,78.024391,79.178436,80.045715,80.065788,79.067467,77.265289,75.045914,72.709358,70.333275,67.82003,65.053398,62.029373,58.869694,55.731674,52.708809,49.814186,47.060226,44.561203,42.558842,41.32843,41.017918,41.532143,42.550011,43.670048,44.587433,45.182892,45.46981,45.453144,45.022137,43.975174,42.173031,39.710464,36.966282,34.467552,32.635517,31.575577,31.058502,30.716745,30.329994,30.002979,30.1022,30.980827,32.673485,34.777397,36.621407,37.631241,37.657681,37.04557,36.38612,36.107952,36.179451,36.131977,35.404186,33.788136,31.675882,29.922228,29.384142,30.413097,32.618771,35.060581,36.758114,37.213432,36.634205,35.737602,35.27557,35.585205,36.433308,37.222687,37.39756,36.775101,35.604099,34.34758,33.366932,32.730885,32.263577,31.766937,31.233149,30.881855,30.994246,31.668833,32.682854,33.569378,33.869106,33.394997,32.339806,31.162653,30.333881,30.099701,30.399597,30.958866,31.468616,31.729309,31.686245,31.376232,30.862024,30.216526,29.55319,29.043583,28.867006,29.099346,29.616648,30.102303,30.185589,29.643015,28.535412,27.182322,25.978952,25.169189,24.722864,24.397638,23.939716,23.281008,22.592941,22.158766,22.155989,22.505827,22.900053,22.989704,22.604939,21.853346,21.031675,20.419085,20.102585,19.956818,19.782688,19.489294,19.171684,19.018057,19.115536,19.311161,19.254877,18.619553,17.353363,15.777496,14.436398,13.77885,13.876709,14.377092,14.732816,14.563742,13.903563,13.156083,12.782593,12.934048,13.293831,13.263936,12.392739,10.761948,9.0515718,8.1937733,8.7921591,10.651009,12.717069,13.504575,11.792634,7.2240601,0.4905816,-6.9774566,-13.631546,-18.403635,-20.998346,-21.78924,-21.446253,-20.536251,-19.303679,-17.698994,-15.575553,-12.904348,-9.8824644,-6.897028,-4.3887844,-2.695385,-1.9413321,-2.0050361,-2.5622191,-3.188123,-3.4921265,-3.2475283,-2.4706719,-1.4103065,-0.44001862,0.10588958,0.076841645,-0.44276947,-1.2016915,-1.9288919,-2.4740241,-2.8622894,-3.2396622,-3.7529459,-4.4465742,-5.2409821,-5.999042,-6.6275496,-7.140017,-7.6367393,-8.2173014,-8.8876381,-9.5286579,-9.9529791,-10.019114,-9.7341232,-9.2807493,-8.9477892,-8.9973612,-9.537178,-10.463247,-11.501979,-12.331675,-12.72625,-12.655272,-12.295944,-11.953386,-11.926877,-12.383258,-13.293561,-14.457623,-15.598694,-16.478067,-16.975113,-17.103167,-16.97023,-16.721321,-16.498745,-16.430702,-16.628468,-17.164125,-18.023361,-19.064724,-20.035196,-20.668413,-20.833601,-20.649252,-20.471243,-20.727915,-21.673889,-23.205606,-24.867805,-26.076277,-26.444984,-26.024572,-25.295496,-24.901707,-25.274965,-26.37892,-27.737774,-28.740032,-29.031948,-28.752939,-28.460615,-28.78858,-30.050425,-32.037685,-34.135132,-35.67474,-36.301926,-36.128155,-35.589958,-35.125294,-34.889194,-34.69146,-34.182877,-33.150909,-31.720482,-30.327837,-29.489618,-29.518982,-30.36323,-31.647833,-32.87891,-33.670757,-33.875103,-33.572556,-32.975422,-32.323956,-31.8249,-31.624311,-31.779932,-32.222679,-32.74313,-33.05444,-32.940292,-32.419373,-31.810642,-31.617462,-32.258614,-33.790596,-35.801968,-37.575539,-38.450813,-38.181507,-37.068554,-35.777973,-34.948025,-34.825359,-35.152954,-35.372353,-35.002293,-33.948029,-32.549732,-31.355183,-30.780252,-30.88162,-31.374693,-31.855951,-32.056889,-31.955435,-31.6924,-31.389584,-31.031586,-30.508986,-29.780067,-29.002907,-28.503725,-28.574902,-29.240534,-30.175549,-30.869202,-30.947441,-30.438055,-29.780851,-29.550529,-30.062706,-31.129335,-32.142944,-32.451565,-31.784601,-30.446465,-29.144449,-28.561274,-28.953753,-30.03792,-31.222439,-32.013779,-32.305981,-32.360451,-32.510651,-32.826809,-33.003773,-32.569256,-31.269245,-29.346544,-27.491447,-26.470301,-26.668417,-27.853785,-29.324261,-30.341805,-30.56354,-30.186878,-29.728453,-29.610661,-29.856178,-30.102852,-29.914301,-29.147228,-28.097759,-27.312851,-27.19923,-27.713394,-28.362213,-28.523138,-27.863749,-26.567114,-25.204706,-24.346615,-24.18252,-24.416836,-24.505507,-24.060801,-23.134647,-22.180977,-21.726925,-21.987564,-22.695658,-23.264021,-23.165361,-22.267523,-20.900667,-19.624121,-18.865372,-18.679571,-18.778435,-18.78179,-18.495634,-18.019854,-17.627136,-17.523819,-17.679743,-17.848265,-17.747587,-17.256498,-16.478184,-15.637395,-14.907737,-14.314091,-13.784776,-13.29788,-12.981511,-13.059788,-13.663093,-14.644844,-15.565862,-15.897986,-15.334794,-14.001312,-12.404506,-11.136349,-10.514648,-10.399212,-10.309589,-9.7683601,-8.639883,-7.2363205,-6.1206951,-5.741303,-6.1424251,-6.9382391,-7.5545187,-7.5648613,-6.8975201,-5.7941937,-4.5823002,-3.4456894,-2.3607512,-1.2253038,-0.055270951,0.92694545,1.4011204,1.1851381,0.41964969,-0.4523519,-0.92088825,-0.71074092,0.055458434,0.94748753,1.5112479,1.5517023,1.2237705,0.87915719,0.79257059,0.97600317,1.2216104,1.3400005,1.4059048,1.8014321,2.9797122,5.0714293,7.5866852,9.4328356,9.2914896,6.1861157,-0.041198492,-8.5753403,-17.853815,-26.045982,-31.568583,-33.456173,-31.515257,-26.290117,-18.901522,-10.796863,-3.4275558,2.1090708,5.3681231,6.6639934,6.8967042,7.1342621,8.1292591,10.009048,12.302403,14.282643,15.425007,15.710976,15.60928,15.76433,16.599945,18.087719,19.812014,21.268223,22.186556,22.671036,23.077398,23.72909,24.670839,25.623281,26.161755,25.996033,25.169907,24.060385,23.18627,22.947281,23.441339,24.445318,25.545103,26.329304,26.55121,26.20352,25.500864,24.794792,24.451174,24.718721,25.624495,26.941296,28.261257,29.166416,29.426653,29.119202,28.589384,28.257912,28.378836,28.896118,29.496628,29.835428,29.791445,29.579777,29.630299,30.293779,31.558886,32.971851,33.83297,33.571274,32.080872,29.816511,27.586065,26.1562,25.894054,26.638557,27.853334,28.950253,29.587563,29.783718,29.812931,29.977419,30.406895,30.995293,31.486767,31.635717,31.339449,30.679813,29.875351,29.190735,28.853851,29.003611,29.663908,30.733234,31.992708,33.147697,33.910004,34.10033,33.724754,32.979355,32.170494,31.586374,31.386055,31.562222,31.987915,32.50565,32.994755,33.37648,33.568523,33.444576,32.855038,31.719395,30.137341,28.431799,27.062145,26.422731,26.624622,27.391708,28.155474,28.324245,27.593668,26.124067,24.471376,23.294458,22.996716,23.510004,24.356094,24.959429,25.027742,24.762587,24.751909,25.5872,27.426704,29.780649,31.680517,32.169636,30.849091,28.157955,25.204029,23.216837,22.918873,24.166592,26.061604,27.46212,27.596823,26.434252,24.61768,23.037626,22.319534,22.529715,23.242651,23.878235,24.061718,23.776327,23.244907,22.670647,22.054247,21.230261,20.088413,18.796545,17.829128,17.740528,18.811159,20.802757,23.006168,24.580967,24.993048,24.284664,23.01194,21.893208,21.390743,21.482666,21.751034,21.706631,21.126205,20.185745,19.320782,18.927629,19.115021,19.665531,20.212906,20.494724,20.49942,20.414362,20.429823,20.555519,20.59144,20.277132,19.509539,18.465509,17.529446,17.064449,17.179111,17.651903,18.0716,18.105747,17.718847,17.191004,16.917997,17.120033,17.651617,18.045248,17.774584,16.581701,14.668395,12.629859,11.16214,10.707232,11.233686,12.268682,13.153529,13.374612,12.79285,11.665328,10.473996,9.6747293,9.5038414,9.9253283,10.71242,11.588066,12.336233,12.836737,13.035947,12.90398,12.424805,11.628641,10.635074,9.6602688,8.9618559,8.7368069,9.0228605,9.6598825,10.339464,10.725273,10.589525,9.9026823,8.837595,7.6911592,6.763402,6.2482595,6.1778874,6.4337654,6.809134,7.0918231,7.1366262,6.9068613,6.4769258,5.9973998,5.6325226,5.488853,5.5623569,5.7316799,5.8112531,5.6490889,5.2239537,4.6844177,4.2931776,4.2895985,4.737114,5.4454288,6.0286479,6.0877352,5.4277897,4.1863627,2.7867334,1.7250792,1.3006161,1.4406815,1.7276963,1.6222246,0.76157737,-0.83438092,-2.7677345,-4.4743795,-5.5218081,-5.8259397,-5.6729798,-5.5482941,-5.8805385,-6.8435259,-8.3070784,-9.9324656,-11.332871,-12.207323,-12.403247,-11.922495,-10.91152,-9.6536055,-8.5391665,-7.975245,-8.2314377,-9.2853355,-10.770886,-12.102784,-12.75132,-12.53438,-11.753204,-11.06838,-11.161118,-12.362484,-14.467505,-16.850567,-18.820095,-20.004301,-20.5408,-20.964615,-21.874687,-23.589165,-25.993227,-28.648943,-31.06838,-32.960754,-34.307949,-35.260967,-35.980129,-36.569016,-37.159405,-38.062393,-39.819294,-43.033699,-48.019402,-54.45467,-61.278481,-66.954308,-70.020256,-69.66777,-66.057037,-60.211842,-53.560566,-47.370617,-42.356892,-38.621197,-35.882565,-33.809361,-32.244503,-31.219727,-30.804102,-30.928617,-31.320606,-31.589128,-31.396362,-30.600286,-29.285503,-27.679443,-26.022465,-24.476587,-23.116842,-21.986526,-21.157696,-20.744186,-20.855202,-21.521145,-22.640736,-23.982946,-25.24436,-26.135468,-26.46233,-26.179647,-25.40601,-24.400354,-23.501982,-23.040812,-23.236277,-24.117033,-25.497883,-27.034512,-28.343857,-29.144293,-29.355999,-29.118238,-28.719223,-28.474129,-28.606224,-29.176863,-30.08169,-31.101686,-31.983023,-32.520401,-32.625332,-32.363598,-31.945137,-31.654394,-31.729668,-32.232738,-32.975121,-33.560467,-33.552998,-32.70924,-31.155516,-29.399473,-28.139248,-27.945705,-28.976782,-30.882488,-32.964424,-34.513123,-35.142624,-34.94035,-34.357281,-33.916897,-33.925827,-34.35899,-34.972122,-35.543144,-36.060936,-36.7225,-37.739723,-39.099602,-40.466618,-41.325462,-41.293892,-40.403084,-39.14357,-38.217342,-38.132511,-38.893154,-39.989475,-40.704796,-40.547897,-39.532227,-38.121243,-36.881237,-36.081551,-35.519897,-34.697594,-33.225407,-31.173185,-29.103777,-27.743246,-27.493593,-28.116964,-28.821007,-28.714128,-27.34973,-25.010159,-22.543671,-20.855717,-20.377384,-20.842535,-21.497589,-21.58732,-20.794041,-19.362146,-17.866529,-16.818998,-16.389828,-16.406141,-16.5718,-16.699909,-16.768406,-16.776735,-16.559372,-15.75598,-14.009765,-11.263896,-7.9132662,-4.6460657,-2.0339675,-0.13738179,1.5801692,3.9269164,7.4330063,11.939547,16.619265,20.437599,22.759407,23.698885,23.982538,24.430965,25.428019,26.745684,27.827791,28.296299,28.280022,28.302162,28.805166,29.686699,30.241909,29.621986,27.52363,24.60836,22.28961,21.944832,24.026251,27.660278,31.042068,32.423389,31.097931,27.776339,24.128246,21.794249,21.491688,22.746801,24.358574,25.230852,25.01108,24.158039,23.47657,23.505692,24.197035,25.064251,25.627335,25.780317,25.803682,26.035583,26.479799,26.670029,25.909723,23.722824,20.196054,15.974585,11.919946,8.6652384,6.3493619,4.6622305,3.1133628,1.3118911,-0.90761465,-3.5234325,-6.4140606,-9.3830137,-12.121338,-14.212176,-15.271043,-15.186864,-14.292828,-13.285428,-12.864667,-13.287808,-14.141071,-14.528467,-13.604545,-11.125136,-7.64821,-4.2344241,-1.8320779,-0.74809104,-0.54612702,-0.41488156,0.27299654,1.6051137,3.1978235,4.5853629,5.5961533,6.4196501,7.3356361,8.362154,9.149579,9.2442675,8.5256824,7.4453549,6.8212681,7.2868643,8.7953444,10.586186,11.699092,11.696297,11.054228,10.886748,12.143928,14.844267,17.922749,19.863983,19.720194,17.804186,15.543344,14.563005,15.623573,18.15597,20.721983,22.063362,21.978251,21.393513,21.597538,23.222034,25.746761,27.903751,28.670809,28.086319,27.242971,27.442793,29.150167,31.558891,33.139763,32.784744,30.683828,28.244614,27.081501,27.825062,29.668962,31.02795,30.820999,29.37858,28.225714,28.854275,31.421358,34.439327,35.805264,34.462334,31.404175,29.130474,29.808918,33.461452,37.625587,38.949406,35.720322,29.484112,24.39187,24.48336,30.692947,39.764313,46.073788,45.330719,37.667721,27.868322,22.356619,24.855623,33.686985,42.696274,45.32972,39.136711,27.541128,17.511581,14.603562,18.780485,24.039476,22.337107,9.3181829,-12.034134,-32.465752,-41.777779,-35.072067,-15.876635,5.8995528,19.875845,21.18409,12.780126,2.8260972,-0.88505113,4.3001132,14.914826,24.453442,28.068537,25.553646,20.736217,18.060518,19.078131,21.454006,21.111412,15.778673,7.1812015,0.15170045,-0.7751283,5.1636791,13.972546,19.220745,16.163599,4.8732147,-9.7453871,-21.048258,-24.764788,-21.412798,-15.533875,-12.440724,-14.774117,-21.138107,-27.530596,-30.355713,-28.836121,-25.235836,-22.941999,-23.932648,-27.462196,-30.798149,-31.332628,-28.467913,-23.947609,-20.500359,-19.870768,-21.674791,-23.83148,-24.149998,-21.858841,-17.995754,-14.473909,-12.606713,-12.207044,-11.877746,-10.195189,-6.8492851,-2.8915069,0.051375326,0.96893352,0.1695334,-0.9948045,-1.1269631,0.26077899,2.5229366,4.4917822,5.4033442,5.4196734,5.3814979,6.0369925,7.3883882,8.6849108,9.0704346,8.3750019,7.4180751,7.5562048,9.7785215,13.999538,19.064013,23.467192,26.285721,27.67828,28.63859,30.218231,32.791836,35.867905,38.528091,40.128395,40.741257,41.047611,41.807323,43.325668,45.292919,47.06287,48.1101,48.310539,47.875458,47.064545,45.964863,44.529228,42.812767,41.154331,40.086327,39.994926,40.791889,41.890015,42.554081,42.393841,41.62429,40.871269,40.646687,40.891598,40.96146,40.102646,38.079861,35.463177,33.308304,32.415501,32.696934,33.145782,32.485306,30.072615,26.414658,22.900427,20.903481,20.868771,22.026268,22.937531,22.488504,20.623049,18.303349,16.748764,16.529352,17.185913,17.643204,17.079296,15.567417,13.983915,13.249809,13.508812,13.923108,13.307528,11.154977,8.2411871,6.2427096,6.517355,8.8723288,11.265463,10.811109,5.5590148,-4.0882511,-15.303596,-24.251902,-28.154121,-26.70804,-21.978283,-16.871103,-13.236069,-10.861901,-8.0028448,-3.020133,4.0372391,11.040537,14.894506,13.445502,6.9308319,-1.9954358,-9.7023048,-13.596894,-13.479405,-11.45058,-10.500038,-12.691894,-18.039927,-24.66749,-30.036453,-32.426083,-31.787815,-29.564701,-27.709311,-27.559082,-29.217953,-31.71714,-33.75499,-34.522514,-34.13929,-33.493286,-33.6222,-35.006073,-37.167786,-38.804195,-38.396461,-35.000805,-28.822178,-21.269537,-14.447543,-10.323516,-9.9715395,-13.237908,-18.930738,-25.356409,-30.885241,-34.305351,-34.939167,-32.669426,-28.009413,-22.170259,-16.90695,-13.961716,-14.213832,-16.992821,-20.116236,-20.886271,-17.655418,-11.056287,-4.0108304,-0.29210129,-2.3539677,-9.7411642,-19.168619,-26.360489,-28.574909,-26.203562,-22.358376,-20.662447,-22.698828,-26.871014,-29.524858,-27.635252,-21.221134,-13.742874,-10.0564,-13.18878,-22.094299,-31.994394,-37.217831,-34.764103,-26.268461,-17.053247,-12.848366,-16.287024,-25.407278,-35.044708,-40.107777,-38.561741,-32.261272,-25.293684,-21.144159,-20.65419,-22.029263,-22.642273,-21.17091,-18.517927,-16.972885,-18.383787,-22.758465,-28.28293,-32.62326,-34.441135,-33.992096,-32.477081,-30.823076,-28.976889,-26.307764,-22.729832,-19.48588,-18.731787,-22.017172,-28.732769,-35.81279,-39.19278,-36.260738,-27.712576,-17.480837,-10.62471,-10.434813,-16.56649,-25.369497,-32.160538,-33.953979,-30.943575,-25.926678,-22.232925,-21.62228,-23.486006,-25.687447,-26.262922,-24.728888,-22.168015,-20.205992,-19.739647,-20.339649,-20.664991,-19.483463,-16.530178,-12.660115,-9.3094292,-7.7250915,-8.4550753,-11.277018,-15.402795,-19.708462,-22.920143,-23.887367,-22.052109,-17.952452,-13.3476,-10.617537,-11.542577,-16.114038,-22.215975,-26.597239,-26.720272,-22.387489,-16.04463,-11.433473,-11.348649,-15.9034,-22.442905,-27.191929,-27.581844,-23.75197,-18.28125,-14.397952,-13.914926,-16.261841,-19.169456,-20.401711,-19.252983,-16.790115,-14.792539,-14.294763,-14.867401,-15.141616,-14.089265,-11.982919,-10.225942,-10.156816,-11.785191,-13.533892,-13.318801,-10.23638,-5.5616999,-2.1630135,-2.5742857,-7.0234437,-12.890012,-16.162306,-14.066666,-7.1293344,0.81085497,4.808177,1.9034772,-6.8848248,-17.000792,-22.989323,-21.67519,-13.892985,-3.75229,3.9670105,6.5339885,4.3950796,0.17945896,-3.4937327,-5.7547264,-7.5854783,-10.385217,-14.248613,-17.396063,-17.299765,-12.726448,-5.142621,1.7143787,4.0232339,0.44892555,-6.6760149,-12.499663,-12.537397,-5.5008206,5.7705998,15.933398,20.332973,17.752165,10.978344,4.8555079,3.1052144,5.9772091,10.22919,11.41384,6.9615631,-1.9477175,-10.933125,-15.032402,-11.73601,-2.5415771,7.9075179,14.525229,14.647755,9.355793,2.5634716,-1.4356967,-0.40406454,4.8505797,11.363987,16.041828,17.462885,16.37746,14.747675,14.121343,14.491872,14.387669,12.068518,6.9670124,0.37268189,-5.1245141,-7.0939932,-4.7040462,0.7696175,6.6890244,10.592759,11.585206,10.737825,10.280977,12.105734,16.506798,21.938559,25.929293,26.593065,23.816118,19.392317,16.011753,15.69419,18.588835,22.846123,25.633125,24.698212,19.582211,11.803067,3.957202,-1.6905555,-4.2936516,-4.597322,-4.1919909,-4.3885407,-5.4357076,-6.5191693,-6.4491043,-4.5151711,-0.9363088,3.3375719,7.2513056,10.211399,12.211714,13.510138,14.203472,14.107195,13.069219,11.44447,10.25987,10.78467,13.682845,18.32341,22.831245,25.014519,23.680321,19.493793,14.741611,12.044946,12.789234,16.290705,20.284739,22.452925,21.981104,20.075844,19.047962,20.562119,24.276194,27.887356,28.663235,25.476723,19.921986,15.614436,15.969735,21.835688,30.56942,37.309605,37.795971,31.036779,20.13245,10.659737,7.5351114,12.235646,22.049528,31.774309,36.782204,35.570507,30.301743,25.1359,23.518721,26.160452,30.896282,34.364845,34.306194,30.976263,26.841047,24.862947,26.559311,31.068514,35.730141,37.699902,35.527431,29.765354,22.389643,15.572907,10.66694,7.9624329,7.1680627,8.0537825,10.671677,14.98437,20.26111,24.845583,26.673038,24.371441,18.300934,10.809301,5.3850741,5.0355911,10.711628,20.637857,30.961943,37.452881,37.436584,31.036726,21.135052,12.084517,7.7834821,9.9894562,17.609375,27.246767,34.726631,36.906994,32.982937,24.734346,15.644979,9.3240948,7.9625745,11.516924,17.948582,24.332565,28.240479,28.710766,26.383823,22.852903,19.690739,17.731756,16.962692,16.957186,17.448637,18.586248,20.682821,23.657026,26.62631,28.040552,26.395016,21.149746,13.289919,5.1237874,-0.65157741,-2.1530807,0.8492862,6.8851061,13.513492,18.405958,20.221573,18.904491,15.400321,11.081985,7.2317028,4.7564106,4.0904775,5.1419754,7.2294326,9.1236982,9.3728666,6.9416752,1.9167686,-4.1659822,-8.7311401,-9.2829819,-4.7351913,3.7902884,13.236743,19.927374,21.273645,16.959417,8.9566126,0.39794496,-6.008492,-9.1054306,-9.3736248,-8.0840006,-6.1986098,-3.8018022,-0.40830144,4.1651759,9.0992908,12.666726,13.173012,10.154962,4.9924717,0.41235805,-0.92860299,2.0311453,8.0654268,14.265342,17.625967,16.698687,12.353298,7.2281876,4.2191911,4.8943186,8.7168684,13.44934,16.43067,15.971982,12.133204,6.5548973,1.5525107,-0.98090357,-0.31466362,3.0076966,7.6042061,11.922007,14.79499,15.688004,14.62048,11.907691,7.9077306,2.91417,-2.7700205,-8.6588402,-13.964008,-17.675596,-18.883253,-17.222034,-13.203092,-8.1927414,-3.9606795,-1.9602083,-2.6876643,-5.4656272,-8.781949,-11.00899,-11.11308,-8.9848547,-5.2656155,-0.85613281,3.5349264,7.5240049,10.853639,13.106936,13.642145,11.875647,7.7502408,2.0413682,-3.7836542,-8.1547794,-10.12891,-9.8300362,-8.3270245,-7.013392,-6.8517489,-7.9149427,-9.4599752,-10.446315,-10.164409,-8.6145573,-6.4607511,-4.6427522,-3.9016194,-4.4768777,-6.099175,-8.2321863,-10.406315,-12.46993,-14.642065,-17.342966,-20.875305,-25.106169,-29.329866,-32.438835,-33.38615,-31.740143,-28.019634,-23.559517,-19.902279,-18.015299,-17.796061,-18.202147,-17.968477,-16.475252,-14.187902,-12.338523,-12.026022,-13.342073,-15.16495,-15.837515,-14.32451,-11.058369,-7.8332887,-6.7304425,-8.7436399,-13.036547,-17.383062,-19.550529,-18.718596,-15.965748,-13.471709,-12.97191,-14.53791,-16.554377,-16.933083,-14.721615,-10.952424,-8.0829229,-8.3607311,-12.228649,-17.898382,-22.437346,-23.663343,-21.558706,-18.222225,-16.373703,-17.429976,-20.481716,-22.891497,-22.123461,-17.562187,-11.077793,-5.9394212,-4.7942452,-8.0458889,-13.679398,-18.598249,-20.545437,-19.342863,-16.703821,-14.861579,-15.02304,-16.694126,-18.250095,-18.243177,-16.47035,-14.064408,-12.610991,-12.98501,-14.759598,-16.585752,-17.22558,-16.466578,-15.259375,-14.999783,-16.487902,-19.30982,-22.06847,-23.287298,-22.355637,-19.885605,-17.279099,-15.840405,-16.041138,-17.386667,-18.890532,-19.763386,-19.834139,-19.470846,-19.147129,-19.027084,-18.874695,-18.313311,-17.193867,-15.771183,-14.560101,-13.997479,-14.174794,-14.833467,-15.601951,-16.271608,-16.894691,-17.642965,-18.56139,-19.433741,-19.885372,-19.656937,-18.840874,-17.88903,-17.362211,-17.580454,-18.408121,-19.318478,-19.694729,-19.173294,-17.821299,-16.063469,-14.438155,-13.352633,-12.9727,-13.263128,-14.091081,-15.28813,-16.637478,-17.841848,-18.556795,-18.51848,-17.701187,-16.387344,-15.071014,-14.223936,-14.054791,-14.41153,-14.893782,-15.110541,-14.92469,-14.533161,-14.334398,-14.66647,-15.576867,-16.763033,-17.719391,-18.007059,-17.49579,-16.446686,-15.391495,-14.869423,-15.151441,-16.086966,-17.149912,-17.669844,-17.147207,-15.507445,-13.167972,-10.873199,-9.363802,-9.0359478,-9.7630339,-10.97827,-11.980876,-12.303762,-11.939892,-11.300178,-10.929928,-11.154604,-11.869787,-12.603411,-12.810637,-12.216932,-10.995098,-9.6671782,-8.7957268,-8.6593285,-9.111722,-9.7010603,-9.9588985,-9.6661663,-8.9312496,-8.0489798,-7.2571516,-6.5687132,-5.7955041,-4.7390814,-3.4045906,-2.076324,-1.1889079,-1.0698599,-1.7201002,-2.7787352,-3.7010391,-4.0436006,-3.6853635,-2.8578684,-1.9787172,-1.3995941,-1.2211111,-1.272402,-1.2461765,-0.89111084,-0.14500242,0.85465097,1.864575,2.6611044,3.1243033,3.2511568,3.1168752,2.8242974,2.469332,2.1247151,1.8306531,1.5879025,1.3636051,1.122057,0.87329167,0.70672935,0.77099192,1.1894391,1.9508255,2.8500175,3.5411475,3.70187,3.2284133,2.3417499,1.5209243,1.277941,1.8911145,3.2519038,4.9219346,6.3721581,7.262043,7.5889034,7.6184835,7.649363,7.7739811,7.8038092,7.4174223,6.4369626,5.0418806,3.7575309,3.1972301,3.7017603,5.1011848,6.7626634,7.9174371,8.0854979,7.3485136,6.3062096,5.7383432,6.1692171,7.5865932,9.4703074,11.099362,11.946399,11.930202,11.397445,10.873895,10.755632,11.125535,11.781396,12.42176,12.846835,13.045341,13.134267,13.224049,13.324553,13.362529,13.288137,13.175811,13.226336,13.649966,14.502353,15.589287,16.520288,16.896914,16.531933,15.569271,14.430005,13.611019,13.447186,13.964273,14.892383,15.817484,16.378466,16.406937,15.954643,15.22201,14.447975,13.822914,13.45332,13.368048,13.538431,13.893673,14.33372,14.752313,15.074018,15.289358,15.461694,15.690908,16.047827,16.518652,16.999624,17.35323,17.49563,17.459152,17.383909,17.435932,17.698944,18.109217,18.480988,18.613544,18.416286,17.969641,17.47381,17.104839,16.859404,16.48592,15.558785,13.674778,10.680901,6.8198786,2.7167594,-0.79416597,-2.9290156,-3.1933048,-1.5112419,1.7882472,6.1018977,10.734753,15.068153,18.669271,21.329468,23.042532,23.945246,24.244783,24.154907,23.856844,23.490427,23.167372,22.987665,23.039827,23.379246,23.998102,24.812252,25.683439,26.471931,27.090683,27.526894,27.817101,27.996012,28.061213,27.986485,27.777864,27.52614,27.400099,27.561094,28.040865,28.667803,29.113102,29.056898,28.387602,27.306904,26.25519,25.680305,25.77965,26.377335,27.024464,27.271584,26.946507,26.257957,25.651323,25.502975,25.849836,26.335098,26.415241,25.703686,24.234415,22.476181,21.084837,20.545893,20.924534,21.866558,22.832382,23.405048,23.481567,23.248222,22.986549,22.857918,22.808882,22.641577,22.178219,21.396236,20.447876,19.568445,18.949903,18.663736,18.664381,18.842041,19.071209,19.229422,19.205566,18.931963,18.442953,17.913918,17.619734,17.797846,18.481779,19.421848,20.176723,20.350374,19.834629,18.888699,17.979786,17.472378,17.374016,17.327024,16.875181,15.834392,14.500031,13.512888,13.434694,14.301368,15.469991,15.904553,14.757538,11.891422,7.9978704,4.216938,1.4786322,-0.027123248,-0.9249903,-2.2371051,-4.7495646,-8.5627193,-13.086925,-17.444492,-20.983625,-23.569613,-25.50531,-27.20182,-28.875519,-30.48637,-31.915838,-33.185188,-34.491123,-36.002056,-37.580517,-38.69331,-38.651218,-37.064186,-34.197948,-30.941265,-28.343935,-26.998417,-26.681545,-26.526663,-25.642027,-23.769846,-21.523998,-20.01132,-20.060877,-21.572594,-23.443974,-24.164051,-22.717892,-19.225307,-14.896346,-11.324862,-9.5675259,-9.5900154,-10.41517,-10.850358,-10.305212,-9.1745996,-8.5649347,-9.5733147,-12.601095,-17.129173,-22.057688,-26.348585,-29.544874,-31.865803,-33.882557,-36.046471,-38.397842,-40.614876,-42.308331,-43.311989,-43.758419,-43.914177,-43.931488,-43.72205,-43.048428,-41.753586,-39.942097,-37.96497,-36.208675,-34.835346,-33.65921,-32.24966,-30.194925,-27.352985,-23.929773,-20.343554,-16.974226,-13.963096,-11.185069,-8.3973312,-5.4573631,-2.4664814,0.25217068,2.3303573,3.586864,4.1863065,4.6333771,5.5906067,7.5904179,10.765715,14.72688,18.662525,21.64863,23.047682,22.815277,21.548752,20.22344,19.722073,20.390751,21.865274,23.28096,23.76631,22.948065,21.173147,19.308832,18.232727,18.316919,19.221376,20.125341,20.253565,19.367697,17.913847,16.734583,16.530979,17.417776,18.851658,19.969608,20.111855,19.192308,17.689367,16.284342,15.403017,14.967621,14.512584,13.566625,12.026761,10.263877,8.8898764,8.3495197,8.6167583,9.1995592,9.4454765,8.9396486,7.7329268,6.261611,5.0313883,4.2898521,3.9041064,3.5057447,2.777878,1.6698822,0.39177066,-0.79127568,-1.7973653,-2.8119667,-4.1478086,-5.9788589,-8.1433668,-10.167098,-11.504685,-11.843849,-11.271829,-10.197089,-9.085351,-8.1912689,-7.4623594,-6.666256,-5.6362996,-4.45227,-3.4248204,-2.8938053,-2.9820747,-3.4770434,-3.9246497,-3.8778226,-3.1426482,-1.8737547,-0.47382799,0.62430137,1.1535935,1.0820614,0.54697257,-0.26910335,-1.224977,-2.2261274,-3.1780603,-3.955415,-4.4320097,-4.557395,-4.4188499,-4.2314978,-4.2491598,-4.6458473,-5.4386783,-6.4944386,-7.6073432,-8.5958862,-9.3672104,-9.9300985,-10.371716,-10.821868,-11.413211,-12.230522,-13.250961,-14.307023,-15.124289,-15.462458,-15.318645,-15.077572,-15.477571,-17.338478,-21.1406,-26.666487,-32.929504,-38.483562,-41.998936,-42.823303,-41.234283,-38.249966,-35.107838,-32.703228,-31.285221,-30.538908,-29.947451,-29.174999,-28.233761,-27.369356,-26.795332,-26.495817,-26.241743,-25.791729,-25.105036,-24.385502,-23.907774,-23.751247,-23.652246,-23.112782,-21.720764,-19.471519,-16.85659,-14.62941,-13.376407,-13.166085,-13.512832,-13.692792,-13.215506,-12.144742,-11.053008,-10.630903,-11.200166,-12.447414,-13.557915,-13.674509,-12.400806,-10.042315,-7.4466205,-5.5529413,-4.9309211,-5.5756607,-7.0483079,-8.8327208,-10.660165,-12.604265,-14.920276,-17.774231,-21.065027,-24.457775,-27.588587,-30.283152,-32.632221,-34.878155,-37.204002,-39.58231,-41.791946,-43.586422,-44.887478,-45.859715,-46.807102,-47.958027,-49.284943,-50.482479,-51.122002,-50.884312,-49.724316,-47.87159,-45.681194,-43.443333,-41.27602,-39.155964,-37.041393,-34.978539,-33.103256,-31.533865,-30.238981,-28.990795,-27.459616,-25.405695,-22.848732,-20.097555,-17.605173,-15.725015,-14.511799,-13.689476,-12.810757,-11.517977,-9.7541466,-7.8025575,-6.1338754,-5.1494212,-4.9637799,-5.3403339,-5.8031788,-5.8541651,-5.1783237,-3.7435367,-1.7681572,0.40137395,2.4301369,4.0929408,5.3118601,6.1470337,6.7638307,7.3881903,8.2490492,9.5082798,11.194402,13.170887,15.166049,16.865053,18.029955,18.5938,18.684517,18.56938,18.549923,18.857496,19.591192,20.711946,22.078991,23.503305,24.798628,25.822681,26.506697,26.867861,26.995043,27.004786,26.982546,26.94157,26.830158,26.591711,26.243601,25.918543,25.826786,26.146734,26.905384,27.929485,28.913557,29.57839,29.829266,29.812645,29.826582,30.131836,30.778109,31.55645,32.112423,32.152962,31.618914,30.716721,29.792992,29.136204,28.83287,28.764149,28.731272,28.611994,28.433975,28.315414,28.322556,28.357897,28.17605,27.535271,26.392408,25.006376,23.86285,23.442509,23.957487,25.209528,26.658972,27.674988,27.8358,27.12212,25.909218,24.772583,24.215254,24.452732,25.347319,26.500772,27.441048,27.809912,27.477646,26.557634,25.338253,24.173723,23.376661,23.142015,23.515274,24.403296,25.615728,26.919485,28.089577,28.946518,29.380203,29.365778,28.973751,28.366976,27.769789,27.400909,27.38236,27.66189,27.996115,28.023062,27.409323,26.011053,23.968733,21.67938,19.648647,18.287552,17.749678,17.885387,18.330372,18.679256,18.65699,18.209372,17.48106,16.706404,16.076185,15.645766,15.322486,14.929719,14.311651,13.428049,12.394774,11.44905,10.850795,10.761807,11.160628,11.841497,12.508966,12.929245,13.060891,13.087562,13.321561,14.019581,15.209706,16.633307,17.846556,18.434067,18.216461,17.331364,16.139683,15.014323,14.141147,13.454198,12.741454,11.847652,10.837282,10.006023,9.7267141,10.223398,11.414204,12.920734,14.237775,14.960439,14.938352,14.281526,13.239582,12.048575,10.842932,9.6688995,8.5591221,7.5907083,6.8741922,6.4836183,6.3883114,6.4463649,6.4710889,6.3240681,5.967803,5.4433389,4.798243,4.0300741,3.0972431,1.992043,0.81377369,-0.22988012,-0.91569573,-1.1400739,-1.0014062,-0.7595638,-0.68298262,-0.87519324,-1.1953063,-1.3310524,-0.98386264,-0.051030628,1.3082174,2.7586205,3.9641125,4.7377706,5.0807724,5.1094189,4.9464693,4.6661081,4.3252454,4.0338473,3.9788208,4.3511729,5.2096152,6.3798847,7.4823918,8.0992022,7.990468,7.2250476,6.1379938,5.1398244,4.5010443,4.2493691,4.234591,4.2957268,4.3944726,4.6109471,5.0097394,5.4928808,5.7772923,5.5452437,4.6779418,3.397126,2.1787732,1.451851,1.2566339,1.0966814,0.12308361,-2.4108415,-6.6668077,-11.995206,-17.118979,-20.653675,-21.701115,-20.216463,-16.978926,-13.210764,-10.060433,-8.202693,-7.7093453,-8.1846533,-9.0385389,-9.7445822,-9.9883623,-9.6956062,-8.9829273,-8.0778141,-7.2320914,-6.6383977,-6.3659983,-6.3445506,-6.4157896,-6.4367189,-6.3770218,-6.344841,-6.5160227,-7.0096631,-7.7981644,-8.7224073,-9.6079617,-10.397324,-11.190654,-12.147927,-13.312513,-14.49077,-15.301182,-15.392567,-14.699079,-13.548432,-12.518463,-12.104253,-12.401605,-13.025846,-13.344366,-12.891862,-11.700641,-10.3161,-9.4669876,-9.5939064,-10.548358,-11.67542,-12.242606,-11.939275,-11.109232,-10.544381,-10.957349,-12.473764,-14.487182,-15.991426,-16.192415,-15.010382,-13.144855,-11.652654,-11.30416,-12.127553,-13.429082,-14.268491,-14.075733,-13.009228,-11.831594,-11.396922,-12.093687,-13.606424,-15.140477,-15.946608,-15.79143,-15.067036,-14.481641,-14.551544,-15.239319,-15.975465,-16.040579,-15.048365,-13.21223,-11.230206,-9.8757277,-9.5652065,-10.170719,-11.170607,-12.008212,-12.409243,-12.46283,-12.44978,-12.573967,-12.801322,-12.91221,-12.706074,-12.186582,-11.577307,-11.152452,-11.011522,-10.975103,-10.694367,-9.9104195,-8.6838026,-7.4239259,-6.6796489,-6.8160372,-7.7858262,-9.1478949,-10.326398,-10.947786,-11.043468,-10.993887,-11.256863,-12.057973,-13.238771,-14.351684,-14.933001,-14.778877,-14.058027,-13.205018,-12.673368,-12.70242,-13.226251,-13.954163,-14.549478,-14.790291,-14.629341,-14.147657,-13.461695,-12.657752,-11.790185,-10.925545,-10.182034,-9.7217426,-9.6903429,-10.137365,-10.964851,-11.937713,-12.757211,-13.169,-13.061564,-12.513933,-11.769361,-11.13915,-10.870284,-11.032198,-11.478934,-11.915373,-12.046057,-11.735965,-11.094784,-10.428697,-10.075787,-10.213482,-10.752274,-11.385938,-11.775607,-11.758492,-11.449921,-11.168576,-11.225214,-11.705015,-12.383202,-12.833028,-12.66461,-11.749716,-10.296376,-8.7323809,-7.4762721,-6.7397633,-6.4756279,-6.4826803,-6.5760374,-6.6960392,-6.8850708,-7.1652298,-7.4271488,-7.4343624,-6.9622087,-5.9840651,-4.7677813,-3.7902207,-3.4936829,-4.0190907,-5.0825667,-6.0876231,-6.427134,-5.8111649,-4.4328938,-2.8723118,-1.7860644,-1.5541662,-2.0792491,-2.8474844,-3.2135825,-2.7492297,-1.4641376,0.21461958,1.6821299,2.4727373,2.4788842,1.9614333,1.3649744,1.0601281,1.1659486,1.5443379,1.9464077,2.1980989,2.2974052,2.3647225,2.4951456,2.6328428,2.5736403,2.108762,1.2134398,0.13673052,-0.69635212,-0.93203247,-0.53063059,0.16728537,0.62229198,0.43206805,-0.38805565,-1.3747488,-1.8810866,-1.4866796,-0.29549456,1.0808767,1.8629472,1.5647205,0.28873128,-1.3341292,-2.5242076,-2.8121974,-2.2895803,-1.502281,-1.0736783,-1.31409,-2.0683551,-2.8796453,-3.330014,-3.3076611,-3.0212216,-2.7761152,-2.7032185,-2.6582153,-2.3719819,-1.7325776,-0.96791363,-0.56283295,-0.94111788,-2.1292374,-3.6526663,-4.7652879,-4.8787518,-3.9094267,-2.3065565,-0.74044895,0.3353577,0.94597548,1.5032886,2.4332607,3.7953987,5.1738415,5.9263067,5.6205635,4.3508792,2.7072175,1.4116359,0.86826253,0.93267453,1.0525844,0.6756981,-0.35803559,-1.7009474,-2.7213562,-2.8973551,-2.1105874,-0.6609053,0.97041416,2.4144003,3.5591385,4.4784951,5.2496924,5.8354316,6.1279483,6.097352,5.8878059,5.7474942,5.8296418,6.0350046,6.0610371,5.6663108,4.9645481,4.4908776,4.9139171,6.5287399,8.8718929,10.781767,10.965631,8.7864056,4.7863331,0.5745151,-1.9256232,-1.4711788,1.8322003,6.5805502,10.809401,12.988111,12.708334,10.715796,8.340416,6.7186656,6.2709794,6.6814718,7.2925401,7.596314,7.5076709,7.3008943,7.3250351,7.7244554,8.333147,8.7600336,8.5639181,7.4051657,5.133338,1.8386238,-2.1058869,-6.0433359,-9.14711,-10.680585,-10.31708,-8.336339,-5.5336804,-2.8368509,-0.82917303,0.5240193,1.7501866,3.4064178,5.5825691,7.7260766,8.9449215,8.6165333,6.895328,4.7467623,3.4352758,3.7672212,5.5789971,7.8243618,9.2298107,9.1067476,7.7928977,6.4296932,6.2171888,7.6337309,10.13109,12.500089,13.658118,13.335771,12.215899,11.449169,11.882358,13.514107,15.524828,16.83633,16.810757,15.626513,14.106806,13.150061,13.163981,13.873366,14.594618,14.749409,14.247293,13.487786,13.016532,13.109443,13.589014,13.989398,13.92701,13.390774,12.737843,12.406113,12.565076,12.969685,13.129889,12.676029,11.655535,10.543056,9.9479599,10.215573,11.19204,12.309079,12.927684,12.7114,11.792791,10.647285,9.7848415,9.4752283,9.6730309,10.151756,10.712223,11.299356,11.955793,12.678956,13.3233,13.646556,13.476014,12.865809,12.111714,11.59125,11.528281,11.843963,12.201377,12.217741,11.701929,10.759727,9.704567,8.8471556,8.3159351,8.0278702,7.8133698,7.5874782,7.4326348,7.5324812,8.0123129,8.8119926,9.6903458,10.359373,10.64973,10.589354,10.347172,10.097476,9.9162016,9.785594,9.6871662,9.6838093,9.8971796,10.376857,10.963326,11.279531,10.907781,9.6678534,7.8115764,5.9734621,4.8649383,4.8773589,5.8409882,7.1066709,7.9167371,7.8427272,7.0185175,6.0265393,5.5178037,5.8145652,6.7446976,7.7929792,8.4418116,8.4607601,7.9635959,7.2337699,6.4857864,5.7592626,5.0157628,4.3284783,3.9647,4.2402406,5.2195044,6.4967837,7.2843008,6.8350625,4.9692287,2.3432875,0.21682672,-0.21705265,1.4368201,4.4470019,7.2807503,8.4351931,7.2930269,4.4787912,1.4832662,-0.22613236,-0.067103893,1.3519663,2.664197,2.6346185,0.94685572,-1.6008574,-3.5985742,-3.8965287,-2.2981896,0.34344965,2.6587298,3.5695682,2.872309,1.2654756,-0.14664234,-0.53092647,0.23538089,1.5929999,2.7178698,3.0251207,2.4483724,1.3673302,0.29255876,-0.4528515,-0.85784388,-1.11867,-1.4253068,-1.8068452,-2.129679,-2.2181623,-1.9883841,-1.4992753,-0.9045369,-0.36336157,0.018093631,0.18790381,0.12266731,-0.17844178,-0.6675393,-1.2263867,-1.6978885,-1.977276,-2.1053548,-2.279048,-2.7386613,-3.5842352,-4.6453209,-5.5162959,-5.7671666,-5.2130842,-4.0666795,-2.8581326,-2.156059,-2.2586932,-3.0513756,-4.1189013,-5.0303588,-5.5990667,-5.9434009,-6.3207569,-6.8717728,-7.4753356,-7.8290529,-7.6964216,-7.1290736,-6.4822378,-6.1915517,-6.4624491,-7.1020408,-7.6329718,-7.627203,-7.0292068,-6.2298784,-5.8188,-6.1716647,-7.1575208,-8.1808395,-8.5474577,-7.9169888,-6.5374703,-5.1013227,-4.3177662,-4.4871902,-5.3549981,-6.3234076,-6.8529687,-6.7662067,-6.2560711,-5.630302,-5.0188527,-4.2890024,-3.2398593,-1.9152333,-0.76050186,-0.44859648,-1.448193,-3.6232703,-6.1716843,-8.0017233,-8.3461494,-7.23104,-5.4873881,-4.278542,-4.4287395,-5.9668741,-8.1582222,-9.9814072,-10.730114,-10.361244,-9.4011898,-8.5214415,-8.0972776,-8.0407515,-7.9827948,-7.6321111,-7.0326457,-6.5394177,-6.5498424,-7.2013416,-8.2565079,-9.2484035,-9.7697029,-9.6984081,-9.2173433,-8.6444073,-8.2203217,-8.0079193,-7.9483151,-7.9896178,-8.1572142,-8.5030012,-8.9911699,-9.4453297,-9.6359024,-9.4617767,-9.0801249,-8.8529654,-9.1100216,-9.8800726,-10.795324,-11.271706,-10.874043,-9.627574,-8.0513477,-6.8673673,-6.563508,-7.0986347,-7.9504299,-8.4745178,-8.3280611,-7.6653805,-6.9737949,-6.6739841,-6.7795072,-6.8704362,-6.4111633,-5.1892343,-3.5526688,-2.2530482,-1.9760158,-2.8693767,-4.3996935,-5.6600885,-5.951901,-5.2728004,-4.3935089,-4.4626436,-6.3752542,-10.281994,-15.516884,-20.954731,-25.554007,-28.757986,-30.555019,-31.236107,-31.069847,-30.128456,-28.35412,-25.768322,-22.631939,-19.418161,-16.611921,-14.480868,-12.980799,-11.855955,-10.853456,-9.8952627,-9.0922842,-8.6072054,-8.4829073,-8.5717602,-8.6185322,-8.4305792,-8.0030222,-7.5009847,-7.1091375,-6.859848,-6.5713234,-5.9511671,-4.8027897,-3.1957583,-1.4799633,-0.1247031,0.52217853,0.40908331,-0.21235029,-0.94297957,-1.4517049,-1.6208575,-1.5469193,-1.4182006,-1.3639755,-1.3757569,-1.3438721,-1.1732843,-0.89308172,-0.68152785,-0.78355199,-1.3639674,-2.3790925,-3.5430403,-4.4186463,-4.6019373,-3.9209452,-2.5558732,-1.0145317,0.043594994,0.071693726,-1.1235602,-3.2779169,-5.7602606,-7.8251262,-8.9115591,-8.84583,-7.8547902,-6.3986535,-4.9293246,-3.7135983,-2.8085921,-2.172178,-1.8030869,-1.7933197,-2.2483253,-3.1373537,-4.2001691,-5.0073252,-5.164844,-4.5437226,-3.3806286,-2.1692517,-1.3969052,-1.2863215,-1.7027229,-2.2774591,-2.6553528,-2.6935139,-2.4819005,-2.1901917,-1.8748763,-1.4090729,-0.60169894,0.57944781,1.8613173,2.7376471,2.7481158,1.7920582,0.25508508,-1.164728,-1.8443236,-1.5953478,-0.75799572,0.040525977,0.30840504,0.011573037,-0.42255348,-0.42456061,0.29149488,1.490674,2.5378387,2.8036284,2.0862162,0.76408714,-0.4270072,-0.84892225,-0.35029751,0.6608234,1.4990133,1.6431205,1.0462135,0.12280986,-0.55518013,-0.63289851,-0.16628678,0.47507584,0.90007216,0.96192145,0.81409287,0.73731506,0.88632196,1.1555643,1.2649629,0.9971711,0.40291804,-0.18624946,-0.35663188,0.11426044,1.1027349,2.2121274,3.0227046,3.3436947,3.29581,3.1770618,3.2197409,3.4204416,3.566613,3.435874,3.0157273,2.5733616,2.5108953,3.0953269,4.2459869,5.5300865,6.3808689,6.4068623,5.6021752,4.3341565,3.1273553,2.3859644,2.2219582,2.4743574,2.8775899,3.250015,3.5794113,3.9667618,4.4894152,5.0922408,5.5855565,5.749157,5.4704676,4.8268566,4.0628695,3.4797583,3.3029284,3.5965703,4.259798,5.0920644,5.8857369,6.5010209,6.8966794,7.113656,7.2271357,7.2923732,7.310822,7.2353873,7.0153437,6.6579008,6.2659221,6.0159578,6.0721331,6.4762979,7.0840554,7.6038384,7.7402663,7.3725605,6.6604795,5.9966426,5.8090973,6.3136868,7.3603368,8.4758978,9.0956764,8.8614063,7.8162899,6.3819008,5.1275916,4.4655046,4.4478407,4.7803783,5.0353284,4.9281259,4.4884624,4.0256996,3.9173446,4.3571005,5.2206106,6.1317706,6.6886272,6.7111869,6.3611183,6.0599027,6.2501616,7.1349821,8.5417147,9.9862928,10.904005,10.924641,10.050506,8.6512785,7.2866931,6.4530525,6.3798628,6.9670877,7.8758669,8.7096109,9.1872902,9.2301464,8.9403238,8.5088844,8.1184635,7.8904586,7.8841896,8.1173954,8.5700226,9.1597042,9.7153397,9.9932537,9.7598562,8.9156065,7.5912676,6.1441569,5.0303855,4.6038218,4.9466553,5.8301635,6.8349986,7.566937,7.8454504,7.7581768,7.5574851,7.4734197,7.5671206,7.7167187,7.7353373,7.5298934,7.1826262,6.8931217,6.8197341,6.9352827,7.0085959,6.7401066,5.9717035,4.8324785,3.7150955,3.0831525,3.2192554,4.0645528,5.2460423,6.2742481,6.7941933,6.7487531,6.3749633,6.0554824,6.1223044,6.7165756,7.7548261,8.9847803,10.079273,10.728254,10.720414,10.019774,8.8230906,7.5533037,6.7438436,6.8200169,7.8641281,9.5008945,11.007173,11.633744,10.99026,9.2783194,7.2196569,5.6937709,5.2754755,5.9348655,7.0764642,7.8961906,7.844975,6.9253306,5.6527514,4.7203736,4.5826039,5.2106953,6.1529055,6.8365579,6.9067154,6.3930244,5.6245942,4.9795876,4.6505184,4.5730238,4.539577,4.3932595,4.1558743,4.007699,4.1492186,4.653697,5.4123983,6.1961451,6.772697,6.9921904,6.7965775,6.1814656,5.1769166,3.8853786,2.5440359,1.5278559,1.2295024,1.8396386,3.1463599,4.5000124,5.0157948,3.9474566,1.0491065,-3.2719476,-8.1026669,-12.399292,-15.393814,-16.828705,-16.925669,-16.148474,-14.923292,-13.475616,-11.844655,-10.016664,-8.0549784,-6.1302929,-4.4406452,-3.0920339,-2.0330598,-1.0926626,-0.096123174,1.0156982,2.1360245,3.0355382,3.4701774,3.2961466,2.5436256,1.4282261,0.3032735,-0.43448916,-0.46921965,0.3072193,1.7120376,3.2857828,4.4334292,4.6617794,3.8158717,2.18979,0.43096173,-0.73931003,-0.85912198,0.060168833,1.5563471,2.9629145,3.7415738,3.7176147,3.100064,2.3014202,1.6871346,1.410105,1.4092469,1.5319653,1.662678,1.7568442,1.7729027,1.5897132,1.016346,-0.073801443,-1.5684329,-3.0494738,-3.9346833,-3.788888,-2.6272542,-0.99990451,0.24042153,0.38810483,-0.70365828,-2.5074463,-4.0947857,-4.652379,-3.9379961,-2.4010923,-0.89658177,-0.17157534,-0.44299698,-1.3199865,-2.1004629,-2.2343013,-1.6492171,-0.74050981,-0.056257062,0.089987077,-0.18906286,-0.4794755,-0.40368176,0.080071427,0.63506222,0.79250509,0.31074363,-0.6137569,-1.4449865,-1.6615075,-1.1295278,-0.23603773,0.32173419,-0.034850769,-1.3923935,-3.2691226,-4.886457,-5.6172462,-5.3318582,-4.4372053,-3.6045637,-3.3741031,-3.8838871,-4.8688402,-5.8898621,-6.6129718,-6.9523187,-7.0103149,-6.8998528,-6.60847,-6.0153437,-5.042522,-3.811409,-2.6656575,-2.0184653,-2.114167,-2.8646309,-3.8785787,-4.6753769,-4.9522662,-4.7395225,-4.3536105,-4.1902423,-4.497067,-5.2662997,-6.2962456,-7.355473,-8.3235712,-9.2148561,-10.086304,-10.917043,-11.563023,-11.828426,-11.603978,-10.968344,-10.172104,-9.5059118,-9.1372709,-9.0243635,-8.9648972,-8.7478189,-8.3080769,-7.7839494,-7.4411087,-7.5129309,-8.056509,-8.9094696,-9.7674904,-10.331652,-10.441488,-10.128903,-9.5799294,-9.0392952,-8.7106743,-8.690999,-8.9502363,-9.3487682,-9.6816511,-9.742487,-9.397543,-8.6487255,-7.6541529,-6.6821513,-6.0042653,-5.770721,-5.9325933,-6.2589417,-6.4483676,-6.2794151,-5.7183309,-4.9241924,-4.150053,-3.5990491,-3.3196285,-3.1987429,-3.0524268,-2.7564826,-2.3392928,-1.9841437,-1.9414829,-2.3998592,-3.3817902,-4.7126274,-6.0720682,-7.1021886,-7.5282631,-7.2509522,-6.3821731,-5.2138138,-4.1254745,-3.4558091,-3.3794372,-3.8392801,-4.5714059,-5.2232118,-5.5187421,-5.3926473,-5.0200062,-4.7175436,-4.760756,-5.2131133,-5.8646855,-6.3229322,-6.2152562,-5.3982062,-4.0599966,-2.6577525,-1.7184931,-1.6040378,-2.3556077,-3.6876163,-5.1211066,-6.1811256,-6.5632739,-6.2068567,-5.2696643,-4.0452867,-2.8738971,-2.0742533,-1.8928932,-2.453131,-3.7014515,-5.3774929,-7.0482197,-8.2268906,-8.5489101,-7.9290366,-6.6140232,-5.0872617,-3.8597324,-3.2495577,-3.2660742,-3.6593206,-4.1005177,-4.3813148,-4.5091267,-4.6437726,-4.9253964,-5.3185296,-5.5896606,-5.4470458,-4.7568774,-3.6866364,-2.6620057,-2.1411362,-2.3360913,-3.0601323,-3.8129654,-4.0693169,-3.6022456,-2.6397469,-1.7491822,-1.511434,-2.1800916,-3.5329535,-5.0045543,-6.0139995,-6.2840858,-5.9603467,-5.4714026,-5.2360253,-5.410593,-5.8299942,-6.1582332,-6.1283088,-5.7042251,-5.0674491,-4.4595103,-4.0092936,-3.6716857,-3.3118103,-2.8574824,-2.3942666,-2.1254816,-2.2251508,-2.6952698,-3.3378043,-3.8679094,-4.0905738,-4.0154138,-3.8286467,-3.7447338,-3.8468912,-4.0322714,-4.0998015,-3.9137404,-3.5205245,-3.130548,-2.974628,-3.1355236,-3.4727502,-3.6926014,-3.5139594,-2.8172662,-1.6825874,-0.30611828,1.1299238,2.5337868,3.8770041,5.0994954,6.0381069,6.4536304,6.1555357,5.1458435,3.6806221,2.1972196,1.1414413,0.79100561,1.1684828,2.074894,3.201951,4.246593,4.9742827,5.2309408,4.941772,4.1291766,2.9413803,1.6479579,0.56395519,-0.086878248,-0.30239606,-0.34056404,-0.62223887,-1.5335801,-3.2276614,-5.5306668,-7.9991741,-10.09089,-11.355067,-11.554014,-10.682184,-8.9122019,-6.524487,-3.8579938,-1.2774938,0.87233943,2.3432384,3.0679469,3.201057,3.0725043,3.0573871,3.4198961,4.2109275,5.2706075,6.3261104,7.1223722,7.5128846,7.47369,7.0579762,6.3429565,5.4133372,4.3864756,3.444298,2.8263726,2.7638671,3.3773332,4.5921512,6.1241655,7.5558901,8.4795208,8.6501245,8.0845728,7.0608959,6.0102096,5.3375754,5.2437634,5.6308908,6.1481295,6.3711991,6.0349693,5.1941051,4.2083702,3.5402122,3.468585,3.8924713,4.3640585,4.3589258,3.6327288,2.4349957,1.4170896,1.2576323,2.2224824,3.9452705,5.59654,6.3653188,5.9609103,4.8052897,3.7689898,3.5995309,4.408792,5.570282,6.123857,5.4494891,3.7751763,2.1658368,1.9601758,3.9781935,7.9812193,12.719502,16.542076,18.201767,17.386902,14.708452,11.22822,7.8852773,5.1884456,3.3010464,2.3351016,2.5285935,4.1027269,6.8961163,10.109226,12.47513,12.880226,11.091918,8.0806255,5.6129198,5.2526226,7.3443861,10.655722,13.006001,12.597657,9.2707205,4.8641672,2.3555136,4.1897931,10.747943,19.886982,27.89176,31.351652,28.915321,21.931793,13.631486,7.3495011,4.830668,5.5631971,7.4368296,8.2248793,6.9380641,4.2519507,1.8433034,1.1620001,2.4764698,4.7861586,6.5844193,6.895967,5.8695922,4.5522466,4.0513082,4.7056041,5.8570704,6.3762736,5.5574656,3.7352638,2.1646895,2.2163696,4.4181237,7.9948735,11.238413,12.492554,11.133838,7.930088,4.562242,2.6262915,2.7447305,4.3165951,6.006669,6.610713,5.7343221,3.8962657,2.0698092,1.0268372,0.92549902,1.3625772,1.7748642,1.8597212,1.7241296,1.7069561,2.0613804,2.7596297,3.5535171,4.2086854,4.6991434,5.1970534,5.8719368,6.6756945,7.3051624,7.3913951,6.77773,5.6666527,4.506762,3.6896372,3.2800524,2.9901731,2.4316099,1.4666303,0.39215633,-0.20058812,0.1855042,1.5824871,3.4731708,5.0709724,5.7859368,5.5629711,4.8617435,4.295588,4.1854529,4.3446794,4.2468715,3.4560924,2.0086567,0.4643113,-0.42621762,-0.2190821,0.90096587,2.2047589,2.8663154,2.4849854,1.3401657,0.21254317,-0.10951162,0.68265599,2.2453196,3.8202817,4.7126927,4.6947646,4.0881963,3.5001118,3.4100881,3.8838987,4.5827274,5.0289683,4.9267354,4.3208265,3.509424,2.8019493,2.3107643,1.9232643,1.4586985,0.87779456,0.37831399,0.29631215,0.87532794,2.0630682,3.4803877,4.5934458,4.9856167,4.5617952,3.5642905,2.4022439,1.4127121,0.70577919,0.18048342,-0.31987008,-0.83509952,-1.2253984,-1.2645175,-0.82409132,-0.017667981,0.80526167,1.2287061,1.0075728,0.22627923,-0.72703421,-1.3663163,-1.3771977,-0.79034334,0.047795784,0.69218314,0.87384182,0.66267693,0.41372782,0.52374202,1.144694,2.0346088,2.6495917,2.437479,1.1682311,-0.89359999,-3.0831525,-4.6521692,-5.1357446,-4.5677085,-3.4320786,-2.3888803,-1.9358799,-2.1919849,-2.904973,-3.6512408,-4.0918865,-4.1352329,-3.9301755,-3.7236154,-3.6892843,-3.8350708,-4.0314941,-4.1244349,-4.0504618,-3.884634,-3.8008106,-3.9763958,-4.4968414,-5.305131,-6.21348,-6.9685988,-7.3467321,-7.247685,-6.7530169,-6.1164875,-5.6733036,-5.6919007,-6.2322397,-7.090066,-7.8750668,-8.1991234,-7.8788028,-7.0336123,-6.0143108,-5.198144,-4.7767811,-4.6734185,-4.643549,-4.4881902,-4.225358,-4.0879583,-4.3365879,-5.0141926,-5.8266711,-6.2602143,-5.8843741,-4.648622,-2.9639444,-1.4917099,-0.75982159,-0.85551989,-1.4096678,-1.9004996,-2.0853264,-2.2658734,-3.1840189,-5.5794644,-9.6681232,-14.869557,-19.971731,-23.658276,-25.103632,-24.303995,-21.977415,-19.124863,-16.531412,-14.490623,-12.86729,-11.39364,-9.9654036,-8.7399874,-7.9982166,-7.8971786,-8.3040361,-8.8291264,-9.0327539,-8.6664848,-7.7981663,-6.7556548,-5.9400125,-5.6265359,-5.8576427,-6.4598351,-7.1451802,-7.6293273,-7.7168183,-7.3401423,-6.5603843,-5.5369987,-4.4692225,-3.5208206,-2.7605896,-2.1598344,-1.6628226,-1.2931852,-1.2160813,-1.6850514,-2.873878,-4.6862736,-6.6818829,-8.2085514,-8.7052345,-8.0146036,-6.5103145,-4.9373527,-4.0358701,-4.1593766,-5.1109352,-6.2903233,-7.0535035,-7.0584826,-6.3931675,-5.4339414,-4.561965,-3.9449201,-3.5234966,-3.1787913,-2.920908,-2.9297152,-3.4023142,-4.3240247,-5.3569064,-5.967689,-5.7426353,-4.6854148,-3.2809973,-2.2528412,-2.1481733,-3.0125418,-4.3675938,-5.511126,-5.9459801,-5.6590695,-5.0733037,-4.7154455,-4.8325944,-5.2205448,-5.3789511,-4.8834124,-3.7165296,-2.3281333,-1.3783497,-1.3304005,-2.1597703,-3.3681488,-4.2898779,-4.4905043,-4.0039325,-3.2665348,-2.8045864,-2.8847759,-3.350445,-3.7379901,-3.5874455,-2.7452104,-1.4728749,-0.30466685,0.2499748,-0.021773081,-0.94129103,-2.0580084,-2.8980126,-3.1955757,-2.9890049,-2.5495605,-2.2035868,-2.1533558,-2.3865371,-2.7063506,-2.8512859,-2.6356297,-2.0422742,-1.2298093,-0.45837784,0.025918005,0.093332984,-0.22559604,-0.77051139,-1.3362399,-1.7669775,-2.0117176,-2.1161988,-2.162771,-2.1994584,-2.2042279,-2.1078932,-1.8610398,-1.5011055,-1.1724083,-1.0780053,-1.382127,-2.1129785,-3.1196084,-4.1114759,-4.768424,-4.873744,-4.410151,-3.5736737,-2.695555,-2.1024964,-1.973951,-2.2600563,-2.7013493,-2.9484313,-2.7327373,-2.0098615,-1.0019914,-0.10877188,0.28014168,-0.01627728,-0.8615461,-1.8448284,-2.4637284,-2.3609614,-1.4980444,-0.17823923,1.09284,1.8388145,1.8216739,1.1300642,0.11349612,-0.79353243,-1.2648667,-1.203249,-0.74352211,-0.15526275,0.29501575,0.4537347,0.31949961,0.0093289409,-0.31684098,-0.52980375,-0.56952357,-0.43906805,-0.1690343,0.21925889,0.72683781,1.3584827,2.0863807,2.824152,3.436687,3.7914307,3.8296132,3.6182981,3.3479059,3.2663102,3.5748014,4.3339791,5.424387,6.5799394,7.4774613,7.8432865,7.5376215,6.5944214,5.2140393,3.7161758,2.4616344,1.7527902,1.7331705,2.3217061,3.2215257,4.0210857,4.3600087,4.0870347,3.3268981,2.4127347,1.7148957,1.4603727,1.6459239,2.0905857,2.5839758,3.0249739,3.4556172,3.9725356,4.589931,5.1665053,5.4636421,5.3024621,4.7066183,3.9181547,3.2612753,2.9424107,2.9295006,3.002713,2.9437149,2.721729,2.5271506,2.6125832,3.0528181,3.6161852,3.8783653,3.5365827,2.7152469,2.0215178,2.2527871,3.8953688,6.7243962,9.7907238,11.857098,12.057676,10.391973,7.7432303,5.3943639,4.3242226,4.7050548,5.8948026,6.9065485,7.0420179,6.2869167,5.2360868,4.6290298,4.824563,5.5669208,6.1873803,6.0901051,5.1863918,3.984868,3.280072,3.6466541,5.0672216,6.9263387,8.3630934,8.7519512,8.0169249,6.6080832,5.1893969,4.2561955,3.917757,3.9493709,4.0374932,4.0303578,4.027576,4.2674608,4.9081459,5.8601923,6.7826896,7.2434659,6.9422178,5.8648443,4.2869129,2.6354239,1.2931017,0.44962466,0.067046069,-0.039435081,-0.061949328,-0.081258386,-0.030932348,0.23984553,0.84159297,1.7298636,2.6724508,3.3315485,3.4313271,2.9258399,2.0675299,1.318601,1.1313287,1.7041249,2.8488052,4.0555463,4.7373357,4.5320768,3.5011518,2.1142449,1.0255889,0.75943184,1.4679642,2.8790784,4.445189,5.6020503,6.004077,5.6348858,4.7681441,3.8240206,3.1955118,3.1053536,3.5242956,4.1613455,4.5321589,4.1063323,2.5103061,-0.27774847,-3.833082,-7.3643599,-9.9709787,-10.983852,-10.233459,-8.1075716,-5.3620105,-2.7781119,-0.84376818,0.38165063,1.1666299,1.8546586,2.6228592,3.3936,3.9343948,4.0608778,3.7994852,3.402575,3.2109518,3.4569802,4.1341777,5.009943,5.7648358,6.1668639,6.1776991,5.9402895,5.6737957,5.5516734,5.6344204,5.8810873,6.2099733,6.5550051,6.8805423,7.1566,7.327579,7.3101573,7.0308924,6.4821057,5.7576771,5.0397291,4.5349264,4.3883781,4.6167374,5.0942883,5.6011796,5.9141378,5.8994517,5.5651383,5.0459051,4.5258737,4.1365938,3.8851445,3.6562555,3.2940068,2.7204289,2.0187466,1.4208091,1.1912863,1.4674567,2.1511834,2.9291887,3.4248855,3.401129,2.8932338,2.1859517,1.641633,1.4820122,1.66063,1.9095591,1.9333841,1.6255586,1.1630574,0.91083592,1.1908168,2.0611057,3.2483683,4.2803726,4.7385201,4.4754453,3.6690512,2.6922553,1.8941563,1.4354488,1.2706606,1.2611151,1.3141921,1.4380674,1.6779802,2.0004082,2.2381971,2.1652975,1.6648905,0.86807764,0.14108486,-0.10450231,0.32498503,1.2411236,2.1342075,2.444926,1.8904202,0.64138514,-0.76654333,-1.7366548,-1.941233,-1.4726039,-0.72900295,-0.12444294,0.17480747,0.31021723,0.55745018,1.0561291,1.6497856,1.9657832,1.6917368,0.85573834,-0.10138556,-0.54298073,-0.027668208,1.3703882,3.0296922,4.0827146,3.8857062,2.3818769,0.14304224,-1.9327531,-3.0871618,-3.0633941,-2.1729934,-1.0609258,-0.33393267,-0.27329153,-0.77176696,-1.4826783,-2.0500371,-2.2722838,-2.1310124,-1.7207284,-1.168951,-0.60927427,-0.19799298,-0.11409229,-0.49626535,-1.3369913,-2.4143174,-3.3406751,-3.7353983,-3.4329565,-2.594049,-1.6335388,-0.99368125,-0.89763302,-1.239956,-1.6867384,-1.9198107,-1.8604065,-1.7174041,-1.8219447,-2.3575392,-3.1729572,-3.8180275,-3.7975738,-2.8900242,-1.324541,0.30819118,1.3699899,1.5277627,0.92880124,0.089547969,-0.43495238,-0.3980639,-0.012276068,0.18753326,-0.31667838,-1.6915182,-3.6234565,-5.4708719,-6.6040077,-6.7332797,-6.041244,-5.0553541,-4.349484,-4.2519927,-4.7184381,-5.4184575,-5.9597354,-6.1042776,-5.8570843,-5.4005647,-4.9450583,-4.6063251,-4.3851099,-4.2424173,-4.1953464,-4.3474007,-4.8200641,-5.6295571,-6.6009746,-7.3956132,-7.6562405,-7.1945262,-6.1093922,-4.7595639,-3.5986516,-2.9633722,-2.9333687,-3.3364007,-3.8845825,-4.3510256,-4.6795807,-4.970644,-5.3687797,-5.9376817,-6.6077247,-7.2246428,-7.656302,-7.8778715,-7.977149,-8.0832872,-8.2772579,-8.5513792,-8.8427792,-9.1054392,-9.3543987,-9.6389055,-9.9621563,-10.216722,-10.203627,-9.7446871,-8.8213167,-7.6373563,-6.541522,-5.838388,-5.6025109,-5.6242733,-5.5397468,-5.0749693,-4.2494955,-3.3978355,-2.9793167,-3.2868164,-4.2392578,-5.3973866,-6.2021251,-6.2903304,-5.6901708,-4.7751594,-4.0118928,-3.6690688,-3.6748328,-3.705277,-3.4301071,-2.7408385,-1.8088257,-0.94738382,-0.39137581,-0.16046834,-0.1016208,-0.06628748,-0.071930051,-0.30705628,-0.95972443,-1.9947104,-3.0633769,-3.6513348,-3.3989153,-2.3876646,-1.1796206,-0.54355317,-1.0120591,-2.5435438,-4.5166426,-6.0811443,-6.6573462,-6.2699566,-5.5000172,-5.0815706,-5.4024978,-6.235908,-6.8817506,-6.6302962,-5.2455335,-3.1495423,-1.1824362,-0.090720989,-0.076340973,-0.69980156,-1.1978405,-1.0027665,-0.11789011,0.89971733,1.3352176,0.82255346,-0.38271752,-1.5538793,-1.9725206,-1.4177541,-0.33189532,0.46129712,0.31197643,-0.7900362,-2.1556888,-2.8027229,-2.0834522,-0.13765056,2.1266,3.5302544,3.3056204,1.552545,-0.80585366,-2.5379748,-2.779402,-1.4760871,0.64131212,2.4981575,3.2400718,2.5869532,0.80837619,-1.5955031,-4.2509751,-7.0613704,-10.07962,-13.237481,-16.163118,-18.247166,-18.933634,-18.047701,-15.939707,-13.342525,-11.02442,-9.4453869,-8.6116066,-8.1860981,-7.7520056,-7.0462084,-6.0304117,-4.7984886,-3.4339778,-1.9494921,-0.35488975,1.2173377,2.4605834,3.0007467,2.6238537,1.4797357,0.10505065,-0.79041344,-0.67843068,0.49039817,2.2280126,3.7385769,4.3193474,3.7150512,2.2340367,0.56948626,-0.56806177,-0.80355465,-0.25162417,0.5945006,1.1615912,1.1127664,0.51563269,-0.21505019,-0.55687582,-0.16877134,0.92088139,2.320327,3.4685633,3.9178727,3.5616367,2.6910002,1.8491387,1.5550474,2.0385201,3.1256621,4.3370185,5.1460333,5.2562938,4.7443008,3.9906421,3.4450505,3.3678687,3.702173,4.1482263,4.3848343,4.2902341,4.017231,3.873172,4.0840802,4.6005454,5.0795317,5.0651083,4.2632527,2.7429385,0.93771541,-0.55846024,-1.2854489,-1.1360281,-0.38417599,0.47941273,1.0008684,0.96519482,0.4525466,-0.25375941,-0.83185959,-1.0613773,-0.87826842,-0.34534532,0.41628259,1.2843471,2.1572902,2.9494562,3.5835972,3.997153,4.1607609,4.0948391,3.8713524,3.5981448,3.39254,3.3529401,3.5339308,3.9283414,4.4616008,5.0056658,5.4156861,5.5803723,5.464993,5.1240191,4.6749024,4.2468419,3.9339697,3.7776945,3.7806883,3.9310775,4.2096505,4.5712318,4.9204741,5.1172328,5.0307555,4.62217,4.0001616,3.3960967,3.0501792,3.0638649,3.3110728,3.4786441,3.2310209,2.4106345,1.151528,-0.17185459,-1.1383809,-1.5015279,-1.3013444,-0.79819381,-0.27543953,0.1538945,0.60343444,1.2929134,2.3349054,3.5824177,4.6557083,5.1464944,4.8727551,4.0135493,3.0249143,2.3801479,2.297111,2.6290514,2.9918756,3.0453253,2.741735,2.3736923,2.3822768,3.0455124,4.249135,5.493608,6.1440754,5.7781,4.4265256,2.5703373,0.90417689,0.0095003806,0.11748927,1.0697616,2.4595711,3.8415105,4.8876014,5.4343195,5.4495959,4.9895844,4.1897292,3.2754257,2.5393164,2.2507219,2.5243919,3.2296872,4.018352,4.4818187,4.3606791,3.6830542,2.7430949,1.9279581,1.4981983,1.4567058,1.5833331,1.6042528,1.379654,0.9874835,0.65646255,0.60501373,0.90217441,1.4433825,2.0472555,2.5930791,3.0932972,3.6477375,4.3168545,5.0141854,5.5079703,5.5452771,5.0230212,4.0912375,3.1127126,2.4935448,2.4810636,3.0453432,3.9077046,4.6913338,5.102684,5.0466728,4.6295867,4.0727186,3.6013651,3.3687565,3.4357612,3.7889459,4.3666425,5.0771484,5.8143725,6.4828138,7.0303817,7.4692435,7.8621993,8.2726231,8.7059193,9.0847683,9.2832699,9.2051392,8.8559599,8.357398,7.8871589,7.579915,7.4546795,7.4196105,7.3536692,7.2100997,7.0686908,7.0958548,7.4345088,8.0957174,8.9265013,9.6792822,10.140571,10.23558,10.040184,9.6933165,9.271019,8.7118063,7.8519487,6.5566664,4.8655496,3.0516188,1.5380403,0.70010293,0.65398467,1.1534202,1.6667069,1.6131908,0.65043461,-1.1324317,-3.2208583,-4.8908443,-5.5386271,-4.9654875,-3.4741416,-1.723151,-0.407886,0.071166158,-0.21941355,-0.82435131,-1.1851778,-0.97285491,-0.27711418,0.45996395,0.73083216,0.30082089,-0.60977447,-1.4220248,-1.5302242,-0.67881739,0.84432149,2.3266082,3.0062685,2.49259,0.98614669,-0.83067977,-2.1678219,-2.5456038,-2.0154192,-1.0673946,-0.30198029,-0.079969108,-0.36420584,-0.83063602,-1.1489261,-1.2287941,-1.2639612,-1.5523933,-2.2289534,-3.1078103,-3.7567928,-3.7658098,-3.0349267,-1.8868201,-0.91808456,-0.67193872,-1.3311639,-2.6185694,-3.9617879,-4.8149834,-4.9382591,-4.4722147,-3.7822573,-3.1929998,-2.7933683,-2.4331527,-1.8961979,-1.1167495,-0.28068456,0.2639797,0.23093614,-0.39599401,-1.3129904,-2.0475428,-2.2245729,-1.787119,-1.03803,-0.4788577,-0.54429269,-1.3902129,-2.8550253,-4.6047001,-6.3596478,-8.0557461,-9.8373585,-11.888296,-14.209956,-16.493055,-18.177628,-18.686769,-17.715763,-15.420345,-12.396865,-9.4560566,-7.2996407,-6.2569757,-6.202723,-6.6790347,-7.1423736,-7.201611,-6.7359185,-5.8596082,-4.7875843,-3.6991062,-2.6784458,-1.7467505,-0.93546182,-0.32903999,-0.036006834,-0.10720953,-0.46574956,-0.91088426,-1.2090205,-1.22191,-0.98962545,-0.70852715,-0.60979378,-0.81029153,-1.2298743,-1.6309959,-1.7602917,-1.5062163,-0.97421408,-0.43040642,-0.14532828,-0.23037258,-0.5635922,-0.8471815,-0.76157606,-0.12810065,1.0061947,2.397311,3.7174804,4.6840982,5.1414928,5.0724759,4.5602002,3.7399027,2.7680075,1.8084375,1.0172284,0.51096714,0.32599202,0.39432663,0.56100529,0.64482594,0.51576841,0.14886865,-0.37343362,-0.90813404,-1.3176882,-1.5187037,-1.4943408,-1.2787492,-0.93793654,-0.56485534,-0.28387868,-0.24117458,-0.56088078,-1.273573,-2.2551799,-3.2257106,-3.8333833,-3.8006785,-3.0635753,-1.8256457,-0.48623595,0.53070313,0.96242177,0.81046641,0.30719763,-0.23188919,-0.5835017,-0.71934557,-0.78212076,-0.95814741,-1.332629,-1.8222154,-2.2291968,-2.3830142,-2.2767801,-2.1054752,-2.1705499,-2.6984351,-3.6777439,-4.8159895,-5.6522603,-5.774148,-5.0263853,-3.6001942,-1.9555429,-0.61692852,0.052288774,-0.013839267,-0.59510583,-1.3228292,-1.8618017,-2.042979,-1.8923599,-1.5641265,-1.2344018,-1.0212096,-0.9665373,-1.0711508,-1.3416191,-1.8090024,-2.505831,-3.4211617,-4.4699197,-5.5027409,-6.3543544,-6.9029055,-7.1063304,-6.9989753,-6.6583428,-6.1696525,-5.6116896,-5.0657511,-4.6267023,-4.3902912,-4.4089785,-4.6385293,-4.916605,-5.0057678,-4.6970286,-3.9272811,-2.8432424,-1.7637656,-1.0453818,-0.91330618,-1.3467281,-2.0836084,-2.7468622,-3.0262406,-2.8184884,-2.2520657,-1.5888948,-1.0650945,-0.76499677,-0.59893548,-0.39135075,-0.020050976,0.4804934,0.91478711,1.0237812,0.62863261,-0.2585434,-1.4143342,-2.481185,-3.1008844,-3.0428588,-2.2780075,-0.98047739,0.53069586,1.8832035,2.7498014,2.93242,2.414963,1.369544,0.10784731,-1.0145696,-1.7123165,-1.8606279,-1.5262998,-0.92823064,-0.34800351,-0.030040195,-0.10776029,-0.57220495,-1.2792763,-1.9849199,-2.403904,-2.2933722,-1.5524914,-0.30447891,1.0924509,2.1468282,2.4369364,1.8326318,0.61160696,-0.62537432,-1.2346905,-0.87716776,0.26200166,1.5295501,2.1374617,1.604715,0.05397125,-1.8252097,-3.1461773,-3.3237128,-2.4065561,-1.0381272,-0.061806556,-0.0084699513,-0.78290069,-1.746532,-2.1462066,-1.6176209,-0.44080037,0.62036681,0.7976411,-0.18560238,-1.9180728,-3.5313976,-4.2152586,-3.6958976,-2.3838086,-1.1089773,-0.6203925,-1.1656146,-2.40026,-3.6571968,-4.3783131,-4.4249911,-4.0846949,-3.8036973,-3.8527501,-4.1587467,-4.4025965,-4.2913241,-3.7953672,-3.1773038,-2.7946782,-2.8234692,-3.1053865,-3.2342372,-2.8284233,-1.8057189,-0.47255093,0.63674462,1.0704008,0.72390127,-0.10227425,-0.87736642,-1.1297154,-0.67419904,0.34287018,1.5781231,2.6962199,3.5150177,4.0236468,4.3005772,4.4161801,4.3923068,4.2306571,3.9646544,3.6784365,3.4729798,3.4083719,3.4712281,3.5935493,3.7054222,3.7772648,3.8194921,3.8469462,3.8471978,3.7875438,3.6577146,3.5064132,3.4259038,3.4786897,3.6150239,3.6539242,3.3667009,2.6283762,1.5406797,0.43167445,-0.29092523,-0.3564595,0.21423781,1.1184815,1.9442012,2.3968918,2.4358265,2.2363923,2.0156531,1.8529638,1.6389614,1.190797,0.44599605,-0.41778991,-1.0437518,-1.1150532,-0.58726019,0.23662916,0.86258608,0.9095549,0.36529377,-0.38563865,-0.80094343,-0.54938775,0.22269671,0.9055962,0.72751743,-0.83097941,-3.7555974,-7.512403,-11.334976,-14.5958,-17.03285,-18.710598,-19.777237,-20.213871,-19.768694,-18.133257,-15.24142,-11.474086,-7.6019411,-4.4646831,-2.5620124,-1.8026514,-1.5740459,-1.1052272,0.083678447,1.9088192,3.7879984,5.0050297,5.1562152,4.4135499,3.4481914,3.0581243,3.7168019,5.3035727,7.1690264,8.4941111,8.7359838,7.9103856,6.5609736,5.447093,5.1362252,5.7285619,6.8515663,7.9015851,8.3749609,8.0985212,7.2494259,6.1895876,5.2438917,4.5635986,4.1382823,3.9105186,3.8826275,4.1252933,4.684154,5.467298,6.2191963,6.626565,6.500463,5.9103608,5.1637645,4.6237807,4.4722672,4.5767646,4.5636373,4.0678091,3.0063367,1.6941667,0.71172875,0.59152377,1.5123869,3.1928773,5.0527291,6.5405998,7.4195828,7.8312306,8.107151,8.4667616,8.8166761,8.7978067,8.0551138,6.5465174,4.67061,3.1060281,2.446456,2.8568616,3.9727275,5.1133075,5.6801653,5.4937959,4.8625588,4.3510327,4.4059839,5.0821486,6.0354662,6.7710524,6.9695268,6.6746244,6.2294211,6.0218196,6.2233424,6.6978722,7.130074,7.2690253,7.1078973,6.8737116,6.8403153,7.1031146,7.4791451,7.6063113,7.176641,6.1469636,4.7874665,3.5382836,2.7689929,2.5918634,2.8347464,3.1713972,3.3122892,3.1378131,2.7119932,2.1998348,1.7633262,1.5013461,1.4472588,1.5924484,1.8990105,2.2958281,2.683656,2.9725747,3.1392584,3.2555535,3.4440882,3.7686536,4.1312613,4.2680988,3.8832822,2.8589182,1.4034034,0.013136404,-0.767187,-0.65924478,0.15890299,1.129699,1.6383162,1.3919308,0.61341101,-0.087993838,-0.10182483,0.7812826,2.2100413,3.4655974,3.8904047,3.2818434,2.0013947,0.73551416,0.069773085,0.15440078,0.67008549,1.0981281,1.0980368,0.73373419,0.40367559,0.53770679,1.2800336,2.3779957,3.3455791,3.7778928,3.5931599,3.0385821,2.4690199,2.0687647,1.722995,1.1340299,0.098740466,-1.2551936,-2.4528813,-2.9052277,-2.2507262,-0.58960807,1.5374792,3.411536,4.4762721,4.5604863,3.8740995,2.8184254,1.7555034,0.87907964,0.23477839,-0.17430276,-0.309268,-0.1151934,0.3826223,0.99782455,1.405149,1.2791369,0.47484171,-0.86314952,-2.3390744,-3.4795015,-3.9497464,-3.6989603,-2.9641533,-2.1420083,-1.6015154,-1.52802,-1.8614484,-2.3423855,-2.6372912,-2.4909348,-1.8496082,-0.90696466,-0.045660824,0.31570521,-0.084283806,-1.2045978,-2.6870005,-3.9996829,-4.6826777,-4.5713644,-3.8718307,-3.0363235,-2.501936,-2.4413862,-2.6743827,-2.7947693,-2.4374652,-1.5218507,-0.32206073,0.6780802,1.0550569,0.67674887,-0.23839267,-1.2555853,-1.9559152,-2.1233196,-1.7898569,-1.1445519,-0.39501309,0.31764618,0.91082305,1.3006715,1.370468,1.0157658,0.24099995,-0.77428913,-1.7137371,-2.2702761,-2.3200254,-2.0095842,-1.6870351,-1.7042098,-2.2040937,-3.0235152,-3.7751455,-4.064765,-3.7183874,-2.8881061,-1.9775345,-1.4304597,-1.4995615,-2.1160479,-2.9213679,-3.4372687,-3.2876401,-2.3710098,-0.91437536,0.60653591,1.6438662,1.7828165,0.90012133,-0.78273165,-2.7743678,-4.4923449,-5.4786282,-5.5638556,-4.9096012,-3.9101639,-3.0012531,-2.4679184,-2.3431416,-2.4394941,-2.4863231,-2.2921858,-1.845771,-1.3087269,-0.91534454,-0.8415013,-1.1145883,-1.6074914,-2.1125832,-2.4525526,-2.5706544,-2.5562012,-2.5925031,-2.8499801,-3.3739707,-4.0245967,-4.5090289,-4.5066261,-3.8379278,-2.594054,-1.1476269,-0.017752081,0.36021349,-0.15273693,-1.3216674,-2.6470878,-3.6098626,-3.9193895,-3.6275697,-3.0499303,-2.5518508,-2.3384559,-2.3776073,-2.4915285,-2.5364935,-2.5315437,-2.6378784,-3.0032892,-3.5910561,-4.1330471,-4.2632928,-3.756561,-2.7098739,-1.5294809,-0.71121174,-0.54513711,-0.93652022,-1.4667886,-1.6626796,-1.3020543,-0.55767077,0.11414633,0.26405483,-0.27433535,-1.3041207,-2.4274459,-3.3346362,-4.0231466,-4.8029118,-6.0923548,-8.146965,-10.896897,-13.983331,-16.943197,-19.399918,-21.136686,-22.036659,-21.984718,-20.851433,-18.601835,-15.450582,-11.919572,-8.7025547,-6.3775005,-5.1332712,-4.6946011,-4.5136933,-4.1200004,-3.4048021,-2.6502314,-2.2800353,-2.5010648,-3.087909,-3.4746685,-3.1114657,-1.856205,-0.13362268,1.2647049,1.633599,0.78515887,-0.81273556,-2.281203,-2.812876,-2.1045759,-0.49270403,1.2667376,2.4192758,2.5790911,1.8500537,0.67989236,-0.41523033,-1.0724322,-1.1465359,-0.64507204,0.35579729,1.7244334,3.2202902,4.4622712,5.0085201,4.5506973,3.1178749,1.1432679,-0.68684822,-1.7464316,-1.7748697,-0.99372351,0.038375054,0.74805975,0.85619277,0.49592707,0.084484652,0.042961851,0.54098815,1.4117016,2.2668514,2.7219796,2.5915003,1.9544103,1.0831844,0.30512604,-0.11813758,-0.047126696,0.53403181,1.5355082,2.7774198,4.0130124,4.9823956,5.4987392,5.5306129,5.2247458,4.8370662,4.5964789,4.5764761,4.6548586,4.5922194,4.185637,3.4048474,2.4278815,1.5557574,1.0594286,1.0490235,1.4340503,1.9827474,2.4321129,2.5834696,2.3455889,1.7313565,0.83883381,-0.1618174,-1.0435549,-1.5657256,-1.55705,-1.0113086,-0.13758883,0.6857875,1.0551256,0.72190559,-0.2837123,-1.6566513,-2.9496255,-3.7649059,-3.9061644,-3.4214063,-2.535362,-1.5286989,-0.63628167,-0.0039317086,0.30663267,0.30332235,0.066441104,-0.24105598,-0.39166009,-0.16474868,0.54680985,1.6548685,2.8825412,3.8760812,4.370398,4.3128343,3.8673697,3.2937613,2.778553,2.3297467,1.8071381,1.0683599,0.12761566,-0.79170668,-1.3623183,-1.3594257,-0.8337847,-0.12600879,0.30769184,0.16420271,-0.50825614,-1.3149127,-1.733777,-1.4258161,-0.44861025,0.76144248,1.6342683,1.7939919,1.2717897,0.47512537,-0.065464884,-0.014020045,0.58469194,1.3609251,1.8739843,1.8958373,1.5403979,1.1579899,1.0705309,1.3287098,1.6589977,1.6419812,1.0073093,-0.1527534,-1.4013385,-2.2064869,-2.2663095,-1.6965578,-0.95050299,-0.51404864,-0.57071942,-0.85942823,-0.82990193,-0.0081623839,1.6579611,3.7006526,5.3577347,5.9932642,5.45648,4.1563058,2.8049512,1.9913808,1.8507063,2.0315998,1.9718417,1.2965586,0.079528593,-1.1982558,-1.9603415,-1.9106725,-1.2299223,-0.46834785,-0.20756598,-0.70827389,-1.7632706,-2.838625,-3.4033139,-3.2364252,-2.5281465,-1.7299607,-1.2664415,-1.2950207,-1.6526402,-1.9992551,-2.0473366,-1.7281908,-1.2047939,-0.74723661,-0.56701636,-0.71382052,-1.0802171,-1.485207,-1.7683069,-1.8401927,-1.6816226,-1.319003,-0.80763507,-0.22853804,0.31943429,0.7496922,1.0328503,1.2242036,1.4429175,1.8033659,2.3379555,2.9640305,3.5212934,3.8565161,3.8974633,3.666122,3.2291915,2.6345892,1.8953588,1.0426229,0.20541027,-0.36218667,-0.36107132,0.38783479,1.7918006,3.4610312,4.8565779,5.5468554,5.4273138,4.767199,4.0486865,3.6935582,3.8446543,4.3325934,4.8356633,5.114428,5.158504,5.1509781,5.2875471,5.5903373,5.8576994,5.7911382,5.2103496,4.2009268,3.0848031,2.2289875,1.8240893,1.7866672,1.8517691,1.7861509,1.5663515,1.3915392,1.5213799,2.0577576,2.8331769,3.4948497,3.7335484,3.4996865,3.0529284,2.8047996,3.0571663,3.8122118,4.7798843,5.5723386,5.9471812,5.9324546,5.7546792,5.6329761,5.5957384,5.4558663,4.962337,4.0155263,2.7848432,1.6350127,0.90333575,0.67858428,0.73625988,0.68177795,0.21405357,-0.65883905,-1.5893309,-2.0648286,-1.6808696,-0.35502404,1.629039,3.750921,5.4674783,6.398097,6.4122705,5.6194973,4.304009,2.8440015,1.6269138,0.95637333,0.95991021,1.5342712,2.3721347,3.0809195,3.3470786,3.0612292,2.3356323,1.412079,0.52896231,-0.16207673,-0.58657849,-0.68192917,-0.3628301,0.42227167,1.5710819,2.7507761,3.4717562,3.3222451,2.2416418,0.64313018,-0.73971522,-1.2356832,-0.63196599,0.67492998,1.8989044,2.3441684,1.8497679,0.90185267,0.31638098,0.67449719,1.8687825,3.0667512,3.1426671,1.3304996,-2.2953274,-6.8026228,-10.853142,-13.346582,-13.880715,-12.791608,-10.813674,-8.6237078,-6.5637202,-4.6716704,-2.9181144,-1.4163058,-0.42690662,-0.16140839,-0.55633819,-1.2167234,-1.5977547,-1.3100159,-0.337075,0.98385608,2.195498,2.9944565,3.3540521,3.4301751,3.3538103,3.0957286,2.520365,1.5823469,0.49049088,-0.32397842,-0.44940165,0.21374311,1.3309203,2.2967565,2.594053,2.1086276,1.1792111,0.34433508,-0.035508804,-0.011125111,0.031281564,-0.3065168,-1.1071564,-2.0503001,-2.6287014,-2.5021811,-1.7211719,-0.65412176,0.31520572,1.0722958,1.8023552,2.7353866,3.8167982,4.6004124,4.5070381,3.2992976,1.4127686,-0.16662315,-0.48439544,0.69235682,2.5700078,3.6972806,2.8534675,-0.085415527,-3.8933318,-6.5903182,-6.5780802,-3.6268542,0.91961873,4.8800321,6.4775763,5.3258724,2.5565362,0.032119472,-0.83419019,0.10158644,1.7512294,2.6154902,1.8161403,-0.34208834,-2.6194997,-3.6920621,-3.0137155,-1.1248783,0.76103365,1.5755461,1.0541108,-0.18269379,-1.1298476,-1.0957172,-0.11122721,1.1978457,2.1319251,2.4234915,2.3594699,2.4538541,2.9421484,3.4994223,3.4169323,2.131768,-0.26557723,-2.9263601,-4.656961,-4.6110535,-2.8202078,-0.21324991,1.9017907,2.5770361,1.7318686,0.12699327,-1.1566747,-1.3929007,-0.6189431,0.45575181,0.9541626,0.4140515,-0.91521114,-2.227948,-2.6521094,-1.7633407,0.17915687,2.3912342,3.9960177,4.4661646,3.8367653,2.6060078,1.4218259,0.7514869,0.70509291,1.0698969,1.4908673,1.6734552,1.5053129,1.063208,0.53698874,0.12962836,-0.020953117,0.11860992,0.4732016,0.88514656,1.1671864,1.1748215,0.87460423,0.37295115,-0.12189709,-0.3992317,-0.36074349,-0.085080273,0.20375611,0.25649491,-0.056557007,-0.66126478,-1.3105586,-1.7174836,-1.7140869,-1.341843,-0.81996465,-0.41309032,-0.2817955,-0.40834174,-0.64003116,-0.81611001,-0.89127225,-0.9735378,-1.2529995,-1.8704307,-2.8131998,-3.9051287,-4.8930311,-5.5696554,-5.8540406,-5.7864819,-5.4588418,-4.9444928,-4.2844815,-3.5339327,-2.8164752,-2.3197377,-2.2073538,-2.4940448,-2.9765856,-3.2942173,-3.1119313,-2.3295257,-1.1832182,-0.15790129,0.2582671,-0.15924819,-1.2433215,-2.5279558,-3.5085449,-3.9104233,-3.8011847,-3.4838002,-3.2511599,-3.1732781,-3.0644128,-2.6523881,-1.8298359,-0.80359179,-0.021213101,0.09631934,-0.55256349,-1.6317385,-2.5217221,-2.6701744,-1.9282942,-0.65975833,0.45616129,0.81539667,0.23753449,-0.94160891,-2.0887959,-2.6645563,-2.5403121,-2.0433877,-1.7065556,-1.8884938,-2.51561,-3.1185555,-3.1469824,-2.3631067,-1.0567559,0.069567353,0.29085076,-0.7068345,-2.6168828,-4.6628036,-6.025744,-6.2941289,-5.6650696,-4.7791009,-4.2965817,-4.4840069,-5.0706682,-5.4634418,-5.1780858,-4.20436,-3.0614843,-2.4972157,-3.014807,-4.5288558,-6.3761916,-7.685492,-7.8801622,-7.0005856,-5.6438966,-4.5623016,-4.1797299,-4.3385863,-4.4386573,-3.8741505,-2.4792001,-0.68491364,0.72137457,1.083604,0.29687479,-1.1134161,-2.3073752,-2.6415067,-2.0509472,-1.0647023,-0.45234552,-0.73339152,-1.8596494,-3.2599909,-4.2010026,-4.2219424,-3.3713782,-2.1168258,-1.0143175,-0.36858457,-0.098484099,0.13050364,0.62393159,1.4289014,2.3042266,2.889219,2.9381621,2.4577136,1.6679091,0.8350808,0.10647947,-0.54098201,-1.2182037,-1.984671,-2.7612028,-3.3551342,-3.5722835,-3.3316784,-2.7064359,-1.8745422,-1.0261689,-0.29366589,0.26177129,0.62405103,0.80045122,0.83011431,0.80611134,0.86848319,1.1429844,1.6504877,2.2528644,2.6936121,2.7316794,2.2945864,1.5473531,0.81637746,0.40050596,0.38327333,0.57119805,0.6090169,0.20847918,-0.65185845,-1.6870852,-2.4599457,-2.638937,-2.2037697,-1.473452,-0.94346064,-1.0354383,-1.9110433,-3.4512286,-5.3904295,-7.4967489,-9.6691675,-11.891241,-14.088991,-16.013849,-17.259193,-17.428524,-16.36433,-14.292458,-11.775312,-9.4776678,-7.8632331,-6.9876943,-6.5038481,-5.8763008,-4.6862359,-2.8597686,-0.70102447,1.2762488,2.6148674,3.1287646,2.9573984,2.4490383,1.956942,1.6705352,1.5688187,1.5026555,1.3377721,1.0644454,0.81193155,0.7704677,1.0778534,1.7410144,2.6323922,3.5520151,4.3108125,4.7888579,4.9484634,4.8140368,4.4460044,3.9274909,3.3617978,2.8645382,2.5387261,2.4389467,2.5465739,2.7771006,3.0220304,3.2043369,3.3154881,3.4121237,3.574728,3.8529286,4.2275643,4.6069393,4.8543611,4.8307509,4.4363642,3.6438465,2.5204661,1.2338051,0.028875075,-0.83297819,-1.1644185,-0.93666553,-0.30949056,0.42574853,0.97753012,1.1982301,1.159568,1.1080166,1.316718,1.9159466,2.8040092,3.6964107,4.2873759,4.4263153,4.2003026,3.8715954,3.7110467,3.8338029,4.1402478,4.3946223,4.3840046,4.0505958,3.5133426,2.9730644,2.5740743,2.3207128,2.1035094,1.8090004,1.4275811,1.0765256,0.91855103,1.0336355,1.3388761,1.6204822,1.6651118,1.4072526,0.99398863,0.71894628,0.85982454,1.5147598,2.53351,3.5819359,4.3008447,4.4705005,4.0967751,3.3849621,2.6287289,2.0792494,1.8575621,1.9413377,2.217335,2.5635459,2.9177232,3.3001258,3.7805951,4.4068604,5.1334052,5.7972198,6.1688819,6.0664711,5.4747219,4.5923119,3.7581015,3.2762668,3.2327034,3.420023,3.4385219,2.9355972,1.849558,0.50307947,-0.52875823,-0.71318305,0.15331441,1.839285,3.8160911,5.5459027,6.7311883,7.3700647,7.6035028,7.4928775,6.9185767,5.6989651,3.8534799,1.800387,0.29370236,0.070632637,1.3943003,3.7867174,6.163909,7.3472223,6.6799769,4.3908529,1.4806124,-0.81007159,-1.6443986,-0.97599769,0.52457827,1.9236571,2.5598752,2.3428862,1.6751958,1.1055448,0.97445762,1.2780807,1.795303,2.3334482,2.8816237,3.5564101,4.4006371,5.2186651,5.6085672,5.2018118,3.9543424,2.2745948,0.86980158,0.37983373,1.0173247,2.440563,3.9432461,4.8471966,4.86026,4.1906161,3.3667247,2.8927879,2.9580367,3.3654168,3.6964021,3.5851972,2.9266946,1.9067737,0.86648011,0.10743383,-0.24083051,-0.23445185,-0.037534107,0.17276798,0.25937593,0.12979329,-0.2728633,-0.95682645,-1.8467051,-2.7632253,-3.4577806,-3.7064531,-3.420013,-2.7034705,-1.8210024,-1.0769094,-0.67426574,-0.62657499,-0.7660135,-0.837286,-0.62291312,-0.03819257,0.84050286,1.8127587,2.6296682,3.0762827,3.0384562,2.5407879,1.7459764,0.90908641,0.29218093,0.065662019,0.23980999,0.66581559,1.1137226,1.38994,1.4283911,1.3007019,1.1404508,1.0342233,0.95777816,0.80692595,0.50547665,0.11142692,-0.1666103,-0.075702861,0.5063051,1.4404765,2.341758,2.7550817,2.4030421,1.3590206,0.033881236,-1.0270767,-1.4236934,-1.0946281,-0.31420749,0.49727991,1.0257666,1.2206783,1.2674967,1.4094248,1.7493889,2.1714408,2.4341311,2.3670337,2.0271049,1.6956896,1.7046275,2.2002375,3.0053732,3.6852152,3.7936034,3.1558933,2.0101895,0.90729743,0.41483313,0.79409522,1.8422548,2.9996819,3.6668396,3.549294,2.829124,2.0596037,1.8405122,2.4601269,3.7113101,4.9904718,5.6258554,5.2495446,4.0013752,2.4483833,1.2655056,0.85987103,1.1529319,1.6440295,1.7165513,1.0082643,-0.3693915,-1.8894042,-2.9090197,-3.0342433,-2.335422,-1.2898977,-0.49056715,-0.29820475,-0.64691734,-1.1176839,-1.2309686,-0.77614737,0.026914464,0.63637745,0.50530308,-0.58091742,-2.3468463,-4.1426201,-5.2668686,-5.3143678,-4.3587737,-2.8819134,-1.5052381,-0.68115062,-0.50771564,-0.74636853,-1.0057726,-0.97397649,-0.5744071,0.020282287,0.5013085,0.59125012,0.18191449,-0.61352426,-1.5065768,-2.1520839,-2.2911839,-1.8634677,-1.0417979,-0.16883431,0.38592011,0.38897622,-0.15309593,-1.0060203,-1.8353392,-2.3809495,-2.5777202,-2.5495179,-2.4823897,-2.4635952,-2.4009411,-2.0871522,-1.3741843,-0.33848792,0.68911427,1.2734575,1.1280745,0.3142322,-0.75152123,-1.5054957,-1.5482906,-0.87648028,0.10396001,0.78821236,0.67676103,-0.40810877,-2.3091576,-4.7035952,-7.3196168,-10.046947,-12.875696,-15.726665,-18.316238,-20.175653,-20.835239,-20.065994,-18.025118,-15.209592,-12.242875,-9.6220417,-7.5694332,-6.0561299,-4.9499154,-4.1661477,-3.7140963,-3.6191308,-3.7984819,-4.0058713,-3.9120114,-3.2872565,-2.169461,-0.89370441,0.060820457,0.33499292,-0.086461745,-0.83288956,-1.3292198,-1.1108574,-0.095503584,1.3504982,2.6021988,3.1249976,2.7856145,1.9391218,1.2283593,1.2005125,1.9629372,3.0918992,3.8679843,3.7155392,2.5859044,1.0378602,-0.061824203,-0.060427297,1.0485533,2.5661874,3.4712656,3.039021,1.3211875,-0.82704145,-2.2217162,-2.0586927,-0.42305785,1.7310699,3.1405318,3.0009253,1.4663225,-0.43860096,-1.4483253,-0.83846027,1.1286536,3.3701625,4.6470261,4.3005195,2.6022086,0.52172899,-0.9036864,-1.1720765,-0.5161044,0.38156143,0.90961993,0.90457219,0.64226389,0.50499982,0.61903673,0.75576824,0.56398183,-0.071340472,-0.85362804,-1.2490593,-0.89334887,0.087212108,1.113344,1.5524035,1.1916901,0.41319716,-0.095833376,0.094246551,0.74749207,1.0583735,0.23776971,-1.8157631,-4.2815366,-5.8659229,-5.6848254,-3.9656181,-2.0150497,-1.3830807,-2.7436028,-5.2848797,-7.1231589,-6.5693612,-3.4445388,0.48813754,2.3918839,0.089052945,-6.4073229,-14.587911,-20.666046,-21.655693,-17.067005,-9.180644,-1.7296559,2.2016826,1.7867943,-1.3584416,-4.4310431,-5.2639308,-3.5516312,-0.77570981,0.99299937,0.53557146,-1.7891999,-4.4380445,-5.8219438,-5.3522573,-3.6943359,-2.1330476,-1.5775826,-1.9431449,-2.3241642,-1.777832,-0.10428898,1.9587712,3.2585042,3.0672696,1.617241,-0.061678991,-0.88038039,-0.4698931,0.55875707,1.0584571,0.17682154,-2.0121479,-4.5143037,-6.0483317,-5.8640127,-4.1922073,-2.0446172,-0.53326827,-0.19148122,-0.74235767,-1.4226593,-1.5826505,-1.1191529,-0.45853609,-0.15316579,-0.42830288,-1.0239917,-1.4297477,-1.3053734,-0.74906301,-0.20633668,-0.10113831,-0.48990554,-1.0218648,-1.2476563,-1.0376509,-0.76824105,-1.0949575,-2.4443679,-4.5909529,-6.6590443,-7.6064782,-6.8983083,-4.9145093,-2.7832291,-1.7041936,-2.1774061,-3.6394956,-4.7660294,-4.2757964,-1.7473092,2.0595593,5.5809121,7.3004851,6.5679922,3.9103715,0.68078011,-1.715662,-2.5514755,-2.0571554,-1.1414003,-0.77119613,-1.4008816,-2.7659731,-4.1126485,-4.6795769,-4.1318364,-2.7134449,-1.0711502,0.11405732,0.46854478,0.067216553,-0.67165852,-1.2526175,-1.3752296,-1.0723169,-0.65424854,-0.50096244,-0.81890124,-1.4969695,-2.1448944,-2.3011823,-1.7015845,-0.45577863,0.97946823,2.031297,2.3238027,1.8912085,1.1570617,0.68099529,0.81945485,1.5077919,2.3034785,2.6693022,2.3216023,1.4220709,0.48712972,0.068267874,0.40486407,1.2707359,2.1125875,2.3921885,1.9156413,0.94506037,0.030230435,-0.32466969,0.053353671,0.93931758,1.8860605,2.5139532,2.7256525,2.7211566,2.8255491,3.2581632,3.9946189,4.7975011,5.3764029,5.5623922,5.3891416,5.0470319,4.7597613,4.669951,4.7950759,5.0562506,5.3369942,5.5257258,5.527576,5.2653818,4.6971793,3.8539774,2.8700831,1.9683776,1.3865521,1.2723055,1.6044387,2.1900253,2.7467356,3.0300038,2.9384956,2.5440221,2.0349486,1.608129,1.3682338,1.2841365,1.2193877,1.0164267,0.59076506,-0.010764757,-0.61569607,-0.99518293,-0.96765226,-0.4901855,0.30743438,1.1677929,1.814708,2.0765529,1.9631485,1.6560423,1.4165589,1.4599564,1.8608503,2.5338957,3.2881918,3.91377,4.2497683,4.2092032,3.7729614,2.9844666,1.96214,0.91222692,0.10283672,-0.22384137,0.025369437,0.70970601,1.482924,1.9522381,1.896763,1.416577,0.90458626,0.83276421,1.4647609,2.6681921,3.9535301,4.7328401,4.6519399,3.7957535,2.6384122,1.7656391,1.538492,1.9026226,2.4529405,2.7008288,2.3670089,1.5168777,0.46811315,-0.44678578,-1.0902957,-1.5605954,-2.0480912,-2.6243901,-3.125988,-3.2253067,-2.6466856,-1.3798659,0.26009905,1.7773013,2.7599716,3.1027594,3.0506315,3.0415504,3.4478085,4.3702798,5.5971951,6.7339869,7.4138761,7.4673543,6.9717021,6.1806092,5.3954825,4.8517094,4.6617126,4.8139391,5.2031574,5.6697311,6.0389538,6.1578593,5.9212365,5.2733407,4.1810656,2.59795,0.45702028,-2.278322,-5.5167031,-8.9542513,-12.080457,-14.31424,-15.230544,-14.765193,-13.273163,-11.383459,-9.7088757,-8.562151,-7.8382688,-7.1333232,-6.0326066,-4.3978424,-2.4810197,-0.79427266,0.1882693,0.31900993,-0.1174935,-0.54717737,-0.41712865,0.5031535,1.9999962,3.5392363,4.5626941,4.7917247,4.37362,3.7975509,3.6322045,4.2288637,5.5447807,7.1723123,8.5498095,9.2392673,9.1273975,8.4525366,7.6526732,7.1223183,7.0106788,7.1687212,7.2707572,7.0398197,6.4467711,5.7643113,5.4358039,5.8235822,6.9746418,8.5395908,9.9017458,10.458483,9.9112568,8.4129019,6.4968696,4.8297,3.9193211,3.926908,4.6638803,5.7500658,6.8268805,7.7048106,8.3796539,8.9368019,9.424962,9.785656,9.8777514,9.571578,8.8465891,7.8306069,6.759131,5.8807044,5.3605094,5.2286682,5.3909059,5.687654,5.9684758,6.1477609,6.2198553,6.2306485,6.2217221,6.1775112,6.0090604,5.5939083,4.8614149,3.8789191,2.878788,2.1868939,2.0674629,2.559644,3.4071939,4.1471543,4.3361721,3.8019879,2.7728364,1.7913549,1.4400997,2.0230443,3.3858833,4.9859343,6.1777415,6.5507469,6.1233163,5.2855515,4.5375586,4.1916881,4.2201319,4.326859,4.1762505,3.6170118,2.7589865,1.8723853,1.2019321,0.83556575,0.71071476,0.72781044,0.85913557,1.1527463,1.626025,2.1457586,2.417702,2.1316814,1.1812748,-0.20211254,-1.5240362,-2.295258,-2.3322227,-1.8843596,-1.4835445,-1.5970681,-2.3095925,-3.2554688,-3.8624597,-3.7545407,-3.0415831,-2.2866602,-2.1530635,-2.9539478,-4.4056401,-5.7622986,-6.2609673,-5.5974121,-4.1249928,-2.6443715,-1.9159448,-2.2058492,-3.1517923,-4.0250545,-4.2100139,-3.5895433,-2.5971296,-1.9192425,-2.0544894,-3.0139472,-4.3389645,-5.3996553,-5.7655721,-5.4164567,-4.6878371,-4.0253649,-3.7300966,-3.8509567,-4.2550521,-4.7806377,-5.3400078,-5.9059811,-6.4241076,-6.7548337,-6.7194738,-6.228755,-5.3915334,-4.5009799,-3.8807027,-3.6815398,-3.7691872,-3.7922294,-3.4012277,-2.4842124,-1.2665685,-0.20749895,0.24576916,-0.10305517,-1.1062971,-2.368206,-3.4572642,-4.1032987,-4.2759833,-4.1281877,-3.8688247,-3.6542196,-3.5494244,-3.5503304,-3.6217678,-3.7171233,-3.7816126,-3.765681,-3.6629291,-3.5506349,-3.5869882,-3.9374738,-4.6570864,-5.604919,-6.4672756,-6.9037924,-6.7437487,-6.1098881,-5.3771095,-4.9728537,-5.1315789,-5.7548146,-6.4681497,-6.8430681,-6.6450491,-5.9530401,-5.081028,-4.3635211,-3.9537663,-3.7677588,-3.6005499,-3.3195107,-2.9877253,-2.8250737,-3.0355194,-3.6295605,-4.3782735,-4.9430928,-5.0981045,-4.8899069,-4.6168518,-4.6314797,-5.0937099,-5.8412309,-6.4694772,-6.5751014,-6.0080791,-4.9709449,-3.9034455,-3.228507,-3.1201775,-3.4322951,-3.8183637,-3.9530258,-3.7126601,-3.2145107,-2.7141662,-2.4475336,-2.5211461,-2.901581,-3.4783788,-4.132833,-4.7626791,-5.2665415,-5.5330758,-5.4725575,-5.0813866,-4.4847012,-3.9027834,-3.539093,-3.4545715,-3.519711,-3.4941683,-3.1961317,-2.6513774,-2.1117713,-1.9128982,-2.2509811,-3.0239682,-3.8511889,-4.2751055,-4.0285697,-3.2028444,-2.2094319,-1.5565209,-1.5749186,-2.2550669,-3.2811642,-4.2237492,-4.7615643,-4.8029866,-4.4593148,-3.9235606,-3.3584838,-2.8665071,-2.5338869,-2.4772592,-2.8227799,-3.6132092,-4.7132111,-5.8055825,-6.5167999,-6.614913,-6.1557441,-5.4692879,-4.9743218,-4.9243531,-5.2435594,-5.5642967,-5.454627,-4.7018137,-3.476934,-2.2735763,-1.6495607,-1.9188606,-2.9700172,-4.3115792,-5.3142085,-5.5127912,-4.809526,-3.4857354,-2.038687,-0.94555902,-0.476114,-0.63007677,-1.2002928,-1.9039159,-2.5068536,-2.8898613,-3.0460455,-3.03456,-2.9302342,-2.8015306,-2.727313,-2.835588,-3.3276105,-4.4489651,-6.3930888,-9.1653576,-12.47638,-15.742529,-18.232872,-19.325661,-18.764048,-16.779093,-14.002393,-11.199089,-8.9536009,-7.4702659,-6.5853477,-5.9616776,-5.3314147,-4.6341867,-3.9796281,-3.4883025,-3.1469111,-2.7943473,-2.2495055,-1.4771445,-0.65160704,-0.050778147,0.15546097,0.064973831,0.015236478,0.36071816,1.198537,2.242821,2.9621377,2.9143572,2.0631294,0.85175735,-0.038875822,-0.10703661,0.64976078,1.7315496,2.4631147,2.440165,1.7953472,1.1008421,0.96947497,1.6244742,2.7333951,3.6234741,3.7336307,2.9942708,1.8743758,1.065217,1.0211511,1.6756802,2.5253825,3.0142412,2.9389284,2.5828545,2.4824703,2.9959688,3.9914446,4.8922873,5.0644336,4.2813544,2.9351263,1.8284136,1.6698684,2.6059203,4.1064153,5.2884932,5.4701695,4.5923209,3.2377694,2.245544,2.1827366,3.018328,4.1943703,5.0191751,5.101913,4.5431228,3.7825117,3.2451556,3.051774,2.9895122,2.7382128,2.1634099,1.4518071,0.99345058,1.1067091,1.8137397,2.8287282,3.7580507,4.3560224,4.6463928,4.8292103,5.059031,5.2772388,5.2362685,4.7021785,3.6794686,2.4773426,1.5503421,1.2154613,1.4461192,1.8957998,2.1423328,1.98444,1.581947,1.3409586,1.6274132,2.514636,3.7445099,4.9247808,5.8116384,6.4630766,7.1441803,8.0521049,9.0709,9.7569809,9.595583,8.3676901,6.3701315,4.3144321,2.9426031,2.5967321,3.0247259,3.5588775,3.5605807,2.8452361,1.8092713,1.1732541,1.506394,2.8409448,4.6260495,6.0485139,6.5108581,5.9608054,4.871511,3.9049323,3.4940615,3.6203198,3.9173903,4.0059271,3.8093648,3.6233985,3.8910987,4.8469911,6.2896132,7.6563859,8.3648071,8.1938944,7.4414725,6.7365103,6.6177268,7.1543446,7.8687987,8.0299444,7.1416602,5.3156157,3.2805226,2.0053961,2.1579871,3.7250187,6.021234,8.0738049,9.1419411,9.0609407,8.2248869,7.2555542,6.5935712,6.2736697,6.0022593,5.4467635,4.5144086,3.4260163,2.5494895,2.1309154,2.1276047,2.2644181,2.2663379,2.0894492,1.9729278,2.2654974,3.146718,4.4458842,5.6989102,6.4180036,6.3969011,5.8429723,5.2414289,5.0381546,5.3520765,5.9090242,6.2398672,6.00804,5.246521,4.3479476,3.8183427,3.9606616,4.6948104,5.6236038,6.2891598,6.4451423,6.1724601,5.7807784,5.5808439,5.6869578,5.9716225,6.1813502,6.1173744,5.7567506,5.2473435,4.8026896,4.581481,4.6259975,4.8747826,5.2103901,5.4950037,5.5825338,5.3353829,4.6762338,3.6643925,2.5395234,1.6707094,1.4033885,1.8763893,2.924422,4.1445718,5.1035061,5.5630565,5.5797029,5.4127154,5.3064032,5.3027849,5.2222824,4.8292603,4.0596852,3.1328003,2.4447958,2.3020179,2.6815054,3.207001,3.3880401,2.9787974,2.2081101,1.6961412,2.0763099,3.5505974,5.6761856,7.5518379,8.3186388,7.6755357,6.0820422,4.5056629,3.8565116,4.4526644,5.8447585,7.1042137,7.3897676,6.4379873,4.6820483,2.9472606,1.9398695,1.8638002,2.3966985,3.0072021,3.3694685,3.5779812,4.0162973,4.981204,6.3392458,7.476697,7.6077547,6.2602773,3.6279607,0.55004668,-1.890745,-2.9224768,-2.4651964,-1.1211489,0.2047258,0.81351268,0.54673451,-0.23169236,-0.95690769,-1.2574314,-1.1672853,-1.0395584,-1.2486991,-1.9021959,-2.7620893,-3.4233005,-3.6161132,-3.415235,-3.2028515,-3.402257,-4.1580095,-5.1809711,-5.8734999,-5.6683865,-4.3742628,-2.312083,-0.15728255,1.4139867,2.0574007,1.8755585,1.2642176,0.60991472,0.046770111,-0.57146138,-1.4804386,-2.7420976,-4.1042805,-5.0941343,-5.2979646,-4.6532636,-3.56581,-2.7715523,-3.0171196,-4.7342534,-7.8726869,-11.949413,-16.248085,-20.040216,-22.730734,-23.914354,-23.396139,-21.228058,-17.754379,-13.600154,-9.5393839,-6.2531404,-4.0823283,-2.9181285,-2.3129604,-1.7640669,-1.0065188,-0.13639125,0.51147014,0.64692307,0.2760573,-0.25363874,-0.45081797,0.0087618381,1.0671332,2.3121576,3.2331085,3.5353813,3.3075511,2.935715,2.8305445,3.1546793,3.7296424,4.1731515,4.1615691,3.6366451,2.8275928,2.0949323,1.7211288,1.7922782,2.2296023,2.9105697,3.759563,4.7299676,5.7054052,6.4297242,6.5636086,5.865459,4.3817682,2.4991097,0.79000199,-0.27328205,-0.56219888,-0.33607209,-0.059850823,-0.11988416,-0.62644196,-1.4221072,-2.2624316,-3.0125709,-3.7027807,-4.4075203,-5.0642562,-5.4092393,-5.1239948,-4.1138339,-2.7085998,-1.5951718,-1.4646368,-2.5705533,-4.4931912,-6.3024073,-7.0619407,-6.3826504,-4.6759472,-2.9315279,-2.1415174,-2.722218,-4.2911978,-5.9330487,-6.7771745,-6.5178666,-5.5551453,-4.6879892,-4.5791893,-5.3447495,-6.5203233,-7.3995476,-7.5012364,-6.8582501,-5.9604163,-5.4199281,-5.5974226,-6.4245028,-7.5032291,-8.3749304,-8.7606554,-8.6320868,-8.1158142,-7.3502197,-6.4209719,-5.4072289,-4.4619393,-3.8176193,-3.6785545,-4.0711112,-4.7810583,-5.4557252,-5.8236704,-5.880671,-5.8961368,-6.2145052,-6.9795246,-7.980309,-8.7460032,-8.8439217,-8.1838455,-7.112082,-6.2141151,-5.9453044,-6.3348846,-6.9673543,-7.2610412,-6.8608336,-5.8820987,-4.8419824,-4.3260703,-4.6164765,-5.5299678,-6.5673609,-7.2619309,-7.4827232,-7.4875779,-7.6993294,-8.3700848,-9.37047,-10.247467,-10.506057,-9.9197721,-8.6646652,-7.2004876,-5.9949594,-5.2816701,-4.9993925,-4.9216852,-4.8558879,-4.7613487,-4.7191477,-4.8080387,-5.0075707,-5.2121291,-5.3353052,-5.4011068,-5.52665,-5.795651,-6.1258554,-6.2584682,-5.9133458,-5.0188994,-3.8438418,-2.9028888,-2.6605442,-3.213258,-4.172647,-4.8582416,-4.7044668,-3.6312404,-2.1327655,-1.0113199,-0.91210938,-1.9483811,-3.6511822,-5.2694073,-6.2217994,-6.4113498,-6.2125983,-6.1617751,-6.570147,-7.3169188,-7.9436617,-7.966372,-7.1855502,-5.7954288,-4.2443414,-2.966687,-2.1761153,-1.8410054,-1.8191447,-2.0186045,-2.453577,-3.1651175,-4.0931711,-5.0254664,-5.6836553,-5.8911386,-5.6938968,-5.3338857,-5.0841613,-5.0614748,-5.152894,-5.1101451,-4.7405391,-4.0512161,-3.2396891,-2.5415726,-2.0560007,-1.6862388,-1.2425637,-0.62567407,0.05908687,0.55693316,0.65659314,0.37412173,-0.025035953,-0.20336407,-0.010402136,0.37133771,0.522618,0.083591409,-0.9478662,-2.1359303,-2.8274195,-2.5480351,-1.3153479,0.34868217,1.7279286,2.3478067,2.2490134,1.9160284,1.9090974,2.4497383,3.2424791,3.655679,3.1410935,1.6114542,-0.47351021,-2.3636327,-3.440444,-3.5265684,-2.8943698,-1.9996006,-1.1507525,-0.35343295,0.57325941,1.7186738,2.87292,3.5711758,3.3843973,2.261477,0.67177802,-0.58132458,-0.78658235,0.26633003,2.1536868,4.049798,5.1851025,5.2514701,4.5148225,3.5841491,3.0007041,2.9145117,3.045929,2.9385521,2.3225818,1.3426762,0.49828014,0.3322686,1.0655066,2.4104156,3.6874242,4.1839013,3.5485945,1.992401,0.17907037,-1.1309898,-1.4796077,-0.92637616,0.03647659,0.8114633,1.0657028,0.91924852,0.83625335,1.284024,2.3719459,3.705786,4.5715356,4.3622398,2.9990911,1.0775863,-0.38474253,-0.48771659,1.0228596,3.5539768,5.9354877,7.0333071,6.3668251,4.3741827,2.1648114,0.89673859,1.1381754,2.5820279,4.2700086,5.1781411,4.8048496,3.4147687,1.815075,0.83229983,0.83235925,1.5779674,2.4845531,3.0744278,3.3102167,3.5855994,4.3932867,5.9117942,7.8055325,9.3845825,10.02361,9.561533,8.4138813,7.3199873,6.8884797,7.2359629,7.9494309,8.3883734,8.1219149,7.2145314,6.1804895,5.6462288,5.9447002,6.8977118,7.9090843,8.2892885,7.5970941,5.7981639,3.1820924,0.14201142,-3.0074618,-6.0581875,-8.8039045,-10.932987,-12.048226,-11.837422,-10.288369,-7.7864308,-4.9969168,-2.5761518,-0.87558836,0.18265784,0.98523045,1.942065,3.2167158,4.6356821,5.8192911,6.436141,6.4135456,5.9782419,5.5180011,5.3650384,5.6360493,6.209805,6.8283749,7.2400675,7.3002152,6.9967709,6.42384,5.7448754,5.1639695,4.8897681,5.0706124,5.7110448,6.621263,7.4588175,7.8761187,7.7113304,7.1099348,6.4844418,6.3102789,6.8621197,8.0453806,9.4312019,10.483799,10.850473,10.544266,9.9145708,9.4305258,9.4130096,9.8737106,10.544274,11.057764,11.158352,10.814336,10.186801,9.5026808,8.9318914,8.5445318,8.3524189,8.3746262,8.6566525,9.2193308,9.9792986,10.715756,11.133294,11.003887,10.309298,9.2919922,8.3691998,7.9436069,8.2067709,9.0403776,10.070158,10.846767,11.061535,10.687624,9.9764223,9.313446,9.0097752,9.1381893,9.500824,9.7472811,9.5814342,8.9435625,8.0621853,7.3379159,7.1168265,7.480197,8.1773281,8.7514315,8.7954636,8.1917,7.1902318,6.2725039,5.8752861,6.1381063,6.826004,7.4730177,7.6559029,7.2289467,6.3801818,5.4867935,4.8748345,4.6416345,4.6457539,4.6498003,4.5003204,4.2155156,3.930109,3.7567213,3.6820004,3.5819268,3.3414128,2.9766071,2.6514204,2.5610285,2.7629712,3.088192,3.2151392,2.8726163,2.0358794,0.97403175,0.10442113,-0.25493321,-0.068787463,0.42014927,0.87740314,1.1097628,1.1797793,1.3246871,1.74709,2.4387302,3.1725786,3.6707187,3.8202691,3.769165,3.8205161,4.1970582,4.8516498,5.4752326,5.7122121,5.4356894,4.8781366,4.5048327,4.6980686,5.4628677,6.3650002,6.7630048,6.1968894,4.684854,2.7339287,1.0558485,0.16978677,0.14083931,0.60466868,1.0365853,1.0703875,0.65995848,0.0040458953,-0.67437118,-1.311021,-2.0092559,-2.8825386,-3.8689842,-4.6785221,-4.9325409,-4.4089127,-3.2205703,-1.7951818,-0.65807813,-0.15431821,-0.28481409,-0.75163454,-1.1681818,-1.2892487,-1.118924,-0.85049826,-0.70723343,-0.80536437,-1.1218917,-1.5590324,-2.0283725,-2.480057,-2.8664541,-3.0967236,-3.0508442,-2.6669276,-2.039964,-1.4382232,-1.1896546,-1.4859843,-2.2274206,-3.0239432,-3.3771901,-2.9482529,-1.7538878,-0.17196082,1.246556,2.0449009,2.0521367,1.4033247,0.40617704,-0.63819587,-1.5452311,-2.2421122,-2.6929913,-2.841809,-2.6298554,-2.071244,-1.3139058,-0.61987513,-0.26067105,-0.39097077,-0.98356044,-1.8650526,-2.8199081,-3.6858778,-4.3812108,-4.8668485,-5.1025648,-5.0572309,-4.7765579,-4.4440007,-4.3520694,-4.7582808,-5.6965714,-6.8778439,-7.7832093,-7.9361248,-7.2080517,-5.9615717,-4.9125671,-4.7616415,-5.7985897,-7.7184453,-9.7711897,-11.16741,-11.503914,-10.959129,-10.148817,-9.7395744,-10.059766,-10.93738,-11.843661,-12.231058,-11.845593,-10.830412,-9.5846882,-8.4980631,-7.743969,-7.2533884,-6.8556867,-6.4617691,-6.1500273,-6.0991874,-6.4291487,-7.0768175,-7.8052468,-8.345274,-8.5715828,-8.587779,-8.655673,-9.0096445,-9.6763086,-10.419776,-10.855007,-10.66643,-9.8027821,-8.5315752,-7.3180404,-6.5941243,-6.544467,-7.0259399,-7.6633968,-8.0688868,-8.0651608,-7.7903714,-7.6210318,-7.9452195,-8.901432,-10.227671,-11.320537,-11.501285,-10.371921,-8.079957,-5.3365865,-3.1482911,-2.3722048,-3.3113277,-5.5612388,-8.1982498,-10.219157,-11.00507,-10.56715,-9.4541512,-8.3917942,-7.8713851,-7.9219646,-8.1783419,-8.1738253,-7.65593,-6.725718,-5.7299604,-5.0023236,-4.6443405,-4.4982362,-4.3214774,-4.026145,-3.7973273,-3.9882801,-4.8504877,-6.2833104,-7.7911553,-8.7083158,-8.5741186,-7.4316459,-5.8570333,-4.6863246,-4.59236,-5.75737,-7.8280277,-10.166358,-12.231954,-13.85941,-15.271295,-16.838802,-18.758175,-20.854448,-22.633053,-23.538429,-23.252138,-21.848768,-19.728098,-17.38555,-15.176056,-13.213321,-11.443831,-9.8161268,-8.4101696,-7.431601,-7.0782204,-7.3782167,-8.1189547,-8.9215174,-9.4161148,-9.4069281,-8.9259911,-8.1544275,-7.27879,-6.3888578,-5.4846425,-4.5746894,-3.7757936,-3.3196108,-3.4380891,-4.1928101,-5.3663111,-6.5063548,-7.120378,-6.9171767,-5.9540534,-4.5984068,-3.3239648,-2.4625511,-2.0583563,-1.9054393,-1.7333144,-1.4138407,-1.0534497,-0.91257495,-1.2078155,-1.9287072,-2.7917812,-3.3673661,-3.3060443,-2.5304549,-1.2807484,0.0089101214,0.92714298,1.2723351,1.1142548,0.71448576,0.36917999,0.26984486,0.45070431,0.82892174,1.2901229,1.756418,2.2004881,2.612313,2.9553049,3.1491878,3.0939875,2.7218547,2.0485172,1.1983684,0.38977095,-0.11933326,-0.11424952,0.48688868,1.5690668,2.8179195,3.8018663,4.1272655,3.6109684,2.3870637,0.87879652,-0.37331441,-0.95681566,-0.78331041,-0.12483285,0.53978181,0.7925204,0.5113529,-0.061730117,-0.46228135,-0.27622405,0.61190909,1.9377285,3.1881053,3.8675494,3.7483709,2.9690282,1.9381453,1.1123226,0.77814758,0.95050687,1.4201889,1.8979323,2.161196,2.1306055,1.8609364,1.4827616,1.1442059,0.97808409,1.085544,1.5133401,2.2178891,3.0381095,3.7127466,3.9597094,3.5943761,2.6298449,1.3012187,-0.0071143312,-0.90042388,-1.1134742,-0.59030592,0.52019519,1.9333606,3.3203671,4.3870115,4.9276824,4.8593125,4.2383857,3.2508142,2.1598971,1.2150015,0.55519754,0.16249965,-0.096076675,-0.34932896,-0.59432709,-0.64974302,-0.23974657,0.82468081,2.4743586,4.3390975,5.8837643,6.6620564,6.5441399,5.7787423,4.8468065,4.1935143,4.0038662,4.1582994,4.3848443,4.491714,4.5107903,4.6478596,5.0776777,5.7418013,6.3161955,6.4002323,5.8141627,4.7951188,3.9288635,3.8247855,4.7246475,6.3024702,7.8074956,8.4837341,8.0111876,6.6860461,5.2181172,4.2730727,4.0592699,4.2341614,4.1933789,3.5456061,2.4441495,1.5365086,1.5502365,2.7861707,4.864789,6.9120975,8.0801182,8.0686655,7.3056912,6.6637063,6.8944893,8.1501446,9.9002581,11.291901,11.707813,11.153236,10.224298,9.6940231,10.003007,10.993345,12.048288,12.522571,12.160882,11.227677,10.283954,9.7912445,9.8296671,10.116843,10.287733,10.207743,10.076855,10.246866,10.89446,11.80712,12.462427,12.367457,11.427485,10.075539,9.048377,8.9363108,9.7968531,11.091362,11.997061,11.902533,10.775264,9.1736507,7.9041486,7.5459285,8.1374321,9.2031231,10.078096,10.309989,9.8905325,9.1976109,8.7177801,8.7442636,9.2354612,9.8959446,10.397108,10.581238,10.52654,10.454625,10.560979,10.88301,11.280416,11.525884,11.442804,11.010995,10.389082,9.8478003,9.6474781,9.9128065,10.55892,11.306714,11.79368,11.74357,11.120224,10.181615,9.3867979,9.1825619,9.7705584,10.981864,12.338495,13.279946,13.435963,12.796276,11.686855,10.575981,9.8307009,9.5638046,9.6436758,9.8326464,9.9456501,9.9262753,9.8102064,9.6300764,9.349721,8.8810272,8.1641226,7.2408986,6.2594838,5.4047952,4.8084807,4.5047359,4.4568806,4.6199541,4.9765577,5.5114269,6.150497,6.7314386,7.0553737,7.0034757,6.6377926,6.1996307,5.9832973,6.1564136,6.6481829,7.1912098,7.4983711,7.4575458,7.2073784,7.0366707,7.174819,7.6210752,8.1355953,8.3999786,8.2319927,7.6987476,7.0464082,6.5000386,6.0849252,5.6073613,4.8155432,3.625633,2.2439246,1.0861952,0.53951919,0.72654003,1.4324431,2.241009,2.7808001,2.9118125,2.7360094,2.4493005,2.1655495,1.8508664,1.4066169,0.81325829,0.19580613,-0.26191795,-0.49405476,-0.6679433,-1.1140175,-2.0849123,-3.5047288,-4.9075289,-5.6509509,-5.2975159,-3.9203217,-2.1179881,-0.70797503,-0.28527808,-0.93070513,-2.2550061,-3.7347927,-5.0933228,-6.4493098,-8.1254444,-10.259329,-12.514107,-14.129842,-14.322042,-12.782111,-9.9429331,-6.8118072,-4.4522328,-3.4283981,-3.5532236,-4.0848927,-4.2300811,-3.6259327,-2.5062463,-1.4786493,-1.0929132,-1.4970907,-2.3902926,-3.2639196,-3.7337241,-3.7302361,-3.4438434,-3.1079972,-2.8100607,-2.4746628,-2.0131481,-1.4962467,-1.1891134,-1.3994519,-2.2422242,-3.5004525,-4.7011795,-5.3720808,-5.3107014,-4.6840153,-3.893029,-3.3010886,-3.0174336,-2.8825986,-2.6535339,-2.2417536,-1.8220639,-1.7268556,-2.2000625,-3.1900029,-4.3357615,-5.1656833,-5.376791,-5.0070257,-4.3873158,-3.9126849,-3.7927508,-3.9479237,-4.108428,-4.0296512,-3.662725,-3.1632414,-2.7475152,-2.5189192,-2.4036474,-2.2452621,-1.9793223,-1.7413602,-1.8060786,-2.3839307,-3.4183347,-4.5443912,-5.2673492,-5.26401,-4.611105,-3.7763112,-3.356004,-3.7131457,-4.7442374,-5.9309421,-6.6535091,-6.5742836,-5.8512092,-5.0459743,-4.7829385,-5.370079,-6.614099,-7.9373813,-8.7169523,-8.6343679,-7.8301649,-6.7872481,-6.0356088,-5.868784,-6.2350388,-6.8411989,-7.3728127,-7.6769257,-7.8018336,-7.8981118,-8.0764771,-8.3310089,-8.5707569,-8.7142086,-8.756918,-8.753109,-8.7301369,-8.617218,-8.2662497,-7.5722275,-6.615304,-5.7118382,-5.3097363,-5.7664804,-7.1360531,-9.1003218,-11.098722,-12.588665,-13.287086,-13.256781,-12.800822,-12.248639,-11.777918,-11.379229,-10.963371,-10.511139,-10.141115,-10.03895,-10.30094,-10.815923,-11.288961,-11.410397,-11.064383,-10.431346,-9.9010868,-9.8387289,-10.349166,-11.194574,-11.923977,-12.136104,-11.708808,-10.850754,-9.9491329,-9.3218966,-9.042551,-8.9503288,-8.826334,-8.5992956,-8.4240303,-8.5672646,-9.1763945,-10.098925,-10.897236,-11.076079,-10.392623,-9.0505581,-7.6406713,-6.8443303,-7.0658956,-8.2084417,-9.7230768,-10.899252,-11.224627,-10.613185,-9.3919344,-8.0854645,-7.1473322,-6.7936645,-7.0048175,-7.6442099,-8.5798283,-9.719388,-10.956771,-12.105072,-12.902793,-13.117743,-12.687774,-11.79444,-10.800481,-10.071865,-9.7872763,-9.8526354,-9.9740334,-9.8420811,-9.312458,-8.4762039,-7.5898952,-6.9257474,-6.6430879,-6.7521501,-7.1662793,-7.7781825,-8.4927282,-9.2012405,-9.7440577,-9.9269838,-9.614068,-8.8459816,-7.8892136,-7.1483274,-6.9616876,-7.3920674,-8.1492777,-8.7154999,-8.620719,-7.7147131,-6.2719669,-4.8593445,-4.0369401,-4.0627923,-4.7684755,-5.6688228,-6.2310929,-6.1429133,-5.4329243,-4.3973341,-3.4018455,-2.6896894,-2.3019831,-2.132292,-2.052902,-2.0181782,-2.0823548,-2.3354263,-2.8135769,-3.4491982,-4.0911674,-4.5779366,-4.8152466,-4.81285,-4.6621146,-4.4698815,-4.2850614,-4.0571146,-3.651391,-2.9219356,-1.8143739,-0.44962183,0.86438358,1.7215585,1.7866541,0.97164696,-0.47615889,-2.0401499,-3.1437466,-3.4083149,-2.8259871,-1.7512593,-0.71363139,-0.15531076,-0.23863111,-0.81972587,-1.579229,-2.2078784,-2.5267272,-2.4871924,-2.0937374,-1.3470311,-0.27527905,0.96995521,2.0557983,2.5463569,2.1205938,0.81093836,-0.90981156,-2.2969129,-2.7009573,-1.9317322,-0.39092201,1.12781,1.8686252,1.5216419,0.36657017,-0.92540771,-1.6945137,-1.6418244,-0.91824484,0.0700358,0.97512048,1.7126654,2.4307621,3.2971947,4.2910132,5.1697302,5.639245,5.5911226,5.2153077,4.88871,4.9120255,5.2881413,5.7120347,5.7887888,5.3261189,4.4882956,3.696393,3.3444533,3.536494,4.0338082,4.4467468,4.5250893,4.3310204,4.1708279,4.3455029,4.9165444,5.6668844,6.2807894,6.5915718,6.6909232,6.8056178,7.0426278,7.2268162,6.999331,6.1385646,4.8620319,3.8335176,3.7863901,4.9656858,6.7773447,7.9569039,7.251936,4.2510128,-0.163481,-4.0828252,-5.4815869,-3.28686,2.0004144,8.4953165,13.827032,16.241112,15.309628,11.913151,7.5942106,3.7182636,0.92261493,-0.90859246,-2.2514992,-3.464287,-4.5372696,-5.1744142,-5.0733037,-4.1679406,-2.6730154,-0.93814999,0.74905515,2.2652159,3.6123753,4.8059483,5.7983313,6.4960446,6.8402934,6.8714757,6.7227416,6.5552807,6.4958382,6.6239777,7.0000672,7.6800094,8.675128,9.8772106,11.024391,11.77581,11.885817,11.376812,10.581438,9.9951696,10.009816,10.693685,11.768391,12.805802,13.515681,13.925999,14.328763,15.02971,16.083521,17.211954,17.974358,18.077061,17.601395,16.979527,16.721575,17.074728,17.848423,18.529383,18.611914,17.92132,16.714634,15.497775,14.691999,14.380078,14.298779,14.068099,13.485542,12.677647,12.010858,11.836061,12.2522,13.049561,13.857533,14.377445,14.532035,14.4387,14.251835,14.014789,13.644619,13.059088,12.334198,11.745823,11.630545,12.140963,13.066907,13.871066,13.954594,13.011252,11.254725,9.3655844,8.167263,8.2028284,9.4466619,11.310182,12.936256,13.620772,13.139894,11.82367,10.357507,9.4303226,9.4122076,10.211661,11.361758,12.272604,12.517307,12.016202,11.042132,10.057386,9.4702091,9.4329853,9.7803993,10.134962,10.121855,9.5777693,8.6409235,7.6733737,7.0601535,6.9997559,7.4060922,7.9766722,8.3836412,8.4713488,8.3418741,8.2794247,8.5628777,9.2820797,10.267652,11.172355,11.650583,11.528621,10.871452,9.9195642,8.9454556,8.1187353,7.451611,6.8414798,6.1713729,5.404407,4.622189,3.9937997,3.6969171,3.8302579,4.3554764,5.0940123,5.7858944,6.1951532,6.2226548,5.9719973,5.7215796,5.794589,6.3761487,7.371995,8.4005203,8.9481401,8.6238194,7.3777108,5.5527234,3.7248833,2.4129295,1.8221593,1.7733828,1.85719,1.7129188,1.2524974,0.68621004,0.34002313,0.39536127,0.7364372,1.0175176,0.90941232,0.35488203,-0.3519105,-0.73158467,-0.43149549,0.52405941,1.7208598,2.5994558,2.8026638,2.3959026,1.810513,1.5447742,1.8224678,2.4403322,2.909323,2.7938919,2.0159934,0.91207641,0.00053322769,-0.38098463,-0.31382158,-0.23877431,-0.63051027,-1.6275644,-2.8809922,-3.7438579,-3.6916804,-2.6973419,-1.2999887,-0.30144808,-0.2707929,-1.1731615,-2.3694015,-2.999594,-2.5165648,-1.0360756,0.71614701,1.8274097,1.7285423,0.50911516,-1.1625675,-2.4461625,-2.8006132,-2.2385318,-1.2372856,-0.40077764,-0.10617273,-0.34881127,-0.84468168,-1.2774959,-1.5011517,-1.5695013,-1.6064835,-1.6449176,-1.57169,-1.223039,-0.55204183,0.26721534,0.8878907,0.96749926,0.35605538,-0.82999885,-2.2911768,-3.7192607,-4.9396024,-5.9329362,-6.7444849,-7.3716359,-7.7300262,-7.7274323,-7.3814611,-6.8748364,-6.4851012,-6.4238033,-6.6980381,-7.1031942,-7.3665214,-7.3494663,-7.1641603,-7.1099944,-7.4591107,-8.2313795,-9.1190214,-9.6300421,-9.3751926,-8.3221931,-6.852685,-5.5768867,-5.0111384,-5.3076453,-6.1913042,-7.1305995,-7.6320806,-7.4858055,-6.8341489,-6.0509796,-5.5251369,-5.4786863,-5.9055614,-6.631722,-7.4325376,-8.1320868,-8.6448851,-8.9665422,-9.1426792,-9.237978,-9.3090992,-9.3786564,-9.4182463,-9.3596573,-9.145175,-8.7976866,-8.4620781,-8.3708706,-8.7300596,-9.5817747,-10.734361,-11.82408,-12.493834,-12.591791,-12.266141,-11.887073,-11.834169,-12.276594,-13.082882,-13.915902,-14.449239,-14.562999,-14.393972,-14.214794,-14.23138,-14.438702,-14.629309,-14.541141,-14.037612,-13.197598,-12.262493,-11.488617,-11.013129,-10.820305,-10.813834,-10.9228,-11.151713,-11.537684,-12.056454,-12.562227,-12.821735,-12.631542,-11.945217,-10.929904,-9.9224482,-9.3209286,-9.4775591,-10.634553,-12.893843,-16.184017,-20.211109,-24.433187,-28.127935,-30.585802,-31.371181,-30.514917,-28.505417,-26.051353,-23.736656,-21.774218,-20.01524,-18.204596,-16.297363,-14.595498,-13.580475,-13.538934,-14.250968,-15.001501,-14.97008,-13.781563,-11.849555,-10.238086,-10.064435,-11.780622,-14.788157,-17.664671,-18.908754,-17.775728,-14.701801,-11.055837,-8.367445,-7.4989505,-8.2519989,-9.6166992,-10.467282,-10.245527,-9.2130156,-8.1570377,-7.7924452,-8.2778654,-9.1540709,-9.7063389,-9.4675055,-8.5053663,-7.3140764,-6.4188809,-5.9998889,-5.809854,-5.4340787,-4.6850805,-3.8244972,-3.4299834,-3.9845974,-5.4751401,-7.2945457,-8.5434628,-8.5540714,-7.3018279,-5.4362416,-3.9061949,-3.4150307,-4.0437241,-5.2633643,-6.3039045,-6.6257677,-6.195806,-5.4188919,-4.8107233,-4.656189,-4.8809223,-5.1950808,-5.3733354,-5.4494562,-5.6810455,-6.3173332,-7.3506565,-8.4456234,-9.112051,-9.0112133,-8.1856756,-7.0508833,-6.148335,-5.8228769,-6.0376496,-6.445107,-6.6572695,-6.5244246,-6.2296009,-6.1369672,-6.503962,-7.2622089,-8.0253592,-8.3262253,-7.9269361,-6.9928346,-6.009037,-5.488637,-5.6594434,-6.3301053,-7.0188389,-7.2575521,-6.874136,-6.0756865,-5.2893519,-4.8738403,-4.8919997,-5.0859771,-5.0594182,-4.5382667,-3.5392656,-2.3449364,-1.3144546,-0.66262788,-0.35008782,-0.1455235,0.19443586,0.75360948,1.4037524,1.8969103,2.033977,1.7976692,1.3692417,1.0262152,0.9899804,1.3140439,1.8696755,2.4245739,2.7623124,2.7802711,2.5276375,2.1801465,1.9720254,2.1118865,2.7056353,3.7071702,4.9166074,6.0382009,6.7878556,7.0102611,6.747376,6.2137513,5.6812673,5.3320494,5.1664233,5.0275569,4.7344494,4.2413464,3.7148254,3.4637218,3.7501693,4.5946426,5.705832,6.5991592,6.8519039,6.3507261,5.3796873,4.4848542,4.1840339,4.6864219,5.7852645,6.9858451,7.7914877,7.9775343,7.693799,7.342638,7.3154321,7.751863,8.4650927,9.0689526,9.2192335,8.8172903,8.0561361,7.2924037,6.8337584,6.7752008,6.9762883,7.1771789,7.1674762,6.8998647,6.4883184,6.1107693,5.8930979,5.8507414,5.9128556,5.9938111,6.0504608,6.0871406,6.1200695,6.1478057,6.1654148,6.2148218,6.4197764,6.9510365,7.9154921,9.2306948,10.581449,11.521708,11.695055,11.055922,9.9484282,8.9681854,8.6619406,9.2297878,10.410079,11.627729,12.328481,12.302267,11.798385,11.359111,11.473213,12.264966,13.414196,14.357573,14.643518,14.215831,13.447845,12.908967,13.014791,13.781855,14.834867,15.649369,15.865042,15.470262,14.754571,14.083698,13.663791,13.454831,13.277622,13.018066,12.765607,12.774644,13.270405,14.239013,15.362161,16.162428,16.280415,15.706973,14.81242,14.13872,14.072365,14.595726,15.272765,15.48577,14.790235,13.184596,11.140836,9.3776722,8.5000916,8.6975651,9.6565065,10.726665,11.252161,10.900735,9.8322124,8.628314,8.0187225,8.5312119,10.22795,12.652349,15.01698,16.551895,16.853567,16.066965,14.807405,13.854632,13.768887,14.624068,15.996375,17.212383,17.71983,17.376802,16.501978,15.6654,15.347383,15.665843,16.326708,16.817303,16.719744,15.956218,14.825928,13.822122,13.346052,13.487556,13.99266,14.423977,14.411194,13.84876,12.940541,12.083258,11.66346,11.874787,12.635241,13.625967,14.418984,14.635636,14.080258,12.811657,11.134748,9.5132475,8.4242821,8.1976938,8.8971767,10.293822,11.94965,13.380489,14.229206,14.374995,13.937633,13.188626,12.423246,11.855231,11.569322,11.527452,11.599844,11.596019,11.293142,10.476914,9.0048542,6.8763194,4.2696366,1.5095018,-1.037111,-3.0907009,-4.5436234,-5.4481635,-5.9156675,-5.9942741,-5.6120291,-4.6329594,-2.9969566,-0.85074824,1.4288621,3.3566222,4.5501556,4.9117031,4.6703982,4.2549896,4.0687346,4.2965093,4.8514977,5.4797368,5.9438033,6.1651168,6.2425022,6.3538394,6.6245418,7.0592484,7.5753694,8.0947609,8.6052608,9.13235,9.6415262,9.9623499,9.8255463,9.0263453,7.6205177,6.0060239,4.7924714,4.4944129,5.2169576,6.5386496,7.6968832,7.9967284,7.2103238,5.7172637,4.2813191,3.582819,3.7890055,4.4356918,4.7087812,3.9635036,2.1615109,-0.053939883,-1.7051151,-2.0462494,-1.0051054,0.77139777,2.2953262,2.806092,2.181211,0.94520611,-0.11306562,-0.4618085,-0.15504006,0.23071599,-0.002006748,-1.1974427,-3.1025755,-5.0017743,-6.1362405,-6.141017,-5.2330089,-4.0498776,-3.2584896,-3.1833265,-3.673435,-4.2624898,-4.4932718,-4.1914392,-3.5294394,-2.8704951,-2.5209601,-2.5592268,-2.8367963,-3.1215932,-3.2651687,-3.2777684,-3.2767246,-3.3679602,-3.5602419,-3.774107,-3.9270892,-4.0175619,-4.1346192,-4.3841391,-4.7907376,-5.2572069,-5.6196766,-5.7612896,-5.6981759,-5.568377,-5.5271306,-5.6266022,-5.7768869,-5.8289728,-5.7271538,-5.6158266,-5.8047948,-6.5909319,-8.0410023,-9.8832283,-11.597723,-12.670032,-12.860638,-12.323763,-11.499233,-10.845043,-10.580349,-10.599726,-10.604214,-10.350214,-9.841053,-9.3297939,-9.1349373,-9.4015169,-9.9781876,-10.500138,-10.624107,-10.255105,-9.6093187,-9.0700645,-8.9361105,-9.234313,-9.7220469,-10.07172,-10.103945,-9.9045582,-9.7450666,-9.8656883,-10.277088,-10.723775,-10.83919,-10.389338,-9.4407291,-8.3403425,-7.5221062,-7.2677307,-7.5731425,-8.1941233,-8.8235531,-9.2730207,-9.5436792,-9.7593279,-10.031025,-10.360049,-10.644046,-10.768596,-10.706216,-10.549176,-10.460139,-10.58708,-11.006843,-11.726533,-12.717381,-13.930947,-15.273136,-16.565128,-17.551241,-17.989208,-17.789772,-17.113619,-16.337347,-15.876678,-15.956914,-16.474035,-17.048149,-17.253021,-16.886795,-16.112123,-15.369949,-15.113843,-15.528569,-16.408659,-17.271912,-17.634842,-17.279285,-16.352955,-15.258392,-14.41678,-14.060069,-14.168921,-14.568138,-15.090704,-15.690834,-16.437366,-17.407705,-18.567005,-19.718334,-20.556284,-20.790987,-20.273893,-19.065619,-17.422256,-15.712468,-14.296829,-13.406562,-13.06049,-13.057612,-13.066529,-12.793325,-12.157701,-11.37762,-10.889581,-11.117894,-12.208098,-13.887625,-15.563614,-16.629339,-16.808664,-16.320807,-15.742355,-15.632953,-16.156048,-16.949718,-17.354448,-16.870281,-15.5487,-14.044213,-13.258709,-13.780072,-15.468912,-17.473789,-18.693153,-18.415625,-16.746725,-14.55519,-12.969165,-12.732134,-13.809781,-15.472425,-16.774448,-17.111418,-16.509802,-15.500023,-14.70143,-14.420368,-14.522199,-14.626594,-14.448271,-14.020304,-13.644392,-13.624262,-13.997159,-14.471191,-14.615618,-14.160034,-13.179847,-12.034392,-11.110847,-10.56958,-10.278299,-9.9721889,-9.5014896,-8.9629345,-8.607687,-8.6019278,-8.842206,-8.9925947,-8.7348766,-8.0408401,-7.2352195,-6.7650623,-6.8248296,-7.1277652,-7.0379715,-6.019908,-4.1025047,-1.9967098,-0.71688163,-0.90996486,-2.3421564,-3.935817,-4.3996444,-3.0775471,-0.45147312,2.0749776,3.0175607,1.7496567,-1.0829433,-3.9613049,-5.4548488,-5.1065168,-3.6469417,-2.3987434,-2.2925189,-3.1905386,-4.0034022,-3.5263555,-1.4027088,1.4891917,3.5413179,3.5035233,1.4135631,-1.2950034,-2.6302896,-1.3049799,2.3990588,6.7394538,9.5343933,9.441143,6.6838832,2.8037913,-0.34961727,-1.6967298,-1.396735,-0.48512849,-0.024344672,-0.39640683,-1.1951323,-1.7044768,-1.5347511,-0.92120183,-0.49123374,-0.72786641,-1.5750853,-2.4923444,-2.8949835,-2.6121945,-1.9922706,-1.5819069,-1.6615785,-2.0439224,-2.3281012,-2.4115317,-2.8047559,-4.3987451,-7.7483644,-12.36045,-16.573517,-18.271681,-16.095797,-10.404998,-3.3139491,2.3212328,4.4193783,2.7893291,-0.83827722,-3.8783331,-4.3926039,-2.108341,1.6277997,4.8522015,6.2464471,5.8524475,4.847218,4.6206803,5.8284521,8.0452852,10.188826,11.352337,11.439667,11.179789,11.55401,13.068302,15.379031,17.507504,18.467628,17.871096,16.125355,14.139481,12.775888,12.415966,12.881242,13.687295,14.401015,14.853969,15.116525,15.324592,15.533075,15.705319,15.809733,15.904023,16.112812,16.51355,17.038954,17.499371,17.727554,17.735334,17.743135,18.030628,18.698231,19.515816,19.993633,19.662117,18.394018,16.555231,14.86858,14.055319,14.4619,15.890028,17.721106,19.248224,20.014801,19.975431,19.419281,18.740631,18.213476,17.893763,17.671822,17.404049,17.02359,16.570095,16.14555,15.847045,15.724102,15.774322,15.959776,16.221849,16.48863,16.685389,16.756355,16.689316,16.521975,16.317949,16.125807,15.954892,15.794424,15.667769,15.676765,15.984725,16.72402,17.873997,19.19384,20.277933,20.730478,20.373894,19.368408,18.159248,17.265154,17.018848,17.404676,18.086235,18.60751,18.650537,18.201973,17.537079,17.038029,16.9585,17.27379,17.701807,17.879486,17.590433,16.911545,16.192511,15.874681,16.244255,17.252333,18.502245,19.419331,19.523052,18.665245,17.111296,15.419352,14.176993,13.730591,14.046824,14.773627,15.457469,15.787893,15.73004,15.478119,15.275114,15.225561,15.228086,15.070516,14.61818,13.959106,13.395447,13.273351,13.756347,14.693033,15.675037,16.259487,16.221573,15.679917,15.016847,14.645541,14.771189,15.291972,15.891364,16.250048,16.235691,15.954384,15.646823,15.514222,15.596061,15.77398,15.883019,15.83987,15.695653,15.582807,15.603488,15.743924,15.873565,15.823161,15.482134,14.849832,14.01635,13.101094,12.200638,11.378056,10.684354,10.175583,9.8985548,9.853344,9.9691772,10.12473,10.206985,10.165735,10.017933,9.7948151,9.4765205,8.9796734,8.2288418,7.2726541,6.3521118,5.8406873,6.0562634,7.0442142,8.4760094,9.7560043,10.303449,9.8566656,8.6158838,7.1296372,5.9862313,5.4956131,5.5543733,5.7690067,5.7462664,5.3541412,4.7836494,4.3811216,4.3779678,4.7119141,5.0655766,5.0930667,4.6717119,3.9976974,3.4538305,3.3388066,3.6462276,4.0497241,4.1084347,3.5548379,2.4694026,1.2249944,0.24249744,-0.27192953,-0.42830396,-0.52893031,-0.81455666,-1.2670753,-1.6142075,-1.5370978,-0.93496364,-0.054923527,0.61666471,0.64226735,-0.084516965,-1.2503655,-2.2918634,-2.7206199,-2.4009452,-1.6095833,-0.84823358,-0.53578269,-0.77694225,-1.3457299,-1.8787249,-2.1400893,-2.1823628,-2.3026488,-2.8292267,-3.8797402,-5.2453232,-6.4726281,-7.0952821,-6.8813701,-5.961143,-4.7718902,-3.8568869,-3.6251907,-4.1872573,-5.3334589,-6.6508932,-7.7153673,-8.2717667,-8.3299341,-8.1421385,-8.076211,-8.4390879,-9.3259201,-10.561438,-11.763094,-12.502352,-12.494162,-11.728807,-10.485236,-9.2200308,-8.3839149,-8.2484474,-8.8154669,-9.8387985,-10.937034,-11.742672,-12.028548,-11.771535,-11.141129,-10.424395,-9.9142313,-9.7976522,-10.083551,-10.601678,-11.080318,-11.274717,-11.08742,-10.617405,-10.106563,-9.807826,-9.8469009,-10.157616,-10.529819,-10.741549,-10.695609,-10.479165,-10.314711,-10.438984,-10.98697,-11.94556,-13.187033,-14.538578,-15.829713,-16.893513,-17.549328,-17.619585,-17.006491,-15.793901,-14.293935,-12.970789,-12.248136,-12.294818,-12.921753,-13.673523,-14.083353,-13.951361,-13.477598,-13.159649,-13.504601,-14.720194,-16.565529,-18.447878,-19.708069,-19.932966,-19.1304,-17.693714,-16.204685,-15.198425,-15.004705,-15.708937,-17.201658,-19.256609,-21.600086,-23.972065,-26.191519,-28.213089,-30.130554,-32.087036,-34.109184,-35.957592,-37.116436,-36.987015,-35.222031,-32.017784,-28.162018,-24.750937,-22.685801,-22.216442,-22.80592,-23.423876,-23.125422,-21.590681,-19.306948,-17.278624,-16.430582,-17.057611,-18.647203,-20.178148,-20.710794,-19.912743,-18.211264,-16.497522,-15.580134,-15.727442,-16.566774,-17.377153,-17.569935,-17.049807,-16.241901,-15.790571,-16.136686,-17.240194,-18.605701,-19.57267,-19.677153,-18.870642,-17.49246,-16.050503,-14.966103,-14.427031,-14.394627,-14.706187,-15.174864,-15.630234,-15.916587,-15.905578,-15.553283,-14.966594,-14.403438,-14.161178,-14.394538,-14.981503,-15.553023,-15.703667,-15.266642,-14.465858,-13.816018,-13.804848,-14.553827,-15.694753,-16.573915,-16.674671,-15.981836,-15.024026,-14.532609,-14.922669,-15.948711,-16.799101,-16.609179,-15.075149,-12.74755,-10.763473,-10.141036,-11.072077,-12.691878,-13.527795,-12.395225,-9.1982107,-5.1158142,-2.0163188,-1.4201823,-3.624943,-7.5202069,-11.205434,-13.038382,-12.490532,-10.322369,-8.020668,-6.8850636,-7.3335676,-8.8163996,-10.319325,-11.074208,-11.003427,-10.644496,-10.66521,-11.340005,-12.351277,-13.03028,-12.844091,-11.77881,-10.359188,-9.3052969,-9.0714312,-9.5784311,-10.304785,-10.655141,-10.347966,-9.5690269,-8.8082724,-8.5092955,-8.772027,-9.2964859,-9.5874538,-9.2747011,-8.3449593,-7.1541481,-6.2303567,-5.9941397,-6.5490928,-7.6345887,-8.7382355,-9.2974386,-8.9038992,-7.4470344,-5.1621795,-2.5703685,-0.31588054,1.0605139,1.3342918,0.69621789,-0.3319408,-1.1494081,-1.3799094,-1.0605657,-0.59631568,-0.4907046,-1.0042238,-1.9505157,-2.7693002,-2.8485751,-1.9074353,-0.20173289,1.5849029,2.7094765,2.7792814,1.9562346,0.83660233,0.088719487,0.078376465,0.70993489,1.5645779,2.2241597,2.5563033,2.7753091,3.2524283,4.2186298,5.5690169,6.9007645,7.7533431,7.8852544,7.4050641,6.6822224,6.1143479,5.9163036,6.0640984,6.4044094,6.8209176,7.3195028,7.9724116,8.7835236,9.6057663,10.202113,10.421443,10.353194,10.318783,10.668569,11.505341,12.534734,13.179653,12.921246,11.66,9.8512869,8.2997599,7.718883,8.3262978,9.7353773,11.2162,12.156355,12.418427,12.360937,12.51981,13.18104,14.150243,14.885695,14.902596,14.158093,13.131292,12.522518,12.768594,13.714061,14.685496,14.943087,14.215475,12.948166,12.073391,12.427332,14.186142,16.695745,18.823269,19.620279,18.883028,17.258661,15.836751,15.491026,16.384684,17.93297,19.215466,19.550377,18.863913,17.649044,16.588333,16.122505,16.248646,16.644842,16.984077,17.184271,17.415335,17.88209,18.573736,19.191999,19.330284,18.781267,17.744371,16.765455,16.42627,16.98008,18.175859,19.394165,20.014265,19.782194,18.951649,18.118494,17.862925,18.424438,19.598349,20.892775,21.825937,22.175669,22.047901,21.757982,21.628193,21.830833,22.348145,23.032059,23.693743,24.162739,24.305813,24.036934,23.347956,22.351217,21.288935,20.468004,20.126724,20.299015,20.764257,21.13344,21.042662,20.353502,19.245304,18.139069,17.487194,17.539658,18.212158,19.125628,19.794727,19.865986,19.285778,18.319763,17.423218,17.032606,17.379574,18.40847,19.822887,21.225525,22.277817,22.806604,22.82028,22.446033,21.837,21.104786,20.307905,19.486908,18.707689,18.07366,17.693983,