Bandpass,0,0.28505,-6.442945,-21.02548,-36.41302,-48.23127,-52.93757,-49.66905,-40.87691,-31.29088,-25.68247,-26.60655,-33.32863,-42.4786,-49.98521,-53.14887,-51.70929,-47.44614,-42.75263,-39.19155,-36.92064,-35.20116,-33.45628,-32.01196,-31.95644,-34.23824,-38.7014,-43.8245,-47.42794,-47.92796,-45.30194,-41.11105,-37.55438,-36.18374,-37.11873,-39.23182,-41.08621,-41.88958,-41.76545,-41.17215,-39.9895,-37.07035,-30.76121,-20.15726,-6.249234,7.943011,18.55096,22.77853,20.42853,14.06075,7.622623,4.34384,5.1519,8.526156,11.7867,12.91201,11.69498,9.549444,8.226102,8.428694,9.345139,9.418498,7.762362,5.132911,3.656024,5.39771,10.73548,17.71986,23.01286,23.91959,20.2241,14.55673,10.90919,12.12077,17.8992,24.70088,27.68432,23.64142,13.14473,0.5483842,-8.261161,-9.112391,-1.918947,9.211663,18.20858,20.34066,14.73253,4.720287,-4.079082,-6.841702,-2.044127,7.900307,18.08646,23.73323,22.51852,15.46762,6.093886,-1.58175,-5.018566,-4.174977,-1.200435,0.8627947,-0.3971612,-5.757534,-14.25043,-23.84332,-32.46733,-38.87912,-43.01845,-45.80413,-48.56397,-52.39617,-57.72285,-64.15588,-70.64761,-75.81587,-78.31893,-77.21556,-72.27841,-64.22784,-54.79993,-46.52459,-42.12653,-43.62391,-51.40331,-63.69893,-76.85001,-86.41582,-88.81458,-82.82153,-70.21194,-55.18214,-42.72631,-36.6771,-38.29093,-45.99469,-56.34299,-65.64576,-71.4521,-73.23219,-72.07533,-69.73438,-67.6106,-66.21001,-65.22606,-64.06879,-62.43712,-60.61424,-59.36193,-59.52732,-61.58217,-65.2955,-69.66392,-73.12157,-74.00491,-71.15849,-64.47968,-55.15948,-45.40587,-37.65649,-33.56884,-33.28412,-35.40577,-37.78593,-38.73311,-37.94366,-36.55748,-36.24638,-37.88044,-40.66943,-42.44275,-41.03222,-35.9216,-29.02213,-23.84845,-23.36207,-27.69052,-33.22319,-33.91992,-24.39216,-3.156981,25.83343,54.45201,73.98613,79.24239,70.98369,55.4018,40.93882,34.21,37.20497,47.12029,58.63869,67.13309,70.91021,71.35267,71.19379,72.24811,74.12002,74.64689,71.66238,64.81365,56.18814,49.32558,47.21825,50.56158,57.31954,63.85503,66.93284,65.40738,60.67157,55.68505,53.23666,54.46522,58.42083,62.80071,65.33282,64.98749,62.38808,59.30507,57.60841,58.28951,61.04703,64.56614,67.25824,68.03422,66.72271,63.97562,60.77522,57.84921,55.32306,52.79355,49.7777,46.24989,42.92035,41.01276,41.58832,44.76256,49.30547,52.96313,53.45893,49.70677,42.55376,34.56132,28.83118,27.45172,30.40891,35.59184,39.92256,40.9833,38.21665,33.03057,27.80593,24.46969,23.53857,24.20269,25.30006,26.43432,28.38337,32.44034,39.1079,47.08286,53.38379,54.75811,49.64125,39.46146,28.36367,21.32097,21.6095,29.05689,40.10371,49.68046,53.85511,51.758,45.74154,39.77219,37.08279,38.48719,42.2906,45.71368,46.83622,45.81158,44.61788,45.57804,49.63827,55.53269,60.36167,61.24307,57.02836,49.077,40.66964,35.4417,35.74079,41.75824,51.74342,62.9719,72.79271,79.19228,80.77996,76.52197,65.66263,48.04574,24.62242,-2.292199,-29.3563,-53.1022,-70.97696,-81.98724,-86.65129,-86.4025,-82.89674,-77.67516,-72.28227,-68.52512,-68.40203,-73.46157,-83.84948,-97.68828,-111.4217,-121.2184,-124.8333,-122.8656,-118.546,-115.9647,-117.6124,-122.6499,-127.0257,-125.569,-114.9989,-96.14839,-74.0491,-55.68666,-46.57132,-48.00868,-56.58749,-66.15607,-71.13817,-69.28381,-62.33762,-54.3628,-48.88043,-46.6327,-45.34972,-41.59272,-33.42237,-22.12075,-11.76813,-6.844646,-9.282158,-16.80265,-23.65122,-23.42455,-12.44973,8.175611,33.00301,54.85649,68.19432,71.4302,67.11534,60.11213,54.94545,53.81058,56.14119,59.68942,62.23293,62.85533,62.15781,61.48608,61.80223,62.91666,63.47567,61.62404,55.92484,46.08361,33.19591,19.48653,7.671096,0.1429595,-1.795199,1.580516,8.41577,15.86144,21.0969,22.4024,19.78311,14.81312,9.761847,6.475441,5.640472,6.82983,9.229201,12.4888,17.05404,23.68689,32.4849,42.12398,49.98974,53.31202,50.72383,43.28143,34.22762,27.49914,25.77113,29.1506,35.27455,40.7313,42.94324,41.40001,37.58337,33.76186,31.50437,30.86053,30.63414,29.42392,26.62672,22.70212,18.59002,14.78735,10.83538,5.636106,-1.604476,-10.49419,-19.30504,-25.72813,-28.07499,-26.15005,-21.23985,-15.26504,-9.692083,-4.932821,-0.5703647,3.853251,8.151487,11.47016,12.97121,12.70952,11.99399,12.85707,16.87287,24.05566,32.57248,39.51378,42.30404,39.94192,33.3809,24.90785,16.9565,11.06247,7.460805,5.377612,3.658319,1.309878,-2.25212,-7.166018,-13.10316,-19.20543,-24.13641,-26.4584,-25.33541,-21.22847,-16.07694,-12.6683,-13.39627,-19.08522,-28.62134,-39.6803,-50.12444,-59.16312,-67.48071,-76.23676,-85.65446,-94.26888,-99.50398,-99.308,-93.7665,-85.48846,-78.32931,-75.1623,-76.12971,-78.62878,-79.13036,-75.69505,-69.46363,-64.02293,-62.9651,-67.24725,-74.21602,-79.10357,-78.13492,-71.16268,-61.94394,-55.64764,-55.10133,-58.2744,-58.87421,-49.973,-28.55727,1.880828,32.51472,53.62373,59.74117,52.43877,39.10112,28.49103,25.85264,30.48779,37.09253,39.74767,35.85803,27.54286,19.78893,16.83517,19.34245,24.23309,27.15986,25.76261,21.36358,17.91099,18.93083,24.66265,31.45076,33.90993,28.47254,15.93355,1.248307,-9.345011,-12.03594,-7.594421,-0.6231412,3.521993,2.075416,-3.702649,-9.838703,-12.70819,-11.7273,-9.878531,-11.77119,-20.57741,-35.87614,-53.76408,-69.06753,-78.14903,-80.55385,-78.61598,-75.56028,-73.51879,-72.76067,-72.41778,-71.89032,-71.72179,-73.24863,-77.36878,-83.47323,-89.48088,-93.06453,-93.19424,-90.8319,-88.18382,-86.99157,-87.10428,-86.44474,-82.51976,-74.46864,-64.14626,-55.31747,-51.31916,-52.69358,-56.45976,-57.70401,-52.65207,-41.30316,-27.86257,-18.52196,-17.82156,-25.79193,-37.66754,-46.43421,-46.73439,-37.8264,-23.84145,-11.22068,-4.870564,-5.311186,-8.445106,-8.020313,0.6877636,18.07156,39.77441,58.78608,68.83128,67.25272,56.02053,40.56532,27.21924,20.59376,22.04789,29.72323,39.874,48.71484,53.95852,55.46953,54.9064,54.63601,56.46126,60.73853,66.27141,70.99913,73.11431,72.0124,68.56429,64.55653,61.64059,60.41841,60.22557,59.74079,58.01883,55.25948,52.78825,52.23986,54.4779,58.9812,64.12813,68.20429,70.45977,71.48395,72.63265,74.88805,77.95312,80.25068,79.88829,75.98972,69.48895,62.82614,58.66839,58.4317,61.51279,65.68022,68.34477,67.8991,64.33559,58.8898,53.09652,47.97962,43.87549,40.85419,39.21635,39.53613,42.12385,46.33729,50.40469,52.12046,50.14768,45.11668,39.71423,37.52594,41.19912,50.98549,64.54037,78.11074,88.38885,93.94122,95.44596,94.76193,93.58803,92.62347,91.65732,90.27155,88.39418,86.12415,82.91618,76.88715,65.09393,45.02868,16.63743,-16.42544,-47.39831,-68.9343,-76.41586,-70.29662,-56.11161,-42.02896,-35.18894,-38.72188,-50.91831,-66.76986,-80.81335,-89.63775,-92.81934,-92.14941,-89.97702,-87.85747,-86.2087,-84.84882,-83.67905,-82.82829,-82.14919,-80.59417,-76.21876,-67.12236,-52.90387,-35.68092,-19.8291,-10.31583,-10.40033,-19.94798,-35.33693,-51.06544,-62.21881,-66.49263,-64.77116,-60.09925,-55.7586,-53.55629,-53.18483,-52.81369,-50.40271,-44.92292,-36.87973,-28.00807,-20.45337,-15.91892,-15.12845,-17.68689,-22.23505,-26.7605,-29.00587,-26.98027,-19.54068,-6.894602,9.205721,25.76754,39.36486,47.22236,48.18005,43.15696,34.88942,26.98925,22.62938,23.32091,28.27084,34.64159,38.72152,37.61494,30.75595,20.47824,11.20395,7.425894,11.33628,21.28625,32.01623,36.77437,30.45133,12.2103,-13.77457,-39.95233,-58.66111,-65.40556,-60.52119,-48.47713,-35.33755,-25.84382,-21.65229,-21.46845,-22.67861,-23.28078,-22.92827,-22.62725,-23.56528,-26.05703,-29.37872,-32.52361,-35.21003,-38.28074,-43.11616,-50.43848,-59.3942,-67.66136,-72.63113,-72.94519,-69.35757,-64.31527,-60.48558,-59.1877,-59.76078,-60.28859,-59.17092,-56.4519,-53.96024,-54.12891,-58.25828,-65.40444,-72.67838,-76.8084,-75.98168,-70.78261,-63.6451,-57.22404,-52.80204,-49.80361,-46.70817,-42.67739,-38.68789,-37.26043,-40.82719,-49.72921,-61.19793,-70.12659,-71.37643,-62.39073,-44.65876,-23.19359,-4.295999,7.199787,9.802861,5.535403,-1.467258,-7.021173,-8.545752,-5.654184,0.2887652,7.12461,12.79364,15.86536,15.75093,12.78476,8.242879,4.175954,2.886646,6.076708,14.00338,25.14575,36.71112,45.85082,50.98845,52.50383,52.33934,52.72583,54.78808,57.92022,60.3733,60.74386,59.42567,59.01427,63.21971,74.74425,93.28862,114.9181,133.3461,142.6557,140.1038,127.5295,110.5564,95.93813,88.40081,88.63675,93.45884,97.96667,98.45634,94.41849,88.52645,84.68587,85.37001,89.88174,94.63064,95.30335,89.60669,78.89567,67.60358,60.73093,60.88078,66.64874,73.44723,76.32824,73.12989,65.95291,59.95868,60.0892,67.66785,79.00603,87.01804,85.03308,70.61206,47.12757,22.13294,3.456746,-4.689425,-3.370409,2.471203,7.417984,8.768275,7.562751,6.993311,9.478551,14.52372,18.87877,18.87808,13.2918,4.612339,-2.271827,-3.259704,2.036141,9.69316,13.81648,10.44097,0.4697211,-10.40559,-14.98613,-9.134704,5.240371,20.79672,28.78665,24.16153,8.665211,-10.00752,-22.52757,-23.14327,-12.68161,2.386764,14.11763,17.85216,14.64924,10.01027,9.861691,16.42848,26.6103,33.8252,32.09551,19.80014,0.8057958,-17.62257,-28.77201,-29.89604,-23.18141,-13.95307,-7.44689,-6.167306,-9.242329,-13.79027,-17.09578,-18.09224,-17.36798,-16.04174,-14.60275,-12.67475,-9.834678,-6.724996,-5.417111,-8.513656,-17.43507,-31.03519,-45.60322,-56.46707,-60.36217,-57.17002,-49.95968,-43.28375,-40.73832,-43.22927,-48.91147,-54.70577,-58.33661,-59.5752,-59.95084,-61.23658,-63.81041,-66.06985,-65.354,-59.82387,-50.08131,-39.40889,-32.33831,-32.28226,-39.57136,-51.05481,-61.55991,-66.45737,-63.97392,-56.0315,-47.19663,-42.33839,-44.2109,-52.1769,-62.6201,-70.72844,-72.69428,-67.25645,-55.95768,-42.15457,-29.40657,-20.05227,-14.58234,-11.94516,-10.47767,-8.920415,-7.026727,-5.541832,-5.641695,-8.161236,-12.99513,-18.95907,-24.18315,-26.87855,-26.13915,-22.4022,-17.29736,-12.87305,-10.48532,-9.863921,-8.871185,-4.209112,7.113646,26.17498,51.18595,77.76107,100.4271,114.7424,119.0483,114.9893,106.5448,98.0977,92.55053,90.46975,90.60827,91.34496,92.02686,93.28314,96.05473,99.98645,102.3375,98.39356,83.49927,55.77065,17.98288,-22.62593,-56.832,-77.13014,-80.85973,-71.15857,-55.25547,-40.98796,-33.33449,-32.68678,-35.58535,-37.31065,-34.78617,-28.21439,-20.69236,-16.22366,-17.38409,-23.96643,-33.25146,-41.58423,-46.25063,-46.60347,-43.94215,-40.40986,-37.68552,-36.24241,-35.48432,-34.50754,-32.89076,-30.99732,-29.66704,-29.58421,-30.80396,-32.76064,-34.7184,-36.3189,-37.80225,-39.71643,-42.29152,-44.92347,-46.19579,-44.55509,-39.33271,-31.51049,-23.68584,-19.07922,-19.98244,-26.42945,-35.86178,-44.10258,-47.26309,-43.64593,-34.633,-24.0117,-16.02388,-13.15399,-14.87198,-18.0727,-19.01402,-15.67523,-9.157758,-3.246601,-2.291044,-8.576859,-20.72067,-34.0932,-43.12362,-44.22986,-37.71158,-27.50756,-18.94662,-15.79197,-18.28609,-23.30894,-26.50002,-25.03411,-19.37093,-12.94219,-9.998977,-12.94473,-20.77077,-29.52514,-34.52021,-32.96227,-25.48345,-15.74209,-8.402198,-6.700249,-10.94442,-18.65762,-26.09776,-30.17452,-29.71122,-25.53622,-19.61858,-13.93508,-9.719193,-7.329595,-6.52449,-6.751684,-7.233086,-6.941582,-4.748487,0.1045166,7.381559,15.51259,21.93312,24.12144,20.87194,13.08701,3.552896,-4.290855,-7.98265,-7.18941,-3.738698,-0.5078033,0.2033683,-2.095538,-5.923458,-8.792793,-8.718193,-5.398983,-0.414524,3.651158,4.63767,1.98484,-2.981413,-7.775918,-10.05795,-8.782677,-4.594098,0.6945496,5.171962,7.798072,8.719587,8.794618,8.690002,8.18201,6.180132,1.529907,-5.875213,-14.41977,-21.09455,-22.81919,-18.11043,-8.127968,3.617455,12.88614,16.85272,15.56994,11.85505,9.578102,11.28908,16.58135,22.22865,24.1184,19.90643,10.81845,1.442634,-2.495121,2.813352,17.09942,36.01471,53.32475,64.09485,67.09972,65.1659,63.3329,65.95317,74.36097,86.33478,97.48709,103.676,103.0514,96.73103,87.94377,80.31365,76.27228,76.32404,79.30656,83.25809,86.35587,87.52935,86.65051,84.38009,81.77728,79.75256,78.47725,76.99503,73.3472,65.37422,51.97612,34.21077,15.48186,0.4361943,-7.080023,-6.001931,1.194753,9.544412,14.03519,12.16211,5.151787,-2.865017,-7.28352,-5.656394,0.9852738,8.844025,13.60127,12.81364,7.062226,-0.7083129,-7.093794,-10.11451,-9.95468,-8.280099,-6.790911,-6.086885,-5.580804,-4.373428,-2.320977,-0.4243922,-0.2234243,-2.640702,-7.143087,-11.87466,-14.71525,-14.55328,-11.90217,-8.451582,-5.891193,-4.850706,-4.688025,-4.230533,-2.8784,-1.212946,-0.62603,-2.215158,-5.75702,-9.558598,-11.37596,-9.823563,-5.307966,0.1884314,4.373447,6.116035,6.114289,6.275784,8.212144,11.87791,15.32737,15.83094,11.67666,3.486722,-5.848382,-12.65635,-14.51887,-11.63825,-6.715833,-3.435311,-4.459279,-10.09341,-18.31074,-26.00369,-30.65407,-31.47152,-29.47103,-26.62325,-24.68899,-24.41142,-25.40265,-26.62775,-27.09603,-26.37309,-24.72105,-22.89494,-21.75384,-21.85013,-23.13075,-24.85662,-25.81605,-24.81402,-21.27784,-15.67601,-9.467802,-4.504466,-2.13954,-2.538014,-4.623538,-6.74839,-7.702133,-7.426105,-6.949729,-7.57106,-9.827141,-12.98127,-15.42902,-15.78982,-13.93877,-11.21492,-9.579624,-10.23875,-12.68283,-14.88069,-14.61643,-11.135,-5.965862,-2.252806,-2.876106,-8.502412,-16.83276,-23.63693,-25.04888,-19.78352,-9.939673,0.09370532,5.975369,5.605618,-0.05652383,-7.898371,-14.57592,-18.21665,-18.94792,-18.15049,-17.15554,-16.36414,-15.32582,-13.55476,-11.32454,-9.743498,-10.00145,-12.33497,-15.51759,-17.34517,-15.89621,-10.79166,-3.636551,2.672269,5.389594,3.289979,-2.777251,-10.3726,-16.62711,-19.42201,-18.05735,-13.2616,-6.737979,-0.5543855,3.431295,4.059835,1.2476,-3.875368,-9.254167,-12.68807,-12.85451,-10.05594,-6.183183,-3.773884,-4.612528,-8.68427,-14.15777,-18.46346,-19.8197,-18.23444,-15.31988,-13.05009,-12.31761,-12.31635,-11.22485,-7.748835,-2.432944,2.263745,3.328138,-0.8087255,-8.943983,-17.39793,-21.87453,-19.81123,-11.81272,-1.316225,7.268555,10.80037,8.740096,2.956104,-3.640219,-8.63567,-10.93577,-10.64061,-8.442056,-5.215044,-2.087965,-0.6771923,-2.888252,-10.01366,-21.54782,-34.63433,-44.87086,-48.34666,-43.83716,-33.74079,-22.9769,-16.33606,-15.84202,-19.79088,-24.10647,-25.13244,-22.00048,-16.95957,-13.43489,-13.17654,-14.55989,-13.38145,-5.78158,8.624796,25.6273,38.31188,40.98324,32.71648,18.23971,5.48379,1.218692,7.405654,20.41627,33.43929,40.42904,39.1188,31.4134,21.30237,11.99561,4.296436,-2.880484,-10.56834,-18.09317,-23.0778,-23.117,-17.8067,-9.485122,-2.00174,1.685189,1.338771,-0.668261,-1.371706,0.3470033,2.758187,2.565286,-2.398702,-11.07992,-19.43128,-23.04143,-20.41299,-14.45712,-10.8355,-13.96106,-23.2693,-32.47372,-32.71239,-17.8985,11.05438,45.95596,75.4383,91.04331,91.59103,83.16174,74.81051,72.84277,77.30911,82.85336,83.10577,75.52064,63.36069,53.54526,51.93762,59.34858,71.0002,79.77776,81.00368,75.45238,68.58291,66.58286,72.00877,82.03815,90.50285,92.24244,86.71471,78.34279,73.3817,75.51279,83.27137,91.12154,93.43233,88.54805,80.04211,74.18118,75.27332,82.12279,88.16132,85.38013,69.59383,43.60084,16.10155,-3.044323,-8.272344,-1.127002,11.18538,20.3891,21.86089,16.59095,9.46802,5.409373,6.112661,9.518993,12.0288,11.58729,9.274924,8.273365,11.08189,17.17165,22.95553,24.24708,19.52033,11.59278,6.366546,9.282628,21.77427,40.10107,57.40619,67.70173,69.19219,64.78937,59.54465,56.7776,55.55272,51.21758,38.694,16.34598,-12.12517,-39.06197,-56.70403,-61.18174,-54.29008,-42.13162,-31.63307,-27.12517,-28.89064,-34.18413,-39.66232,-43.47395,-45.76973,-47.64825,-49.61709,-50.83495,-49.66082,-44.99796,-37.34798,-28.75343,-21.67687,-17.63734,-16.57414,-17.31422,-18.69046,-20.39414,-22.90814,-26.62368,-30.93056,-34.12902,-34.39835,-31.20983,-26.11661,-22.19457,-22.31563,-27.30526,-35.22907,-42.38141,-45.44537,-43.48141,-38.46634,-34.0179,-33.11212,-36.26398,-41.33479,-45.05452,-45.23357,-42.19064,-38.46269,-37.0214,-39.19759,-43.70721,-47.42914,-47.41837,-42.83949,-35.56771,-29.09257,-26.46204,-28.58981,-33.9568,-39.78827,-43.83009,-45.51513,-45.81412,-46.01314,-46.41149,-45.95812,-43.14115,-37.50456,-30.63892,-25.79051,-26.13185,-32.70488,-43.37407,-53.59182,-58.67929,-56.35512,-48.02726,-38.06012,-31.41781,-31.04281,-36.47341,-44.42107,-50.8639,-53.3259,-51.98373,-49.04034,-46.91366,-46.50658,-46.70937,-45.42199,-41.36009,-35.36655,-30.25831,-29.19653,-33.57148,-41.77512,-49.75072,-53.12805,-49.73728,-41.00068,-31.30852,-25.67643,-26.99987,-34.48851,-44.1692,-51.1406,-52.24265,-47.59667,-40.19272,-33.87783,-31.05016,-31.46506,-32.81512,-32.60607,-30.03997,-26.65165,-25.27476,-28.01184,-34.55117,-41.97161,-46.24961,-44.58696,-37.13868,-27.05646,-18.79233,-15.66131,-18.11721,-23.73861,-28.86313,-30.8119,-29.32218,-26.35832,-24.52213,-25.16574,-27.46985,-29.08387,-27.88584,-23.67088,-18.60503,-16.06656,-18.55035,-25.94153,-35.27792,-42.23019,-43.47169,-38.54908,-30.16641,-22.70678,-19.87315,-22.78467,-29.56696,-36.55729,-40.33395,-39.38059,-34.52834,-28.11183,-22.51699,-19.04664,-17.67521,-17.61505,-18.10973,-18.83909,-19.72345,-20.44465,-20.2367,-18.27764,-14.48986,-10.11859,-7.465554,-8.662305,-14.06962,-21.31923,-25.81524,-22.72882,-9.588442,11.95005,36.28659,56.15396,65.95751,64.47113,55.41525,45.53678,41.14051,44.89766,54.62694,64.68964,69.22181,65.42538,55.11958,43.72991,37.29218,39.13594,48.04894,58.88108,65.19718,62.49897,50.29551,32.01394,12.9706,-2.345786,-12.16003,-17.54841,-20.99263,-24.40992,-27.93039,-30.11663,-29.35866,-25.43079,-20.12389,-16.47775,-17.06611,-22.40693,-30.51955,-37.94757,-41.65471,-40.64997,-36.36982,-31.60785,-28.68994,-28.05754,-28.14908,-26.64128,-22.22171,-15.7164,-9.775418,-7.243067,-9.204222,-13.96026,-17.66646,-16.34797,-8.146235,5.547107,20.77657,33.15364,40.18769,42.44079,42.84539,44.6419,49.23427,55.30737,59.77097,59.94202,55.59032,49.51566,46.19133,49.20369,58.97453,72.15919,83.16416,87.0181,82.0301,70.76871,58.82488,52.02369,53.57339,62.61401,74.83552,84.71843,88.16326,84.19489,75.02345,64.65368,56.90445,53.8615,55.40109,59.78754,64.83981,68.98912,71.75022,73.50692,74.8479,75.8626,75.76454,73.02242,65.98022,53.70854,36.73152,17.24967,-1.347803,-15.59057,-23.2257,-24.10696,-20.18121,-14.50121,-9.722035,-6.870099,-5.08417,-2.493971,2.280541,8.945493,15.45903,19.18948,18.61896,14.47701,9.466669,6.614115,7.208103,9.688354,10.371,5.788593,-4.668047,-17.47119,-26.04063,-23.83084,-7.816846,19.582,51.30096,78.7939,95.86311,101.1046,97.75438,91.25623,86.14469,84.0763,84.01037,84.06824,83.60101,83.94952,87.39625,95.10912,105.6249,115.1092,119.4265,116.7803,109.1861,101.6536,99.37207,104.4667,114.2662,122.2109,121.0081,106.3662,79.29063,45.77319,14.14358,-8.446947,-18.62558,-17.39373,-8.806342,2.231325,11.81119,17.79711,19.60515,17.59781,12.6807,6.251608,0.2021137,-3.422808,-3.192368,0.8897555,7.101817,12.62551,14.8797,12.86888,7.746142,2.201676,-1.025014,-0.6752061,2.333883,5.454384,5.979234,2.604219,-3.792664,-10.57329,-14.70848,-14.34504,-9.7458,-3.140442,2.399474,4.470494,2.483213,-2.100374,-6.537695,-8.213212,-6.016655,-1.02733,3.866575,5.302357,1.150509,-8.223346,-19.8261,-29.21834,-32.53892,-28.41217,-18.74711,-7.941699,-0.8152075,-0.2936976,-6.050503,-14.8162,-22.18228,-24.89742,-22.40552,-16.83497,-11.55584,-9.234096,-10.54051,-14.19453,-18.15809,-21.0932,-23.10139,-25.30682,-28.65982,-32.86985,-36.27293,-36.78747,-33.3404,-26.79342,-19.69579,-14.95902,-14.26036,-17.17947,-21.61122,-25.17743,-26.72332,-26.94132,-27.73357,-30.74979,-36.06022,-41.83327,-45.24971,-44.10189,-38.1115,-29.187,-20.47897,-14.81003,-13.36444,-15.32647,-18.57684,-20.97319,-21.48886,-20.6395,-20.06688,-21.56945,-26.09304,-33.13126,-40.76959,-46.32817,-47.36387,-42.67099,-32.89785,-20.49322,-8.913172,-1.331312,0.6246354,-2.486964,-8.265963,-13.67774,-16.52211,-16.38377,-14.55115,-12.9918,-13.04368,-14.64997,-16.60488,-17.59622,-17.28092,-16.59899,-17.06005,-19.48959,-23.1612,-26.03273,-26.05562,-22.71657,-17.70567,-14.10122,-14.45469,-18.97744,-25.09248,-28.80317,-27.13601,-20.13148,-11.04456,-4.514978,-3.792823,-8.771546,-16.11706,-21.43893,-22.10632,-18.85451,-15.10265,-14.43485,-17.94963,-23.33134,-26.37059,-23.99269,-16.75853,-9.039174,-6.541202,-12.64279,-25.89045,-40.38701,-49.01315,-47.58821,-37.40782,-24.5316,-16.20334,-16.576,-24.35451,-33.77766,-38.28117,-34.53992,-24.41017,-13.64982,-8.327992,-11.21383,-20.34898,-30.53975,-36.65929,-36.59846,-32.06792,-26.95603,-24.50591,-25.26543,-27.10073,-27.12215,-24.08755,-19.58553,-17.17147,-20.02609,-28.69067,-40.36829,-50.26326,-54.13161,-50.50241,-41.28261,-30.50414,-22.07837,-17.91191,-17.38726,-18.29198,-18.44032,-16.95356,-14.54029,-12.81723,-13.24369,-16.33226,-21.47281,-27.27812,-32.12433,-34.61464,-33.89231,-29.86287,-23.33869,-15.98306,-9.897282,-6.856711,-7.494406,-10.89953,-14.97244,-17.4658,-17.18988,-14.69016,-11.96838,-11.38381,-14.36883,-20.70358,-28.73011,-36.2943,-41.77547,-44.59055,-44.98797,-43.45614,-40.297,-35.70351,-30.19098,-24.89862,-21.32882,-20.54969,-22.39275,-25.31491,-27.2134,-26.79547,-24.59979,-22.87283,-24.19076,-29.60799,-37.54994,-44.32838,-46.15145,-41.50093,-32.36566,-23.43482,-19.56927,-22.98566,-31.84373,-41.14597,-45.48006,-42.02285,-32.05663,-20.15008,-11.54865,-9.34808,-13.07887,-19.4,-24.31283,-25.4645,-23.18641,-19.81173,-17.89651,-18.56878,-20.99694,-23.16653,-23.30587,-20.99452,-17.30834,-14.05865,-12.73149,-13.81069,-16.79576,-20.70905,-24.62988,-27.91403,-30.10893,-30.83945,-29.91016,-27.58231,-24.72985,-22.58076,-22.06204,-23.1483,-24.73521,-25.27788,-23.88352,-21.14104,-19.02065,-19.73312,-24.16663,-30.9107,-36.62608,-37.71973,-32.42401,-22.02737,-10.42908,-2.16998,-0.02001898,-3.51002,-9.251599,-12.84316,-11.23998,-4.239127,5.690696,14.99381,20.9928,23.07554,22.53637,21.3694,20.91724,21.2391,21.48894,20.88407,19.48833,18.22913,18.15336,19.47853,21.15061,21.28672,18.28814,11.96208,3.946758,-2.8628,-5.632474,-2.974264,4.302233,13.44491,20.89525,23.78334,21.12137,14.1959,5.997145,-0.08634577,-1.782123,0.9740682,5.875856,9.169011,7.346391,-1.101994,-14.71682,-29.43643,-40.25191,-43.44719,-38.35364,-27.72999,-16.52765,-9.630307,-9.674413,-16.00855,-25.23645,-32.96395,-35.81005,-32.70892,-25.01354,-15.57602,-7.427111,-2.701462,-2.151481,-5.207087,-10.35368,-15.64421,-19.2989,-20.36647,-19.26248,-17.82722,-18.58924,-23.30507,-31.40706,-39.32449,-41.41805,-32.44955,-10.52196,21.13251,54.7564,81.11506,93.6298,91.45438,79.77306,67.04029,60.58924,62.99915,71.19485,78.71951,79.79787,72.80075,61.12704,51.08182,48.09419,53.56606,64.18857,74.04755,78.1825,75.45293,69.07541,64.60757,66.66061,76.27087,90.36489,103.4824,110.6274,109.6395,101.8753,91.08646,81.32866,75.14478,72.8789,73.22281,74.4198,75.32469,75.80265,76.44,77.91647,80.48101,83.77345,86.98056,89.16272,89.58869,87.9918,84.72705,80.77906,77.5575,76.46693,78.35015,83.05512,89.38319,95.52062,99.79344,101.3647,100.5138,98.34178,96.09926,94.53087,93.62634,92.8688,91.76379,90.25994,88.77444,87.82156,87.53516,87.44561,86.70862,84.63792,81.20457,77.12881,73.48376,71.03129,69.72313,68.70615,66.86997,63.63242,59.4761,55.87937,54.61609,56.77219,62.01727,68.5672,73.91596,76.01138,74.29948,70.07178,65.89931,64.37934,66.78899,72.34218,78.47466,82.08468,81.14599,75.86299,68.72359,63.32043,62.50141,66.78635,73.93559,79.97183,81.18955,76.10068,66.27456,55.577,48.20095,46.53941,50.0582,55.76703,59.9874,60.40657,57.25896,53.00275,50.72231,52.19341,56.69753,61.20984,61.80813,55.51609,41.64146,22.0249,0.2290191,-19.81464,-35.04597,-43.96541,-46.69845,-44.62711,-39.84039,-34.56752,-30.64736,-29.09034,-29.84118,-31.88651,-33.74157,-34.1595,-32.73613,-30.09111,-27.52398,-26.33525,-27.19874,-29.92569,-33.70179,-37.58945,-40.9578,-43.60761,-45.61495,-47.10852,-48.19181,-49.0418,-50.01168,-51.53472,-53.79873,-56.42263,-58.45569,-58.86602,-57.29925,-54.61247,-52.70153,-53.54641,-57.94677,-64.71741,-70.95394,-73.35378,-69.91744,-61.05181,-49.41499,-38.5947,-31.39206,-28.71798,-29.65574,-32.47801,-35.82227,-39.20766,-42.65001,-45.84345,-47.72174,-46.91361,-42.87567,-36.84968,-31.76812,-30.88391,-35.82304,-45.29726,-55.43811,-61.73465,-61.50082,-55.37994,-46.9235,-40.48324,-38.71975,-41.2771,-45.41802,-48.1143,-48.16265,-46.8945,-47.02715,-50.48896,-56.74367,-62.82159,-65.09786,-61.65929,-53.67785,-44.85378,-39.26957,-39.04072,-43.26783,-48.90145,-52.85223,-53.88159,-53.01771,-52.31588,-52.94773,-54.06713,-53.33175,-48.76028,-40.61004,-31.86985,-26.85657,-28.6998,-37.29498,-49.0853,-58.89462,-62.74892,-59.99261,-53.46417,-47.6985,-46.30671,-50.09367,-56.92027,-63.18839,-65.89807,-64.04088,-58.68269,-51.98648,-45.99903,-41.96469,-40.36404,-41.29703,-44.6766,-50.01193,-56.06403,-60.89256,-62.56205,-60.22626,-54.89062,-49.21631,-46.29969,-48.05976,-54.19347,-62.34999,-69.43326,-73.22686,-73.35754,-71.07666,-68.12929,-65.56236,-63.27783,-60.5633,-57.08223,-53.50007,-51.18922,-51.17944,-53.12487,-55.1238,-54.67287,-50.24432,-42.48218,-34.17495,-28.92339,-29.22771,-35.12138,-44.14278,-52.63037,-57.55162,-57.81367,-54.40474,-49.45908,-44.96564,-41.92848,-40.37914,-40.00681,-40.79708,-43.14886,-47.39956,-53.16468,-59.06785,-63.1819,-64.00655,-61.41281,-56.94407,-53.22297,-52.70891,-56.4399,-63.41122,-70.92864,-75.78599,-75.71832,-70.46008,-61.90135,-53.26053,-47.61961,-46.4974,-49.14507,-52.95617,-54.85171,-52.98409,-47.84846,-42.13146,-39.25993,-41.37724,-47.89273,-55.54468,-60.09221,-58.76564,-52.03502,-43.5423,-38.07623,-38.69569,-44.7337,-52.01008,-55.27459,-51.5015,-42.0018,-31.93047,-27.30581,-31.22951,-41.59351,-51.7713,-54.0351,-43.79565,-22.22519,4.24617,27.23717,40.59645,43.10421,38.3364,32.04617,28.82973,30.04227,33.94567,37.59338,38.96635,37.95373,35.77262,33.55558,31.33296,28.19535,23.4225,17.58968,12.66446,10.88565,13.17695,18.27511,23.30806,25.54641,24.17848,20.8845,18.75186,20.20419,25.30183,31.55344,35.38013,34.28932,28.36725,20.1743,13.19869,9.929472,10.7753,14.38424,18.93928,23.39401,27.78973,32.56686,37.57743,41.70112,43.46728,42.24404,39.04085,36.18473,35.93653,38.93159,43.56281,46.83202,46.20906,41.30326,34.22811,28.38132,26.40991,28.67191,33.15997,36.87358,37.68442,35.46973,31.85925,28.91827,27.77931,28.17585,29.08571,29.85491,30.84211,33.05235,37.06509,42.16341,46.46935,48.12057,46.67994,43.67853,41.73993,42.75539,46.35333,49.81988,49.69541,44.09511,34.21327,23.92889,17.66792,17.85858,23.62516,31.55642,37.99163,41.24315,42.24662,43.2515,45.58553,48.20326,48.21078,43.12296,33.28885,22.64971,17.02561,20.80474,34.09944,52.27222,68.28842,76.53315,75.75307,69.31405,62.68678,59.84191,60.90471,62.53477,60.66625,53.69036,43.89794,36.20687,35.02985,41.3652,52.02858,61.49903,65.13988,61.71492,53.66714,45.1698,39.3989,36.87871,35.87267,34.31051,31.70141,29.57819,30.17219,34.34518,40.38945,44.7019,44.00481,37.63381,28.29589,20.67937,18.72762,23.29162,31.6272,39.01025,41.39979,37.47857,28.93155,19.02522,10.6226,4.972662,1.885231,0.8343446,1.90679,5.763426,12.67401,21.51193,29.71179,34.48327,34.56476,31.26078,27.87833,27.75654,32.11414,39.1717,45.2177,46.99493,43.85624,38.24841,34.17287,34.62782,39.71904,46.67719,51.72208,52.48765,49.36634,44.92778,41.91333,41.28617,41.72905,40.90594,37.51192,32.54053,28.7679,28.73982,32.70616,38.0542,40.79264,38.18024,30.70008,21.94852,16.3795,16.3544,20.48622,24.47133,23.93721,17.44739,7.635435,-0.3425559,-2.070658,3.288538,12.45137,20.11958,22.32406,18.77967,12.7222,8.419004,8.129779,10.64317,12.39672,10.36246,4.617273,-1.306112,-2.665898,3.098315,14.16516,24.943,29.26226,24.15651,11.77665,-1.851295,-10.46464,-11.27056,-6.352638,-0.9281139,0.3226862,-3.612399,-9.551069,-12.48949,-9.222199,-0.7381579,8.237301,12.25554,8.699014,-0.489568,-10.03718,-14.68974,-12.44853,-5.576397,1.214723,4.090032,2.63787,-0.08308487,0.0153313,4.846534,12.43774,17.96909,16.95588,8.483145,-3.697228,-13.05054,-14.04425,-5.507592,8.521672,20.99918,25.79077,20.95912,9.532874,-2.547642,-9.93394,-10.69201,-6.884781,-2.81389,-2.19621,-6.036997,-12.34508,-17.61341,-18.97336,-15.69769,-9.319987,-2.558799,2.126417,3.492503,1.626004,-2.561173,-7.940932,-13.499,-18.35749,-21.72125,-22.96804,-21.88226,-18.82611,-14.64578,-10.30981,-6.503742,-3.454324,-1.078176,0.7033458,1.771426,1.904134,1.06133,-0.4346381,-2.050467,-3.472704,-4.971795,-7.323158,-11.20165,-16.40631,-21.51343,-24.36997,-23.29025,-18.25698,-11.28313,-5.529311,-3.555041,-5.728337,-9.838052,-12.28806,-10.27202,-3.65049,4.648787,10.05116,8.825953,0.2398831,-12.85755,-25.33543,-32.21026,-30.85701,-21.88189,-8.383883,5.751212,17.46916,25.28389,29.02966,29.13973,26.11264,20.48819,13.14856,5.480976,-0.9138764,-4.863369,-6.162776,-5.579842,-4.263731,-2.951906,-1.542406,0.6495612,4.135015,8.571589,12.70777,15.06712,14.93235,12.93256,10.7672,10.1832,11.85362,14.91503,17.50645,17.995,16.1016,13.18558,11.47483,12.69756,16.94781,22.46652,26.46052,26.4822,21.61143,12.8569,2.66479,-6.131487,-11.39618,-12.39537,-9.947512,-6.06069,-3.184022,-3.253552,-6.791728,-12.43312,-17.24464,-17.95606,-12.7291,-2.628413,8.135478,13.64312,8.93095,-7.38438,-31.98693,-58.03824,-78.21319,-88.05222,-87.83244,-81.94119,-76.16662,-74.49757,-77.28975,-81.74634,-84.24762,-82.92604,-78.85219,-75.14935,-74.74477,-78.3186,-83.81911,-87.81496,-87.72458,-83.41163,-77.12463,-71.91122,-69.66132,-70.1194,-71.4634,-71.92359,-71.19036,-70.56991,-71.79489,-75.41447,-80.02833,-83.0255,-82.39072,-78.29439,-73.27095,-70.72664,-72.71354,-78.49088,-84.93211,-88.57565,-87.97929,-84.71533,-82.22314,-83.17027,-87.05913,-89.79664,-85.7299,-71.06914,-46.61421,-18.0332,6.646478,20.97819,23.22742,16.9233,8.575743,3.954132,5.095412,9.690855,13.0385,11.26091,3.833306,-6.016279,-13.17581,-13.63638,-6.888992,3.560488,11.77268,12.17354,2.142656,-16.82591,-39.83727,-60.73481,-74.62212,-79.64638,-77.33833,-71.49406,-66.21523,-64.0957,-65.38979,-68.50632,-71.42448,-73.15558,-74.30102,-76.35818,-80.19392,-84.78831,-87.26646,-84.50337,-75.46904,-62.76858,-52.04954,-49.13434,-56.24685,-69.58655,-80.0666,-77.36222,-55.40852,-16.35077,29.47213,67.87274,87.40299,84.71495,65.81886,42.57733,26.44755,22.93606,29.71483,39.12266,43.26337,38.55862,27.21377,15.09499,7.7052,6.915767,10.3712,13.61575,13.27131,9.095774,3.699076,0.3558418,0.5796145,3.143729,5.110605,4.018707,-0.3659408,-5.922599,-9.670793,-9.767915,-6.616896,-2.398599,0.5215687,1.117173,0.1059793,-0.9224631,-0.8767397,0.06284296,0.8354273,0.6794736,0.08372554,0.650245,3.849441,9.56167,15.57195,18.5862,16.25226,8.873132,-0.4180308,-7.28336,-8.667694,-4.585039,1.950012,6.811638,7.260992,3.463159,-1.891095,-5.511303,-5.635757,-2.95539,0.1923987,1.679994,1.129272,0.05872939,0.5964184,3.757692,8.583965,12.80097,14.53154,13.80338,12.69793,13.93999,18.85489,26.1286,32.31718,33.87412,29.40988,20.69202,11.70125,6.332911,6.222065,10.06746,14.81029,17.78753,18.36741,17.99849,18.74566,21.46375,24.99757,27.03796,26.04035,22.77654,20.26558,21.91929,29.0288,39.29675,47.57301,48.56506,39.97834,24.15877,7.145057,-4.395789,-6.592818,-0.1702829,10.36171,19.52866,23.95379,23.84072,22.12351,22.01201,24.6155,28.18121,29.37861,25.725,17.54227,8.165542,2.252691,3.221842,11.35238,23.63133,35.35489,42.48093,43.39175,39.20148,32.67447,26.58978,22.56666,20.8816,21.09206,22.79376,25.88964,30.23816,35.09342,38.94556,40.08373,37.63623,32.40617,26.84194,23.96705,25.76797,31.94461,39.80249,45.44923,45.71526,39.78114,29.63574,19.12786,12.1297,10.78683,14.72944,21.54727,28.14262,32.16345,32.78762,30.59828,26.83681,22.61749,18.57563,15.03194,12.36544,11.16847,11.97497,14.73894,18.50146,21.62011,22.56372,20.84109,17.45131,14.46527,13.88084,16.39004,20.83723,24.78456,25.93708,23.6117,19.33661,16.13704,16.8441,22.38556,31.07422,39.36209,43.66184,42.20845,35.89903,27.66943,20.83176,17.39256,17.32849,19.14241,21.20298,22.90191,24.84648,28.02173,32.59327,37.30298,40.01336,39.13186,34.9676,30.00347,27.70792,30.48081,37.98309,46.97978,52.96347,52.70118,46.21013,36.91602,29.80305,28.58365,33.54923,41.40046,47.1857,47.21175,41.19654,32.39357,25.63868,24.51582,29.3454,37.1626,43.62234,45.6084,42.94784,38.24757,35.06996,35.67392,39.75394,44.90174,48.37201,48.91882,47.47232,46.24302,46.91329,49.19375,50.78626,48.85364,42.07847,31.95354,22.38261,17.7254,20.40055,29.46986,41.05556,50.3524,54.06654,51.90109,46.32317,40.88243,38.15891,38.53796,40.40993,41.49367,40.36288,37.25175,33.76116,31.81038,32.56628,35.97853,41.06495,46.59999,51.69123,55.93475,59.21512,61.45953,62.60106,62.73875,62.24422,61.59116,60.9334,59.7538,56.95932,51.51759,43.29885,33.52583,24.3909,17.93104,14.81542,13.8802,12.85025,9.915884,5.185928,0.9865547,0.6263315,6.24143,17.02988,29.08998,37.17154,37.46142,29.79954,17.94944,7.659108,3.562176,6.702121,14.12453,20.76056,22.46775,18.41948,11.45267,6.237363,6.424544,12.50039,21.58307,29.18892,31.83035,28.88362,22.69687,17.01169,14.75028,16.49218,20.43702,23.70417,24.07517,21.1403,16.29743,11.77302,9.359641,9.594869,11.73164,14.36125,16.24763,16.93899,16.93253,17.40214,19.61869,24.24074,30.67262,36.76015,39.10148,34.09987,19.52836,-4.027373,-32.66019,-60.09782,-79.97217,-88.47333,-86.0862,-77.41741,-69.0585,-66.46963,-71.46226,-81.56609,-91.57666,-96.41349,-93.73848,-84.98608,-74.38857,-66.67145,-64.73293,-68.50008,-75.36871,-81.77125,-84.91566,-83.83158,-79.41438,-73.71375,-68.99216,-66.98184,-68.47682,-73.20341,-79.87369,-86.46314,-90.78246,-91.28542,-87.79755,-81.76308,-75.72811,-72.22183,-72.58149,-76.39555,-81.89903,-87.08151,-90.79935,-93.18493,-95.1007,-97.07837,-98.54317,-97.97466,-93.98845,-86.63865,-77.9847,-71.37395,-69.73006,-73.83874,-81.72683,-89.62012,-93.97415,-93.39319,-89.27779,-84.81589,-82.96194,-84.66686,-88.44765,-91.52563,-91.75191,-89.0703,-85.56522,-84.08945,-86.36451,-91.79046,-97.74467,-101.1824,-100.5404,-96.73833,-92.65263,-91.37412,-94.32067,-100.3594,-106.4693,-109.5447,-108.2462,-103.7747,-99.07704,-96.90028,-97.82085,-99.41264,-97.13683,-86.60438,-66.08042,-37.91265,-8.056625,16.20602,29.32521,29.86056,21.00578,8.974272,0.027226,-2.383281,1.067014,6.423099,8.952145,5.904524,-1.982023,-11.0296,-16.83976,-16.85085,-11.72377,-4.766428,0.1953024,1.153682,-0.9928209,-3.251971,-2.686427,1.515938,7.412305,11.53394,11.17469,6.235234,-0.6018146,-5.496525,-5.820873,-1.721522,4.138288,8.455509,9.494349,8.113633,6.918027,8.128683,11.68649,14.97862,14.49453,8.37054,-1.901978,-11.86708,-16.50934,-13.24677,-3.622768,7.421421,14.31427,13.99119,7.506556,-0.811487,-6.063918,-5.628594,-0.4383179,5.957894,9.789112,9.317486,5.589562,1.400378,-0.6589851,0.2840471,3.204554,6.234775,8.035151,8.476761,8.266334,7.988792,7.45312,5.921059,3.035409,-0.3581234,-2.28837,-0.7691919,4.74731,12.63498,19.73245,23.08836,21.73498,17.30899,13.04968,11.77038,14.10455,18.16565,20.8455,19.89292,15.41389,9.828192,6.34552,6.981487,11.39463,17.22968,21.64296,22.94394,21.30663,18.21834,15.21391,12.87942,10.8096,8.434847,5.970598,4.666064,6.080305,10.88161,18.06682,25.23949,29.84519,30.57099,27.98341,23.99311,20.54197,18.42873,17.05952,15.22173,12.24653,8.66028,5.834596,4.908252,5.825529,7.272332,7.633127,6.308606,4.402014,4.172866,7.518017,14.47641,22.82103,29.12535,30.70344,27.20059,20.79716,14.86514,11.93397,12.26515,13.93328,14.31071,11.94131,7.550023,3.542133,2.359405,4.813473,9.506717,13.71117,15.10859,13.24996,9.809974,7.517428,8.487411,13.01199,19.50923,25.55201,29.24829,30.10973,28.97919,27.22532,25.83259,24.95688,24.10086,22.62368,20.14735,16.62634,12.18405,7.008298,1.487885,-3.527706,-6.679562,-6.512749,-2.259111,5.462814,14.55893,22.19191,26.02972,25.32564,21.19741,15.93471,11.75399,9.741222,9.573727,10.0937,10.27082,9.896826,9.598196,10.25311,12.28811,15.35487,18.56416,21.03889,22.35049,22.5558,21.89783,20.50456,18.3848,15.71649,13.11553,11.51333,11.56747,12.95559,14.1362,12.95201,7.904624,-0.620595,-10.02683,-16.47637,-16.77279,-10.13747,1.189356,12.95347,20.99771,23.30366,20.80936,16.5772,13.85452,14.20215,16.77693,19.10814,18.80433,15.10587,9.369261,4.269269,2.283895,4.394356,9.711422,16.12206,21.45629,24.45953,25.09189,24.15469,22.62152,21.12433,19.82129,18.57445,17.20177,15.62378,13.89128,12.19961,10.953,10.81002,12.55359,16.7071,23.02998,30.21476,36.09799,38.44462,35.99919,29.26227,20.51751,12.99511,9.523211,11.30693,17.42423,25.26831,31.70086,34.36797,32.59934,27.55465,21.6306,17.42782,16.70927,19.73682,25.22263,30.90924,34.56689,35.0052,32.64127,29.29891,27.25933,27.98814,31.21453,34.93968,36.48357,34.06382,28.01209,20.84258,16.02135,16.0642,21.07646,28.64604,35.22287,38.18996,37.36052,34.956,34.06112,36.53092,41.71291,46.83615,48.84314,46.4613,41.12603,36.0833,34.22044,36.05505,39.26761,40.17675,36.26499,28.1051,19.36528,14.78557,17.34484,26.4087,38.04932,47.34362,51.18842,49.83988,46.2502,43.72851,43.56107,44.21956,42.6824,36.91497,27.72683,18.61573,13.57677,14.29663,18.67163,21.79572,18.94857,8.734739,-5.689649,-18.21485,-23.32529,-19.4305,-9.887737,-1.03275,1.602444,-3.436524,-12.75528,-20.28059,-20.98525,-13.86186,-2.36517,7.834513,12.29807,10.30234,4.913702,0.7667093,1.069874,5.733674,11.68098,14.96382,13.22753,6.978232,-0.9851838,-7.401022,-10.3343,-9.828719,-7.21529,-3.808521,-0.03623337,4.404079,9.630178,14.76768,18.03566,17.80647,13.92209,8.258475,3.965106,3.708958,7.98412,14.59536,19.7321,20.04764,14.5167,4.972296,-4.957227,-11.81611,-13.99495,-12.17616,-8.444617,-4.78723,-2.003301,0.3448489,3.076099,6.380217,9.443167,10.98661,10.30398,7.99787,5.816005,5.610938,8.070339,12.06335,15.07801,14.55082,9.328796,0.4296114,-9.313828,-16.49342,-18.56707,-14.79204,-6.307389,4.492682,14.85913,22.44837,25.76576,24.35389,18.8417,10.8784,2.846133,-2.730737,-3.984826,-0.4023928,6.949728,15.8483,23.8253,29.12184,31.21356,30.70202,28.73993,26.40686,24.40403,23.14146,22.98127,24.29068,27.15217,30.91683,34.02359,34.42201,30.56069,22.46603,12.23737,3.515916,0.0241164,3.83318,14.24315,27.89413,40.1156,46.88138,46.43707,39.86226,30.37334,21.8014,17.01236,16.97327,20.75782,26.29779,31.37034,34.31367,34.2302,30.79282,23.99528,14.17749,2.384737,-9.206034,-17.27987,-18.1875,-9.536263,8.012694,29.7319,47.51252,52.52369,39.09513,8.179797,-31.47799,-65.58586,-79.54665,-64.66888,-22.49564,35.05507,90.18658,126.5429,135.9857,121.5595,95.19089,71.29996,59.60251,60.77145,67.06667,67.36715,53.70692,25.70522,-9.43408,-41.14585,-61.42175,-69.06014,-69.96197,-73.50053,-87.1759,-112.6075,-144.9961,-176.1135,-198.9065,-211.0058,-215.23,-216.9911,-220.3191,-224.9451,-226.2216,-218.0778,-197.4309,-167.6799,-139.297,-126.8779,-143.7824,-196.5706,-281.6762,-385.761,-489.646,-574.2448,-626.0619,-640.119,-619.394,-571.3934,-503.9268,-422.2374,-328.9865,-226.8351,-121.779,-24.85803,49.45743,88.03247,84.90052,45.1395,-15.55537,-75.8941,-116.5663,-126.9385,-107.863,-69.52709,-25.77268,12.07409,38.88898,55.61036,66.14065,73.60513,78.30217,78.28793,71.79276,59.57051,45.50783,35.0606,32.51184,38.76507,50.95313,63.98981,73.03253,75.42332,71.1808,62.10317,50.36335,37.57355,24.77249,13.01617,3.837235,-0.9814238,-0.2736441,5.606898,14.55551,23.44776,29.48867,31.41362,29.86027,26.74278,24.05338,22.81506,22.74646,22.72436,21.65769,19.21718,16.02875,13.30977,12.22269,13.31414,16.27988,20.09846,23.42758,25.10713,24.61873,22.35815,19.58969,18.01696,19.06235,23.14282,29.32069,35.59602,39.78086,40.54121,38.03954,33.7931,29.80886,27.49628,26.99519,27.30117,27.05325,25.44484,22.66312,19.61769,17.2166,15.74354,14.77819,13.67116,12.16392,10.64084,9.805457,10.03614,10.95321,11.58392,11.03903,9.185916,6.753489,4.725339,3.461853,2.291045,0.03820775,-3.74477,-7.729804,-8.88459,-3.946582,8.426643,26.20631,44.38661,57.29426,61.61236,58.28811,52.03786,48.58386,51.21175,58.77301,66.42938,68.75761,63.31034,52.39938,41.91365,37.85312,42.68916,53.79084,64.88393,69.64492,65.24924,53.80108,40.91922,32.50412,31.68643,37.6794,46.92064,55.48062,61.0969,63.69362,64.40642,64.11454,62.64157,59.10751,52.9847,44.90412,36.54165,29.68412,25.2364,22.94064,21.98943,21.95818,23.2122,26.3625,31.16928,35.85131,37.58959,34.16061,25.70186,15.302,7.753204,7.00106,13.79797,25.07949,35.57251,40.73129,39.22994,33.49552,28.02245,26.60589,30.26317,37.07036,43.8081,48.13509,49.77725,50.04491,50.27116,50.5302,49.71243,46.9148,42.98862,40.83551,43.89346,53.63813,67.82945,80.94697,86.88316,82.39675,69.15182,52.95624,40.53837,35.82565,38.0417,42.7867,45.33073,43.89697,40.74224,40.32362,45.80948,56.32966,66.89964,71.18282,65.36919,50.65901,32.73386,18.50142,12.1624,13.03527,16.43002,16.90528,11.78589,2.749995,-5.386462,-7.767004,-2.443682,8.605526,20.84061,29.84753,33.59634,32.99594,30.69157,29.15541,29.38297,30.87548,32.59323,33.94275,35.01767,36.03499,36.60114,35.57724,31.79686,25.13465,17.06256,10.11554,6.477279,6.583756,8.721879,9.976202,7.973903,2.321288,-5.19073,-11.72028,-15.08424,-14.92943,-12.66278,-10.29387,-9.05628,-8.749996,-8.172762,-6.212886,-2.74372,1.332952,4.856297,7.327709,9.217014,11.3883,14.09567,16.3922,16.5309,13.19526,6.703243,-0.7654222,-6.259906,-7.871508,-6.073251,-3.591986,-3.74034,-8.194747,-15.66773,-22.43975,-24.54527,-20.30796,-11.60899,-3.011271,0.822186,-2.120722,-9.949231,-17.89537,-21.00445,-16.89017,-6.947062,4.60053,13.13059,16.02085,13.64757,8.588926,3.763315,0.796222,-0.4092272,-0.8427472,-1.107159,-0.7307205,1.411486,5.921742,11.89996,17.00252,18.64764,15.63064,9.055711,1.8857,-2.688079,-3.056617,-0.03167416,3.827028,5.949091,5.408993,3.410685,2.296893,3.779287,7.619817,11.70154,13.48056,11.84064,8.040004,5.003546,5.324877,9.274807,14.22182,16.02572,11.67954,1.572606,-10.15019,-17.55208,-16.16148,-5.614438,9.950129,24.06281,31.43433,30.7417,25.04913,19.66171,18.76678,22.93694,28.98566,32.16867,29.25897,20.51684,9.349053,-0.01894521,-5.251753,-7.173514,-8.786487,-12.76612,-19.20722,-25.24629,-26.91849,-22.05459,-12.24217,-2.398744,1.957726,-1.895053,-11.9903,-22.58856,-27.46012,-23.57657,-12.94939,-1.472912,4.524115,1.908851,-7.626442,-18.8399,-26.21075,-27.11257,-22.9674,-17.82967,-15.49509,-17.09881,-20.7094,-23.02921,-21.90236,-17.86179,-13.67645,-12.27164,-14.5064,-18.38002,-20.24393,-17.23104,-9.27752,0.6216692,8.12219,10.11549,6.543318,0.3068995,-4.633586,-5.743907,-3.440662,-0.7736742,-1.553023,-8.124373,-20.1079,-34.72055,-48.30996,-58.08163,-63.05716,-63.92507,-62.16788,-59.17307,-55.84829,-52.7627,-50.44165,-49.43113,-50.04046,-52.02404,-54.54176,-56.52226,-57.20127,-56.44557,-54.62714,-52.16556,-49.1403,-45.32432,-40.64817,-35.71299,-31.85369,-30.54707,-32.46528,-36.82567,-41.59074,-44.53683,-44.5881,-42.53595,-40.58548,-40.90987,-44.08297,-48.42789,-50.80807,-48.48724,-40.97199,-30.67278,-21.89403,-18.63565,-22.43293,-31.46581,-41.4639,-47.92516,-48.43969,-43.87994,-37.85277,-34.75217,-37.45632,-45.83516,-56.77287,-65.63785,-68.43929,-63.64738,-52.86335,-40.06377,-29.81542,-25.27696,-26.91269,-32.50066,-38.42371,-41.59343,-41.0191,-38.17457,-35.93774,-36.67317,-40.57248,-45.29225,-47.22077,-43.71873,-35.00583,-24.46398,-17.016,-16.40752,-22.98986,-33.39162,-42.38222,-45.87413,-43.25271,-37.56659,-33.41422,-33.81535,-38.04993,-41.89047,-40.17154,-30.14376,-13.51274,4.16655,16.44802,19.54838,14.36663,5.785844,-0.2599089,-0.1394053,5.691037,13.41115,18.43281,18.15262,13.19612,6.580925,1.58133,-0.1987078,0.6485505,2.32795,3.429987,3.887182,4.662591,6.55091,9.14949,10.91157,10.335,7.413692,4.170329,3.663599,7.952771,16.33792,25.17408,29.62253,26.4409,16.14473,3.141365,-6.393742,-7.764874,-0.2827539,12.38503,24.23751,30.16985,28.58924,21.99387,15.30131,12.96819,16.5492,23.99766,30.96846,33.28941,29.20928,20.26102,10.39306,3.932801,3.481277,8.764199,16.91607,23.94916,26.63484,23.90886,17.19946,9.621249,4.482096,3.830008,7.692375,14.28483,20.99102,25.56522,26.95955,25.44468,22.11065,18.15335,14.40539,11.31754,9.242462,8.662895,10.07867,13.57962,18.44358,23.15819,26.01054,25.96906,23.30978,19.5351,16.56463,15.66671,16.80689,18.8297,20.34575,20.70603,20.38984,20.54118,22.0097,24.60899,27.16196,28.31742,27.53281,25.4585,23.3881,22.15149,21.31826,19.42382,15.20582,9.023075,3.335682,1.65448,6.408964,17.05405,29.77142,39.21052,41.38843,36.01223,26.72103,18.99037,16.93248,20.96494,27.80415,32.75354,32.77101,28.30463,22.72931,19.83243,21.12095,24.82993,27.32666,25.92408,21.09346,16.42715,16.24107,22.37494,32.41,40.6692,41.53827,33.0401,18.32756,4.024386,-3.630699,-2.448991,4.539412,11.13598,11.92647,5.629035,-4.239707,-11.71852,-12.20325,-5.268952,5.196557,13.49541,15.5659,11.20073,3.786297,-2.052013,-3.251696,0.1829823,5.708138,10.15758,11.62432,10.12649,6.896105,3.106681,-0.8663721,-5.138808,-9.376708,-12.18679,-11.55825,-6.230016,2.960556,12.83447,19.16063,18.86099,11.82584,1.180835,-8.23436,-12.33092,-9.772826,-2.4303,5.853072,11.35275,12.20837,8.975094,3.933147,-0.2234393,-1.527611,0.7520109,6.198649,13.60976,21.36909,27.79742,31.5807,32.25875,30.51626,27.93965,26.15916,25.76537,25.71268,23.7764,17.99009,8.257133,-2.972658,-11.62142,-14.16369,-9.819841,-1.326654,6.380987,8.949893,5.217003,-1.998854,-7.512943,-6.892424,0.8139029,12.42884,22.50034,26.51141,23.45613,16.21485,9.570372,7.200445,9.576584,14.04687,16.91595,16.04683,12.2303,8.458875,7.679172,10.60961,15.1323,17.67644,15.65283,9.296076,1.672165,-3.162041,-2.646739,2.749135,9.903839,15.02057,15.89324,13.0272,8.996141,6.589616,7.045104,9.506908,11.95398,12.83405,12.2087,11.61814,12.79991,16.20073,20.35322,22.58856,20.64484,14.12925,4.897151,-3.880813,-9.359203,-10.35483,-7.635782,-3.12762,1.321848,4.789835,7.282856,9.086733,10.09761,9.721465,7.44265,3.606753,-0.2603041,-1.987984,0.05134378,5.817053,13.29781,19.33888,21.21279,18.06418,11.3948,4.297881,-0.1322232,-0.3235749,3.137758,8.043726,11.8768,13.10156,11.72313,8.898747,5.971247,3.601782,1.540537,-0.8907419,-4.012205,-7.294971,-9.540968,-9.638356,-7.380081,-3.761202,-0.4894863,1.039036,0.6584403,-0.3804367,-0.1588338,2.607972,7.492572,12.20597,13.57339,9.163913,-1.319182,-15.69051,-30.21708,-41.35746,-47.37268,-48.95181,-48.56298,-48.94123,-51.59471,-56.12793,-60.68492,-63.16491,-62.46533,-59.07404,-54.75718,-51.61314,-51.0608,-53.26105,-57.15979,-60.98812,-62.90804,-61.55206,-56.37535,-47.85711,-37.53879,-27.81793,-21.37592,-20.28825,-25.10803,-34.38551,-44.99316,-53.25805,-56.44527,-53.88617,-47.17027,-39.30064,-33.26059,-30.74327,-31.65702,-34.54748,-37.5665,-39.3787,-39.54894,-38.36164,-36.3821,-34.1507,-32.18207,-31.12092,-31.74469,-34.63982,-39.68427,-45.71748,-50.7524,-52.74619,-50.56488,-44.57761,-36.50871,-28.60912,-22.63617,-19.2262,-17.97851,-18.09296,-19.06308,-20.93234,-23.98014,-28.12368,-32.5369,-35.82977,-36.72257,-34.79192,-30.80762,-26.4325,-23.47987,-23.16546,-25.74115,-30.59489,-36.59362,-42.36117,-46.35876,-46.91393,-42.45761,-32.09429,-16.29344,2.746722,21.44856,35.93889,43.42788,43.21542,36.83122,27.28288,17.85522,11.07676,8.252028,9.54501,14.29102,21.22281,28.56314,34.21023,36.25384,33.76865,27.47549,19.72351,13.57316,11.32042,13.27108,17.55198,21.17501,21.78728,19.05973,14.84124,11.96039,12.42554,16.16636,21.1142,24.53986,24.75825,22.08857,18.49801,16.24855,16.51512,18.89352,22.02858,24.77506,26.95316,29.1233,31.61479,33.67641,33.58268,29.81545,22.55007,14.28229,8.898012,9.532631,16.502,26.70976,35.09671,37.39571,32.55355,23.31649,14.58003,10.51944,12.2645,17.5254,22.30564,23.51572,20.78978,16.40348,13.48761,13.82965,16.743,19.68495,20.09376,17.13491,12.19955,7.912023,6.426921,8.197519,11.9699,15.84347,18.53333,19.94855,20.81673,21.84058,23.15395,24.49952,25.85033,27.76942,30.99751,35.46453,39.55377,40.4656,35.79109,25.42416,12.45057,2.110027,-0.8476111,5.07661,17.02388,29.18313,35.99255,35.21347,28.95577,22.0149,18.62556,19.77554,22.84501,23.76658,20.17982,13.36038,7.531439,6.963943,12.82717,21.98966,28.7021,28.15462,19.60882,7.029305,-3.23346,-6.235787,-1.282468,7.951669,15.98298,18.99046,16.91444,12.91946,10.7792,12.10592,15.35495,17.20904,15.26007,10.0112,4.740756,3.295498,7.353375,15.07766,22.13092,24.40181,20.62953,13.19385,6.579456,4.570421,8.0265,14.63125,20.6478,23.40461,22.84849,21.23548,21.33069,24.4366,29.56559,34.17849,35.83519,33.5719,28.16668,21.33597,14.63357,8.894931,4.486601,1.903664,1.979502,5.361401,11.62015,18.81678,24.12683,25.34554,22.33757,17.36007,13.85937,14.38173,18.93078,24.89734,28.68466,28.00667,23.34607,17.59197,14.08537,14.37975,17.21659,19.40202,17.98274,12.2549,4.271245,-2.463191,-5.201005,-3.597524,0.2411177,3.231062,3.232979,0.1443633,-4.435556,-8.532268,-11.03625,-11.96741,-11.71484,-10.02692,-5.724607,2.479319,14.59134,28.46225,40.24801,46.11993,44.21796,35.60912,23.61833,11.99011,3.076952,-2.809302,-6.62921,-9.175958,-10.15503,-8.509871,-3.71736,3.032541,8.846538,10.55175,6.677556,-1.385213,-9.961947,-15.16404,-15.15073,-11.09149,-6.18682,-3.42145,-3.599457,-5.016119,-4.976411,-2.057995,2.532696,5.553066,3.935412,-2.889737,-12.21491,-19.47336,-21.00936,-16.40073,-8.785406,-2.944073,-2.377759,-7.271552,-14.63212,-20.42543,-22.23397,-20.65732,-18.59576,-19.01156,-22.77333,-28.06944,-31.73649,-31.51417,-27.6108,-22.49465,-19.08894,-18.68144,-20.04405,-20.39484,-17.52422,-11.57221,-5.169012,-1.774539,-3.310535,-8.699619,-14.3469,-16.32368,-12.87487,-5.642527,1.189141,3.31284,-1.201956,-10.81651,-21.42556,-28.63172,-30.01318,-26.13083,-19.8587,-14.61438,-12.58145,-13.85995,-16.81558,-19.22675,-19.51119,-17.4464,-14.17952,-11.66467,-11.82654,-15.73823,-23.05717,-31.93427,-39.53666,-43.1302,-41.34283,-34.99338,-26.91539,-20.66897,-18.6833,-20.83713,-24.38263,-25.41599,-21.16735,-11.80256,-0.6228389,7.549473,8.914735,2.698237,-8.551075,-20.48925,-29.35717,-33.75276,-34.80167,-34.80037,-35.37646,-36.44435,-36.59613,-34.52966,-30.38584,-25.96974,-23.64591,-24.68143,-28.22816,-31.71747,-32.45745,-29.37244,-23.69696,-18.14458,-15.112,-15.14643,-16.73173,-17.53474,-16.2452,-13.71641,-12.57857,-15.5302,-23.42906,-34.46367,-44.99655,-51.57527,-52.86033,-50.26701,-46.96539,-45.9112,-48.15455,-52.42927,-56.16833,-57.20443,-55.0555,-51.06385,-47.43183,-45.87531,-46.73853,-49.01894,-51.11803,-51.72921,-50.32757,-47.10543,-42.59959,-37.39244,-32.07635,-27.37481,-24.1621,-23.23577,-24.94668,-28.96958,-34.41626,-40.22757,-45.5575,-49.86251,-52.68423,-53.40236,-51.31598,-46.15786,-38.71866,-31.01844,-25.64582,-24.44513,-27.29515,-31.86395,-34.72335,-33.34792,-27.83034,-21.15052,-17.63096,-20.33824,-28.95893,-39.51771,-46.26903,-44.76565,-34.33811,-18.5091,-3.078068,6.991523,10.04832,8.179681,5.460815,5.225911,8.105326,11.99693,13.85844,12.03892,7.573077,3.592517,3.27276,7.689868,15.00955,21.54777,24.03294,21.63927,16.52439,12.55875,13.05308,18.86391,27.96418,36.63281,41.459,40.9631,35.9921,28.85851,21.92389,16.5384,12.86269,10.45699,9.053615,8.916492,10.57692,14.22096,19.23225,24.25667,27.77082,28.79596,27.32431,24.23198,20.78687,18.068,16.60679,16.36078,16.9212,17.76565,18.42697,18.57586,18.08348,17.08793,16.01373,15.44696,15.85144,17.24066,19.01688,20.13256,19.55775,16.83266,12.3975,7.503517,3.723829,2.306862,3.68219,7.322265,11.96839,16.07076,18.25621,17.69928,14.35579,9.042619,3.313043,-0.9278559,-2.049793,0.622781,6.39502,13.33962,19.03867,21.63145,20.64006,17.11198,12.97544,9.974119,8.821016,9.076798,9.798076,10.47914,11.59127,14.27907,19.35809,26.28991,32.92017,36.32657,34.40628,27.27422,17.55681,9.271849,5.841153,8.345485,15.03421,22.38145,27.06287,27.68946,25.30676,22.44153,21.36001,22.65279,24.99924,26.19269,24.71091,20.81218,16.47387,14.25277,15.79834,20.93161,27.79073,33.8829,37.3632,37.81955,36.22635,34.25192,33.41133,34.50641,37.48704,41.59026,45.54622,47.80016,46.86189,41.87611,33.26569,23.04845,14.39874,10.39407,12.43727,19.23158,27.06383,31.48605,29.62974,21.87803,11.85,4.553977,3.645857,9.327655,18.12529,24.73484,24.92606,17.86116,6.527288,-3.923869,-8.933831,-6.810136,0.7042149,9.732276,16.52701,19.32632,18.82027,17.17429,16.41839,17.26525,18.99814,20.29788,20.29348,19.09088,17.50397,16.31024,15.65253,15.03017,13.83176,11.94898,9.972095,8.80943,9.031964,10.454,12.28201,13.71907,14.55518,15.26669,16.52352,18.4683,20.3519,20.88883,19.17746,15.57851,11.89564,10.62063,13.62459,21.07608,31.26225,41.43419,49.15557,53.3326,54.33647,53.25379,50.86364,47.09204,41.32382,33.3231,24.05903,15.77896,11.15444,11.95505,18.03522,27.24156,36.30413,42.20345,43.28131,39.59211,32.48601,23.8293,15.35614,8.410591,3.980289,2.735309,4.87929,9.878572,16.34538,22.31357,25.89807,26.03789,22.92442,17.87975,12.76445,9.244474,8.268433,9.920537,13.57352,18.15365,22.39533,25.09978,25.46393,23.43812,19.90537,16.43321,14.55271,14.87138,16.57379,17.75807,16.5729,12.53726,7.162821,3.315256,3.530545,8.26017,15.22693,20.48332,20.69385,15.28006,7.001671,0.4358988,-0.8458632,3.330029,9.370073,11.96521,7.407192,-3.87834,-17.25545,-26.44523,-27.25058,-20.16455,-10.21596,-4.096595,-6.30304,-16.62776,-30.47705,-41.71354,-46.17463,-43.69513,-37.51673,-31.71037,-28.46687,-27.06728,-25.07921,-20.7508,-14.76643,-10.04194,-9.680017,-14.57095,-22.43041,-29.08086,-31.18717,-28.55714,-24.32361,-22.72768,-25.91675,-31.94724,-35.50374,-31.07959,-16.66885,4.437177,25.05686,38.01785,40.21598,34.33468,27.13915,25.38467,31.8405,43.83406,55.12297,59.83512,55.99952,46.53694,37.23533,33.11336,35.48261,41.45916,46.05415,45.3856,38.9684,29.76651,22.17375,19.33714,21.50646,26.27654,30.33239,31.42904,29.36774,25.54291,21.62257,18.39923,15.57535,12.47199,8.975078,5.911986,4.546455,5.571486,8.380519,11.20874,12.11252,10.14737,5.943175,1.277148,-2.079313,-3.465136,-3.648323,-4.145412,-6.005928,-8.889386,-11.08215,-10.49401,-6.0337,1.506006,9.639809,15.4025,16.90541,14.34198,9.854183,6.323471,5.758532,8.185995,11.67217,13.47483,11.69461,6.494734,0.1737961,-4.020846,-3.742855,0.9423683,7.280029,11.0563,8.794865,-0.2133453,-13.1878,-24.96286,-30.46932,-27.34681,-17.28667,-5.31678,2.656989,2.768039,-5.010447,-17.15099,-28.74275,-36.2702,-39.39007,-40.70467,-43.75578,-50.5197,-59.9962,-68.76686,-73.17841,-71.76174,-66.33546,-61.05128,-59.91608,-64.30233,-71.98056,-78.30964,-78.90906,-72.24807,-60.64136,-49.08905,-42.66015,-43.92056,-51.81148,-62.48063,-71.46414,-75.9231,-75.75611,-73.16129,-71.10088,-71.63942,-75.02681,-79.84569,-83.93723,-85.50261,-83.83594,-79.46648,-73.8032,-68.53036,-64.9858,-63.70538,-64.24887,-65.40402,-65.7537,-64.43443,-61.70664,-58.97086,-58.08895,-60.29071,-65.28251,-71.17194,-75.38621,-76.14234,-73.58681,-69.82653,-67.7123,-69.02094,-73.18112,-77.41634,-78.35181,-74.18461,-66.07387,-57.80585,-53.82438,-56.72154,-65.68652,-76.85582,-85.3743,-87.96878,-84.52731,-77.8477,-71.82484,-69.26118,-70.61868,-74.31,-78.12598,-80.70626,-82.08481,-83.09546,-84.26045,-85.13705,-84.67865,-82.35136,-79.08092,-77.15176,-78.88258,-84.83512,-92.77621,-98.27438,-96.80199,-86.21883,-68.17279,-47.52748,-30.08359,-19.87563,-17.55815,-20.69273,-25.59104,-29.46901,-31.60913,-32.98063,-34.8188,-37.308,-39.33331,-39.42705,-37.14791,-33.78542,-31.76851,-33.08285,-37.77826,-43.66085,-47.52991,-47.25577,-43.35638,-38.95317,-37.97366,-42.61571,-51.6445,-60.67464,-64.4257,-59.7268,-47.5191,-32.65809,-21.54195,-18.86134,-25.26102,-37.15957,-48.75604,-55.03842,-54.13393,-47.81504,-40.07929,-34.77919,-33.69135,-36.00807,-39.31225,-41.24817,-40.81608,-38.59651,-35.94983,-33.86974,-32.28687,-30.23193,-26.65708,-21.28669,-14.89144,-8.805501,-4.034009,-0.5763366,2.550498,6.56997,11.95129,17.81971,22.21062,23.0996,19.66536,13.05866,6.195595,2.602794,4.857613,13.38867,26.23689,39.9014,50.86853,57.10272,58.81113,58.15467,58.08263,60.8679,67.04327,75.22725,82.89683,87.70083,88.64675,86.57346,83.66245,82.25358,83.58593,87.14577,90.99223,92.90768,91.74349,88.21355,84.64592,83.78491,87.27451,94.66929,103.5472,110.6995,113.7548,112.3548,108.2288,104.159,102.4507,103.7758,107.0303,110.204,111.6805,111.1641,109.7013,108.8559,109.6307,111.8451,114.3465,115.8585,115.866,114.9096,114.1007,114.2027,114.9344,115.0312,113.0703,108.5631,102.578,97.42268,95.50128,97.95924,103.9323,110.8468,115.6378,116.2349,112.5242,106.3082,100.3443,97.00477,97.24177,100.3131,104.2959,107.0627,107.2302,104.6986,100.6191,96.85424,95.1572,96.35908,99.87734,103.7837,105.502,102.9546,95.69654,85.47,75.77299,70.48453,72.10517,80.46877,92.64447,104.1711,111.0677,111.6196,107.0139,100.531,95.76794,94.86903,97.69168,102.2424,105.9998,107.2856,105.9294,102.983,99.8239,97.28644,95.31527,93.21408,90.1924,85.79145,80.00885,73.20642,66.0302,59.43206,54.64188,52.81868,54.32369,57.93472,60.61268,58.30448,47.70112,28.16449,2.69716,-22.84039,-42.14111,-51.36191,-50.95635,-45.33303,-40.41558,-40.40853,-45.59936,-52.46313,-56.01273,-53.00621,-44.08711,-33.55472,-26.85526,-27.25396,-33.64932,-40.84409,-42.17868,-33.09141,-13.65372,11.26598,34.25159,48.76474,51.97298,45.64169,34.83226,25.25459,20.67662,21.58792,25.56184,28.91035,28.69295,24.12204,16.80176,9.816213,6.165557,7.286198,12.31548,18.43252,22.14041,20.92854,14.54435,5.235771,-3.210458,-7.214716,-5.086541,2.215755,11.64275,19.61805,23.75168,23.7723,21.22179,18.18941,15.91633,14.13766,11.51507,6.79888,-0.09936898,-7.857797,-14.47372,-18.46992,-19.75597,-19.5766,-19.59973,-20.7891,-22.82504,-24.45926,-24.52511,-22.88645,-20.65196,-19.5052,-20.61022,-23.84709,-27.89312,-31.0867,-32.47576,-32.35437,-31.95895,-32.58551,-34.76175,-38.02785,-41.41312,-44.19254,-46.33382,-48.32152,-50.54105,-52.7536,-54.12654,-53.84864,-51.87156,-49.17927,-47.2943,-47.29713,-49.03868,-51.15099,-51.92936,-50.53628,-47.7094,-45.44246,-45.80639,-49.66463,-56.14069,-63.19088,-68.87754,-72.46076,-74.55263,-76.26354,-77.99932,-78.85136,-77.12223,-71.69191,-63.2754,-54.60567,-49.23453,-49.60102,-55.5671,-64.39462,-72.24145,-76.28709,-76.16786,-73.85275,-72.09085,-72.47097,-74.36468,-75.40537,-73.14056,-66.74557,-57.69413,-49.01656,-43.69538,-43.26244,-47.40926,-54.66465,-63.45487,-72.70914,-81.65076,-89.14465,-93.41085,-92.63943,-86.28808,-76.17167,-66.32971,-61.38592,-64.12647,-73.70592,-85.70106,-94.18758,-94.79097,-86.9812,-74.28762,-62.31025,-55.7094,-55.9259,-60.87461,-66.61852,-69.84679,-69.61208,-67.37153,-65.55445,-65.76858,-67.87481,-70.4354,-72.034,-72.41213,-72.55992,-73.74966,-76.29504,-79.03262,-79.99954,-77.86088,-73.06087,-67.78199,-64.62434,-64.82986,-67.28413,-69.05861,-67.27412,-61.10915,-52.63782,-45.84024,-44.30379,-48.99901,-57.52499,-65.35231,-68.37409,-65.26147,-58.21878,-51.68213,-49.69369,-53.46304,-60.47282,-65.612,-63.69838,-52.06482,-31.92485,-7.946,13.63965,27.44518,30.81606,24.53821,12.26785,-0.9397566,-10.41127,-13.35018,-9.60408,-1.487062,7.278039,13.12834,14.13274,10.73596,5.40309,1.301396,0.6502454,3.590847,8.185822,11.56331,11.57664,8.048519,2.898198,-0.9134715,-1.008439,3.139275,9.979933,16.7768,21.04215,21.69728,19.36361,15.74585,12.58229,10.80408,10.31154,10.34792,10.10595,9.162305,7.551123,5.576537,3.606812,2.007072,1.175258,1.519777,3.26877,6.193499,9.477385,11.93025,12.52438,10.96222,7.905284,4.663269,2.49161,1.921503,2.554526,3.453989,3.86552,3.767255,3.858447,4.985169,7.406138,10.43313,12.73589,13.14394,11.4105,8.408742,5.5967,4.083594,3.913517,4.050547,3.082591,0.184931,-4.287139,-8.950219,-12.15869,-12.8597,-10.98673,-7.20371,-2.281392,3.365206,9.622805,16.19516,22.16669,26.11003,26.83926,24.37284,20.389,17.67774,18.73013,24.22836,32.39223,39.70087,42.68805,39.8168,32.33146,23.56601,17.10373,14.86984,16.26959,18.82319,19.84305,18.09593,14.46207,11.2743,10.83761,14.07792,20.09805,26.78778,31.98482,34.431,34.02493,31.4138,27.37304,22.466,17.13443,11.98572,7.883847,5.652455,5.576329,7.117956,9.162495,10.70725,11.53634,12.35938,14.22833,17.57453,21.52842,24.06902,23.02369,17.34994,7.903797,-2.826953,-11.89678,-17.29986,-18.78233,-17.66174,-15.88555,-14.99635,-15.6299,-17.70489,-20.93868,-25.13684,-29.97349,-34.5006,-36.96147,-35.34528,-28.55735,-17.50878,-5.271707,4.076196,7.459464,4.562383,-1.764599,-6.817863,-6.42354,0.9353212,13.44702,27.09437,37.85018,43.6247,44.89035,43.78186,42.44064,41.74785,41.20947,39.90653,37.67173,35.56108,35.2441,37.7509,42.51032,47.42982,50.04999,49.05906,45.17214,40.79004,38.63473,40.20963,45.01982,50.96367,55.57321,57.29404,56.07097,53.02179,49.57747,46.70694,44.65811,43.20288,42.04036,41.00277,39.99789,38.8863,37.54633,36.14286,35.33204,36.07981,39.04048,43.85712,48.94611,52.1238,51.84412,48.31337,43.66339,40.90708,42.19081,47.42989,54.25673,59.41442,60.76432,58.60797,55.41656,54.10462,55.98536,59.80349,62.5574,61.60003,56.58928,49.90553,45.15292,44.70683,47.99096,51.76676,52.37606,48.49811,42.50507,39.30928,43.22422,54.74548,69.38543,79.51256,78.31445,63.63169,39.39806,13.81598,-4.711938,-11.58908,-7.797008,1.340122,9.427378,12.29247,9.526932,3.754077,-1.519911,-3.95057,-3.15859,-0.1679687,3.744931,7.82609,11.80274,15.3453,17.73737,18.18941,16.5908,14.00499,12.31045,13.03277,16.11284,19.56191,20.44504,16.72725,8.833679,-0.1597499,-5.981564,-5.486315,1.524699,12.08281,21.56316,26.0154,23.96459,16.74022,7.352115,-1.215395,-7.206003,-10.21786,-10.49434,-8.154521,-3.045116,4.707407,13.98997,22.56655,27.83301,28.10154,23.59716,16.4659,9.700709,5.595706,4.636621,5.458066,5.826888,4.008026,-0.2878612,-5.840707,-10.63927,-12.87267,-11.65916,-7.26446,-0.8936788,5.714582,10.73778,12.74483,11.18931,6.768715,1.363016,-2.63471,-3.445021,-0.9151325,3.256177,6.3997,6.479819,3.463234,-0.5093995,-2.427457,-0.4826727,4.431306,8.913465,9.033622,2.96745,-7.417587,-17.21211,-21.1641,-16.87283,-6.472459,4.35809,9.581409,6.291399,-3.632445,-14.72812,-21.24988,-20.49098,-14.08731,-6.584596,-2.328465,-2.760261,-5.850843,-7.905898,-6.383638,-1.732713,3.000039,4.457867,1.507737,-3.790991,-7.479954,-6.36962,-0.2300834,8.017634,14.2385,15.80074,13.1832,9.367269,7.467065,8.292953,9.612889,7.692725,0.08888498,-12.25076,-25.10479,-33.35402,-34.10148,-28.48674,-20.96969,-16.54808,-17.70996,-23.10246,-28.71588,-30.71703,-27.99958,-22.77388,-18.88639,-19.10362,-23.2482,-28.43642,-31.18448,-29.87036,-25.82475,-22.3062,-22.10416,-25.46455,-29.80272,-31.44381,-28.22029,-21.17236,-14.18097,-11.74061,-16.28966,-26.77507,-39.28624,-49.24997,-53.74537,-52.55337,-47.51712,-40.91584,-34.10992,-27.3336,-20.54568,-14.44156,-10.64535,-10.80497,-15.23444,-22.19942,-28.56166,-31.5241,-30.37041,-26.9762,-24.64013,-25.91542,-30.85408,-36.8685,-40.37517,-39.19337,-34.1245,-28.62841,-26.73232,-30.46877,-38.4719,-46.64887,-50.5389,-47.91714,-40.06556,-30.98261,-25.08076,-24.80755,-29.58012,-36.53149,-42.42959,-45.48296,-45.96296,-45.4332,-45.29982,-45.74917,-45.7576,-44.0554,-40.26031,-35.33376,-31.04559,-28.8577,-29.03939,-30.63778,-32.28709,-33.23357,-33.79208,-34.89216,-37.04255,-39.52769,-40.52905,-38.23338,-32.24979,-24.34258,-17.84876,-15.96757,-19.90471,-28.02693,-36.63927,-41.99718,-42.37486,-38.92265,-34.76512,-32.88795,-34.14016,-36.63998,-37.01868,-32.75709,-24.1436,-14.54542,-8.699546,-9.968438,-18.19748,-29.51786,-38.30238,-40.18811,-34.42042,-24.16005,-14.60597,-10.07194,-11.74491,-17.39127,-23.05808,-25.61582,-24.54078,-21.89454,-20.65034,-22.55925,-26.98108,-31.41232,-33.2873,-31.78892,-28.42719,-25.99253,-26.5991,-30.15492,-34.30456,-35.91026,-33.09971,-26.52686,-19.01586,-13.82909,-12.70073,-14.91037,-17.94565,-19.23326,-17.72125,-14.25661,-10.58264,-7.77566,-5.333106,-1.6439,4.460865,12.23133,18.79618,20.60172,15.68951,5.310491,-6.32758,-14.23167,-15.49446,-11.08967,-5.405777,-3.704144,-8.992466,-20.19643,-32.72539,-41.05521,-41.72935,-34.97939,-24.08082,-13.00906,-3.977417,3.576491,12.01381,23.29963,37.12703,50.6271,59.85899,62.10684,57.52229,49.10805,41.1053,36.82221,37.19209,40.8045,45.18352,48.37491,49.84813,50.29771,50.68809,51.31431,51.52616,50.20647,46.58384,40.7798,33.77287,26.89888,21.30359,17.70194,16.47717,17.86888,21.95315,28.36647,36.01205,43.11213,47.74733,48.67275,45.93233,40.85341,35.37812,31.10813,28.6312,27.50694,26.85741,26.1224,25.45984,25.55751,27.03478,29.8864,33.35763,36.31068,37.80101,37.46074,35.48217,32.30106,28.30522,23.8201,19.35269,15.81186,14.38721,16.0179,20.73009,27.30022,33.56612,37.31373,37.2827,33.72793,28.23109,22.90011,19.44415,18.62679,20.30171,23.84027,28.54931,33.78716,38.79834,42.56158,43.94467,42.21025,37.56613,31.35358,25.61782,22.23134,22.04347,24.55657,28.30841,31.70307,33.76154,34.35994,33.89067,32.67056,30.56451,27.08736,21.87155,15.1179,7.665366,0.6151823,-5.226612,-9.687732,-13.12706,-15.99653,-18.42003,-20.1087,-20.65755,-19.96547,-18.42831,-16.74007,-15.45857,-14.69105,-14.16405,-13.62716,-13.2445,-13.60625,-15.27287,-18.17053,-21.33676,-23.32155,-23.07009,-20.70086,-17.56857,-15.46273,-15.40545,-16.88189,-18.11334,-17.29407,-13.99689,-9.73958,-7.193324,-8.433316,-13.3585,-19.41164,-22.94356,-21.46611,-15.36159,-7.872743,-3.245772,-4.124024,-9.83355,-16.70164,-20.2687,-18.03353,-11.00035,-3.047982,1.468553,0.3388713,-5.3153,-11.98811,-16.16388,-16.49947,-14.37731,-12.53502,-12.8008,-14.57089,-15.13855,-11.69145,-3.613462,6.542678,14.18978,15.32512,8.993805,-1.993643,-12.5803,-18.293,-17.62838,-12.55674,-6.925342,-3.872761,-3.937209,-5.01884,-4.10453,0.469632,7.737154,14.61503,17.82431,15.93123,10.19465,3.727969,-0.4207455,-1.010643,0.8947442,2.891855,2.938306,0.6588895,-2.547234,-4.574785,-4.096297,-1.49167,1.335047,2.082127,-0.6008874,-6.334926,-13.19224,-18.65145,-20.75803,-18.90158,-13.92696,-7.656098,-2.130249,1.100248,1.434618,-0.6507797,-3.805623,-6.293627,-6.643271,-4.242032,0.3975035,5.881723,10.63036,13.6911,15.21272,16.2729,18.10957,21.1955,24.7289,26.89665,25.81872,20.64242,12.15267,2.517862,-5.696987,-10.70485,-12.22126,-11.38629,-9.997067,-9.531466,-10.49483,-12.377,-14.13385,-14.85154,-14.22827,-12.68375,-11.12963,-10.56187,-11.64601,-14.39941,-18.04004,-21.0738,-21.67813,-18.34917,-10.61672,0.5147571,12.70853,23.09296,29.41837,31.01597,29.03259,25.77146,23.47007,23.18166,24.38342,25.50794,25.04723,22.54742,18.89113,15.73093,14.45679,15.35545,17.46204,19.15363,19.08301,16.87597,13.22959,9.444534,6.760042,5.897757,6.997735,9.824163,13.9768,18.93604,24.00478,28.35262,31.30402,32.75034,33.37323,34.37516,36.73845,40.40361,43.94324,45.10217,42.03273,34.55584,24.63928,15.66022,10.74268,11.07042,15.17384,19.68364,21.19288,18.19287,11.96978,5.928037,3.712481,7.192111,15.43576,25.22582,32.77151,35.62829,33.76949,29.2992,25.07807,23.11793,23.63886,25.23135,25.90479,24.33661,20.60282,16.03495,12.37385,10.75414,11.10167,12.2515,12.688,11.48713,8.951786,6.592664,6.41931,9.848526,16.73512,25.02418,31.2856,32.00822,25.1467,11.22355,-6.593622,-23.59226,-35.38031,-39.69168,-37.26793,-31.36486,-26.10931,-24.51261,-27.1459,-32.11829,-36.31265,-37.16284,-33.99932,-28.26696,-22.58044,-19.22705,-18.99552,-20.96217,-23.27268,-24.38056,-23.98371,-23.13388,-23.51214,-26.35007,-31.63882,-38.04811,-43.55196,-46.36674,-45.69895,-41.97868,-36.5591,-31.13598,-27.1848,-25.61854,-26.68146,-29.99699,-34.69228,-39.58478,-43.4651,-45.45132,-45.31333,-43.59692,-41.43573,-40.07789,-40.3242,-42.13881,-44.63103,-46.42542,-46.25276,-43.50277,-38.5089,-32.46652,-27.02985,-23.7329,-23.4269,-25.92097,-29.9758,-33.71521,-35.37469,-34.13346,-30.64007,-26.88916,-25.34524,-27.60853,-33.2613,-39.58405,-42.48951,-38.38973,-26.13751,-7.98475,11.09063,25.50474,31.63206,29.47006,22.4746,15.60752,12.64241,14.232,17.8325,19.51828,16.60762,9.520777,1.719115,-2.282946,0.3293329,8.819911,19.11929,26.05672,26.33171,20.47303,12.59429,8.054048,10.36834,19.18478,30.49974,38.97955,41.00458,36.65123,29.48216,24.32713,24.42414,29.61443,36.61215,41.09553,40.29768,34.54251,26.869,21.09256,19.55092,21.91645,25.70675,28.05207,27.52091,24.85071,22.18614,21.4098,22.71338,24.37181,23.87496,19.68493,12.47796,5.040383,0.8291969,2.026109,8.230857,16.56068,23.09756,24.87088,21.29031,14.30279,7.279821,3.307245,3.799949,8.081818,14.00437,19.13951,21.87624,21.91659,20.06218,17.547,15.34265,13.77409,12.57383,11.25937,9.594255,7.884454,6.951036,7.770333,10.91826,16.06681,21.80545,25.95956,26.36115,21.78805,12.6373,0.9537244,-10.27624,-18.28964,-21.62332,-20.57095,-16.79886,-12.35913,-8.663952,-5.993648,-3.782413,-1.435739,0.8902239,2.100909,0.7430781,-3.975831,-11.36941,-19.22505,-24.66173,-25.49367,-21.36812,-14.0407,-6.597505,-2.005284,-1.725466,-5.093175,-9.75668,-12.9227,-12.76738,-9.31352,-4.374495,-0.6328601,-0.3288594,-4.184825,-11.05153,-18.40623,-23.4444,-24.26492,-20.62584,-13.97131,-6.756142,-1.408274,0.6020129,-0.8095311,-4.541487,-8.964213,-12.66514,-14.92511,-15.76386,-15.64801,-15.12368,-14.61028,-14.4205,-14.87167,-16.28488,-18.77049,-21.92326,-24.69429,-25.6672,-23.72229,-18.77351,-12.12461,-6.125432,-3.193402,-4.65011,-9.988116,-16.99026,-22.68134,-24.6331,-21.97917,-15.6579,-7.847119,-0.9580029,3.278179,4.247403,2.353131,-1.39816,-5.835577,-9.915399,-12.87821,-14.36378,-14.51243,-13.95797,-13.59288,-14.10998,-15.53585,-17.08272,-17.52642,-15.99707,-12.73736,-9.306284,-7.968709,-10.4996,-17.04487,-25.7257,-33.29458,-36.5516,-33.79253,-25.53456,-14.20577,-3.046649,5.125655,8.695397,7.364652,1.839305,-6.510827,-15.78788,-23.62637,-27.50034,-25.4623,-17.08791,-4.054647,10.19086,21.75024,27.99899,28.76959,26.24871,23.57133,22.90427,24.17536,25.23816,23.38164,17.22647,7.793823,-1.957531,-8.842424,-11.32268,-10.34235,-8.599538,-8.737279,-11.63112,-15.86987,-18.74237,-18.06354,-13.65238,-7.523664,-2.708729,-1.486875,-4.144438,-8.982388,-13.46659,-15.71602,-15.39493,-13.5508,-11.65897,-10.59932,-10.23028,-9.726,-8.313757,-5.837795,-2.804802,0.001807706,1.950157,2.705023,2.077324,-0.1343734,-4.021892,-9.175017,-14.37539,-17.80667,-17.8967,-14.37751,-8.835633,-4.201787,-3.263066,-6.987491,-13.70524,-19.78044,-21.51069,-17.19522,-8.139891,2.030559,9.345428,11.56006,9.095487,4.358611,-0.009426114,-2.765164,-4.534944,-6.921268,-10.97157,-16.14514,-20.52384,-22.11299,-20.30132,-16.42677,-13.00983,-12.14356,-14.12252,-17.24523,-18.93871,-17.45912,-13.04072,-7.730043,-4.021885,-3.204545,-4.503134,-5.574835,-4.029029,1.003369,8.230467,14.85878,18.10855,16.66582,11.25689,4.123237,-2.184967,-5.96533,-6.895156,-5.821794,-4.10597,-2.94896,-2.996712,-4.259786,-6.243392,-8.18346,-9.359904,-9.457286,-8.844864,-8.560162,-9.840497,-13.31802,-18.29537,-22.63427,-23.52673,-18.89277,-8.670554,4.803719,17.67931,26.3416,29.07373,26.6737,21.68842,16.78062,13.27564,10.79041,8.095776,4.517632,0.8094587,-1.194528,0.04488649,4.338355,9.370534,11.78783,9.20189,1.848982,-7.237649,-13.7877,-14.72198,-9.98425,-2.628512,2.933467,3.4901,-1.137111,-8.064561,-13.10417,-13.22607,-8.271317,-0.9665279,4.674672,5.56369,1.100034,-6.693128,-14.37427,-18.83933,-18.66742,-14.47861,-8.340158,-2.707872,0.5196136,0.4936093,-2.572193,-7.691615,-13.50648,-18.67795,-22.20938,-23.63859,-23.0372,-20.81656,-17.45295,-13.32356,-8.777619,-4.366318,-0.9745629,0.4176506,-0.6418768,-3.407691,-5.761121,-4.892548,1.315905,12.90955,27.37174,40.51245,48.42717,49.49148,45.22087,39.41673,36.03637,37.02918,41.42753,46.22443,48.44054,47.04053,43.46397,40.47192,40.11923,42.26019,44.62466,44.43646,40.48493,34.21429,29.02983,28.20365,32.71976,40.4777,47.419,49.89669,46.81059,40.18307,33.85644,31.17702,33.13069,38.04177,42.89011,45.29722,44.86557,43.0968,42.09122,43.00455,45.31311,47.29039,47.25525,44.67484,40.3932,35.94572,32.5614,30.60792,29.82508,30.03519,31.65002,35.45272,41.74482,49.50389,56.30512,59.28386,56.68161,49.035,39.19481,31.04376,27.58599,29.48561,34.86669,40.44498,43.29295,42.23214,38.15716,33.26847,29.79528,28.97007,30.7172,34.01812,37.556,40.20635,41.21685,40.18765,37.07422,32.29995,26.85468,22.16636,19.65985,20.16935,23.52863,28.6139,33.8477,37.89197,40.14155,40.77774,40.40099,39.51732,38.17426,35.90567,31.95163,25.59843,16.513,5.015652,-7.741163,-19.78842,-28.70179,-32.37108,-29.99548,-22.82387,-14.09533,-7.924284,-7.473619,-13.2937,-22.8145,-31.46548,-34.99435,-31.77532,-23.77587,-15.53119,-11.61661,-14.03574,-21.05424,-28.19048,-30.80886,-26.79232,-17.72691,-7.931091,-1.95785,-2.088362,-7.268187,-14.00832,-18.56488,-19.0047,-15.96099,-11.79929,-8.922826,-8.38955,-9.65465,-11.40767,-12.727,-13.65983,-14.84945,-16.6053,-18.23281,-18.24903,-15.41978,-9.899982,-3.599674,0.6120595,0.4667431,-4.341627,-11.8814,-19.01565,-23.13729,-23.55635,-21.71068,-20.1181,-20.75733,-23.87893,-27.93795,-30.61363,-30.24171,-26.78902,-21.84537,-17.72145,-16.2282,-17.81433,-21.44357,-25.16324,-26.99269,-25.71927,-21.33076,-15.02212,-8.823477,-4.954041,-5.036901,-9.402766,-16.78344,-24.64066,-30.13436,-31.36581,-28.28495,-22.72,-17.41924,-14.56851,-14.62106,-16.15539,-16.90007,-15.33722,-11.88495,-8.857487,-9.117856,-14.173,-22.87071,-31.58038,-35.89427,-32.97826,-23.26687,-10.51196,-0.09204922,3.55965,-0.9270243,-11.28135,-22.79476,-30.63214,-32.04513,-27.42138,-19.76126,-12.98559,-10.00817,-11.51903,-15.97889,-20.68447,-23.26214,-22.80342,-20.11106,-17.00085,-15.09404,-14.77435,-14.8924,-13.40431,-8.630081,-0.4600731,9.183824,16.9715,19.6391,15.60089,5.84643,-6.38687,-17.04737,-23.08859,-23.7399,-20.59407,-16.52744,-14.10597,-14.36288,-16.56801,-18.9869,-20.06349,-19.28053,-17.23597,-15.02206,-13.42519,-12.51654,-11.86336,-11.12447,-10.52088,-10.79013,-12.6282,-16.02498,-19.99899,-22.98567,-23.67981,-21.8152,-18.38196,-15.13062,-13.65884,-14.61552,-17.46107,-20.85785,-23.39698,-24.2185,-23.22679,-20.89502,-17.89224,-14.79711,-12.01049,-9.806328,-8.382455,-7.849289,-8.205123,-9.383214,-11.37119,-14.28196,-18.23571,-23.04687,-27.92328,-31.48462,-32.26335,-29.52018,-23.89009,-17.35782,-12.40593,-10.72563,-12.24307,-15.12385,-16.85475,-15.80228,-12.27677,-8.385661,-6.704411,-8.584255,-13.19833,-17.99109,-20.28695,-19.03109,-15.50222,-12.48933,-12.43247,-15.7348,-20.37148,-23.07896,-21.3655,-15.03739,-6.261262,1.835657,7.05436,9.220539,9.795313,10.35702,11.11551,10.58687,6.721553,-1.306567,-11.97516,-21.88301,-27.64347,-27.99277,-24.66068,-21.31679,-21.19383,-24.92711,-30.0777,-32.72395,-30.12581,-22.70687,-14.00053,-8.532129,-8.984833,-14.50257,-21.25978,-24.94381,-23.52686,-18.50496,-13.79526,-13.02923,-17.05854,-23.33797,-27.60583,-26.74011,-20.87758,-13.36137,-8.528946,-8.796152,-12.98578,-17.0422,-16.7132,-10.47009,-0.7548165,7.297491,8.898064,2.516938,-9.138467,-20.66713,-27.05082,-26.36871,-20.54271,-13.7906,-9.887709,-9.99854,-12.36641,-13.88727,-12.39739,-8.120284,-3.368901,-0.7940471,-1.43003,-3.88831,-5.257886,-3.128068,2.602603,9.344634,13.18372,11.20662,3.391359,-7.101707,-15.45736,-17.72168,-12.91337,-3.585042,5.441014,9.452168,6.087196,-3.672793,-16.1575,-26.85031,-32.43012,-32.02898,-27.22145,-20.92498,-15.88378,-13.5068,-13.54963,-14.65069,-15.32505,-14.85075,-13.61032,-12.77019,-13.51784,-16.28055,-20.32952,-23.97216,-25.24866,-22.8157,-16.62183,-8.065175,0.4528177,6.416817,8.182648,5.658837,0.3885138,-5.043398,-8.084112,-7.350107,-3.333558,1.696125,4.653511,3.12507,-3.260096,-12.26836,-19.70709,-21.12794,-13.8864,1.413218,20.85818,38.69937,49.74449,51.56741,45.47363,35.76122,27.66854,25.03835,28.83893,37.17035,46.5872,53.90462,57.50309,57.55203,55.2563,51.77824,47.57633,42.52702,36.62028,30.63559,26.22802,25.27557,28.84525,36.41755,45.87011,54.28313,59.15004,59.36505,55.51001,49.36983,43.01468,37.95876,34.78139,33.28748,33.00084,33.64542,35.3547,38.5436,43.55132,50.26599,57.91872,65.1618,70.43092,72.4899,70.96169,66.60848,61.17675,56.7887,55.09542,56.56246,60.27042,64.36678,66.96887,67.04973,64.82176,61.42783,58.16054,55.71029,53.9246,52.18686,50.09775,47.9147,46.37607,45.98672,46.29153,45.73788,42.38671,35.13643,24.69357,13.58501,5.065758,1.481071,3.050159,7.834934,12.9361,16.18586,17.27848,17.63227,19.10645,22.45481,26.57452,29.09111,27.91178,22.71757,15.37681,8.959352,5.966693,6.91869,10.21631,13.35177,14.6453,14.33567,14.29939,16.60545,21.90678,28.78434,34.504,36.68217,34.7281,30.08667,25.13086,21.49293,19.0147,16.07127,11.04482,3.897104,-3.337172,-7.590793,-6.72436,-1.089271,6.431434,12.0639,13.47912,11.31381,8.826713,9.818643,16.09262,26.07184,35.5059,39.88377,37.09146,28.67931,18.97193,12.57936,11.84141,15.72237,20.73137,23.18649,21.36863,16.28517,10.71958,7.325817,7.043744,8.788965,10.46186,10.47503,8.746884,6.568813,5.552416,6.45203,8.657934,10.62971,10.89309,8.906824,5.29073,1.409773,-1.284407,-1.700818,0.7938664,6.417743,14.84434,24.8536,34.10039,39.47561,38.24527,29.54788,15.37115,0.1979849,-10.79525,-14.19696,-10.12924,-2.234629,4.239504,5.243924,0.03061021,-8.650765,-16.33207,-19.4638,-17.30697,-11.99349,-6.871946,-4.325633,-4.522671,-5.845118,-6.556099,-6.411131,-6.982759,-10.41409,-17.47457,-26.36894,-33.29956,-34.59553,-29.09387,-19.1647,-9.576861,-4.790332,-6.334959,-11.95165,-17.09307,-17.8688,-13.576,-7.187164,-3.465926,-5.893301,-14.35891,-25.08472,-32.83375,-34.01443,-28.74866,-20.66542,-14.62618,-13.86888,-18.33528,-25.10873,-30.50682,-32.36582,-31.05701,-28.72817,-27.47861,-27.84236,-28.63428,-28.18298,-25.96048,-23.34463,-22.86828,-26.41529,-33.60654,-41.56414,-46.33527,-45.15531,-38.12656,-28.23852,-19.69872,-15.61633,-16.45215,-20.13461,-23.64777,-24.99749,-24.29444,-23.35075,-24.19423,-27.57759,-32.48029,-36.86296,-39.06788,-38.85511,-37.38076,-36.19537,-36.02515,-36.22141,-35.25874,-31.90338,-26.20394,-19.58939,-14.00571,-10.70061,-9.518033,-9.1986,-8.4694,-7.138198,-6.384399,-7.989987,-12.99402,-20.68779,-28.6822,-34.09678,-35.18147,-32.37413,-28.12463,-25.55944,-26.76103,-31.65173,-38.08516,-43.04354,-44.21461,-41.08879,-35.05548,-28.58339,-24.02148,-22.66365,-24.44294,-28.23676,-32.4797,-35.75314,-37.16681,-36.52299,-34.31205,-31.56877,-29.56676,-29.37432,-31.40994,-35.22365,-39.68173,-43.52295,-46.01989,-47.34379,-48.39366,-50.14754,-52.92228,-56.02379,-58.05185,-57.72383,-54.7338,-50.10284,-45.76755,-43.59981,-44.41339,-47.52728,-51.1506,-53.37109,-53.18201,-50.98169,-48.28308,-46.83739,-47.68331,-50.65052,-54.55447,-57.91936,-59.7829,-60.12019,-59.68015,-59.37426,-59.61665,-60.02777,-59.69276,-57.82284,-54.42017,-50.50974,-47.74265,-47.53039,-50.18688,-54.59807,-58.69495,-60.54597,-59.48122,-56.55621,-53.97731,-53.70414,-55.99173,-58.80413,-58.62771,-52.42851,-39.7449,-23.65549,-9.854084,-4.057807,-8.985971,-22.52841,-38.21875,-47.94967,-45.64061,-30.02012,-5.103917,21.81759,43.58091,56.15724,59.82241,58.12038,55.46746,54.84332,56.75636,59.76649,61.91802,62.03294,60.12906,56.95178,53.20911,49.18587,44.98866,41.08245,38.51892,38.49056,41.42944,46.3165,50.8535,52.58834,50.39967,45.37343,40.40542,38.62395,41.52562,47.96757,54.68517,58.08477,56.26033,50.0278,42.36965,36.65874,34.76442,36.1901,38.71114,40.0396,39.42901,38.19976,38.88379,43.55017,52.37277,63.31025,73.07648,78.80287,79.4244,76.03124,71.06185,66.88496,64.57524,63.52253,61.9996,58.28519,51.72418,43.19353,34.81031,29.08388,27.93342,31.99749,40.48958,51.60101,63.2284,73.68073,82.04675,88.07554,91.68526,92.4445,89.41839,81.5864,68.66948,51.888,34.07908,18.91884,9.492153,6.92936,9.894191,15.29393,19.88651,21.89882,21.71211,21.2057,22.17447,24.82606,27.35201,26.90181,21.3922,11.01653,-1.535136,-12.35361,-18.35398,-18.8702,-15.84588,-12.5472,-11.61729,-13.66812,-17.21611,-19.88581,-20.02284,-17.65972,-14.28301,-11.67593,-10.70466,-10.88601,-10.97968,-10.10944,-8.563443,-7.677667,-8.881214,-12.59182,-17.76495,-22.44949,-24.99493,-25.09846,-23.9807,-23.57088,-25.24475,-28.94905,-33.2709,-36.35739,-37.05241,-35.49451,-32.84758,-30.43541,-28.93543,-28.18216,-27.64533,-27.1333,-27.11468,-28.36399,-31.17532,-34.76456,-37.39676,-37.28404,-33.72559,-27.72943,-21.63235,-17.87097,-17.62279,-20.15258,-23.29242,-24.77714,-23.63778,-20.80888,-18.59007,-19.28142,-23.79243,-31.00866,-38.25399,-42.56364,-42.08635,-36.91174,-28.97564,-21.16505,-16.08617,-15.05079,-17.66513,-22.12169,-26.02578,-27.40975,-25.53532,-21.17284,-16.23488,-12.92086,-12.75242,-15.96821,-21.57628,-28.01584,-34.02545,-39.17656,-43.74134,-48.01465,-51.61312,-53.3541,-51.94741,-47.13708,-40.49311,-35.11848,-34.15858,-38.80167,-46.96307,-53.62215,-52.91594,-41.03746,-18.40939,10.11926,37.25986,56.46831,64.67586,63.19342,56.47215,49.5564,45.72722,45.53059,47.47424,49.66711,51.22787,52.62465,54.90387,58.51781,62.65671,65.56006,65.58495,62.29098,56.82944,51.40029,48.1445,48.14581,51.07499,55.55682,59.9124,62.80287,63.49425,61.80216,57.96273,52.62159,46.89714,42.30689,40.38642,42.07322,47.17013,54.2461,61.12074,65.73062,66.93884,64.89461,60.80455,56.32422,52.9171,51.45914,52.14528,54.57611,57.89845,60.98638,62.7455,62.55391,60.6732,58.32401,57.21925,58.66217,62.70332,67.93479,72.20052,73.91285,73.16706,71.867,72.61237,76.95937,84.1483,91.23991,94.72218,92.64725,85.89243,77.59673,70.99173,66.97942,63.13647,55.02092,39.18415,16.04886,-9.288759,-29.13839,-37.18422,-32.07736,-18.44742,-4.588942,1.933299,-1.77139,-12.71194,-24.19086,-29.97616,-27.91183,-20.83886,-14.41808,-13.37098,-18.56098,-26.70269,-32.73669,-33.21611,-28.47041,-22.20083,-18.87281,-20.69922,-26.20768,-31.29956,-32.05307,-27.40226,-19.95197,-14.4162,-14.71482,-21.56937,-32.07804,-41.45237,-45.76505,-44.00642,-38.29123,-32.27724,-28.93172,-29.05602,-31.3422,-33.68407,-34.71137,-34.50928,-34.17443,-34.68416,-35.99308,-37.0199,-36.48817,-33.97042,-30.33766,-27.27161,-26.15252,-27.09709,-28.81309,-29.40207,-27.60068,-23.67329,-19.38755,-17.07661,-18.35095,-23.19529,-29.93111,-36.005,-39.12189,-38.12634,-33.26107,-25.81339,-17.46461,-9.712461,-3.584084,0.3742328,1.982054,1.341034,-1.16939,-4.872998,-8.842859,-12.06604,-13.69882,-13.32995,-11.15076,-7.955912,-4.936732,-3.301863,-3.82344,-6.478872,-10.36335,-13.9704,-15.77794,-14.90339,-11.51354,-6.766914,-2.296387,0.5079809,1.041685,-0.4129592,-3.026731,-5.94375,-8.637186,-10.91107,-12.63829,-13.5267,-13.18534,-11.50643,-9.088538,-7.305696,-7.814349,-11.66558,-18.52852,-26.54969,-33.05115,-35.75938,-33.90218,-28.55197,-22.01854,-16.65838,-13.80386,-13.40569,-14.51108,-16.16447,-18.08157,-20.65031,-24.31672,-28.85281,-33.1003,-35.4374,-34.70313,-30.97125,-25.63443,-20.70833,-17.7749,-17.21777,-18.19682,-19.31648,-19.50613,-18.53672,-16.90817,-15.30733,-14.12815,-13.43337,-13.33807,-14.39662,-17.51527,-23.26829,-31.01621,-38.53224,-42.64462,-40.77109,-32.55253,-20.55273,-9.420201,-3.775716,-5.919155,-14.64303,-25.87844,-34.84577,-38.49879,-36.86952,-32.58314,-28.92036,-27.65877,-28.03546,-27.4283,-23.27543,-14.97158,-4.527119,4.434914,8.708303,7.292283,1.843175,-4.448383,-8.805175,-10.40049,-10.55173,-11.52291,-14.77731,-19.84129,-24.51421,-26.27216,-23.9427,-18.56854,-12.90748,-9.891733,-11.01194,-15.61261,-21.48122,-26.29612,-28.98237,-30.14086,-31.34538,-33.84204,-37.54322,-40.98038,-42.23552,-40.23388,-35.5607,-30.29045,-26.93606,-27.16538,-31.02658,-37.06469,-43.15602,-47.49553,-49.18393,-48.21609,-45.08825,-40.44051,-34.99375,-29.71066,-25.85563,-24.68348,-26.79658,-31.56882,-37.11663,-41.02286,-41.52092,-38.47112,-33.49145,-29.07809,-27.17335,-28.03065,-30.08923,-30.97248,-29.01915,-24.40065,-19.11489,-15.83403,-16.30901,-20.31358,-25.78333,-30.05601,-31.43488,-30.11028,-27.89744,-27.00235,-28.63338,-32.32347,-36.34442,-38.86647,-39.06313,-37.4501,-35.30613,-33.64745,-32.52119,-31.10256,-28.50016,-24.64479,-20.58578,-17.93518,-17.84132,-20.22166,-23.83341,-27.1616,-29.49247,-31.35462,-33.9115,-37.64188,-41.21744,-41.49437,-34.8692,-19.35929,3.810105,30.16448,53.6798,69.39703,75.54303,74.01133,68.99232,64.61007,62.94707,63.52193,64.36794,63.84743,61.97646,60.41425,61.1932,65.10577,70.87155,75.69582,76.89792,73.59092,67.33385,61.3218,58.56986,60.19168,64.78613,69.2801,70.69303,67.77166,61.56551,54.68013,49.75075,48.07735,49.20267,51.57014,53.73574,55.30663,57.01851,59.96333,64.53918,69.86795,74.12247,75.58816,73.81529,70.09127,66.8791,66.4762,69.65041,75.06633,79.89742,81.33275,78.16492,71.5526,64.50382,60.31384,60.80312,65.32801,71.10717,74.70432,73.83633,68.52876,60.99945,54.38548,51.06947,51.553,54.46318,57.58418,59.21294,58.99472,57.79112,56.77138,56.43283,56.25869,55.25345,52.96215,50.19999,48.88572,50.96468,57.06123,65.74728,73.98996,78.60671,77.90715,72.54662,65.09908,58.6206,55.10677,54.74242,56.2983,58.25995,59.82888,61.09848,62.36361,63.18766,62.04928,56.98179,46.85293,32.40342,16.22263,1.541242,-9.464646,-16.74678,-22.09568,-27.6443,-34.17438,-40.42031,-43.92633,-42.93254,-37.98905,-32.07768,-28.97883,-30.83983,-36.55083,-42.14638,-43.18563,-37.72709,-28.00377,-19.58146,-18.31416,-26.8201,-42.60333,-59.03553,-68.73099,-67.42359,-56.13717,-40.46838,-27.47194,-21.99091,-24.47332,-31.33851,-37.43057,-38.97392,-35.35146,-28.9052,-23.1747,-20.80545,-22.31581,-26.2052,-30.04188,-31.73109,-30.29512,-25.992,-20.00501,-14.02532,-9.846879,-8.903446,-11.7057,-17.38507,-23.73424,-28.00343,-28.24841,-24.51967,-19.07389,-15.25826,-15.56372,-19.99591,-25.87805,-29.38218,-27.95143,-22.09481,-15.30112,-11.97052,-14.57663,-21.8844,-29.47692,-32.40014,-28.32578,-19.19915,-10.22442,-6.722875,-10.79992,-19.94483,-28.50131,-31.12314,-26.04516,-16.10767,-6.900615,-3.247812,-6.296438,-13.05397,-18.59031,-19.38328,-15.56374,-10.59177,-8.639699,-11.50375,-17.18595,-21.16501,-19.55262,-12.02966,-2.540625,2.842385,-0.3703927,-12.12099,-27.48112,-39.24172,-41.88449,-34.57057,-21.41901,-9.01628,-2.733392,-4.037012,-10.23698,-16.56228,-19.11259,-16.86959,-11.73409,-6.862295,-4.557813,-5.06973,-6.882651,-8.061069,-7.608566,-5.948623,-4.348187,-3.831998,-4.409899,-5.117416,-4.754907,-2.746535,0.4729941,3.743134,5.866592,6.203029,4.825942,2.256683,-0.9161917,-4.220085,-7.200824,-9.236044,-9.536672,-7.457309,-2.955898,3.115501,9.153461,13.37217,14.53287,12.46495,8.134874,3.263374,-0.313722,-1.278626,0.7284049,4.968216,9.800317,13.22523,13.68197,10.85251,6.071974,1.980236,1.356427,5.564709,13.42202,21.26833,24.46676,19.73661,7.108705,-9.680133,-24.75646,-32.93756,-32.30757,-25.08628,-16.25994,-10.75029,-10.75233,-14.78061,-18.91905,-19.43317,-15.1046,-7.866567,-1.436258,1.102753,-0.8156453,-5.060784,-8.357542,-8.478872,-5.616606,-2.079039,-0.5950071,-2.417433,-6.505024,-10.27966,-11.39302,-9.271183,-5.407876,-2.257958,-1.530439,-3.06027,-4.999757,-5.151187,-2.498322,2.101858,6.493171,8.616201,7.749716,4.787952,1.439151,-1.019635,-2.540393,-4.129496,-6.892799,-11.03709,-15.5617,-18.8489,-19.71993,-18.19892,-15.46913,-13.08546,-12.02567,-12.22939,-12.88974,-13.19956,-12.9586,-12.59977,-12.67077,-13.23689,-13.72423,-13.3596,-11.88054,-9.937846,-8.827693,-9.682696,-12.69093,-16.92196,-20.92128,-23.66644,-25.19175,-26.41011,-28.24244,-30.69952,-32.63605,-32.44146,-29.24625,-23.79703,-18.32251,-15.36371,-16.27311,-20.34827,-25.19126,-28.09674,-27.59844,-24.21724,-19.98398,-17.11836,-16.75428,-18.50038,-21.00514,-23.00326,-24.05547,-24.50538,-24.80829,-24.86301,-23.94103,-21.29794,-16.97365,-12.09178,-8.321046,-6.812618,-7.384012,-8.605463,-8.813958,-7.372681,-5.244353,-4.377658,-6.247747,-10.55613,-15.07405,-16.87822,-14.24635,-7.9557,-1.034945,2.97402,2.177974,-2.493299,-7.901803,-10.74431,-9.706251,-6.314505,-3.92355,-5.492786,-11.60543,-20.01441,-26.98833,-29.56325,-27.2524,-22.17217,-17.60269,-15.99955,-17.73435,-21.25582,-24.37872,-25.71108,-25.27851,-24.09376,-23.19362,-22.96635,-23.23613,-23.8717,-25.24237,-27.99278,-32.2433,-36.91567,-39.92424,-39.36076,-34.95658,-28.72147,-24.06419,-23.75657,-28.02048,-34.13735,-38.05704,-37.116,-32.05241,-26.79873,-25.91026,-31.14002,-39.44175,-43.96439,-37.76819,-18.15553,11.08035,41.06735,62.31192,69.67068,64.90248,55.28441,49.14134,51.00401,59.27451,67.70356,69.62613,62.27139,48.5308,35.22535,29.07762,32.91668,44.32352,57.33073,65.92255,67.16183,62.23005,55.09846,49.9601,49.06804,52.08609,56.93251,61.22701,63.34752,62.66687,59.25692,53.64021,46.88469,40.80302,37.73636,39.65698,46.94345,57.64368,67.93684,73.80331,73.06432,66.59631,57.91561,51.31814,49.64555,52.98406,58.99324,64.52428,67.41947,67.37923,65.49715,63.0082,60.27121,56.72838,51.79572,45.8978,40.75512,38.58904,40.74051,46.67699,54.13004,60.33047,63.52964,63.80256,62.63037,61.61914,61.31232,60.93782,59.22717,55.62909,50.95415,46.90337,44.8069,44.53278,44.46458,42.69141,38.6303,33.87628,31.53195,34.29211,42.49435,53.48653,62.87978,67.01414,65.10925,59.68794,54.93313,53.954,56.6801,59.73621,58.4128,49.53039,33.43933,13.95295,-3.6984,-15.60358,-20.95483,-21.90909,-21.79815,-22.9325,-25.38907,-27.42838,-27.1034,-23.90337,-19.348,-16.19975,-16.86274,-21.9984,-30.17582,-38.67939,-44.91019,-47.55197,-46.93857,-44.57947,-42.26707,-41.27501,-41.96983,-43.8522,-45.85761,-46.75889,-45.59589,-42.08709,-36.90306,-31.60576,-28.12021,-27.84908,-30.83636,-35.4954,-39.19586,-39.5248,-35.58052,-28.54609,-21.15032,-16.25789,-15.37823,-17.95282,-21.83662,-24.6664,-25.27451,-24.29257,-23.59995,-24.99269,-28.91919,-34.0662,-38.04373,-38.74188,-35.55846,-29.79793,-24.05645,-20.97476,-22.03811,-27.00611,-34.14981,-41.06501,-45.61328,-46.5985,-44.01384,-38.89342,-32.9199,-27.92071,-25.36065,-25.91981,-29.27166,-34.16072,-38.7921,-41.41886,-40.91348,-37.11502,-30.84904,-23.65707,-17.35749,-13.56118,-13.22009,-16.28066,-21.55148,-26.93766,-30.11458,-29.50528,-25.15405,-18.97171,-14.0246,-13.02967,-16.75317,-23.23618,-28.45414,-28.2567,-20.64627,-7.118731,7.789681,18.63644,21.77789,17.15241,8.12026,-0.5406352,-5.31319,-5.737805,-4.316764,-4.668057,-9.115471,-17.19212,-25.92221,-31.62126,-32.05187,-27.62679,-21.01883,-15.55622,-13.47317,-15.04977,-18.9883,-23.55205,-27.58168,-30.75448,-33.109,-34.42706,-34.11978,-31.78797,-28.00078,-24.54706,-23.72119,-26.90954,-33.35093,-39.98661,-42.71214,-38.45748,-26.92712,-10.96919,4.692543,15.66586,19.80621,17.83907,12.49209,6.814107,2.743252,0.6820966,0.09536912,0.4852397,1.947108,4.927265,9.455674,14.54535,18.33507,19.00913,15.94229,10.2976,4.624393,1.626324,2.795353,7.69729,14.28495,20.01274,23.084,23.16286,21.26146,19.00756,17.78696,18.20867,20.04066,22.46844,24.42019,24.80438,22.69269,17.54756,9.514724,-0.3747357,-10.31121,-18.22813,-22.57082,-22.93294,-20.18204,-15.95351,-11.76952,-8.280485,-5.074087,-1.160786,4.168373,10.64414,16.92247,21.16257,21.94861,19.02451,13.43278,6.998108,1.469895,-2.199409,-4.081516,-4.950409,-5.672495,-6.694191,-7.909947,-8.934224,-9.548598,-9.994359,-10.89253,-12.80825,-15.72198,-18.76107,-20.43665,-19.35757,-15.0935,-8.702921,-2.548436,0.6466367,-0.8918912,-6.972265,-15.31931,-22.54145,-25.78126,-24.21238,-19.54145,-15.15229,-14.27804,-18.16394,-25.26952,-32.01072,-34.69938,-31.6136,-24.03448,-15.63543,-10.55142,-11.20825,-17.12473,-25.32427,-32.06314,-34.84718,-33.60896,-30.4644,-28.32512,-29.25272,-33.48627,-39.55875,-45.24237,-48.64016,-48.81682,-45.80759,-40.27928,-33.26111,-26.12232,-20.60843,-18.57619,-21.27463,-28.45265,-37.91149,-46.02607,-49.23858,-45.8586,-37.17018,-27.09481,-20.43009,-20.51322,-27.54549,-38.4897,-48.5998,-53.75275,-52.34148,-45.78844,-37.52931,-31.13473,-28.61833,-29.75484,-32.61031,-34.83785,-34.98,-33.13243,-30.72173,-29.5962,-30.88564,-34.14195,-37.14454,-36.5201,-29.04272,-13.18211,9.758002,35.54586,58.27381,72.62414,76.20454,70.77119,61.5508,54.811,54.80804,61.71997,71.7329,79.29823,80.31847,74.4425,65.13103,57.47321,55.09944,58.08297,63.11451,65.80206,63.60318,57.50092,51.34847,49.30425,53.03381,60.49724,67.12695,68.64883,63.74155,54.8392,46.60028,43.04967,45.24019,50.8756,56.03545,57.77059,55.84464,52.54017,50.79403,52.041,55.27819,57.96048,58.03296,55.60632,53.03878,53.31346,57.81691,65.08632,71.47005,73.35497,69.53171,62.12251,55.41476,53.29507,56.89648,63.93383,70.12681,71.78034,67.90863,60.64359,53.80112,50.61642,52.09825,56.90824,62.61333,67.30038,70.43846,72.53849,74.08454,74.70201,73.28323,69.0065,62.4336,55.75545,51.82554,52.50731,57.43413,64.07277,69.15598,70.6183,68.78794,66.04131,65.12249,67.2162,71.05592,73.69778,72.4856,66.95496,59.40323,53.67773,52.84722,57.14499,63.43627,66.57807,61.93066,47.653,25.57773,0.3202717,-22.77192,-39.67557,-48.78372,-50.73994,-47.44802,-41.02574,-33.26288,-25.64174,-19.54722,-16.23012,-16.39926,-19.72452,-24.71701,-29.25857,-31.60662,-31.31858,-29.50269,-28.17668,-29.05875,-32.50489,-37.25044,-41.14129,-42.43624,-40.88501,-37.9054,-35.71977,-35.96117,-38.59972,-41.87726,-43.33143,-41.32403,-36.15744,-30.07572,-26.10987,-26.4139,-31.06516,-38.03842,-44.3762,-47.86076,-48.19461,-46.99754,-46.64314,-48.67097,-52.75784,-56.89004,-58.61778,-56.61137,-51.53792,-45.70488,-41.68912,-40.80324,-42.35495,-44.16549,-44.00755,-41.06208,-36.47176,-32.64879,-31.77372,-34.42491,-39.18634,-43.46157,-44.96881,-42.98949,-38.6278,-33.98152,-30.8016,-29.50567,-29.13307,-28.20307,-25.86118,-22.55131,-19.79618,-19.25908,-21.70165,-26.48392,-31.86979,-35.89969,-37.28572,-35.84958,-32.3723,-28.09159,-24.20395,-21.61064,-20.86711,-22.15271,-25.1377,-28.84146,-31.72798,-32.19541,-29.34786,-23.63343,-16.89262,-11.64202,-9.8856,-12.10112,-17.0043,-22.27395,-25.82603,-26.88705,-26.21209,-25.33653,-25.35239,-26.01294,-25.75904,-22.68496,-15.85766,-6.179136,3.752992,10.73812,12.42365,8.348054,0.07587995,-9.55934,-17.64918,-22.25529,-22.91251,-20.52545,-16.85429,-13.84782,-13.01227,-14.92431,-18.99106,-23.58249,-26.6164,-26.4818,-22.93298,-17.46589,-12.83278,-11.79389,-15.66846,-23.47772,-32.22477,-38.25708,-39.01667,-34.23421,-25.90668,-17.10877,-10.36291,-6.523762,-4.780921,-3.655909,-2.258972,-0.9500585,-0.9879023,-3.460024,-8.269919,-13.91926,-18.27136,-19.80999,-18.55962,-16.04335,-14.28921,-14.51918,-16.37033,-18.14885,-17.95024,-14.92804,-9.902557,-4.936449,-2.150979,-2.516155,-5.335147,-8.68577,-10.50386,-9.646042,-6.348039,-1.917393,2.05275,4.439195,4.927875,3.871724,1.899268,-0.426661,-2.734388,-4.803236,-6.513071,-7.886733,-9.169711,-10.80237,-13.1879,-16.33136,-19.58438,-21.72351,-21.4214,-17.90951,-11.48497,-3.556353,3.823046,8.712662,9.960832,7.492293,2.136247,-4.833926,-12.15954,-18.84112,-24.13328,-27.43038,-28.2315,-26.28099,-21.81989,-15.76638,-9.637087,-5.141428,-3.563135,-5.182468,-9.037281,-13.19795,-15.52402,-14.61442,-10.51685,-4.804553,0.1122596,2.18696,0.8684512,-2.472014,-5.156867,-4.647692,-0.08730815,6.954629,13.0746,14.77703,10.45853,1.488323,-8.336578,-14.76684,-15.43438,-11.18178,-5.556508,-2.71296,-4.948153,-11.36154,-18.4679,-22.40083,-21.32487,-16.53845,-11.55616,-9.768084,-12.2045,-16.89056,-20.24656,-19.62523,-15.2828,-10.40158,-9.041687,-13.3068,-21.60909,-29.28704,-31.33296,-25.57029,-14.23192,-2.834662,3.059577,1.214314,-5.909906,-12.70537,-13.97036,-8.25203,1.140403,8.137593,7.706371,-0.925015,-13.64455,-23.85144,-26.39293,-20.6121,-10.62768,-2.715328,-1.452252,-7.040561,-15.4409,-21.16522,-20.90012,-15.63779,-9.94974,-8.860254,-14.29309,-23.35,-29.56151,-26.43464,-11.22193,13.30106,40.08569,61.35466,72.41689,73.65344,69.70141,66.49572,67.96468,74.23547,82.18607,87.76328,88.54737,85.03769,80.02811,76.64561,76.3636,78.217,79.62215,78.19697,73.38718,66.89981,61.70039,60.2428,63.02662,68.35135,73.37579,75.79061,75.07499,72.59264,70.5233,70.35241,71.89077,73.43027,72.91525,69.35295,63.54055,57.63115,53.81718,52.9794,54.18631,55.37886,54.80245,52.24537,49.24927,48.11445,50.32525,55.4207,61.0931,64.50626,64.03043,60.29056,55.81765,53.49043,54.71958,58.52025,62.0779,62.46724,58.47489,51.40664,44.41167,40.76591,42.17363,48.05269,56.10757,63.67155,68.91923,71.27692,71.02357,68.62997,64.48839,59.20159,54.0476,50.92641,51.46923,55.68865,61.12023,63.32448,57.85693,42.78265,20.25112,-3.996253,-23.16075,-32.67552,-32.3903,-26.35717,-20.32368,-18.41829,-21.02248,-25.07943,-26.57501,-23.55319,-17.70948,-13.50743,-15.36166,-24.66927,-38.5938,-51.41532,-57.66128,-55.13277,-46.0286,-35.54454,-28.86824,-28.39762,-32.78097,-38.18759,-40.86142,-39.3161,-34.90471,-30.59277,-28.88817,-30.29284,-33.1841,-35.04181,-34.11083,-30.40796,-25.52681,-21.4998,-19.55834,-19.58387,-20.50258,-21.23413,-21.48993,-21.89113,-23.40207,-26.52222,-30.812,-35.05918,-37.94944,-38.80172,-37.92096,-36.39185,-35.47359,-35.95627,-37.80604,-40.23024,-42.08534,-42.40794,-40.84826,-37.84745,-34.4868,-32.04973,-31.44293,-32.72171,-34.97377,-36.69673,-36.55557,-34.15134,-30.35453,-26.94397,-25.67684,-27.30142,-31.10848,-35.33904,-38.2353,-39.08932,-38.6011,-38.27527,-39.22596,-41.1876,-42.4571,-40.9081,-35.49333,-27.26103,-19.14476,-14.53253,-15.40559,-21.16383,-28.87973,-34.86835,-36.66319,-34.24691,-29.84788,-26.49788,-26.26099,-29.19058,-33.55125,-37.04325,-38.19156,-37.05407,-34.91603,-33.29676,-32.9618,-33.52473,-33.76295,-32.32438,-28.34563,-21.69836,-12.90097,-2.930689,6.901544,15.06609,20.09632,21.10536,18.32474,13.25194,8.118214,4.797688,3.744358,3.672881,2.328769,-1.994449,-9.103279,-16.64629,-21.26814,-20.58839,-14.81314,-6.918407,-1.168766,-0.7776229,-6.093438,-14.41225,-21.54035,-24.15876,-21.5637,-15.78063,-10.08481,-6.944221,-6.699542,-7.739643,-7.922052,-6.193244,-3.302691,-1.183302,-1.498699,-4.403264,-8.374756,-11.21166,-11.48098,-9.419652,-6.691214,-5.190808,-5.736092,-7.52185,-8.682452,-7.559864,-3.834918,1.187034,5.260883,6.376465,3.700805,-2.180956,-9.699141,-17.00006,-22.48148,-25.01855,-24.03825,-19.65893,-12.9051,-5.72736,-0.5256628,0.8326154,-1.943974,-7.143731,-11.6938,-12.69016,-9.00628,-1.990037,5.272146,9.773233,10.40782,8.654955,7.644701,10.15402,16.77873,25.44802,32.6055,35.31783,32.97663,27.52163,22.07651,18.90802,18.05293,17.49537,14.75917,8.844007,1.212633,-4.848103,-6.127653,-1.480187,7.323958,16.40691,21.76954,21.30599,15.73387,8.015919,1.711496,-0.7722757,0.8678591,5.030927,9.265635,11.51993,10.97188,8.16906,4.576219,1.83646,1.070508,2.435524,5.066282,7.432204,8.028697,6.166979,2.493095,-1.106107,-2.304507,0.4565518,6.971874,15.09225,21.58148,23.63692,20.27841,12.82487,4.185575,-2.631614,-5.932135,-5.891769,-4.027858,-2.025655,-0.7105532,0.2214967,1.660496,4.220329,7.710022,11.2823,14.07095,15.77151,16.6969,17.28182,17.46871,16.53947,13.62662,8.602397,2.683667,-1.793882,-2.445688,1.826032,10.05127,19.4859,26.85563,29.85806,28.10844,23.09659,17.31828,13.16442,12.14078,14.62905,20.02791,26.98627,33.63073,37.92721,38.34927,34.71857,28.72167,23.5098,22.23197,26.09452,33.11544,38.60142,37.47001,27.31204,10.38506,-6.914381,-17.16252,-16.04836,-5.165089,8.335571,15.25787,9.185606,-10.09476,-36.52401,-61.05032,-76.31612,-80.05124,-75.3739,-68.13233,-63.1683,-61.85163,-62.20959,-61.18886,-57.27047,-51.61431,-47.102,-46.16506,-49.07527,-53.92917,-58.2491,-60.94048,-63.12024,-67.20711,-74.97976,-86.06661,-97.99805,-107.7531,-113.5982,-115.7752,-115.5013,-113.0776,-106.7411,-93.44833,-71.36709,-42.40534,-12.75492,9.460573,18.41815,14.20944,3.426912,-3.997699,-0.09939565,16.70283,40.70673,62.10307,72.36673,68.71571,55.17318,39.89372,30.63801,31.17269,40.47923,54.67853,69.89854,84.00977,96.32545,106.0385,111.1316,109.017,98.6886,82.75466,67.52083,60.50082,66.53808,84.89829,109.2822,130.981,143.4017,145.297,140.8202,136.5165,137.2411,143.5522,152.0443,158.1678,159.4765,157.1875,155.1625,157.187,164.4703,174.9609,184.7437,190.3653,190.4592,185.7194,177.5444,166.6163,152.5526,134.8648,114.3404,93.61956,76.32561,65.24171,60.77737,60.82181,62.08703,61.96238,59.54187,55.13165,48.73553,38.8647,22.84503,-1.320123,-32.74491,-66.80521,-96.58984,-116.083,-123.2334,-120.9604,-115.3588,-112.1448,-113.535,-117.4857,-119.7034,-117.0178,-109.8555,-102.172,-98.90675,-102.6855,-111.9552,-121.7834,-126.7924,-124.3303,-115.8967,-106.0361,-99.55296,-98.88206,-103.1843,-109.4806,-114.792,-117.7641,-118.8269,-119.104,-119.1523,-118.5909,-116.826,-114.1324,-112.0175,-112.372,-115.9177,-121.1371,-124.682,-123.2212,-115.6224,-103.9845,-92.72347,-86.16473,-86.14437,-91.11649,-97.29408,-101.007,-100.7082,-97.38095,-93.27202,-90.02678,-87.64179,-84.95453,-81.14597,-76.96991,-74.5888,-76.00825,-81.25591,-87.78249,-91.77926,-90.67621,-85.08793,-78.65559,-75.60851,-77.50918,-81.43777,-81.11766,-70.63917,-48.59956,-19.98646,5.667573,19.0707,16.21988,0.7416226,-17.91393,-29.43256,-27.92347,-14.58323,3.582301,17.98122,23.00875,18.43004,8.562084,-0.7946804,-5.581473,-5.025124,-0.9978919,3.889499,7.965101,10.94733,13.2582,15.09613,16.15362,16.14539,15.51256,15.47523,17.14147,20.27285,22.76722,21.56805,14.70454,3.208987,-8.493478,-14.30424,-9.514338,6.519078,29.7158,53.12852,70.29568,78.19127,78.13645,74.31791,70.9873,70.10421,70.78518,70.64026,67.91734,62.9642,58.09933,56.11603,58.49985,64.53263,71.75741,77.34975,79.45212,77.68025,72.73728,65.66041,57.3689,48.75416,40.98958,35.49857,33.32095,34.2245,36.31594,36.71408,33.1419,25.53244,16.52416,10.28925,10.20392,16.70951,26.75157,35.28876,38.0745,34.05945,25.93161,18.42463,15.43652,17.74505,22.74949,26.3779,25.91899,21.95008,18.12006,18.92582,26.90706,41.04359,57.35258,71.26651,80.25187,85.018,88.61369,94.07948,102.2476,111.1093,117.1307,117.5904,112.3929,104.1758,96.69746,92.60892,92.07345,93.09827,93.25204,91.51796,88.97829,87.84689,89.55309,93.26528,95.99969,94.3866,87.00639,75.71221,64.89393,58.94008,59.3483,63.28747,64.64886,57.16873,37.93889,9.319041,-21.86495,-47.45458,-61.73663,-63.87604,-57.81225,-49.85851,-45.4394,-46.7352,-52.31021,-58.61171,-62.23588,-61.61258,-57.3181,-51.15292,-44.80566,-39.02455,-33.70483,-28.62838,-24.17432,-21.42645,-21.57733,-25.0583,-31.01346,-37.50721,-42.38251,-44.27262,-43.1913,-40.39417,-37.62284,-36.1717,-36.25794,-36.9735,-36.79361,-34.36181,-29.21709,-22.1574,-15.10401,-10.47036,-10.2121,-14.89536,-23.20034,-32.20212,-38.47992,-39.67208,-35.74403,-29.21802,-24.03457,-23.45342,-28.01958,-34.76914,-38.29898,-33.34318,-17.6006,6.702662,33.44448,55.20215,66.51418,66.13897,57.20604,45.33149,35.83296,31.57106,32.41427,36.2924,40.91338,44.99545,48.39917,51.36647,53.67659,54.44091,52.68488,48.19744,41.91634,35.47127,30.18272,26.26359,22.85879,18.92979,14.32571,10.18379,8.258018,9.587122,13.48224,17.68806,19.76622,18.81059,16.22086,14.7844,16.46887,20.34431,22.2019,16.47016,-0.4527533,-27.42241,-58.18674,-83.96835,-97.73087,-97.75406,-88.4244,-77.73804,-72.92953,-76.74465,-86.42625,-95.86457,-99.45985,-95.33736,-86.08838,-76.82528,-71.95279,-72.70815,-76.85363,-80.4424,-80.3194,-75.73846,-68.2428,-60.21585,-53.2975,-47.7839,-43.24696,-39.66531,-38.00706,-39.6939,-45.29364,-53.45481,-61.01143,-64.39138,-61.54055,-53.1581,-42.44569,-33.5055,-29.35906,-30.72479,-36.13688,-43.09906,-49.39238,-53.74674,-55.70243,-55.13488,-52.08611,-47.12892,-41.86461,-38.83071,-40.4391,-47.32352,-57.1474,-64.9044,-64.94623,-53.85982,-32.60344,-6.569791,16.65477,30.71738,33.28814,26.74284,16.49461,8.04844,4.481268,5.619573,9.061973,12.10626,13.27692,12.6489,11.10082,9.327224,7.446034,5.422615,3.806726,4.00503,7.674695,15.55795,26.59003,38.03019,46.69886,50.62399,50.07249,47.30109,45.17303,45.5191,48.24398,51.66425,53.74623,53.36147,50.76904,47.11741,43.4636,40.07269,36.48034,32.1815,27.34151,22.93325,20.17886,19.71913,21.1559,23.32155,25.07746,26.03554,26.6545,27.65981,29.27043,30.89658,31.61921,31.13205,30.39704,31.37691,35.8397,43.93658,53.52463,60.80641,62.03168,55.29145,41.36517,23.17493,4.29155,-12.514,-25.82951,-35.16164,-40.14338,-40.25692,-35.45004,-27.17574,-18.85773,-15.01584,-19.1939,-31.82061,-49.43812,-66.06065,-76.12521,-77.40496,-72.13491,-65.6153,-63.08068,-66.71918,-74.62882,-82.27735,-85.44874,-82.754,-76.15112,-69.27061,-64.82513,-62.93661,-61.514,-58.3347,-53.24415,-48.75579,-48.44206,-54.08918,-63.59577,-71.25406,-70.58008,-58.14233,-36.05021,-11.44236,6.924586,13.11372,6.960049,-6.102625,-18.13897,-22.8461,-18.36314,-7.336729,5.446661,16.13931,23.66815,29.37159,35.00534,40.72034,44.5242,43.63998,36.82734,26.02993,16.10528,12.60899,18.84994,33.93919,53.0014,69.48187,78.28883,78.08665,71.58716,63.81046,59.37861,60.31651,65.43052,71.41346,74.89926,74.28352,70.37171,65.63036,62.57355,62.23163,63.53726,63.93047,60.82197,53.10111,41.86458,29.95898,20.57174,15.62501,14.85764,16.11082,16.67113,14.901,11.19523,7.666323,6.704707,9.272751,14.0041,17.74978,17.33717,11.52834,1.965754,-7.551787,-13.11135,-12.85856,-7.979688,-1.871006,2.00842,2.262781,0.3180142,-0.6787989,1.886029,8.161837,15.53121,20.19767,19.68321,14.59985,8.470646,5.603994,8.30962,15.243,22.01702,23.81064,18.41177,7.782674,-2.89116,-8.171614,-5.579862,2.91249,12.04737,16.41007,13.62954,5.712995,-2.277296,-5.374722,-1.757049,6.1421,13.09275,14.1734,7.641854,-4.106322,-15.97061,-23.02218,-23.08914,-17.59882,-10.36107,-5.190953,-3.871127,-5.58597,-7.956747,-8.830243,-7.610393,-5.361433,-3.776919,-3.833529,-5.070519,-5.934578,-4.884149,-1.462083,3.37816,7.867782,10.4947,10.83336,9.631901,8.188296,7.507739,7.820073,8.715759,9.68852,10.60025,11.69145,13.16029,14.70576,15.49471,14.69396,12.23918,9.244224,7.612726,8.945406,13.3728,19.12022,23.23529,23.18849,18.43942,10.9766,4.387125,1.901122,4.526442,10.40327,15.81819,17.32218,13.7062,6.658721,-0.2890216,-3.87044,-2.954907,0.9466823,4.801536,6.034916,4.085346,0.5560668,-2.075479,-2.276033,-0.5456495,0.9760354,0.1250063,-3.564951,-8.262589,-10.86372,-9.042441,-2.991543,4.356451,8.881645,7.693036,0.8863335,-8.514982,-16.44286,-20.31622,-20.59214,-20.30927,-22.89728,-29.66312,-38.621,-45.48801,-46.27185,-39.8245,-28.71926,-17.86291,-11.69755,-11.74254,-16.0039,-20.559,-22.22534,-20.54445,-17.80905,-17.18625,-20.26722,-25.74935,-30.17023,-30.21657,-25.04137,-16.99669,-10.24096,-8.114267,-11.01775,-16.21282,-19.67319,-18.74826,-13.84193,-7.982826,-4.601908,-5.062687,-7.678056,-8.931694,-6.090175,0.6152675,7.828529,11.17739,8.318606,0.8621455,-6.242005,-7.624327,-0.9301648,11.45757,23.61579,29.54205,26.75205,17.74536,8.41321,4.401019,7.744153,15.89573,23.70118,26.95216,25.14178,21.58891,20.8608,25.23234,32.5943,37.31158,33.62035,19.47688,-1.589897,-21.86693,-33.35072,-31.88394,-19.15841,-1.532429,13.48881,20.971,20.4023,14.90662,8.674432,4.401458,2.25227,0.6856758,-1.755378,-5.082665,-7.828867,-8.204587,-5.484159,-0.5948376,4.456932,7.825151,8.811911,7.957789,6.312058,4.560461,2.720471,0.587456,-1.543795,-2.616683,-1.382141,2.535246,7.915954,12.27682,13.24124,10.11498,4.55091,-0.3002151,-1.734424,0.7066133,4.841125,7.241036,5.58477,0.4124381,-4.97678,-6.552048,-2.264151,6.340839,14.75536,18.10301,14.09069,4.431771,-6.20102,-13.04181,-14.0683,-10.97555,-7.674608,-7.347147,-10.05432,-12.54511,-10.44571,-1.410301,12.86741,27.17873,35.61839,34.96135,26.48429,15.11459,6.485683,3.780118,6.300469,10.52246,12.76271,11.60553,8.50657,6.311375,6.854607,9.403305,11.06729,8.90092,2.218167,-6.533823,-13.03661,-13.7445,-8.205276,0.4734458,7.354262,8.528729,3.332078,-5.423145,-13.25534,-16.66859,-15.00729,-10.47348,-6.480763,-5.51552,-7.845269,-11.7175,-14.67325,-14.96001,-12.15531,-6.824622,0.2318125,8.38295,16.89129,24.32548,28.415,26.84645,18.74181,5.874264,-7.407535,-15.88268,-16.06852,-8.293776,3.08943,11.67915,12.24659,3.477149,-11.28364,-25.70662,-33.65145,-32.12016,-22.45787,-9.299212,1.997994,7.954372,8.256337,5.236317,2.070885,0.8393934,1.496513,2.187217,0.5552401,-4.76915,-13.30319,-22.85253,-30.50761,-33.96616,-32.56139,-27.56606,-21.67213,-17.87756,-18.24319,-23.02603,-30.55915,-37.94355,-42.27427,-41.87174,-36.97137,-29.57829,-22.58016,-18.5661,-18.88602,-23.31154,-30.30956,-37.66464,-43.12173,-44.86981,-41.89815,-34.30678,-23.54344,-12.34032,-4.099563,-1.711284,-6.214329,-16.0104,-27.23864,-35.36648,-37.31276,-32.98978,-25.33934,-18.75034,-16.69316,-19.92656,-26.32526,-32.40771,-35.58365,-35.68161,-34.77831,-35.45724,-38.67773,-42.72571,-44.03938,-39.46267,-28.50119,-14.07695,-1.197526,5.721162,5.259151,-0.3489504,-6.686294,-9.813667,-8.452734,-4.384474,-0.9254649,-0.573136,-3.383757,-7.098684,-8.833769,-7.123234,-2.917069,1.115728,2.471452,0.5791659,-2.746083,-4.468861,-2.336841,3.60333,10.96329,16.46062,17.91316,15.52171,11.66944,9.423458,10.70293,15.21499,20.70965,24.2867,23.90911,19.28893,11.79106,3.609889,-3.206254,-7.391811,-8.619295,-7.336731,-4.52152,-1.441314,0.6375629,0.8539806,-0.8409077,-3.539521,-5.716819,-5.994994,-3.944218,-0.4060728,2.940449,4.572976,4.080417,2.447581,1.438678,2.44058,5.503975,9.223913,11.56127,11.09374,7.89846,3.51356,0.03191295,-1.064771,0.4085637,3.505549,6.946657,9.929391,12.39784,14.67055,16.82552,18.4038,18.71689,17.52878,15.5421,14.21864,14.9437,18.0682,22.51729,26.30893,27.70187,26.22609,22.90362,19.50436,17.35749,16.55128,16.08826,14.87077,12.78016,11.00785,11.31171,14.65419,20.18341,25.36388,27.32683,24.65956,18.49081,12.09425,9.152185,11.66767,18.76515,27.09823,32.61898,32.67575,27.25188,18.73405,10.4749,5.065874,3.283108,4.152519,5.887057,7.00905,7.021345,6.387879,6.028209,6.729134,8.779619,11.89033,15.29557,17.94197,18.75958,17.04846,12.90578,7.460448,2.646981,0.4508329,1.911022,6.423434,11.83373,15.39964,15.16716,11.00739,4.707325,-0.9522509,-3.603648,-2.392122,1.798379,7.003878,11.22791,13.24669,12.82752,10.46734,7.035169,3.612571,1.494334,2.053747,6.244643,13.88229,23.21463,31.29696,35.24052,33.74544,27.97742,21.10013,16.57644,16.20363,19.11923,22.4791,23.4361,21.14754,17.44518,15.64193,18.20183,24.81951,32.26413,36.20949,33.9328,26.13055,16.62385,10.08695,9.245799,13.3458,18.85986,21.91884,20.82429,16.9896,13.75395,13.96999,18.05779,23.83513,28.1451,29.03437,26.89475,23.7889,21.54717,20.1545,17.74221,12.28199,3.741272,-5.025582,-9.570238,-6.686771,3.084877,15.14184,23.18451,22.94357,14.90149,4.154434,-2.652014,-1.456705,6.633485,15.99338,19.98891,15.13851,3.299899,-9.462522,-16.55371,-14.7068,-5.641625,5.368301,12.91224,14.56425,11.79197,8.314522,7.246956,9.032199,11.44462,11.43199,7.346636,-0.006928895,-8.091922,-14.41326,-17.95509,-19.29397,-19.50143,-18.89596,-16.76105,-12.30344,-6.034128,-0.2973573,1.762813,-1.704861,-9.559431,-17.75165,-21.4426,-17.96236,-8.67768,1.589306,7.392705,6.01827,-0.7992621,-7.964671,-10.27001,-5.738282,3.095469,10.79079,12.45391,6.807668,-3.065033,-11.72557,-14.78197,-11.4998,-5.029641,-0.236549,-0.6353005,-6.390469,-14.52675,-21.0106,-23.22926,-21.29475,-17.52674,-14.69228,-14.28932,-15.93658,-18.04246,-19.06554,-18.4168,-16.49563,-14.07689,-11.69687,-9.54427,-7.828063,-7.138509,-8.331154,-11.90774,-17.37436,-23.1683,-27.35612,-28.68966,-27.27489,-24.34687,-21.30633,-18.75672,-16.31267,-13.36028,-10.15724,-8.29622,-9.950668,-16.24884,-25.91276,-35.31405,-40.22297,-38.3174,-30.82434,-22.06741,-17.00484,-18.22059,-24.31379,-30.81496,-33.11991,-29.55379,-22.52201,-16.91987,-16.80509,-22.53043,-30.29777,-34.50499,-31.40039,-21.64011,-10.03696,-2.618494,-2.888886,-9.715876,-18.19046,-22.85563,-21.16734,-14.95122,-8.98597,-7.750345,-12.52941,-20.74907,-27.85647,-30.37508,-28.05297,-23.74451,-21.25116,-22.70213,-27.26572,-31.97107,-33.92274,-32.28157,-28.64313,-25.64666,-24.907,-25.79746,-25.94378,-23.03804,-16.64377,-8.696998,-2.352969,-0.0004857193,-1.818702,-5.833374,-9.355516,-10.74283,-10.26787,-9.58207,-10.28569,-12.71281,-15.80223,-18.05764,-18.77884,-18.56591,-18.69724,-19.8779,-21.38591,-21.37816,-18.24972,-12.10124,-5.193465,-0.9136458,-1.807537,-7.92805,-16.5943,-23.7602,-26.14404,-22.81062,-15.29938,-6.384674,1.588997,7.689804,12.19725,15.61452,17.81765,18.05746,15.78223,11.54432,7.145974,4.750265,5.511554,8.722453,12.17975,13.61444,12.23907,9.317023,7.304715,8.115869,11.69699,15.92805,17.95747,16.08989,10.94584,5.109415,1.508405,1.634516,4.785777,8.778645,11.54616,12.45436,12.42772,12.88092,14.32832,15.7642,15.30893,11.65684,5.236207,-1.819441,-6.928958,-8.682543,-7.667045,-5.908166,-5.336858,-6.412168,-7.911934,-8.040364,-5.997255,-2.777116,-0.5133671,-0.7820671,-3.1313,-5.042498,-3.545732,2.528668,11.26972,18.44523,20.00406,14.75084,5.368793,-3.035065,-6.04583,-2.7259,3.796879,8.406548,7.438216,1.223704,-5.977851,-8.686761,-3.817778,7.159023,18.94709,25.59961,24.10621,16.10403,6.66452,1.030163,1.461457,6.205801,11.12385,12.72893,10.51413,7.022347,5.720484,8.262638,13.11397,16.528,15.20862,8.799758,0.4467916,-5.016809,-4.093158,3.141537,13.05197,20.68204,22.73082,19.34539,13.64869,9.457532,8.800435,10.88703,13.09703,13.15201,10.86194,8.216681,7.812371,10.79424,15.82688,19.84899,20.09992,15.99498,9.541581,4.015185,1.840752,3.167502,6.114039,8.445403,9.406834,10.31013,13.37786,19.65271,27.55664,33.33055,33.30592,26.59499,16.31565,8.275966,7.680946,15.81798,28.87343,39.82123,42.41758,34.9394,21.34362,9.040244,4.546029,9.630187,20.3096,29.33321,30.65045,23.13413,11.27513,2.425303,2.285976,11.40364,24.80122,34.9353,36.14079,27.85265,14.69507,3.48823,-0.9015857,1.70833,7.119274,9.764874,6.436627,-1.664768,-9.812752,-12.93859,-9.029163,-0.5419107,7.066889,8.76027,3.110255,-6.757987,-15.05941,-16.88489,-11.17221,-1.283102,7.122847,9.553069,5.325251,-2.194583,-7.807038,-7.6853,-1.563506,7.360016,14.59108,17.08438,14.81645,10.30722,6.597486,5.159776,5.157408,4.464241,1.615464,-2.770101,-6.155674,-5.7696,-0.6512183,7.384402,14.59807,17.50599,14.98644,8.926742,2.973519,0.1927715,1.161801,3.729015,4.576804,1.540039,-4.849967,-11.5997,-15.09669,-13.34708,-7.166294,0.4041876,6.013042,7.96706,6.998528,5.42205,5.351762,7.233928,9.67443,10.61493,8.985887,5.652692,2.974859,3.254339,7.10769,12.85633,17.36381,17.81957,13.37581,5.665263,-2.059329,-6.59765,-6.307168,-1.666004,5.240304,11.83684,16.08681,16.98263,14.49449,9.287847,2.490871,-4.446844,-9.986056,-12.95825,-13.12908,-11.48762,-9.901612,-10.14081,-12.74491,-16.45324,-18.68792,-16.95824,-10.42996,-0.695212,8.826912,14.61642,14.95529,10.88671,5.632304,2.768551,4.202371,9.11261,14.45325,16.71355,13.91469,6.727349,-1.871389,-8.153288,-9.521379,-5.727459,1.136235,7.756076,11.18052,10.08021,5.158311,-1.361869,-6.833359,-9.34255,-8.452525,-5.273284,-1.873645,-0.2930491,-1.56787,-5.20035,-9.342844,-11.66263,-10.52108,-5.895252,0.4544809,5.717196,7.338315,4.246685,-2.634888,-10.8523,-17.59109,-20.91372,-20.43719,-17.18149,-12.80687,-8.762099,-5.808728,-4.061691,-3.325508,-3.370064,-3.942519,-4.608517,-4.702448,-3.579981,-1.081755,2.146618,4.823297,5.72346,4.512646,2.13978,0.407211,0.8621279,3.661204,7.18137,8.757077,6.214218,-0.6865566,-9.828639,-17.69791,-21.25072,-19.62477,-14.66791,-9.931757,-8.68119,-12.05223,-18.40676,-24.23314,-26.06269,-22.32568,-14.16138,-4.820941,1.930329,3.533279,-0.3502375,-7.89981,-16.08865,-21.98357,-23.83079,-21.5813,-16.78702,-11.99033,-9.814097,-12.00833,-18.74186,-28.41994,-38.17995,-44.95539,-46.69447,-43.17974,-36.03002,-27.87349,-21.1284,-17.04128,-15.46264,-15.37601,-15.74522,-16.09035,-16.46383,-16.97231,-17.3386,-16.95089,-15.43832,-13.32696,-12.16316,-13.79559,-19.1254,-27.11834,-34.85723,-38.81942,-36.75604,-29.06455,-18.73969,-9.828269,-5.246608,-5.283184,-7.7138,-9.465405,-8.760266,-6.338017,-4.92539,-7.258062,-13.93759,-22.57724,-28.91141,-29.29113,-23.05146,-13.23367,-5.107362,-3.279088,-9.068989,-19.714,-29.88953,-34.66626,-32.18422,-24.50969,-16.23993,-11.73057,-12.59391,-16.8889,-20.38596,-19.08472,-11.49573,0.5804543,13.10745,21.98298,25.04921,22.8778,18.0557,13.55796,11.23034,11.20347,12.40905,13.69264,14.71722,16.07725,18.60942,22.43032,26.41273,28.53844,26.99716,21.40479,13.37903,6.030454,2.541239,4.546858,11.19878,19.46677,25.57164,26.82313,22.8891,15.82594,8.872428,4.696382,4.077205,5.742908,7.395661,7.266901,5.237882,2.845019,2.181678,4.396935,8.750758,12.84768,13.9477,10.57803,3.47396,-4.726805,-10.86064,-12.8771,-10.79502,-6.468612,-2.38495,-0.2635917,-0.2917327,-1.371456,-2.103879,-1.811764,-0.940564,-0.6433514,-1.890761,-4.730051,-8.167272,-10.70974,-11.1882,-9.345003,-5.881852,-2.032288,1.013528,2.493545,2.149443,0.1088028,-3.224973,-7.189889,-10.88064,-13.32144,-13.82895,-12.38446,-9.721659,-6.959759,-4.927549,-3.599932,-2.081664,0.7482734,5.281734,10.55784,14.48374,14.90954,10.97307,3.876127,-3.482676,-7.912116,-7.600993,-3.072967,3.166976,8.10434,9.933805,9.006175,7.46102,7.810808,11.3624,17.4223,23.71528,27.69522,27.92707,24.74409,19.89855,15.52923,13.11809,12.98116,14.42509,16.28515,17.4392,17.07104,14.7458,10.49403,4.984834,-0.3705534,-3.665944,-3.215552,1.506442,9.249784,17.20076,22.10573,21.81216,16.39167,8.172032,0.6042925,-3.415312,-2.833209,1.350068,6.955433,11.94796,15.35562,17.29868,18.29266,18.48642,17.47359,14.82022,10.84341,6.923568,4.938212,6.075631,9.829772,13.97646,15.72585,13.43,7.749433,1.435857,-2.256625,-1.601413,2.429395,6.672365,7.73139,4.199448,-2.275645,-7.822216,-8.631841,-3.321903,6.092326,15.24269,19.85862,18.14422,11.66246,4.242062,-0.3657283,-0.617206,2.172603,4.958129,5.059281,1.864154,-2.894918,-6.371299,-6.470506,-3.14219,1.668158,5.278725,5.865011,3.377833,-0.6940827,-4.416581,-6.541693,-6.942952,-6.192024,-4.741389,-2.425779,1.301426,6.589825,12.51844,17.16018,18.49002,15.62144,9.531288,2.706351,-2.168862,-3.708834,-2.555871,-0.8454731,-0.717417,-2.823439,-5.821556,-7.233354,-5.156792,0.2634309,6.60579,10.4232,9.273158,3.286277,-4.733132,-10.81089,-12.05644,-8.326834,-2.287182,2.191797,2.354978,-1.785571,-7.455643,-10.78678,-9.149452,-2.773001,5.297646,10.86707,10.89457,5.115718,-3.89676,-12.17808,-16.42224,-15.46784,-10.48063,-3.911602,2.000075,6.255257,9.151203,11.53954,13.93747,16.13287,17.48511,17.58657,16.70733,15.64519,15.08087,14.94988,14.35667,12.18577,8.027599,2.764369,-1.671402,-3.308894,-1.323084,3.377262,8.581681,12.00106,12.53244,10.7694,8.449514,7.222195,7.56724,8.58466,8.77358,7.232394,4.411388,1.846173,1.019733,2.138972,3.737129,3.490474,-0.1928795,-6.842052,-13.80649,-17.57766,-15.8317,-8.949363,-0.01411835,6.802779,8.554013,5.15034,-0.6781244,-5.067147,-5.321424,-1.437861,4.048734,7.737095,7.462909,3.515843,-1.736578,-5.488098,-6.273176,-4.721691,-2.837757,-2.347209,-3.280309,-3.790914,-1.387784,5.199689,14.75501,23.79792,28.26337,25.68591,16.6078,4.381299,-6.511036,-12.64536,-13.13536,-9.66408,-5.204421,-2.28916,-1.837807,-3.090349,-4.476699,-4.728261,-3.517837,-1.342118,1.092479,3.438788,5.814757,8.444172,11.19219,13.42491,14.34471,13.56723,11.49104,9.136261,7.514639,6.946389,6.818006,5.988706,3.607972,-0.2073579,-4.32355,-7.250956,-8.107243,-7.239166,-6.046787,-6.067544,-7.883415,-10.57655,-12.15033,-10.73004,-5.83214,1.102868,7.317576,10.20329,8.801098,4.451145,0.1680294,-0.9490299,2.597762,9.856302,17.87218,23.17155,23.45094,18.58004,10.43977,1.794506,-5.101981,-9.392941,-11.59363,-12.8255,-13.88242,-14.73807,-14.74728,-13.32928,-10.60985,-7.554919,-5.477577,-5.223022,-6.56022,-8.196702,-8.45301,-6.23083,-1.708609,3.656206,7.850742,9.377578,8.088159,5.320294,3.246266,3.761072,7.477487,13.34383,19.08142,22.22954,21.29418,16.4466,9.450101,2.858932,-1.120905,-1.571879,0.8217954,4.209789,6.516534,6.415563,3.861094,-0.05408745,-3.792517,-6.214751,-7.101396,-7.094395,-7.135231,-7.780102,-8.835938,-9.556185,-9.272427,-8.040792,-6.844236,-7.155963,-10.07289,-15.53672,-22.15065,-27.76637,-30.55089,-29.93302,-26.87666,-23.32627,-21.16243,-21.29043,-23.38,-26.3376,-29.1257,-31.34405,-33.19122,-34.90335,-36.16,-35.99981,-33.41869,-28.28551,-21.90122,-16.66865,-14.91132,-17.49311,-23.13309,-28.95546,-32.06364,-31.22819,-27.62838,-24.11974,-23.41645,-26.31098,-31.08298,-34.54721,-34.13023,-29.66534,-23.70264,-20.03224,-21.27598,-27.05424,-33.95413,-37.44208,-34.62547,-26.18018,-16.20589,-10.00767,-11.07802,-19.07273,-29.99371,-38.46457,-40.72306,-36.54261,-28.97201,-22.14385,-18.56679,-17.59998,-16.02713,-10.32455,0.8339312,15.4076,28.87741,36.64386,36.47814,29.59336,19.77579,11.1944,6.237112,4.607311,4.063536,2.182257,-2.015393,-7.525737,-12.09294,-13.60624,-11.23253,-5.656141,1.551513,8.860007,15.34518,20.61077,24.31173,25.82088,24.42317,19.95877,13.41172,6.887425,2.7933,2.603021,5.936955,10.58287,13.54389,12.57411,7.338622,-0.4580143,-8.026886,-12.95292,-14.30347,-12.79355,-10.00887,-7.2589,-4.810481,-1.955828,2.203062,7.828629,13.92858,18.73404,20.63153,19.04668,14.71813,9.207787,3.99348,-0.2491632,-3.71543,-6.879549,-9.69847,-11.2216,-9.974228,-4.955217,3.353194,12.66245,19.58831,21.14361,16.26257,6.522877,-4.385734,-12.23518,-14.10876,-9.612277,-0.875417,8.58881,15.53079,18.27252,17.09296,13.64259,9.849384,6.976597,5.295996,4.412708,3.882641,3.645747,3.996522,5.173093,6.923351,8.416616,8.61947,6.918222,3.573371,-0.3191181,-3.376387,-4.662759,-4.151561,-2.619582,-1.042099,0.1088969,1.190355,3.098209,6.538214,11.33951,16.3042,19.7552,20.48952,18.54787,15.27806,12.59241,11.82693,12.90218,14.33958,14.18344,11.30624,6.293845,1.317955,-1.007448,0.8364252,6.249064,12.64423,16.7317,16.25956,11.23968,3.960343,-2.224212,-4.635154,-2.564735,2.568313,8.217932,12.20647,13.81026,13.82508,13.65793,14.09455,14.57495,13.46394,9.166492,1.389284,-8.256639,-16.7343,-20.92124,-19.09403,-11.76021,-1.424204,8.540173,15.28393,17.46067,15.4116,10.64772,5.039615,0.1587645,-3.020698,-4.121928,-3.269962,-1.030193,1.655619,3.678184,4.168565,2.965728,0.8479771,-0.7142941,-0.2613782,2.838213,7.942683,13.38317,17.31625,18.70525,17.83437,16.02572,14.72454,14.53146,14.81905,14.19885,11.55278,6.945107,1.784497,-1.934397,-2.861628,-1.217327,1.224984,2.152015,0.1419479,-4.360011,-9.151595,-11.44938,-9.461393,-3.441046,4.396151,11.03428,14.2209,13.55,10.4961,7.465851,6.471755,8.189417,11.85532,15.93386,19.06136,20.69139,21.13768,21.11015,21.12395,21.16411,20.7629,19.36836,16.73238,13.08673,9.051287,5.373883,2.666162,1.245923,1.117738,2.051983,3.720477,5.83764,8.256692,10.95022,13.84167,16.54697,18.20183,17.59306,13.68269,6.355207,-3.039845,-11.80363,-16.83894,-16.10226,-9.81518,-0.6540924,7.380523,10.96011,9.234564,4.365984,0.3536994,0.702529,6.24209,14.41979,20.59557,20.69468,13.71245,2.57184,-7.256019,-10.6596,-5.698699,5.279246,16.8587,23.41771,22.02668,13.80428,3.076751,-5.065367,-7.384698,-3.889446,2.591003,8.189251,10.02082,7.370327,1.606122,-4.854157,-9.78126,-11.92202,-11.11938,-7.981952,-3.469244,1.382299,5.614684,8.51909,9.863814,10.0377,9.906354,10.33199,11.58607,13.05023,13.49479,11.84956,8.017601,3.175358,-0.7131888,-1.927825,0.05632416,4.310992,9.06972,12.81854,15.13917,16.74038,18.67118,21.27719,23.66247,24.08623,21.08168,14.56954,6.199756,-1.357191,-5.770403,-6.233078,-3.764021,-0.4864153,1.609702,1.63967,-0.01035831,-2.284442,-4.285981,-5.718159,-6.688141,-7.157946,-6.601121,-4.24999,0.1840303,5.878001,10.94993,13.3456,12.0927,8.087602,3.785462,1.827666,3.367774,7.136867,9.920562,8.284605,0.6084229,-11.75577,-24.91138,-34.24596,-36.67756,-32.11388,-23.37271,-14.67024,-9.53541,-9.242322,-12.50649,-16.47909,-18.42566,-17.19867,-13.80288,-10.83962,-11.15423,-16.3434,-25.80806,-36.78754,-45.39219,-48.22252,-43.87256,-33.63038,-20.98471,-10.11081,-4.018321,-3.278154,-5.993424,-9.044152,