Bandpass,0,0.28505,631.6228,-5140.2471,-7584.4395,-6278.5366,-2543.3252,1101.2676,2510.0076,1278.3284,-1129.2482,-2561.813,-1780.3717,695.71948,3067.8958,3648.8135,2106.2173,-341.89786,-1876.6105,-1427.5758,581.00323,2606.8113,3164.8247,1909.0363,-164.79347,-1504.8097,-1160.4895,549.12994,2322.7056,2868.0269,1843.6127,65.893715,-1136.8195,-914.88013,505.09619,2033.8074,2552.1296,1728.3055,224.22922,-832.25378,-691.21796,489.12112,1798.6958,2273.6506,1602.4851,324.3923,-602.50647,-519.88489,462.66501,1581.0627,2003.5153,1441.5118,337.7735,-487.81079,-452.41071,374.85727,1351.4603,1754.6958,1311.8597,379.13269,-345.82004,-347.44009,340.12927,1182.5657,1557.3893,1211.9043,430.98477,-194.86377,-214.29912,361.13748,1085.3077,1421.7802,1139.2244,467.30054,-90.188385,-133.7419,345.89835,978.42419,1300.1877,1095.1693,540.00037,56.503387,-7.2778697,372.86096,895.2619,1168.4048,1001.6677,535.93951,125.85275,70.817825,398.19653,854.83466,1104.0192,974.92902,579.9895,220.15155,156.59547,421.56848,804.95648,1018.7981,911.73401,574.32318,262.71585,204.07896,431.02313,764.9986,954.81635,862.85242,561.05017,270.30219,193.76527,369.927,651.65558,821.29565,752.39063,498.42038,247.05064,178.75197,336.43237,600.09894,780.23407,756.92487,562.0332,347.82843,270.50903,377.32455,578.94617,722.65283,707.72131,556.54657,391.6127,339.74442,437.40405,606.74902,717.20508,683.88416,529.06921,362.9548,300.66095,378.48477,530.46924,639.99835,625.93274,499.36868,351.16348,282.37524,330.67184,446.29916,532.7467,519.52142,412.5618,286.57709,227.50128,269.23611,371.06116,450.41879,444.79474,356.37296,247.70491,193.66936,226.5522,314.44131,387.1217,388.51996,316.44202,221.41536,167.47148,185.19812,251.51688,309.50629,311.78351,254.60884,178.27452,135.17944,150.5835,205.21864,251.54622,250.18167,198.75418,132.1972,95.375351,109.31418,156.22839,193.78763,187.16013,134.67593,68.417496,30.031227,40.170334,84.034088,123.00381,123.08318,79.01619,16.890772,-25.740742,-26.946434,5.0701752,39.792389,47.70282,21.368471,-20.904749,-50.583153,-51.192078,-30.552938,-14.233203,-25.674097,-68.128601,-121.78219,-157.9108,-159.42084,-132.74707,-102.76915,-94.896072,-117.52008,-157.25117,-189.6804,-197.22508,-181.00587,-158.70683,-150.89558,-166.45784,-197.80165,-228.71458,-248.24176,-259.75497,-278.37402,-318.84653,-383.13821,-457.1192,-518.93921,-553.10931,-560.24426,-555.69385,-558.34222,-577.73981,-608.57251,-635.88922,-646.75635,-639.70929,-625.43384,-618.74066,-628.11212,-650.45038,-674.4248,-689.35583,-692.71271,-690.74457,-692.21631,-700.47589,-710.22583,-711.64532,-698.7879,-675.77942,-655.79639,-653.06531,-673.30725,-709.39539,-745.4563,-766.79559,-768.96075,-759.88251,-753.81769,-761.40601,-782.64526,-807.37842,-822.63129,-821.54688,-807.83844,-793.008,-788.58173,-798.80951,-818.60376,-837.64575,-847.40637,-846.16284,-838.90497,-832.79242,-831.81189,-834.47339,-835.88031,-832.2569,-824.38116,-817.38452,-817.16077,-826.08081,-841.11145,-855.61749,-863.48682,-862.67157,-855.80316,-847.70038,-841.73627,-837.66833,-832.31696,-822.37872,-807.21075,-789.59003,-774.01154,-763.84906,-759.41821,-758.21631,-757.00989,-754.17566,-750.63855,-748.85431,-750.69556,-755.81378,-761.61536,-764.79242,-763.2804,-757.30676,-748.92908,-740.54541,-733.5141,-727.80817,-722.78625,-718.31891,-715.29535,-715.05304,-718.14032,-723.3739,-728.01166,-729.10876,-725.28851,-717.80469,-710.1413,-706.26788,-708.48322,-716.05823,-725.45496,-732.02759,-732.30322,-725.63739,-714.39697,-702.6109,-693.83008,-689.32446,-687.54407,-685.09241,-678.67706,-667.00317,-651.62274,-636.30658,-625.27863,-621.2309,-624.12073,-631.30609,-638.85754,-643.2998,-642.90161,-637.98138,-630.29486,-622.02863,-614.99805,-610.33905,-608.5683,-609.67249,-613.01245,-617.15759,-619.99249,-619.34387,-613.97717,-604.41455,-592.96069,-582.72095,-576.03955,-573.24286,-572.48193,-570.83557,-566.03088,-557.71143,-547.43951,-537.43256,-528.87347,-520.93262,-511.17767,-497.11676,-477.84549,-454.68695,-430.39185,-407.45322,-386.70325,-367.16742,-347.2699,-326.5126,-306.37811,-289.70673,-278.86591,-273.9234,-272.14044,-269.28397,-262.05243,-250.10153,-236.31895,-225.05292,-219.29669,-218.53406,-218.60225,-213.73453,-199.64336,-175.89429,-146.25258,-116.86408,-93.336853,-78.315506,-70.749245,-67.041084,-63.275478,-57.273346,-49.492077,-42.499531,-39.467678,-42.496906,-51.512474,-64.121902,-76.405403,-84.293747,-85.017647,-78.09333,-65.449677,-50.604622,-37.202057,-27.55113,-21.863262,-18.555914,-15.4159,-10.915833,-4.8881235,1.8138187,8.3487339,14.802839,22.244884,31.807388,43.448421,55.401028,64.92939,70.099808,71.435196,72.204338,76.860497,88.374344,106.07095,125.45829,140.38995,146.4352,143.46825,135.86171,130.08089,131.07999,139.65656,152.34256,163.83633,170.4156,172.19781,172.88899,177.26813,188.06155,204.18419,221.39973,234.90419,242.17007,244.31117,245.23241,249.21988,258.51602,272.29388,287.46722,300.62766,309.82816,315.21497,318.38116,321.12753,324.55664,329.00113,334.57791,341.70166,351.00018,362.63339,375.58401,387.61435,396.15698,399.71417,398.88245,396.25363,395.12198,397.7207,404.07291,412.20511,419.60849,425.00436,429.22659,434.582,443.0582,454.57559,466.54343,475.19055,477.9588,475.44666,471.53247,471.38718,478.45029,492.22467,508.36682,521.18152,527.08484,526.87805,525.29889,527.97137,537.5473,551.45532,562.78009,563.89978,550.77319,525.30182,494.33365,465.92578,445.16541,432.08319,422.82971,413.18817,402.0184,392.31314,389.14777,395.87033,411.08121,428.49652,439.98199,440.02625,428.99075,413.19186,401.77249,402.1994,416.93094,442.9682,474.22409,505.05515,532.84198,558.34021,584.01801,611.75647,641.45209,671.2381,698.88385,723.21539,744.54047,763.86493,781.56982,796.56842,806.61194,809.61713,805.20361,795.47052,784.48907,776.72992,775.23645,780.46631,790.32599,801.27844,809.87372,813.92145,812.81744,807.07483,797.55865,785.03387,770.33362,754.93585,741.33124,732.5874,731.01379,736.54871,745.9425,753.60474,754.10065,745.17053,729.52637,714.07074,706.5448,711.21191,726.02753,743.16718,752.94965,749.12469,732.47455,710.466,692.9408,686.2464,689.2757,693.86407,689.41998,669.09491,633.83453,591.92419,554.37964,529.02502,516.7934,512.2796,507.85858,498.53665,484.44727,469.65735,458.45587,451.90564,447.08984,439.50461,426.80664,411.1752,398.49634,394.77927,402.13837,417.04068,432.06509,440.14648,438.67343,430.92514,424.04379,424.89984,436.41376,456.43222,479.5199,500.21207,515.55634,525.51923,531.43323,533.97046,532.28766,524.96722,511.96378,495.97211,481.9996,475.17871,478.11011,489.41418,504.43832,517.70844,525.64014,527.91846,526.85626,525.32562,524.68256,523.98309,520.85242,513.28375,501.11612,486.25873,471.6272,459.5871,450.93225,444.95422,440.36575,436.28894,432.5679,429.24261,425.68292,420.15594,410.29578,394.28802,372.03293,345.4982,317.94992,292.44904,270.4549,251.30862,232.83319,212.64166,189.39111,163.34207,136.0605,109.59187,85.650925,65.218613,48.586559,35.609898,25.888868,18.782858,13.371813,8.5527992,3.3285222,-2.8531942,-9.9542885,-17.536543,-25.196316,-32.953175,-41.304646,-50.871288,-61.847095,-73.631416,-84.937485,-94.387215,-101.29389,-106.19006,-110.7731,-117.2374,-127.2811,-141.24222,-157.77621,-174.25771,-187.79532,-196.48692,-200.41273,-201.90051,-204.82494,-213.07884,-228.76096,-250.87949,-275.28854,-296.10391,-308.13684,-309.28851,-301.71939,-291.10712,-284.23895,-286.0672,-297.67902,-316.16769,-336.38077,-353.52155,-365.1976,-371.93903,-376.18048,-380.57455,-386.7514,-395.13696,-405.5972,-418.10022,-432.69873,-448.81921,-464.56232,-476.87656,-482.88657,-481.71442,-475.55072,-469.01276,-466.88998,-471.52612,-481.49548,-492.51721,-500.12372,-502.39706,-500.97891,-499.67709,-501.6264,-506.97833,-512.76337,-515.06702,-512.0166,-505.45404,-500.04315,-500.35242,-507.89859,-520.19958,-532.48578,-540.84698,-544.59784,-546.25201,-549.27484,-555.4129,-563.65961,-571.5849,-577.84857,-583.70056,-592.02466,-604.48199,-619.05042,-630.27008,-632.60016,-624.76587,-611.78815,-602.65784,-604.68073,-618.22577,-635.83099,-646.85406,-644.82635,-632.26733,-618.95941,-614.117,-617.62268,-617.07208,-594.18719,-537.86127,-455.79034,-376.17313,-336.28656,-362.9267,-455.60696,-582.94269,-695.60004,-749.56738,-727.18414,-644.36365,-540.30841,-456.03345,-414.11911,-410.72736,-423.12027,-426.68069,-410.41333,-381.87222,-359.74133,-360.02533,-385.18158,-422.81287,-453.93335,-464.80505,-454.63062,-434.69168,-420.27945,-421.129,-436.4039,-456.7916,-471.53897,-475.42178,-471.26932,-466.98801,-469.62817,-480.6174,-495.08487,-505.30988,-505.75128,-496.41718,-482.69147,-472.05692,-469.90857,-476.89774,-489.07306,-500.39044,-505.96878,-504.32895,-497.63254,-490.07361,-485.45212,-485.229,-488.00494,-490.61081,-490.19202,-486.15268,-480.84662,-478.50848,-482.85916,-494.63632,-510.49036,-524.06128,-528.8667,-521.55328,-503.74292,-481.41092,-462.07733,-451.30984,-450.37872,-456.19879,-463.36938,-467.02219,-464.90936,-457.81717,-448.44339,-439.67188,-433.26874,-429.52112,-427.67361,-426.65802,-425.68021,-424.52417,-423.63373,-423.99973,-426.76453,-432.48685,-440.30093,-447.51556,-450.21432,-444.92285,-430.65201,-410.1087,-389.08694,-374.01569,-368.8179,-372.84814,-381.20743,-387.39484,-386.81842,-379.11121,-367.87732,-358.06488,-352.62753,-350.56915,-347.58054,-338.84131,-322.21109,-299.81662,-277.06195,-259.6817,-250.61467,-248.52567,-248.76485,-246.11644,-237.7094,-224.4749,-210.43144,-200.29323,-196.7406,-198.78493,-202.04353,-200.79677,-190.88179,-172.10612,-149.04242,-129.69763,-122.42311,-132.23241,-158.10413,-192.61269,-224.34377,-242.30249,-240.48491,-220.5135,-190.9968,-163.77458,-148.74245,-149.69337,-163.14102,-180.59692,-193.04269,-195.27736,-187.98601,-176.64923,-168.08371,-166.57631,-171.65482,-178.5569,-180.98552,-174.58179,-159.26958,-139.31783,-121.19276,-110.38757,-108.85406,-114.26308,-121.33271,-124.42809,-120.0658,-108.11437,-91.242813,-73.10289,-56.343243,-41.532936,-27.469074,-12.517526,3.9328959,20.821102,35.945698,47.31115,54.43264,58.782352,63.090084,69.885216,80.094284,92.451073,104.01144,111.48483,112.72084,107.67699,98.48568,88.641403,81.662109,79.744987,82.941208,89.216965,95.466568,99.128113,99.683388,99.212212,101.5126,110.03283,125.64169,145.57895,164.44624,176.96042,181.01555,179.17854,177.48502,181.99591,195.07762,213.75891,231.40863,241.92967,243.95299,242.29742,245.51614,260.79178,289.23288,324.55786,356.16785,374.90613,378.08636,370.77045,362.57083,361.99451,371.79514,388.05258,403.27817,411.33923,411.01462,406.0946,402.31274,403.41983,409.08191,415.84134,420.20633,421.52505,422.58954,427.6055,439.04456,455.6398,472.94131,486.03802,492.5741,494.03812,494.543,498.03647,505.89224,516.4646,526.75812,534.88794,541.50665,549.15466,559.97906,573.42682,585.57977,590.7439,584.45209,566.13391,539.8941,512.94482,492.55252,483.09515,484.63342,493.4935,504.32666,512.51019,515.80219,514.70416,511.64606,509.56302,510.5484,515.09369,522.10602,529.57098,535.50116,538.73889,539.29156,538.11743,536.55176,535.71167,536.17395,537.99988,540.96222,544.73981,548.96002,553.15479,556.79755,559.49286,561.1889,562.17517,562.75433,562.78973,561.56,558.2439,552.88837,547.18652,544.2616,547.16718,556.74237,570.18292,581.58105,584.61139,576.08197,558.19897,537.85468,522.95563,517.7641,520.13336,522.60162,516.98828,499.8017,475.0036,452.1228,440.60373,443.79562,456.44864,467.54666,466.95459,451.828,428.69751,409.74283,405.40454,417.85968,439.42841,456.9566,459.49908,444.60324,419.40598,396.03595,384.32285,386.35898,396.10309,403.92548,402.92691,392.95782,379.9964,371.66187,372.07285,379.45633,387.88049,391.66675,389.33884,384.44604,382.8363,388.36914,400.04184,412.44739,419.1958,416.96536,407.51993,396.45648,389.6312,389.6553,394.66559,399.9545,401.1611,396.82245,388.70892,379.98398,372.69754,366.44873,359.08768,348.80182,335.93292,323.08734,313.34824,307.81027,304.24438,298.05225,285.19189,265.39954,243.66866,228.82356,229.63118,250.30351,287.66638,331.49899,368.02158,385.02704,376.42337,344.27658,297.59601,248.53732,207.77109,181.03787,168.28502,165.52739,168.25833,174.47652,185.61615,204.81982,233.54144,268.56305,301.47821,321.42123,319.9389,295.47552,254.88437,210.84251,176.27829,158.63922,156.99028,163.39474,167.66693,162.78656,148.06511,128.61253,111.82718,103.18972,103.7257,110.20625,117.4417,120.97908,118.6927,110.82441,99.117706,86.036446,74.550293,68.153061,70.394455,83.5942,107.25471,137.27466,166.83592,188.85371,198.80101,196.3335,184.77695,168.81667,151.8049,134.26529,114.33926,89.66655,59.361195,24.837418,-10.886738,-44.774185,-75.14286,-102.03157,-126.52206,-149.62204,-171.44215,-191.03967,-206.8215,-217.16232,-220.98872,-218.28761,-210.55498,-201.03485,-194.43073,-195.86398,-209.27913,-235.97185,-274.04147,-319.13272,-366.0621,-410.35745,-448.83572,-479.09238,-498.65359,-504.86307,-496.02219,-473.21722,-441.45709,-408.89719,-384.07132,-372.46024,-374.38965,-385.59485,-400.15948,-413.98853,-426.60361,-440.1593,-456.48538,-474.35452,-489.08359,-494.99811,-489.27127,-474.5567,-458.44687,-449.75116,-453.63022,-468.42856,-486.09918,-496.03101,-490.18225,-466.81918,-431.11282,-392.64279,-361.36404,-344.02014,-342.32367,-353.11633,-369.91092,-385.04126,-391.88608,-386.83801,-370.61649,-348.3475,-327.96735,-317.16544,-320.00391,-334.89557,-355.24377,-372.74551,-381.81772,-382.77667,-381.90854,-388.21463,-408.48456,-443.31876,-486.21814,-526.16718,-552.2818,-558.12231,-543.68073,-514.47205,-478.67746,-444.04205,-415.92172,-396.88385,-387.32452,-386.23193,-391.57278,-400.39734,-409.13644,-414.41983,-414.24719,-408.89694,-400.9429,-394.20081,-392.06067,-396.04663,-405.33691,-417.43088,-429.5188,-439.76279,-447.82492,-454.46692,-460.58282,-466.30307,-470.69366,-472.18036,-469.4028,-461.99374,-450.86597,-437.8945,-425.20544,-414.45102,-406.39474,-400.9205,-397.35239,-394.85934,-392.75366,-390.62497,-388.36307,-386.15085,-384.43985,-383.84595,-384.90179,-387.70508,-391.63974,-395.40012,-397.43295,-396.66013,-393.10696,-388.02069,-383.29877,-380.45767,-379.71609,-379.78741,-378.61325,-374.69485,-368.24594,-361.40094,-357.21875,-357.95389,-363.57877,-371.48511,-377.65225,-378.70071,-373.68057,-364.54672,-355.0192,-348.48206,-346.1568,-346.62366,-346.9436,-344.6535,-339.37537,-333.03357,-328.55936,-327.92001,-330.74384,-334.43188,-335.70618,-332.62192,-325.77237,-317.91605,-312.25677,-310.45706,-311.63327,-312.95572,-311.45914,-305.90927,-297.54974,-289.27737,-283.79474,-281.92352,-282.1348,-281.55884,-277.79745,-270.38095,-260.97913,-252.29881,-246.42603,-243.67522,-242.61821,-241.17241,-237.96881,-233.11276,-227.92528,-223.95013,-221.95438,-221.55548,-221.60629,-220.93704,-218.88765,-215.33199,-210.36737,-204.11028,-196.89629,-189.73358,-184.49586,-183.38997,-187.73674,-196.71815,-206.99997,-213.76567,-212.86644,-203.01892,-186.80653,-169.826,-158.34637,-156.68121,-165.60312,-182.48579,-202.87669,-222.49396,-238.60898,-250.34145,-258.10812,-262.8439,-265.47186,-266.67908,-266.75674,-265.34869,-261.28836,-252.92111,-239.09514,-220.43091,-199.98811,-182.53453,-172.40326,-170.9729,-175.36577,-179.4987,-177.25838,-166.11931,-148.97696,-132.83595,-124.85703,-127.9915,-138.85954,-149.28413,-150.68443,-138.74576,-115.58984,-88.225632,-64.388992,-48.464413,-40.002354,-35.534081,-32.169483,-30.330608,-33.670403,-46.259613,-69.079872,-98.390549,-127.26521,-149.39297,-162.62401,-169.83507,-176.46005,-186.28563,-198.32478,-206.92126,-205.12617,-189.22755,-161.52887,-129.57664,-102.28482,-85.332176,-78.58226,-76.926018,-73.793602,-65.042213,-50.909832,-35.132141,-22.126902,-14.18953,-10.33321,-7.1259084,-0.57856417,12.301424,33.095131,62.445206,100.49245,146.53879,198.05705,249.98131,295.30267,327.21939,341.96219,340.73145,329.48102,316.43594,308.54291,308.69498,315.14243,323.26373,328.57806,329.28445,327.01563,325.58838,328.63666,337.51474,350.55194,363.901,373.37991,376.3028,372.46082,363.94965,354.10773,346.15082,342.08908,342.27692,345.64026,350.37595,354.78625,357.91071,359.73062,360.92026,362.32516,364.4736,367.38876,370.77527,374.40695,378.40442,383.16702,388.97903,395.57513,402.03107,407.15298,410.18744,411.40045,412.0946,413.96466,418.13632,424.47989,431.65466,437.88162,441.96262,443.8934,444.69046,445.58701,447.18793,449.18585,450.81982,451.69089,452.26163,453.58371,456.39294,460.25308,463.49631,464.19699,461.6452,457.3089,454.47623,456.59067,465.2049,478.85379,493.66226,505.42407,511.90936,513.95074,514.61182,516.98315,522.06738,528.16589,532.17767,531.91644,527.84412,522.9953,521.09967,524.16388,531.1673,538.78522,543.65039,544.58783,543.2536,542.72235,545.02087,549.39417,552.61768,551.24139,544.2384,534.15192,525.79187,523.22021,527.0141,533.71973,537.9939,536.10645,528.48755,519.55804,514.86218,517.33807,525.20044,532.88989,534.5415,527.74097,515.12885,502.80096,496.5416,498.31393,505.22382,511.51846,512.21368,505.95798,495.36813,484.8287,477.42325,473.14029,469.50177,464.03476,456.75323,450.87393,451.26181,461.66095,482.53357,510.82224,541.58752,570.26343,594.04718,611.78546,622.93927,626.84943,623.11957,612.81,599.22009,587.10541,580.28345,578.95386,578.65369,572.00037,552.6485,519.30548,477.33969,436.78964,407.70667,395.39566,398.20367,408.98001,419.16479,423.02863,419.73245,412.42197,405.41815,401.53232,401.07187,402.70245,405.03326,407.50281,409.95712,411.52158,410.01407,402.72665,388.25714,368.07968,346.50827,328.70831,317.77957,312.69092,308.43417,298.43045,277.84348,245.93736,206.2556,164.72409,126.91342,95.955559,71.981552,52.958485,36.158634,19.472315,2.198128,-14.686574,-28.711189,-36.644245,-35.843925,-25.91226,-9.8037968,6.5895104,16.704386,16.524002,6.868041,-6.9938478,-18.683287,-25.264385,-30.05797,-41.445499,-67.796455,-111.36593,-165.15742,-215.30486,-248.16142,-258.0773,-250.99612,-241.30118,-243.5033,-263.74338,-296.39252,-327.91461,-345.53778,-345.16309,-333.42874,-322.68008,-322.27707,-332.08698,-342.53329,-341.1803,-321.45584,-287.69705,-253.16496,-232.34393,-232.56091,-250.26233,-274.05844,-292.15015,-299.05832,-297.42084,-294.26428,-294.96997,-299.47183,-303.25235,-301.97226,-295.84769,-290.12463,-291.00635,-299.93457,-310.61395,-311.45837,-292.39249,-251.78497,-198.95303,-150.43173,-122.17083,-122.32176,-148.67876,-191.66707,-240.28181,-286.91666,-328.41693,-363.73007,-390.93381,-406.505,-407.55423,-395.11652,-375.50525,-358.04178,-350.19885,-353.29758,-361.77591,-366.71988,-361.44916,-345.53296,-324.69708,-306.88654,-297.30536,-295.7811,-298.00504,-299.40677,-298.6554,-298.23993,-301.8696,-310.82858,-322.17734,-330.289,-330.69952,-323.48367,-313.63193,-308.01498,-310.95325,-321.42282,-333.80441,-341.62543,-341.70526,-335.90234,-329.40396,-326.9136,-329.48804,-334.19241,-336.664,-334.59979,-329.58575,-325.94098,-327.4306,-334.23291,-342.3725,-346.09415,-341.60989,-329.71277,-315.54382,-305.71588,-304.7037,-312.76187,-326.48291,-341.32172,-354.2449,-364.83185,-374.42679,-384.31989,-394.4584,-403.57059,-410.38965,-414.82831,-418.07895,-421.54474,-425.48697,-428.5379,-428.57413,-424.38211,-416.88489,-408.95969,-403.87283,-403.37253,-406.75458,-411.54538,-415.30362,-417.25192,-418.57968,-421.22076,-426.01721,-431.64063,-435.12875,-433.75757,-427.0094,-417.27542,-408.73959,-405.0744,-407.34583,-413.37881,-418.90558,-419.74008,-413.69217,-401.2374,-384.8197,-367.46527,-351.62677,-338.78326,-329.67059,-324.60852,-323.49243,-325.47748,-328.78955,-331.0965,-330.4491,-326.28607,-319.80496,-313.32983,-308.95364,-307.26279,-306.96628,-305.72226,-301.6991,-294.93573,-287.668,-283.40945,-285.30139,-294.63583,-310.28708,-329.21982,-347.66415,-362.30334,-370.99902,-372.97498,-368.68503,-359.61252,-348.04822,-336.69937,-328.00888,-323.30875,-322.20657,-322.64429,-321.77762,-317.34515,-308.84042,-297.83054,-287.20425,-279.7294,-276.6958,-277.36511,-279.48367,-280.52048,-278.9245,-274.74875,-269.39499,-264.72638,-262.08575,-261.71893,-262.80981,-263.99606,-264.03278,-262.28253,-258.85825,-254.42865,-249.81906,-245.59201,-241.78041,-237.89154,-233.19875,-227.20247,-220.02846,-212.51688,-205.89294,-201.1488,-198.4716,-197.07129,-195.54898,-192.61327,-187.71819,-181.23569,-174.08292,-167.09619,-160.61177,-154.54286,-148.84151,-143.90297,-140.47821,-139.04097,-139.04692,-138.73999,-135.88124,-129.12924,-119.21928,-109.02957,-102.21249,-100.99787,-104.43201,-108.22734,-106.52696,-94.745125,-71.93718,-41.362633,-8.9289293,19.574852,40.88702,55.056446,64.379311,71.377129,77.18293,81.279869,82.55455,80.74765,77.193169,74.302788,74.164764,77.240623,82.068237,86.189156,87.704872,86.474457,84.23008,83.605873,86.744141,94.3442,105.64633,119.19926,133.77501,148.78796,164.00273,178.86667,192.08357,201.87683,206.88472,207.13638,204.4048,201.54951,201.07269,203.6524,207.54672,209.3578,205.89587,196.19025,182.47656,169.42892,161.83484,161.84746,167.35056,172.53053,170.61401,157.48419,134.2467,107.22942,85.224701,75.323418,79.550934,94.138428,111.80849,125.73854,132.92044,135.04285,136.55791,141.31438,149.9626,159.75404,166.73726,168.76364,167.18889,166.05669,169.27132,177.66576,187.99907,194.66833,193.11551,182.75217,167.50116,153.59059,146.02101,145.96985,150.74594,156.19609,159.85495,162.68272,168.24989,179.9888,198.45407,220.5094,241.02881,255.96576,264.69681,270.0256,275.82178,283.88831,292.21283,295.87302,290.12054,273.70944,250.32872,227.16495,211.40952,206.77292,212.01227,222.1877,231.70702,237.23906,238.84708,238.95105,240.11073,243.23982,247.38612,251.03746,253.85655,257.50021,264.85379,278.1196,296.99115,318.12604,336.33813,346.89713,347.68463,340.0802,328.19141,316.93835,310.02133,308.72379,311.95062,317.25272,322.18967,325.37888,326.86462,327.80624,329.74335,333.78491,340.02768,347.40353,354.01196,357.83124,357.53757,353.08246,345.74164,337.58118,330.58069,325.84924,323.3255,322.08051,320.9877,319.32404,316.94434,313.99063,310.43481,305.87576,299.81744,292.27298,284.24026,277.60675,274.39059,275.69717,281.03378,288.47882,295.69217,301.19943,305.14786,309.00665,314.3298,321.32394,328.15939,331.57135,328.53,318.07108,302.20941,285.33356,272.3367,266.46564,268.0311,274.61566,282.55389,288.76663,291.91986,292.3894,291.29605,289.4183,286.75385,282.93924,278.06696,273.13168,269.62561,268.4769,269.10471,269.39694,266.83453,260.15826,250.48302,240.99939,235.27361,235.11247,239.34642,244.38683,246.30893,243.20227,236.30185,229.15616,225.34521,226.21257,230.07487,233.40237,233.15868,228.72435,222.13205,216.51076,213.8813,213.89729,214.45929,213.78357,212.41437,213.60347,221.5444,238.43947,262.2981,287.04593,305.1362,311.26834,305.07083,291.18362,276.71857,267.60693,265.91,269.46887,273.80414,274.9025,271.20395,263.83154,255.30414,247.82928,242.29044,238.34178,235.19205,232.28964,229.40955,226.2662,222.20944,216.45592,208.7838,200.11903,192.40381,187.62936,186.58133,188.16843,189.89864,189.30612,185.44351,179.44229,173.72453,170.34634,169.55626,169.53754,167.53004,161.61398,151.99298,140.93962,131.44067,125.4164,122.64242,121.01879,117.95532,111.95257,103.39716,94.152664,86.31411,80.97551,77.757271,75.270882,72.088387,67.532364,61.837986,55.731838,49.853718,44.456493,39.505127,34.938122,30.747541,26.754089,22.302795,16.27632,7.6349711,-3.7397742,-16.475513,-27.952309,-35.429958,-37.510757,-35.055458,-30.899462,-28.4184,-29.735321,-34.647469,-40.953007,-45.995934,-48.463356,-49.279816,-50.997139,-56.038723,-64.913307,-75.569748,-84.371536,-88.1577,-86.166245,-80.661079,-75.879616,-75.911743,-82.718231,-95.351326,-110.68293,-125.07747,-135.99921,-142.74164,-146.10887,-147.50917,-148.1458,-148.73535,-149.70255,-151.46759,-154.47459,-158.92691,-164.51022,-170.43063,-175.84084,-180.38098,-184.41484,-188.73158,-193.88243,-199.62794,-204.93903,-208.62163,-210.17688,-210.30182,-210.64276,-212.91116,-217.91068,-225.10234,-232.98325,-240.01814,-245.50645,-249.83505,-254.00179,-258.78973,-264.18515,-269.42786,-273.62015,-276.43307,-278.40125,-280.6095,-284.00598,-288.82159,-294.47253,-299.96747,-304.49814,-307.80588,-310.12485,-311.82877,-313.10638,-313.92032,-314.24432,-314.33643,-314.77878,-316.21207,-318.95154,-322.78036,-327.08765,-331.25095,-334.97003,-338.29791,-341.36093,-344.02332,-345.81589,-346.25186,-345.3291,-343.8186,-343.03619,-344.14136,-347.37399,-351.74863,-355.48248,-356.97028,-355.74628,-352.84137,-350.28653,-350.02341,-352.83893,-357.92761,-363.32129,-366.93729,-367.66763,-365.93524,-363.44043,-362.23672,-363.59103,-367.17285,-370.96887,-372.01547,-367.69321,-357.05862,-341.60413,-325.00735,-311.84366,-305.74173,-307.81982,-316.2034,-326.94202,-335.90909,-340.69421,-341.45453,-340.26828,-339.42432,-339.74344,-340.01846,-337.94415,-331.92703,-322.55698,-312.71588,-306.18597,-305.6254,-311.21371,-320.82568,-331.56122,-341.54538,-350.75677,-360.35867,-371.09503,-381.99866,-390.44077,-393.57788,-390.20486,-381.67465,-371.1554,-361.66568,-354.21591,-347.36002,-338.50604,-326.11945,-311.3158,-297.73895,-289.76868,-290.20013,-298.83566,-312.75336,-327.89069,-340.80759,-349.58896,-353.64896,-353.04492,-348.13409,-339.87473,-330.27737,-322.16727,-317.8931,-317.59262,-318.30966,-314.99518,-303.2352,-282.21307,-255.93365,-231.60909,-215.8806,-211.07172,-213.84793,-217.25803,-214.99693,-205.25557,-191.72266,-181.09444,-178.67876,-184.8886,-194.8183,-201.09761,-198.1571,-185.24861,-166.5074,-148.30391,-135.77315,-130.67976,-131.62096,-135.90424,-141.44763,-147.36098,-153.11879,-157.41493,-157.99776,-152.89676,-142.18814,-128.81177,-117.48125,-112.07554,-113.09125,-116.87607,-117.30377,-108.99001,-90.154732,-63.480915,-34.615093,-9.4013729,8.428318,17.926197,20.026354,16.15011,7.5004115,-4.57972,-17.827053,-28.918228,-34.517574,-33.020535,-25.75519,-16.579052,-9.8422613,-7.8674231,-9.5572977,-11.102205,-8.4129534,0.24434845,13.092366,25.893524,34.50082,37.24844,35.667786,33.148075,32.499275,34.045795,35.46302,33.396999,25.766827,13.278368,-0.75043178,-12.061579,-17.563187,-16.657091,-11.166157,-4.1026773,1.8932848,5.6087408,7.4207978,8.7237434,11.069977,15.434758,21.803785,29.114632,35.542465,39.122921,38.611767,34.281651,28.202845,23.659292,23.768204,29.898235,40.762436,52.82555,61.966415,65.566544,63.857563,59.725651,57.058609,58.603016,64.59671,72.957443,80.823158,86.400314,89.91581,93.106438,97.676872,103.85881,110.11953,114.26375,115.17489,113.95187,113.54959,117.03176,125.51202,137.15202,147.9608,153.99683,153.64532,148.55502,142.6442,139.8029,141.73164,147.23962,153.35345,157.41019,158.70648,158.64453,159.39246,162.11235,166.09068,169.4247,170.75832,170.73323,171.9543,177.298,187.63763,200.61925,211.55185,216.08215,213.03218,205.49918,199.31674,199.66943,207.92615,220.73856,232.07411,236.97694,234.69028,229.12273,226.31706,230.51317,241.33739,253.95509,262.1329,262.27457,255.84961,248.63513,247.20755,254.84904,269.39218,284.30258,292.31052,289.39508,276.81937,260.18954,246.30833,239.77814,241.22864,247.87202,255.66563,261.57681,264.6817,265.78497,266.20047,266.69037,267.19791,267.31415,266.91666,266.42752,266.54587,267.75052,270.00284,272.85519,275.81656,278.63736,281.28998,283.7067,285.5498,286.24976,285.31326,282.66849,278.78296,274.46802,270.52545,267.48816,265.59692,264.94214,265.57477,267.45508,270.29507,273.48257,276.22092,277.82556,277.9613,276.64151,274.0304,270.29807,265.75986,261.2558,258.39688,259.24332,265.31793,276.42303,290.0835,302.23428,309.02722,308.81271,303.06335,295.54837,290.16351,288.7453,290.27097,291.94635,291.38635,288.32141,284.59497,282.48026,282.62582,283.28821,281.58701,275.95032,267.86636,261.38684,260.42126,265.61304,273.16608,276.81213,271.87634,258.68179,242.69406,230.9433,227.00661,228.22078,227.61522,219.86258,207.39706,202.03996,219.87241,271.44452,352.94876,444.23428,515.98938,543.02454,516.64014,449.13177,367.71298,301.0903,266.03677,261.13324,270.53375,274.83823,262.38269,234.61087,203.1946,181.58498,176.62418,185.16106,197.04842,201.91823,195.19342,179.85641,163.54008,153.40213,152.21111,157.76286,165.31915,170.91978,173.28166,173.37643,172.53827,170.82324,166.86609,159.16309,147.61462,134.05049,121.32225,111.66049,105.51233,101.66164,98.448082,95.107651,92.225098,91.004471,91.968712,94.114662,95.196121,92.963806,86.490868,76.656654,65.474434,54.776016,45.207382,36.241989,27.166876,18.280968,11.36639,8.9736748,12.874642,22.632626,35.230785,46.092106,51.010418,47.986641,38.026749,24.537426,11.693536,2.6348512,-1.6484299,-2.3074822,-1.6549473,-1.808676,-3.6620328,-6.6547608,-9.3852234,-10.685043,-10.549888,-10.392225,-12.426902,-18.464657,-28.749243,-41.51421,-53.600422,-61.899338,-64.888145,-63.405296,-60.194279,-58.436283,-60.091835,-65.001297,-71.239914,-76.456299,-79.32238,-80.189194,-80.600609,-82.09819,-85.212204,-89.350662,-93.587723,-97.635139,-102.09633,-107.64383,-113.66712,-117.54471,-115.46906,-104.73517,-86.225319,-65.33445,-50.257324,-48.118275,-60.929741,-83.799561,-106.7473,-119.4622,-116.52921,-100.21533,-79.191254,-63.861183,-60.919601,-70.172478,-85.293045,-97.867828,-102.22845,-98.261673,-90.761154,-86.021225,-87.941956,-96.000824,-106.1068,-113.5134,-115.80415,-114.12904,-112.13873,-113.53197,-119.86707,-129.91238,-140.6976,-149.37154,-154.63365,-156.99051,-157.95158,-158.8981,-160.373,-162.0697,-163.26834,-163.27441,-161.61507,-158.08485,-152.86946,-146.80171,-141.50653,-139.0946,-141.32317,-148.59874,-159.47365,-171.10126,-180.52599,-186.0871,-188.06662,-188.17046,-188.21065,-188.90842,-189.64326,-189.28053,-187.40594,-184.97859,-183.83817,-185.37784,-189.37451,-193.92473,-196.65607,-196.42094,-194.24216,-192.74101,-194.34154,-199.46977,-206.05319,-210.76787,-211.24713,-207.73419,-202.98518,-200.42168,-201.78363,-205.94386,-209.79626,-210.69548,-208.79866,-207.62891,-212.31264,-226.48802,-249.80833,-277.63809,-303.17853,-320.75671,-328.3475,-327.96286,-323.91608,-320.22375,-318.75485,-319.04562,-319.52298,-319.04593,-317.68344,-316.38214,-316.02396,-316.72476,-317.88647,-318.83157,-319.37875,-319.82318,-320.33856,-320.36276,-318.59979,-313.80817,-305.88611,-296.43509,-288.25528,-283.94534,-284.43161,-288.37494,-292.88248,-295.13226,-293.93933,-290.33911,-286.87866,-286.0939,-289.09088,-295.01843,-301.6315,-306.51718,-308.24857,-306.88577,-303.68137,-300.28015,-297.89017,-296.81198,-296.46536,-295.81247,-293.94083,-290.5419,-286.07886,-281.55637,-277.97427,-275.72766,-274.30161,-272.51025,-269.23624,-264.28058,-258.76767,-254.72839,-253.96504,-256.80792,-261.55762,-265.08688,-264.39767,-258.29599,-248.18922,-237.47055,-229.78038,-227.11705,-228.87144,-232.30901,-234.16464,-232.388,-227.05939,-220.06197,-213.85522,-210.1561,-209.25331,-210.17744,-211.41481,-211.63281,-210.06209,-206.53883,-201.43494,-195.63953,-190.51425,-187.59467,-187.94188,-191.3904,-196.20375,-199.55815,-198.80144,-192.86981,-183.00359,-172.22461,-163.77007,-159.36028,-158.33421,-158.18103,-156.13089,-150.81177,-142.96642,-134.85605,-128.82405,-125.98062,-125.79549,-126.7036,-127.15054,-126.30341,-124.03213,-120.40172,-115.28875,-108.5666,-100.72398,-93.290497,-88.458809,-87.88385,-91.367096,-96.433777,-99.355583,-97.212547,-89.765038,-79.857285,-71.913246,-69.320808,-72.295227,-77.598717,-80.350113,-76.820824,-66.473671,-52.001968,-37.450226,-25.747875,-17.326931,-10.677851,-4.3058057,1.4629272,4.275702,1.4517539,-7.5379224,-19.625269,-28.994827,-30.006161,-20.525055,-3.5748124,13.868423,24.405064,24.106422,14.558486,1.9187937,-6.4226513,-5.6548033,4.2450347,18.946518,32.348763,39.717018,39.695126,34.37112,27.736006,23.635082,24.304066,29.981918,39.389057,50.513397,61.263176,69.901077,75.40242,77.815987,78.452187,79.583534,83.52037,91.364502,102.12267,112.84398,119.93777,121.09212,116.72469,110.02943,105.43349,106.23389,112.7498,122.11477,129.91179,132.75748,130.33122,125.6259,123.22734,126.60515,136.00841,148.21571,158.29738,162.35193,159.61986,152.7719,146.28189,143.91901,146.86038,153.45934,160.64282,165.93034,168.78226,170.52586,173.08484,177.48671,183.1745,188.51108,192.01387,193.38281,193.59492,194.05196,195.4615,197.30878,198.32834,197.63609,195.68622,194.3163,195.78032,201.37671,210.57358,221.20407,230.6001,236.93666,239.97575,240.84605,241.13924,241.97871,243.61218,245.61237,247.34471,248.27083,247.94453,245.92194,241.92387,236.32762,230.64671,227.45392,229.45599,238.02158,251.98505,267.57162,279.72186,284.25479,279.7532,268.16019,253.80402,241.44814,234.44019,233.83261,238.66249,246.9019,256.36447,265.14972,271.715,274.94748,274.46567,270.9754,266.24203,262.4046,260.86572,261.44751,262.48199,261.93597,258.91547,254.51865,251.35278,251.92058,256.9136,264.60089,271.8078,275.88235,276.31683,274.87888,274.12845,275.35669,277.45135,277.59335,273.40033,265.04456,255.77585,250.29601,251.9012,260.22159,271.09726,278.7865,279.19336,272.13086,261.25385,251.78424,247.51825,248.96606,253.63332,258.02817,259.93237,259.47134,258.47064,258.77621,260.81894,263.37112,264.49973,262.89169,258.58698,252.71933,246.64673,241.22989,236.75304,233.34163,231.29236,230.85751,231.61517,232.08405,230.20453,224.65427,216.16479,207.73924,203.25928,205.10791,212.31148,220.61246,224.73499,221.60614,212.47629,202.40971,197.25056,199.87915,208.18227,216.17705,217.7133,210.44212,197.45638,185.44698,180.47177,184.04562,192.12094,197.7,195.44878,185.339,172.91139,165.90619,169.34735,182.19064,197.67439,207.18057,205.21346,192.44099,175.01007,160.69894,154.38794,155.62021,159.57101,160.54596,155.61998,146.13048,136.291,130.10597,128.77419,130.26849,131.18373,129.39104,125.55866,122.48663,122.78798,126.62846,131.19902,132.37967,127.50965,117.3623,105.91055,97.930054,95.955948,98.588997,101.31044,99.347206,90.784378,77.933655,66.056656,60.21796,62.223404,69.541359,76.852249,79.23233,74.986763,66.41404,58.111633,53.9655,54.740921,57.750957,58.730865,54.663902,45.745388,35.260677,27.487616,24.965994,26.848133,29.349901,28.019709,20.439106,7.7302165,-6.0160642,-16.027294,-19.492708,-17.03359,-12.19986,-9.3525486,-11.198526,-17.383108,-24.879345,-29.861507,-29.934868,-25.459171,-19.284269,-15.140242,-15.650238,-21.070219,-29.377295,-37.542847,-43.203308,-45.804916,-46.681591,-48.155273,-52.253139,-59.751335,-69.97187,-81.295555,-91.993759,-100.90989,-107.71519,-112.75543,-116.70025,-120.21952,-123.79079,-127.61998,-131.62241,-135.46138,-138.68608,-140.98041,-142.42691,-143.60957,-145.41522,-148.5724,-153.17247,-158.49768,-163.3365,-166.65936,-168.25999,-168.9301,-170.00089,-172.49171,-176.39731,-180.59717,-183.49474,-184.01715,-182.34937,-179.92377,-178.6553,-179.89743,-183.77066,-189.25795,-194.94618,-199.87178,-203.8952,-207.401,-210.63069,-213.23268,-214.44315,-213.80624,-211.87195,-210.2364,-210.71518,-214.09129,-219.29877,-223.74532,-224.77646,-221.48128,-215.66791,-211.23152,-212.08601,-219.79645,-232.35591,-244.97928,-252.59445,-252.65309,-246.59988,-239.0838,-235.32547,-238.1804,-246.64212,-256.66287,-263.75293,-265.72095,-263.84247,-261.74356,-262.75073,-267.45401,-273.1153,-275.37866,-271.23434,-261.32446,-250.02464,-243.11073,-244.36783,-253.23137,-264.97571,-273.41248,-274.49527,-268.6358,-260.31012,-255.2009,-256.64206,-263.55188,-271.09888,-273.64078,-268.08957,-255.64342,-240.90402,-229.04607,-222.87582,-221.58112,-221.81064,-220.21382,-215.70586,-210.02008,-206.31911,-206.92209,-211.71991,-218.29643,-223.57321,-225.78159,-225.40886,-224.53236,-225.08284,-227.29486,-229.4335,-228.98555,-224.49899,-216.82669,-208.93579,-204.3837,-205.39447,-211.67348,-220.58849,-228.50658,-232.45728,-231.2422,-225.56667,-217.36836,-208.86694,-201.81694,-197.15553,-194.97403,-194.6741,-195.25433,-195.73648,-195.66159,-195.42822,-196.19031,-199.22545,-205.04552,-212.79939,-220.44295,-225.70552,-227.32007,-225.72353,-222.70503,-220.16399,-218.77542,-217.49338,-214.29851,-207.74477,-198.25847,-188.24135,-180.80215,-177.882,-179.00168,-181.49361,-182.11423,-179.00621,-172.73418,-165.72795,-160.53069,-158.04002,-156.92183,-154.5724,-148.97038,-140.18158,-130.53871,-123.40258,-121.31134,-124.65118,-131.56766,-139.02292,-144.25626,-145.81992,-143.79546,-139.36072,-134.16447,-129.84076,-127.67944,-128.29401,-131.26137,-134.9857,-137.13153,-135.68547,-130.18404,-122.30919,-115.25889,-112.03207,-113.56721,-117.94246,-121.29986,-120.06611,-113.13513,-102.59972,-92.507866,-86.410789,-85.297562,-87.273384,-89.164688,-88.90789,-87.026199,-86.126755,-88.745743,-95.069321,-102.21052,-105.6896,-102.23902,-92.082474,-79.111694,-68.738014,-64.729591,-67.026077,-71.893944,-74.279228,-70.830772,-61.716076,-50.212963,-40.523079,-35.322388,-34.575222,-36.160385,-37.62233,-37.709419,-36.686394,-35.398361,-33.978821,-31.293736,-25.606123,-16.001606,-3.5255744,8.8530407,17.550236,20.200315,16.92576,10.319595,4.206831,1.9354891,5.1155586,13.336187,24.768513,37.119385,48.376904,57.103157,62.403324,63.864529,61.647972,56.668133,50.625023,45.692589,43.876236,46.28056,52.625828,61.268379,69.767509,75.811455,78.156952,77.204941,74.939331,74.178452,77.376846,85.458878,97.23597,109.76109,119.55061,124.14152,123.21857,118.71501,113.81486,111.38547,112.68722,117.0357,122.5187,127.25283,130.38464,132.27739,133.89719,135.93776,138.33543,140.47942,141.86987,142.64281,143.5007,145.08269,147.29019,149.17996,149.63585,148.41104,146.75186,147.00044,151.24821,159.83421,170.72162,180.32056,185.40474,184.99602,181.0052,177.13757,176.66177,180.40884,186.27684,190.59807,190.53833,186.0162,179.90257,176.33817,178.20322,185.32478,194.54753,201.62079,203.71242,200.98491,196.28546,193.2106,193.81831,197.44212,201.31067,202.50339,199.93999,195.12747,191.23175,191.12018,195.64581,203.2236,210.87976,216.02119,217.7849,217.19243,216.16478,216.17065,217.42314,219.06805,220.08426,220.16209,219.92343,220.38441,222.12552,224.81622,227.43858,229.00957,229.23404,228.5928,227.81778,227.18845,226.23056,224.10484,220.4415,216.01105,212.68121,212.57857,216.91528,225.19241,235.27289,244.2888,249.86394,250.99886,248.23927,243.19667,237.80956,233.73485,232.0242,232.99857,236.18866,240.35669,243.76457,244.80719,242.84805,238.79367,234.89923,233.66451,236.27344,241.47501,245.71704,244.69714,235.61896,218.91011,198.3452,179.39133,166.63203,161.70171,162.87375,166.46857,169.16595,169.80814,169.65761,171.08604,175.64995,182.84209,190.29576,195.22849,196.1055,193.40564,189.02817,184.82368,181.32382,177.58035,172.22662,164.98709,157.50012,152.73822,153.24913,159.27832,168.01161,174.5519,174.20598,164.84587,148.03947,128.33926,111.15302,100.35757,96.85685,98.654671,102.16221,103.89667,101.7373,95.355995,85.964211,75.757217,67.324898,63.042671,64.357918,71.064224,80.943893,90.234093,95.034828,93.15799,85.432114,75.555817,68.322456,67.04361,71.629402,78.54921,82.838455,81.041779,73.317841,63.361397,56.127399,54.747326,58.590752,63.733673,65.551323,61.75473,53.86441,46.121067,42.531174,44.018341,47.629967,48.410954,42.773811,31.146994,18.101288,9.7772226,10.207332,18.861551,30.953913,40.257084,42.578728,37.717075,28.828936,19.920574,13.37418,9.238328,6.5955362,5.7164307,9.0808077,20.174675,40.684441,68.07489,95.527962,114.74706,120.16625,111.996,96.117966,80.782349,72.106026,71.135376,74.198204,76.104446,73.917168,68.738701,64.406952,64.172829,67.821075,71.361488,69.585838,59.747326,43.782997,27.462152,16.936407,14.95735,19.271534,24.245989,24.607788,18.796783,9.7428284,2.6619108,1.4611504,6.2061777,13.275161,17.935167,17.453886,12.608387,6.6819191,2.8360546,1.8244249,1.6581846,-0.6529662,-6.6639643,-15.19705,-23.125425,-27.631645,-28.264015,-27.291563,-28.11961,-32.937588,-41.295464,-50.584988,-57.984802,-62.373405,-64.789368,-67.157745,-70.342461,-73.121521,-72.996925,-68.341209,-60.288731,-52.83638,-50.827251,-57.013596,-70.139191,-85.388924,-97.007355,-101.44982,-99.0895,-93.490654,-88.876633,-87.560051,-88.996307,-90.904266,-91.447525,-90.813072,-91.070702,-94.508606,-101.74666,-111.04697,-119.32787,-124.13223,-125.13068,-124.11359,-123.54935,-124.81542,-127.40295,-129.62885,-130.24817,-129.68993,-129.93164,-133.05948,-139.5677,-147.68848,-154.32956,-157.03932,-155.65358,-152.45917,-150.71904,-152.53473,-157.48241,-162.9346,-165.83522,-164.73006,-160.71289,-156.70683,-155.61137,-158.55415,-164.34077,-170.34709,-174.16319,-174.89726,-173.40308,-171.4774,-170.72171,-171.83699,-174.66576,-178.69522,-183.46779,-188.55818,-193.25803,-196.42801,-196.86646,-194.08136,-188.92311,-183.50322,-180.2644,-180.6794,-184.3898,-189.37622,-193.10605,-193.96246,-192.07419,-189.06116,-186.92589,-186.85388,-188.69041,-191.34903,-193.75902,-195.62779,-197.49338,-200.09879,-203.61977,-207.35719,-210.13104,-211.07181,-210.20908,-208.41252,-206.73091,-205.6241,-204.66418,-202.93152,-199.81277,-195.60635,-191.47282,-188.74756,-188.09839,-189.13745,-190.77267,-192.05786,-192.93019,-194.29231,-197.34273,-202.58519,-209.18187,-215.10597,-218.03999,-216.50352,-210.57352,-201.83746,-192.68204,-185.36011,-181.302,-180.88486,-183.57108,-188.18454,-193.17879,-196.92317,-198.11082,-196.27524,-192.1913,-187.83032,-185.68938,-187.67662,-194.07919,-203.20876,-212.01244,-217.40512,-217.6479,-213.04498,-205.614,-197.97043,-192.09825,-188.6897,-187.33278,-187.27541,-188.15401,-190.15808,-193.53551,-197.83556,-201.50383,-202.24345,-198.06003,-188.43686,-174.93695,-160.80513,-149.6864,-144.07188,-144.24846,-148.27667,-152.99901,-155.57156,-154.77373,-151.48637,-148.144,-147.44856,-150.95715,-158.19412,-166.69545,-172.98286,-174.06271,-168.80269,-158.56572,-146.76782,-137.48773,-133.69548,-135.89284,-141.82855,-147.48886,-148.95537,-144.2623,-134.33372,-122.50085,-112.81436,-108.00475,-108.15414,-110.78139,-112.28024,-109.90673,-103.20258,-94.067497,-85.467865,-79.562233,-76.354889,-73.673248,-68.472832,-58.689503,-44.54393,-28.544622,-14.21731,-4.3248262,0.40262717,1.3756995,1.1636002,2.1134651,5.3952041,10.905169,17.846657,25.399832,32.961346,39.883476,45.11808,47.29105,45.392849,39.713661,32.305504,26.428816,25.072525,29.323097,37.602074,46.369259,52.01519,52.888622,50.247036,47.522228,48.30595,54.249683,64.128807,74.604988,82.178154,85.118011,84.228928,82.077408,81.270226,82.913757,86.177246,89.117104,90.111115,88.930275,86.804169,85.544884,86.394196,89.356232,93.374245,97.112694,99.753494,101.30128,102.31694,103.40639,104.89924,106.90747,109.58897,113.25578,118.11397,123.78057,129.00011,131.93799,131.05457,126.11219,118.66386,111.59104,107.79318,108.65709,113.12699,117.92302,118.87714,112.78571,98.924072,79.534058,59.072742,42.549992,33.649979,33.396843,39.889923,49.204609,57.083668,60.706135,59.757942,56.309597,53.54694,53.977356,58.039368,63.877613,68.43515,69.274368,66.086746,60.994797,57.433674,58.243538,64.085846,73.109901,82.041,88.005516,89.992989,89.129677,87.717041,87.745567,89.85173,93.294136,96.797112,99.54879,101.62846,103.63598,105.92054,108.09023,109.22989,108.67502,106.72356,104.68495,104.1487,105.95832,109.62969,113.66539,116.57169,117.8627,118.31844,119.29005,121.53961,124.47048,126.35772,125.49147,121.47639,115.77306,111.04211,109.65146,112.28452,117.54494,122.82024,125.85846,126.07172,124.77441,124.25659,126.30945,131.11372,137.11734,141.89491,143.42737,141.0811,135.84511,129.84271,125.47414,124.5923,127.94725,134.94829,143.73152,151.56732,155.64369,154.11813,147.07527,136.87686,127.52729,123.13422,126.0817,135.81992,148.96526,160.76862,167.27579,167.11205,162.00285,155.80458,152.58157,154.70464,161.8542,171.28502,179.08975,181.80858,177.72296,167.44002,153.70612,140.60472,132.3719,132.08759,140.56058,155.79013,173.34419,187.72827,194.37752,191.49692,180.87782,167.1889,155.94905,151.09427,153.32384,160.06505,167.06151,170.72433,169.96828,166.54903,163.76607,164.32309,168.60941,174.40758,178.18903,177.22107,171.22716,162.60173,155.03658,151.36311,151.89722,154.29369,155.02965,151.65811,144.48462,136.62442,132.3331,134.53107,142.95596,154.05521,162.74818,165.1044,160.43344,151.60098,143.38957,139.84026,142.08107,147.84938,152.91949,153.55305,148.53569,139.66571,130.5137,124.29248,122.14925,122.85806,123.97718,123.63494,121.76237,120.00743,120.44354,123.96561,129.45032,134.24706,135.69951,132.73705,126.53617,119.84612,115.40983,114.45581,116.15515,118.3025,118.71576,116.44498,112.07574,107.04895,102.56049,98.83107,95.216286,91.005554,86.264641,82.054359,79.810081,80.281021,82.772583,85.269737,85.445755,81.963066,75.25531,67.294327,60.48774,56.40094,55.088058,55.39703,55.964603,56.176666,56.428879,57.53548,59.74902,62.14645,62.900673,60.34465,54.155922,45.849121,38.16523,33.65374,33.281452,35.925491,39.070427,40.282578,38.546234,34.643478,30.379564,27.202812,25.159006,22.893549,18.715878,12.016081,4.052484,-2.5001504,-5.0593338,-2.802598,2.5734155,7.5673327,8.73563,4.6488128,-3.2269659,-11.294206,-15.843785,-15.184024,-10.638405,-5.8116693,-4.5230846,-8.5889463,-16.732428,-25.262867,-30.152081,-29.337706,-23.949846,-17.764584,-15.182297,-18.84733,-28.215878,-39.842319,-49.206276,-53.068939,-51.085945,-45.837002,-41.312077,-40.722511,-44.843929,-51.767597,-58.143902,-61.177265,-60.237083,-57.182461,-55.23325,-57.03936,-63.05748,-71.176392,-77.832916,-80.012367,-77.010239,-70.941917,-65.68,-64.785141,-69.579536,-78.441872,-87.716873,-93.712715,-94.64772,-91.458855,-87.07325,-84.65535,-85.923546,-90.531998,-96.800873,-103.20708,-109.57291,-117.1181,-127.32905,-140.42842,-154.55283,-166.32594,-172.6048,-172.36267,-167.49492,-161.9465,-159.59222,-162.10699,-168.11499,-174.14841,-176.84203,-175.02319,-170.42278,-166.58366,-166.66066,-171.47794,-179.03519,-185.74066,-188.58324,-186.89709,-182.65831,-179.1803,-179.05714,-182.63121,-187.895,-191.82924,-192.3098,-189.40858,-185.32866,-183.06059,-184.59921,-189.77312,-196.32915,-201.16208,-201.94919,-198.28839,-191.78806,-185.17094,-180.95523,-180.41536,-183.27351,-188.13348,-193.30403,-197.54253,-200.39534,-202.08017,-203.09279,-203.80684,-204.27563,-204.29448,-203.64063,-202.32655,-200.71416,-199.41463,-199.01575,-199.77477,-201.45197,-203.40117,-204.90144,-205.56766,-205.60464,-205.73062,-206.77396,-209.14938,-212.51682,-215.84392,-217.8638,-217.67984,-215.1723,-210.98396,-206.12643,-201.48924,-197.57646,-194.61028,-192.84538,-192.75359,-194.80684,-198.89702,-203.76677,-206.9473,-205.46907,-197.14201,-181.77538,-161.62317,-140.69398,-123.18057,-111.77552,-106.73235,-106.12347,-107.08285,-107.28907,-105.87267,-103.33833,-100.71924,-98.620865,-96.80558,-94.542511,-91.401505,-87.871338,-85.317467,-85.260971,-88.431107,-94.20932,-100.83163,-106.23431,-109.02815,-109.0361,-107.13194,-104.56536,-102.24292,-100.39069,-98.711975,-96.812271,-94.531143,-91.967018,-89.26609,-86.440186,-83.427826,-80.368744,-77.823616,-76.652153,-77.501114,-80.192825,-83.474586,-85.435425,-84.472626,-80.279884,-74.220825,-68.765938,-66.233406,-67.531113,-71.638359,-76.140999,-78.501053,-77.303818,-72.765747,-66.280655,-59.397652,-52.96064,-46.969929,-41.181011,-35.911716,-32.368546,-32.147697,-36.175159,-43.808788,-52.786438,-60.18391,-63.865791,-63.547077,-60.784019,-57.880135,-56.39167,-56.188065,-55.675598,-53.039097,-47.687077,-40.931919,-35.414188,-33.579784,-36.138062,-41.465038,-46.352009,-47.68507,-44.086937,-36.589119,-27.991457,-21.330564,-18.353914,-18.820713,-20.91025,-22.372612,-21.695866,-18.664963,-14.138356,-9.345089,-5.2223277,-2.1695383,-0.24168752,0.50262547,-0.15633069,-2.4211342,-6.1083522,-10.408897,-14.028494,-15.704745,-14.829032,-11.801861,-7.8873124,-4.6179295,-3.0603087,-3.3275142,-4.5773053,-5.4635248,-4.7723937,-1.9108775,2.9611402,9.1412907,15.744926,21.99049,27.296015,31.236313,33.504395,33.981911,32.891155,30.877708,28.873909,27.728878,27.785839,28.686035,29.592798,29.773857,29.214001,28.838432,30.110003,34.142784,40.823727,48.515423,54.63044,56.859421,54.403786,48.492996,41.838436,37.286816,36.42234,38.910236,42.935871,46.429386,48.295704,48.895939,49.53236,51.350407,54.444592,57.796139,60.075291,60.719555,60.480461,60.982964,63.541519,68.043427,72.739403,75.2118,73.981445,69.708466,65.110634,63.503891,66.776047,74.048134,81.932098,86.344406,84.860863,78.219879,70.053955,64.9758,66.123375,73.578156,84.524139,94.969467,101.94582,104.89205,105.4958,106.24466,108.68497,112.48382,115.79902,116.61929,114.15717,109.41848,104.64258,102.02708,102.5535,105.60528,109.53405,112.74974,114.63571,115.757,117.29443,120.10133,123.97713,127.60172,129.18718,127.5085,122.76208,116.77148,112.35571,112.08083,116.94028,125.62005,134.80473,140.52863,140.03564,133.26108,123.11036,114.23693,110.80024,114.30415,122.69454,131.30318,135.23848,131.97906,122.74494,111.8576,104.42653,103.66027,109.31488,118.11494,125.81391,129.61551,129.52467,127.9188,127.74537,130.56142,135.63182,140.54842,142.83905,141.46115,137.25725,132.21396,128.1586,125.81742,124.7922,124.30053,123.99757,124.21941,125.50756,127.87195,130.47485,132.09341,132.10045,131.25085,131.62915,135.65994,144.73169,158.26826,173.81108,188.03979,198.11053,202.58403,201.58766,196.38266,188.80476,180.91736,174.83934,172.44009,174.70485,180.98982,188.74924,194.24986,194.22157,187.67226,176.75284,165.94464,159.80432,160.4601,166.34589,173.02023,175.68713,171.9725,163.3114,154.11531,149.22498,151.17084,158.8327,168.19334,174.61322,175.2169,170.06354,161.63914,153.24352,147.37746,145.00082,145.79349,148.88507,153.37244,158.33635,162.61829,164.85727,164.02824,160.19507,154.8484,150.36505,148.72537,150.2325,153.11633,154.41682,151.71956,144.71227,135.57832,127.93308,124.9076,127.50011,134.12669,141.54758,146.53255,147.274,143.84114,137.64697,130.48285,123.79766,118.5427,115.39213,114.87906,117.13931,121.38194,125.54933,126.61523,121.58154,108.75591,88.64901,64.000389,38.901352,17.438457,2.4606273,-5.082828,-6.1180515,-2.9028614,1.7741649,5.4335084,6.626102,5.3680062,3.0920887,2.000113,3.9495106,9.3313379,16.55184,22.537718,24.159136,19.893894,10.805251,0.20037541,-7.9497337,-11.016615,-9.0464764,-4.6681395,-1.6286305,-2.7805765,-8.6342039,-17.22966,-25.318548,-30.131618,-30.750505,-28.403368,-25.636238,-24.895742,-27.290037,-32.113174,-37.285973,-40.429832,-40.045784,-36.271439,-30.895432,-26.619286,-25.878912,-29.749598,-37.466061,-46.83091,-55.341976,-61.445,-65.185974,-67.841599,-70.727257,-73.960564,-76.080429,-74.932533,-69.370758,-60.654198,-52.438587,-49.069931,-53.025196,-63.068127,-74.436211,-81.204376,-79.572861,-70.113449,-57.521126,-47.902477,-45.191486,-48.88686,-54.53796,-56.697563,-52.505878,-43.656479,-35.51228,-33.927971,-41.755985,-57.165199,-74.720375,-88.449875,-94.971512,-94.858467,-91.645233,-89.357506,-90.226616,-93.906418,-98.376518,-101.62688,-102.87737,-102.63044,-101.79459,-100.74754,-99.11599,-96.381104,-92.727188,-89.364182,-87.982536,-89.690445,-94.200958,-99.876877,-104.6325,-107.09998,-107.30783,-106.49031,-106.23818,-107.59345,-110.62045,-114.57674,-118.39459,-121.08066,-121.86384,-120.22984,-116.07634,-110.02157,-103.59692,-98.962242,-98.052994,-101.53616,-108.24632,-115.59825,-120.87927,-122.69609,-121.66556,-119.87463,-119.44253,-121.13603,-123.97195,-126.06429,-126.10333,-124.39936,-122.73002,-123.0831,-126.19357,-130.93755,-135.04968,-136.67587,-135.66351,-133.6563,-132.90968,-134.65811,-138.19934,-141.35367,-141.97517,-139.43462,-135.01762,-130.96855,-128.90009,-128.75285,-129.08429,-128.46811,-126.92621,-126.23418,-128.73715,-135.43587,-144.74353,-152.96478,-156.39818,-153.77766,-147.39128,-141.96303,-141.82196,-148.06694,-157.56726,-164.56587,-164.03754,-154.80656,-140.50864,-127.74583,-122.47518,-126.72949,-137.56624,-148.80305,-154.47369,-151.98537,-143.23756,-133.22198,-127.08853,-127.43674,-133.29814,-141.15703,-147.16551,-149.14006,-147.26207,-143.33112,-139.30942,-136.20157,-133.91498,-131.9772,-130.39656,-129.92159,-131.46811,-135.14995,-139.69612,-142.81078,-142.38269,-137.82031,-130.61641,-123.67938,-119.7441,-119.80006,-122.52534,-125.13123,-125.15012,-122.08266,-117.86464,-115.80719,-118.59985,-126.55648,-137.16801,-146.2569,-150.08026,-147.18144,-138.96446,-128.75194,-119.9724,-114.5811,-112.57159,-112.69221,-113.72223,-115.38364,-118.30077,-123.12872,-129.55255,-135.93904,-139.95644,-139.80492,-135.27242,-127.93024,-120.33187,-114.70316,-111.90609,-111.24566,-111.14092,-110.16338,-107.79361,-104.50687,-101.27297,-98.895157,-97.628403,-97.232483,-97.286453,-97.447594,-97.464493,-97.01429,-95.605888,-92.734406,-88.240509,-82.612556,-76.956055,-72.560318,-70.280869,-70.102448,-71.151581,-72.146423,-72.009605,-70.301353,-67.282867,-63.668678,-60.27972,-57.783794,-56.558033,-56.593311,-57.382248,-57.866661,-56.614254,-52.317944,-44.473492,-33.859936,-22.440462,-12.587439,-5.9716005,-2.7402284,-1.5137908,-0.26027146,2.4525027,6.5989175,10.781835,13.214955,12.969115,10.669665,8.1928015,7.5641632,9.7817287,14.307877,19.507401,23.672092,25.921804,26.427769,25.939785,25.100311,24.133209,23.129869,22.61397,23.780451,28.0154,35.887218,46.311169,56.626095,63.778763,66.036667,64.172791,61.270699,61.103642,65.958618,75.195831,85.458214,92.475334,93.445404,88.621552,81.201057,75.610939,75.194572,80.585098,89.584602,98.474274,103.92779,104.4882,100.95473,95.688499,91.375328,89.912033,91.844978,96.420059,102.0454,106.91217,109.58791,109.4619,106.93237,103.23727,99.932907,98.214394,98.425636,100.06604,102.3196,104.7644,107.72603,111.9202,117.52033,123.28234,126.47561,123.95061,113.91829,97.416382,78.438301,62.401016,53.638313,53.297623,58.887741,65.799423,69.927132,69.831505,67.149048,65.05677,65.83242,69.133514,72.141266,71.49334,65.733353,56.643299,48.5219,45.801208,50.467304,60.884224,72.721924,81.363991,84.285782,82.007011,77.222412,72.893715,70.658318,70.522171,71.78672,74.264801,78.705956,86.052124,96.136665,106.96771,115.37695,118.80174,117.03682,112.65275,109.59912,110.7602,116.0373,122.28806,125.26837,122.37321,114.38805,105.07211,98.820969,97.939331,101.32339,105.40266,106.6693,104.05587,99.554688,96.696503,97.993195,103.15101,109.30803,113.11104,113.14491,110.96367,109.95099,112.77383,119.22023,125.99404,128.71516,124.84114,115.55186,105.28776,99.184212,100.03725,106.73843,115.13141,120.65309,121.00529,117.18474,112.38367,109.70418,110.33201,113.34135,117.0464,120.69753,125.13177,131.84077,141.16486,151.05524,157.51212,156.64214,147.09093,131.24728,114.34682,101.93853,97.217964,99.781052,106.40852,113.20529,117.65773,119.40063,119.48154,118.94085,117.8793,115.66813,111.99774,107.7887,105.09139,105.89159,110.62081,117.48515,123.2217,124.91367,121.72828,115.43877,109.36703,106.41631,107.44838,111.00513,114.46676,115.79979,114.71622,112.53492,110.96575,110.7584,111.19442,110.74067,108.32687,104.26356,100.09972,97.512619,97.051109,97.68502,97.541557,95.338623,91.47789,87.952477,87.039627,89.63588,94.4086,98.440063,99.025482,95.458061,89.565018,84.552361,82.850395,84.376884,86.424149,85.339111,78.967613,68.27449,57.033531,49.70805,48.827656,53.514606,60.089241,64.346581,64.030556,59.936672,55.012157,52.158062,52.276325,53.881748,54.477547,52.648388,49.319683,47.22028,48.87109,54.508213,61.468796,65.603752,63.877098,56.430054,46.664181,39.180759,36.864189,39.021442,41.85173,40.998562,34.55019,24.512625,15.742962,12.968781,17.770205,27.44525,36.4884,39.771271,35.46907,25.984186,16.396849,11.482132,13.116289,19.519648,26.57283,30.216698,28.461279,21.985437,13.296549,5.2369308,-0.20779607,-2.3056109,-1.3318739,1.8295608,5.8950529,9.2594004,10.254096,7.7546096,1.8913654,-5.6797838,-12.361455,-15.918344,-15.784454,-13.499269,-11.860153,-13.202345,-17.852102,-23.776451,-27.733667,-27.260595,-22.252455,-15.107246,-9.2987394,-7.2475533,-8.8203239,-11.410556,-11.572598,-7.2234764,0.91615713,9.5034714,14.268984,12.254619,3.3514423,-9.6501913,-22.443472,-31.21678,-34.255455,-32.413212,-28.380611,-25.259668,-25.199841,-28.69314,-34.719807,-41.513275,-47.473026,-51.772343,-54.437763,-55.981342,-56.890331,-57.315678,-57.130787,-56.265461,-55.012211,-54.013493,-53.865864,-54.596836,-55.435055,-55.162876,-52.941944,-49.102982,-45.292107,-43.707729,-45.777081,-51.09708,-57.436153,-61.982857,-63.19202,-62.065647,-61.927448,-66.6381,-78.218063,-95.32296,-113.58028,-127.68628,-134.06314,-132.5257,-126.03279,-118.80669,-114.08215,-112.86395,-114.27115,-116.92392,-120.17625,-124.2644,-129.39224,-134.67763,-138.03893,-137.36681,-132.24394,-124.87897,-119.32101,-119.20072,-125.37946,-135.12967,-143.55978,-146.50809,-143.07832,-136.14355,-130.44775,-129.52931,-133.4901,-139.07164,-141.95348,-139.70067,-133.38284,-126.81942,-124.02837,-126.64155,-133.00439,-139.46774,-142.87801,-142.52222,-140.26836,-138.96336,-140.34448,-143.9563,-147.73393,-149.67114,-149.25952,-147.66234,-146.61122,-146.98257,-148.19246,-148.84094,-148.01486,-146.13303,-144.6028,-144.54721,-145.67239,-146.30524,-144.7336,-140.88722,-136.98225,-136.39545,-141.34096,-150.93085,-161.12381,-166.85803,-165.12888,-156.99635,-147.10037,-140.88002,-141.25012,-146.89816,-153.31476,-155.85393,-152.77318,-146.24681,-140.74612,-139.96977,-144.44698,-151.40024,-156.83369,-158.26125,-156.08411,-152.6451,-149.69788,-146.21747,-138.30508,-121.50246,-94.123451,-59.395599,-24.861006,0.81693435,11.86464,7.9435906,-6.1423678,-23.242575,-37.41592,-46.245342,-50.856133,-54.047504,-57.975658,-62.845551,-67.200546,-69.305733,-68.522186,-65.764183,-62.873077,-61.465271,-62.057076,-63.960522,-65.875648,-66.695587,-66.016556,-64.145325,-61.747047,-59.444519,-57.599072,-56.310745,-55.529675,-55.166786,-55.160461,-55.514164,-56.298515,-57.57856,-59.243206,-60.819077,-61.444595,-60.158119,-56.459641,-50.854076,-44.96463,-40.968975,-40.513145,-43.659729,-48.541142,-52.07135,-51.470848,-45.821835,-36.75935,-27.818621,-22.701014,-23.348005,-28.864416,-35.892811,-40.271065,-39.122299,-32.315006,-22.575455,-14.231154,-11.227679,-15.364853,-25.531281,-38.207096,-48.931721,-54.052307,-52.022518,-43.776512,-32.126095,-20.52586,-11.772704,-7.1747098,-6.4633889,-8.3639317,-11.434382,-14.703603,-17.80065,-20.60503,-22.747238,-23.384136,-21.48777,-16.529512,-9.1322699,-1.2096138,4.6353273,6.2459841,3.0301387,-3.5547998,-10.470263,-14.363431,-13.058361,-6.5739322,2.8130679,11.495017,16.041702,14.63564,7.8289738,-1.6857924,-10.188587,-14.464167,-13.114482,-7.0892782,0.81023884,7.2547097,9.944994,8.6664667,5.3049178,2.7870097,3.4682555,7.8136821,14.09657,19.30896,20.809683,17.809824,11.872024,6.1479745,3.7878211,6.4069877,13.429726,22.595507,31.246664,37.618858,41.44125,43.637596,45.461361,47.67263,50.223747,52.522251,53.962212,54.316158,53.767006,52.669079,51.303902,49.837696,48.460667,47.505192,47.352146,48.136684,49.483299,50.547268,50.444008,48.847786,46.353306,44.293888,44.043758,46.198483,50.149094,54.355263,57.183956,57.815292,56.656937,55.014725,54.23378,54.855957,56.317467,57.354549,56.83522,54.478264,51.021618,47.77063,45.851933,45.65316,46.76815,48.409523,49.954762,51.244602,52.472881,53.821739,55.175457,56.168945,56.54715,56.547626,56.958858,58.721909,62.279564,67.108749,71.808487,74.778343,75.116966,73.173355,70.355385,68.256439,67.626717,67.868538,67.448944,65.035835,60.650272,56.028393,53.825287,56.025242,62.506542,70.730408,76.917702,78.157539,74.232224,67.984802,63.850395,65.279381,72.534195,82.235374,89.067871,88.773338,80.722244,68.518097,58.188633,54.932747,60.271595,71.248215,82.137993,87.667496,85.873146,78.976982,71.854424,69.084015,72.347435,79.653603,86.711197,89.506149,86.515137,79.333458,71.531349,66.590309,66.193901,69.758385,75.233505,80.457893,84.174248,86.214706,87.004799,86.941483,86.138748,84.626709,82.689125,80.941803,80.021973,80.132835,80.851746,81.420845,81.346115,80.844376,80.748077,81.870239,84.264214,86.950119,88.389954,87.466972,84.330261,80.509041,78.167023,78.949249,83.154167,89.743835,97.127159,104.12904,110.45956,116.40173,122.04137,126.72697,129.27699,128.86537,125.92686,122.30424,120.33355,121.3475,124.60103,127.478,127.04107,122.04583,114.10075,107.08069,104.98043,109.44883,118.56077,127.69771,132.10852,129.63223,121.9069,113.30386,108.2531,108.64742,112.95684,117.56966,119.42036,118.1255,116.18493,117.10902,122.73971,131.60799,139.50981,142.01329,137.30302,127.49719,117.53565,112.3065,113.82175,120.21333,127.13021,130.56702,129.2697,125.20996,121.94291,122.05305,125.4312,129.47614,130.96872,128.25189,122.22202,115.53349,110.68268,108.37469,107.29903,105.38744,101.57385,96.770561,93.398216,93.870552,99.147903,108.3316,119.42735,130.52586,140.42274,148.28169,152.86302,152.31412,145.11278,131.70653,115.52224,102.09422,96.216515,98.553917,103.95472,103.05725,86.899574,52.237911,4.490953,-43.704453,-77.925995,-88.652084,-75.645088,-47.712749,-18.100716,1.8576435,7.4235435,1.2454305,-9.6175394,-18.282999,-21.516794,-20.430784,-18.617355,-19.364214,-23.78647,-30.74802,-38.129826,-44.25668,-48.509155,-50.998005,-51.933922,-51.423195,-49.866814,-48.454514,-49.033772,-53.102837,-60.473568,-68.633987,-73.557503,-71.782692,-62.624294,-49.092407,-36.747238,-30.961666,-34.091484,-44.204556,-56.138626,-64.30127,-65.60437,-60.889748,-54.126778,-49.980331,-51.230133,-57.4911,-65.805916,-72.558128,-75.460884,-74.491035,-71.396751,-68.294495,-66.334892,-65.239342,-63.866219,-61.309258,-57.753418,-54.542385,-53.448914,-55.628914,-60.901093,-67.75988,-74.085457,-78.126587,-79.221352,-77.911278,-75.466156,-73.152344,-71.676987,-71.091087,-71.133324,-71.728027,-73.265167,-76.437416,-81.7034,-88.708855,-96.06955,-101.73723,-103.83518,-101.55042,-95.598999,-87.988365,-81.182091,-77.095291,-76.427132,-78.620361,-82.371201,-86.324486,-89.553314,-91.637573,-92.456314,-91.977386,-90.260437,-87.648079,-84.912956,-83.114029,-83.13044,-85.113533,-88.232361,-90.948715,-91.736511,-89.859131,-85.760132,-80.845512,-76.798378,-74.826401,-75.234367,-77.473526,-80.522057,-83.31517,-85.0233,-85.178108,-83.76886,-81.375504,-79.229744,-78.983932,-82.080597,-88.91172,-98.242218,-107.37321,-113.17181,-113.54995,-108.60355,-100.70271,-93.373566,-89.523849,-89.987701,-93.219696,-96.305573,-96.691597,-93.622368,-88.48214,-83.906403,-82.250648,-84.327271,-89.088547,-94.327156,-97.890816,-98.695946,-97.056046,-94.296158,-92.00103,-91.331627,-92.673859,-95.632835,-99.245552,-102.29529,-103.68526,-102.83813,-100.00704,-96.306503,-93.324425,-92.395714,-93.872955,-96.828804,-99.439354,-99.905251,-97.412109,-92.564026,-87.021439,-82.55986,-80.126015,-79.459961,-79.475487,-79.10273,-78.017418,-76.795166,-76.439278,-77.648956,-80.336838,-83.693169,-86.699501,-88.703308,-89.67025,-90.002625,-90.127945,-90.193481,-90.06675,-89.574211,-88.724388,-87.704788,-86.661591,-85.479179,-83.793991,-81.285095,-78.032433,-74.637573,-71.95285,-70.562729,-70.37867,-70.663475,-70.508743,-69.448227,-67.767159,-66.262527,-65.607376,-65.778015,-65.994728,-65.273979,-63.240685,-60.611198,-58.932281,-59.643845,-63.021614,-67.703445,-71.196564,-71.16732,-66.806587,-59.463573,-52.125076,-47.968178,-48.743961,-53.859177,-60.644108,-65.660736,-66.358543,-62.228371,-54.894234,-47.155327,-41.52742,-39.063656,-39.050041,-39.680626,-39.283489,-37.374889,-34.924187,-33.667721,-34.872574,-38.306408,-42.093773,-43.647076,-41.21204,-35.141666,-28.092211,-23.910368,-25.744459,-34.403137,-47.887875,-62.368534,-74.036346,-80.772415,-82.720551,-81.562744,-79.103348,-76.152664,-72.416061,-67.342163,-61.191418,-55.43008,-52.059387,-52.291565,-55.523933,-59.423382,-61.196381,-59.273048,-54.286381,-48.647438,-44.948666,-44.240852,-45.34927,-45.717987,-43.230873,-37.772736,-31.439661,-27.213295,-26.965166,-30.140898,-34.040077,-35.538467,-33.11702,-27.841425,-22.632147,-20.314499,-21.756376,-25.333908,-28.054323,-27.54319,-23.531733,-17.853954,-13.014371,-10.384705,-9.3358631,-7.9316964,-4.6799226,-0.040207006,3.4904473,2.9263144,-2.9880793,-12.411278,-20.94994,-23.953749,-19.224569,-8.4531231,3.5671098,11.537795,12.529933,7.4375982,0.20831916,-4.5813546,-4.2638316,0.78294683,7.942718,14.39769,18.955893,22.482258,26.764753,32.72673,39.319706,43.923786,44.021976,39.00972,30.882605,23.276251,19.434021,20.403358,24.62077,29.135361,31.632061,31.896044,31.742538,33.495068,38.102787,44.272171,49.31675,51.235218,50.600353,50.835766,56.43465,70.044556,90.213318,111.35155,126.19748,129.52557,120.99026,105.41022,90.265633,81.822472,82.101837,88.380058,95.364319,98.596375,96.977661,92.964165,90.505196,92.20414,97.581985,103.50777,106.39789,104.65237,99.709724,95.080864,94.073311,97.739868,104.35912,110.68121,114.00933,113.71087,111.24562,108.86214,107.99187,108.46908,109.01382,108.46945,106.78331,104.99149,104.28193,104.92938,105.98422,105.99493,104.21877,101.36204,99.217804,99.405556,102.13348,105.94749,108.73064,109.27303,108.24101,107.74418,109.69833,114.12019,118.65482,119.86841,115.60838,106.90241,98.026642,94.484962,99.980347,114.15504,132.45567,148.2131,155.73567,152.70163,140.69075,123.86952,106.8656,93.092224,84.204887,80.483673,81.418236,85.923576,92.217964,97.877281,100.51438,98.950684,94.138641,89.006615,87.00753,90.078293,97.280373,105.11256,109.46416,108.06986,101.90784,94.597275,90.134071,90.408897,94.121277,97.792999,98.193474,94.544647,89.028969,85.269493,85.822342,90.382652,95.914833,98.614006,96.374878,90.123253,83.150719,78.943871,78.987488,81.993111,85.00264,85.542778,83.330818,80.387924,79.534286,82.339035,87.937469,93.508011,96.068092,94.382889,89.739655,85.120483,83.348534,85.400627,89.90094,94.010994,95.071869,91.977455,85.546036,77.842499,71.007675,66.315796,63.888161,63.018391,62.746807,62.31963,61.385891,60.002201,58.569553,57.737347,58.215218,60.462189,64.356346,69.055954,73.212418,75.486397,75.100533,72.106514,67.225082,61.402592,55.415104,49.781685,44.976532,41.661732,40.621056,42.311741,46.298672,51.024761,54.230305,53.926567,49.427792,41.83334,33.629646,27.580269,25.478693,27.399023,31.775265,36.181351,38.357655,37.00296,32.07399,24.62005,16.34133,9.0606947,4.2187028,2.4698029,3.4867818,6.103507,8.8299055,10.56647,11.155607,11.413074,12.547856,15.269209,19.133936,22.593527,23.778748,21.568495,16.272989,9.4865007,3.203984,-1.2202272,-3.5988038,-4.6262493,-5.0635004,-5.0443945,-4.0426493,-1.5195155,2.273577,6.026783,7.9620523,6.9582872,3.4266136,-0.76562154,-3.4096498,-3.4576592,-1.9085919,-1.3918024,-4.576086,-12.324977,-22.764482,-31.938915,-35.790947,-32.382908,-23.090588,-12.055687,-4.1590891,-2.5922723,-7.3131757,-15.170481,-21.584528,-22.87406,-18.034948,-9.1143551,-0.070406809,5.2387447,4.8967843,-0.29970643,-7.4712396,-13.296437,-15.772002,-15.153354,-13.587749,-13.665909,-16.72768,-21.914833,-26.55838,-27.719049,-23.99864,-16.533144,-8.5225992,-3.5115683,-3.405818,-7.4087319,-12.543079,-15.47746,-14.583269,-10.996033,-8.0490103,-9.4207182,-17.091007,-30.279015,-45.909176,-60.236832,-70.628296,-76.503639,-79.048859,-80.06945,-80.80735,-81.430473,-81.377792,-80.176605,-78.111755,-76.314461,-76.268265,-79.092804,-85.038658,-93.425194,-102.95623,-112.17146,-119.81033,-125.00886,-127.37827,-127.03365,-124.57998,-121.00509,-117.45159,-114.91704,-113.99858,-114.77846,-116.8708,-119.56615,-122.0067,-123.3731,-123.10831,-121.16132,-118.13419,-115.15687,-113.40361,-113.40205,-114.52277,-115.06492,-113.07144,-107.53484,-99.296555,-90.987389,-85.861473,-86.071465,-91.372711,-99.090813,-105.47652,-107.71574,-105.41666,-100.67693,-96.697899,-95.81633,-98.177429,-101.8392,-104.15488,-103.45955,-99.934898,-95.140038,-90.648331,-86.852608,-82.858505,-77.564735,-71.115982,-65.556274,-64.007149,-68.723648,-79.259644,-92.053352,-101.93285,-104.81316,-100.02458,-90.828865,-82.721298,-80.441734,-85.408073,-95.043243,-104.34657,-108.7491,-106.58611,-99.80957,-92.640671,-89.043503,-90.505692,-95.324341,-99.670547,-99.711365,-93.579346,-82.190559,-68.628006,-56.566338,-48.621162,-45.41135,-45.664356,-47.162762,-47.97797,-47.386906,-46.076305,-45.592865,-47.340149,-51.63588,-57.3284,-62.220867,-64.140488,-62.116306,-56.998039,-51.097572,-46.964264,-45.951328,-47.426819,-49.17548,-48.830357,-45.504517,-40.579033,-37.060604,-37.794552,-43.593204,-52.477516,-60.605091,-64.408974,-62.670761,-57.227051,-51.828629,-49.833584,-52.178936,-56.919559,-60.622952,-60.697712,-57.10648,-52.309906,-49.463623,-50.087147,-52.825714,-54.241051,-51.207134,-43.350636,-33.837112,-27.809624,-29.316069,-38.626255,-51.707985,-62.338562,-65.662247,-61.036396,-52.380791,-45.762127,-45.666595,-52.251923,-61.280724,-66.778191,-64.76503,-55.75444,-44.479095,-37.03949,-37.245735,-44.386772,-53.733276,-59.383896,-57.664154,-49.044495,-37.550613,-28.209005,-24.202675,-25.428892,-29.138102,-31.993816,-32.116146,-29.874161,-27.159744,-25.874985,-26.750965,-29.189114,-31.98431,-34.182701,-35.37463,-35.317039,-33.4133,-28.724627,-20.718504,-10.247783,0.11671714,6.9482703,7.7232766,2.4164538,-6.204639,-13.968436,-17.639811,-16.766502,-13.821657,-12.505177,-15.286631,-21.794056,-29.101589,-33.692593,-33.74918,-30.214256,-25.94548,-23.613897,-23.869406,-25.074968,-24.768139,-21.748745,-17.224918,-14.11818,-14.963181,-19.884691,-26.1311,-29.576605,-27.223642,-19.025164,-7.8166986,2.5350897,9.4373398,12.745506,14.107156,15.137534,15.922552,15.035116,11.03054,4.1832862,-3.033282,-7.2997265,-6.7694473,-2.6132963,1.5406952,2.1264224,-1.5320464,-6.1384239,-6.0668068,3.1658471,21.854242,45.583927,67.687012,83.09536,91.020943,94.672729,98.276169,103.56703,108.33289,108.1375,100.06271,85.749557,71.358887,64.137344,67.686592,79.108765,90.138435,91.813126,79.872414,57.496353,33.624718,17.875092,15.201611,23.520845,35.580528,43.661324,44.042553,38.537342,32.455627,30.659397,34.420849,41.008457,45.960049,46.25396,42.186325,36.852013,33.839039,34.871426,38.974197,43.519096,46.189701,46.393475,45.228031,44.248695,44.123489,44.216648,43.329681,40.913898,37.74165,35.495308,35.598675,38.202003,42.097828,45.619972,47.823517,49.041798,50.403252,52.700485,55.509041,57.282478,56.418716,52.548397,47.084621,42.561657,41.133308,43.203243,47.099415,50.026955,49.707855,45.693684,39.581604,34.074406,31.516817,32.777035,37.030067,42.40202,46.967793,49.51841,49.798279,48.289997,45.835823,43.337494,41.594505,41.207253,42.484772,45.391838,49.615181,54.749237,60.471153,66.529053,72.502396,77.519173,80.256775,79.430901,74.638237,67.063293,59.490509,55.378471,57.321156,65.671883,78.130363,90.621346,99.085785,101.28702,97.71846,91.199318,85.445045,83.398262,86.127373,92.699471,100.88436,108.18848,112.70181,113.49767,110.62688,104.90423,97.651154,90.436691,84.786469,81.861542,82.190468,85.569542,91.179955,97.851845,104.34081,109.51969,112.50134,112.77769,110.41905,106.24078,101.74036,98.660713,98.255905,100.59633,104.34716,107.27251,107.31876,103.75092,97.705849,91.792831,88.882339,90.686737,96.872925,105.17281,112.42854,116.02906,115.01966,110.3744,104.36805,99.422424,97.011108,97.120872,98.465347,99.288246,98.342094,95.565071,92.125702,89.79493,89.93412,92.613113,96.364136,98.800209,97.864449,93.076187,86.034752,79.776344,77.208466,79.442299,85.008278,90.519775,92.520531,89.501198,82.87352,76.236053,73.262917,75.411156,80.816986,85.095825,83.646904,74.167259,57.954845,39.301628,23.392796,13.946892,11.868773,15.472136,21.857582,28.438091,33.720131,37.120224,38.305885,36.799892,32.243382,25.077147,16.975742,10.484652,7.8854527,9.9249487,15.235085,20.885874,23.808342,22.278561,16.634146,8.8919859,1.6033165,-3.3281474,-5.2462449,-4.6083903,-2.429636,0.23708405,2.529985,3.7930105,3.611295,1.9813788,-0.5267849,-2.8810503,-4.0725207,-3.740289,-2.4808836,-1.5211761,-1.8748692,-3.5380893,-5.3460779,-5.6971517,-3.7166078,-0.0413092,3.4020619,4.5707436,2.6614759,-1.3209205,-5.2506413,-7.3977661,-7.7084045,-7.8825216,-10.11263,-15.330812,-22.237852,-27.899813,-29.599413,-26.691914,-21.136578,-16.263884,-14.594076,-16.245182,-19.096975,-20.627682,-20.08503,-19.320127,-21.509499,-28.53618,-38.905857,-47.887428,-50.124466,-43.198586,-29.774563,-16.691557,-11.285067,-17.092651,-31.634478,-47.749756,-57.742207,-57.791763,-49.908543,-40.277496,-35.144268,-36.923508,-42.981163,-47.734997,-46.549656,-38.802986,-28.161953,-20.031654,-18.01438,-21.786251,-27.737844,-31.794472,-32.368504,-31.374687,-32.63839,-38.858784,-49.292061,-59.827724,-65.485565,-63.699345,-56.184189,-48.097561,-44.967049,-49.318867,-59.134338,-69.094566,-73.811165,-71.028877,-62.860737,-54.389984,-50.595116,-53.511173,-61.284615,-69.543861,-74.115379,-73.403961,-69.098701,-64.949615,-64.480423,-69.003082,-76.977432,-84.908386,-89.147751,-87.611107,-80.629814,-70.697517,-61.39138,-56.002861,-56.390617,-62.38179,-71.855255,-81.466995,-87.824303,-88.742989,-84.120461,-76.016396,-67.826004,-62.853725,-62.930336,-67.743149,-75.197334,-82.57901,-87.856827,-90.417099,-90.903923,-90.397476,-89.553902,-88.289742,-86.172134,-83.150177,-80.013702,-78.153969,-78.715446,-81.700066,-85.686584,-88.460732,-88.251213,-84.830635,-79.774727,-75.672089,-74.727882,-77.585129,-83.052498,-88.861313,-92.951759,-94.500122,-94.120491,-93.230019,-93.082039,-94.108009,-95.913536,-97.780304,-99.199532,-100.02003,-100.1693,-99.291763,-96.738159,-92.052216,-85.647987,-79.110909,-74.719383,-74.304337,-78.089005,-84.290001,-89.868103,-92.105431,-90.119461,-85.389732,-80.938812,-79.623421,-82.54789,-88.533646,-94.922646,-99.165565,-100.19276,-98.757233,-96.642159,-95.356941,-95.228752,-95.458557,-95.003342,-93.568176,-91.93885,-91.388557,-92.591881,-94.878456,-96.463058,-95.612343,-92.013145,-87.374489,-84.723679,-86.688919,-93.771317,-103.70869,-112.43289,-116.16344,-113.46021,-106.03178,-97.801788,-92.7575,-92.818527,-96.946541,-101.96651,-104.55728,-103.19101,-98.87664,-94.319572,-92.085045,-92.941284,-95.411331,-96.781769,-94.897232,-89.586349,-82.815849,-77.486671,-75.651505,-77.29406,-80.441467,-82.515808,-82.030579,-79.520088,-77.097618,-76.947098,-79.763344,-84.19931,-87.708954,-88.233368,-85.586838,-81.573402,-78.70681,-78.371132,-79.693733,-79.983543,-76.559608,-68.81649,-59.110874,-51.716675,-50.308029,-55.421246,-63.48217,-68.135704,-63.286629,-46.248516,-19.309761,11.102579,37.185883,53.011421,56.698982,50.653168,40.038013,30.439127,25.822453,27.505417,34.261017,43.235291,51.211491,55.809635,56.302689,53.797207,50.649765,49.256363,50.713837,54.070965,56.719734,55.885834,50.455936,42.014801,34.292122,31.149864,34.226315,41.726227,49.268639,52.452969,49.657013,43.306602,38.714306,41.073647,52.38163,70.155678,88.724548,102.28666,107.86412,106.41805,101.62028,97.268951,95.11216,94.422112,93.380714,91.096252,88.709465,88.775818,93.381065,102.36342,112.94965,121.13797,123.97032,121.24615,115.61336,111.03162,110.60377,115.06978,122.72473,130.59081,135.98848,137.60648,135.67897,131.48547,126.6754,122.76658,120.84184,121.30162,123.66376,126.63425,128.68776,129.054,128.53027,129.36874,133.91756,142.5665,152.28259,156.99962,150.1673,128.37321,94.008865,55.199924,22.645418,4.8319988,4.1595006,16.117346,31.951231,43.276871,46.036362,41.699192,35.328518,31.973318,33.6749,38.754303,43.474072,44.705307,41.792454,36.560509,31.744612,29.102804,28.497095,28.395468,27.221169,24.485279,20.950855,17.878544,16.055681,15.362482,15.10642,14.722822,14.194732,13.856143,13.820396,13.630271,12.554934,10.388481,8.0983009,7.6621041,10.980535,18.480066,28.375263,37.235954,41.674175,40.190792,34.044773,26.582006,21.414955,20.551062,23.559219,28.168472,31.787609,32.925888,31.682428,29.180164,26.523857,24.089016,21.587177,18.717308,15.784086,13.74116,13.60556,15.701309,19.329109,23.138235,25.940437,27.376024,27.957771,28.495869,29.376158,30.269262,30.50876,29.842852,28.946709,29.227896,31.975523,37.416206,44.361317,50.751221,54.778191,55.845352,54.712051,52.734737,50.757992,48.4716,44.736729,38.686146,30.817902,23.238916,18.75708,19.308172,24.705807,32.559082,39.48349,42.904942,42.364666,39.549278,37.080368,36.877949,39.139759,42.520782,45.269463,46.448097,46.362297,45.934288,45.555115,44.361069,40.608101,33.022991,22.243572,11.263976,4.3548017,4.9051251,13.397951,26.769062,39.642632,46.844864,45.834167,37.737541,26.498888,16.725021,11.490056,11.257711,14.315658,18.210104,21.185141,22.816463,23.680292,24.532913,25.682327,26.935455,27.985003,28.771557,29.44899,29.98736,29.820139,27.962934,23.669682,17.214539,10.186247,4.9396634,3.4268334,6.1125369,11.70287,17.920603,22.864342,26.075613,28.610661,32.079933,37.32645,43.667969,49.241634,52.211464,51.985683,49.56694,46.774891,44.892784,43.737,41.87196,37.877506,31.774935,25.526566,22.108873,23.657719,29.902481,38.015995,44.118561,45.556503,42.495094,37.745575,34.883183,35.856823,39.674248,43.071766,42.771137,37.842331,30.56999,25.169849,25.116295,30.79475,39.039833,44.940689,44.83881,38.652,30.045805,24.297394,25.123762,32.379715,42.000893,48.216248,46.732944,37.079643,22.846945,9.7900934,2.9159036,4.1216035,11.524971,20.6542,26.736082,26.890493,21.236431,12.533835,4.671504,0.77137834,1.7706006,6.0910306,10.52255,11.908452,8.8325996,2.4532652,-4.0024548,-6.9057441,-4.2220979,3.2480159,12.124425,18.124249,18.263399,12.354612,2.9747596,-6.0202422,-11.505684,-12.444746,-9.9085531,-5.9702349,-2.3595901,0.21802618,1.8077897,2.4398379,1.661799,-1.1736777,-6.1192527,-12.092444,-17.203451,-19.872124,-19.942614,-18.868004,-18.666134,-20.309446,-22.772493,-23.610455,-20.848898,-14.887323,-8.9032087,-7.1598573,-12.123292,-22.318699,-32.600624,-37.007843,-32.584652,-21.700375,-11.175295,-8.4988279,-17.350721,-35.202732,-54.564854,-67.18454,-68.666374,-60.739799,-49.904922,-43.436291,-45.268311,-54.182438,-65.128822,-72.551651,-73.518021,-68.859558,-62.000111,-56.593616,-54.605164,-55.84647,-58.828529,-61.985825,-64.362167,-65.532249,-65.22477,-63.247715,-59.857452,-56.132748,-53.763618,-54.128166,-57.220058,-61.314995,-63.857212,-63.156906,-59.766907,-56.46492,-56.651382,-62.100056,-71.555336,-81.201385,-86.809166,-86.22187,-80.578102,-73.494385,-68.781136,-68.212982,-70.777214,-73.765755,-74.823532,-73.481918,-71.179161,-69.904839,-70.579529,-72.392723,-73.544601,-72.757462,-70.360107,-68.089844,-67.742973,-69.684082,-72.356781,-73.220108,-70.499809,-64.53788,-57.783398,-53.397739,-53.386024,-57.461433,-63.323921,-68.084541,-69.863914,-68.588799,-65.644386,-62.811153,-61.282333,-61.325348,-62.571671,-64.48143,-66.542297,-68.154282,-68.533691,-66.985252,-63.51038,-59.267704,-56.315918,-56.500301,-60.039673,-64.785492,-66.881706,-62.705662,-51.060631,-34.258652,-17.286793,-5.3930807,-1.439813,-4.5711088,-10.965476,-16.169691,-17.558628,-15.448472,-12.310547,-10.768202,-11.796818,-14.311331,-16.30908,-16.642811,-16.078794,-16.824194,-20.813709,-27.961164,-35.671501,-40.095882,-38.43494,-30.838858,-20.639341,-12.666939,-10.615332,-15.024135,-23.083162,-30.339306,-33.240768,-30.98587,-25.639992,-20.589418,-18.408836,-19.493935,-22.224619,-24.389765,-24.814049,-24.074703,-23.883686,-25.644653,-29.246933,-32.966045,-34.55518,-32.775951,-28.301571,-23.343353,-20.21789,-19.800787,-20.910313,-21.059799,-18.117138,-11.806272,-4.087255,1.8263724,3.1841867,-0.91006559,-9.228302,-19.298117,-28.73992,-36.166397,-41.178822,-43.71109,-43.442448,-39.879471,-33.098034,-24.505487,-16.837557,-13.088899,-14.882005,-21.308508,-29.115759,-34.296482,-34.208035,-28.938551,-21.071304,-14.015308,-9.9964867,-9.0064907,-9.3326378,-9.2000875,-8.2948761,-8.0426073,-10.420664,-16.159245,-23.670809,-29.584766,-30.654432,-25.813478,-16.989487,-8.0710907,-2.6505878,-1.9876053,-4.4954062,-7.0335631,-7.0892439,-4.3671513,-0.75330603,1.2422919,0.42087585,-2.1676741,-3.9402573,-2.6446164,1.9254299,7.5548606,10.848238,9.2800627,2.7326288,-6.4266195,-14.702715,-19.345655,-19.583525,-16.588865,-12.417971,-8.7583876,-6.2786765,-4.8077126,-3.9494712,-3.5159388,-3.4522278,-3.4438646,-2.7020736,-0.27165106,4.2650661,10.213473,15.833533,19.123293,18.859291,15.216825,9.5721636,3.6656625,-1.2551175,-4.7239356,-6.6684437,-6.7965708,-4.3981433,1.1378661,9.4218521,18.533461,25.476984,27.568995,23.981371,16.415976,8.3601532,3.2762508,2.8102515,6.1316309,10.79254,14.491867,16.534454,18.009056,20.615999,25.036709,30.070631,33.233463,32.465481,27.773056,21.602757,17.571548,18.29693,23.725368,31.081474,36.523701,37.473732,34.137409,29.251911,26.245062,27.014252,30.763153,34.625751,35.641468,32.777012,27.684069,23.712271,23.820683,28.714512,36.365135,43.181866,46.081497,44.187439,39.175423,34.146896,31.789841,32.946079,36.36647,39.666912,40.800396,39.14706,35.665504,32.174664,30.323626,30.880033,33.640633,37.815723,42.479748,46.764717,49.790394,50.604748,48.418995,43.146339,35.900887,28.975658,25.052805,25.899775,31.249115,38.612736,44.33437,45.451744,41.372181,34.34623,28.345037,26.875107,30.956379,38.477547,45.387196,48.08646,45.626049,40.362595,36.618847,38.096535,45.581223,56.342239,65.62545,69.363853,66.476021,59.371197,52.380665,49.115753,50.397705,54.022114,56.439011,55.218731,50.688072,45.681351,43.576702,45.901707,51.073093,55.115879,53.951397,45.85627,32.592903,18.541105,8.3787489,4.7006731,6.9261909,12.000613,16.309866,17.586004,15.735541,12.305453,9.1594954,7.3245263,6.688642,6.5517836,6.4451499,6.5367851,7.3453989,9.0619993,11.093193,12.265788,11.610937,9.1645784,6.1458173,4.273912,4.5963073,6.5941439,8.2200756,6.9563789,1.3183836,-8.0949535,-18.665674,-26.942631,-30.288689,-28.066875,-21.739704,-13.91293,-6.9586148,-2.0339096,1.0080339,2.9167345,4.1322236,4.3172488,2.6335437,-1.4600625,-7.4649,-13.697653,-17.904587,-18.324163,-14.610828,-8.1130075,-1.351491,3.0378282,3.3924491,-0.33280417,-6.5992322,-12.926821,-16.860367,-16.895931,-13.051539,-6.8852401,-0.92838645,2.3065681,1.3968518,-3.2904191,-9.6443548,-14.696469,-16.033218,-13.091428,-7.6465635,-3.1345935,-3.0252283,-9.002182,-19.888506,-31.945005,-40.493534,-42.121017,-36.380009,-26.107534,-16.147964,-11.040809,-12.746498,-19.469904,-26.1455,-26.399794,-15.172654,9.0900011,43.562595,81.83194,116.0392,139.53636,149.03683,145.452,133.14005,117.93657,104.83354,96.29451,91.877052,89.205307,85.697586,80.123253,73.211769,67.086723,63.939758,64.744392,68.72197,73.792763,77.666298,78.902603,77.375359,73.997215,70.02121,66.42424,63.707798,62.084385,61.732098,62.807304,65.174248,68.118187,70.394539,70.739586,68.592789,64.538597,60.092216,56.869606,55.633053,55.841755,56.043491,54.882515,52.059147,48.577393,46.08242,45.719067,47.292198,49.32645,50.008549,48.373882,44.90881,41.131386,38.431515,36.993168,35.599171,32.520695,26.923986,19.81745,13.814821,11.7554,14.99218,22.417246,30.858929,36.64312,37.410896,33.166744,26.045012,19.057537,14.624515,13.677274,15.651247,19.119692,22.544151,24.74107,25.011284,23.129372,19.3706,14.542184,9.8285456,6.3462768,4.5765548,4.0624571,3.6784673,2.4039059,0.11608804,-2.1858809,-2.9736712,-1.2573638,2.6152356,7.0494313,10.195415,11.168952,10.596039,10.013021,10.495197,11.524542,11.036174,6.7844114,-1.8256875,-12.759603,-22.082289,-26.110418,-23.659191,-16.866652,-9.9459028,-6.5975323,-7.767314,-11.267613,-13.55115,-12.448057,-8.9627504,-6.8118515,-9.9041767,-19.412659,-32.458069,-43.431099,-47.248276,-42.516636,-32.559864,-23.577763,-21.022635,-26.41349,-36.539425,-45.513344,-48.383583,-44.092838,-36.033169,-29.942781,-30.472143,-38.459652,-50.439194,-60.548687,-63.666645,-58.031773,-46.027889,-32.895191,-24.193617,-23.349628,-30.394941,-42.292614,-54.472031,-62.731369,-64.664009,-60.132355,-50.819077,-39.282825,-28.067255,-19.231661,-14.318732,-14.459198,-20.253817,-31.311159,-45.728985,-60.063316,-70.200089,-73.003014,-67.975258,-57.899605,-47.81105,-42.595509,-44.439381,-51.643764,-59.64254,-63.7565,-62.063107,-56.570259,-51.867165,-52.035561,-57.799335,-65.837425,-70.834991,-69.034241,-60.96851,-51.489197,-46.911701,-51.016159,-62.469223,-75.392998,-82.806526,-80.803162,-70.831963,-58.666904,-50.770496,-50.40649,-55.945152,-62.319481,-64.526878,-60.809933,-53.483501,-47.026302,-44.878952,-47.165985,-50.826534,-51.944336,-48.598244,-42.27314,-36.914749,-36.317787,-41.610245,-50.458126,-58.426144,-61.539249,-58.413387,-50.740868,-42.050739,-35.71207,-33.444481,-35.054417,-39.212162,-44.476818,-49.834976,-54.582836,-57.958958,-59.078468,-57.364754,-53.153923,-47.898853,-43.640518,-41.958591,-43.04652,-45.536163,-47.226624,-46.283474,-42.182053,-35.867897,-29.13846,-23.726332,-20.66765,-20.233212,-22.252878,-26.417633,-32.266071,-38.925808,-44.966389,-48.691074,-48.849323,-45.366692,-39.567715,-33.641468,-29.59177,-28.282232,-29.155008,-30.777267,-31.83334,-31.90233,-31.528702,-31.592276,-32.465263,-33.581306,-33.74165,-31.962868,-28.282936,-23.955683,-20.858921,-20.456776,-22.946545,-27.107645,-30.937021,-32.688339,-31.72072,-28.714819,-25.210623,-22.799702,-22.447523,-24.273529,-27.804514,-32.446915,-37.844093,-43.915329,-50.601391,-57.527046,-63.829567,-68.298447,-69.789276,-67.725395,-62.442757,-55.200275,-47.820419,-42.094086,-39.187805,-39.29723,-41.678127,-45.015945,-47.943405,-49.469868,-49.165459,-47.099354,-43.663876,-39.442642,-35.182434,-31.794109,-30.234985,-31.201395,-34.728039,-39.944908,-45.233482,-48.829071,-49.628578,-47.774029,-44.639614,-42.155457,-41.790253,-43.747952,-46.847904,-49.184116,-49.208061,-46.620945,-42.559185,-38.959412,-37.463734,-38.489365,-40.990059,-43.038071,-42.889549,-39.931759,-34.989933,-29.839624,-26.211321,-24.844675,-25.11162,-25.40885,-24.106134,-20.538591,-15.508193,-11.006627,-9.2726259,-11.639255,-17.749588,-25.551594,-32.109589,-34.865543,-32.753162,-26.631886,-18.839172,-12.097975,-8.3286142,-7.9455738,-9.9413195,-12.637486,-14.640256,-15.470267,-15.564527,-15.732637,-16.453747,-17.453867,-17.788771,-16.328871,-12.312394,-5.637835,3.2164536,13.497474,24.436562,35.286839,45.188431,53.088543,57.923923,59.06208,56.746071,52.198593,47.209263,43.364624,41.359112,40.829071,40.846802,40.770523,40.872265,42.26416,46.091949,52.48716,60.010117,66.081306,68.288582,65.852928,60.328899,54.996212,53.163898,56.307945,63.141148,70.227608,73.861298,72.162682,66.180077,59.337658,55.528812,56.947845,62.903465,70.28083,75.352951,75.872299,72.236198,67.093155,63.672115,63.844036,67.038734,70.614983,71.43145,67.702026,60.088043,51.439377,45.347858,44.312431,48.490776,55.675636,62.476971,66.075928,65.638008,62.667439,60.12804,60.787853,65.638535,73.218117,80.213867,83.074783,79.829582,71.176697,60.266644,51.263512,47.412205,49.592678,56.080395,63.580402,68.93396,70.578682,69.040207,66.317719,64.626907,65.253494,68.093773,71.987518,75.489029,77.556702,77.8228,76.452377,73.856049,70.52002,67.010124,63.994701,62.095516,61.552769,61.916351,62.061165,60.655014,56.897434,51.104759,44.74749,39.8414,37.988247,39.583447,43.624557,48.210106,51.442223,52.257969,50.804276,48.250271,46.206821,46.053413,48.430355,53.027493,58.687962,63.782822,66.76693,66.760368,63.931919,59.476879,55.128136,52.391125,51.884205,53.156631,55.09145,56.637966,57.395744,57.670788,58.000332,58.539974,58.82626,58.152275,56.299747,54.025188,52.794266,53.785686,56.790993,59.864811,60.188782,55.805931,47.178066,37.45615,31.05018,31.167721,37.75238,47.158073,53.926888,53.756985,45.962372,33.952152,23.399714,19.135742,22.554279,31.004356,39.455513,43.403439,41.31739,35.28347,29.607584,28.301817,32.922733,41.892365,51.508728,57.924419,58.963284,54.897163,47.971981,41.119427,36.587444,35.101566,35.806206,36.864349,36.380627,33.264824,27.723206,21.194672,15.73392,13.065811,13.722744,16.709913,19.938879,21.279625,19.703556,15.874121,11.803234,9.7207575,10.78314,14.374477,18.415104,20.492683,19.136913,14.494188,8.0574284,1.7050436,-3.2937145,-6.6960645,-8.9597054,-10.526926,-11.308877,-10.759957,-8.462429,-4.7424173,-0.8057496,1.7736638,1.9039267,-0.40033957,-4.0417767,-7.4941134,-9.6458817,-10.286706,-9.9627066,-9.3817711,-8.8511248,-8.1725731,-7.0509119,-5.6667356,-4.9233675,-6.1021786,-10.096919,-16.725815,-24.610743,-31.754763,-36.493355,-38.244755,-37.615093,-35.833244,-33.915649,-32.1147,-29.987976,-26.995567,-23.174633,-19.392525,-16.966433,-16.867937,-19.02702,-22.217327,-24.663397,-25.061293,-23.42823,-21.25197,-20.787893,-23.830351,-30.609661,-39.438049,-47.357353,-51.508801,-50.539665,-45.307167,-38.48661,-33.263668,-31.78895,-34.207901,-38.767464,-42.897614,-44.620411,-43.467064,-40.401749,-36.872231,-33.652836,-30.270189,-25.414616,-18.080124,-8.6638403,0.76275909,7.2951136,8.7153778,4.7882276,-2.4782498,-9.8060493,-14.307692,-14.872259,-12.49853,-9.4490461,-7.8074193,-8.3362856,-10.283191,-12.147799,-12.833463,-12.417402,-12.080948,-13.300706,-16.851624,-22.236137,-27.847736,-31.724176,-32.445549,-29.724604,-24.469112,-18.378986,-13.3094,-10.647666,-10.880031,-13.457233,-17.014544,-19.925993,-21.029303,-20.210941,-18.506525,-17.560854,-18.648323,-21.784437,-25.507538,-27.577852,-26.279415,-21.569214,-15.318215,-10.392002,-9.0420723,-11.56465,-16.08005,-19.626205,-19.931547,-16.783558,-12.134656,-8.8761587,-9.048914,-12.616078,-17.552992,-21.161251,-21.735111,-19.508789,-16.310398,-14.206089,-14.06744,-15.017896,-15.110016,-12.766882,-8.0255823,-2.7597837,0.27660468,-1.001515,-6.8098178,-15.341533,-23.715588,-29.44367,-31.596006,-31.096008,-30.111595,-30.975561,-35.213673,-43.063385,-53.53141,-64.791725,-74.691498,-81.241249,-83.072037,-79.835899,-72.433121,-62.893032,-53.819786,-47.534512,-45.258797,-46.733597,-50.47794,-54.563713,-57.503315,-58.801353,-58.928528,-58.81509,-59.210606,-60.284073,-61.638817,-62.645325,-62.824402,-62.039993,-60.438961,-58.261642,-55.715115,-53.013805,-50.532684,-48.906948,-48.934345,-51.271072,-56.06675,-62.749664,-70.107956,-76.659012,-81.147507,-82.953873,-82.244415,-79.824852,-76.786339,-74.109062,-72.378944,-71.703468,-71.814278,-72.267906,-72.625832,-72.532288,-71.687057,-69.796638,-66.614113,-62.122013,-56.784184,-51.676704,-48.297531,-47.998287,-51.230331,-56.998859,-62.923859,-66.04657,-64.110764,-56.710548,-45.669418,-34.357933,-26.21921,-23.228794,-25.092472,-29.603514,-33.947865,-36.223377,-36.340065,-35.843933,-36.833977,-40.637409,-46.998508,-54.183395,-59.86208,-62.219135,-60.703213,-56.110935,-50.103477,-44.503967,-40.715767,-39.405643,-40.407692,-42.757236,-44.856098,-44.856323,-41.30035,-33.855633,-23.783443,-13.768888,-7.0041943,-5.8407788,-10.650574,-19.526045,-29.055052,-35.835766,-37.976971,-35.821629,-31.548952,-27.91497,-26.832348,-28.52504,-31.624434,-34.043304,-34.079811,-31.167074,-25.964308,-19.881681,-14.396892,-10.533453,-8.6755962,-8.6578455,-9.9456444,-11.766254,-13.184769,-13.218871,-11.069487,-6.4273391,0.30188173,8.0266094,15.311819,20.909582,24.225464,25.476738,25.462091,25.075563,24.845404,24.758617,24.460377,23.687569,22.648113,22.084743,22.950043,25.862822,30.66358,36.348953,41.452728,44.681496,45.460503,44.096935,41.493355,38.606079,35.978878,33.608685,31.171431,28.404757,25.366259,22.405481,19.916071,18.098665,16.944788,16.457275,16.902433,18.819572,22.671785,28.310665,34.637703,39.797432,41.924526,40.078526,34.804886,27.927418,21.629778,17.345528,15.130681,13.912749,12.452621,10.377973,8.576026,8.6399479,11.696246,17.387955,23.734993,28.056669,28.449007,24.920187,19.46151,14.975664,13.690454,16.001501,20.410065,24.53174,26.49765,25.869617,23.559067,20.919386,18.711584,16.680716,14.009458,10.276441,6.1750708,3.4085023,3.750314,7.8637342,14.679872,21.803625,26.751225,28.272642,26.94099,24.65521,23.397768,24.056381,26.054754,27.9825,28.74642,28.424877,28.22591,29.577038,32.985359,37.488762,41.132908,42.213699,40.474403,37.430931,35.538036,36.672817,40.89283,46.297901,50.147602,50.577732,47.847309,44.298771,43.003635,45.88707,52.476631,60.056969,65.163376,65.530197,61.333836,55.006485,49.765217,47.768425,49.001965,51.514698,52.780262,51.293854,47.422199,43.043037,40.28347,40.20256,42.236553,44.689865,45.875641,45.132229,43.081799,41.035549,40.007946,40.02206,40.144875,39.181511,36.528011,32.614456,28.675669,26.041487,25.427082,26.654856,28.918802,31.346935,33.470146,35.331524,37.252266,39.487656,42.023357,44.601696,46.877953,48.542351,49.32935,48.977837,47.261536,44.126377,39.831776,34.932293,30.041471,25.515177,21.316652,17.232943,13.339357,10.346457,9.4531622,11.63551,16.757006,23.149113,28.134001,29.379629,26.349466,20.890358,16.417761,16.0236,20.590166,28.120947,34.816551,37.327831,34.800392,29.372356,24.731613,23.608084,25.838242,28.345209,27.161497,20.249773,9.2588224,-1.0495855,-5.496593,-1.6802638,8.3709822,19.226561,25.225761,23.868887,17.311466,11.002069,10.287663,17.087496,28.689556,39.387478,43.902332,40.456295,31.64312,22.668325,18.168343,19.623579,24.884785,29.910456,31.430323,28.778955,23.841732,19.380342,17.054607,16.537563,16.245888,15.015797,13.393729,13.517273,17.60994,26.148251,37.059174,46.641941,51.731339,51.722713,49.089138,47.949963,51.508255,59.936359,70.058823,77.086243,77.389343,70.654297,60.133595,50.853069,46.845963,49.026459,54.885475,60.089767,60.971081,56.449909,48.363102,40.150265,34.78978,33.22226,34.111118,34.946243,33.725754,30.181675,25.861404,23.089312,23.478243,26.887196,31.423325,34.472385,34.156921,30.396345,24.975382,20.586855,19.38307,21.841822,26.57588,31.185047,33.658497,33.514301,32.007175,31.274683,32.925365,36.923965,41.475719,44.02179,42.776077,37.874397,31.412104,26.304016,24.62446,26.416492,29.689486,31.604223,30.127357,25.165306,18.528725,12.807549,9.8850441,9.9879484,11.775657,13.300791,13.167112,11.177005,8.1720457,5.3129625,3.3479834,2.3158932,1.750903,1.1076947,0.051126312,-1.5379388,-3.7070487,-6.4860783,-9.7484541,-13.02511,-15.528658,-16.502163,-15.709413,-13.690316,-11.512989,-10.121758,-9.7308054,-9.7491865,-9.3598251,-8.3583612,-7.5809565,-8.4801226,-12.028267,-17.704157,-23.387733,-26.426617,-25.292927,-20.723543,-15.468313,-12.670896,-13.883152,-18.064173,-22.321699,-23.976181,-22.556217,-20.296665,-20.6842,-25.964806,-35.326191,-45.102322,-50.997219,-50.89959,-46.357315,-41.612576,-40.744164,-44.814442,-51.010403,-54.482769,-51.74831,-43.380856,-34.084042,-29.929897,-34.451004,-46.122879,-58.953114,-65.924866,-63.185696,-52.364372,-39.562008,-31.66103,-32.259186,-39.723373,-48.473164,-52.578049,-49.375034,-40.922832,-32.55341,-29.583866,-34.275875,-44.801476,-56.619606,-65.205498,-68.41449,-67.200172,-64.54158,-63.480011,-65.508514,-70.115349,-75.466965,-79.598053,-81.371017,-80.809219,-78.849236,-76.805069,-75.807907,-76.355667,-78.040062,-79.573845,-79.254845,-75.848007,-69.540543,-62.374664,-57.656544,-58.364769,-65.281754,-75.969109,-85.442535,-88.495644,-82.572784,-69.563957,-55.320107,-46.908447,-48.966965,-61.151176,-78.157898,-92.399185,-97.897667,-93.269844,-82.186302,-71.139671,-65.859116,-68.404129,-76.47493,-85.133919,-89.767899,-88.527367,-82.947472,-76.62146,-72.921654,-73.185097,-76.331421,-79.919289,-81.808777,-81.365746,-79.580116,-78.214424,-78.656525,-81.204376,-85.113632,-89.20932,-92.564796,-94.828819,-96.11364,-96.668556,-96.643623,-96.088776,-95.09803,-93.897003,-92.755951,-91.79567,-90.871628,-89.665627,-87.939529,-85.754066,-83.472641,-81.535988,-80.190491,-79.397568,-79.011986,-79.081512,-79.994972,-82.295952,-86.244141,-91.437439,-96.81749,-101.12707,-103.54554,-104.0525,-103.22112,-101.5377,-98.713074,-93.51162,-84.307747,-70.082832,-51.247982,-29.755693,-8.4126692,10.186655,24.468714,34.019684,39.135555,40.260284,37.795422,32.385139,25.322872,18.558496,14.070765,12.903684,14.538033,17.15036,18.735699,18.427172,17.117968,16.894407,19.582975,25.357059,32.366467,37.697285,39.074692,36.207348,30.909716,25.967577,23.552938,24.248764,27.244152,31.378811,36.118839,41.668514,48.180279,54.811398,59.578339,60.361908,56.462349,49.516624,42.900921,39.791428,41.122749,44.932461,47.73629,47.148121,43.949432,42.010258,45.846733,57.28352,73.492195,87.956856,94.050339,89.104088,76.354248,63.370419,57.779484,62.861847,75.735985,89.24054,96.296371,94.001129,84.956696,75.171944,70.077599,71.304001,76.214333,80.263023,80.385536,77.053223,73.672409,73.888573,78.773918,85.885666,90.834885,90.264015,84.187683,76.116364,70.890625,71.667747,78.013802,86.280022,91.939796,92.350037,88.221725,82.987556,80.57711,83.0065,89.151176,95.245155,96.634079,89.737396,73.291695,48.535759,18.592989,-12.445256,-40.366394,-61.526867,-73.452881,-75.348076,-68.336357,-55.214523,-39.656349,-25.106071,-13.813823,-6.4275632,-2.2756417,-0.11889913,1.059293,1.6160849,1.3118489,-0.2641874,-3.2092226,-7.0538993,-10.877885,-13.732773,-15.153484,-15.482286,-15.789642,-17.351574,-20.877369,-25.875071,-30.564264,-32.526981,-29.891005,-22.469885,-12.191904,-2.452626,3.3893089,3.6242502,-0.97423679,-7.584435,-12.820961,-14.440939,-12.330154,-8.280405,-4.8006945,-3.7411416,-5.521183,-9.2694921,-13.571475,-17.202208,-19.396544,-19.67993,-17.664989,-13.192851,-6.801383,-0.070789635,4.6726189,5.4046869,1.6928639,-4.6356716,-10.066827,-11.084866,-6.0723925,3.7128508,14.723932,22.96133,25.977442,23.878967,18.829893,13.513968,9.6289902,7.3420954,5.889626,4.6930757,4.0684381,4.9983277,8.2009497,13.280578,18.679237,22.527689,23.796953,22.903822,21.31905,20.465334,20.72974,21.332081,21.152534,19.882879,18.589964,19.175966,23.027964,29.782751,37.129841,41.911957,41.904526,37.167805,30.103239,24.158205,21.963326,24.013313,28.61865,33.048252,35.086517,34.073158,30.922663,27.296988,24.574224,23.251143,23.018688,23.277332,23.639303,24.090427,24.806208,25.865028,27.117937,28.287661,29.164621,29.710522,29.993435,30.047184,29.813515,29.238905,28.433449,27.712458,27.415447,27.587255,27.760958,27.065653,24.683807,20.426765,15.068642,10.175068,7.446702,7.8873324,11.233566,15.959105,19.874573,21.040838,18.570395,12.963699,5.8639164,-0.6185866,-4.6904569,-5.4379296,-2.9769354,1.7983366,7.6837316,13.603819,18.834915,22.978222,25.792624,27.063875,26.62558,24.515629,21.126286,17.195255,13.587758,10.980132,9.639431,9.4399614,10.08273,11.330503,13.055433,15.059662,16.845062,17.60672,16.58803,13.636028,9.5550938,5.8915281,4.1315002,4.7461562,6.7410731,8.1370554,7.2154799,3.7808657,-0.44376078,-2.6967957,-0.90607202,4.8091507,11.912054,16.794285,16.952744,12.628654,6.7863846,3.3349226,4.6511765,9.9844542,15.814464,18.000301,14.388131,6.2228775,-2.5359349,-7.5497947,-6.5941305,-0.65383816,6.9842868,12.933258,15.703231,16.231714,16.751286,18.929703,22.64134,26.184566,27.677626,26.532728,23.904516,21.809481,21.604876,22.976715,24.188318,23.396725,20.054405,15.357168,11.412489,9.74965,10.277959,11.463488,11.592578,10.183735,8.4933052,8.7155008,12.426763,19.370396,27.433905,33.821285,36.596687,35.56469,31.990162,27.520079,23.201393,19.305204,15.939335,13.746448,13.903814,17.243971,23.141109,29.17716,32.158157,30.05266,23.597609,16.328541,12.73967,15.568262,23.925486,33.587799,39.411602,38.415291,31.555153,23.011465,17.410458,16.785467,19.282648,20.485905,16.49902,6.7378416,-5.4505897,-14.805146,-17.520924,-13.77502,-7.7312756,-4.9718804,-8.9657068,-18.810835,-29.677481,-35.670834,-33.324673,-23.587358,-11.149997,-1.639158,1.5279791,-1.2779777,-6.7109346,-10.94773,-12.169162,-11.449992,-11.603288,-14.87317,-21.084389,-27.506329,-30.535376,-28.09878,-21.202358,-13.57508,-9.5591831,-11.504749,-18.261309,-25.716341,-29.102898,-25.737392,-16.588272,-5.7704663,1.7192866,2.6915004,-2.6642487,-11.163521,-18.62491,-22.2132,-21.729389,-19.179113,-17.056515,-16.562361,-16.946268,-16.359594,-13.565493,-9.2576981,-5.9911666,-6.6622934,-12.486352,-21.827751,-30.759062,-35.140949,-33.020756,-25.88262,-17.94002,-13.833215,-16.05966,-23.620052,-32.63258,-38.508038,-38.406914,-32.613625,-24.166658,-17.100603,-14.371098,-16.573317,-21.990711,-27.740891,-31.274122,-31.458164,-28.844687,-25.170952,-22.446526,-22.029285,-24.001694,-27.032743,-28.799669,-26.897251,-19.954317,-8.48417,5.0224223,16.971849,24.218237,25.543062,22.236835,17.380554,14.161068,14.159299,16.614222,19.099037,19.17894,15.999011,10.796925,6.0305181,3.7159495,4.0848107,5.4535356,5.3877306,2.3857641,-3.0403543,-8.6046429,-11.658157,-10.856427,-7.0158639,-2.6251416,-0.34115592,-1.4202764,-5.0366225,-8.8508863,-10.42239,-8.591116,-4.0524268,1.1118063,4.5698552,4.8559623,1.8975232,-3.2026088,-8.8706102,-13.810266,-17.439463,-19.901707,-21.762775,-23.610144,-25.751362,-28.122896,-30.416325,-32.337776,-33.84811,-35.224819,-36.867939,-38.934673,-41.040096,-42.288651,-41.730545,-39.045078,-35.019024,-31.418539,-30.175833,-32.270809,-36.965286,-41.932941,-44.329514,-42.269871,-35.886711,-27.358677,-19.889793,-16.226297,-17.526184,-23.118187,-31.117523,-39.390144,-46.286423,-50.873436,-52.816017,-52.239124,-49.750687,-46.479294,-43.824821,-42.81086,-43.344051,-43.965359,-42.510822,-37.506718,-29.491587,-21.288713,-16.781044,-18.701754,-26.72537,-37.145176,-44.556412,-44.722885,-36.98909,-24.775839,-13.806968,-9.0737629,-12.296538,-21.305254,-31.568445,-38.818966,-41.168537,-39.56908,-36.604591,-34.610355,-34.383526,-35.17691,-35.724545,-35.403744,-34.686356,-34.657513,-36.07732,-38.734768,-41.54834,-43.280571,-43.310387,-41.930286,-40.038223,-38.530087,-37.849648,-37.943459,-38.518147,-39.298576,-40.079247,-40.621826,-40.625439,-39.914932,-38.734241,-37.839905,-38.17495,-40.232857,-43.541824,-46.717361,-48.180721,-47.143047,-44.195335,-41.044804,-39.504898,-40.372478,-42.933582,-45.419743,-46.089512,-44.195652,-40.223213,-35.344524,-30.604439,-26.492563,-23.171141,-21.029099,-20.914206,-23.647331,-29.070881,-35.416836,-39.722687,-39.331837,-33.649803,-24.945066,-17.448687,-15.085717,-19.146341,-27.37689,-35.147701,-38.050774,-34.348476,-25.787676,-16.348616,-9.820116,-7.7814751,-9.1942377,-11.649083,-13.21228,-13.522835,-13.475342,-13.93567,-14.649566,-14.29321,-11.666321,-7.063755,-2.6387558,-1.2743049,-4.6193142,-11.66506,-18.981543,-22.631922,-20.598988,-14.134651,-7.1068225,-3.7297418,-6.1240277,-13.237879,-21.724766,-28.078934,-30.568024,-29.771786,-27.590124,-25.642551,-24.288797,-22.888964,-20.890696,-18.690176,-17.442928,-17.925423,-19.424322,-19.751915,-16.683943,-9.9531221,-2.2895961,1.5585434,-2.4409113,-14.711459,-30.983572,-44.02034,-47.398945,-39.170536,-23.117172,-6.6927199,3.2327595,4.2952008,-0.17131932,-3.4287434,0.2703408,11.880693,26.70451,37.026554,36.674248,24.766857,6.42731,-9.9442511,-17.202682,-13.159257,-1.3912705,11.144118,18.148706,17.282522,10.921397,4.1697531,1.5294662,4.2947941,10.143086,14.966832,15.641813,11.955116,6.5535469,3.071187,3.7289395,7.9770875,13.039295,15.976524,15.911568,14.941596,17.09016,25.885502,42.037983,62.658409,82.537361,96.746338,103.02694,102.57977,98.877945,95.348022,93.429199,92.201149,89.695992,84.8797,78.858879,74.424171,74.208221,78.728874,85.714798,91.277039,92.235153,88.095032,81.363434,75.976448,74.872887,78.310173,83.995667,88.852554,91.118698,91.285454,91.254539,92.421494,94.21077,94.289154,90.431847,82.710205,74.269188,69.844147,72.769417,82.444496,94.127449,101.47905,100.40779,91.750046,80.931564,74.669685,76.753311,85.627014,95.391769,99.607979,95.426537,85.342926,75.449684,71.403992,74.841469,82.624046,89.336266,91.203102,88.642487,85.661377,86.565567,92.394447,99.734909,102.90871,98.10186,86.524513,74.231186,68.488144,73.006073,85.271812,97.913628,103.35172,98.728149,87.830704,78.669868,78.245369,87.933723,102.53728,113.62231,114.9348,106.33044,93.669273,84.81852,84.45269,91.062309,98.028923,97.903236,86.96933,67.148758,44.223969,23.873404,8.3757591,-3.8199737,-15.61534,-27.922237,-38.075241,-41.286091,-34.179787,-17.88378,1.6387944,16.458948,20.995596,14.994212,3.2583568,-7.617918,-13.307597,-13.944426,-13.153553,-14.80195,-19.862162,-25.597916,-27.577227,-23.005772,-12.959895,-1.8971179,5.2448249,6.3436384,3.4784646,1.4177045,4.2297087,12.330009,21.988317,27.632303,25.399084,15.560301,2.2572625,-9.1843157,-15.48068,-17.006863,-16.845003,-18.112688,-21.56267,-25.158882,-25.851467,-22.174414,-15.704444,-10.252331,-9.3025923,-13.500375,-19.9932,-24.159761,-22.597462,-15.357047,-5.922287,1.0250573,2.5177109,-1.0611891,-6.6383381,-10.819585,-12.229082,-12.178932,-13.277933,-17.084248,-22.579586,-26.630581,-26.151104,-20.431234,-11.940964,-4.9649715,-2.9394436,-6.2782516,-12.159082,-16.411709,-16.238052,-11.959323,-6.6790333,-4.1639152,-6.4038796,-12.445313,-19.163631,-23.328131,-23.52479,-20.728003,-17.322151,-15.417694,-15.667321,-17.28561,-19.039442,-20.318693,-21.458281,-23.15613,-25.564373,-27.864155,-28.716604,-27.261778,-23.881361,-20.099783,-17.64397,-17.322115,-18.529799,-19.736422,-19.589293,-17.826601,-15.348573,-13.429905,-12.700402,-12.688148,-12.295565,-10.862514,-9.0004463,-8.4961519,-11.230115,-17.768623,-26.586523,-34.52734,-38.344219,-36.47187,-30.007599,-22.319559,-17.473412,-18.304087,-25.111586,-35.583435,-45.90107,-52.434757,-53.229652,-48.670643,-41.133018,-33.86512,-29.625568,-29.644073,-33.296467,-38.572399,-43.075924,-45.081985,-44.167778,-41.170551,-37.572975,-34.705673,-33.208733,-32.987259,-33.563679,-34.497955,-35.56839,-36.650116,-37.500397,-37.738041,-37.118778,-35.90366,-34.950447,-35.300228,-37.416416,-40.581264,-42.974514,-42.569256,-38.410496,-31.486166,-24.545134,-20.822201,-22.323807,-28.65625,-37.100277,-43.916492,-46.155293,-42.985214,-35.886372,-27.735939,-21.399511,-18.591007,-19.462328,-22.897636,-27.161137,-30.530369,-31.750139,-30.321516,-26.653006,-21.991869,-18.016541,-16.126938,-16.738785,-19.031073,-21.412785,-22.517193,-22.103912,-21.213808,-21.382851,-23.406477,-26.555721,-28.917522,-28.75355,-25.960878,-22.503107,-21.296326,-24.134298,-30.049974,-35.400551,-35.896114,-29.434237,-17.894707,-6.5567737,-1.2761003,-5.0575953,-16.160101,-28.978943,-37.21384,-37.372841,-30.46633,-20.936737,-13.661186,-11.049524,-12.074183,-13.667486,-13.305662,-10.869848,-8.5097189,-8.7330303,-12.230146,-17.1003,-20.093113,-18.984518,-14.35214,-9.4135714,-7.9536681,-11.729981,-19.137457,-26.069658,-28.420551,-24.577019,-16.293961,-7.4704475,-1.7460392,-0.54942137,-2.8003967,-6.2493415,-9.3221378,-12.093317,-15.763476,-21.173836,-27.604263,-32.861,-34.672626,-32.404716,-27.814478,-24.202888,-24.435646,-29.111485,-36.096027,-41.760769,-43.166359,-39.84169,-34.092644,-29.709648,-29.894712,-35.613464,-45.2145,-55.362099,-62.628658,-64.885674,-61.928665,-55.277569,-47.456493,-41.122002,-38.27206,-39.643547,-44.409233,-50.346161,-54.589729,-54.83382,-50.498974,-43.234077,-36.336899,-33.236164,-35.75473,-43.093605,-52.142628,-59.000614,-60.894024,-57.453979,-50.687763,-43.738815,-39.1992,-37.929462,-38.964344,-40.407398,-40.668404,-39.289482,-36.95467,-34.818214,-33.669991,-33.476048,-33.525333,-33.014759,-31.661776,-29.965723,-28.980066,-29.739086,-32.649887,-37.154976,-41.831779,-44.908913,-45.010086,-41.832352,-36.450222,-31.039991,-28.039644,-29.035509,-33.876183,-40.502686,-45.704556,-46.54884,-41.829666,-32.790585,-22.687187,-15.345038,-13.409873,-17.165516,-24.493355,-31.934044,-36.24453,-35.64642,-30.223478,-21.457142,-11.33805,-1.6075332,6.5617599,12.508862,15.9415,16.932358,16.026882,14.234049,12.713573,12.238706,12.777305,13.55286,13.647801,12.793333,11.76907,12.031076,14.709468,19.617783,25.012251,28.403091,28.011425,23.959963,18.374674,14.237859,13.661008,16.661991,21.237307,24.679533,25.271627,23.24818,20.430395,18.85326,19.38427,21.295824,23.043873,23.618979,23.433884,24.064377,27.031874,32.53933,39.132664,44.57428,47.310036,47.436451,46.42786,45.801193,45.728039,44.696732,40.59087,32.483898,21.844746,12.173262,7.1554823,8.4936209,14.858233,22.685825,28.299269,29.934046,28.354656,25.770514,23.971857,23.121042,22.077101,19.91214,17.312271,16.59004,20.084124,28.033245,37.587898,43.97052,43.29549,35.26886,23.862055,15.283646,14.370607,21.665714,33.102589,42.561256,45.672367,42.410954,36.819077,34.103863,37.096722,44.45013,51.73481,54.61726,51.896034,46.308746,42.575348,44.049271,50.293373,57.252804,59.917492,55.675598,46.109863,36.054337,30.578335,31.91717,38.348305,45.647678,50.030315,50.539139,49.315491,49.687363,53.504475,59.618294,64.567009,64.986595,60.084747,52.475452,46.768879,46.793755,53.20565,62.968796,70.999359,72.940056,67.419731,56.575783,44.718285,36.071587,32.902863,34.921787,39.978386,45.393002,49.095692,50.105621,48.404343,44.567123,39.480206,34.212009,29.901155,27.524113,27.576872,29.859678,33.540226,37.497242,40.754391,42.768639,43.462372,43.077381,42.018867,40.789314,39.964611,40.088894,41.442638,43.8036,46.412647,48.259361,48.567169,47.170574,44.515991,41.289886,37.978489,34.742218,31.732126,29.567438,29.456718,32.638325,39.355511,48.085938,55.772186,59.218414,56.959328,50.387848,43.21434,39.352753,40.453396,44.718666,47.950691,46.336788,39.220531,29.939278,23.96467,25.37322,33.910835,44.69479,50.965061,48.272068,37.430801,24.246302,16.05603,17.218767,26.422598,37.551151,43.558018,40.857193,31.424923,21.332428,16.759695,20.136705,28.874054,37.359051,40.732254,37.881809,31.758139,27.00647,26.692451,30.382378,34.761368,36.173042,33.197624,27.504677,22.531837,21.077471,23.551943,28.027096,31.858789,33.57217,33.638443,33.716793,35.11237,37.72821,40.301853,41.640205,41.76004,41.927692,43.506958,46.534477,49.255768,49.171154,44.96508,37.894539,31.457666,29.325817,32.817101,39.657291,45.032276,44.431973,36.536617,24.269836,13.264509,8.6334562,12.025996,20.766796,29.549759,33.563297,31.087297,24.023512,16.186317,10.575815,7.4114251,4.1207628,-2.8028364,-15.308995,-32.219833,-49.505314,-62.199768,-66.83535,-63.059662,-53.651207,-43.056862,-35.313492,-32.421711,-33.878777,-37.423298,-40.45406,-41.343098,-40.028019,-37.711002,-35.968704,-35.84436,-37.436108,-40.147987,-43.34668,-46.907269,-51.217175,-56.595684,-62.542786,-67.438332,-69.088112,-65.958923,-58.401134,-49.017853,-41.758068,-40.076408,-45.137352,-55.109119,-66.006615,-73.639061,-75.571419,-72.035507,-65.404839,-58.725056,-54.287849,-53.047611,-54.980038,-59.804699,-67.326668,-77.097214,-87.777374,-96.958237,-101.91676,-101.04268,-95.01638,-86.792786,-80.153519,-77.585373,-78.819473,-81.058899,-80.866219,-76.561081,-69.558144,-63.697487,-62.902431,-68.619606,-78.686348,-88.39724,-93.14856,-91.045799,-83.892708,-76.007668,-71.644066,-72.574966,-77.180817,-81.371284,-80.592232,-71.702606,-53.862247,-28.378843,1.9187832,33.194351,60.908779,80.314812,87.555618,81.23613,63.656487,40.687222,19.842789,7.2004681,4.7055984,9.420577,15.282022,16.477737,10.558357,-0.47480953,-11.654965,-18.113878,-17.830393,-12.469872,-5.9938374,-2.112675,-2.26285,-5.2763691,-8.6849155,-10.548697,-10.509174,-9.5019598,-8.6188803,-8.1873169,-7.8297963,-7.3586583,-7.590229,-10.165525,-16.273718,-25.178198,-33.825935,-38.193661,-35.756081,-27.466005,-17.713207,-11.957441,-13.342765,-20.469278,-27.935106,-29.533329,-22.203236,-8.2144003,5.9100938,13.162556,10.190532,-0.7865786,-13.465319,-21.356524,-21.593357,-16.290627,-10.754393,-9.8823595,-15.157309,-24.071926,-32.095154,-35.632332,-33.951748,-28.984478,-23.490955,-19.153309,-15.981771,-13.233418,-10.809114,-9.7678757,-11.415095,-15.706497,-20.4261,-22.122316,-18.426386,-10.155263,-1.5010154,2.1829722,-2.2344608,-13.334448,-25.583284,-32.467171,-30.427225,-21.068645,-10.181132,-4.1765132,-6.2294345,-14.568848,-23.908985,-28.942072,-27.538931,-21.646109,-15.525176,-12.758505,-14.133668,-17.709555,-20.729925,-21.785633,-21.613117,-22.075563,-24.288721,-27.45878,-29.379251,-28.196531,-24.037937,-19.178385,-16.532141,-17.553177,-21.115128,-24.246662,-24.223362,-20.497223,-15.047223,-10.899835,-9.9313107,-11.607074,-13.608622,-13.867119,-12.417165,-11.573509,-14.16729,-21.089233,-30.019215,-36.475147,-36.654434,-30.165287,-20.669132,-13.811482,-13.693618,-20.218718,-29.135664,-34.810009,-33.893566,-27.43092,-19.990997,-16.435009,-18.541582,-23.794809,-27.149323,-24.543919,-15.753209,-4.6386557,3.3490493,4.7062058,0.073564894,-6.3275084,-9.559144,-7.1624818,-0.58309048,5.9957666,8.4842091,5.4254961,-1.3550088,-8.2010784,-11.976207,-11.663228,-8.2955179,-3.6005199,1.383997,6.6145301,12.160125,17.062088,19.11791,16.046057,7.3357997,-4.605854,-15.064296,-19.274708,-15.033607,-4.0225024,9.0388346,18.925508,22.592031,20.433271,15.514127,11.449333,10.364307,12.128996,15.08222,17.481651,18.582735,18.718498,18.581503,18.462208,18.093086,17.145554,15.841599,15.050046,15.691884,17.900351,20.654179,22.292871,21.64959,19.015833,16.191284,15.474712,18.192188,23.715065,29.631004,33.00074,31.953014,26.689762,19.374159,13.053625,10.276456,12.109989,17.919928,25.813213,33.392044,38.485023,39.69754,36.744068,30.530136,22.911087,16.114172,11.98876,11.413213,14.160644,19.257275,25.535307,31.948528,37.443275,40.611511,39.652527,33.027657,20.632442,4.7215419,-10.29777,-19.512398,-19.925911,-12.275885,-0.99408734,7.9219909,10.037143,4.7793989,-4.5039678,-12.784032,-16.465937,-15.391473,-12.474925,-11.302598,-13.398015,-17.069548,-18.651287,-15.271671,-7.191896,1.9784759,7.4293303,6.2548714,-0.58800828,-8.8232985,-13.571313,-12.431828,-6.8878169,-1.1259924,0.87997931,-1.9719816,-7.2911949,-10.971981,-10.104732,-5.0207987,0.89315778,3.4435163,0.4028917,-7.0244474,-14.948045,-19.175238,-17.64901,-11.439648,-3.8352656,1.6905886,3.2602825,1.115916,-3.1541398,-7.8879561,-12.169916,-15.782836,-18.61821,-20.232929,-19.996984,-17.681829,-13.914144,-10.00897,-7.2214713,-5.9712539,-5.6670327,-5.3075771,-4.4066167,-3.4886651,-3.6968412,-5.7457895,-9.0174122,-11.580712,-11.283148,-7.2517467,-0.75634837,5.2552276,7.7596602,5.4114766,-0.67712474,-7.6226358,-12.444604,-13.621966,-11.572008,-7.8943896,-4.0868516,-0.73904097,2.2588522,4.8262382,6.0524416,4.5812225,-0.03054885,-5.9273376,-8.7541847,-3.2216794,14.155816,42.65733,76.806335,108.21383,128.97415,134.86229,126.70749,109.38802,89.216209,71.24881,57.856384,48.946262,43.230247,39.489193,37.097412,35.788429,35.200203,34.764137,34.057121,33.247822,33.136108,34.622082,37.946121,42.300941,46.186699,48.327477,48.506775,47.691105,47.305454,48.161114,49.824734,50.932716,50.267864,47.829964,45.080589,44.096939,46.151794,50.692142,55.475128,57.857239,56.438927,51.991261,47.036797,44.32967,45.196007,48.776287,52.60973,54.137428,52.146217,47.287968,41.464607,36.609116,33.706001,32.619183,32.664047,33.352058,34.697433,36.896362,39.724506,42.231136,43.076817,41.338631,37.211174,32.055519,27.701559,25.444838,25.414125,26.729626,28.306948,29.696535,31.323416,33.940567,37.706295,41.613548,43.787739,42.563366,37.665028,30.675159,24.388931,21.371683,22.567223,26.800526,31.46797,33.981953,33.097763,29.380589,24.646801,20.845613,19.112886,19.495663,21.318287,23.738842,26.021595,27.406939,26.891451,23.369652,16.303429,6.5671258,-3.2215281,-9.419055,-9.0283308,-1.5129215,10.360439,21.369883,26.164951,21.937155,9.9762135,-4.8178086,-16.278894,-19.935806,-14.995608,-4.329226,7.4021626,16.296492,20.942225,22.439085,22.916031,23.666145,24.16703,22.585043,17.332315,8.536643,-1.6360128,-10.07714,-14.543392,-14.973945,-13.422453,-12.623646,-14.126555,-17.22677,-19.419029,-18.096401,-12.406593,-4.0645623,3.4057195,6.5297999,3.6888473,-4.196548,-14.421465,-24.090294,-31.489771,-36.448784,-39.666298,-41.700008,-42.461987,-41.580593,-39.241425,-36.690643,-35.804943,-37.864727,-42.368523,-46.854664,-48.094097,-44.062416,-35.455887,-25.672256,-19.096254,-18.63135,-23.973648,-31.724009,-37.315414,-37.59906,-32.528778,-24.96586,-18.817289,-16.738028,-18.82439,-23.005178,-26.706949,-28.59185,-29.226854,-30.355486,-33.410629,-38.371464,-43.739998,-47.574093,-48.773697,-47.693283,-45.695393,-44.051823,-43.054512,-42.004459,-40.059807,-37.262753,-34.909424,-34.898476,-38.442177,-45.022526,-52.353462,-57.463932,-58.275158,-54.725681,-48.788433,-43.421524,-41.115601,-42.862892,-48.014656,-54.911243,-61.760822,-67.246201,-70.669525,-71.808365,-70.782166,-68.06826,-64.55088,-61.375526,-59.524883,-59.303299,-60.07951,-60.531296,-59.315956,-55.794659,-50.385067,-44.359695,-39.256802,-36.284969,-36.024189,-38.459816,-43.14389,-49.272728,-55.666466,-60.848907,-63.417042,-62.63467,-58.878857,-53.510086,-48.060722,-43.162781,-37.971497,-30.651592,-19.812485,-6.0241518,7.710485,17.126585,19.048485,13.542418,4.3980808,-2.6246052,-2.9392197,4.1767931,15.063808,23.788176,25.685835,20.183922,11.129707,4.3936853,4.2422023,10.763114,19.957912,26.399778,26.722557,21.706739,15.68324,13.729949,18.527405,28.868286,40.64455,49.489532,53.249916,52.730442,50.448647,48.505463,47.186272,45.236458,41.451183,36.237549,31.853411,31.043818,35.022461,42.288738,49.22356,52.168079,49.634537,43.183399,36.40052,32.68232,33.299725,36.946625,40.916229,42.954567,42.483997,40.470226,38.253551,36.386902,34.411392,31.6756,28.432318,26.198439,26.942558,31.618628,39.159008,46.790916,51.60107,52.328823,50.130276,47.73761,47.565228,50.079777,53.57877,55.522366,54.441525,51.026955,47.596451,46.332829,47.604355,49.645798,49.884605,46.95388,41.856796,37.292,35.476013,35.967899,35.15786,28.043856,11.357244,-13.923239,-42.381317,-66.597595,-80.851082,-83.902649,-79.236992,-72.711449,-69.130875,-69.829903,-72.590866,-73.696327,-70.630905,-63.695801,-55.664211,-49.926266,-48.469582,-50.9715,-55.407639,-59.557186,-62.310699,-63.993469,-65.70179,-68.303772,-71.85601,-75.741562,-79.250298,-82.044678,-84.158401,-85.630859,-86.203156,-85.419472,-83.090965,-79.712761,-76.40786,-74.328308,-73.904892,-74.515884,-74.883324,-73.965294,-71.714188,-69.119637,-67.458694,-67.265144,-67.775528,-67.30159,-64.319214,-58.529655,-51.128441,-44.061523,-38.766449,-35.287838,-32.41177,-28.748751,-24.000095,-19.472809,-17.400393,-19.457005,-25.44404,-33.066517,-39.020668,-40.753803,-37.80302,-31.88426,-25.702087,-21.257423,-18.71727,-16.510435,-12.514277,-5.5276084,3.8963342,13.722612,21.570255,25.980062,27.085703,26.390625,25.88673,27.058229,30.259579,34.665203,38.692547,40.664005,39.488506,35.196568,29.164518,23.851416,21.962784,25.214634,33.196468,42.98933,49.977436,49.715927,40.070061,22.53186,1.9138117,-15.579529,-25.019211,-24.835581,-17.278658,-7.0752606,0.95019126,4.035006,2.3770761,-1.512004,-4.4633327,-4.3484478,-0.98801959,4.0190301,8.2643576,9.7108908,7.5506034,2.4641912,-3.71351,-8.7485428,-10.923791,-9.8066864,-6.538939,-3.4163775,-2.8050959,-5.8307343,-11.550164,-17.215059,-19.695717,-17.401052,-11.564338,-5.9567208,-4.9382472,-10.817282,-22.075361,-33.678173,-39.5257,-35.772083,-23.101254,-6.5530715,7.0918202,12.88888,10.187055,2.5619481,-4.6347113,-7.5210171,-5.7139635,-1.9817594,0.072679617,-1.3545953,-5.090734,-7.9786038,-7.2552557,-2.6072426,3.5408392,7.6929483,7.7261777,4.392982,0.82060826,0.33629107,4.1180015,10.298623,15.161016,15.622677,11.319495,4.8666396,0.11993244,-0.37381065,2.9999013,7.3199539,9.2507744,7.4072909,3.324847,0.36153108,1.2972245,6.3012662,12.70264,16.758982,16.235531,12.014987,7.5819874,6.6542673,10.508561,16.81633,20.858397,18.44932,8.7602091,-4.7598624,-16.014881,-19.529221,-13.44437,-0.51574028,13.41064,22.497644,23.809649,18.459801,10.568469,4.8256264,4.1015077,8.3204718,14.959694,20.632221,22.777403,20.647787,15.324043,9.0051212,4.0452023,2.1287858,3.7731209,8.2059937,13.624619,17.81707,19.008442,16.623039,11.565101,5.782311,1.2525482,-1.0688403,-1.6960574,-2.1198845,-3.6376748,-6.262537,-8.499918,-8.2588482,-4.3956895,2.12515,8.3339682,10.748793,7.4608884,-0.46726602,-9.2548447,-14.303305,-12.714763,-4.9700594,5.2321768,12.894696,14.29675,8.7855883,-1.1150584,-11.147509,-17.327209,-17.376192,-11.009777,0.66765529,15.917336,32.686584,48.520294,60.604778,66.459152,65.195648,58.573189,50.868973,47.170986,50.755829,61.030933,73.447701,81.731216,81.335052,72.136475,58.699314,47.831188,44.816143,50.551033,61.285786,71.066551,75.316711,73.328133,68.189079,64.349098,64.513885,67.921188,71.061714,70.266197,64.370193,55.673862,48.589088,46.896477,51.409306,59.511765,66.782578,69.592117,67.034134,61.101929,55.204525,52.120777,52.680664,55.81319,59.637413,62.680576,64.425446,65.035568,64.736763,63.492683,61.234291,58.35062,55.883045,55.101795,56.682945,60.10165,63.779598,65.999481,66.014343,64.577888,63.477722,64.331299,67.429459,71.40873,73.998848,73.38533,69.331451,63.365009,57.939533,55.104401,55.481682,58.104378,61.128113,62.93726,63.008156,62.101196,61.747913,63.340908,67.273773,72.511482,76.78286,77.352684,72.111145,60.549881,44.169834,26.04616,9.6598053,-2.485256,-9.7471638,-13.242002,-14.815764,-15.743927,-16.011623,-14.663423,-10.96968,-5.5366998,-0.45647082,1.7699405,-0.10709994,-5.0093818,-9.9227448,-11.672108,-8.9841681,-3.4305122,1.4894476,2.6148703,-0.74293667,-6.2685838,-10.130796,-9.5194521,-4.5041561,2.0736656,6.6030641,7.1885457,4.851191,2.5814247,2.925401,5.8670411,8.5915937,7.3818164,0.3433041,-10.989285,-22.364952,-29.411198,-30.324446,-26.785963,-22.499256,-20.454912,-20.943592,-21.769339,-20.464691,-16.771708,-13.388764,-14.226579,-21.307217,-32.588928,-42.516895,-45.240932,-38.490616,-25.453529,-13.204272,-8.5115557,-13.673587,-25.110811,-35.688633,-39.296432,-34.721371,-26.318447,-21.082314,-24.058987,-35.060833,-48.732117,-57.815521,-57.470943,-47.964436,-34.229347,-22.818737,-18.278902,-21.078758,-28.031563,-34.556374,-37.198921,-35.017616,-29.416651,-22.974764,-18.174694,-16.614164,-18.731453,-23.791561,-30.011185,-34.969685,-36.473015,-33.682484,-27.883238,-22.207527,-20.158463,-23.616785,-31.542425,-40.318539,-45.695118,-45.206287,-39.540382,-31.973618,-26.256435,-24.380707,-25.718939,-28.029938,-29.489927,-30.172838,-31.843981,-36.212643,-43.006752,-49.443123,-51.700958,-47.510994,-38.055428,-27.719734,-21.672306,-22.767126,-29.803226,-38.309383,-43.345673,-42.46981,-36.948353,-30.525053,-26.729139,-26.637867,-28.578661,-29.811357,-28.82192,-26.497406,-25.35161,-27.456175,-32.688988,-38.654823,-42.362087,-42.404957,-40.001377,-38.068848,-38.984554,-42.681648,-46.536919,-47.215439,-43.194283,-36.133808,-30.037119,-28.69486,-33.155128,-40.981621,-47.839996,-50.331707,-48.125237,-43.931599,-41.385658,-42.35881,-45.60947,-47.717396,-45.622929,-38.961052,-30.524431,-24.511654,-23.767839,-27.928919,-33.74366,-37.333832,-36.820194,-33.510052,-30.854471,-31.919806,-37.117382,