Bandpass,0,0.28505,-7.226623,-58.00307,-72.92624,-48.86847,-0.6500458,45.72515,68.78552,64.34528,46.12195,34.27138,40.59488,61.08513,80.55846,85.08594,72.52309,53.43451,42.28594,46.09635,59.38525,69.20028,66.22469,53.32102,44.76685,56.38507,93.58716,146.0368,193.023,216.0815,210.3443,187.0436,165.7398,161.7688,177.3139,201.6168,219.4234,221.3986,209.4825,194.1609,186.2929,189.4924,198.0627,201.2477,190.3114,163.5579,126.4569,87.67233,54.29462,29.39312,12.70928,2.911249,-0.877894,0.6660301,5.863666,11.58773,14.49263,13.14746,9.246675,6.610677,8.428473,14.71921,22.00626,25.60217,22.89718,15.19602,6.678135,1.220311,-0.5151836,-1.470002,-5.686466,-14.77528,-26.08997,-34.15218,-34.45287,-26.90648,-16.35762,-9.606487,-10.93981,-19.29266,-29.05664,-33.97738,-31.39308,-23.84294,-16.97618,-15.34265,-19.13399,-24.20843,-25.32686,-20.20329,-11.40443,-4.71221,-5.125587,-13.37009,-25.39497,-35.17811,-38.79945,-36.8814,-33.72301,-33.85689,-38.59032,-45.0467,-48.36325,-45.39336,-37.17462,-28.33342,-23.82682,-25.3665,-30.12119,-32.6848,-28.96487,-19.2579,-8.311336,-2.256249,-4.472141,-13.20002,-22.54159,-26.19041,-21.4122,-10.66011,0.1730328,5.619042,4.021376,-1.73552,-6.493628,-6.435911,-1.587528,4.403039,6.926536,3.627931,-4.010784,-11.73223,-15.4234,-13.8896,-9.62374,-7.075274,-9.576673,-16.95242,-25.38067,-29.63168,-26.30764,-16.09026,-3.616847,4.964045,5.339973,-2.623912,-14.83891,-25.2033,-28.79384,-24.29018,-14.39628,-4.160084,1.799132,1.656441,-2.830638,-7.386297,-7.459424,-0.4617316,13.05804,29.74276,44.95617,54.71411,57.15862,53.03639,45.1284,36.9919,31.57277,30.21208,32.36711,36.09087,39.0383,39.56882,37.46243,33.91529,30.80741,29.61311,30.55241,32.4893,33.67361,32.90207,30.36822,27.60902,26.50932,27.96313,31.08609,33.58532,33.15308,29.03307,22.70786,17.16875,15.15046,17.44311,22.40445,27.03664,28.94281,27.85633,25.69518,25.09155,27.41203,31.6654,35.1,35.10799,31.10883,25.05963,20.18581,18.79022,20.68183,23.3566,23.82615,20.80232,15.66418,11.49266,10.8511,13.91905,18.35262,20.9998,20.22891,17.15198,14.81016,15.89487,20.69037,26.80316,30.93097,31.37113,29.34003,27.99915,29.80775,34.18477,37.3956,35.03257,25.48633,11.86707,0.7123697,-1.985379,5.106306,17.28286,26.3558,25.68139,14.41911,-1.860421,-14.73121,-18.33949,-13.09577,-5.145605,-1.971721,-7.118936,-17.65104,-26.10668,-25.65119,-14.93062,0.6866669,12.36007,13.37414,3.376602,-11.50954,-22.69234,-24.52576,-17.59305,-7.858614,-2.47678,-5.175204,-14.21236,-24.00981,-29.06853,-27.40729,-21.33825,-15.38712,-13.09102,-14.96717,-18.86677,-22.11986,-23.66974,-24.60371,-26.83662,-31.1288,-36.06414,-38.81226,-37.10848,-30.9673,-22.85575,-16.19264,-13.2396,-13.83933,-15.79943,-16.54449,-14.83075,-11.39374,-8.241092,-7.246484,-9.065992,-13.00764,-17.72265,-22.06879,-25.56004,-28.30548,-30.77032,-33.69646,-38.15155,-45.34523,-55.94665,-69.15051,-82.23336,-91.29657,-93.17714,-87.55648,-77.85368,-70.01783,-69.62007,-78.85277,-95.28658,-113.2392,-126.9664,-133.6974,-134.642,-133.4579,-133.3702,-134.9873,-136.2845,-134.6233,-129.2093,-122.0997,-116.9681,-116.5037,-120.357,-125.1714,-126.7406,-122.7919,-114.4445,-105.3586,-99.25616,-97.64146,-99.32064,-101.9122,-104.0032,-106.1238,-109.6647,-114.5586,-117.6898,-113.6586,-97.85884,-69.99462,-35.53034,-3.711956,16.97717,23.25239,18.57833,10.80786,7.369788,11.03617,18.89765,25.0671,25.21325,19.8966,14.54076,16.11617,28.71908,50.85786,76.06355,96.31285,106.0885,104.7291,95.99473,85.5396,78.06946,75.77657,78.51723,85.01395,93.93506,104.1719,114.4975,123.3171,129.0422,130.9481,129.8237,127.7572,127.0226,128.7524,132.315,135.8627,137.6819,137.3793,136.0387,135.216,135.5065,135.7673,133.6622,127.2706,116.7137,104.6524,95.1932,91.75383,95.13966,102.9931,110.9699,114.9702,113.1505,106.6089,98.44523,91.83749,88.28745,87.01514,85.75754,82.41359,76.53078,69.77174,65.10713,65.191,70.80293,80.17956,89.57805,94.7838,92.82932,83.13167,67.58717,49.68187,33.11177,20.55318,13.04258,10.0645,10.11555,11.38861,12.30922,11.85084,9.68574,6.226412,2.519552,-0.08808551,-0.5026261,1.546681,5.253726,9.055008,11.46982,12.04197,11.7979,12.83901,17.186,25.49328,36.41165,47.04673,54.31517,56.43436,53.67813,47.97155,41.62109,36.00811,31.0696,25.84631,19.66036,13.06702,7.885987,6.243028,9.219076,15.97048,23.88512,29.69032,30.86546,26.59135,17.82537,6.648008,-4.607347,-13.96182,-19.99899,-21.87842,-19.43311,-13.40008,-5.530067,1.760725,6.274998,7.093907,5.175467,3.001758,3.323322,7.645348,15.34046,23.95296,30.54816,33.30614,32.39852,29.63792,27.17363,26.11153,25.96724,25.29148,23.013,19.54957,16.87206,17.39083,22.32469,30.59954,39.04404,43.86992,42.62756,35.50642,25.21208,15.47669,9.06036,6.393451,5.627649,4.030549,-0.1320348,-6.371841,-12.1744,-14.54363,-12.01462,-5.942575,-0.2492214,0.3354995,-7.366909,-23.29749,-44.08205,-64.61359,-80.42597,-89.55787,-92.92708,-93.13154,-92.53306,-91.89001,-90.41676,-87.18642,-82.85452,-80.3852,-84.04181,-97.03995,-119.2407,-146.422,-171.8299,-189.333,-196.4411,-195.3988,-191.6378,-190.4517,-193.8693,-199.6231,-202.8386,-199.3765,-188.7048,-174.4556,-162.2888,-156.4184,-157.046,-160.3916,-161.3344,-156.9541,-148.6139,-141.1155,-139.3503,-144.559,-152.6891,-156.1137,-147.8749,-125.9677,-95.03938,-64.37132,-43.22842,-36.24038,-41.43972,-51.96288,-60.23773,-62.07969,-58.33275,-53.32743,-51.41916,-53.96527,-58.65642,-61.48704,-59.91393,-55.01883,-51.19019,-53.47865,-64.2899,-81.50584,-99.2334,-110.7617,-111.9872,-103.3374,-89.18075,-75.21869,-65.48539,-60.6819,-58.64956,-56.46443,-52.71313,-48.51448,-46.70467,-49.7585,-57.77179,-67.77819,-74.88159,-74.64127,-65.43494,-49.51848,-32.17351,-19.31252,-14.68805,-18.05044,-25.14283,-29.54663,-25.52637,-10.56714,13.53736,41.5001,66.82505,84.46476,92.62784,92.97261,89.23129,85.06492,82.27348,80.2356,76.76504,69.82364,59.10058,46.57504,35.74293,29.9081,30.43469,35.88474,42.51949,45.96094,43.22883,34.17379,21.60702,10.04697,3.6653,4.405279,11.17057,20.47072,28.19781,31.64841,30.78062,28.08773,27.18547,30.8777,39.72363,51.83379,63.93348,73.04348,77.82986,78.93138,78.21118,77.50188,77.64084,78.31363,78.64948,78.04195,76.60007,74.98682,73.88452,73.57967,73.99924,75.09795,77.14621,80.50491,84.90501,88.76109,89.21952,83.26244,69.45515,49.32639,27.37642,9.411623,-0.0815638,-0.1248736,6.27606,13.72734,17.29268,15.03762,8.88996,3.396691,3.128941,10.182,23.06666,37.4546,48.25037,51.87829,47.72425,38.21574,27.67119,20.49176,19.39356,24.28601,32.19907,38.38548,38.33468,29.98413,15.11389,-0.9561214,-11.54735,-11.85047,-1.589299,14.44438,28.54844,34.01041,28.68033,16.16418,3.862397,-1.095449,4.304768,17.55156,32.38382,42.58625,45.4683,43.00046,40.13188,41.57296,49.14706,61.22816,74.26411,85.03509,92.02034,95.15354,94.58221,89.78403,79.97835,65.55937,49.23717,35.58269,28.80787,30.07348,36.27046,41.45767,40.37531,31.88743,20.01226,11.63617,12.20079,22.112,36.29011,47.28134,49.97514,44.82024,37.33901,34.16083,38.14574,45.87258,49.30772,40.7768,18.17779,-12.86889,-41.3779,-56.54282,-53.23104,-34.30438,-8.632086,13.78471,26.63029,29.43673,26.32504,22.61905,21.62829,23.39002,25.65934,26.04024,23.68977,19.64067,15.86144,13.93958,14.28519,16.18405,18.40019,19.79436,19.6459,17.73107,14.37319,10.52537,7.699657,7.511759,10.88768,17.35185,24.94693,31.01622,33.50137,31.98064,27.77754,23.06758,19.60527,17.94822,17.66495,18.24108,19.83922,23.1744,28.50241,34.53658,38.34821,36.69938,28.17171,14.68065,1.135388,-6.878265,-6.159105,2.191606,13.30292,21.32159,22.79065,18.52415,12.80659,10.4521,13.62405,20.44228,26.21583,26.43539,19.57212,7.946218,-3.742863,-11.12735,-12.34169,-8.409667,-1.906434,4.91771,11.17938,16.99532,22.2767,25.87158,25.91272,21.21673,12.67832,3.486698,-2.231218,-1.621231,5.207664,15.10998,23.52439,26.80575,23.89614,16.46535,7.65992,0.4020079,-3.723102,-4.543951,-2.667672,1.15442,6.173626,11.38922,15.39727,16.75833,14.79286,10.22274,5.045624,1.527732,0.8803121,2.510695,4.424535,4.579967,2.306218,-1.192563,-3.626862,-3.196136,0.1128401,4.386318,6.8996,5.743154,0.9002915,-5.866347,-12.1368,-16.14122,-17.41347,-16.52166,-14.3032,-11.32154,-7.952118,-4.874943,-3.334165,-4.684488,-9.377362,-16.14477,-22.18845,-24.55512,-21.9778,-15.96379,-10.24364,-8.723018,-13.12249,-21.81237,-30.65855,-35.41416,-34.1638,-28.27367,-21.27806,-16.50373,-15.0565,-15.51004,-15.42683,-13.55156,-11.04179,-10.786,-15.23674,-24.28968,-34.7872,-42.14471,-43.12695,-37.94392,-30.21728,-24.75195,-24.51837,-28.80878,-33.78273,-35.05223,-30.6106,-22.1846,-14.13235,-10.62785,-12.99099,-18.90796,-24.02808,-24.86239,-21.07454,-15.67743,-13.03067,-15.95581,-23.82924,-32.85384,-38.30554,-37.32406,-30.53056,-21.55052,-14.8381,-13.19429,-16.44932,-21.96181,-26.44748,-27.91417,-26.55919,-24.24316,-23.05826,-23.98225,-26.42303,-28.80184,-29.669,-28.59096,-26.29761,-24.10608,-23.07555,-23.44287,-24.63255,-25.74352,-26.14688,-25.8277,-25.3193,-25.34001,-26.38532,-28.49442,-31.26193,-34.02126,-36.07066,-36.84991,-36.05074,-33.6858,-30.12979,-26.10304,-22.54572,-20.3648,-20.10973,-21.71073,-24.42546,-27.07514,-28.51149,-28.1252,-26.14498,-23.54948,-21.59328,-21.16283,-22.29669,-24.15134,-25.46502,-25.28703,-23.55946,-21.19295,-19.55887,-19.67746,-21.59194,-24.33601,-26.54743,-27.36559,-27.03589,-26.79396,-28.04308,-31.30634,-35.62542,-38.84653,-38.70671,-34.1262,-25.9549,-16.71386,-9.453593,-6.355692,-7.831945,-12.55338,-18.28794,-22.98992,-25.52404,-25.72878,-23.98377,-20.73269,-16.3451,-11.35894,-6.791883,-4.110563,-4.683377,-8.952329,-15.85153,-22.94761,-27.38337,-27.20269,-22.34512,-14.72411,-7.293646,-2.583263,-1.496992,-3.031323,-5.042975,-5.592303,-4.061897,-1.395873,0.6542635,0.7831846,-0.9213256,-2.957881,-3.357955,-1.015966,3.455523,7.940647,10.03921,8.568108,4.395102,0.02854291,-1.847296,-0.01404021,4.494728,8.99184,10.7777,8.801165,4.277901,-0.1399774,-2.106654,-1.090614,1.358775,2.770867,1.559072,-1.769008,-4.858271,-5.088565,-1.439983,4.645924,10.04891,11.92509,9.539415,4.724186,0.6209865,-0.4666464,1.35196,3.655202,3.461471,-0.5365379,-6.793786,-11.65862,-11.62214,-5.622609,4.124434,13.34919,18.24208,17.64927,13.55571,9.592132,8.590072,10.803,13.92708,14.83929,11.83651,5.859065,-0.1121091,-3.067722,-2.046514,1.103518,2.797371,-0.04009466,-7.952997,-18.41209,-27.09748,-30.26305,-26.82891,-19.03701,-11.33792,-8.138349,-11.60479,-20.62609,-31.40373,-39.32341,-41.17381,-36.65514,-28.48447,-21.06152,-18.32499,-21.81557,-29.88869,-38.49403,-43.17405,-41.29851,-33.38689,-22.81426,-14.05013,-10.38735,-12.40646,-17.98993,-23.78786,-27.18568,-27.56847,-26.18142,-24.82274,-24.36176,-24.13885,-22.64331,-18.9307,-13.69313,-9.127631,-7.609521,-10.06984,-15.2456,-20.40736,-23.12829,-22.88395,-21.32376,-20.95176,-23.08913,-26.5744,-28.2332,-24.96353,-16.11673,-4.529315,4.655118,6.810918,0.610244,-11.00516,-22.34649,-28.13294,-26.38799,-19.34547,-11.87516,-8.468854,-10.66504,-16.43454,-21.75609,-23.2459,-20.1277,-14.36943,-9.06008,-6.215409,-5.481653,-4.518962,-0.7058133,7.029641,17.44646,27.72371,35.12376,38.47035,38.53543,37.21035,36.12906,35.70248,35.15435,33.42346,30.21661,26.44312,23.73284,23.38626,25.48931,28.79572,31.45853,32.13093,30.73594,28.44026,26.89252,27.23826,29.52508,32.81592,35.85731,37.81745,38.62157,38.73407,38.63141,38.40286,37.78399,36.57408,35.07412,34.13414,34.67128,36.92576,39.98277,41.99051,41.08609,36.5494,29.47365,22.45118,18.33397,18.70658,22.94118,28.41823,31.84544,30.97107,25.75791,18.39701,12.20453,10.05076,13.16262,20.834,31.00525,41.22028,49.39872,54.16277,54.8474,51.50265,45.03348,37.30198,30.83502,27.96385,29.67444,34.83927,40.4708,43.10615,40.68945,33.87047,25.8492,20.71794,21.19308,27.07631,35.39842,42.18362,44.76018,43.1955,39.99384,38.30769,39.85657,43.89832,47.86935,49.19323,47.00602,42.65163,38.67425,37.05701,37.93704,39.64543,39.9786,37.76311,33.62394,29.47431,27.16691,27.30729,29.05309,30.95288,32.10877,32.73591,33.69893,35.42737,37.1348,37.06651,33.7199,27.18542,19.56128,13.98295,12.79113,16.0377,21.38261,25.53038,26.29709,23.93399,20.80599,19.63386,21.49836,24.98483,27.08089,25.24337,19.24148,11.51678,5.784898,4.772544,8.54698,14.49017,18.88903,19.0944,14.90864,8.442954,2.701237,-0.104644,0.5180312,3.558532,7.457582,11.01466,13.69242,15.34554,15.84569,15.04746,13.11659,10.81705,9.318246,9.48945,11.16595,13.0413,13.4557,11.65275,8.595339,6.602638,7.849953,12.65644,18.79823,22.53052,20.86712,13.7184,4.410953,-1.947994,-1.413336,6.319978,17.48814,26.23465,27.85129,21.34491,9.817977,-1.479075,-8.141907,-8.805815,-5.31585,-1.002905,1.633034,2.293205,2.545266,4.234757,7.891961,12.263,15.20988,15.24092,12.54131,8.801536,6.033912,5.263763,6.004008,6.802671,6.378027,4.490215,1.970615,-0.006241394,-0.7849795,-0.5775448,-0.1117869,0.04157125,-0.1281452,-0.2524409,-0.1311101,-0.1004738,-0.8206534,-2.596794,-4.809175,-6.034815,-4.940629,-1.37955,3.161275,6.249106,6.022873,2.555694,-1.940222,-4.358872,-2.688419,2.549116,8.428855,11.34678,9.28915,3.18491,-3.567699,-7.139036,-5.590241,-0.01404382,6.201102,9.470443,8.114685,3.164302,-2.540266,-6.249536,-6.920625,-5.550358,-4.149457,-4.177923,-5.544589,-6.7982,-6.282502,-3.395501,0.9086556,4.663035,6.048214,4.382634,0.3510085,-4.555579,-8.91427,-11.96779,-13.65573,-14.22968,-13.85623,-12.5175,-10.209,-7.17583,-3.924181,-0.977048,1.406019,3.269181,4.683011,5.357784,4.499631,1.123829,-5.289145,-14.19798,-23.89315,-32.04058,-36.64691,-36.96071,-33.84927,-29.47508,-26.43994,-26.78317,-31.22271,-38.88092,-47.5539,-54.43974,-57.13387,-54.59681,-47.72087,-39.16348,-32.35321,-29.9822,-32.66431,-38.50746,-43.96868,-45.67601,-42.28568,-35.31331,-28.38501,-25.25689,-27.71028,-34.5564,-42.35123,-47.39848,-47.83309,-44.53816,-40.38699,-38.34767,-39.6754,-43.30396,-46.73256,-47.73033,-45.69901,-41.83906,-38.12307,-35.88774,-35.06333,-34.54269,-33.33702,-31.58601,-30.602,-31.85013,-35.58571,-40.19363,-42.84701,-41.1999,-35.05839,-26.88872,-20.69879,-19.86173,-25.15213,-34.18931,-42.64986,-46.56011,-44.35089,-37.53625,-29.71947,-24.59667,-24.13379,-27.87472,-33.59528,-38.74198,-41.75051,-42.56353,-42.24625,-42.12081,-43.01205,-44.97879,-47.52153,-49.9801,-51.81989,-52.6878,-52.32492,-50.49637,-47.02556,-41.89908,-35.35412,-27.90075,-20.29929,-13.52176,-8.662493,-6.707391,-8.122892,-12.39768,-17.84338,-21.95955,-22.40428,-18.1992,-10.50144,-2.360382,2.620985,2.12921,-3.51707,-11.36919,-17.32558,-18.33695,-14.1009,-7.239345,-1.819569,-1.063039,-5.584285,-13.17915,-20.2375,-23.86802,-23.42484,-20.55297,-17.8434,-17.06133,-18.12793,-19.46445,-19.35914,-17.32944,-14.49641,-12.71192,-13.08225,-14.97734,-16.29328,-14.85962,-10.05718,-3.515018,1.663827,2.716748,-1.070849,-7.876128,-14.39975,-17.80733,-17.31754,-14.4548,-11.86957,-11.55851,-13.66568,-16.60753,-18.34756,-17.88833,-15.94629,-14.38007,-14.81635,-17.45561,-20.88859,-23.03434,-22.53941,-19.67635,-16.14699,-13.95146,-14.10554,-16.05688,-18.14789,-18.76306,-17.3731,-14.81074,-12.66545,-12.26125,-13.89973,-16.79887,-19.66077,-21.4203,-21.70275,-20.80757,-19.37906,-18.06281,-17.32262,-17.36804,-18.04913,-18.70019,-18.12591,-14.97885,-8.54528,0.4390578,9.561105,15.51731,15.74135,10.0435,1.205571,-6.06667,-7.476237,-1.522995,9.4763,20.46391,26.31881,24.64082,17.01335,7.98844,2.395099,2.581809,7.226848,12.37151,13.96706,10.33268,3.045795,-4.183774,-7.844707,-6.662807,-2.132655,2.64976,4.983349,4.085458,1.270381,-1.152242,-1.397219,0.8684611,4.668545,8.627732,11.8735,14.29282,16.09491,17.19899,17.07684,15.26545,12.15293,9.32084,8.970446,12.62648,19.92164,28.35517,34.36819,35.22787,30.6241,22.97948,16.22008,13.68978,16.41364,22.69206,29.19252,32.82171,32.26324,28.36944,23.35527,19.44491,17.82961,18.44652,20.47886,23.05474,25.63736,27.97096,29.83719,30.98233,31.33554,31.29165,31.68774,33.31783,36.24068,39.41449,41.06709,39.72419,35.29572,29.46281,24.97787,24.18221,27.59925,33.4853,38.66455,40.18945,36.863,29.7618,21.53477,14.98767,11.82875,12.23147,15.27133,19.74406,24.74297,29.69522,34.04648,37.04969,37.97249,36.62297,33.75597,30.94175,29.85469,31.38716,35.16442,39.78947,43.65317,45.76968,46.11344,45.323,44.09828,42.80153,41.54419,40.59329,40.63072,42.50075,46.52462,51.89713,56.74102,58.9784,57.55997,53.23436,48.24765,45.05087,44.79594,46.61429,48.20206,47.37335,43.57115,38.3223,34.3162,33.71264,36.80668,41.93288,46.63793,49.28501,49.97065,50.14065,51.22155,53.29043,54.78282,53.50254,48.26117,39.99625,31.54061,26.11871,25.51451,29.08605,34.24596,38.06453,38.94137,37.30097,34.96619,33.75175,34.28942,35.85035,37.17508,37.60812,37.6571,38.55879,41.18571,45.123,48.63757,49.63398,46.99054,41.38223,35.01895,30.43206,29.05497,30.46126,32.69452,33.44584,31.35193,26.6744,21.04618,16.5199,14.4937,15.05385,16.96851,18.21913,16.77368,11.31586,1.750196,-10.61708,-23.29755,-33.27383,-37.98622,-36.34464,-29.31729,-19.72476,-11.20014,-6.715179,-7.354143,-11.94599,-17.74067,-21.77509,-22.22733,-19.10818,-14.03695,-9.341446,-7.017241,-8.040201,-12.23066,-18.54606,-25.52929,-31.70662,-35.88935,-37.42817,-36.42485,-33.79428,-31.03136,-29.65703,-30.53563,-33.40977,-36.94574,-39.31796,-39.04692,-35.64385,-29.73157,-22.62497,-15.66916,-9.736484,-5.129606,-1.840265,0.1111763,0.5422433,-0.7240916,-3.537025,-7.207229,-10.60128,-12.53594,-12.28179,-9.92579,-6.418277,-3.274966,-2.032088,-3.632333,-7.952895,-13.68526,-18.705,-20.89992,-19.1753,-14.15499,-8.117041,-4.027884,-4.054721,-8.343786,-14.83678,-20.36942,-22.51135,-21.05805,-18.18554,-17.05626,-19.67685,-25.38898,-31.0742,-33.08661,-29.75091,-22.77311,-16.50706,-15.3819,-21.05693,-31.16485,-40.56984,-44.45934,-41.3487,-34.05411,-27.94712,-27.55216,-33.64518,-42.71809,-49.16198,-48.7717,-41.33106,-30.65275,-22.1012,-19.23216,-21.69226,-25.63942,-26.28955,-20.87503,-10.15582,2.318514,12.50513,18.11282,19.40467,18.2824,16.56125,14.78125,12.34659,8.70988,4.523771,1.740961,2.46896,7.366066,14.76518,21.25817,23.47633,19.97915,12.06843,3.041625,-3.613472,-5.957855,-4.285613,-0.5099252,3.171951,5.407056,5.974858,5.269774,3.554365,0.6207454,-3.910911,-9.95682,-16.55797,-22.07489,-24.91782,-24.35571,-20.89452,-16.01032,-11.42842,-8.384887,-7.247909,-7.606732,-8.66302,-9.654201,-10.11986,-9.972727,-9.430571,-8.863847,-8.582115,-8.598408,-8.479449,-7.430506,-4.680314,-0.03406233,5.72645,10.92274,13.6295,12.61746,8.061448,1.556445,-4.630755,-8.669885,-9.990445,-9.338504,-8.073635,-7.193555,-6.732668,-5.901272,-3.816351,-0.2768189,3.968637,7.631956,9.659889,9.816303,8.685039,7.147275,5.767785,4.56189,3.286127,1.959161,1.117901,1.513069,3.411496,6.04543,7.727377,6.711656,2.321375,-4.412239,-11.11101,-15.29024,-15.75678,-13.28618,-10.12856,-8.631997,-9.845292,-12.97616,-16.02576,-17.15826,-15.89917,-13.39091,-11.57144,-11.85089,-14.17593,-17.09021,-18.72812,-18.06366,-15.58603,-12.96622,-11.94842,-13.19889,-15.85859,-18.08368,-18.22761,-15.9274,-12.42894,-9.96058,-10.52535,-14.79857,-21.72199,-28.97519,-34.03717,-35.28738,-32.64053,-27.49081,-22.072,-18.55737,-18.26141,-21.20357,-26.13906,-31.01802,-33.72566,-32.87683,-28.39692,-21.64996,-15.00066,-10.91268,-10.9108,-14.85614,-20.90736,-26.26039,-28.38863,-26.22281,-20.68557,-14.27318,-9.848348,-9.233522,-12.33576,-17.28382,-21.51904,-23.24065,-22.37479,-20.48532,-19.65688,-21.02038,-23.85512,-25.89893,-24.76131,-19.6069,-12.02061,-5.398674,-3.105091,-6.455201,-13.78809,-21.2924,-25.1777,-23.90723,-19.10241,-14.51511,-13.6696,-17.63996,-24.37247,-29.99175,-31.25825,-27.59594,-21.39102,-16.3951,-15.30926,-18.14585,-22.41582,-24.94327,-24.01527,-20.38523,-16.48415,-14.47378,-14.59349,-15.03052,-13.42842,-8.932348,-3.228398,0.2916037,-1.22961,-7.994827,-17.08431,-24.0792,-25.76805,-22.13528,-16.27391,-12.2652,-12.46056,-16.01745,-19.66753,-20.14359,-16.53468,-10.90822,-6.776728,-6.532933,-9.717423,-13.38884,-14.34381,-11.57699,-7.159717,-4.832641,-7.265919,-13.95749,-21.34862,-25.18398,-23.50635,-18.14217,-13.52262,-13.55048,-18.66104,-25.19888,-27.69961,-22.65252,-11.21534,1.045165,7.368477,3.967292,-7.542293,-21.03318,-29.51783,-29.21979,-21.5163,-11.65128,-5.233674,-4.890566,-9.178234,-14.21679,-16.67909,-15.9752,-14.21188,-14.16935,-16.9271,-20.92223,-23.09709,-21.23832,-15.75709,-9.594305,-6.308058,-7.704236,-12.67626,-18.03283,-20.67593,-19.56716,-16.13013,-12.89858,-11.47355,-11.30453,-10.15617,-5.872005,1.890451,11.22944,19.18119,23.65,24.70063,24.31402,24.82998,27.2352,30.53082,32.60122,31.90559,28.73409,25.10783,23.40393,24.70702,28.07701,31.25072,32.26986,30.87791,28.71316,28.18167,30.80848,36.19189,42.23457,46.43914,47.375,45.38559,42.188,39.75678,39.27259,40.73232,43.27861,45.84032,47.6016,48.10654,47.1619,44.81313,41.47839,38.0476,35.67692,35.23921,36.73898,39.15232,40.92155,40.86126,38.87763,35.97756,33.53827,32.36341,32.23634,32.31248,32.03238,31.78739,32.71902,35.70982,40.32985,44.66438,46.3696,44.35627,39.89341,36.17484,36.41408,41.64037,49.73726,56.54163,58.4331,54.73935,48.28473,43.5938,43.86789,48.76543,54.55587,56.6375,52.76884,44.80317,37.66488,36.15342,41.65923,50.98882,58.12605,57.82011,48.69619,33.93027,19.16289,9.119478,5.15711,5.195513,5.807957,4.8255,2.616745,1.296561,2.661297,6.517938,10.68168,12.59819,11.30254,8.17872,5.897766,6.30594,8.860025,10.85209,9.362423,3.583673,-4.193446,-9.754328,-9.611985,-3.373085,5.812142,13.09205,14.88269,11.04349,4.859996,0.887847,2.091898,8.124286,15.76925,21.14257,22.13061,19.50513,16.11288,14.82609,16.67884,20.37051,23.32362,23.46018,20.47828,15.8605,11.75191,9.563312,9.2333,9.540248,9.118809,7.421057,4.999355,3.024834,2.471467,3.557012,5.766541,8.337657,10.784,13.07062,15.36204,17.59434,19.24244,19.49319,17.73294,14.02715,9.267226,4.863957,2.145378,1.781872,3.5377,6.454487,9.345409,11.32853,12.13783,12.08542,11.74144,11.53877,11.5371,11.47522,11.06287,10.30904,9.649664,9.755424,11.1111,13.63161,16.59179,18.96772,20.01247,19.70543,18.75634,18.12057,18.31523,18.99784,19.12984,17.67308,14.38918,10.19809,6.799843,5.730161,7.40466,10.74728,13.65813,14.07133,11.00494,5.032697,-2.029852,-7.981997,-11.14495,-10.90032,-7.732216,-2.920649,1.884037,5.076729,5.505419,2.871791,-2.004528,-7.302211,-10.84491,-11.11772,-8.144137,-3.635878,-0.1597911,0.3225709,-2.301363,-6.104745,-8.232596,-6.72637,-1.935649,3.442613,5.834791,2.931343,-4.824501,-14.36435,-21.69855,-24.15489,-21.76633,-16.97595,-12.91399,-11.40847,-12.0199,-12.67127,-11.36952,-7.806403,-3.746651,-1.950319,-4.361512,-10.76101,-18.7506,-25.05354,-27.29299,-25.16528,-20.37795,-15.52067,-12.64412,-12.37946,-13.97455,-16.02309,-17.31587,-17.32699,-16.20746,-14.49393,-12.82356,-11.78843,-11.86017,-13.25891,-15.76782,-18.652,-20.85806,-21.48779,-20.2988,-17.89158,-15.40917,-13.90355,-13.77125,-14.62923,-15.69502,-16.3726,-16.60386,-16.73606,-17.04345,-17.3244,-16.94678,-15.35393,-12.64587,-9.732444,-7.839855,-7.651099,-8.70088,-9.545143,-8.707667,-5.823921,-2.173494,-0.1301628,-1.759944,-7.410182,-15.21493,-21.915,-24.57315,-22.18971,-16.26662,-10.002,-6.612038,-7.756554,-12.91084,-19.90457,-26.16767,-29.90384,-30.60719,-28.83919,-25.62799,-21.95722,-18.58257,-16.08548,-14.91139,-15.24549,-16.81583,-18.85578,-20.3693,-20.59452,-19.37169,-17.15809,-14.69086,-12.56525,-11.0565,-10.29297,-10.56208,-12.36913,-16.04235,-21.08835,-25.83461,-27.84946,-25.15206,-17.60758,-7.587406,0.7372087,3.312592,-1.64322,-12.51463,-24.96332,-34.14049,-37.21971,-34.77822,-30.19909,-27.44753,-28.56896,-32.44188,-35.55853,-34.36644,-27.73661,-18.03169,-10.07887,-8.603747,-15.5924,-29.08668,-44.08242,-55.0047,-58.38449,-54.32102,-46.05827,-38.06047,-33.72969,-33.97996,-37.29173,-41.01249,-43.03469,-42.89056,-41.73827,-41.38159,-42.98347,-46.24242,-49.48665,-50.60468,-48.27244,-42.78559,-36.02673,-30.56389,-28.34825,-29.7046,-33.17163,-36.30151,-37.0061,-34.71572,-30.69468,-27.31293,-26.66863,-29.35113,-34.07784,-38.4401,-40.32685,-39.16675,-36.2173,-33.70669,-33.35775,-35.23401,-37.66832,-38.34945,-35.8824,-30.79566,-25.29709,-21.88362,-21.68687,-23.65336,-25.15563,-23.69827,-18.63604,-11.75697,-6.284406,-4.878639,-7.90504,-13.11361,-16.99431,-16.99005,-13.16623,-8.251429,-5.986218,-8.800232,-16.27692,-25.37358,-32.25265,-34.56206,-32.73109,-29.48765,-27.93554,-29.42996,-32.58874,-34.04385,-30.4467,-20.49926,-5.814993,9.828854,22.33,29.09704,29.9184,26.5679,21.60035,17.14765,14.34201,13.46165,14.42249,17.11669,21.35728,26.57905,31.67278,35.23225,36.16669,34.31979,30.67306,26.93924,24.72685,24.7304,26.40874,28.34257,29.08247,28.01746,25.7765,23.9184,24.0527,26.85189,31.50842,35.98162,37.97476,36.16486,31.02194,24.71751,20.09472,19.20733,22.2273,27.36339,31.87723,33.62959,32.24505,29.18427,26.67928,26.21041,27.51975,28.8262,28.12026,24.67779,19.74548,15.87679,15.30565,18.43514,23.49196,27.64551,28.88698,27.4046,25.47615,25.88236,29.86955,36.05767,41.10925,41.81004,37.22874,29.50544,22.6702,20.18124,22.73806,27.79135,31.10079,29.38249,22.38567,13.10186,5.992881,4.357359,8.454271,15.47412,21.27236,22.72435,19.27944,12.90033,6.620669,2.746145,1.794961,2.665037,3.694446,3.800049,2.98898,2.079998,2.00715,3.2596,5.768374,9.147623,12.95545,16.72994,19.85111,21.50494,20.97012,18.1478,13.95727,10.19318,8.753647,10.60137,15.0877,20.12618,23.21044,22.73573,18.86632,13.44248,8.990363,7.42258,9.167754,13.16673,17.63105,21.03593,22.76101,23.10242,22.80862,22.5527,22.68768,23.33803,24.59814,26.55608,29.06156,31.44188,32.49733,30.95675,26.23075,19.01334,11.27524,5.514901,3.594903,5.799968,10.68073,15.81965,19.11253,19.84171,18.92336,18.19317,19.16263,21.99275,25.30223,26.93221,25.22415,20.06673,13.10074,6.956141,3.939534,4.888166,8.795941,13.38265,16.27223,16.14938,13.31769,9.42859,6.582786,6.293843,8.821404,13.15094,17.56402,20.47575,21.12936,19.84464,17.74707,16.14614,15.88161,16.95738,18.63527,19.92793,20.21874,19.65426,19.06561,19.43539,21.21104,23.89775,26.24049,26.96173,25.64839,23.21792,21.58033,22.5821,26.79797,32.92059,38.2157,39.90035,36.70734,29.71469,21.88988,16.54051,15.53082,18.29604,22.23754,24.26594,22.58157,17.65097,11.8433,7.997894,7.812716,10.98981,15.56313,19.10692,20.04984,18.35887,15.32634,12.74376,12.0236,13.71164,17.48151,22.40764,27.27073,30.81093,32.0097,30.45909,26.6908,22.17634,18.79325,17.89481,19.49614,22.16766,23.86166,23.2649,20.80937,18.5651,18.9205,22.81292,28.71064,33.18645,32.91833,26.9325,17.58473,9.45419,6.636339,10.03713,16.42327,20.00017,15.7367,2.50903,-15.85527,-32.35086,-40.43442,-37.46809,-26.0297,-12.42067,-3.318153,-2.50545,-9.422154,-20.10362,-29.69447,-34.96061,-35.45567,-32.96892,-29.91228,-27.7836,-26.57294,-25.25144,-22.81547,-19.13801,-15.14806,-12.34695,-12.03957,-14.72073,-19.86911,-26.15128,-31.88556,-35.59235,-36.48661,-34.78289,-31.68402,-28.98457,-28.37087,-30.68583,-35.51313,-41.32214,-46.13294,-48.3716,-47.48475,-44.04109,-39.36066,-34.96454,-32.15835,-31.86781,-34.60089,-40.33729,-48.29608,-56.78398,-63.43319,-65.96317,-63.21957,-55.92914,-46.63163,-38.6632,-34.64132,-35.25994,-39.07974,-43.43496,-45.92026,-45.58872,-43.20214,-40.48347,-38.93005,-38.96229,-39.89134,-40.61214,-40.46808,-39.68243,-39.10909,-39.54325,-41.10812,-43.13179,-44.55711,-44.57152,-43.04184,-40.52476,-37.9271,-36.07912,-35.45517,-36.09905,-37.66426,-39.47293,-40.60307,-40.09231,-37.28708,-32.20435,-25.65595,-18.96327,-13.34761,-9.346031,-6.645405,-4.474171,-2.290833,-0.2624896,0.8555838,0.3890354,-1.534707,-3.816208,-5.003847,-4.339976,-2.469743,-1.189278,-2.252838,-5.978171,-10.6515,-13.29278,-11.43766,-4.838534,4.072045,11.36962,13.81808,10.69169,4.083254,-2.48601,-6.228483,-6.607188,-5.259357,-4.485819,-5.444267,-7.352187,-8.246723,-6.703267,-3.200237,-0.0530108,0.1312887,-3.571243,-9.42071,-13.81951,-13.4727,-7.51144,1.83973,10.51863,15.00077,14.25467,10.05181,5.525343,3.035975,2.799371,3.129287,1.984717,-1.37243,-5.813995,-9.227165,-10.12808,-8.774949,-6.949156,-6.574077,-8.211841,-10.57382,-11.43659,-9.312508,-4.650423,0.339211,3.145948,2.672297,-0.04906205,-2.679015,-3.365077,-2.19658,-1.214772,-2.886765,-8.082379,-15.0235,-20.06978,-19.94768,-13.98227,-4.795175,3.108331,6.046217,3.447994,-1.767571,-5.00833,-2.888448,4.643422,14.25892,21.28526,22.51068,18.00575,10.88783,5.285919,3.867376,6.475143,10.62081,13.35876,13.23012,11.02792,8.990613,9.080514,11.55284,14.75511,16.2378,14.40184,9.598833,3.998831,0.3427041,0.3766008,3.909403,9.005191,13.12187,14.48401,12.91018,9.699838,6.743294,5.426202,5.948594,7.388432,8.404011,8.129184,6.737001,5.347253,5.324487,7.359987,10.88051,14.17787,15.26897,13.05431,8.10699,2.55636,-0.9801996,-0.8793393,2.460363,6.73258,9.021984,7.579775,2.989036,-2.073699,-4.434826,-2.439727,2.899852,8.443777,10.90861,9.084731,4.827645,2.076188,4.402134,12.59415,23.84394,33.14523,36.12041,31.55449,22.06806,12.52056,7.164202,7.333513,11.06525,14.75997,15.68308,13.62303,10.67669,9.446516,11.00108,14.05497,15.91352,14.46775,9.793097,4.213831,0.7993155,1.374844,5.456517,10.83477,15.32645,18.36462,21.21601,25.63603,31.96298,38.14938,40.63285,36.64672,26.45899,13.91852,4.7106,3.234401,10.00019,21.21464,30.89111,34.23587,30.25558,22.02864,14.5645,11.67292,13.82581,18.27831,21.22597,20.4913,16.9713,13.96374,14.90004,21.01807,30.47736,39.43063,44.29735,43.77227,39.35614,34.20246,31.13051,31.09606,32.99966,34.78556,34.97548,33.59623,31.96204,31.57285,32.95065,35.21316,36.64516,35.86082,32.78673,28.84029,26.19547,26.57565,30.26329,35.86106,40.91143,43.04045,41.06504,35.5559,28.61751,22.97962,20.77219,22.48642,26.58177,29.97408,29.28996,22.40699,9.594197,-6.338377,-21.05438,-30.472,-32.48357,-27.76465,-19.2713,-10.72016,-4.898246,-2.713463,-3.422083,-5.732637,-8.955132,-13.38209,-19.65833,-27.64306,-35.68601,-41.01409,-41.17652,-35.70271,-26.84413,-18.73702,-15.29373,-17.99536,-24.93841,-31.81299,-34.33952,-30.77316,-22.98806,-15.4705,-12.79029,-17.02805,-26.64746,-37.42117,-44.79608,-46.27634,-42.48251,-36.4191,-31.56572,-30.02333,-31.75504,-35.16276,-38.39788,-40.46284,-41.47333,-42.12764,-42.95837,-43.97352,-44.86966,-45.49399,-46.05069,-46.81831,-47.63063,-47.65576,-45.82969,-41.76324,-36.46375,-32.19461,-31.33054,-34.80904,-41.19836,-47.13837,-49.07461,-45.32744,-37.21998,-28.49576,-23.29516,-23.87444,-29.43081,-36.71952,-42.03679,-43.32124,-41.10801,-37.8513,-36.17455,-37.23577,-40.22145,-43.1684,-44.43143,-43.74616,-42.19346,-41.16654,-41.11778,-40.97739,-38.64821,-32.25697,-21.3631,-7.38947,6.950766,18.85921,26.60658,30.07641,30.54167,29.92156,29.93885,31.52292,34.60519,38.28773,41.28873,42.52841,41.66886,39.36723,37.05104,36.21975,37.57527,40.47437,43.11269,43.45221,40.42339,34.67429,28.34398,23.90709,22.74753,24.33571,26.5506,26.9735,24.36309,19.39815,14.24799,11.27775,11.72504,15.14667,19.88009,24.09458,26.6834,27.4723,26.78598,24.88455,21.80608,17.73178,13.47788,10.53495,10.39751,13.52268,18.66783,23.22281,24.51508,21.35427,14.82008,7.721772,3.009376,2.132074,4.393922,7.700531,10.14554,11.31664,12.40385,15.04734,19.77062,25.17185,28.53651,27.53828,21.88978,13.77748,6.696891,3.386489,4.194405,6.962002,8.519686,6.825681,2.345892,-2.229573,-3.749172,-0.6913868,5.767025,12.38414,15.76606,14.34276,9.192868,3.271028,-0.4013259,-0.4303919,2.360312,5.675931,7.241373,6.075035,2.845166,-0.7413797,-2.991304,-3.036125,-1.016807,2.275131,5.911955,9.146224,11.44498,12.41164,11.80604,9.703362,6.631022,3.479388,1.146406,0.108972,0.2143786,0.8539795,1.404718,1.618353,1.669128,1.831351,2.054013,1.802883,0.355159,-2.614317,-6.573263,-10.17855,-11.89064,-10.82348,-7.312428,-2.83326,0.6980003,1.840311,0.2411885,-3.358363,-7.656285,-11.49529,-14.33934,-16.32093,-17.9363,-19.63564,-21.54038,-23.38608,-24.65584,-24.81742,-23.5842,-21.12695,-18.13861,-15.65026,-14.58246,-15.1977,-16.78123,-17.85505,-16.95573,-13.60425,-8.847375,-4.893106,-3.89639,-6.562314,-11.48926,-15.81483,-16.90946,-14.10151,-9.269424,-5.786999,-6.391311,-11.3393,-18.13448,-23.11559,-23.92123,-21.16002,-18.05648,-18.18671,-22.78119,-29.49352,-33.64318,-31.27428,-22.04579,-9.935859,-1.108988,-0.1947192,-7.37573,-18.24968,-26.638,-28.53742,-24.59177,-19.40536,-18.13127,-22.64044,-29.92056,-33.89717,-29.55759,-16.64964,-0.4261525,11.18687,12.26374,2.425616,-12.99158,-26.20786,-31.56551,-28.48803,-21.08349,-14.89754,-13.1456,-14.94724,-16.58504,-14.69173,-9.003915,-2.732687,-0.3533465,-4.442751,-13.82757,-24.33234,-31.56016,-33.71807,-32.50791,-31.5109,-33.28955,-37.3395,-40.40674,-38.98236,-32.19711,-22.99061,-16.58254,-17.14678,-24.88945,-35.55522,-42.82256,-42.13958,-33.56704,-21.79797,-13.31813,-12.48755,-18.98785,-28.18488,-34.10851,-33.14424,-26.16237,-17.86164,-13.84875,-17.30878,-27.24579,-39.20913,-47.89677,-50.00457,-45.71857,-38.19983,-31.60485,-28.89668,-30.59056,-34.85814,-38.6224,-38.88876,-33.7008,-22.53675,-6.311094,12.80976,31.74496,47.1157,56.18593,57.89034,53.44908,46.10022,39.87085,37.86263,40.89053,47.21201,53.5349,56.7907,55.73174,51.50861,46.96267,45.0776,47.46737,53.69455,61.69356,68.9462,73.69012,75.52106,75.18006,73.80981,72.21764,70.58113,68.67801,66.37326,63.96131,62.11079,61.45597,62.12877,63.56015,64.70496,64.57502,62.78203,59.79134,56.755,55.01724,55.53564,58.47694,63.13887,68.20156,72.18919,73.96791,73.11065,70.0089,65.69118,61.4074,58.13725,56.23212,55.36253,54.80428,53.91644,52.53971,51.07154,50.15422,50.15797,50.79198,51.127,50.06949,47.03523,42.41679,37.53721,34.08317,33.32738,35.57939,40.15652,45.84065,51.49601,56.46085,60.52507,63.61764,65.52812,65.93042,64.71151,62.33222,59.87704,58.65229,59.52659,62.43507,66.39955,70.08672,72.5458,73.61917,73.71891,73.09832,71.12688,66.131,56.03743,39.54373,17.17403,-8.408921,-33.07202,-52.56897,-63.94993,-66.40508,-61.26347,-51.28983,-39.69011,-29.23598,-21.7328,-17.84793,-17.21493,-18.73396,-21.01294,-22.86225,-23.68255,-23.5653,-23.03602,-22.58215,-22.27622,-21.77987,-20.76501,-19.46183,-18.87984,-20.4067,-24.91056,-31.88305,-39.25713,-44.19004,-44.49613,-39.93085,-32.51463,-25.6008,-22.1476,-23.17116,-27.29046,-31.63451,-33.56161,-32.14943,-28.5762,-25.21831,-24.09688,-25.68731,-28.83327,-31.75357,-33.40674,-34.24779,-35.83645,-39.54486,-45.2536,-50.9797,-53.80403,-51.61465,-44.60405,-35.53414,-28.48732,-26.73735,-30.93468,-38.66576,-45.67549,-48.09718,-44.46101,-36.38908,-27.63321,-22.03508,-21.55208,-25.39478,-30.65628,-33.98114,-33.30877,-28.77864,-22.43363,-17.03135,-14.69587,-16.10122,-20.47686,-26.24007,-31.79074,-36.05152,-38.60507,-39.54478,-39.25282,-38.23225,-36.97915,-35.82599,-34.76731,-33.39642,-31.10119,-27.51852,-23.01491,-18.8345,-16.6767,-17.81305,-22.21619,-28.28523,-33.47758,-35.61613,-34.16385,-30.67289,-28.03454,-28.86228,-33.90664,-41.45198,-48.11182,-50.61963,-47.60145,-40.30602,-31.87625,-25.61345,-23.27322,-24.38215,-26.90711,-28.76563,-29.16675,-28.92885,-29.62219,-32.17127,-35.91117,-38.79234,-38.6585,-34.78621,-28.6491,-23.31882,-21.76241,-25.01576,-31.34706,-36.97638,-38.01204,-32.5434,-21.72462,-9.252762,0.4565113,4.384221,2.19047,-3.947668,-10.72988,-15.50181,-17.41815,-17.45155,-17.39507,-18.55545,-20.93784,-23.3595,-24.34615,-23.2063,-20.60412,-18.27479,-18.04733,-20.75069,-25.65222,-30.7749,-33.93731,-33.94032,-31.22559,-27.61721,-25.27406,-25.44462,-27.74886,-30.42794,-31.43946,-29.7611,-26.10722,-22.58367,-21.43937,-23.64585,-28.18728,-32.54991,-34.17579,-32.02706,-27.29354,-22.76473,-21.20132,-23.6733,-28.88189,-33.89342,-35.85115,-33.62833,-28.43109,-23.01898,-20.06304,-20.66356,-23.89244,-27.53966,-29.48786,-28.81362,-25.9935,-22.25555,-18.67623,-15.70635,-13.38564,-11.92008,-11.99686,-14.43058,-19.31201,-25.32461,-29.90829,-30.41871,-25.69907,-17.06831,-7.968056,-2.303707,-2.36593,-7.563362,-14.77215,-20.14368,-21.30971,-18.65406,-14.87907,-13.14217,-14.93029,-19.01423,-22.16373,-21.21206,-15.20422,-6.278605,1.323097,3.594305,-0.9061458,-10.11684,-19.51621,-24.57317,-23.20178,-16.80804,-9.337487,-4.906157,-5.423543,-9.607885,-13.95039,-15.00843,-11.60816,-5.597312,-0.6867441,-0.1035142,-4.529515,-11.63302,-17.51247,-19.15626,-16.35047,-11.77314,-9.140271,-10.52154,-14.53492,-16.65939,-11.63379,3.392029,26.81371,52.90392,74.42012,86.07115,86.93954,80.58469,72.88939,68.95504,70.77423,76.82579,83.55735,87.68185,87.90575,85.22424,81.86439,79.71736,79.25763,79.49445,78.80589,76.01939,71.07975,65.01172,59.34142,55.39595,53.84769,54.62821,57.10488,60.34511,63.3604,65.32653,65.78989,64.80985,62.924,60.86935,59.14314,57.64693,55.68272,52.39832,47.48902,41.73672,36.97801,35.37788,38.30295,45.39185,54.40275,62.04948,65.49628,63.76948,58.31788,52.36065,49.3089,51.07373,57.1732,65.12865,71.91747,75.6329,76.36803,75.80469,75.78886,76.83728,77.60165,75.73221,69.65767,60.12224,50.36226,44.60229,45.64156,52.98575,62.77244,69.70115,69.93169,63.24805,53.16873,44.90965,42.42145,46.2803,53.65309,60.23556,62.84562,61.02829,56.78567,52.84133,50.78642,50.40321,50.4902,50.35049,50.60803,52.56379,56.4981,60.28337,59.63271,50.23341,30.61023,3.84589,-23.17294,-42.79916,-50.27274,-45.83014,-34.06293,-21.03851,-11.06632,-5.098565,-1.540611,1.428279,3.90056,4.134382,0.3233238,-7.201393,-15.18392,-18.95238,-15.41338,-5.521268,5.626706,11.42544,7.650593,-4.816812,-20.21588,-31.05466,-32.31833,-24.21462,-11.85592,-2.175777,-0.02062495,-5.734037,-15.49695,-23.94844,-27.31865,-25.2085,-20.19122,-15.81452,-14.43958,-16.2065,-19.50545,-22.3475,-23.60476,-23.39231,-22.56886,-21.89758,-21.49853,-20.87865,-19.38002,-16.66261,-12.93183,-8.869736,-5.404345,-3.447118,-3.630794,-6.039314,-10.00444,-14.1485,-16.81855,-16.82935,-14.14894,-10.06735,-6.627203,-5.561498,-7.358798,-11.06014,-14.9423,-17.6443,-18.97259,-19.83158,-21.34394,-23.81722,-26.33877,-27.33145,-25.69084,-21.67195,-16.85047,-13.14743,-11.60352,-11.78909,-12.28269,-11.85765,-10.47885,-9.337257,-9.869116,-12.49106,-16.03906,-18.40869,-17.99701,-14.90429,-10.96606,-8.508001,-8.668001,-10.50929,-11.63697,-9.966414,-5.418795,-0.2952309,2.048126,-0.592001,-7.655087,-15.94142,-21.46123,-21.83183,-17.66252,-12.03874,-8.485294,-8.780263,-12.04301,-15.61253,-17.01779,-15.65143,-13.04562,-11.66757,-13.16492,-17.2969,-22.21721,-25.78034,-26.86069,-25.76676,-23.59149,-21.15623,-18.46797,-15.12912,-11.30686,-8.345615,-8.318181,-12.63582,-20.65828,-29.42478,-34.95992,-34.51966,-28.38595,-19.96841,-13.98658,-13.74597,-19.15777,-26.74305,-31.64637,-30.44387,-23.0596,-12.69347,-3.912732,-0.1519082,-2.123897,-7.951062,-14.69144,-20.11663,-23.60221,-25.73855,-27.1982,-27.85461,-26.85233,-23.53732,-18.46164,-13.5836,-11.3611,-13.26287,-18.71129,-25.24811,-29.92255,-31.05843,-29.25515,-26.9309,-26.65843,-29.35175,-33.50434,-36.03781,-34.29121,-27.91935,-19.4661,-13.1581,-12.5534,-18.40845,-28.04292,-36.62836,-39.71304,-35.58161,-26.14831,-15.92247,-9.66139,-10.01324,-16.38497,-25.52628,-33.36935,-37.04402,-36.02111,-31.92722,-27.33749,-24.33916,-23.6421,-24.57977,-25.80578,-26.16839,-25.27165,-23.51891,-21.7535,-20.78,-21.01427,-22.36836,-24.34428,-26.2619,-27.54652,-27.99714,-27.92344,-28.03461,-29.04838,-31.16655,-33.72474,-35.32353,-34.51165,-30.72208,-24.89718,-19.30518,-16.48284,-17.81046,-22.56198,-28.10159,-31.25395,-30.12652,-25.29768,-19.58458,-16.44134,-17.90134,-23.31421,-29.68153,-33.42142,-32.4961,-27.59756,-21.67334,-18.11285,-18.74255,-22.85917,-27.82897,-30.77186,-30.20054,-26.60933,-21.78287,-17.46646,-14.40336,-12.37062,-11.03358,-10.79308,-12.80179,-17.98032,-25.69735,-33.16964,-36.26291,-31.45387,-17.86652,1.881446,22.63264,38.97929,47.61518,48.4685,44.11084,37.9862,32.63585,28.93705,26.57791,25.14483,24.86852,26.45998,30.23659,35.32365,39.68346,41.10935,38.57607,33.00927,26.87997,22.81276,22.08319,23.97872,26.43763,27.52775,26.76695,25.39463,25.41357,28.05034,32.68417,36.99271,38.271,35.10819,28.36828,20.85053,15.82575,15.32067,19.14371,25.15966,30.56034,33.32864,33.065,30.818,28.18398,26.32911,25.51604,25.303,25.12223,24.75476,24.38233,24.26391,24.37088,24.31861,23.67493,22.40426,21.07668,20.6236,21.76078,24.46387,27.88256,30.79035,32.29237,32.31311,31.5213,30.73808,30.2553,29.58272,27.86153,24.69631,20.80786,17.95681,18.04582,21.88907,28.4487,35.12856,39.07759,38.77845,34.93549,30.0415,26.8037,26.35489,27.373,26.72465,21.32128,10.10637,-5.032288,-20.00773,-30.53309,-34.22446,-31.62082,-25.60794,-19.69283,-16.20755,-15.45918,-16.16369,-16.68281,-16.15397,-14.81328,-13.45844,-12.61208,-12.09348,-11.32392,-10.07684,-9.010405,-9.462706,-12.54764,-18.15526,-24.60563,-29.30943,-30.10657,-26.46647,-19.78819,-12.611,-7.25225,-4.740396,-4.671902,-5.959126,-7.823911,-10.26106,-13.63809,-17.79435,-21.43841,-22.48357,-19.28637,-12.02842,-3.234622,3.126509,3.616778,-2.72365,-13.65076,-24.73583,-31.60996,-32.15747,-27.40041,-20.60755,-15.22985,-12.94417,-12.96041,-12.919,-10.71173,-6.026554,-0.6524307,2.598493,1.634262,-3.597147,-10.98292,-17.33466,-20.00691,-18.13048,-12.85959,-6.642328,-2.023053,-0.6154087,-2.646886,-7.101473,-12.22724,-16.13756,-17.34332,-15.15376,-9.892275,-2.834019,4.199718,9.506576,12.15207,12.2568,10.7348,8.623074,6.425277,3.910566,0.5136545,-3.94717,-8.772883,-12.5277,-13.80196,-12.11034,-8.296041,-4.11387,-1.224025,-0.2521535,-0.5473834,-0.793359,-0.02586714,1.681764,3.364774,4.028678,3.564514,2.986813,3.749525,6.598864,10.82553,14.55581,15.99222,14.78236,12.50586,11.80564,14.62778,20.72144,27.48332,31.39174,30.20344,24.50126,17.52368,13.2854,14.1265,19.24369,25.16799,27.91538,25.45709,18.94451,11.92374,8.071232,8.922267,13.04354,17.13864,18.31063,15.97093,12.14635,10.01464,11.66964,16.61862,22.02209,24.53594,22.55965,17.41621,12.66534,11.93834,16.62818,24.87278,32.48232,35.2768,31.45679,22.62803,12.91904,6.750856,6.565706,11.77099,19.38329,25.85989,28.98091,28.73034,26.81004,25.25216,25.0673,25.72944,25.70212,23.55576,18.92379,12.73732,6.692295,2.37507,0.607302,1.330104,3.936965,7.696809,11.94691,16.0182,19.12751,20.50914,19.82389,17.56995,15.09966,14.05421,15.44991,18.97566,23.02275,25.53569,25.21726,22.3331,18.57242,16.02627,15.93934,18.05724,20.98708,23.28058,24.43465,25.06518,26.12767,27.79788,28.94012,27.70823,22.98178,15.63275,8.593424,5.442561,8.271523,16.20412,25.64186,32.22721,33.35865,29.65379,24.38647,21.24135,21.85988,24.81575,26.71322,24.66702,18.46926,10.94031,6.181787,6.881032,12.47606,19.42619,23.42194,22.07442,16.32366,9.694526,5.979275,6.942737,11.54334,17.0529,21.13708,23.35896,25.08046,27.96104,32.28686,36.46268,38.10295,35.93477,31.07007,26.61399,25.76011,29.64219,36.44654,42.45996,44.40073,41.48622,35.85696,31.09468,29.85752,32.22904,35.84976,37.6608,36.00298,31.6254,26.96519,24.27442,23.94004,24.15801,22.1455,16.02048,6.065041,-5.4238,-15.50179,-22.17903,-25.22008,-25.76297,-25.23133,-24.43611,-23.49125,-22.45299,-22.00064,-23.45803,-28.0012,-35.59072,-44.46228,-51.68232,-54.5488,-52.01409,-45.25492,-37.04822,-30.35617,-26.9739,-26.97234,-29.10853,-31.78517,-33.91057,-35.22909,-36.12876,-37.24219,-39.14683,-42.23372,-46.60923,-51.92068,-57.20538,-61.0245,-62.0381,-59.83055,-55.4654,-51.25748,-49.68456,-51.97216,-57.22906,-62.77729,-65.5965,-64.04866,-58.805,-52.37234,-47.52602,-45.68102,-46.26218,-47.42768,-47.55331,-46.37139,-44.95282,-44.61422,-45.66142,-47.02,-47.11997,-45.3914,-43.15787,-43.06155,-47.22772,-55.4063,-64.52621,-70.22552,-69.53015,-62.92105,-54.28345,-48.58578,-48.71011,-53.54419,-58.70558,-59.52727,-54.35557,-45.8996,-39.60841,-40.04929,-47.6798,-58.24615,-65.35364,-64.63266,-56.7851,-47.4314,-43.70699,-49.66461,-63.35125,-77.41523,-82.92574,-74.14284,-51.48191,-21.10756,8.355969,29.92678,40.90766,42.95817,40.11993,36.35391,34.0324,33.84846,35.57088,38.70795,42.57358,45.99499,47.30107,44.9673,38.62627,29.66985,20.82252,14.77669,12.72385,13.78778,15.79551,16.88516,16.83274,17.14739,19.84543,25.75751,33.57695,40.35412,43.14393,40.71619,34.21392,26.37933,19.93991,16.25234,15.02204,15.08511,15.49761,16.05844,16.9509,17.9613,18.09938,16.11382,11.61402,5.900185,1.675603,1.579208,6.397121,14.19731,21.1367,23.59792,20.36526,13.42187,6.789483,4.093959,6.395185,11.66418,16.22464,17.19406,14.32106,10.03695,7.734309,9.44967,14.49205,19.89993,22.38651,20.4645,15.35757,10.13268,7.657977,8.732347,11.58497,13.03649,10.55955,3.943542,-4.440354,-10.89445,-12.39358,-8.175363,-0.08820889,8.387164,13.8191,14.31346,10.14531,3.392455,-3.097324,-6.870137,-6.711438,-2.95891,2.717064,7.934976,10.43988,8.921375,3.546699,-4.027518,-11.24345,-15.65602,-15.95823,-12.53642,-7.257246,-2.559829,-0.2944441,-0.9005375,-3.346752,-5.8454,-6.923939,-6.23982,-4.675157,-3.674133,-4.238029,-6.209158,-8.31174,-8.958213,-7.341496,-4.115688,-1.18099,-0.6262017,-3.436262,-8.778915,-14.38354,-17.8563,-18.14728,-16.21185,-14.3584,-14.6119,-17.12745,-19.77001,-19.30872,-13.62483,-3.562606,6.886651,12.43551,9.468657,-1.611051,-16.1695,-27.56566,-30.63213,-24.40796,-12.50876,-0.9247235,5.409744,5.205025,1.064235,-2.613459,-2.619749,1.124719,5.84069,8.031866,5.95009,0.7077066,-4.637499,-7.286151,-6.5976,-4.374365,-3.400187,-5.34277,-9.5569,-13.6442,-15.34131,-14.33174,-12.61499,-13.09003,-17.31033,-24.01374,-29.55909,-30.11388,-24.21516,-14.00764,-4.278765,0.1767969,-2.740716,-11.30593,-21.04593,-27.29612,-27.66283,-22.99846,-16.50892,-11.75099,-10.81699,-13.67862,-18.78988,-24.27403,-28.82318,-31.86138,-33.15797,-32.44161,-29.43001,-24.23323,-17.71318,-11.38805,-6.838607,-4.988376,-5.753175,-8.286952,-11.60626,-15.10859,-18.61556,-21.98288,-24.68225,-25.79457,-24.50852,-20.7793,-15.60962,-10.65495,-7.353715,-6.168058,-6.478398,-7.213716,-7.749392,-8.385095,-10.01153,-13.18988,-17.34773,-20.76771,-21.49928,-18.6383,-13.094,-7.259795,-3.733005,-3.887934,-7.218051,-11.84671,-15.8119,-18.22843,-19.56034,-20.9043,-22.89092,-25.05603,-26.14323,-25.08457,-21.89663,-17.80622,-14.51057,-13.13034,-13.62764,-15.08272,-16.54323,-17.72016,-18.94996,-20.47326,-21.69446,-21.17734,-17.57866,-10.91973,-3.173428,2.507928,3.657149,0.3001174,-4.586731,-6.483124,-1.879609,9.575759,24.7247,38.61169,47.20026,49.38817,47.10953,43.61054,41.19328,40.00775,38.65395,36.02213,32.90392,32.07919,36.69523,48.00771,64.05653,80.25125,91.56866,95.01138,90.86035,82.10884,72.6548,65.51006,62.03536,62.30495,65.87572,72.1117,79.82815,86.82254,90.13527,87.35468,78.3211,65.98003,55.45044,51.50965,55.88476,66.08919,76.70076,82.42892,81.10416,74.70472,67.78627,64.38554,65.47314,68.63889,70.15358,67.92121,63.22643,60.02302,62.21333,70.77192,82.69836,92.56441,95.68456,90.86723,81.00659,71.21356,65.77045,65.86549,69.42531,72.9127,73.71243,71.50583,67.90211,64.86942,63.27227,62.57973,61.8088,60.79413,60.64902,62.95424,68.25513,75.07234,80.3442,81.20566,76.97679,69.94373,64.20448,63.1068,66.79034,71.409,70.67463,59.00811,34.62764,0.9134404,-34.67506,-63.56558,-79.4483,-80.50628,-69.63956,-52.83183,-36.58918,-25.60851,-21.52547,-23.01124,-26.94052,-30.02748,-30.26442,-27.64523,-23.94339,-21.67486,-22.71038,-27.18621,-33.27015,-37.96491,-38.60736,-34.32243,-26.65051,-18.95459,-14.84583,-16.4059,-23.11935,-32.07544,-39.33956,-41.79699,-38.54736,-31.1948,-22.95834,-17.11098,-15.53509,-18.05427,-22.76747,-27.11986,-29.13668,-28.23925,-25.32123,-22.13345,-20.33483,-20.6841,-22.7464,-25.22292,-26.71013,-26.48794,-24.9255,-23.2858,-23.02281,-24.94272,-28.68959,-32.85785,-35.69328,-36.0118,-33.82455,-30.3126,-27.16162,-25.64301,-25.97995,-27.36654,-28.60697,-28.95302,-28.59035,-28.44659,-29.44082,-31.67927,-34.16881,-35.30516,-33.87662,-29.94555,-24.98518,-21.09202,-19.69554,-20.57171,-21.84968,-21.12196,-17.0562,-10.51958,-4.435494,-2.31635,-6.23599,-15.41259,-26.29416,-34.20158,-35.68269,-30.29222,-20.818,-11.83859,-7.418951,-9.191641,-15.79324,-23.83253,-29.73518,-31.4273,-29.04234,-24.47646,-20.23783,-18.2984,-19.46867,-23.3954,-28.93484,-34.58327,-38.81248,-40.35873,-38.5588,-33.68824,-27.08439,-20.82359,-16.93979,-16.49532,-19.00599,-22.6093,-24.97199,-24.49467,-21.1635,-16.57348,-13.10109,-12.67338,-15.78359,-21.24494,-26.76286,-29.99878,-29.59858,-25.74057,-20.01636,-14.74637,-12.01999,-12.82038,-16.55716,-21.21721,-24.14776,-23.22845,-17.95206,-9.863198,-2.015706,2.423444,1.790687,-3.106422,-9.289944,-13.13867,-12.36851,-7.355146,-0.9914036,2.901994,1.729376,-4.412768,-12.81591,-19.7233,-22.42413,-20.62836,-16.35903,-12.54561,-11.29031,-12.90296,-16.20285,-19.69771,-22.68819,-25.48724,-28.66584,-32.00321,-34.06987,-32.90995,-27.44427,-18.60094,-9.269269,-2.936944,-1.797392,-5.545198,-11.67843,-17.143,-20.24151,-21.53357,-23.12156,-26.82034,-32.48777,-37.71534,-39.17015,-34.75489,-25.16856,-13.81028,-5.037236,-1.849861,-4.43188,-10.39018,-16.43059,-20.31265,-21.83541,-22.3389,-23.24053,-24.74352,-25.66154,-24.45527,-20.6904,-15.80619,-12.55543,-13.39404,-18.84558,-26.92722,-34.07092,-37.03162,-34.65656,-28.47474,-21.78155,-17.77874,-17.84857,-20.91518,-24.19022,-24.82837,-21.55966,-15.43639,-9.336428,-6.509026,-8.901996,-16.09092,-25.32775,-32.70841,-34.93827,-30.88403,-22.16207,-12.43715,-5.717831,-4.460075,-8.438526,-14.99075,-20.52418,-22.47126,-20.59895,-16.93013,-14.34289,-14.71475,-17.76486,-21.31858,-22.8136,-21.05875,-17.07384,-13.42643,-12.47741,-14.6995,-18.2308,-20.03571,-17.9722,-12.41096,-6.275323,-3.358742,-5.905082,-12.97299,-20.68018,-24.28539,-20.92335,-11.37999,0.1519379,8.20983,8.878051,1.734632,-10.05063,-21.35965,-27.49071,-25.98732,-17.17399,-3.462531,11.89914,25.89889,36.30569,41.81317,42.10063,37.95519,31.28282,24.70504,20.66128,20.35989,23.19982,27.13362,29.89402,30.40587,29.49052,29.34734,32.06448,38.07831,45.59804,51.44128,52.82828,49.04573,41.93862,34.90941,31.0338,31.44009,34.90213,38.80917,40.82236,40.16192,37.79419,35.55009,34.86931,36.00721,38.11789,39.98875,40.81145,40.47586,39.32986,37.76877,36.07436,34.60176,34.01086,35.13123,38.35647,42.96087,46.97903,48.02188,44.72857,37.95923,30.80187,27.13181,29.43206,37.19457,46.99043,54.29937,56.04852,52.30402,46.06005,41.28684,40.51569,43.51024,47.80029,50.58236,50.59514,48.68071,46.74987,46.04699,46.09764,45.16992,41.8932,36.74985,32.1869,31.10856,34.76163,41.58891,48.01825,50.77419,49.12015,45.36281,43.10247,44.33417,47.44296,47.66795,39.98191,22.62611,-1.049248,-23.80453,-38.20173,-40.55598,-32.73349,-20.7488,-11.1397,-7.440374,-8.868336,-11.78398,-12.66508,-10.48274,-6.98455,-4.963932,-5.979556,-9.235875,-12.34969,-13.29025,-11.95144,-10.16947,-10.21846,-12.96913,-17.12441,-20.1098,-19.93894,-16.65061,-12.24925,-9.218912,-8.747356,-10.00137,-10.97701,-10.24149,-8.193492,-6.832174,-8.170254,-12.49436,-17.84721,-21.22323,-20.67668,-16.79879,-12.41793,-10.64798,-12.64647,-16.71464,-19.44754,-18.16364,-12.8805,-6.38382,-2.286249,-2.443733,-5.606472,-8.337376,-7.598108,-3.153341,2.004882,3.645687,-0.6025985,-9.223639,-17.38338,-19.86873,-14.49512,-3.684048,6.909196,11.86452,9.289647,1.777908,-5.548722,-8.530932,-6.610988,-2.870167,-1.531944,-4.745966,-10.93198,-15.84682,-15.62068,-9.628009,-1.164226,4.589926,3.963853,-2.74139,-11.39501,-16.69702,-15.59002,-9.175835,-1.9186,1.275619,-1.855716,-9.66166,-17.82936,-22.18175,-21.11142,-16.12309,-10.33804,-6.187656,-3.961833,-2.130641,0.9841965,5.568042,9.991171,12.05097,10.81736,7.630297,5.392749,6.552511,11.17493,16.5374,18.67081,14.92051,5.835092,-4.926294,-12.69065,-14.55609,-11.07248,-5.736156,-2.648637,-3.884102,-8.274943,-12.35945,-12.79533,-8.594578,-1.700484,4.424548,7.186284,6.572556,5.030294,5.609042,9.651902,15.62322,19.89587,19.01499,11.97383,1.033652,-9.433571,-15.33476,-14.9876,-9.733463,-2.787671,2.810734,5.808085,6.976876,8.034657,10.13872,13.03314,15.364,15.81882,14.19427,11.61215,9.756603,9.712725,11.24225,12.98947,13.43518,11.90821,8.962873,5.914803,3.924215,3.300118,3.484806,3.653217,3.419336,3.102393,3.373154,4.587829,6.352992,7.683482,7.660962,6.119319,3.85704,2.218738,2.337957,4.559204,8.399605,13.00169,17.68133,22.14879,26.27883,29.69142,31.56732,30.93957,27.30619,21.12185,13.76871,6.968648,2.004025,-0.7379333,-1.619023,-1.167506,0.4547497,3.501546,8.162363,13.94469,19.45624,22.85855,22.76997,19.04086,12.87678,6.219354,0.7929459,-2.569985,-3.951314,-3.833665,-2.542366,-0.1032318,3.416812,7.462146,10.93305,12.71437,12.46713,11.05899,10.18904,11.33361,14.68647,18.86114,21.64469,21.35537,17.89587,12.77108,8.062438,5.103753,3.831963,3.282344,2.816847,3.060727,5.679227,11.98501,21.33723,30.62969,35.54603,33.03672,23.48891,11.05217,1.659737,-0.2152229,5.891389,16.209,25.03175,28.12914,25.12176,19.33765,15.30577,15.58381,19.03241,21.66199,19.44827,11.20204,-0.4421671,-10.57769,-15.07622,-13.11117,-7.511276,-2.774188,-2.123852,-5.587081,-10.31589,-12.83279,-11.58385,-8.026709,-5.532688,-6.914121,-12.33299,-19.07751,-23.39664,-23.15411,-19.47511,-16.21071,-17.50044,-24.99494,-36.55957,-47.34509,-52.59578,-50.45868,-43.06075,-35.21577,-31.5909,-34.07664,-40.91502,-48.012,-51.53169,-50.15895,-45.7175,-41.8896,-41.91495,-46.67133,-54.2087,-60.89157,-63.39595,-60.41277,-53.18994,-44.75048,-38.31908,-35.81459,-37.12,-40.38788,-43.13612,-43.56807,-41.49714,-38.45427,-36.91199,-38.95522,-45.01972,-53.36564,-60.67073,-63.59019,-60.56508,-52.90401,-44.42597,-39.68166,-41.60183,-49.85042,-60.87656,-69.74007,-72.75023,-69.42325,-62.61351,-56.73067,-55.10309,-58.06927,-62.93364,-65.77359,-63.94519,-57.72647,-50.11202,-44.95261,-44.6597,-48.9108,-55.08825,-60.04102,-61.93875,-61.00821,-58.75826,-56.33995,-53.25456,-47.35633,-36.20271,-18.89364,2.791713,24.71737,42.03391,51.23961,51.57114,45.09081,35.58231,26.93726,21.81475,21.04085,23.76314,28.08337,31.84661,33.37133,31.98625,28.24532,23.6927,20.17484,18.94246,20.00083,22.13695,23.70407,23.75122,22.7801,22.56306,25.02702,30.85717,38.74381,45.85539,49.34292,47.97561,42.86087,36.75957,32.41384,30.96691,31.4962,31.93599,30.71762,27.96858,25.4193,25.08052,27.63389,31.71355,34.65567,34.26336,30.38595,25.18145,21.80176,22.32884,26.34783,31.16036,33.55233,31.95855,27.55141,23.46519,22.61889,25.58623,29.99662,31.97977,28.7962,20.93922,12.23995,7.745591,10.59254,19.82066,30.57387,36.68573,34.15583,23.43114,9.109017,-2.748711,-8.04101,-6.710064,-2.269285,0.8174971,0.1586991,-3.098554,-5.272231,-2.90881,4.562506,14.09174,20.75128,20.89308,14.69219,6.380901,1.910841,5.407769,16.57216,30.62801,40.87637,42.33949,34.3596,20.70323,7.258433,-1.181077,-3.127517,-0.4557125,3.439475,6.001841,6.845281,7.346573,9.008231,11.8819,14.2081,13.5177,8.407059,-0.2629898,-9.596532,-16.2099,-18.11454,-15.74484,-11.5078,-8.188043,-7.249607,-8.100824,-8.730426,-7.236709,-3.223755,1.837934,5.496761,5.866107,2.840919,-1.767332,-5.236749,-5.431988,-1.870721,4.24839,10.97946,16.84445,21.51404,25.54782,29.46457,32.89447,34.51926,32.93961,27.90411,20.9766,15.00872,12.56834,14.25989,18.08857,20.45891,18.346,11.32422,2.083679,-5.054756,-6.815907,-3.152302,2.563041,5.605772,2.996318,-4.399395,-12.25732,-15.57521,-12.11268,-4.184771,2.536028,2.614338,-5.422077,-17.72756,-27.22494,-27.96229,-18.99921,-5.257188,5.337783,6.691045,-1.716001,-14.58742,-24.24622,-25.51247,-18.85855,-9.813097,-5.070857,-7.935081,-16.13974,-23.47778,-24.10527,-16.60182,-5.053084,3.564189,3.931654,-4.169841,-15.79894,-24.16629,-25.07006,-19.49985,-12.72866,-10.58243,-15.43559,-24.60251,-32.14346,-32.81756,-25.53481,-14.06216,-4.604353,-1.921413,-6.520096,-14.64115,-20.88064,-21.61168,-16.99635,-10.44693,-6.125342,-6.269673,-10.07615,-14.67593,-17.32054,-17.18252,-15.60624,-14.81107,-16.1081,-18.92814,-21.28328,-21.23738,-18.29073,-13.72819,-9.768686,-8.192713,-9.41881,-12.59146,-16.46863,-20.34528,-24.29874,-28.62796,-33.01768,-36.19483,-36.47918,-32.93232,-26.29379,-18.95268,-13.81896,-12.7232,-15.34937,-19.4216,-22.08346,-21.63647,-18.54939,-15.08801,-13.77379,-15.61775,-19.22754,-21.36213,-18.63897,-9.417993,5.20097,21.80045,36.21114,45.34467,48.35227,46.62177,42.78743,39.39437,37.90937,38.44277,40.10718,41.65938,42.06811,40.84124,38.13369,34.71799,31.82876,30.82767,32.6848,37.43753,43.93236,50.11296,53.85413,53.97649,50.87681,46.33643,42.52625,40.73046,40.55518,40.15717,37.43655,31.52131,23.63171,16.72801,14.05045,17.34225,25.77568,36.22659,44.77576,48.61146,47.29074,42.70126,37.82222,35.04314,34.99757,36.50343,37.53185,36.55229,33.45093,29.537,26.71296,26.34914,28.51976,32.0006,34.98041,36.05896,34.98328,32.74126,30.97718,31.03826,33.14656,36.14319,37.98611,36.81361,32.06333,25.0419,18.54326,15.58253,17.81529,24.4845,32.55862,38.13229,38.43662,33.37596,25.67227,19.43126,17.857,21.3908,27.36723,31.43144,29.92997,21.90307,9.538849,-3.128565,-12.45113,-16.98558,-17.87356,-17.69369,-18.63263,-21.17295,-24.06127,-25.43415,-24.24038,-20.98795,-17.38251,-15.20616,-15.25925,-17.05791,-19.38845,-21.21764,-22.27699,-22.96506,-23.76796,-24.74157,-25.491,-25.6285,-25.27387,-25.11481,-25.90925,-27.79327,-29.96534,-31.06769,-30.05537,-26.94124,-22.85609,-19.34918,-17.42219,-16.99953,-17.21913,-17.29935,-17.28556,-18.05119,-20.50548,-24.60597,-28.99425,-31.65678,-31.24033,-28.09323,-24.20244,-21.94098,-22.41348,-24.56061,-25.73203,-23.44407,-17.17818,-8.976198,-2.354538,-0.1931787,-2.972855,-8.529962,-13.48831,-15.40463,-14.19182,-11.89543,-11.03175,-12.67333,-15.61634,-17.19571,-15.17372,-9.402775,-2.141616,3.167976,3.836306,-0.669091,-8.65461,-17.33969,-24.32317,-28.42815,-29.57589,-28.10541,-24.29834,-18.55488,-11.97855,-6.650748,-5.02256,-8.555232,-16.46358,-25.57497,-31.6953,-31.85638,-26.10666,-17.65531,-11.15647,-10.11358,-14.98995,-23.19216,-30.89738,-35.50306,-37.08683,-37.9452,-40.57981,-45.55322,-50.72663,-52.46138,-48.02717,-37.6198,-24.60853,-13.77597,-8.624704,-9.441402,-13.32783,-16.14563,-15.11158,-10.39892,-4.784548,-1.659922,-2.759271,-7.085363,-11.67778,-13.64421,-12.07003,-8.550072,-6.036162,-6.817839,-11.00821,-16.53654,-20.62182,-21.70431,-20.51207,-19.5235,-21.16871,-25.96994,-31.89261,-35.40872,-33.66303,-26.3914,-16.35367,-7.940904,-4.739648,-7.487058,-13.63025,-18.75806,-19.07602,-13.50911,-4.26024,4.442292,8.660924,6.836993,0.5528825,-6.355544,-9.782916,-7.368532,0.4422858,10.71257,19.43575,23.32393,21.15564,14.16568,5.418827,-1.48875,-3.846193,-0.8254657,6.280403,14.62819,20.96274,22.88071,19.73555,12.84001,4.899844,-1.08145,-2.979218,-0.3382737,5.519492,12.08638,16.70557,17.64169,14.77237,9.63235,4.77593,2.681849,4.625451,10.00406,16.46732,20.88087,20.75754,15.50401,6.842533,-1.880543,-7.227983,-7.304405,-2.642737,4.137795,9.728458,11.82525,10.19982,6.588931,3.526783,2.838994,4.673291,7.575491,9.477043,8.939001,5.912099,1.633022,-2.167521,-4.190115,-4.076729,-2.301051,0.3488651,3.275386,6.245387,9.215468,12.04423,14.36563,15.7239,15.84299,14.80729,13.01917,10.98801,9.125471,7.68584,6.836609,6.722138,7.39849,8.668577,9.991525,10.64265,10.12365,8.593054,6.99252,6.691398,8.785806,13.45177,19.76015,26.08541,30.85555,33.17707,32.97815,30.68225,26.76669,21.62203,15.83212,10.57368,7.619123,8.647278,14.10863,22.38651,30.02179,33.21341,29.95164,21.55804,12.5437,8.587121,13.58105,27.38837,45.68185,62.10157,71.59473,73.04166,69.62317,66.68176,68.31017,74.67628,81.67757,83.15985,74.43485,55.08913,29.50768,4.862288,-12.27073,-18.8095,-16.11939,-8.72397,-1.70373,1.707224,1.127522,-1.631892,-4.225982,-5.333724,-5.269417,-5.474449,-7.372839,-11.34684,-16.40409,-20.65193,-22.26,-20.39669,-15.6999,-10.09682,-6.067425,-5.656329,-9.625326,-17.09537,-25.85483,-33.24708,-37.28054,-37.46033,-34.92719,-31.80962,-30.10164,-30.64757,-32.77299,-34.74852,-34.80571,-32.12384,-27.24887,-21.76563,-17.47895,-15.60849,-16.4159,-19.36227,-23.56392,-28.19828,-32.65036,-36.44383,-39.1623,-40.5177,-40.53522,-39.66294,-38.63634,-38.11474,-38.312,-38.88292,-39.1607,-38.58168,-36.99458,-34.64298,-31.87473,-28.8514,-25.52913,-21.94118,-18.52604,-16.15447,-15.71729,-17.50471,-20.84143,-24.32829,-26.61403,-27.18844,-26.59274,-25.81548,-25.2495,-23.99031,-20.11398,-11.92124,0.6042858,15.1567,27.88741,35.28839,36.07565,31.87508,26.2298,22.53057,22.18636,24.19461,26.31858,26.97632,26.45954,26.5895,29.05713,33.69092,38.02193,38.64433,33.57455,24.00164,14.09789,8.795697,10.82462,18.8959,28.27766,33.50594,31.59415,23.75203,14.55033,9.077839,9.889329,15.6339,22.14346,25.1885,23.09668,17.60194,12.49543,11.06118,13.99184,19.06974,22.69969,22.20545,17.40478,10.55229,4.838436,2.509824,3.784515,7.091704,10.26189,11.76208,11.21084,9.044607,5.827985,1.864357,-2.604783,-6.898326,-9.688216,-9.480141,-5.601682,0.9821488,7.732161,11.65804,10.9479,6.111972,-0.1496734,-4.395795,-4.411597,-0.5264946,4.535858,7.217558,5.184543,-1.326762,-9.643039,-16.14019,-18.1689,-15.30603,-9.301591,-2.910508,1.570882,3.188924,2.25675,-0.3845212,-4.08942,-8.57959,-13.55215,-18.20424,-21.23686,-21.5071,-18.92164,-14.85623,-11.61685,-11.11538,-13.56352,-17.11738,-18.87231,-16.71498,-10.88227,-4.137957,-0.2942535,-1.885019,-8.436206,-16.50637,-21.60494,-20.8842,-14.93959,-7.537919,-3.364347,-5.137754,-11.87994,-19.43415,-22.93342,-19.70482,-10.83612,-0.4867461,6.559725,7.546905,3.000208,-4.048553,-10.19423,-13.681,-15.05553,-16.19955,-18.5855,-22.04022,-24.84205,-24.98567,-21.64571,-15.79393,-9.58465,-5.006576,-2.771607,-2.16426,-1.835103,-0.8553272,0.7622797,2.383247,3.538125,4.458718,5.895554,8.3735,11.53615,14.18802,15.08735,13.90601,11.57456,9.659031,9.172827,9.727921,9.754522,7.746674,3.670658,-0.5590064,-2.051385,1.159369,8.54495,16.99955,22.44626,22.18254,16.46348,8.286153,1.523599,-1.351708,-0.47555,1.971639,3.563989,3.310532,2.034947,1.293206,1.772551,2.48961,1.469252,-2.583049,-8.926599,-14.89643,-17.56684,-15.85787,-11.54165,-8.297217,-9.325481,-15.10791,-22.87863,-28.25432,-27.98624,-22.01187,-13.44259,-6.529416,-4.014535,-5.655449,-8.841504,-10.74092,-10.37201,-9.116939,-9.376537,-12.43549,-17.17347,-20.62014,-19.98441,-14.69224,-6.941037,-0.3411975,2.406751,1.159553,-1.840727,-3.782969,-3.389121,-1.759498,-1.363545,-3.95834,-9.020842,-13.90773,-15.68138,-13.28269,-8.434001,-4.543786,-4.342637,-7.936201,-12.71362,-15.23734,-13.79928,-9.794196,-6.853804,-8.264512,-14.45167,-22.33918,-27.13951,-25.44367,-17.54401,-7.394194,-0.1883955,0.8585107,-3.581209,-9.56331,-12.52299,-10.14967,-3.608968,3.558281,7.931334,8.292521,5.921048,3.092395,1.084123,-0.7230411,-3.966116,-9.380451,-15.43722,-18.78424,-16.39349,-7.964705,3.227758,11.89424,13.88647,8.939041,1.111678,-3.512777,-0.5166184,10.0951,23.82579,34.35147,37.2226,32.29263,23.45602,16.04525,13.68983,16.62753,22.3343,27.72893,31.24357,33.3437,35.35478,37.73133,39.26987,37.96965,32.9151,25.67916,20.00826,19.76461,26.41246,37.77407,49.00768,55.28476,54.48924,48.23232,40.59278,35.48816,34.42714,36.03946,37.50718,36.74701,33.7863,30.47347,28.90733,29.84741,32.26957,34.29052,34.6383,33.48718,32.04446,31.31084,31.10904,30.25734,27.80955,24.34145,22.10071,23.64372,29.79315,38.44269,45.31346,46.44421,40.87988,31.69414,24.45754,23.95125,31.16963,42.57447,52.14528,54.95915,50.0332,40.67132,32.20737,28.71991,30.86309,36.08001,40.78976,42.85543,42.61572,41.94091,42.2599,43.19733,42.89731,39.735,33.99884,28.09866,24.9672,25.7393,28.45461,28.90636,23.25629,10.72762,-5.480821,-19.77868,-27.32119,-26.70681,-20.54204,-13.60674,-9.916704,-10.61553,-13.93671,-17.00187,-18.01124,-17.26825,-16.46457,-16.97187,-18.56612,-19.58858,-18.38513,-14.85806,-10.86873,-9.104838,-11.20586,-16.53238,-22.52035,-26.40168,-27.05693,-25.65176,-24.58961,-25.55443,-28.10279,-29.88914,-28.42058,-23.09954,-16.04696,-11.01922,-11.06871,-16.50833,-24.57817,-31.08049,-32.92828,-29.95099,-24.81414,-21.17149,-21.30416,-24.76667,-28.81789,-30.22515,-27.20216,-20.29168,-11.8072,-4.392549,0.2984249,2.07579,1.807247,0.6499476,-0.5046535,-1.177281,-1.249436,-1.007939,-1.294318,-3.447325,-8.728249,-17.33774,-27.64054,-36.34383,-39.88022,-36.39067,-27.09719,-16.03131,-8.048349,-6.21098,-10.15913,-16.54157,-21.26438,-22.08658,-19.83654,-17.4614,-17.63539,-20.6821,-24.34664,-25.60784,-23.18895,-18.83281,-16.23925,-18.28012,-24.48329,-30.76531,-31.89737,-25.20511,-12.93405,-1.416593,2.729642,-2.968849,-14.75656,-24.51498,-24.63581,-12.91286,5.69157,21.64111,26.26899,16.7524,-2.384817,-22.04178,-33.74275,-34.05981,-25.7463,-15.28123,-8.721416,-8.545519,-13.18116,-18.97716,-22.88883,-24.02204,-23.32398,-22.1397,-21.0123,-19.61687,-17.61163,-15.41236,-14.05851,-14.24523,-15.4412,-16.04013,-14.64463,-11.52682,-8.963399,-9.877592,-15.55698,-24.1214,-31.10485,-32.08833,-25.76031,-15.26192,-6.686614,-5.517695,-13.27751,-26.61567,-39.45618,-46.73532,-47.18471,-43.32856,-38.88564,-35.64462,-32.23178,-25.74175,-14.97768,-2.709893,5.066315,2.727933,-10.87242,-30.77096,-48.17422,-55.43696,-50.54935,-38.13305,-26.22791,-21.0014,-22.94344,-27.09812,-27.09591,-20.11219,-9.237045,-1.553584,-3.239489,-15.11208,-31.75893,-44.91208,-48.77137,-43.62323,-35.2877,-30.8285,-33.55001,-40.77509,-45.92861,-43.42624,-32.90345,-19.77966,-11.71213,-13.36186,-23.08684,-33.87011,-37.90677,-31.78832,-18.83355,-7.042947,-4.060686,-12.44468,-28.22782,-43.51364,-51.24487,-49.05899,-39.98889,-29.97581,-24.15013,-24.32508,-28.97699,-35.14862,-40.55681,-44.42639,-46.85028,-47.69236,-46.26908,-42.16857,-36.39109,-31.53374,-30.43481,-34.0176,-39.96748,-43.53548,-40.31986,-29.33897,-14.25296,-1.666365,2.609212,-3.02228,-15.09855,-27.4371,-35.1063,-37.35705,-37.53857,-40.11787,-46.95399,-55.53593,-60.53328,-57.65968,-47.13445,-34.17546,-25.92347,-26.66776,-34.53046,-41.94991,-39.88545,-23.23298,5.900449,39.09694,66.13697,80.3438,81.59043,75.37942,68.89388,66.6793,68.59087,70.9738,69.92135,64.2709,56.42146,50.66656,50.37222,55.93396,64.73186,72.88495,77.48881,77.90362,75.48387,72.23964,69.50868,67.48522,65.6765,63.68222,61.58306,59.69162,58.02016,56.06724,53.22934,49.57101,46.30091,45.4341,48.68838,56.25866,66.29429,75.52101,80.75106,80.46453,75.59203,69.08139,64.50878,64.46256,69.47453,77.91374,86.77342,92.91879,94.26701,90.48252,82.99023,74.33477,67.12618,62.97364,61.86797,62.33249,62.32164,60.4318,56.7535,52.83222,50.7075,51.58503,54.98112,58.92841,61.16076,60.52883,57.70234,54.6608,53.2916,54.04887,55.62083,55.87462,53.45108,48.89349,44.48536,42.85941,45.31659,51.02139,57.63704,62.93433,66.18922,68.31381,70.58346,72.89559,72.93572,67.07533,52.61912,29.98665,3.306598,-21.15288,-37.89452,-44.71833,-43.35363,-37.90429,-32.2098,-27.868,-24.122,-19.47889,-13.7309,-8.813892,-7.818469,-12.82281,-23.10028,-35.03208,-43.90043,-46.4462,-42.55483,-35.03048,-27.70221,-23.1822,-21.72981,-21.81687,-21.77309,-21.19018,-21.05049,-22.57568,-25.78655,-28.99297,-29.72847,-26.5291,-20.25725,-13.91694,-10.94258,-13.03974,-19.02621,-25.48706,-28.84508,-27.49961,-22.65499,-17.36036,-14.48258,-15.00398,-17.73317,-20.48236,-21.74982,-21.65878,-21.52366,-22.46211,-24.18244,-24.93044,-22.70156,-16.85489,-8.925011,-1.966456,1.192025,-0.3850332,-5.28543,-10.79732,-14.69541,-16.4912,-17.28579,-18.40416,-19.91181,-20.23334,-17.29453,-10.44158,-1.695232,4.783507,4.960083,-2.392195,-14.37866,-25.10081,-28.77143,-23.06531,-10.6644,2.040865,8.439498,5.378828,-5.111245,-17.05057,-23.95311,-22.45411,-14.02704,-3.868257,2.299867,1.578602,-4.541734,-11.23094,-13.27901,-8.21179,2.20157,12.83112,17.89035,13.93988,1.607688,-14.77721,-29.3021,-37.15267,-36.51283,-28.88324,-17.89541,-7.424171,-0.01055633,3.726058,4.639339,4.072369,3.018179,1.870016,0.7403194,-0.05070866,0.2045524,2.261301,6.261045,11.23676,15.22609,16.07982,12.59207,5.315241,-3.466356,-10.68294,-13.90004,-12.47675,-7.844564,-2.76016,0.066474,-0.7468989,-4.69569,-9.767158,-13.48039,-14.01144,-10.86347,-4.846235,2.495254,9.625084,15.5485,19.93258,22.86041,24.44057,24.53156,22.75239,18.78555,12.81067,5.806715,-0.517495,-4.246316,-4.069003,-0.0002799522,6.415095,12.63336,16.21345,15.9629,12.49899,7.866786,4.380277,3.330942,4.321776,5.631857,5.387856,2.807269,-1.27442,-4.925093,-6.340498,-4.974752,-1.856781,1.076458,2.149075,0.8367298,-2.158845,-5.586174,-8.490889,-10.59352,-11.98666,-12.51688,-11.49148,-8.089627,-2.251179,4.671479,10.16834,11.80396,8.743508,2.544135,-3.4466,-5.858038,-3.189583,3.366801,10.72109,15.79772,17.32834,16.37226,15.27147,15.8058,17.84123,19.40603,18.1344,13.07637,5.628596,-1.053603,-3.781003,-1.07971,6.107244,15.09789,22.96617,27.85917,29.41862,28.30689,25.43294,21.53345,17.30511,13.73211,12.07092,13.2925,17.34223,22.87217,27.83719,30.68709,31.34006,31.15635,31.79236,33.66204,35.12677,33.13775,25.07846,10.67221,-7.336698,-24.28552,-35.89118,-40.36678,-39.09347,-35.52229,-33.09887,-33.55256,-36.52238,-40.51624,-44.31689,-47.76601,-51.44725,-55.67081,-59.67437,-61.74512,-60.23288,-54.73794,-46.62554,-38.51017,-33.06853,-31.93776,-35.28063,-42.04362,-50.48093,-58.51072,-63.86385,-64.36711,-58.67191,-47.25981,-33.02436,-20.67862,-14.86442,-17.79901,-27.8697,-40.24482,-49.38668,-52.07217,-49.05297,-44.25249,-41.97052,-43.92067,-48.09258,-50.24137,-47.01505,-38.56908,-28.80875,-22.99674,-24.28815,-31.548,-39.98994,-44.27959,-42.05729,-35.51708,-29.96257,-30.2848,-37.69645,-48.87677,-58.06416,-60.68747,-56.15392,-48.03876,-41.67608,-40.8299,-45.6152,-52.88595,-58.61839,-60.5656,-59.43726,-57.99361,-58.88185,-62.79805,-68.18163,-72.49271,-74.04482,-73.08456,-71.44233,-71.10132,-72.71552,-75.03238,-75.48804,-71.4885,-61.57826,-45.94538,-26.23283,-4.98736,14.92601,30.86066,40.96037,44.753,43.49256,39.86449,36.92602,36.67812,39.06985,42.13341,43.30008,41.14063,36.40019,31.58506,29.31946,30.57033,33.99776,36.9446,37.41444,35.61914,33.90066,34.95431,39.54819,45.43008,48.41176,45.13125,35.71531,24.42912,17.59078,19.82711,30.96169,45.60194,55.89273,55.91934,45.14618,28.79987,14.94072,9.966225,15.20315,26.52249,37.04178,41.15814,37.48777,29.12033,21.3103,18.22209,20.72234,26.36345,31.26486,32.52803,29.70588,24.64399,20.07655,18.01904,18.89877,21.72831,24.94565,27.26831,28.10773,27.51301,25.90695,23.87204,22.03848,20.96143,20.9044,21.62449,22.37419,22.25038,20.75495,18.2071,15.66723,14.33443,14.76058,16.39969,17.82457,17.50594,14.6662,9.6694,3.733227,-1.78776,-6.029528,-8.761177,-10.05186,-9.847667,-7.891238,-4.101396,0.9078354,5.685461,8.472934,8.184534,5.202453,1.359771,-1.022877,-0.5323355,2.387193,5.584121,6.423242,3.349867,-3.181572,-10.99522,-17.49443,-21.12099,-22.04046,-21.66063,-21.38722,-21.52161,-21.08456,-18.67986,-13.77256,-7.439301,-1.992957,0.3526947,-1.068577,-4.78733,-7.925448,-7.856151,-3.798001,2.647244,8.373524,10.56173,8.323796,3.224158,-1.620658,-3.322564,-0.8304238,4.559073,10.05419,13.04981,12.64236,10.10609,8.086046,9.00491,13.61792,20.53679,26.97127,30.24078,29.18867,24.71579,19.17019,14.98313,13.35041,13.70525,14.2539,13.22822,10.10251,6.04682,3.329966,3.981501,8.452929,15.03891,20.43175,21.18954,15.42042,3.86075,-10.19088,-22.07767,-27.5971,-24.62758,-13.89367,1.399221,16.82594,28.31905,33.42213,31.81189,25.04234,15.77925,6.899721,0.749158,-1.339974,0.7151593,5.732752,11.53455,15.57921,15.91332,12.1312,5.837507,0.1759142,-1.589064,2.138285,10.09879,18.43125,22.49251,19.42167,10.03179,-1.198842,-8.262543,-6.854904,3.096287,17.12783,28.46079,31.55373,24.9761,11.96224,-1.613292,-10.56391,-13.01303,-10.82549,-7.790921,-6.89906,-8.516749,-10.55235,-10.30512,-6.596009,-0.6848817,4.590926,6.758541,5.322661,1.946607,-0.8420429,-1.433176,-0.1324918,1.260699,0.8928309,-1.781997,-5.667656,-8.855473,-9.898737,-8.564171,-5.589343,-1.802228,2.554338,7.679353,13.38994,18.41092,20.57392,18.02804,10.68995,0.8105389,-7.957907,-12.55924,-12.32489,-9.319557,-6.938526,-7.66649,-11.52074,-16.24946,-19.12305,-19.01467,-17.23982,-16.50428,-18.68621,-23.06608,-26.36504,-24.70124,-16.20018,-2.464833,12.16801,23.17579,28.55063,29.87066,31.02884,35.46118,43.70063,52.85651,58.34985,56.7827,48.13305,35.9498,25.50408,21.07131,23.92648,32.06013,41.53456,48.51545,50.84028,48.47856,42.98314,36.50419,30.94803,27.53305,26.67689,28.04554,30.70455,33.42511,35.15945,35.52647,35.02099,34.74381,35.73376,38.27654,41.63076,44.37432,45.1827,43.57494,40.1952,36.49969,34.07661,33.99085,36.44724,40.81967,45.91151,50.29924,52.71162,52.44573,49.73701,45.85548,42.69512,41.86531,43.68627,46.72974,48.36868,46.21262,39.649,30.48159,22.10109,17.5544,17.68308,20.59323,22.93036,22.2249,18.75699,15.58095,16.51667,23.32069,33.94118,43.18959,45.63451,39.01025,25.96692,12.93362,6.65677,10.45948,22.46227,36.78125,46.86819,48.89385,43.19396,33.16616,22.66368,13.76302,6.288452,-0.9157974,-8.231645,-14.52854,-18.03323,-18.06599,-16.16336,-15.51493,-18.91847,-26.64385,-35.80674,-41.87688,-41.45793,-34.5269,-24.61433,-16.76127,-14.57817,-18.31654,-25.14314,-31.2941,-34.54109,-35.28819,-35.67598,-37.52127,-40.71278,-43.27009,-42.98293,-39.34673,-34.28161,-31.02966,-31.99028,-37.06382,-43.71973,-48.74825,-50.41711,-49.46207,-48.21463,-48.57236,-50.3981,-51.62144,-50.01768,-45.31583,-39.94463,-37.6693,-40.94868,-48.89198,-57.40149,-61.5931,-58.93106,-50.9072,-42.02971,-36.75651,-36.49133,-38.77771,-39.30268,-35.3108,-27.95595,-21.80089,-21.67216,-29.01385,-40.35405,-49.12393,-49.75208,-41.31679,-28.24636,-17.52162,-14.22029,-18.39429,-25.36909,-29.20185,-26.86007,-20.20316,-14.409,-14.00357,-19.3619,-26.23869,-28.75602,-23.80061,-13.70791,-5.212691,-5.196283,-16.01036,-33.54174,-49.41302,-55.97302,-50.87515,-38.316,-26.21655,-21.26685,-25.06424,-33.71619,-40.90593,-42.16373,-37.46081,-30.57379,-25.96248,-25.54055,-27.61319,-28.57032,-25.91328,-20.29363,-15.0501,-13.6173,-16.76442,-21.76363,-24.19592,-21.17404,-13.68522,-6.297651,-4.280735,-9.998496,-21.006,-31.19775,-34.36257,-27.9236,-14.53134,-0.5689643,7.420241,6.154345,-3.099542,-15.87806,-27.37062,-34.8501,-38.3168,-39.33935,-39.26895,-38.23362,-35.53883,-30.94889,-25.66273,-22.07361,-22.37166,-26.96683,-33.91047,-39.82572,-41.81475,-39.1232,-33.49564,-28.02335,-25.26808,-25.87215,-28.47824,-30.87931,-31.53313,-30.42483,-28.79716,-28.07971,-28.85702,-30.59501,-32.22893,-33.07355,-33.31883,-33.73727,-34.87222,-36.40359,-37.27654,-36.59637,-34.65707,-33.26233,-34.90044,-41.12167,-51.10508,-61.44009,-67.49307,-65.75799,-55.89874,-41.24596,-27.32783,-19.14055,-18.6334,-23.82197,-30.05444,-32.73628,-29.97145,-23.60604,-18.06232,-17.62032,-23.71298,-33.8197,-42.64993,-45.00472,-38.73477,-26.12894,-12.92589,-5.450115,-7.401916,-18.00237,-32.43537,-44.28318,-48.62323,-44.19321,-33.63114,-21.86757,-13.66946,-11.62689,-15.45832,-22.70522,-30.19204,-35.39684,-37.14501,-35.54768,-31.50829,-26.21573,-20.85545,-16.50992,-14.08061,-14.11503,-16.57376,-20.68689,-25.03796,-27.90603,-27.77472,-23.85714,-16.48112,-7.200712,1.474459,6.768798,6.630695,0.6891571,-9.29592,-19.86906,-27.19307,-28.71508,-24.32435,-16.27888,-7.813165,-1.143609,3.942074,9.965505,20.05005,35.5952,54.80159,73.0991,85.39229,88.86578,84.65485,77.30959,72.31139,73.10225,79.38988,87.68639,93.6477,94.69624,91.32549,86.41138,83.15974,83.1227,85.53632,88.23799,89.35416,88.51711,86.83549,85.79845,86.03828,86.88558,86.98016,85.38235,82.28773,78.81331,76.08825,74.43268,73.31751,72.13551,71.10788,71.46992,74.60827,80.68222,87.79681,92.54704,91.83776,84.91782,74.2629,64.57055,60.32022,63.31229,71.67501,80.94267,86.53257,86.11571,80.51387,72.74125,65.96784,61.76108,59.62953,57.9398,55.38762,51.95482,48.78204,47.20994,47.79523,50.02316,52.84574,55.53908,58.17141,61.31984,65.28658,69.46586,72.41283,72.6408,69.62408,64.30585,58.73594,55.04805,54.41775,56.62599,60.42119,64.34885,67.46147,69.49549,70.53919,70.58521,69.39556,66.80415,63.19081,59.68053,57.79766,58.69801,62.4293,67.68295,72.19943,73.58356,70.07146,60.89674,46.23328,26.97649,4.648445,-18.52896,-39.64643,-55.53337,-63.67886,-63.29993,-55.93341,-45.04826,-34.69581,-27.81672,-25.10987,-25.09922,-25.34962,-24.09174,-21.27888,-18.46991,-17.68798,-20.0428,-25.01504,-30.8185,-35.51914,-38.10648,-38.80258,-38.47884,-37.698,-36.14994,-32.92543,-27.42519,-20.20395,-13.07732,-8.348279,-7.650977,-11.18687,-17.83379,-25.96656,-34.32262,-42.26998,-49.36589,-54.72096,-56.89091,-54.61219,-47.95133,-38.94756,-31.02287,-27.26836,-28.60849,-33.12062,-37.14166,-37.601,-34.08934,-29.21381,-26.86433,-29.44923,-35.9608,-42.29243,-43.76824,-38.31553,-28.16579,-18.83494,-15.88867,-21.48413,-32.89647,-44.00474,-48.83061,-44.9224,-34.51406,-22.85026,-14.8738,-12.43506,-13.70877,-14.9715,-13.36074,-8.717443,-3.383597,-0.2893131,-0.790877,-3.776469,-6.575213,-6.926528,-4.584386,-1.468179,-0.3312093,-2.921126,-8.881702,-16.05632,-21.87745,-24.85131,-25.19982,-24.38688,-24.01143,-24.87549,-26.76805,-28.9207,-30.64817,-31.68097,-32.06047,-31.8588,-31.08645,-29.90536,-28.91138,-29.10724,-31.39663,-35.8394,-41.19389,-45.18149,-45.47731,-40.93818,-32.37315,-22.38229,-14.30664,-10.8145,-12.81311,-19.16004,-27.22202,-33.95661,-37.0414,-35.65461,-30.69323,-24.39246,-19.44776,-17.87897,-20.01927,-24.08748,-26.68527,-24.19883,-14.60104,1.19534,19.22134,33.83575,40.10661,36.09382,23.88213,8.77691,-3.009492,-7.083276,-2.694662,7.182924,17.48251,23.51007,23.02283,16.96976,8.66994,1.97665,-0.5867752,1.176221,5.38537,9.306046,10.82055,9.381065,6.028131,2.590369,0.6018448,0.5670804,1.9416,3.740111,5.316127,6.783415,8.815678,11.98505,16.1157,20.12664,22.51498,22.20184,19.20579,14.70731,10.4538,7.880202,7.493935,8.880897,11.25949,14.14244,17.61176,22.01278,27.31192,32.6341,36.39504,37.03973,33.96043,28.00979,21.25273,16.07439,14.1526,15.86163,20.36549,26.21445,31.98334,36.56699,39.09421,38.76109,34.94555,27.69208,18.24453,9.092083,3.188078,2.53947,6.901779,13.45868,17.93572,16.77887,9.295054,-1.512431,-10.0947,-11.10056,-2.350131,13.60009,30.29692,40.36621,39.15563,27.12728,9.687797,-5.500695,-12.31587,-9.060777,1.061157,12.02944,18.38131,17.95059,12.50879,6.144701,2.551997,2.959587,5.910105,8.834474,10.20113,10.69217,12.57456,17.7145,25.65947,33.23145,36.08995,31.38703,19.8277,5.734523,-5.060225,-8.296769,-3.504419,5.960736,15.02339,19.79769,19.52392,16.4572,13.97137,14.2354,16.97596,20.01172,21.02969,19.3009,16.17919,14.13829,15.10205,19.2367,24.95486,29.98833,32.67583,32.57032,30.07515,25.57852,18.90112,9.557673,-2.371948,-15.51224,-27.30854,-35.09114,-37.46383,-35.09868,-30.38209,-26.12382,-24.16493,-24.75392,-26.99247,-29.90174,-33.27044,-37.68357,-43.78976,-51.44844,-59.46367,-66.13726,-70.23005,-71.61186,-71.13399,-69.87115,-68.36507,-66.47504,-63.92242,-61.02069,-58.89558,-58.8949,-61.56847,-66.0211,-70.23323,-72.22562,-71.25294,-68.12042,-64.34937,-60.83629,-57.12532,-52.01472,-45.15504,-38.35873,-35.31136,-39.42632,-51.05943,-66.1045,-77.3942,-78.54861,-68.08309,-51.03722,-36.67766,-33.2894,-43.11419,-60.69132,-75.89478,-80.00589,-71.11153,-55.38791,-43.35046,-43.34818,-56.38339,-75.52877,-90.28467,-93.06396,-83.66566,-68.96313,-58.17064,-56.88979,-63.82022,-72.14765,-74.49246,-68.01103,-56.27312,-46.79408,-46.00492,-55.05431,-69.1388,-80.62891,-83.78391,-77.9708,-67.49421,-58.47324,-55.03751,-57.28032,-61.95319,-64.96136,-63.69629,-57.73222,-47.88433,-34.88592,-19.03228,-1.082314,16.58768,30.00845,35.40322,31.80061,22.56149,14.32362,13.54141,22.59044,37.9993,52.2068,57.99841,52.93659,40.95565,30.02114,27.26451,34.63945,47.81717,58.9527,61.49481,53.98535,40.56961,28.13321,22.10474,23.62697,29.67162,35.61789,38.28807,37.40628,34.81176,32.42636,30.7373,28.92342,26.30282,23.66799,23.16926,26.62628,33.53886,40.51315,42.90915,37.85093,26.5653,14.24492,7.226196,9.145918,18.57673,29.77955,36.18798,34.41262,26.18878,17.05308,12.70354,15.48894,23.28835,31.33822,35.55937,35.0158,31.90826,29.35343,28.77819,28.93714,27.25516,22.391,15.96258,11.97243,14.18903,23.31071,35.99344,46.55457,50.27148,46.05159,36.68885,26.63389,18.95589,13.6911,8.691151,2.194053,-4.958066,-9.280121,-6.969988,3.037714,17.58718,30.65346,36.79359,34.41292,26.61268,19.02588,16.1289,18.55612,23.20317,25.91091,24.70672,21.23725,19.39024,22.17157,29.17721,36.55915,39.558,35.7982,26.97636,17.72928,12.49984,12.64812,15.85052,18.14402,17.05176,13.45816,10.8542,12.53047,18.83225,26.56602,31.0849,29.60407,23.35755,16.98323,15.4787,20.79276,30.39254,38.77653,40.88456,35.10852,23.98292,12.30887,4.199152,1.110693,2.002388,5.097805,9.598269,15.91169,24.3054,33.28094,39.30565,38.52192,29.45211,14.74392,0.4603951,-6.955365,-4.253305,6.78721,20.45923,30.46077,33.31678,29.78161,23.54733,18.39825,15.87419,14.94932,13.66145,11.22307,8.900723,8.999286,12.79138,19.07164,24.55445,25.94686,22.23866,15.53234,9.746305,8.040688,10.73465,15.14947,17.46772,15.31046,9.275248,2.450614,-1.660183,-1.317401,2.630764,7.697869,11.64451,13.88351,15.46248,17.79813,21.25362,24.69879,26.38566,25.43405,22.7459,20.5886,21.08741,24.691,29.71933,33.3418,33.32647,29.37326,23.1622,17.16308,13.09988,11.14457,10.3317,9.778684,9.72469,11.55751,16.75141,25.44403,35.67543,43.90926,46.63903,42.20096,31.78138,19.0716,8.751076,4.547038,7.742648,16.71846,27.63282,35.92086,38.04622,32.87841,22.17507,9.914033,0.6433237,-2.518633,0.6824861,7.54428,13.82592,16.02381,13.28342,7.825987,3.566051,3.674343,8.529466,15.33225,19.67016,18.11332,10.26451,-0.9850004,-11.1181,-16.50641,-16.21971,-12.09539,-7.196031,-3.79512,-2.227256,-1.222822,0.7339936,4.164695,8.41542,12.59093,16.75149,22.29028,31.02893,43.59883,58.32877,71.62722,79.8326,81.42281,78.10194,73.9426,73.03412,77.11179,84.68902,92.23203,96.5517,96.78795,94.66676,92.93275,93.1269,94.33227,93.80151,89.0304,79.7743,68.50571,58.87896,53.1865,50.55344,47.18428,38.61239,22.54056,0.428904,-23.20433,-43.30208,-56.96107,-64.5887,-68.89452,-72.55728,-76.25913,-78.4407,-76.86475,-70.77769,-62.03634,-54.30874,-50.83868,-52.31296,-56.34896,-59.03638,-57.55761,-52.15049,-46.08041,-43.60292,-47.2235,-56.03156,-66.17722,-73.17164,-74.52876,-71.08996,-66.26333,-63.75306,-65.27602,-69.68572,-73.95778,-75.29119,-72.92962,-68.5756,-65.23289,-65.30492,-69.18277,-75.15648,-80.59882,-83.58305,-83.89591,-82.86568,-82.21322,-82.73808,-83.71375,-83.38107,-80.21647,-74.15861,-66.98561,-61.53976,-60.19053,-63.41183,-69.33549,-74.61944,-76.22013,-73.09714,-66.84856,-60.82787,-58.15517,-59.71943,-63.3582,-64.79303,-59.90434,-47.11103,-28.49063,-8.94358,6.179811,13.67799,13.87276,10.03703,6.298762,5.314478,7.067173,9.379557,9.653189,6.633245,1.097321,-4.845164,-9.22411,-11.38639,-12.11541,-12.72384,-13.86533,-14.95612,-14.60824,-11.72726,-6.464409,-0.3433035,4.515756,6.52815,5.384101,1.975548,-2.318966,-6.410014,-9.806049,-12.35835,-13.80661,-13.61609,-11.31506,-7.083812,-2.084964,1.829491,2.954869,0.6216174,-4.423832,-10.38348,-15.27769,-17.79737,-17.69398,-15.61981,-12.66617,-9.935797,-8.30435,-8.28946,-9.880756,-12.34746,-14.25423,-13.92656,-10.32264,-3.866133,3.382943,8.561126,9.546497,6.342921,1.363861,-1.7434,-0.1717178,6.290406,14.94711,21.61508,22.97692,18.45764,10.48102,2.974714,-0.9209207,-0.5130399,2.384506,4.909,5.082254,2.948591,0.2541629,-0.9892074,0.0003485341,2.242105,3.728383,2.858715,-0.436546,-4.625916,-7.559642,-7.809286,-5.482264,-2.033366,0.7223763,1.70816,1.111421,0.09387987,-0.02525306,1.454626,4.322777,7.715571,10.64785,12.44389,12.85851,11.93665,9.817659,6.660109,2.714359,-1.566366,-5.508298,-8.348649,-9.467423,-8.619081,-6.070614,-2.593113,0.7144136,2.751736,2.820218,0.9454125,-2.07084,-4.98314,-6.728136,-7.028757,-6.585189,-6.64596,-8.137922,-10.88234,-13.47354,-14.03609,-11.49878,-6.588822,-1.80932,-0.2361883,-3.746629,-11.74732,-21.26691,-28.47582,-30.78408,-28.24357,-23.36258,-19.42405,-18.36383,-19.57443,-20.42195,-18.15522,-11.96179,-3.803575,2.559546,3.771467,-1.083807,-9.902599,-18.78497,-24.24592,-24.98464,-22.12763,-17.91747,-13.87582,-9.798299,-4.317823,3.380206,11.99782,18.02003,17.42647,8.305891,-7.296732,-23.66157,-33.93461,-33.64233,-23.19629,-7.880743,4.778575,8.868314,3.064253,-8.869156,-20.2589,-25.12116,-21.20771,-10.94217,0.09235407,6.150461,4.17288,-4.898746,-16.80351,-26.08057,-28.48169,-22.5946,-10.14068,4.932804,18.00756,25.34376,25.14056,17.89036,6.04132,-6.855928,-17.24085,-22.549,-21.83845,-15.87132,-6.685545,3.128615,11.16147,15.71167,16.04147,12.41264,5.975607,-1.472221,-7.888411,-11.53236,-11.51909,-8.147039,-2.802454,2.565193,6.174258,7.009387,5.046934,1.101251,-3.508511,-7.257198,-8.630861,-6.397646,-0.0693896,9.546235,20.09235,28.15762,30.61896,26.32241,17.12695,7.4429,2.160897,3.907346,11.20214,18.80993,20.39825,12.18527,-4.506789,-23.42236,-36.37965,-37.5406,-26.5498,-8.75483,7.597225,15.55229,12.67069,1.622261,-11.85896,-22.16636,-26.21983,-23.93444,-17.02591,-7.427297,3.444371,14.27554,23.0702,27.11217,24.1589,14.21426,0.4987545,-11.45803,-16.46406,-12.60424,-2.593962,7.504009,11.62251,7.159096,-3.534684,-14.57274,-20.00478,-17.22875,-8.319771,1.414332,6.633177,4.923259,-2.170537,-10.40549,-15.3617,-14.59204,-8.279917,1.590698,12.62485,22.92609,31.13742,36.048,36.52897,32.15663,24.1107,15.45785,10.19955,11.33965,19.07863,30.38891,40.4677,45.35247,44.14153,39.40967,35.50611,35.77848,40.47763,46.6784,50.25358,48.61229,42.4294,35.26044,31.31288,32.81715,38.66305,45.11464,48.08546,45.51546,38.42292,30.12785,24.30005,23.12065,26.59258,33.15852,40.92923,48.5718,55.36232,60.66486,63.56311,63.18883,59.62203,54.61024,51.29675,52.76564,60.11412,71.29397,81.68643,86.36902,82.91636,73.07403,62.16079,56.33044,59.13353,69.33286,81.30911,87.95101,84.50363,71.26221,53.61776,39.41093,35.02282,42.27545,57.71466,74.51075,85.83067,87.86349,81.04075,69.09288,56.75088,47.48017,42.37973,40.54247,40.31823,40.5418,41.02678,42.23158,44.53112,47.66296,50.64827,52.08964,50.5373,44.71439,33.66891,17.07483,-4.226905,-27.71147,-49.19723,-63.82063,-67.82922,-60.42625,-44.61259,-26.32987,-12.09241,-6.202375,-8.987591,-17.00982,-25.10793,-29.11037,-27.70852,-22.5431,-16.66363,-12.47161,-10.46106,-9.431136,-7.824417,-5.127093,-2.322253,-1.124361,-2.616374,-6.316826,-10.37638,-12.77387,-12.66954,-10.95963,-9.643447,-10.441,-13.60685,-17.73084,-20.62212,-20.64689,-17.62588,-12.75998,-7.74678,-3.776823,-1.09424,0.6812608,1.859694,2.244137,1.324066,-1.074373,-4.248779,-6.705291,-6.91064,-4.23244,0.5921921,5.812825,9.625632,11.09655,10.44535,8.560538,6.165496,3.290791,-0.5495681,-5.627465,-11.30486,-15.96311,-17.7105,-15.45781,-9.665234,-2.259896,4.24588,7.901478,8.069256,5.420984,1.325878,-2.885001,-6.324935,-8.51562,-9.155509,-8.044541,-5.308433,-1.729857,1.183601,1.629486,-1.685018,-8.802299,-18.30229,-27.7897,-34.83416,-37.86335,-36.58374,-31.82994,-25.08094,-17.9921,-12.13586,-8.880288,-9.200878,-13.33511,-20.4466,-28.63295,-35.49605,-39.1339,-39.04591,-36.37544,-33.24748,-31.52595,-31.7331,-32.83382,-33.06409,-31.29101,-27.99573,-25.16571,-25.08103,-28.73917,-34.97,-40.90668,-43.61233,-41.8727,-36.98682,-31.97834,-29.66145,-30.7752,-33.42139,-34.24702,-30.68967,-22.87127,-13.88292,-8.180648,-9.00816,-16.41266,-27.09234,-36.20102,-40.03113,-37.9666,-32.56971,-27.83369,-26.74618,-29.66518,-34.41709,-37.89753,-38.04457,-34.9272,-30.38269,-26.63349,-24.93015,-25.11915,-26.27563,-27.75311,-29.74534,-32.90063,-37.3163,-41.78319,-44.02164,-41.93707,-35.1269,-25.58297,-16.98384,-12.8819,-14.8412,-21.65728,-30.12551,-36.85714,-40.01177,-39.92613,-38.37642,-37.09608,-36.59654,-36.05063,-34.22132,-30.69721,-26.50471,-23.61726,-23.64908,-26.59129,-30.45581,-32.14011,-29.07558,-20.73046,-9.098914,2.136519,9.352884,10.73596,7.118992,1.473738,-2.677528,-3.097095,0.06617203,4.511573,7.252429,6.502699,2.884332,-0.8242496,-1.350873,2.929816,10.71915,18.3174,21.81877,19.72178,14.25334,10.33455,12.55361,21.90084,34.41572,42.90894,41.03559,27.37686,6.931698,-11.1582,-18.52221,-12.24056,3.584648,20.39073,30.28963,30.56102,24.68509,19.34249,19.46128,24.68706,29.69613,28.16178,17.6576,2.060931,-10.36402,-12.1177,-1.513831,15.76562,29.77852,32.21837,21.3839,3.096564,-12.93643,-18.91187,-13.19673,-0.5436165,11.53997,17.62386,17.1891,13.87038,12.0579,13.51678,16.4151,17.23255,13.88903,7.629588,2.241558,1.236342,5.161112,11.0942,14.73611,13.56436,8.719318,4.215275,4.038995,9.254607,17.2281,23.52062,25.02774,22.02149,17.57431,14.81446,14.12907,12.53789,5.885174,-7.640244,-25.27273,-40.57849,-47.18053,-42.90714,-31.50782,-20.61954,-17.18466,-23.28455,-35.11312,-45.71557,-49.59146,-46.05042,-39.13945,-34.36872,-34.66636,-38.4509,-41.13541,-38.88751,-31.84297,-24.35203,-21.96976,-27.27579,-37.54326,-46.0823,-46.55745,-37.45512,-23.63892,-13.77419,-15.11907,-28.95001,-49.54123,-67.37009,-74.55935,-69.20486,-56.02246,-43.10336,-36.95447,-38.91053,-44.96323,-48.82229,-46.08168,-36.87757,-25.57673,-17.95745,-17.79608,-24.91157,-35.62034,-45.02947,-49.62019,-48.654,-43.85593,-37.91309,-32.89246,-29.49067,-27.33337,-25.85641,-25.03797,-25.4838,-27.87343,-32.2033,-37.37761,-41.47865,-42.64074,-40.09176,-34.78113,-29.17402,-26.19039,-27.74227,-33.62371,-41.43598,-47.74137,-49.93948,-47.83718,-43.90878,-41.90496,-44.46243,-51.09236,-57.87808,-59.29568,-51.28074,-33.78291,-11.20816,9.67005,23.2087,27.76335,26.20724,23.80744,24.80229,29.83889,35.85967,38.44098,34.99622,26.72088,18.01124,13.7749,16.42827,24.54219,33.94984,40.47708,42.41187,41.10304,39.43536,39.41636,40.67556,40.95461,38.17303,32.47807,26.66623,24.53192,28.22243,36.47243,45.05904,49.30624,47.02027,39.87696,32.29242,28.50697,29.84381,33.9945,36.80412,35.30947,29.91621,24.18731,22.36386,26.32077,34.07803,40.94392,42.56546,37.83346,29.65807,23.05471,21.80865,25.96164,31.82587,34.52479,31.34945,23.66014,16.04387,13.29648,17.2725,25.73328,33.95833,37.99443,37.28985,34.87892,34.97316,39.63273,46.88636,51.73095,49.47911,39.24987,25.1769,14.33785,12.5759,20.85294,34.52977,46.12642,49.85563,45.0418,36.23555,29.98747,30.4394,36.67709,43.60767,45.75191,41.34015,33.84027,29.735,33.92228,45.82261,58.96385,64.6019,57.25059,38.59383,17.13081,3.543273,4.514601,18.78757,37.9129,51.23874,52.06332,41.20263,25.91103,15.04135,13.62594,20.26657,28.76029,32.60639,29.26725,21.4124,14.54102,12.84441,16.27416,20.82449,21.72479,17.19314,10.02152,5.803107,8.986816,19.51217,32.44509,41.00968,41.06785,34.03321,26.17043,24.60243,32.55798,46.96605,60.04173,63.95661,55.69653,39.06824,22.59657,14.60445,18.46767,30.85116,43.84579,49.57196,44.45931,30.80726,15.00969,3.796431,0.8137835,5.36016,13.60424,21.15261,25.28586,25.7164,23.83652,21.31641,19.07762,17.14746,15.18364,13.06875,11.1005,9.745962,9.280564,9.657407,10.68039,12.27393,14.57921,17.79933,21.95441,26.77771,31.82354,36.62955,40.71228,43.35997,43.47542,39.82263,31.79102,20.31804,8.273946,-0.2585114,-1.747312,4.809535,16.87923,29.17312,36.03586,34.26242,24.78971,12.2691,2.715025,0.5268565,6.501594,17.81451,29.76027,38.08687,40.59496,37.3433,29.77378,19.65836,8.621388,-1.69711,-9.402753,-12.65771,-10.60479,-4.254912,3.550049,9.463682,11.63869,11.09189,11.29863,15.96615,26.24991,39.28103,49.23626,50.59334,41.67889,26.20536,11.59406,4.889449,8.690881,19.66631,30.66914,35.20139,31.41268,23.06349,16.80784,17.55797,24.99254,33.57555,36.16865,28.9233,14.21776,-0.3994706,-6.715658,-0.9856894,13.61513,28.84328,36.41243,32.99957,22.04327,11.21459,7.245045,11.49988,19.18625,22.704,16.94061,3.037077,-11.86327,-18.78614,-12.40631,5.594865,27.36508,43.3345,47.50669,40.40269,28.06893,18.03974,14.92614,18.291,23.82041,26.66334,24.59779,19.06597,13.71271,11.69844,13.67261,17.59602,20.21487,18.94303,12.87886,2.557673,-10.94162,-26.54776,-42.93578,-57.89868,-68.31504,-71.30504,-66.14706,-55.64692,-45.67598,-42.65306,-50.17943,-66.833,-86.63395,-102.1259,-108.3604,-105.4291,-98.03902,-92.4396,-92.63952,-98.22508,-105.0026,-107.8649,-103.9394,-94.04988,-81.76823,-70.94317,-63.49207,-58.86899,-55.33261,-51.87297,-49.28878,-49.63972,-54.53861,-63.60297,-74.2459,-83.01038,-87.5452,-87.8872,-86.21548,-85.30411,-86.74757,-90.11203,-93.4594,-94.75181,-93.12453,-89.23431,-84.61439,-80.64368,-77.89515,-76.22092,-75.32536,-75.24915,-76.34641,-78.81552,-82.22617,-85.48497,-87.31274,-86.8991,-84.27142,-80.16243,-75.55415,-71.28849,-68.00032,-66.28283,-66.75683,-69.80771,-75.11353,-81.39381,-86.76189,-89.63385,-89.65366,-87.94753,-86.41402,-86.44548,-87.96268,-89.5058,-89.40401,-87.22302,-84.39522,-83.44147,-86.19954,-92.26612,-98.83184,-102.1877,-99.99923,-92.81947,-83.73626,-76.28168,-71.94749,-68.98967,-63.3992,-51.48394,-32.41859,-9.120852,13.0985,29.23145,36.92843,37.15956,33.0197,27.7029,23.05179,19.46107,16.82134,15.46194,16.20924,19.53662,24.6332,29.36477,31.41364,29.88524,26.1635,23.21739,23.66202,27.85016,33.3793,36.49467,34.55999,27.97212,20.19817,15.83431,17.88884,25.99443,36.6194,45.04402,47.79263,44.07165,35.57611,25.14382,15.36167,7.970356,4.089645,4.5876,9.917026,19.39263,30.61382,39.87563,43.76281,41.12767,34.10461,27.22321,24.88147,28.62468,35.98648,41.77663,41.16318,32.70176,19.42686,7.296505,1.912035,5.470536,15.69952,27.25568,34.59924,34.61218,27.60256,16.46362,4.833118,-4.536793,-10.43674,-12.92151,-12.6732,-10.55531,-7.481021,-4.346599,-1.779527,0.2221189,2.398298,5.795066,10.93871,17.19009,22.87165,26.25307,26.79425,25.71698,25.34155,27.49493,32.05695,36.75894,38.55864,35.78801,29.60674,23.62882,21.77033,25.61797,33.06357,39.22712,39.23317,31.1704,17.3851,3.276938,-5.680116,-6.886605,-1.80123,5.230947,9.656264,9.222493,4.911096,-0.04251585,-2.225641,0.09643721,6.318352,14.1459,20.93714,24.89429,25.57839,23.72342,20.65923,17.68393,15.58311,14.38072,13.39802,11.68291,8.72781,5.132754,2.719625,3.783793,9.700765,19.66488,30.48384,37.8468,38.55123,32.41787,22.62729,14.09223,10.72966,13.28466,19.09402,23.96294,24.93955,22.15301,18.4894,17.33461,19.94184,24.26007,26.08895,21.8486,11.15106,-2.525514,-13.51531,-16.93957,-11.15753,1.676393,17.0317,30.28595,38.44656,40.5551,37.07155,29.14404,18.43341,7.368713,-0.8903953,-3.367926,1.172405,11.07051,22.10699,29.53411,30.73578,26.7819,21.68058,19.63704,22.08443,26.57577,28.46774,24.3936,15.14782,5.820993,2.795613,9.402317,23.12829,36.43858,40.97627,32.64112,14.33962,-5.422583,-17.33211,-16.52868,-5.14041,9.354607,18.76806,18.87857,11.33635,1.890719,-3.613162,-2.768847,2.465823,7.712267,9.381658,6.911533,2.684916,-0.02581525,0.5359619,3.535309,6.39936,6.822236,4.445015,1.103612,-0.3854207,2.029951,8.504837,17.34638,25.96615,31.98014,33.85067,31.00839,23.80309,13.58848,2.834253,-5.169785,-7.331106,-2.240142,8.701364,21.39803,30.68703,32.76975,27.10765,16.62962,6.066753,-0.623647,-2.219308,-0.4573993,1.488149,1.205562,-1.497368,-4.71202,-5.878113,-3.491113,2.055095,8.91147,15.02658,19.26397,21.6914,23.05226,24.02492,24.9174,25.95272,27.70749,31.08542,36.60408,43.44973,49.1443,50.39956,44.91771,33.09893,18.45406,6.197366,0.639075,2.851047,10.04393,17.11922,19.54424,15.86711,8.397287,1.690379,-0.1955414,3.994107,12.17027,20.32189,24.9119,24.759,21.35833,17.6365,16.07668,17.41547,20.60378,23.84549,25.87656,26.61847,26.87485,27.42922,28.26512,28.47084,26.86162,22.85614,16.99785,10.78546,5.938498,3.563294,3.694258,5.413512,7.404845,8.600733,8.608788,7.784696,7.000693,7.247379,9.208948,12.92915,17.67979,22.12586,24.79769,24.72444,21.93485,17.52754,13.20304,10.4651,9.929235,11.15055,13.07244,14.79334,16.12608,17.5595,19.65631,22.34565,24.67918,25.31254,23.43892,19.52379,15.25771,12.65094,12.80302,15.15927,17.78857,18.54516,16.36554,11.83825,6.669233,2.433504,-0.4883109,-3.009256,-6.382024,-10.88509,-15.15843,-16.79181,-13.89508,-6.63487,2.354436,9.099986,10.37069,5.466148,-3.382962,-12.24071,-17.54544,-17.78203,-13.82027,-7.904466,-2.126081,2.563428,6.259832,9.235195,11.14438,11.0293,8.151989,2.968563,-2.628741,-6.173915,-6.129229,-3.008596,0.7350845,2.11405,-0.5395758,-6.468433,-12.88106,-16.61291,-15.99034,-11.70307,-6.159536,-1.812011,0.398488,1.449215,3.280081,7.191906,12.73473,17.8555,20.19933,18.67776,14.25634,9.453712,6.897532,7.871134,11.73595,16.50863,20.13666,21.63809,21.45187,20.90506,21.24706,22.88348,25.22102,27.10763,27.52973,26.16707,23.57065,20.951,19.69911,20.80433,24.34204,29.2326,33.46903,34.87519,32.17743,25.87225,18.31331,12.74911,11.65273,15.21715,20.97143,24.92782,23.76934,16.87047,6.915224,-1.367609,-3.716156,1.330372,11.63052,22.62477,29.76598,30.74491,26.25833,19.04531,11.99688,6.640674,2.899763,0.0599339,-1.973226,-2.188781,0.8178907,7.452761,16.13285,23.55797,26.24656,22.43663,13.14345,1.66865,-8.161858,-13.94975,-15.69039,-15.24234,-14.76016,-15.18482,-15.78317,-14.98701,-11.90902,-7.477944,-4.398234,-5.900528,-14.0081,-28.33014,-46.06209,-63.16474,-76.05579,-82.93729,-84.17342,-81.69846,-77.92385,-74.76854,-73.2299,-73.52191,-75.48652,-78.90405,-83.49684,-88.70129,-93.48559,-96.48904,-96.55119,-93.41103,-88.16613,-83.12473,-80.96989,-83.54643,-90.85313,-100.8014,-109.9522,-114.9409,-113.914,-107.2753,-97.3958,-87.48601,-80.24873,-76.97761,-77.43554,-80.37438,-84.24453,-87.6787,-89.63718,-89.4156,-86.78101,-82.27506,-77.41035,-74.37866,-75.15044,-80.32345,-88.43007,-96.30452,-100.5316,-99.27422,-93.40894,-86.19821,-81.57104,-81.9621,-86.99226,-93.79974,-98.82727,-99.95944,-97.68964,-94.61649,-93.63584,-96.00889,-100.533,-104.3042,-104.5377,-100.2762,-92.94865,-85.51905,-80.84208,-80.2543,-83.1604,-87.67279,-91.7348,-93.997,-94.0513,-92.14124,-88.77058,-84.54289,-80.23402,-76.83356,-75.32043,-76.20651,-79.1424,-82.88557,-85.67279,-85.73763,-81.64468,-72.34306,-57.17576,-36.18119,-10.74146,15.86437,38.71083,52.69566,54.83848,46.21658,32.18133,20.27337,16.62135,22.72565,34.58278,44.89907,47.31062,40.20013,27.78378,17.69422,16.40683,25.23678,39.36313,50.53464,51.87379,41.90524,25.41067,10.64442,4.639478,9.419943,21.28932,33.42336,40.01488,39.40131,34.40759,29.96092,29.7021,33.7984,39.2351,42.19342,40.8073,36.44261,32.69288,32.81562,37.34993,43.52923,46.94024,44.42704,36.41087,27.09953,22.31855,26.14349,38.28994,53.84666,65.62825,67.91992,59.56152,44.64802,30.43609,23.5954,26.8541,37.83792,50.64638,59.1725,60.24614,54.88378,47.11188,41.26323,39.46671,40.79262,42.38533,41.65943,38.04387,33.18064,29.58492,28.80709,30.40752,32.42033,32.9003,31.38781,29.20614,28.36513,29.86802,32.68453,34.22192,32.08522,25.98283,18.44887,13.77032,15.65192,24.98457,39.05906,52.71524,60.78615,60.48945,52.53117,40.484,28.95091,21.56923,19.8034,22.90035,28.74385,35.00736,40.04842,43.2744,44.99604,45.95378,46.74877,47.41305,47.32401,45.56327,41.6063,35.9776,30.40383,27.18859,27.99515,32.68922,39.02648,43.58167,43.57627,38.6131,31.23374,25.81169,26.27495,33.90723,46.51171,59.46522,68.09358,70.02576,66.2187,60.1459,55.71313,55.14377,57.99374,61.71444,63.28387,60.90182,54.85239,47.20923,40.70874,37.46038,38.10314,41.67746,46.13035,49.16399,49.10244,45.50525,39.33709,32.61609,27.63152,26.02358,28.13431,32.95795,38.72472,43.79658,47.36566,49.57568,51.06443,52.30496,53.22464,53.34391,52.25805,50.03109,47.1596,44.15814,41.1723,38.05057,34.9193,32.8,33.59985,39.1495,49.68978,62.81176,73.82454,77.744,71.99471,58.23097,41.9689,29.92957,26.4355,30.94858,38.32856,41.83447,37.20559,25.39576,12.23762,5.108849,8.502087,21.12825,36.33312,45.66093,43.52164,30.24956,11.79062,-3.74393,-10.57851,-8.177543,-0.926213,5.053896,5.877128,2.165232,-1.729823,-0.9429274,6.409745,17.78107,27.77926,31.78743,29.23781,24.30249,23.3792,30.84158,45.7522,61.76502,70.50758,66.51213,50.68668,30.10771,14.15201,9.266049,15.55292,27.23217,36.59345,38.86423,34.87172,29.86547,29.41228,35.21177,43.71258,48.50692,44.8983,33.50965,20.37761,13.30973,16.82165,29.00747,42.4995,49.00476,44.52432,31.86092,18.75523,12.83204,16.61734,25.84191,32.11691,28.25604,12.85771,-8.705275,-27.4177,-35.83624,-32.17179,-20.90657,-9.863083,-5.750605,-10.87841,-22.69211,-35.89813,-45.5034,-48.93332,-46.38734,-39.86745,-31.94971,-25.07068,-21.30791,-22.12826,-27.76981,-36.58982,-45.16087,-49.60578,-47.73503,-40.68977,-32.78365,-29.26087,-33.14379,-43.17419,-54.3548,-60.9656,-60.21815,-54.13235,-48.26895,-48.01934,-54.85548,-65.0918,-72.11572,-70.73409,-60.7985,-47.65723,-39.02208,-40.20425,-50.78213,-64.86156,-74.76078,-75.73612,-68.71834,-59.372,-54.20045,-56.31377,-63.61086,-70.47551,-71.75236,-66.3186,-57.89619,-52.60461,-54.87437,-64.37164,-75.89614,-82.31683,-78.73158,-65.34618,-47.40836,-32.32622,-25.71045,-28.59557,-37.29105,-45.76991,-49.12738,-46.17715,-39.84867,-35.301,-36.86797,-45.5035,-58.0783,-68.89607,-72.65025,-67.28775,-55.25662,-42.40878,-35.03763,-36.55288,-45.56204,-56.4453,-62.18132,-57.92838,-43.41446,-22.85113,-2.507455,12.57473,20.7961,23.95683,25.22214,26.6023,27.67056,26.31196,20.85358,11.95841,2.834844,-2.496168,-1.747431,4.021777,10.88792,14.40266,12.29817,5.811867,-1.202352,-4.758739,-3.194121,1.945063,7.038585,8.697338,5.719158,-0.45524,-6.87319,-10.8779,-11.40419,-9.096305,-5.449625,-1.747945,1.490664,4.372102,7.126704,9.723567,11.81425,12.87061,12.28799,9.417819,3.735694,-4.684118,-14.56668,-23.2524,-27.44481,-24.83012,-15.73775,-3.656687,6.086046,9.02174,4.078054,-5.726444,-15.07874,-19.66883,-18.87337,-15.97041,-15.6257,-20.29871,-28.09031,-33.68746,-31.94787,-21.74032,-7.302053,4.048284,6.506247,-0.3504961,-11.11402,-17.96982,-15.79813,-5.541255,6.464502,12.76866,9.798175,0.1579572,-9.308981,-12.31662,-7.421766,1.182757,6.87776,5.502248,-1.599933,-8.574603,-9.393636,-2.413495,8.178034,15.17033,13.48528,4.01581,-6.684153,-10.8135,-4.871483,7.536291,17.7137,17.50416,4.804998,-14.76027,-31.19367,-36.32153,-28.78053,-14.58484,-3.04676,-0.8768299,-8.36331,-19.96272,-28.58138,-30.4149,-27.04757,-23.60336,-24.53982,-30.22218,-36.69025,-38.64988,-33.42121,-22.97627,-12.65149,-7.526271,-9.07847,-14.449,-18.72639,-18.52267,-14.26774,-9.659919,-8.783365,-13.04095,-20.09712,-25.51509,-25.82972,-20.83004,-13.47735,-7.638217,-5.360822,-5.673146,-5.690231,-3.106101,1.837398,6.3706,7.167219,2.790443,-5.194343,-13.24206,-18.21761,-19.39264,-18.60918,-18.53684,-20.36609,-22.70009,-22.52894,-17.63153,-8.663352,0.6503684,5.499756,2.908855,-6.338604,-18.05599,-27.07486,-30.16756,-27.63614,-22.6724,-19.07113,-18.8841,-21.49356,-24.52016,-25.73271,-24.5613,-22.23866,-20.64499,-20.8176,-22.22082,-23.2196,-22.29661,-19.05911,-14.32285,-9.307662,-4.651025,-0.04935053,5.185584,11.10512,16.48907,19.20766,17.475,11.20485,2.517081,-5.06869,-8.387841,-6.337388,-0.5185552,5.595312,8.518014,6.596012,0.817387,-5.840983,-10.12788,-10.32399,-7.150384,-3.313787,-1.97879,-5.029134,-12.06774,-20.67079,-27.71353,-30.99915,-30.28382,-27.16031,-23.94104,-22.25888,-22.24592,-22.75669,-22.41832,-20.74641,-18.523,-17.14408,-17.37914,-18.45193,-18.19725,-14.34027,-6.131027,4.779967,14.93445,20.89903,21.24375,17.38975,12.71718,10.44863,11.65384,14.6856,16.43327,14.56723,9.260809,3.202878,-0.1445362,1.112217,5.948145,11.01051,12.79255,9.950928,4.202096,-0.8239011,-2.026781,1.052678,5.866768,8.497416,6.220456,-0.6814533,-9.029305,-14.68428,-15.0403,-10.49398,-4.031187,0.6955208,1.51237,-1.22518,-5.1844,-7.674267,-7.210838,-4.111549,0.04515915,3.530351,5.357452,5.514458,4.650118,3.647378,3.398035,4.725495,8.175898,13.54938,19.44916,23.39012,22.79597,16.57013,6.301702,-3.892401,-9.180494,-6.670951,2.668474,14.2003,22.10615,22.87996,17.72001,12.19892,13.17293,24.62662,44.9241,67.20234,82.80166,85.80528,76.09586,59.23891,43.39838,35.18435,36.802,45.88961,57.71526,68.06784,75.03848,78.89861,80.66684,80.73507,78.63824,73.99199,67.64491,61.9092,59.47742,61.70448,67.52514,73.9044,77.64016,77.32759,74.11566,70.70039,69.25776,69.81367,70.28533,68.24343,63.15981,57.44255,55.30851,60.035,71.36146,84.88812,94.12451,94.10928,84.41019,69.5827,56.70165,51.40829,54.85795,63.39046,71.03773,73.22749,69.3654,62.78288,58.27046,58.92708,64.37712,71.38448,76.25301,77.26194,75.4797,73.51799,73.25832,74.28195,74.19392,70.63669,63.52248,55.76565,51.77231,54.4981,62.97329,72.04832,74.78606,66.24421,46.43884,20.6849,-2.962305,-17.72668,-21.31656,-16.56889,-9.334622,-4.999699,-5.719971,-9.85703,-13.67485,-14.01206,-10.19508,-4.110439,1.380889,4.463016,5.421483,6.081319,8.103373,11.37752,13.67702,11.88999,4.09973,-8.801054,-23.02821,-33.52179,-36.41224,-30.98747,-20.08325,-8.699764,-1.596982,-1.131158,-6.397079,-14.01141,-20.01724,-21.87935,-19.58273,-15.37682,-12.40613,-12.98482,-17.38768,-23.72249,-28.9088,-30.25766,-26.87513,-20.19274,-13.34043,-9.629336,-10.86469,-16.33207,-23.01455,-27.00267,-25.44101,-18.03364,-7.308765,2.540339,7.671528,6.430127,0.05246354,-8.104435,-14.34715,-16.447,-14.50369,-10.49974,-6.943622,-5.483284,-6.295725,-8.490263,-11.09524,-13.86145,-17.31781,-22.09191,-28.05347,-33.96827,-37.98267,-38.65027,-35.80446,-30.65874,-25.04587,-20.30895,-16.61156,-13.14356,-9.060415,-4.453283,-0.5967454,0.7772257,-1.278296,-6.047971,-11.33143,-14.66737,-14.8498,-12.72067,-10.65035,-10.98212,-14.43624,-19.54568,-23.54499,-24.16975,-21.19312,-16.66175,-13.63658,-14.23575,-18.26512,-23.35465,-26.53511,-26.22613,-23.31515,-20.58736,-20.85206,-24.98196,-31.16429,-35.89086,-36.08808,-31.04128,-22.88717,-15.36073,-11.59068,-12.33431,-15.74171,-18.75079,-19.16792,-17.06819,-14.60652,-14.37811,-17.42219,-22.22733,-25.48144,-24.20064,-17.94589,-9.685616,-4.599433,-7.335728,-19.21706,-37.03965,-54.30568,-64.38145,-63.94064,-54.79012,-42.98082,-35.57524,-36.77704,-45.56137,-56.18612,-61.38706,-56.5301,-42.39082,-24.94671,-12.23119,-9.983297,-18.53859,-32.7141,-44.71776,-48.3812,-42.29148,-30.11885,-18.13914,-11.5851,-12.03045,-17.21009,-23.07625,-26.53675,-27.0716,-26.366,-26.52294,-28.33157,-30.86281,-32.55565,-32.7872,-32.56333,-33.68254,-36.9728,-41.03481,-42.67049,-38.97348,-29.74327,-18.45566,-10.84984,-11.78329,-22.25931,-38.55817,-54.11576,-63.04044,-63.11036,-56.46875,-47.76498,-41.1312,-38.0247,-37.20858,-36.5719,-35.23029,-34.27697,-35.66917,-40.19099,-46.1522,-49.94712,-48.2158,-40.1381,-28.24162,-17.12048,-10.9051,-11.15062,-16.44962,-23.81767,-30.69157,-36.09142,-40.29588,-43.60351,-45.44311,-44.71369,-41.10121,-36.15416,-32.93027,-34.10602,-39.77811,-46.70884,-49.94353,-46.04278,-35.81625,-24.49868,-18.88602,-23.05661,-35.45844,-49.44535,-57.144,-54.27288,-42.78122,-29.52707,-21.82049,-22.77497,-29.56653,-35.74632,-35.9888,-29.97508,-22.68827,-20.87012,-28.069,-41.74411,-54.5322,-58.93833,-52.32121,-38.77225,-26.54705,-22.71608,-28.60209,-39.05713,-46.04417,-44.08412,-33.89373,-21.80077,-15.41215,-18.5327,-28.77718,-39.40378,-43.97829,-40.5811,-32.69086,-26.28906,-25.40631,-29.38443,-33.81674,-34.39548,-30.70107,-26.91651,-28.6376,-37.87254,-49.89623,-54.64824,-42.37347,-10.19082,34.70001,77.61098,103.6379,105.4868,87.24744,61.88311,43.96183,41.93164,54.34582,71.90433,83.66373,83.47292,72.92273,59.51165,51.66768,53.89962,64.833,78.8027,89.495,93.21011,90.00617,82.59933,74.24244,67.09932,61.89215,58.54846,56.98769,57.37302,59.79452,63.85833,68.65318,73.14379,76.63257,78.895,79.93967,79.72246,78.19681,75.73257,73.49323,73.24512,76.4528,83.13857,91.34925,97.81382,99.60554,95.85497,88.39684,80.84053,76.57572,76.94075,80.68934,85.02628,87.44627,87.12643,85.01593,82.73985,81.26091,80.33657,79.11254,77.26426,75.64677,75.80216,78.6129,83.15594,86.79025,86.65346,81.65839,73.57384,66.28201,63.52964,66.59152,73.438,80.05932,83.14452,82.32984,80.42876,81.34819,86.9606,94.99125,99.45213,93.60301,73.82496,42.15216,5.923164,-25.35498,-44.28373,-48.75615,-42.48802,-32.79849,-26.94049,-28.86345,-37.86904,-49.53906,-58.22176,-59.77382,-53.34316,-41.56346,-29.26022,-21.34102,-20.78397,-27.53503,-38.72585,-50.07677,-57.83279,-60.33047,-58.45625,-54.81212,-52.08969,-51.59119,-52.73997,-53.81519,-53.37553,-51.3959,-49.33167,-49.05183,-51.37206,-55.23677,-58.19981,-57.97805,-54.08225,-48.40341,-44.26855,-44.47871,-49.53905,-57.21177,-63.69648,-65.71298,-62.20379,-54.65329,-45.93765,-38.54844,-33.36126,-29.6528,-26.16805,-22.34143,-18.76094,-16.60224,-16.5637,-18.19822,-20.20659,-21.47981,-22.05575,-23.16747,-26.2326,-31.47526,-37.25006,-40.72418,-39.617,-33.86965,-26.0338,-19.96141,-18.5292,-21.86243,-27.27682,-31.06009,-30.97479,-27.83116,-25.04819,-26.43594,-33.62948,-44.86084,-55.88995,-62.49382,-62.88941,-58.53136,-52.82674,-48.70284,-46.69621,-44.82664,-40.26727,-31.60056,-20.0888,-9.11477,-2.227705,-1.154643,-5.082005,-11.54513,-18.12222,-23.63152,-28.0335,-31.32486,-32.54908,-29.9711,-22.50388,-11.34747,-0.3975748,5.303023,2.393016,-8.473843,-22.49932,-33.21003,-36.17798,-31.66433,-24.38779,-20.40565,-23.00132,-30.22569,-35.77822,-32.81495,-18.37323,4.346886,27.30596,41.79515,42.97304,32.14261,15.60062,0.9785359,-6.638694,-6.658297,-2.244835,2.176147,3.413429,0.6373861,-5.049704,-11.76155,-17.66344,-21.10279,-20.45971,-14.42193,-2.899162,12.02652,26.11583,34.48771,34.08443,25.62934,13.65471,4.273019,1.856309,6.637721,14.79887,21.06053,22.15333,18.91691,15.63974,17.05967,25.01253,36.97364,47.50145,51.66487,48.21127,40.38844,33.87547,33.17236,38.79751,47.09053,52.69843,52.08573,45.78209,37.95864,33.68608,35.71536,42.86312,50.9752,55.73368,55.40539,51.73587,48.47115,48.57101,52.02391,55.75529,55.72097,49.82676,39.73733,30.31603,26.9257,32.19215,44.21875,57.39734,65.40554,64.65497,56.17824,44.87044,36.57886,34.80212,38.95139,45.13895,48.89479,48.04574,43.9345,40.24972,40.28598,44.48118,49.90869,52.1343,48.26676,39.1828,29.35749,24.25804,26.87811,35.65699,45.23495,49.70841,46.3833,37.59465,29.30624,27.25482,33.0575,42.85552,49.54342,47.3469,35.90577,21.17095,12.30613,16.28158,33.38531,56.46359,74.53129,78.76845,67.44623,46.90998,28.05375,20.34026,26.8045,42.81335,59.1067,67.17834,63.83393,52.42585,40.31879,34.31011,36.74977,44.48761,51.00331,50.2663,40.04245,22.88407,4.474277,-9.541769,-16.41454,-17.3623,-16.46354,-18.13516,-24.61189,-34.72247,-44.5196,-49.36976,-46.40191,-36.06362,-21.98563,-9.213863,-1.719173,-0.5184137,-3.460915,-6.843875,-7.952311,-6.994834,-7.157058,-12.57934,-25.38609,-43.63646,-61.66165,-72.85525,-73.38499,-64.55506,-52.22376,-43.46812,-42.46898,-48.19809,-55.4206,-58.41018,-54.95493,-47.97021,-43.56718,-46.80228,-57.95962,-71.95528,-81.39883,-81.34776,-72.55519,-60.94249,-53.56489,-53.77739,-58.95529,-62.45379,-58.58112,-47.18282,-34.53983,-29.68873,-38.41394,-58.90055,-82.126,-97.01886,-97.2238,-85.1156,-70.36982,-63.87572,-70.81394,-87.31122,-102.8264,-106.7728,-95.19888,-73.34615,-52.53562,-43.38076,-49.52254,-65.61115,-80.53447,-83.71736,-70.67284,-44.75375,-14.5638,10.95993,26.72837,32.78892,32.61621,30.07916,27.20665,23.9264,19.43401,13.82959,8.721911,6.426561,8.434684,14.27942,21.57636,27.19059,28.79544,25.92771,20.03487,13.60954,8.953027,7.189255,7.933703,9.67522,10.63659,9.706024,7.01406,3.8615,1.987575,2.518148,5.182223,8.331546,9.883767,8.720146,5.667088,3.310634,4.55377,10.67196,20.08701,28.77998,32.30554,28.31346,18.04792,5.817308,-3.345891,-6.466249,-4.156714,0.03010477,1.988147,-0.361698,-5.940388,-11.50019,-14.00222,-12.74909,-9.835827,-8.639097,-11.39633,-17.53983,-23.93555,-26.88818,-24.58493,-18.35186,-11.88623,-8.962264,-11.10412,-16.71491,-22.17892,-24.16296,-21.59745,-16.08161,-10.53898,-7.107495,-5.723701,-4.355988,-0.7116888,5.75921,12.95861,17.02708,14.55555,4.784383,-9.583468,-23.50848,-32.0797,-32.93336,-27.28926,-19.09137,-12.81956,-11.23286,-14.23983,-19.36066,-23.33024,-23.8315,-20.43154,-14.38722,-7.678121,-1.983848,1.8186,3.535162,3.253643,1.113757,-2.556776,-6.939621,-10.66491,-12.24898,-10.87725,-7.025781,-2.410334,0.8493772,1.411314,-0.5134041,-3.35545,-5.301113,-5.622759,-5.298777,-6.399326,-10.53573,-17.37201,-24.28234,-27.57515,-24.68142,-15.97767,-5.007993,3.208992,4.897953,-0.3341925,-9.264758,-16.91477,-19.38552,-15.93163,-9.009947,-2.343964,1.670193,3.463674,5.682746,10.87746,19.09459,27.11852,30.06917,24.50076,11.06633,-5.049952,-16.42794,-17.24986,-6.504124,11.31553,28.44763,37.78969,36.34215,26.35811,13.74703,4.801892,3.112473,8.219296,16.44837,23.17609,25.17265,21.88729,15.29257,8.671988,5.106824,6.319641,12.17994,20.85616,29.45073,34.92828,35.1215,29.52437,19.54725,8.038428,-1.809575,-7.704908,-9.052797,-6.909769,-3.167986,0.5211371,3.448029,5.813342,8.096933,10.33735,11.84497,11.53555,8.632731,3.256101,-3.477202,-9.865825,-14.2715,-15.64563,-13.75107,-9.126408,-2.9387,3.216227,7.640155,9.06057,7.241783,3.33152,-0.4379938,-1.767433,0.3923535,4.99154,9.146452,9.565768,4.435967,-5.326732,-16.27716,-24.08762,-25.75532,-21.12146,-12.85201,-4.942103,-0.6531102,-1.048061,-4.833171,-9.390514,-12.23981,-12.08723,-9.04902,-4.21742,0.9616308,5.133435,7.26265,6.812921,3.96658,-0.275402,-4.384778,-7.048599,-8.005109,-8.356108,-9.949512,-14.05737,-20.19812,-26.04089,-28.6944,-26.68397,-21.26765,-16.00883,-14.63893,-18.50905,-25.40731,-30.76361,-30.66672,-24.75176,-16.89433,-12.97919,-17.00018,-28.03248,-40.25003,-46.24946,-41.71872,-28.44772,-13.60757,-5.583236,-8.909004,-21.50118,-35.95147,-44.05019,-41.66606,-30.94663,-18.60623,-11.59319,-12.99996,-20.71029,-29.31839,-33.71125,-31.82284,-24.94321,-15.84615,-6.479644,2.972804,13.14163,23.6932,32.43712,36.27775,33.42631,25.17521,15.73293,10.00944,10.7868,17.23425,25.8049,32.84429,37.0106,39.77366,43.71284,49.99335,57.02298,61.39574,60.47148,54.63935,47.46436,43.45041,44.94926,50.46212,55.64647,56.39935,51.84967,45.099,41.13355,43.36102,51.22739,60.6057,66.65478,67.07788,63.44622,59.69715,58.99767,61.35727,63.78627,62.86234,57.71827,51.09496,47.51785,49.84134,56.73344,63.1202,63.5098,55.96356,43.86179,34.03591,32.36089,39.74084,51.25755,59.15005,57.69752,46.78137,31.81153,20.16411,16.59136,20.63936,27.61382,32.16668,31.87941,28.42736,25.77097,26.93991,31.83678,37.55511,40.75947,40.19183,37.41517,35.36619,35.99437,38.90119,41.9999,43.52596,43.59445,43.85005,45.35011,46.42506,42.55699,28.95036,4.353354,-26.58207,-54.47887,-69.75973,-67.94347,-52.34355,-32.27873,-17.75963,-13.94108,-18.82072,-25.54203,-27.62715,-23.56292,-17.67537,-16.79073,-25.04157,-40.40204,-55.32747,-61.1007,-53.04693,-33.29591,-9.480516,9.570621,18.29403,16.35479,7.376311,-4.122852,-15.20881,-24.89973,-32.73528,-37.26851,-36.12011,-27.7991,-13.84868,0.6609905,9.224805,7.594734,-3.293401,-17.29708,-26.3022,-24.89697,-13.59581,1.465174,12.2369,13.58175,6.217225,-4.012146,-9.996482,-7.871674,0.6411123,9.456133,12.04192,5.545828,-7.410916,-20.29405,-26.54805,-23.44277,-13.61919,-3.501023,0.4346358,-4.633607,-16.24493,-27.95917,-32.82315,-27.11443,-12.38947,5.200775,17.93381,20.29552,11.57712,-4.007746,-19.68017,-29.62221,-31.76703,-28.38004,-24.21142,-23.3875,-26.92173,-32.32661,-35.49681,-33.60411,-27.09405,-19.44862,-14.84599,-15.26826,-19.03322,-21.82376,-19.61976,-11.60503,-1.051399,6.527073,6.833232,-0.3890957,-11.05536,-19.20991,-20.66623,-15.43455,-7.371482,-1.368155,-0.04754042,-2.233567,-4.175402,-2.559078,2.917484,9.29203,12.60164,10.99771,6.374461,3.190276,5.19856,12.4075,20.58817,23.95819,19.40763,9.378998,1.191419,2.866668,17.87761,42.14797,65.38814,76.24579,68.37914,43.97204,12.70394,-13.14813,-24.66365,-20.07894,-4.698978,12.52553,23.51915,24.28102,15.54178,1.268159,-13.59285,-24.83494,-29.7145,-27.03654,-17.18149,-2.25066,14.02508,27.08854,33.0972,30.56455,21.14652,8.969337,-1.264676,-6.392575,-5.975255,-1.976583,2.714538,5.9227,7.01347,6.582175,5.453196,3.83372,1.234606,-2.85482,-8.123662,-13.12672,-15.82529,-14.70584,-9.79943,-2.955082,2.860224,4.924097,2.123826,-4.347542,-11.32959,-14.98012,-12.50216,-3.575653,9.190138,21.11466,27.37155,25.17575,15.16422,1.178636,-11.57596,-19.10919,-20.56569,-18.35856,-16.38711,-17.38034,-21.02309,-24.11223,-22.73701,-15.13823,-3.359855,7.515245,12.22873,8.586331,-0.9969653,-10.71838,-14.71572,-10.48575,-0.2937824,10.26706,15.62148,13.36855,5.36635,-3.738676,-9.405193,-9.600104,-5.323188,0.7590392,6.342741,10.69231,14.34659,17.86434,20.83563,22.06093,20.75204,17.6824,15.15347,15.52961,19.26856,23.92804,25.08067,18.75758,3.894275,-16.86491,-38.59577,-56.82943,-69.75817,-78.45164,-85.05083,-90.38639,-92.91987,-89.96165,-80.40218,-66.91803,-55.74591,-53.66455,-63.79788,-82.90096,-102.1283,-111.241,-104.0471,-81.97761,-53.67732,-30.76114,-22.07165,-29.55687,-47.8616,-67.5683,-80.06368,-81.35308,-73.03388,-60.39782,-49.14485,-42.6543,-41.07765,-42.28868,-43.73912,-44.02386,-43.41206,-43.3272,-45.28357,-49.90851,-56.47046,-63.04048,-67.18492,-66.95138,-61.81138,-53.16194,-44.06256,-38.15442,-38.13593,-44.50073,-55.23677,-66.73412,-75.47363,-79.58102,-79.37744,-76.66351,-73.27008,-69.87814,-65.90854,-60.52444,-53.97304,-48.18693,-46.01388,-49.37473,-57.46307,-66.22948,-69.71867,-62.73833,-43.50588,-14.85313,16.69001,43.50156,59.88966,64.12234,58.63932,48.54295,39.22691,34.26137,34.38336,37.85205,41.83265,44.08176,44.14009,43.47598,44.49813,48.90399,56.23208,63.50211,66.35564,61.29759,47.90543,29.68181,12.82371,3.325056,3.894954,12.46281,23.26591,30.04818,29.58919,23.49043,17.11345,16.27113,23.65845,37.18952,51.23045,59.91401,60.43978,54.3336,46.00546,39.70927,36.9908,36.28506,34.78083,31.09055,26.71532,25.17138,29.3313,38.8684,49.72707,56.22002,54.5447,45.44931,34.20281,27.70822,30.44028,41.697,55.87825,65.64386,66.04523,57.17049,43.8232,32.5853,28.14784,31.07244,38.10943,44.5628,47.04087,44.92002,39.87893,34.16444,28.96017,23.95261,18.21155,11.55443,5.28276,1.704234,2.761021,8.72165,17.8413,27.22408,34.3225,38.1227,39.32433,39.51054,39.94108,40.77584,41.17688,40.12377,37.33179,33.65073,30.70507,30.02553,32.20438,36.53653,41.29015,44.41375,44.32645,40.48594,33.58809,25.38807,18.20442,14.20123,14.62329,19.24785,26.35005,33.32823,37.82863,38.87694,37.40781,35.81276,36.63649,41.06661,48.05798,54.65047,57.39822,54.18953,45.47558,34.21301,24.50956,19.66146,20.5941,25.49566,30.80135,32.99937,30.33973,23.61999,15.70545,10.06518,9.055976,12.78334,19.07712,24.59209,26.50332,23.96229,18.55753,13.49087,11.83606,14.77831,20.82297,26.50094,28.27288,24.59464,16.91389,8.917588,4.382012,4.889384,8.861121,12.6195,12.91551,9.33634,4.940492,4.494571,11.23303,24.14392,37.65511,44.22461,38.52812,20.81231,-2.683413,-22.67914,-31.6188,-27.56141,-14.98606,-2.090138,3.809484,0.1223139,-10.03157,-20.06213,-23.88004,-19.23902,-8.651701,2.377933,8.537468,7.403895,0.27663,-9.016288,-16.38409,-19.45746,-18.3436,-15.03479,-12.05547,-11.16866,-12.72973,-15.83789,-19.05786,-21.30354,-22.4701,-23.52091,-25.94128,-30.75979,-37.61815,-44.48041,-48.34473,-46.77879,-39.51175,-29.08475,-19.9528,-16.31472,-19.81557,-28.51374,-37.86863,-43.29511,-42.79654,-38.04408,-33.18326,-32.08857,-35.81472,-41.91021,-46.06673,-45.04571,-38.96153,-31.40195,-27.27764,-29.77981,-38.40072,-49.25817,-57.45517,-59.91874,-56.93796,-51.56553,-47.47279,-46.77687,-49.20775,-52.92682,-56.15886,-58.34758,-60.06836,-61.95872,-63.68147,-63.85022,-61.03939,-55.09774,-47.69947,-41.60814,-39.09895,-40.63679,-44.75517,-49.21572,-52.60102,-55.17643,-58.40629,-63.50675,-70.14177,-76.27643,-79.3642,-78.06624,-73.29384,-67.82224,-64.70912,-65.55939,-69.74702,-75.01108,-78.91444,-80.14745,-78.90161,-76.28194,-73.38891,-70.79815,-68.68689,-67.24096,-66.75228,-67.16521,-67.44392,-65.46057,-58.81247,-46.23367,-28.6592,-9.064757,9.007029,23.34123,34.05569,42.93647,51.51402,59.28729,63.53894,61.12397,51.14637,36.61672,23.67422,18.53459,23.94273,37.42749,52.62149,62.95056,65.40746,62.01117,58.04063,58.25337,63.62978,70.81156,74.5741,71.61516,63.06046,53.96292,50.11281,54.28011,64.37324,74.69555,79.4268,76.04312,66.53094,55.79274,48.482,46.41293,48.11214,50.52222,51.43983,50.94269,50.95267,53.48019,58.9772,66.01305,72.42042,76.9577,80.20073,83.99574,89.87866,97.60221,104.8075,108.0787,104.7092,94.13435,78.29697,60.92451,46.23847,37.71764,37.243,44.65636,57.70377,72.47862,84.51619,90.40781,89.31157,83.46282,77.11299,74.22025,76.1295,80.72131,83.73621,81.59756,73.95692,64.2188,57.54949,57.57997,63.98566,72.63048,78.24561,77.83556,72.42554,65.86855,61.50589,59.0799,54.25032,41.31659,17.45815,-14.41625,-46.35793,-69.44556,-78.76665,-76.13103,-68.74356,-64.6712,-68.00639,-76.76517,-84.70271,-85.66169,-77.51895,-63.25592,-48.73551,-38.95438,-35.36546,-35.87783,-37.14355,-37.2141,-36.61319,-37.24848,-40.25785,-44.62165,-47.67191,-47.10085,-42.89331,-37.66212,-35.06601,-37.41283,-44.12903,-52.11898,-57.67788,-58.5909,-55.07474,-49.18368,-43.41278,-39.61981,-38.84928,-41.70065,-48.4106,-58.21876,-68.521,-74.90321,-72.75544,-59.9435,-38.87949,-16.28531,-0.2405026,4.030926,-2.921693,-15.12846,-24.78386,-26.88212,-21.95512,-15.1749,-12.50138,-16.53256,-24.86384,-31.98252,-33.24919,-28.10441,-20.26182,-14.85198,-14.66267,-18.22445,-21.09753,-19.36176,-12.71148,-4.870609,-1.021237,-4.130593,-12.85973,-22.57561,-28.71675,-30.04781,-29.42396,-31.49998,-39.03852,-50.4865,-60.58747,-63.64193,-57.17931,-43.56036,-28.51086,-17.69303,-13.64631,-14.98535,-18.04778,-19.54466,-18.31721,-15.25203,-11.89113,-9.127294,-7.006861,-5.498976,-5.177234,-6.882781,-10.48797,-13.92406,-13.70246,-7.051972,5.667754,20.20952,30.34879,31.55498,24.00688,12.67845,4.112346,1.903077,4.059519,4.334769,-3.113661,-18.86503,-36.73676,-47.08789,-43.04313,-25.52464,-3.492966,11.13724,10.83567,-2.697088,-19.43429,-27.20794,-19.21054,2.032839,26.7229,44.37128,50.4494,48.7086,47.79745,54.68029,69.46255,85.15349,92.44824,86.17174,68.94978,49.62661,37.55175,36.62449,43.06995,48.33562,45.05778,32.07411,15.21447,3.478266,3.222456,14.15682,29.61104,40.71198,41.69818,33.09613,21.04624,13.51256,15.8432,28.1912,45.89117,62.09163,70.90957,69.53908,58.70548,41.81774,23.55373,8.435063,-0.3888038,-2.026802,1.859684,7.678563,11.47182,10.84746,6.253926,0.7226043,-1.962531,0.3149648,6.479964,12.66951,14.39719,9.149868,-2.233131,-16.26316,-29.07412,-38.70749,-45.87857,-52.76958,-60.78376,-68.92815,-74.05843,-72.91398,-64.59856,-51.79011,-39.75916,-33.68699,-35.87697,-44.5189,-54.70002,-61.00318,-60.16467,-52.36846,-40.67539,-29.17191,-21.00983,-17.32612,-17.33766,-19.21397,-21.05647,-21.50622,-19.90257,-16.19814,-10.84474,-4.703298,1.105885,5.474677,7.636872,7.403137,5.195086,1.90783,-1.277444,-3.055841,-2.191757,2.137334,9.846438,19.53804,28.58267,33.94144,33.55366,27.63607,19.07929,12.48937,12.15803,19.93445,34.14257,50.19416,62.63866,67.60943,64.43526,55.67745,45.71376,38.68967,36.84201,39.84192,45.22251,49.50468,49.50762,43.44309,31.54818,16.09484,0.6812251,-11.09447,-17.14383,-17.858,-15.88098,-14.58158,-15.93745,-19.1012,-20.72887,-17.16789,-7.342316,5.519808,14.72254,13.42424,-1.277096,-25.95639,-51.84958,-68.96279,-71.11005,-59.00506,-39.60851,-22.15372,-13.25818,-14.00716,