Bandpass,0,0.28505,26.47312,-322.8331,-474.2471,-400.7469,-180.1621,37.13464,122.04,48.67527,-96.89306,-186.1581,-143.3307,3.113435,147.2617,187.4548,100.759,-43.57197,-138.4724,-118.4246,-4.821025,114.084,150.8914,82.80757,-34.87734,-113.0302,-95.60266,0.7324187,101.9868,133.5749,75.03462,-27.17717,-96.35554,-82.76488,1.246649,92.885,126.761,82.47746,-2.704001,-63.76366,-56.66212,10.47817,85.70045,113.1972,74.35135,-0.1779389,-54.88858,-50.9813,6.020758,72.11459,98.43076,66.96099,2.33602,-47.84107,-48.42731,-1.534103,56.77355,84.13722,62.71883,10.72672,-32.68487,-36.81141,-1.037013,46.54096,71.22912,57.36078,18.5608,-13.99886,-15.56701,14.2177,52.24817,70.13772,55.44444,20.14995,-9.262967,-11.97582,12.09367,43.21239,57.37041,44.32838,14.71137,-8.681086,-8.324619,15.05876,43.46449,55.34782,41.61067,11.99996,-12.47501,-15.10277,4.624794,31.30689,45.45702,37.80104,15.53979,-3.667508,-5.11996,12.19811,35.32276,47.28352,39.68932,18.63941,-0.1359358,-3.014042,11.66272,32.70792,44.54147,38.56714,19.19123,0.3502059,-4.629326,7.630476,28.59584,44.26939,45.07906,32.07644,15.33777,6.227828,9.427252,20.3895,29.62145,30.17867,22.68214,14.33304,13.01148,21.10716,33.70449,42.32463,41.2733,31.81805,21.16389,17.09375,22.27984,32.40201,39.35057,37.10791,26.06409,12.76344,5.390088,8.254829,19.08704,30.81634,36.37525,33.1149,23.95539,14.83811,10.57044,12.00845,16.27444,19.42351,19.35578,16.88721,14.48142,13.91735,14.81971,15.13473,13.04225,8.699356,4.39894,2.988513,5.734158,11.23358,16.20267,17.596,14.57998,9.015806,4.180858,2.662569,4.855886,8.984651,12.47888,13.65997,12.5991,10.69918,9.463087,9.403437,9.828976,9.546587,7.875756,5.225094,2.864824,2.119756,3.569797,6.764971,10.55704,13.74298,15.58284,15.93319,15.04575,13.27802,10.93561,8.289117,5.648667,3.361143,1.699603,0.732336,0.2819263,0.007365427,-0.4559317,-1.390158,-2.955199,-5.169753,-7.856962,-10.57426,-12.63428,-13.32435,-12.30169,-9.964198,-7.511537,-6.528459,-8.200806,-12.55343,-18.17389,-22.67577,-23.75448,-20.32988,-13.1766,-4.683366,2.168349,5.112655,3.559589,-1.236995,-6.844556,-10.79266,-11.63689,-9.475209,-5.73397,-2.381907,-0.9662715,-1.908513,-4.350347,-6.584462,-6.850022,-4.126325,1.422762,8.529709,15.36098,20.24265,22.24265,21.38197,18.4503,14.58917,10.87678,8.079104,6.589953,6.470654,7.49317,9.169401,10.83208,11.83261,11.82333,10.97602,9.958346,9.607349,10.43918,12.28454,14.30747,15.44621,15.03495,13.21795,10.87151,9.059123,8.360128,8.517668,8.654265,7.924672,6.165493,4.082596,2.818649,3.170991,4.992717,7.21265,8.50298,8.172752,6.684101,5.413854,5.780917,8.297102,12.17446,15.76864,17.58343,17.1802,15.38998,13.69227,13.18799,13.87242,14.70643,14.43005,12.53804,9.715121,7.400825,6.775596,7.89256,9.609212,10.42241,9.648483,8.082451,7.560581,9.580318,13.82421,17.61446,16.8288,7.922597,-10.02342,-34.40813,-59.93365,-80.76166,-92.89124,-95.57681,-91.18727,-83.76736,-77.17057,-73.68757,-73.64398,-75.85109,-78.43176,-79.57227,-78.02139,-73.39766,-66.38007,-58.7029,-52.76129,-50.76002,-53.66523,-60.51308,-68.59659,-74.62115,-76.30994,-73.56699,-68.47054,-64.03402,-62.44302,-63.83731,-66.39433,-67.64631,-66.1627,-62.48457,-58.69414,-56.92287,-57.83116,-60.12768,-61.49589,-60.31515,-56.9748,-53.79876,-53.51316,-57.20251,-63.1308,-67.33243,-65.77628,-56.86816,-42.75805,-28.57152,-19.9044,-19.95745,-27.91332,-39.43953,-48.98773,-52.57801,-49.56683,-42.56017,-35.70601,-32.44055,-33.92015,-38.84074,-44.51118,-48.4184,-49.40604,-47.95974,-45.6461,-44.1557,-44.47404,-46.50783,-49.21237,-51.06987,-50.70562,-47.44788,-41.66519,-34.74753,-28.6745,-25.27192,-25.44082,-28.73346,-33.54037,-37.85297,-40.23426,-40.47491,-39.56425,-38.99554,-39.82379,-42.04422,-44.65586,-46.34177,-46.31036,-44.75601,-42.65869,-41.08143,-40.44264,-40.24065,-39.39458,-36.96381,-32.77806,-27.59488,-22.71934,-19.3516,-18.05762,-18.6287,-20.32694,-22.29787,-23.89854,-24.81904,-25.04101,-24.74907,-24.26307,-23.96737,-24.18237,-24.98912,-26.11168,-26.98154,-27.00367,-25.88475,-23.80146,-21.2719,-18.80593,-16.59063,-14.46513,-12.22308,-10.00729,-8.43924,-8.290369,-9.853932,-12.46951,-14.63352,-14.76811,-12.23585,-7.933396,-3.9903,-2.657504,-5.028143,-10.39721,-16.68735,-21.68033,-24.25716,-24.84891,-24.84464,-25.42444,-26.6694,-27.57502,-26.9121,-24.24498,-20.29654,-16.35584,-13.18225,-10.30247,-6.35279,-0.3311353,7.144897,13.62563,16.0619,12.83774,5.258888,-2.647382,-6.124109,-2.349388,7.897246,20.69175,31.33103,37.1344,38.88914,40.01234,43.99737,51.84333,61.16786,67.57137,67.31944,59.55404,46.60435,32.28455,19.42467,8.354519,-2.659616,-15.42032,-29.73402,-42.80184,-50.56598,-50.14367,-41.72237,-28.64795,-15.64855,-6.351486,-1.654569,0.1327057,1.667299,4.678605,9.046185,13.28923,15.89211,16.38668,15.43522,14.00046,12.39095,10.0104,6.025027,0.3921764,-5.625952,-9.961372,-10.96315,-8.470286,-3.932179,0.5385159,3.507063,4.984966,6.093877,7.935615,10.59133,13.07656,14.32474,14.42123,15.02073,18.42567,25.81877,35.89755,45.04337,49.18195,46.28497,37.8817,28.45886,22.9524,23.82096,29.55247,35.6116,37.29344,32.71282,24.04138,16.20294,13.84602,18.4954,27.65044,36.34986,40.17633,37.8198,31.66761,26.17587,25.14314,29.59808,37.50447,45.27894,50.01733,51.01593,49.77207,48.68811,49.47516,52.29544,56.05095,59.41714,61.78868,63.49707,65.26799,67.44244,69.59798,70.84235,70.51105,68.70415,66.24224,64.08784,62.69172,61.77748,60.72833,59.26043,57.8202,57.33287,58.42546,60.69138,62.61009,62.32037,58.834,52.89823,46.85711,43.46919,44.32838,48.84767,54.47266,58.05673,57.60775,53.37032,47.5986,43.16632,41.86016,43.38188,45.63949,46.12561,43.54009,38.69506,34.18843,33.05519,37.16797,46.25065,57.97907,69.03737,76.53085,79.0603,77.02945,72.18626,66.73859,62.48901,60.31286,60.0806,60.93615,61.75127,61.57598,59.95005,57.00014,53.31334,49.65218,46.63871,44.55008,43.31116,42.66148,42.37527,42.39123,42.77994,43.59632,44.74464,45.96861,46.97682,47.6053,47.88651,47.96761,47.94303,47.7425,47.1786,46.13116,44.72395,43.33229,42.37489,42.01161,41.96723,41.64268,40.48754,38.41384,35.97238,34.14311,33.83408,35.37976,38.34381,41.74689,44.57672,46.26447,46.84627,46.74155,46.33203,45.6457,44.36546,42.14998,39.03415,35.61413,32.85847,31.63294,32.22089,34.13893,36.37438,37.91627,38.27134,37.66249,36.79632,36.34441,36.45565,36.59943,35.84111,33.38914,29.08385,23.52791,17.7738,12.75811,8.835159,5.706053,2.787056,-0.2319186,-3.032238,-4.793735,-4.766134,-2.925345,-0.24939,1.646127,1.364486,-1.425748,-5.708126,-9.637805,-11.59932,-11.16981,-9.376909,-8.06378,-8.741105,-11.64545,-15.60304,-18.78119,-19.83387,-18.69309,-16.50373,-14.7764,-14.35582,-14.90932,-15.26504,-14.33208,-11.93625,-8.981043,-6.835753,-6.408079,-7.577007,-9.390146,-10.86382,-11.77772,-12.85597,-15.17697,-19.23201,-24.33363,-28.84922,-31.15487,-30.68404,-28.35854,-26.1025,-25.76169,-28.14039,-32.75575,-38.38818,-43.95858,-49.08247,-53.95227,-58.74067,-63.08366,-66.11745,-67.07819,-65.99007,-63.84858,-62.06131,-61.48386,-61.74786,-61.43082,-59.04106,-54.18691,-48.11566,-43.1953,-41.62339,-44.18337,-49.85359,-56.50738,-62.21261,-66.25803,-69.2496,-72.28664,-75.85648,-79.25986,-80.97321,-79.68587,-75.28238,-69.0991,-63.29804,-59.79571,-59.43732,-61.87179,-66.06319,-70.96339,-75.85516,-80.22854,-83.46925,-84.78201,-83.53336,-79.78474,-74.53764,-69.36119,-65.5286,-63.21259,-61.34203,-58.3163,-53.17953,-46.48574,-40.23304,-36.83058,-37.70631,-42.42313,-48.86062,-54.34375,-57.00669,-56.56107,-54.06057,-50.91772,-47.89056,-44.71642,-40.58681,-35.07272,-28.81743,-23.49139,-21.00332,-22.44625,-27.41176,-34.07165,-39.97057,-43.09911,-42.71271,-39.55153,-35.43463,-32.47128,-32.23985,-35.24154,-40.80186,-47.43075,-53.49135,-57.89989,-60.53408,-62.12966,-63.69144,-65.73267,-67.80714,-68.67387,-67.06264,-62.59669,-56.26337,-50.05409,-45.91665,-44.64412,-45.42356,-46.37843,-45.78728,-43.18581,-39.60074,-36.73127,-35.61721,-35.72144,-35.1139,-31.71429,-24.81226,-15.8438,-7.842857,-3.829322,-5.086149,-10.36426,-16.48269,-19.94809,-18.6447,-12.68675,-4.098721,4.319007,10.21679,12.42454,11.03551,7.087471,2.162963,-1.963718,-3.720865,-2.257809,2.058532,7.53523,11.73491,12.64771,9.86773,5.008953,0.9508169,0.2289658,3.511075,9.145295,14.14085,16.00905,14.29109,10.76693,8.202244,8.478166,11.37238,14.81255,16.39547,15.07891,11.83721,8.825424,7.68868,8.295462,8.88288,7.559505,4.062383,0.3842309,-0.3657877,3.777678,11.81666,19.82298,23.05275,18.91992,8.896385,-2.02355,-8.121196,-6.340177,1.868541,11.44253,16.80867,15.24454,8.401031,1.086658,-1.825723,1.654745,9.680465,18.07194,23.141,23.89501,22.21987,21.08534,22.16222,24.57369,25.63296,22.98193,16.55554,8.933133,3.787508,3.489535,7.527934,12.84907,15.89976,14.98746,11.35959,8.284375,8.777278,13.52329,20.38941,25.82487,27.17444,24.34156,19.71766,16.48425,16.47695,19.04693,21.63394,21.59385,18.00874,12.27759,7.154234,4.943717,6.083241,9.005545,11.28159,11.20357,8.750975,5.379942,2.899517,2.269743,3.115343,4.182486,4.308451,3.185361,1.432352,0.03368344,-0.3688357,0.1959776,1.255046,2.41449,3.724025,5.594368,8.351929,11.8009,15.1506,17.38479,17.82232,16.48831,14.0628,11.47141,9.406985,8.074368,7.261416,6.617219,5.924284,5.220015,4.763901,4.931311,6.096455,8.503383,12.11158,16.47212,20.76425,24.08834,25.93745,26.5684,26.94942,28.18105,30.66957,33.60991,35.25023,33.93906,29.37237,23.18234,18.30909,17.35549,20.86888,26.6937,30.9733,30.35205,24.08885,14.73368,6.841603,4.418111,8.621447,17.12456,25.51298,29.8178,28.59182,23.2852,16.82915,11.51335,7.652675,3.915682,-1.028654,-6.843752,-11.16408,-10.93622,-4.61818,6.295337,17.58715,24.44265,24.13121,17.56475,8.731879,2.346526,1.174001,4.669148,9.685548,12.68351,11.95547,8.471613,4.92774,3.765543,5.547717,8.7311,10.87938,10.39119,7.542914,4.192372,2.446896,3.281511,6.05388,9.167442,11.30691,12.30049,12.99395,14.28947,16.13844,17.31783,16.23471,12.21723,6.334127,1.056406,-1.139056,0.6414278,4.99267,8.910487,9.534309,5.860633,-0.6521399,-6.970227,-10.29371,-9.641241,-6.230164,-2.470276,-0.2878467,0.09369278,0.1270371,1.728303,5.730447,11.07028,15.28156,15.99456,12.47135,6.169984,-0.05002125,-3.601331,-3.682926,-1.695034,-0.3024028,-1.725336,-6.303458,-12.19578,-16.38968,-16.41565,-11.77151,-4.254365,2.958248,6.941708,6.475712,2.565799,-2.181722,-4.948151,-4.118327,-0.03201643,5.248795,8.992772,9.144555,5.338936,-0.8645684,-6.622987,-9.050776,-6.529911,0.4804118,9.510289,17.03497,19.94087,16.86909,8.822208,-1.272027,-9.867312,-14.37742,-14.27685,-11.19075,-7.93869,-7.021179,-9.320837,-13.66763,-17.4604,-17.98317,-13.7125,-4.955585,6.442649,18.07444,28.04049,35.55495,40.85773,44.63848,47.4301,49.36769,50.39634,50.67517,50.79581,51.59106,53.63296,56.77454,60.08626,62.27775,62.35453,60.09137,56.02771,51.03049,45.77427,40.53427,35.42765,30.8609,27.73693,27.12429,29.51598,34.19781,39.29231,42.64021,43.07322,41.23644,39.28194,39.43607,42.24586,45.66936,45.78604,38.92686,24.0545,3.912587,-15.91893,-29.69319,-34.42869,-31.39441,-25.24454,-21.29173,-22.53386,-28.18949,-34.55799,-37.58111,-35.45756,-29.68938,-23.98719,-21.8385,-24.35868,-29.7863,-34.85238,-37.01424,-36.01957,-33.78412,-32.75544,-33.9748,-36.23725,-36.96334,-34.17993,-28.19932,-21.74809,-18.3359,-19.87744,-25.15821,-30.25581,-30.78482,-24.62576,-13.4247,-1.867889,4.893386,4.141181,-2.923248,-11.97299,-18.10694,-18.59397,-14.18635,-8.313319,-4.780148,-5.469058,-9.440677,-13.87971,-16.14219,-15.50701,-13.49165,-12.57227,-14.1968,-17.43822,-19.22284,-16.0667,-6.295387,8.599564,24.3154,35.65383,38.95407,33.73482,22.72169,10.35377,0.6618541,-4.350045,-5.088724,-3.540874,-1.880777,-1.351014,-1.935351,-2.796382,-3.026051,-2.189816,-0.4065393,1.930196,4.474026,7.035959,9.46332,11.47854,12.68687,12.79459,11.86686,10.38592,9.002743,8.124454,7.635301,6.989882,5.652301,3.58526,1.413807,0.09284218,0.2597332,1.712243,3.409313,4.058252,2.937664,0.4098246,-2.251873,-3.644981,-3.135667,-1.277299,0.5342852,0.9422357,-0.5488127,-3.361521,-6.371965,-8.777632,-10.66875,-12.87603,-16.19354,-20.54504,-24.73197,-27.01302,-26.17614,-22.3956,-17.27849,-13.03737,-11.30436,-12.33321,-15.0535,-17.85892,-19.53654,-19.7161,-18.63161,-16.52822,-13.29695,-8.692324,-2.958971,2.719778,6.485223,6.798038,3.563659,-1.447969,-5.353087,-5.757206,-2.240894,3.281104,7.669097,8.516813,5.726721,1.65443,-0.3308602,2.0146,8.336124,15.83311,20.94828,21.50993,17.95627,12.88559,9.277306,8.58394,9.941218,10.96537,9.543791,5.384791,0.2931881,-2.985762,-2.558933,1.37305,6.612503,10.2935,10.56009,7.548285,3.138555,-0.2519501,-1.016534,0.9485117,4.48397,8.010759,10.35661,11.11024,10.469,8.883008,6.823882,4.767987,3.229817,2.64318,3.086278,4.085364,4.767227,4.388088,2.921732,1.236748,0.6092737,1.794416,4.278224,6.319445,5.90979,2.125228,-4.026666,-9.931791,-12.80582,-11.41076,-6.943323,-2.437612,-0.9526328,-3.630143,-8.859149,-13.13808,-13.17127,-7.942265,0.5138854,8.13806,11.08288,7.843778,0.05875432,-8.431568,-13.65023,-13.46278,-8.410927,-1.094034,5.361699,8.78708,8.64247,5.7266,1.350654,-3.389751,-7.854121,-11.65669,-14.37989,-15.53448,-14.82076,-12.45867,-9.280199,-6.459651,-5.03169,-5.498646,-7.743019,-11.22354,-15.23642,-19.02767,-21.73149,-22.32203,-19.80618,-13.69738,-4.526331,6.008998,15.51117,21.85282,24.15704,23.20363,20.96202,19.47318,19.72478,21.20455,22.41557,22.03751,19.99256,17.70946,17.36592,20.53359,27.04689,34.814,40.74169,42.28766,38.78137,31.78743,24.32947,19.42123,18.69544,21.81229,26.86246,31.45281,33.86285,33.71774,31.94309,30.13964,29.74197,31.3426,34.42418,37.5602,38.99208,37.3822,32.47129,25.35212,18.16266,13.22646,11.96428,14.10888,17.70414,20.01174,18.93492,14.19896,7.571621,1.904916,-0.5211353,0.6024422,3.345381,4.633028,2.099074,-4.419336,-12.6929,-19.3895,-22.09376,-20.82813,-18.12628,-17.58874,-21.78366,-30.7517,-41.98833,-51.86265,-57.57785,-58.51403,-56.25673,-53.46236,-52.38187,-53.94188,-57.78311,-62.97297,-68.72761,-74.62804,-80.32385,-85.16451,-88.23508,-88.88689,-87.36899,-84.9869,-83.51492,-84.15984,-86.78146,-89.97412,-92.03569,-92.18989,-91.18199,-90.75507,-92.30287,-95.63421,-98.79417,-99.20761,-95.47728,-88.62784,-81.85069,-78.74881,-81.09937,-87.55885,-94.21959,-96.78667,-93.10371,-84.49117,-75.05725,-69.37255,-69.88917,-75.62543,-82.8471,-87.27551,-86.47557,-81.04659,-74.01866,-68.93799,-67.83666,-70.24324,-73.68729,-75.26459,-73.28455,-68.09335,-61.72852,-56.73482,-54.86473,-56.33736,-59.94004,-63.79364,-66.31397,-66.88715,-65.98407,-64.7266,-64.15795,-64.58099,-65.28984,-64.84795,-61.81344,-55.57397,-46.84485,-37.49759,-29.70432,-24.77534,-22.30535,-20.16515,-15.46394,-6.067408,8.109076,24.76465,40.09292,50.48193,54.17016,51.99619,46.85887,42.20265,40.35726,41.60861,44.43562,46.68495,46.95166,45.3701,43.4082,42.85573,44.65186,48.25651,51.92226,53.68782,52.50454,48.84931,44.48694,41.53139,41.33891,43.83797,47.63731,50.81327,51.91478,50.63264,47.80075,44.78828,42.67797,41.71929,41.35059,40.72949,39.40664,37.70622,36.57092,36.96746,39.22398,42.71394,46.09228,47.95737,47.56305,45.18281,41.94107,39.23391,38.07747,38.72478,40.70089,43.15722,45.29441,46.62652,47.01267,46.54309,45.4253,43.95277,42.52422,41.61797,41.66239,42.84697,44.99537,47.60496,50.05057,51.83553,52.73985,52.79121,52.11515,50.80163,48.89735,46.51408,43.93475,41.5882,39.86985,38.92395,38.5613,38.40191,38.16142,37.87161,37.85124,38.42256,39.57525,40.85194,41.59088,41.39641,40.50497,39.74234,40.03254,41.75047,44.36491,46.66222,47.45503,46.32642,43.89795,41.41155,39.89006,39.45861,39.32654,38.47772,36.59526,34.53065,33.89687,35.96732,40.59118,45.90857,49.17706,48.29127,43.07718,35.52401,28.7576,25.35091,25.99196,29.29775,32.82706,34.59067,34.08438,32.2468,30.49819,29.62394,29.31346,28.63803,27.03939,25.01924,23.94556,25.06025,28.40058,32.46714,34.97943,34.28769,30.50592,25.56415,22.08247,21.76761,24.37551,27.92327,30.00729,29.3525,26.57509,23.6836,22.69282,24.30272,27.51367,30.38406,31.35829,30.23739,28.15988,26.67642,26.62341,27.59922,28.37474,27.88597,26.05485,23.84301,22.52635,22.75102,24.07563,25.32653,25.48138,24.40678,22.89306,21.96209,21.97648,22.23702,21.40513,18.47882,13.63386,8.317234,4.498347,3.567673,5.606936,9.477526,13.59742,16.82251,18.83648,19.87254,20.10792,19.29604,16.96732,13.02988,8.23327,4.021011,1.760611,1.854696,3.400372,4.72071,4.470051,2.564384,0.2605478,-0.719352,0.5604846,3.499819,6.27562,7.046569,5.237814,2.005402,-0.4768755,-0.4569513,2.1979,5.869561,8.235527,7.805786,4.925158,1.57018,0.07389575,1.619998,5.486304,9.506123,11.41325,10.18165,6.521149,2.281327,-0.769103,-1.958455,-1.899328,-1.816902,-2.552652,-3.941153,-4.94993,-4.433678,-1.964486,1.805768,5.447053,7.481965,7.078235,4.327216,0.03767054,-4.733647,-9.098535,-12.50704,-14.68733,-15.51223,-14.93828,-13.04916,-10.12789,-6.662734,-3.255907,-0.4824241,1.22832,1.652489,0.7887461,-1.138372,-3.691398,-6.288321,-8.355755,-9.533229,-9.826984,-9.60529,-9.406308,-9.648867,-10.41115,-11.41051,-12.19458,-12.42193,-12.06046,-11.39619,-10.87135,-10.86867,-11.56447,-12.89921,-14.63054,-16.40731,-17.84001,-18.59165,-18.51014,-17.76069,-16.85417,-16.48251,-17.18762,-19.0341,-21.51187,-23.78544,-25.18176,-25.61594,-25.65211,-26.1159,-27.48755,-29.48897,-31.18386,-31.57371,-30.31472,-28.05823,-26.13886,-25.76979,-27.25861,-29.77458,-31.84805,-32.29229,-30.94374,-28.72869,-27.01526,-26.69224,-27.59713,-28.6696,-28.70536,-27.17973,-24.58129,-22.05597,-20.64736,-20.68346,-21.72011,-23.02442,-24.1844,-25.36271,-27.01145,-29.30496,-31.78259,-33.54159,-33.88369,-32.92995,-31.68632,-31.41517,-32.69355,-34.82459,-36.08599,-34.7429,-30.20667,-23.57404,-17.16021,-13.29728,-13.15535,-16.31848,-21.32472,-26.72454,-31.88621,-37.00698,-42.40626,-47.72752,-51.75338,-53.07334,-51.16792,-47.08742,-43.11647,-41.5086,-43.07147,-46.57551,-49.46909,-49.51698,-46.3179,-41.67683,-38.52842,-39.06728,-43.29809,-48.97735,-53.02244,-53.49191,-50.84622,-47.65092,-46.89731,-50.02363,-55.92234,-61.58091,-63.94335,-61.79391,-56.46258,-50.92641,-47.91731,-48.26571,-50.52279,-52.04973,-50.8161,-46.72385,-41.62587,-38.08252,-37.70846,-40.18615,-43.54058,-45.42717,-44.5448,-41.2553,-37.061,-33.36348,-30.38463,-26.98918,-21.52089,-13.08099,-2.385245,8.386597,16.68226,20.94543,21.43036,19.9875,18.97965,19.99832,23.12891,27.13855,30.38855,31.86528,31.71225,31.00614,31.00007,32.35334,34.81543,37.49822,39.49014,40.38207,40.38672,40.0378,39.73789,39.49603,39.02629,38.09883,36.84718,35.77044,35.39978,35.85811,36.64412,36.83638,35.62691,32.85231,29.16532,25.71022,23.48895,22.81546,23.20517,23.762,23.79429,23.23865,22.60466,22.48629,22.99151,23.50808,22.99763,20.64376,16.42376,11.20884,6.307778,2.74285,0.7291735,-0.3113256,-1.236871,-2.549582,-4.087297,-5.25037,-5.576466,-5.213419,-4.901777,-5.431441,-6.938739,-8.572312,-8.848569,-6.560144,-1.698219,4.221481,8.709159,9.477532,5.596763,-2.026594,-11.11013,-19.11263,-24.36259,-26.58795,-26.6328,-25.64056,-24.27002,-22.42674,-19.61587,-15.60849,-10.92426,-6.774546,-4.476065,-4.695705,-7.002162,-10.01762,-12.10127,-12.18022,-10.25944,-7.333417,-4.769869,-3.533951,-3.699623,-4.512897,-4.942061,-4.36456,-2.966899,-1.613546,-1.267888,-2.32717,-4.294282,-6.009942,-6.324141,-4.805154,-2.045959,0.6349614,1.928634,1.260349,-0.9409334,-3.5874,-5.655934,-6.809147,-7.501309,-8.50433,-10.18911,-12.08086,-13.03842,-11.98719,-8.739143,-4.333343,-0.6110013,0.7705391,-0.7014769,-4.06143,-7.386331,-8.869936,-7.804145,-4.885769,-1.695695,0.2871399,0.5053611,-0.5135137,-1.691312,-2.221328,-2.107056,-2.069563,-2.918855,-4.84804,-7.152017,-8.579623,-8.100736,-5.595274,-2.02009,1.057175,2.277352,1.178195,-1.630569,-4.866944,-7.279562,-8.240788,-7.9271,-7.055005,-6.390043,-6.336175,-6.811975,-7.42233,-7.767632,-7.688887,-7.325399,-6.992976,-6.987409,-7.434494,-8.252815,-9.218603,-10.07037,-10.58958,-10.62852,-10.10121,-8.975954,-7.2997,-5.249255,-3.168156,-1.53528,-0.8371629,-1.373497,-3.083153,-5.497115,-7.879337,-9.520613,-10.05361,-9.622313,-8.799936,-8.282514,-8.515477,-9.455914,-10.59968,-11.25066,-10.87302,-9.331732,-6.910277,-4.136791,-1.551963,0.448709,1.65592,2.025511,1.674439,0.9082322,0.2071362,0.08083108,0.7939637,2.10816,3.256598,3.272469,1.560662,-1.618476,-5.112851,-7.419514,-7.554913,-5.732662,-3.367944,-2.310523,-3.712163,-7.228792,-11.11217,-13.21195,-12.30948,-8.938308,-5.121883,-3.131042,-4.013735,-6.840794,-9.194127,-8.641696,-4.296619,2.526304,8.993152,12.36862,11.57436,7.735745,3.411089,1.026718,1.515276,3.978206,6.499948,7.500635,6.711208,5.168045,4.316673,4.906244,6.456064,7.63951,7.279805,5.239191,2.580599,0.9002868,1.30034,3.698222,6.917781,9.464476,10.44039,9.998954,9.090646,8.743769,9.413314,10.83106,12.39866,13.77437,15.19038,17.26354,20.45055,24.56301,28.71628,31.77691,33.02527,32.60233,31.45788,30.84348,31.67143,34.11185,37.61378,41.26244,44.2105,45.94608,46.3275,45.48367,43.72635,41.53686,39.56686,38.54571,39.05654,41.27081,44.80483,48.81559,52.31048,54.51222,55.09124,54.17533,52.19198,49.6867,47.22853,45.40008,44.77107,45.76153,48.41121,52.20153,56.1095,58.96392,59.97786,59.18054,57.48039,56.27357,56.76932,59.37593,63.47307,67.69231,70.55834,71.16252,69.54256,66.61337,63.72333,62.07435,62.26777,64.14038,66.90681,69.50813,71.01833,70.97293,69.52416,67.37846,65.52954,64.87183,65.84238,68.25889,71.45463,74.66833,77.4896,80.09042,83.05912,86.87585,91.31377,95.15768,96.509,93.62455,85.89407,74.40688,61.719,50.84864,43.97234,41.50103,42.03715,43.23551,43.08093,40.86458,37.33107,33.97309,31.95899,31.37731,31.24915,30.24817,27.61257,23.62894,19.3784,15.94666,13.66507,11.91928,9.659002,6.244517,2.020696,-1.808944,-3.94762,-3.894117,-2.337075,-0.7663751,-0.5515941,-2.109832,-4.728577,-7.156263,-8.538633,-9.037206,-9.691107,-11.61985,-15.13535,-19.40214,-22.90152,-24.38798,-23.67634,-21.71722,-19.92051,-19.21488,-19.50504,-19.88569,-19.41279,-17.83064,-15.70507,-13.88211,-12.728,-11.79719,-10.25685,-7.789093,-5.24943,-4.448495,-7.026973,-13.10836,-20.70951,-26.49593,-27.59511,-23.4011,-16.1773,-9.939208,-8.180174,-11.79031,-18.4726,-24.06961,-25.02937,-20.51784,-12.8982,-6.312369,-4.266672,-7.702155,-14.66892,-21.68571,-25.8367,-26.2853,-24.36511,-22.37191,-21.97574,-23.30049,-25.1597,-26.12504,-25.59985,-24.178,-23.14722,-23.59639,-25.79021,-29.18412,-32.93665,-36.43737,-39.44599,-41.82853,-43.24358,-43.16986,-41.34558,-38.27683,-35.31748,-34.08615,-35.49466,-39.03196,-42.86975,-44.83984,-43.72279,-40.02126,-35.68553,-32.93771,-32.94445,-35.19585,-37.97478,-39.56829,-39.38431,-38.22778,-37.59156,-38.50187,-40.749,-43.03513,-43.90664,-42.78688,-40.37364,-38.1393,-37.31809,-38.11646,-39.69246,-40.87022,-41.01863,-40.4244,-39.89664,-39.94375,-40.20834,-39.66238,-37.48002,-33.94862,-30.67656,-29.81239,-32.69957,-38.84898,-45.97115,-51.13936,-52.39972,-49.8241,-45.34614,-41.50666,-39.93378,-40.52828,-41.82555,-42.21114,-41.11843,-39.39593,-38.63691,-39.98435,-43.26446,-47.04495,-49.5584,-49.84234,-48.32497,-46.49255,-45.90698,-47.25739,-50.05688,-53.11524,-55.38814,-56.59127,-57.19619,-57.89864,-59.01442,-60.26139,-61.05421,-61.04015,-60.43842,-59.92269,-60.15228,-61.32447,-63.08674,-64.85234,-66.2437,-67.30034,-68.29516,-69.33807,-70.13378,-70.1424,-69.05131,-67.17577,-65.4121,-64.69307,-65.30622,-66.60352,-67.39323,-66.80312,-65.00476,-63.21629,-62.88284,-64.55226,-67.26276,-68.97836,-67.89583,-63.78471,-58.40234,-54.58506,-54.51266,-58.26381,-63.66296,-67.59706,-67.98438,-65.09516,-61.31546,-59.48095,-60.89193,-64.37073,-67.03829,-66.31409,-61.78176,-55.61928,-51.25198,-51.10558,-54.97674,-60.1445,-63.171,-62.18144,-58.07049,-53.80104,-52.25945,-54.12313,-57.20211,-57.72948,-52.76718,-42.14993,-28.70556,-16.63498,-9.126449,-6.722388,-7.39035,-8.097906,-6.752329,-3.249255,0.9058769,3.937505,5.057479,4.799588,4.354274,4.55366,5.325936,5.97808,5.976208,5.520576,5.425327,6.415792,8.450002,10.66028,12.00306,12.1111,11.64415,11.80797,13.37691,15.9867,18.30042,18.98731,17.7909,15.82905,14.80847,15.6768,17.73853,19.00834,17.69635,13.83348,9.821008,9.346465,15.23087,27.57413,43.45333,58.43731,68.97492,74.13116,75.59999,76.10595,77.39023,79.20402,79.94867,78.3802,75.01662,72.11707,72.17581,76.01379,81.91765,86.57957,87.3074,84.01398,79.55984,78.10111,82.457,92.21457,103.837,112.7309,115.9423,113.7589,109.2416,106.0821,106.245,108.9247,111.4068,111.1536,107.6746,102.9661,100.3075,102.2671,109.2068,119.1578,129.0111,136.1809,139.7352,140.4644,140.0673,140.0969,141.2624,143.2907,145.1564,145.3767,142.2455,134.113,119.8551,99.47511,74.52154,47.9506,23.32033,3.620781,-9.678247,-16.86825,-19.45541,-19.21805,-17.45695,-14.82454,-11.67617,-8.528534,-6.19133,-5.448687,-6.558821,-9.005761,-11.7548,-13.87359,-15.08886,-15.87828,-17.0331,-19.01589,-21.58925,-23.98714,-25.49429,-25.9922,-26.05343,-26.50369,-27.77417,-29.53404,-30.89856,-31.08903,-30.08224,-28.77483,-28.51671,-30.30331,-34.15465,-39.08453,-43.66798,-46.82771,-48.34096,-48.78428,-49.01766,-49.59076,-50.45315,-51.09719,-50.95707,-49.74982,-47.54832,-44.61676,-41.2174,-37.58066,-34.04847,-31.21122,-29.82614,-30.46538,-33.07853,-36.78072,-40.08223,-41.50616,-40.27601,-36.67933,-31.88808,-27.33436,-23.9987,-22.00728,-20.73449,-19.30281,-17.1527,-14.34753,-11.46739,-9.201526,-7.912457,-7.431305,-7.180806,-6.524028,-5.119218,-3.08133,-0.8782299,0.9588774,2.140347,2.775335,3.309079,4.284317,6.056132,8.603631,11.52731,14.22661,16.16719,17.11015,17.2021,16.89707,16.761,17.25414,18.58089,20.65063,23.14009,25.61631,27.67666,29.0729,29.79295,30.07127,30.30414,30.87751,31.96877,33.42594,34.81546,35.64717,35.67058,35.06559,34.38737,34.26671,35.03197,36.49326,38.04572,39.04551,39.219,38.82249,38.42455,38.44508,38.77595,38.78262,37.73875,35.43229,32.5197,30.32588,30.13596,32.37972,36.22877,39.90895,41.59877,40.40976,36.87326,32.64508,29.60839,28.90875,30.47183,33.23255,35.85996,37.48458,37.99176,37.77845,37.24146,36.42081,35.06693,33.05653,30.79969,29.26294,29.49756,31.92982,35.88463,39.71834,41.57642,40.38881,36.52961,31.72459,28.20789,27.56405,29.88493,33.70845,36.77766,37.20976,34.44753,29.4972,24.35794,20.9855,20.36606,22.17928,25.17291,27.96664,29.78573,30.71194,31.36602,32.29313,33.48881,34.38073,34.25678,32.82148,30.47595,28.11143,26.54942,26.01799,26.03855,25.81481,24.85529,23.37939,22.19247,22.08738,23.18163,24.67639,25.25318,23.88265,20.51269,16.15864,12.3133,10.06205,9.498842,9.831656,10.07895,9.834122,9.524743,9.965505,11.5399,13.65209,14.92831,14.10724,11.02336,6.951188,3.974494,3.71843,6.266077,10.01431,12.62155,12.46047,9.62337,5.807858,3.158655,2.851164,4.377972,6.012629,6.105448,4.286727,1.719921,0.2223418,0.8806862,3.163385,5.196517,5.0519,2.163593,-2.137662,-5.401901,-5.681889,-2.934847,0.741521,2.223888,-0.8730781,-8.900487,-20.13147,-31.91495,-42.20171,-50.43314,-57.2877,-63.60166,-69.33966,-73.40768,-74.45214,-72.04749,-67.36894,-62.79443,-60.63315,-61.80766,-65.37702,-69.23289,-71.50853,-71.75732,-71.11555,-71.35907,-73.52059,-77.03833,-80.0474,-80.64253,-78.26224,-74.23138,-71.03837,-70.76546,-73.6794,-77.92921,-80.60981,-79.56956,-74.83322,-68.71378,-64.48891,-64.41966,-68.32722,-73.62777,-76.84299,-75.68844,-70.4688,-63.91291,-59.53031,-59.48273,-63.27652,-68.09068,-70.55346,-68.87919,-64.03765,-59.20867,-57.82805,-61.40997,-68.48952,-75.35844,-78.17658,-75.20013,-67.79806,-59.66806,-54.75215,-55.11224,-59.99762,-66.55836,-71.64408,-73.51601,-72.45904,-70.06266,-67.80953,-65.99554,-63.68394,-59.6251,-53.40188,-45.94333,-39.04222,-34.24437,-31.92074,-31.17999,-30.65037,-29.51996,-28.03798,-27.08809,-27.15085,-27.4646,-26.10055,-21.03592,-11.57287,0.8640643,13.17166,22.0766,25.82207,25.00375,22.05709,19.74941,19.63877,21.43212,23.54703,24.39192,23.45724,21.51692,19.89993,19.43503,19.85698,20.0878,19.15718,17.06708,14.95307,14.40026,16.37159,20.48218,25.12207,28.36026,29.04879,27.42856,24.88073,23.02394,22.75449,23.8186,25.12626,25.537,24.58214,22.68359,20.7897,19.71825,19.64471,20.03547,20.02274,18.95684,16.80109,14.16471,11.99077,11.09081,11.76369,13.66278,15.94578,17.62539,17.97085,16.79995,14.54281,12.04588,10.19629,9.538271,10.07005,11.32402,12.67715,13.70286,14.35133,14.86197,15.49734,16.31423,17.1552,17.86548,18.54247,19.56584,21.30191,23.64215,25.72689,26.15658,23.69516,18.10456,10.57294,3.370788,-1.182029,-1.900388,0.6236056,4.336635,6.856792,6.782051,4.415705,1.496612,0.1209207,1.517034,5.392656,10.18987,14.02006,15.66765,15.0767,13.1182,10.89958,9.116711,7.831848,6.712496,5.45034,4.013212,2.578466,1.27756,0.02127103,-1.423269,-3.174828,-5.046858,-6.629965,-7.62381,-8.158878,-8.810339,-10.2189,-12.55013,-15.19933,-17.02577,-17.03916,-15.10971,-12.19802,-9.882853,-9.432211,-10.9961,-13.45528,-15.05081,-14.41146,-11.33492,-6.843959,-2.519905,0.41647,1.670182,1.75727,1.373953,0.7650119,-0.4265832,-2.730139,-6.18936,-10.0131,-12.85585,-13.58563,-12.02226,-9.118592,-6.426133,-5.179656,-5.60298,-6.890226,-7.854908,-7.785019,-6.912959,-6.189413,-6.541086,-8.146919,-10.2438,-11.59467,-11.29165,-9.344521,-6.66752,-4.498017,-3.658191,-4.147674,-5.295228,-6.301845,-6.760982,-6.805843,-6.83943,-7.111168,-7.48916,-7.591521,-7.142077,-6.239568,-5.309232,-4.771279,-4.698676,-4.75439,-4.477244,-3.696748,-2.732257,-2.181266,-2.424773,-3.2276,-3.783385,-3.242871,-1.386147,1.059991,2.75617,2.584086,0.443581,-2.557209,-4.71617,-4.809801,-2.932187,-0.5178475,0.5212698,-0.9740075,-4.597695,-8.525526,-10.55664,-9.41342,-5.498103,-0.6542597,2.891079,3.733293,1.925075,-1.27261,-4.264632,-6.008797,-6.380089,-5.892863,-5.104843,-4.190736,-2.971886,-1.300689,0.5740548,1.997501,2.289097,1.225405,-0.7543525,-2.791984,-4.132455,-4.54103,-4.316693,-3.918359,-3.522862,-2.883174,-1.608948,0.362796,2.518175,3.997266,4.182599,3.202656,1.916782,1.311905,1.708539,2.384176,1.980354,-0.4989923,-4.774183,-9.168709,-11.49277,-10.4327,-6.52183,-1.965734,0.6698769,0.106362,-2.760822,-5.381999,-5.201644,-1.373275,4.612964,9.847128,11.88205,10.32957,7.083414,4.996124,5.892613,9.275112,12.62706,13.1438,9.736448,3.943223,-0.9022943,-1.733315,2.299255,9.260745,15.61121,18.34622,16.71519,12.45691,8.499978,7.070141,8.464005,11.2117,13.36871,13.9442,13.47345,13.42789,15.00068,18.20275,21.8986,24.66897,25.78151,25.5239,24.70565,23.8171,22.61094,20.51685,17.58207,15.11551,15.33357,20.02744,29.08398,39.97211,48.77802,52.33787,50.18004,44.96806,41.01885,41.71501,47.41002,55.18644,60.68159,60.8679,56.03699,49.71973,46.58135,49.61689,58.40461,69.47904,78.52255,82.93694,83.17137,82.04615,82.631,86.14105,91.22723,95.05463,95.35783,92.04247,87.25439,83.9025,83.66596,85.84839,87.85418,86.96635,82.23759,75.23847,69.16785,66.90492,69.261,74.53763,79.63616,81.97,80.95082,78.1449,76.0856,76.58414,79.65141,83.6787,86.66129,87.57043,86.92435,86.19151,86.4695,87.37718,86.95332,82.68384,73.03278,58.51967,41.67261,25.89054,13.90498,6.728263,3.612833,2.890539,3.048423,3.345676,3.679366,3.961192,3.589109,1.482433,-3.300437,-10.79855,-19.81895,-28.35196,-34.5471,-37.67773,-38.50309,-38.79589,-40.31169,-43.80696,-48.6686,-53.3369,-56.23503,-56.64531,-55.04425,-52.75516,-51.17234,-51.02419,-52.07115,-53.35342,-53.79535,-52.80967,-50.59174,-47.99147,-46.07241,-45.59787,-46.68096,-48.72888,-50.67286,-51.36695,-49.99467,-46.34114,-40.85083,-34.47129,-28.35457,-23.52764,-20.63888,-19.84361,-20.83092,-22.94762,-25.36191,-27.22841,-27.84193,-26.77693,-23.99414,-19.87452,-15.14022,-10.65836,-7.182162,-5.128148,-4.48374,-4.881568,-5.795335,-6.756129,-7.489922,-7.93381,-8.160943,-8.286734,-8.418424,-8.660578,-9.139427,-9.994213,-11.31309,-13.04085,-14.92118,-16.53065,-17.41715,-17.29578,-16.21456,-14.60124,-13.14658,-12.54908,-13.21569,-15.04883,-17.43257,-19.45496,-20.29618,-19.6179,-17.76451,-15.65549,-14.39349,-14.76269,-16.86438,-20.07935,-23.38108,-25.83538,-27.02127,-27.15475,-26.86834,-26.79465,-27.20463,-27.90309,-28.41849,-28.34663,-27.62663,-26.58538,-25.73909,-25.48628,-25.88095,-26.61239,-27.18983,-27.21737,-26.60789,-25.63135,-24.7837,-24.54584,-25.14278,-26.40825,-27.81888,-28.70157,-28.5463,-27.29656,-25.46882,-24.00219,-23.85846,-25.5359,-28.74342,-32.43875,-35.26179,-36.17463,-34.98176,-32.44302,-29.90207,-28.62113,-29.17925,-31.25372,-33.88228,-36.03215,-37.14192,-37.34581,-37.29491,-37.72404,-39.03254,-41.09805,-43.37767,-45.18837,-45.99389,-45.5733,-44.04688,-41.80679,-39.40695,-37.43243,-36.34673,-36.33659,-37.21674,-38.46937,-39.44105,-39.62569,-38.89086,-37.5191,-36.03707,-34.93287,-34.4259,-34.41124,-34.58072,-34.61321,-34.30323,-33.56989,-32.39385,-30.78103,-28.80922,-26.71504,-24.91232,-23.86247,-23.83264,-24.68979,-25.89477,-26.74936,-26.77929,-26.02643,-25.05838,-24.67145,-25.45268,-27.45513,-30.16637,-32.77002,-34.53212,-35.09697,-34.56292,-33.35483,-32.00966,-30.99208,-30.58519,-30.83709,-31.54009,-32.26472,-32.49654,-31.87738,-30.45114,-28.74277,-27.54671,-27.47212,-28.48643,-29.76733,-30.03352,-28.23382,-24.21696,-18.96308,-14.19162,-11.53463,-11.74328,-14.38431,-18.18136,-21.75544,-24.28651,-25.70622,-26.37608,-26.56165,-26.13159,-24.71092,-22.14925,-18.90088,-15.95616,-14.29219,-14.19332,-14.94297,-15.1767,-13.73871,-10.50398,-6.593139,-3.768003,-3.331384,-5.212046,-7.844735,-8.980124,-6.975859,-1.797948,4.883099,10.57833,13.33233,12.74879,10.10072,7.492185,6.598537,7.743393,9.842642,11.21422,10.74188,8.690761,6.696244,6.936261,10.95783,18.80476,28.90576,38.75788,46.0254,49.48888,49.40107,47.14456,44.44377,42.57434,41.95414,42.24878,42.83477,43.29406,43.64706,44.22805,45.34036,46.95636,48.67679,49.9763,50.56039,50.57841,50.53101,50.91999,51.87267,53.00433,53.63145,53.2106,51.71196,49.66476,47.82373,46.66839,46.07937,45.43835,44.12194,42.08247,40.11845,39.60727,41.80372,47.09227,54.6333,62.62712,69.06776,72.58885,72.97537,71.12743,68.56809,66.795,66.78087,68.76985,72.33332,76.5648,80.33175,82.57733,82.67293,80.73251,77.69753,75.01578,73.92931,74.6696,76.03457,75.71986,71.39008,62.00561,48.66999,34.43348,23.0342,17.17511,17.24756,21.20305,25.64426,27.52236,25.50219,20.28699,13.83161,8.019163,3.634683,0.2021315,-3.345497,-7.718037,-12.71785,-17.42682,-20.9305,-23.01337,-24.30976,-25.81038,-28.09956,-30.89516,-33.24288,-34.23892,-33.75928,-32.648,-32.18616,-33.17834,-35.29095,-37.14177,-37.14544,-34.597,-30.27841,-26.15008,-24.26934,-25.58571,-29.36256,-33.59512,-36.1757,-36.09404,-33.948,-31.47793,-30.44436,-31.55614,-34.09286,-36.40858,-36.95844,-35.19821,-31.83371,-28.33314,-26.06523,-25.60919,-26.61115,-28.18043,-29.4924,-30.19312,-30.39846,-30.38206,-30.2378,-29.7699,-28.65869,-26.7402,-24.17236,-21.37176,-18.79014,-16.71222,-15.21603,-14.28775,-13.95124,-14.26809,-15.1892,-16.3912,-17.27986,-17.23496,-15.97884,-13.81948,-11.56274,-10.09475,-9.869841,-10.63153,-11.56555,-11.80801,-10.99074,-9.468746,-8.07411,-7.550804,-8.039026,-8.950501,-9.323982,-8.438017,-6.292147,-3.653072,-1.638744,-1.0974,-2.150148,-4.146028,-6.019249,-6.814076,-6.08448,-3.996868,-1.157899,1.675884,3.846967,4.937196,4.827085,3.721771,2.140798,0.8168935,0.4663613,1.486574,3.732676,6.535144,9.004339,10.48997,10.94098,10.94349,11.39426,12.98845,15.81701,19.30288,22.49817,24.55187,25.07567,24.22684,22.51918,20.52938,18.68898,17.24481,16.32968,16.01909,16.30138,17.00136,17.76941,18.21209,18.12093,17.65025,17.29696,17.6572,19.09481,21.53293,24.50842,27.45168,29.99706,32.10929,33.94737,35.5843,36.81175,37.19829,36.37719,34.3559,31.6046,28.83111,26.57841,24.92355,23.49757,21.82053,19.71133,17.46587,15.65754,14.69481,14.46807,14.37556,13.74964,12.39314,10.81307,9.91748,10.31933,11.71307,12.8096,11.98748,8.330935,2.409183,-3.762547,-7.665524,-7.633379,-3.825172,1.796884,6.51425,8.32601,6.979076,3.948755,1.407865,0.8446293,2.194298,4.009027,4.522469,2.898757,-0.1510886,-2.785038,-3.210913,-0.8755282,3.096693,6.497527,7.297706,4.809299,0.05711924,-4.836657,-7.859096,-8.186156,-6.53697,-4.662546,-4.324347,-6.36113,-10.32335,-14.79131,-18.1268,-19.23843,-18.01553,-15.3047,-12.51468,-11.04553,-11.74478,-14.55472,-18.46809,-21.84599,-23.04013,-21.11242,-16.33448,-10.18068,-4.740246,-1.782579,-1.937747,-4.435775,-7.560274,-9.566672,-9.542163,-7.724654,-5.137478,-2.821734,-1.183779,0.1329211,1.816018,4.241962,7.103205,9.578387,10.92054,11.03206,10.5956,10.63942,11.81895,13.91006,15.8839,16.54678,15.34512,12.81031,10.3394,9.426311,10.8043,14.01391,17.64761,20.11714,20.49426,18.95939,16.64186,14.98363,14.999,16.81753,19.70716,22.50952,24.22545,24.45144,23.47766,22.04317,20.90769,20.47368,20.64954,21.00924,21.13945,20.95504,20.77549,21.094,22.17102,23.72154,24.93992,24.90907,23.18056,20.16111,17.01859,15.10527,15.21554,17.13358,19.77024,21.82022,22.5255,22.04975,21.21821,20.8042,20.85726,20.54814,18.65741,14.39081,7.973942,0.6238288,-6.083599,-11.02641,-14.00258,-15.58438,-16.53432,-17.24726,-17.62373,-17.42013,-16.73939,-16.21283,-16.67106,-18.52295,-21.33134,-23.97084,-25.33269,-25.10821,-24.07018,-23.58948,-24.66783,-27.14775,-29.68652,-30.57692,-28.90226,-25.24693,-21.45158,-19.535,-20.47471,-23.64578,-27.28176,-29.63799,-30.07389,-29.3459,-28.95692,-30.05373,-32.65241,-35.71097,-37.95422,-38.82695,-38.87832,-39.30548,-40.99677,-43.77588,-46.40504,-47.36567,-45.8853,-42.50753,-38.81945,-36.5273,-36.49827,-38.37485,-40.94875,-42.96439,-43.77553,-43.45308,-42.38358,-40.76325,-38.41955,-35.07997,-30.81766,-26.24646,-22.23868,-19.34091,-17.3434,-15.38521,-12.58271,-8.748677,-4.648575,-1.541567,-0.2749523,-0.5641646,-1.009455,0.0947942,3.672336,9.244535,15.22751,19.96493,22.78728,24.35306,26.02808,28.75185,32.22903,35.07142,35.83361,34.20963,31.48557,29.82843,30.81796,34.21948,37.90927,39.12117,36.2695,30.15001,23.66678,20.17512,21.45191,26.58056,32.4706,35.68669,34.4307,29.44908,23.36329,18.94536,17.50039,18.3636,19.71039,19.99048,18.93626,17.48106,16.74921,16.94678,17.02324,15.38109,11.12518,4.932764,-1.120844,-4.715915,-4.671928,-1.652042,2.255262,4.770156,4.652528,2.177619,-1.333401,-4.479857,-6.53217,-7.516834,-7.740239,-7.269526,-5.857927,-3.377472,-0.3520473,1.948602,2.075116,-0.6884764,-5.71281,-11.22031,-15.25834,-16.85445,-16.59027,-16.19238,-17.39304,-20.80551,-25.54626,-29.82623,-32.08467,-31.89851,-30.09332,-28.05412,-26.77503,-26.3199,-26.02345,-25.2082,-23.83613,-22.59796,-22.38788,-23.57536,-25.63058,-27.38916,-27.76836,-26.42302,-23.88716,-21.13323,-18.90042,-17.28929,-15.89376,-14.32338,-12.67608,-11.5705,-11.69505,-13.21155,-15.47877,-17.33775,-17.79252,-16.626,-14.52752,-12.64677,-11.88346,-12.39045,-13.59781,-14.68929,-15.15817,-15.04984,-14.76257,-14.61721,-14.56534,-14.27154,-13.49154,-12.418,-11.67526,-11.90907,-13.24055,-14.99069,-15.92356,-14.90823,-11.60534,-6.749963,-1.850606,1.518575,2.427461,0.9359657,-2.037673,-5.165038,-7.193176,-7.269957,-5.083949,-0.9003965,4.456533,9.729218,13.55302,14.96901,13.91503,11.37561,8.984014,8.186406,9.404882,11.72545,13.3766,12.78179,9.571444,4.910614,0.8927258,-0.6664501,0.6964064,3.816242,6.594785,7.227948,5.199593,1.446182,-2.355788,-4.869794,-5.838188,-6.044928,-6.610952,-8.162256,-10.44795,-12.62483,-13.94342,-14.30856,-14.31772,-14.78474,-16.13028,-18.09541,-19.97262,-21.15882,-21.60859,-21.86241,-22.65564,-24.42132,-27.05449,-30.07778,-33.02842,-35.72757,-38.21834,-40.46189,-42.10959,-42.62868,-41.76211,-39.98196,-38.51601,-38.78769,-41.54525,-46.24872,-51.19003,-54.37004,-54.63796,-52.37928,-49.29098,-47.35933,-47.67471,-49.82692,-52.24571,-53.23707,-52.02982,-49.17273,-46.07965,-44.08384,-43.65258,-44.25027,-44.86298,-44.7552,-43.91983,-42.95393,-42.52297,-42.84996,-43.59926,-44.19751,-44.30593,-44.07127,-43.98347,-44.48219,-45.63464,-47.12294,-48.51425,-49.56129,-50.27755,-50.74382,-50.84965,-50.24258,-48.58241,-45.91642,-42.84264,-40.25494,-38.7915,-38.3824,-38.27757,-37.60368,-36.07653,-34.31038,-33.39666,-33.94798,-35.25526,-35.2337,-31.36513,-22.16418,-8.270406,7.578557,21.76863,31.54102,36.20884,37.15516,36.68855,36.55142,37.05185,37.31321,36.34532,34.09053,31.66546,30.64286,31.93999,35.17527,39.00689,42.22546,44.78214,47.93573,53.32161,61.55071,71.3571,80.00552,84.82495,84.9224,81.92493,79.173,79.78456,84.76981,92.38655,99.16181,101.9598,99.82406,94.48136,89.24461,87.04248,88.79579,93.07781,97.15461,98.66556,96.89196,92.92126,88.75738,86.05231,85.26765,85.69374,86.16869,85.94071,85.12677,84.56184,85.23502,87.70901,91.83923,96.86736,101.7533,105.5504,107.6922,108.1494,107.4389,106.4563,106.1244,106.9497,108.7018,110.4545,111.0627,109.8694,107.2135,104.35,102.7231,102.9745,104.3247,104.8137,102.3807,96.19487,87.41178,78.80451,73.38319,72.75323,76.16645,80.83595,83.34447,81.33565,74.53722,64.60194,53.97491,44.54382,36.87119,30.35646,24.05688,17.52117,11.07809,5.469568,1.18891,-1.945726,-4.673799,-7.747296,-11.38507,-15.13276,-18.21665,-20.11,-20.88353,-21.08602,-21.26161,-21.48411,-21.27683,-19.99648,-17.40889,-14.02853,-10.95154,-9.26965,-9.456096,-11.14188,-13.43148,-15.52901,-17.22816,-18.9181,-21.10599,-23.81013,-26.28612,-27.32946,-25.99812,-22.29284,-17.33228,-12.87237,-10.43736,-10.57808,-12.68813,-15.45308,-17.61908,-18.59815,-18.5753,-18.13309,-17.71728,-17.33192,-16.64712,-15.3883,-13.67699,-12.04566,-11.10343,-11.09652,-11.6922,-12.15903,-11.83211,-10.5454,-8.730883,-7.115896,-6.229626,-6.061882,-6.107658,-5.759578,-4.767936,-3.445682,-2.479566,-2.487326,-3.633664,-5.565071,-7.684642,-9.540201,-11.02307,-12.23053,-13.11882,-13.26166,-11.97986,-8.839535,-4.209562,0.549507,3.514046,3.107233,-0.9932676,-7.503329,-14.01108,-18.08652,-18.43948,-15.49362,-11.06878,-7.37021,-5.867571,-6.680696,-8.763557,-10.70068,-11.59446,-11.52012,-11.33453,-12.03468,-14.11104,-17.29112,-20.77737,-23.75816,-25.82436,-27.03554,-27.6524,-27.78802,-27.26807,-25.81446,-23.40956,-20.54799,-18.1454,-17.11045,-17.83062,-19.90573,-22.32224,-23.9863,-24.3044,-23.46761,-22.27927,-21.64611,-22.04894,-23.30187,-24.71267,-25.50888,-25.25198,-24.00715,-22.21743,-20.41805,-18.99429,-18.10906,-17.77801,-17.96942,-18.62181,-19.57776,-20.53184,-21.09595,-20.98794,-20.22707,-19.1787,-18.37613,-18.20882,-18.68188,-19.42637,-19.97515,-20.12582,-20.1311,-20.56033,-21.90182,-24.16956,-26.79708,-28.91844,-29.87091,-29.58926,-28.62086,-27.74261,-27.43575,-27.58051,-27.58817,-26.88637,-25.42108,-23.81377,-23.03826,-23.80998,-26.08536,-29.01044,-31.37077,-32.27173,-31.63302,-30.20576,-29.12355,-29.2774,-30.88085,-33.43564,-36.04641,-37.84593,-38.29157,-37.24331,-34.89863,-31.7123,-28.35149,-25.62206,-24.27304,-24.6866,-26.61181,-29.16091,-31.17292,-31.80826,-31.04078,-29.71703,-29.09241,-30.08606,-32.69953,-35.96402,-38.45629,-39.06391,-37.52834,-34.45457,-30.83678,-27.46089,-24.59237,-22.11675,-19.9524,-18.35798,-17.85439,-18.79807,-20.94035,-23.35405,-24.85844,-24.70079,-23.03358,-20.83288,-19.27654,-18.98115,-19.61117,-20.12987,-19.52355,-17.50438,-14.71447,-12.30547,-11.20486,-11.59045,-12.92836,-14.50771,-16.03694,-17.82484,-20.39108,-23.80366,-27.28473,-29.46453,-29.19233,-26.3667,-22.16318,-18.40892,-16.44836,-16.24623,-16.38039,-15.01167,-11.24265,-5.956876,-1.509837,-0.3740647,-3.55127,-9.77518,-16.07025,-19.37782,-18.26152,-13.62405,-7.981192,-3.761533,-1.736644,-0.6120042,1.940497,7.476021,15.39485,22.94201,26.67305,24.51932,17.16816,7.864819,0.7045282,-1.58658,0.9313936,5.615148,8.890649,8.322045,3.857055,-2.433356,-7.852101,-10.80092,-11.64687,-12.24916,-14.54161,-19.14869,-24.94351,-29.80505,-32.0382,-31.49856,-29.67682,-28.69107,-29.85334,-32.755,-35.48228,-35.8466,-32.86071,-27.52451,-22.40608,-20.2478,-22.4302,-28.21588,-35.22283,-40.83285,-43.6831,-44.34987,-44.83119,-47.16217,-52.01438,-58.13276,-62.95517,-64.05167,-60.53416,-53.60973,-45.95927,-40.31203,-38.04525,-38.60187,-40.01978,-40.20918,-38.1929,-34.58311,-31.05508,-29.19332,-29.44868,-30.84844,-31.61469,-30.28117,-26.60467,-21.71592,-17.44127,-15.23663,-15.392,-16.96711,-18.44765,-18.67638,-17.48211,-15.66413,-14.41449,-14.59121,-16.29119,-18.91902,-21.60803,-23.65708,-24.71628,-24.69928,-23.61686,-21.54714,-18.78101,-15.9664,-14.01453,-13.69868,-15.15201,-17.6346,-19.82759,-20.56684,-19.57969,-17.70567,-16.36671,-16.54773,-17.92374,-18.74584,-16.65155,-9.967175,1.283262,15.30069,29.43287,41.53134,50.90816,58.3309,65.13361,72.09689,78.87316,84.3256,87.49694,88.48195,88.55262,89.42128,92.1443,96.43127,100.8446,103.7518,104.369,103.1796,101.4669,100.3298,99.91187,99.39873,97.76153,94.66554,90.83463,87.56554,85.73116,85.02258,84.04284,81.25784,76.16433,69.82505,64.32259,61.43555,61.41543,62.72256,62.95325,60.37898,55.08277,48.92986,44.38631,42.97042,44.3597,46.71802,47.97548,47.16187,44.89519,42.74442,41.97638,42.60713,43.42787,42.95906,40.61768,37.23694,34.54939,33.98997,35.66397,38.21318,39.68593,38.82038,35.86855,32.41084,30.2995,30.44611,32.245,33.97443,33.86814,31.14738,26.39238,21.11033,16.86802,14.5619,14.20478,15.20789,16.83692,18.51022,19.83332,20.5078,20.3129,19.21801,17.49706,15.67114,14.24967,13.44645,13.11335,12.97819,13.00243,13.52691,15.00416,17.46144,20.13183,21.66392,20.93117,17.9618,14.28756,12.2941,13.81902,18.8416,25.1865,29.59021,29.58713,25.05791,18.40529,13.159,11.83817,14.42543,18.44918,20.63424,19.04673,14.32402,9.187244,6.58177,7.709101,11.27602,14.45071,14.85062,12.19,8.460107,6.530191,8.141772,12.6784,17.55355,19.94755,18.70741,15.1239,12.07371,12.1211,15.85606,21.55524,26.3406,28.01665,26.3597,23.0617,20.46529,20.01579,21.47272,23.33383,24.07019,23.25252,21.79683,21.22423,22.51951,25.40832,28.52307,30.28078,29.82576,27.41071,24.04371,20.7556,18.05564,15.91892,14.1914,12.97697,12.62693,13.32462,14.63846,15.49283,14.70445,11.77682,7.389418,3.174934,0.8542131,1.257987,3.869549,7.186415,9.651138,10.52646,10.15128,9.462031,9.177394,9.256241,9.008842,7.74414,5.440123,2.913961,1.346417,1.497502,3.183566,5.399106,6.999631,7.45674,7.149542,6.998736,7.728702,9.307654,10.97358,11.81239,11.44133,10.27268,9.149984,8.628105,8.455063,7.685408,5.396567,1.515753,-2.860185,-5.951838,-6.337904,-3.891057,0.01867699,3.223766,3.952013,1.786651,-2.177057,-6.033272,-8.152828,-7.985958,-6.150182,-3.860888,-2.158841,-1.44277,-1.527224,-2.05173,-2.852851,-4.009769,-5.581375,-7.318001,-8.649999,-9.020803,-8.332761,-7.14741,-6.434799,-6.992871,-8.917464,-11.49684,-13.62531,-14.47056,-13.94645,-12.67212,-11.45592,-10.67817,-10.02256,-8.76255,-6.41128,-3.269699,-0.453444,0.6776068,-0.6492621,-4.062039,-8.140783,-11.13723,-11.88908,-10.38108,-7.639464,-5.075799,-3.731498,-3.898108,-5.293337,-7.574654,-10.74891,-15.14509,-20.9748,-27.85148,-34.71264,-40.31966,-44.07127,-46.57342,-49.48972,-54.63624,-62.80566,-73.05461,-82.96632,-89.81948,-92.01412,-89.90902,-85.56206,-81.53448,-79.49804,-79.49226,-80.24246,-80.2542,-78.90601,-76.80172,-75.18262,-74.86976,-75.53841,-75.88754,-74.61533,-71.5057,-67.8058,-65.5407,-66.16147,-69.43345,-73.37031,-75.34259,-73.68675,-68.76279,-62.73705,-58.20054,-56.51829,-57.00265,-57.46637,-55.78875,-51.44323,-45.95267,-41.95476,-41.492,-44.66047,-49.50936,-53.24653,-53.94493,-51.63582,-48.11378,-45.6499,-45.51517,-47.2891,-49.34745,-50.11158,-49.16071,-47.46487,-46.64613,-47.8395,-50.95019,-54.76371,-57.74616,-58.92602,-58.2774,-56.45688,-54.22604,-52.05611,-50.16541,-48.81936,-48.4883,-49.60846,-52.09648,-55.07561,-57.18844,-57.41941,-55.86864,-53.81933,-52.87144,-53.61589,-54.77997,-53.59364,-47.35283,-35.28374,-19.469,-4.085902,6.731172,11.15076,10.60652,8.813136,9.422308,13.79211,20.28066,25.48534,26.58187,23.21278,17.70153,13.49847,12.93514,15.79136,19.59446,21.38783,19.73596,15.62084,11.6771,10.34698,12.23401,15.74545,18.20275,17.61382,13.90816,8.866091,4.889382,3.510807,4.631291,6.890353,8.771586,9.590099,9.691864,9.833262,10.31385,10.57255,9.558774,6.579137,1.958247,-3.003768,-6.768255,-8.471137,-8.372698,-7.547692,-7.063005,-7.23626,-7.478745,-6.786686,-4.489512,-0.7193558,3.687069,7.712623,10.68597,12.44803,13.12949,12.83093,11.54837,9.43175,7.119518,5.752741,6.480681,9.687644,14.47828,18.88783,20.83697,19.31787,15.06244,10.20782,7.095279,6.915186,9.043983,11.50007,12.23256,10.41908,6.942929,3.757372,2.570924,3.725827,6.003736,7.475353,6.823845,4.267714,1.480223,0.5623783,2.736931,7.596593,13.36471,17.9692,20.2242,20.37897,19.73576,19.65055,20.61228,22.00567,22.68135,21.91025,20.05007,18.45329,18.65703,21.37445,25.94559,30.61761,33.50203,33.63377,31.49697,28.71432,27.10307,27.66806,30.11246,33.11271,35.14502,35.34934,33.93885,31.97179,30.68739,30.83348,32.36263,34.60707,36.7476,38.25017,39.02252,39.26364,39.17978,38.79741,37.99549,36.70227,35.08368,33.56761,32.67669,32.78046,33.92841,35.85813,38.14637,40.38071,42.24008,43.46792,43.82142,43.10255,41.29778,38.73489,36.10329,34.24256,33.75759,34.66694,36.31946,37.68282,37.88378,36.70367,34.72881,33.04216,32.61632,33.75782,35.93428,38.09109,39.26809,39.14421,38.18409,37.30999,37.31451,38.38357,40.01612,41.36803,41.77979,41.14557,39.90324,38.68485,37.88615,37.44972,36.99132,36.1535,34.91566,33.63171,32.77055,32.55492,32.77178,32.9068,32.52008,31.59768,30.61621,30.25059,30.90602,32.38999,33.95959,34.73293,34.20738,32.55013,30.4742,28.78685,27.91212,27.6992,27.62726,27.24464,26.52254,25.87068,25.80471,26.50604,27.5966,28.30745,27.94697,26.36063,24.06862,21.97593,20.83278,20.79087,21.33951,21.65812,21.15434,19.84396,18.3434,17.4992,17.9053,19.60622,22.13951,24.83995,27.17616,28.90938,30.02563,30.56429,30.52143,29.91111,28.906,27.88639,27.2852,27.28953,27.61278,27.55307,26.37891,23.8387,20.45659,17.36801,15.73276,16.05889,17.87249,19.98056,21.1986,21.09038,20.22157,19.71718,20.36757,21.85695,22.66102,20.76706,14.84389,5.164963,-6.311201,-16.81622,-24.13828,-27.70532,-28.76643,-29.58485,-32.13585,-37.07303,-43.52827,-49.78191,-54.32144,-56.62181,-57.22271,-57.16522,-57.24855,-57.62498,-57.95462,-57.92124,-57.66497,-57.78176,-58.889,-61.09761,-63.81266,-66.04845,-67.06224,-66.86436,-66.23352,-66.20967,-67.40882,-69.63594,-72.06588,-73.85964,-74.77131,-75.30376,-76.29166,-78.20345,-80.66626,-82.57465,-82.74022,-80.65804,-76.87357,-72.69833,-69.4599,-67.78026,-67.34324,-67.26787,-66.79188,-65.77875,-64.71545,-64.24751,-64.62573,-65.48338,-66.10013,-65.93951,-65.043,-63.97749,-63.37387,-63.41275,-63.66463,-63.43501,-62.3786,-60.91999,-60.12377,-61.03759,-63.92247,-67.90543,-71.33899,-72.69011,-71.41718,-68.28152,-64.89323,-62.77926,-62.5592,-63.72608,-65.12272,-65.75446,-65.38757,-64.56569,-64.09445,-64.40276,-65.24348,-65.92204,-65.84203,-64.92254,-63.54062,-62.01358,-60.00159,-56.31303,-49.34743,-37.97241,-22.30058,-3.847912,15.07818,32.42344,47.24066,59.83972,71.16798,81.84949,91.53057,98.97389,102.8457,102.675,99.33785,94.72626,90.79031,88.55985,87.76473,87.27675,86.04991,83.90426,81.61213,80.23185,80.16859,80.65488,80.07717,76.99457,71.19216,64.03708,57.83454,54.54141,54.64626,56.9465,59.3793,60.36255,59.75135,58.76316,58.9226,60.75872,63.18344,64.03809,61.49706,55.40363,47.61091,41.03595,37.9918,38.86338,41.98629,44.79968,45.4988,44.08408,42.12147,41.41307,42.52848,44.24565,44.32463,41.10838,34.85128,27.8278,23.07988,22.57798,25.98119,30.8061,33.90569,33.32223,29.3611,24.26146,20.74445,20.39892,22.89288,26.40097,28.84768,29.1084,27.45005,25.07248,23.19908,22.37179,22.34573,22.50179,22.36636,21.85686,21.17586,20.57324,20.24537,20.42933,21.49466,23.78549,27.19381,30.76557,32.76605,31.39223,25.84385,17.0937,7.750722,0.9186417,-1.384729,0.6769437,4.847665,8.048618,8.08656,4.778732,-0.1562605,-4.307822,-6.069474,-5.478587,-3.943116,-3.154748,-3.992021,-6.144454,-8.620978,-10.66669,-12.35553,-14.41629,-17.45551,-21.20893,-24.44366,-25.65568,-24.11193,-20.50543,-16.72931,-14.86559,-16.01381,-19.68951,-24.14058,-27.33535,-27.97852,-25.96308,-22.0989,-17.44486,-12.77259,-8.492202,-4.9555,-2.745489,-2.591623,-4.883049,-9.125484,-13.80871,-16.91721,-16.87976,-13.42319,-7.803609,-2.2423,1.137285,1.289332,-1.37105,-5.331938,-8.830104,-10.68874,-10.73283,-9.653577,-8.493893,-8.077427,-8.656503,-9.888575,-11.08197,-11.56143,-10.99547,-9.567363,-7.926298,-6.923703,-7.222283,-8.942907,-11.53419,-13.97087,-15.2219,-14.76401,-12.86068,-10.43648,-8.604441,-8.110226,-9.007644,-10.73366,-12.5015,-13.74076,-14.31073,-14.39195,-14.19306,-13.72847,-12.84662,-11.4789,-9.89273,-8.711336,-8.62623,-9.961958,-12.38489,-14.97949,-16.68465,-16.84607,-15.55671,-13.5839,-11.93273,-11.30912,-11.78809,-12.85299,-13.74612,-13.90803,-13.2647,-12.23768,-11.51069,-11.69396,-13.04278,-15.33492,-17.94053,-20.06006,-21.05972,-20.79036,-19.74795,-18.95762,-19.56708,-22.2912,-26.97548,-32.54092,-37.40471,-40.20901,-40.48826,-38.90231,-36.88525,-35.88986,-36.64595,-38.84497,-41.40916,-43.15721,-43.45569,-42.48079,-40.97905,-39.7294,-39.07423,-38.80637,-38.44436,-37.67372,-36.64248,-35.91711,-36.13642,-37.58939,-39.97635,-42.48942,-44.16285,-44.30949,-42.83752,-40.3153,-37.76309,-36.24772,-36.42297,-38.19272,-40.66349,-42.47193,-42.41232,-40.10453,-36.34297,-32.85764,-31.50482,-33.25532,-37.54301,-42.40969,-45.45758,-45.12574,-41.55867,-36.52526,-32.39729,-30.77946,-31.62026,-33.35007,-33.9507,-32.26836,-28.73023,-25.02053,-22.95632,-23.31939,-25.40495,-27.54325,-28.19111,-26.83138,-24.09962,-21.13386,-18.6932,-16.71609,-14.61052,-11.97746,-9.119479,-6.853549,-5.714676,-5.178016,-3.607818,0.8404986,8.863729,19.13393,28.62646,34.11512,33.98477,29.22098,22.90667,18.49606,17.92666,20.72848,24.62865,27.17282,27.25768,25.60216,23.96351,23.76553,25.15067,27.07901,28.28861,28.30857,27.72982,27.55818,28.21578,29.04824,28.80417,26.77147,23.68011,21.57628,22.60345,27.4725,34.72573,41.41973,44.87265,44.33421,41.42405,38.99643,39.17675,41.91425,45.06175,45.93929,43.29439,38.2774,33.72794,32.25563,34.45889,38.54637,41.64698,41.89806,39.83121,38.04611,39.35751,44.68983,52.20934,58.36021,60.16602,57.26736,52.30825,49.36707,51.42312,58.48524,67.5687,74.50063,76.3744,73.11404,67.24951,62.17355,60.06599,60.7626,62.12813,61.50455,57.21309,49.22335,38.78179,27.48435,16.51941,6.50375,-2.206691,-9.192818,-14.00653,-16.53823,-17.34449,-17.55681,-18.32958,-20.18501,-22.74197,-25.05665,-26.346,-26.56491,-26.40495,-26.71461,-27.78442,-29.05567,-29.50049,-28.41098,-26.00686,-23.38248,-21.79186,-21.76954,-22.72983,-23.36127,-22.56186,-20.25899,-17.52118,-15.86342,-16.22047,-18.30618,-20.81084,-22.30314,-22.20912,-21.19038,-20.66548,-21.81436,-24.75241,-28.42641,-31.27538,-32.18222,-31.07618,-28.82707,-26.57859,-25.03094,-24.15764,-23.47607,-22.57702,-21.46255,-20.44237,-19.71965,-19.05303,-17.81433,-15.43063,-11.87052,-7.77404,-4.087606,-1.452347,0.1985077,1.52018,3.199603,5.394903,7.629099,9.25423,10.14269,11.0352,13.18113,17.42433,23.34996,29.15739,32.48369,31.74928,27.18453,20.83694,15.48944,13.13488,13.95966,16.46998,18.6454,19.32764,18.90734,18.86136,20.48799,23.74605,27.04202,28.16261,25.75772,20.37571,14.32257,10.37937,10.16727,13.1908,17.16348,19.40567,18.43683,14.78674,10.56984,8.146952,8.737065,11.81073,15.55482,18.02262,18.20923,16.42698,13.86368,11.72402,10.55168,10.11565,9.814203,9.213206,8.310589,7.381859,6.596656,5.755753,4.382585,2.116861,-0.8823193,-3.837287,-5.666163,-5.540066,-3.351275,0.1833216,3.835146,6.409985,7.240602,6.408455,4.644491,3.00669,2.486572,3.66659,6.500126,10.26193,13.71476,15.50394,14.69858,11.27649,6.294909,1.577828,-1.020108,-0.4598746,2.956803,7.693081,11.70345,13.42445,12.50919,9.913093,7.29611,6.088224,6.746655,8.608262,10.38634,10.99001,10.17355,8.644421,7.590899,7.929356,9.722887,12.10694,13.75569,13.61433,11.4821,8.126376,4.874771,2.914619,2.676224,3.618412,4.516082,4.09178,1.669886,-2.463664,-7.156848,-10.8822,-12.38769,-11.21857,-7.898349,-3.714725,-0.2182213,1.358196,0.5378368,-2.257453,-5.906046,-9.050836,-10.65698,-10.4442,-9.002691,-7.512358,-7.154573,-8.46851,-10.97294,-13.28695,-13.75062,-11.274,-5.980855,0.7222518,6.736523,10.2433,10.54973,8.350533,5.272035,2.975285,2.34518,3.220059,4.764127,6.175985,7.229409,8.287952,9.82524,11.84855,13.70423,14.47074,13.70019,11.96636,10.74991,11.61912,15.17291,20.44642,25.24908,27.32832,25.69495,21.28431,16.49622,13.84322,14.50767,17.68928,21.14945,22.61782,21.19,17.85463,14.83736,14.1889,16.50568,20.57002,24.1083,25.17209,23.28357,19.66456,16.45475,15.43552,17.03812,20.19269,23.03929,24.02217,22.71799,19.97238,17.35609,16.31979,17.52212,20.62627,24.56192,28.03056,29.99161,29.97023,28.15616,25.32694,22.62229,21.18623,21.73785,24.21862,27.71124,30.75035,31.95035,30.66485,27.31592,23.17288,19.66487,17.60076,16.75288,16.06331,14.35797,11.13236,6.912346,2.946498,0.404188,-0.4235487,-0.4055505,-1.127024,-3.962632,-9.218464,-15.87015,-22.07265,-26.1525,-27.50137,-26.84974,-25.77399,-25.74874,-27.31633,-29.85557,-32.05338,-32.75784,-31.67822,-29.5208,-27.51554,-26.6627,-27.17695,-28.45161,-29.52042,-29.68898,-28.92989,-27.82061,-27.11109,-27.23527,-28.08398,-29.15588,-29.94471,-30.28222,-30.41571,-30.79789,-31.75698,-33.27007,-34.96365,-36.30215,-36.82148,-36.28184,-34.71213,-32.39967,-29.87326,-27.85417,-27.09902,-28.10929,-30.81857,-34.48126,-37.94443,-40.265,-41.35672,-42.22859,-44.54429,-49.64341,-57.56624,-66.7271,-74.55516,-78.82861,-78.93655,-76.2662,-73.40703,-72.60834,-74.44245,-77.54352,-79.62252,-79.11459,-76.35583,-73.44883,-72.82655,-75.41687,-79.64445,-82.02039,-79.0517,-69.30774,-54.32063,-37.70779,-23.05,-11.88578,-3.132796,5.678692,16.18308,27.48463,36.20806,38.39047,32.08056,18.98372,4.024333,-7.025005,-10.49054,-6.588835,0.967995,7.258891,8.922439,5.779202,0.4614247,-3.543963,-4.110453,-1.578152,1.805588,3.576901,2.682801,0.006236703,-2.441724,-3.005795,-1.504918,0.7281721,1.829051,0.6779099,-2.395635,-5.899548,-8.193172,-8.508269,-7.317663,-5.880287,-5.34686,-6.056768,-7.459945,-8.634122,-8.976452,-8.585417,-8.119755,-8.302074,-9.45153,-11.35217,-13.48561,-15.40109,-16.94507,-18.23291,-19.46498,-20.78653,-22.30102,-24.16504,-26.5917,-29.66883,-33.09882,-36.11303,-37.75348,-37.45561,-35.58542,-33.51234,-33.03508,-35.40023,-40.48128,-46.66842,-51.6258,-53.53195,-52.08273,-48.64427,-45.44975,-44.32487,-45.72001,-48.62685,-51.38931,-52.85026,-53.07817,-53.21428,-54.57342,-57.62395,-61.54455,-64.66412,-65.50285,-63.73474,-60.44359,-57.50173,-56.46093,-57.64495,-59.99188,-61.71739,-61.37095,-58.64525,-54.4853,-50.48565,-47.97334,-47.31229,-47.78172,-48.02454,-46.76205,-43.386,-38.17412,-32.10521,-26.4293,-22.19991,-19.92467,-19.40981,-19.81874,-19.93226,-18.55483,-14.94597,-9.104006,-1.7536,5.987375,13.11184,19.13455,24.1839,28.73599,33.18044,37.52068,41.42109,44.56802,47.07483,49.60503,53.06723,58.0408,64.31223,70.87193,76.4397,80.22897,82.46957,84.32742,87.22991,91.9905,98.27429,104.7475,109.8314,112.6023,113.2928,113.1062,113.4892,115.3344,118.5969,122.5103,126.1917,129.1918,131.6285,133.866,136.032,137.775,138.4739,137.7655,136.0003,134.2523,133.8031,135.3858,138.6674,142.3324,144.7635,144.938,143.0122,140.2391,138.2607,138.1786,139.9315,142.3121,143.5862,142.34,138.087,131.34,123.179,114.6312,106.2472,98.10557,90.18695,82.82337,76.87626,73.45985,73.31655,76.1975,80.65782,84.48723,85.64748,83.26234,78.10271,72.22185,67.84598,66.07686,66.14419,65.70605,62.12507,54.05238,42.39586,30.03336,20.33696,15.30724,14.41627,14.90203,13.40847,8.027291,-0.504634,-9.229996,-14.81228,-15.67964,-13.11515,-10.5439,-11.3893,-16.80375,-24.732,-30.98817,-31.79168,-26.25697,-17.29022,-10.25965,-10.13648,-18.74385,-33.71194,-49.74671,-61.4608,-66.12547,-64.79456,-61.2585,-59.57615,-61.72496,-66.74503,-71.77047,-74.16753,-73.3604,-71.18517,-70.58957,-73.55385,-79.59999,-85.87872,-88.82954,-86.41156,-79.52137,-71.68158,-67.12151,-68.35214,-74.67168,-82.51299,-87.47009,-86.84384,-81.22449,-74.17382,-70.17349,-72.02045,-79.17988,-88.05302,-94.00333,-93.96356,-88.11911,-79.71861,-73.16666,-71.54713,-75.02089,-80.97918,-85.76617,-86.8692,-84.25512,-80.11892,-77.31318,-77.51453,-80.27655,-83.49198,-84.86771,-83.40011,-79.90205,-76.30399,-74.26281,-74.03068,-74.30513,-73.08846,-68.91357,-61.59668,-52.06461,-41.4841,-30.40691,-18.59784,-5.675881,7.93889,20.55653,29.71494,33.45602,31.60196,26.16583,20.53144,17.80725,19.29614,23.96919,29.22234,32.42152,32.29965,29.42201,25.55983,22.48213,20.96867,20.60804,20.37653,19.49589,17.95853,16.41751,15.61145,15.79288,16.56472,17.1904,17.09702,16.18953,14.78408,13.28067,11.88019,10.57365,9.370735,8.511058,8.404039,9.278258,10.80314,12.04015,11.88422,9.79072,6.312059,3.013391,1.702203,3.367998,7.470764,12.05829,14.71036,13.80009,9.353265,3.012932,-2.858927,-6.412869,-7.176545,-6.099964,-4.826807,-4.675662,-5.939163,-7.870678,-9.295635,-9.426212,-8.374337,-7.071774,-6.671228,-7.799961,-10.10962,-12.38786,-13.18031,-11.58912,-7.811706,-3.113496,0.7767818,2.546737,1.985555,0.08393685,-1.539203,-1.592145,0.08913177,2.386059,3.533682,2.224445,-1.463573,-5.910573,-8.745709,-8.185857,-4.147342,1.569375,6.202857,7.572716,5.342496,1.231071,-1.988161,-2.124771,1.13404,6.059181,9.949393,10.78164,8.43092,4.716364,2.259037,2.869221,6.461262,11.15086,14.44779,14.78331,12.42475,9.23171,7.437128,8.23036,11.01943,13.80949,14.44298,11.93089,7.069751,1.986366,-1.103192,-1.179862,0.9946291,3.32032,3.557467,0.5916252,-4.942753,-11.01172,-15.29029,-16.40451,-14.6258,-11.65336,-9.629299,-9.94959,-12.53546,-15.95978,-18.3339,-18.42662,-16.35771,-13.46257,-11.42044,-11.18581,-12.38882,-13.58769,-13.22678,-10.70035,-6.835417,-3.457177,-2.280768,-3.818086,-7.004951,-9.813504,-10.48792,-8.628887,-5.430037,-2.900062,-2.553593,-4.402436,-6.89544,-7.855209,-5.827126,-1.000133,4.86343,9.424741,11.06413,9.698337,6.683896,3.953857,2.974309,4.1361,6.840948,10.07598,13.01434,15.2747,16.79815,17.59001,17.61471,16.92645,15.86076,15.02875,15.02038,15.99792,17.50987,18.73414,19.03817,18.46785,17.77681,17.91643,19.31433,21.46848,23.20179,23.45886,22.10785,20.1523,19.13495,20.08544,22.72509,25.51792,26.60313,25.02789,21.45192,17.81092,16.11021,17.11753,19.81885,22.01714,21.70421,18.32379,13.11344,8.31991,5.816212,6.023024,7.807311,9.368649,9.479505,8.249713,6.946927,7.058815,9.274295,13.07004,17.13302,20.26736,22.12746,23.28596,24.64163,26.6383,28.87593,30.38917,30.37945,28.8636,26.768,25.39196,25.60286,27.30408,29.52028,31.02325,31.0698,29.77592,27.92205,26.37271,25.52966,25.17508,24.76448,23.91755,22.74229,21.77405,21.59696,22.43127,23.97541,25.59633,26.71706,27.12773,27.02052,26.75522,26.54537,26.29474,25.68961,24.46666,22.65798,20.64355,18.98318,18.14892,18.33149,19.42208,21.13651,23.15452,25.15873,26.76355,27.43777,26.55634,23.63391,18.64593,12.23522,5.619016,0.1606116,-3.229084,-4.563198,-4.856546,-5.728566,-8.699467,-14.51731,-22.84689,-32.46576,-41.85021,-49.83812,-56.03337,-60.77388,-64.72813,-68.37756,-71.67947,-74.08331,-74.86829,-73.60316,-70.48177,-66.36838,-62.53759,-60.22776,-60.19367,-62.42782,-66.15199,-70.08681,-72.9159,-73.78479,-72.64014,-70.25071,-67.86901,-66.66168,-67.17014,-69.07769,-71.41242,-73.07852,-73.41272,-72.44599,-70.73526,-68.91061,-67.26855,-65.69805,-63.97133,-62.14152,-60.68532,-60.20521,-60.85907,-61.95438,-62.10834,-60.01253,-55.38023,-49.43016,-44.47284,-42.72422,-45.0184,-50.2383,-55.88924,-59.52316,-60.15291,-58.76293,-57.58581,-58.609,-62.28122,-67.25211,-71.2862,-72.70902,-71.40112,-68.69273,-66.28963,-65.0347,-64.40628,-63.10315,-60.26316,-56.38242,-53.20219,-52.5777,-55.10983,-59.54549,-63.45138,-64.76937,-63.1984,-60.40237,-58.81013,-59.74451,-62.12505,-62.66749,-57.54869,-44.54911,-24.36552,-0.3152277,23.32934,43.30742,58.46807,69.48648,77.62526,83.54162,86.98347,87.48013,85.36931,82.25882,80.46001,81.71674,86.11192,91.95347,96.77879,98.83732,98.07253,95.96361,94.37071,94.20381,94.83764,94.65707,92.3223,87.84592,82.71734,78.98251,77.91567,79.19581,81.14304,81.83614,80.33727,77.1997,73.95018,71.94792,71.43381,71.42033,70.46794,67.77685,63.82206,60.09786,58.16348,58.65247,60.90677,63.44293,64.88636,64.71975,63.37019,61.65622,60.06443,58.40994,56.11218,52.83773,48.98064,45.57109,43.63329,43.43718,44.19602,44.47039,43.05174,39.75471,35.58965,32.18567,30.82034,31.65879,33.65772,35.16027,34.78803,32.09529,27.65247,22.60818,18.07444,14.71159,12.67552,11.81617,11.88251,12.56901,13.43698,13.88548,13.3149,11.44992,8.616131,5.740861,4.00551,4.305715,6.812119,10.87067,15.27632,18.74413,20.3263,19.61567,16.74422,12.29166,7.193702,2.627393,-0.2212587,-0.5438265,1.676801,5.484146,9.216178,11.20459,10.58715,7.767318,4.201283,1.578108,0.8514969,1.712699,2.848554,2.839969,1.133,-1.554135,-3.675722,-3.886715,-1.98782,0.8493525,2.758899,2.349021,-0.3876452,-4.027308,-6.590527,-6.799429,-4.914888,-2.604449,-1.902132,-3.898937,-7.980252,-12.08989,-13.86834,-11.9826,-6.865584,-0.4600653,4.834826,7.368341,6.915616,4.521691,1.719929,-0.3372724,-1.334061,-1.665456,-1.946957,-2.557377,-3.504907,-4.621646,-5.852464,-7.371701,-9.435938,-12.11084,-15.11574,-17.93497,-20.12994,-21.61906,-22.70599,-23.82203,-25.16997,-26.5441,-27.48326,-27.66702,-27.26866,-26.97941,-27.63263,-29.6413,-32.62199,-35.49084,-37.02594,-36.58138,-34.5172,-32.06429,-30.68312,-31.28839,-33.79553,-37.24931,-40.43756,-42.60317,-43.8207,-44.82726,-46.44304,-48.96865,-51.94858,-54.44914,-55.67069,-55.50503,-54.68373,-54.41614,-55.72547,-58.87033,-63.18424,-67.41899,-70.3896,-71.55939,-71.25444,-70.41702,-70.06169,-70.74271,-72.30862,-74.04505,-75.09724,-74.93483,-73.62627,-71.80869,-70.39357,-70.16166,-71.42883,-73.91474,-76.85418,-79.29877,-80.49149,-80.17152,-78.68652,-76.85345,-75.60651,-75.56937,-76.74469,-78.4827,-79.77124,-79.7261,-78.04034,-75.15077,-72.01708,-69.61982,-68.44936,-68.2745,-68.32541,-67.78291,-66.28003,-64.11013,-62.01337,-60.67498,-60.25232,-60.23357,-59.72503,-57.99403,-54.93311,-51.16178,-47.71119,-45.49525,-44.89051,-45.65546,-47.18586,-48.89088,-50.4278,-51.67458,-52.53916,-52.83175,-52.36402,-51.22786,-50.00853,-49.66673,-51.02581,-54.10284,-57.71157,-59.68394,-57.71788,-50.46204,-38.24736,-23.02502,-7.499269,6.096301,16.92504,25.69805,34.02565,43.39482,54.37395,66.45181,78.49813,89.46316,98.84393,106.6694,113.1188,118.1351,121.3611,122.4556,121.5389,119.4011,117.2636,116.2052,116.6161,118.0511,119.5961,120.5199,120.7862,121.0871,122.3743,125.1959,129.2758,133.6145,137.0491,138.9209,139.4328,139.4907,140.1462,141.9935,144.8759,148.0359,150.5681,151.8724,151.8569,150.8336,149.2468,147.4428,145.6046,143.8261,142.2054,140.8564,139.8437,139.1267,138.5984,138.2081,138.0629,138.3973,139.3947,140.9813,142.7649,144.2128,144.9846,145.1949,145.3886,146.191,147.8259,149.8228,151.1451,150.7128,148.0272,143.5173,138.3857,134.0401,131.4491,130.7942,131.5783,133.0505,134.6242,136.0214,137.1242,137.7516,137.6305,136.641,135.1362,133.9902,134.1557,135.867,137.9557,137.8115,132.2127,118.737,97.05421,69.3789,39.77676,12.6311,-8.964581,-24.10329,-33.88664,-40.409,-45.55573,-50.26797,-54.55123,-58.02172,-60.50557,-62.27855,-63.86564,-65.65083,-67.64995,-69.62354,-71.40838,-73.16057,-75.27182,-77.9895,-81.03551,-83.56997,-84.62884,-83.81775,-81.81137,-80.26469,-81.07633,-85.35505,-92.66498,-101.0154,-107.6649,-110.3627,-108.4004,-102.9456,-96.49983,-91.76134,-90.4487,-92.61841,-96.74071,-100.4355,-101.4977,-98.76942,-92.5327,-84.32893,-76.33129,-70.54034,-68.10085,-68.96671,-72.00497,-75.4748,-77.68744,-77.59531,-75.09457,-70.94893,-66.40266,-62.67537,-60.56027,-60.26887,-61.5257,-63.7956,-66.49128,-69.07027,-71.03919,-71.95802,-71.52627,-69.74297,-67.03282,-64.20346,-62.17834,-61.597,-62.4913,-64.2426,-65.88335,-66.60184,-66.16996,-65.03917,-64.03852,-63.85086,-64.58685,-65.72147,-66.43308,-66.12837,-64.81835,-63.10789,-61.81565,-61.48177,-62.08566,-63.14284,-64.08411,-64.63127,-64.9032,-65.20033,-65.66358,-66.09962,-66.1293,-65.54704,-64.58289,-63.80122,-63.64201,-63.92165,-63.71462,-61.82179,-57.61112,-51.68612,-45.8552,-42.28334,-42.26152,-45.3552,-49.53247,-52.28715,-52.11942,-49.45564,-46.39264,-45.37741,-47.62215,-52.25253,-56.74804,-58.42461,-56.0505,-50.60015,-44.69526,-41.10079,-41.21147,-44.42542,-48.70718,-51.89437,-52.88813,-52.02678,-50.53136,-49.51274,-49.25232,-49.19923,-48.59193,-47.19473,-45.61048,-44.97089,-46.24798,-49.66266,-54.55252,-59.72184,-63.99234,-66.61074,-67.34962,-66.38937,-64.18356,-61.41996,-59.00366,-57.89441,-58.7328,-61.41574,-64.93493,-67.70907,-68.33858,-66.38703,-62.69746,-58.98852,-56.91779,-57.15866,-59.05717,-61.08512,-61.8028,-60.72197,-58.5307,-56.56263,-55.88282,-56.59855,-57.83686,-58.38002,-57.52065,-55.56753,-53.67645,-53.12342,-54.48935,-57.26631,-60.11998,-61.63938,-61.12736,-58.9869,-56.50988,-55.20833,-56.05159,-58.98587,-62.94307,-66.30489,-67.59601,-66.10439,-62.1736,-57.05141,-52.35745,-49.39557,-48.61613,-49.48348,-50.82005,-51.45589,-50.83725,-49.25461,-47.56157,-46.55951,-46.43821,-46.63847,-46.23925,-44.62595,-41.99563,-39.34266,-37.90013,-38.37494,-40.46529,-42.97872,-44.48515,-44.09546,-41.88383,-38.71613,-35.63971,-33.26277,-31.52251,-29.94258,-28.12891,-26.1012,-24.20655,-22.69829,-21.33636,-19.37163,-16.00261,-11.03074,-5.248276,-0.2188757,2.5173,2.401892,0.4292238,-1.030005,0.8920076,8.392273,22.08576,40.73582,61.68364,81.73077,98.09302,109.0958,114.4417,115.0493,112.5862,108.8788,105.4079,103.0622,102.2204,103.0737,105.9526,111.399,119.8654,131.1868,144.1863,156.7737,166.6378,172.2469,173.608,172.3029,170.7098,170.8096,173.2501,177.1988,181.0356,183.4156,184.0251,183.5811,183.151,183.3147,183.7723,183.6522,182.2647,179.7262,176.9826,175.2049,174.9909,175.9532,177.0003,177.117,176.0929,174.6835,174.0933,175.152,177.7646,181.0123,183.8049,185.6026,186.6879,187.8154,189.529,191.6693,193.4452,194.0091,193.0986,191.2533,189.4345,188.3243,187.8335,187.2036,185.6562,183.1231,180.502,179.1908,180.161,183.1818,186.7513,188.8582,188.1585,184.8544,180.7046,178.0798,178.5306,181.6292,184.7297,183.8436,175.277,157.3019,131.0926,100.4628,70.46147,45.40238,27.20246,14.81755,5.092314,-5.348334,-18.11534,-32.0599,-43.88718,-50.1279,-49.39279,-43.56818,-37.1354,-34.87514,-39.23163,-48.91174,-59.63115,-66.64148,-67.55514,-63.75333,-59.50421,-59.33545,-65.29958,-75.83128,-86.86735,-94.44933,-97.10033,-96.47063,-95.93118,-98.15779,-103.3741,-109.4018,-113.3829,-113.8829,-111.8638,-109.8498,-109.923,-112.024,-113.8275,-112.3429,-106.1543,-96.72636,-87.81045,-83.27126,-84.73439,-90.58718,-96.97213,-100.1072,-98.4344,-93.27311,-87.6816,-84.38589,-84.15469,-85.58486,-86.26136,-84.3824,-79.75943,-73.66106,-67.806,-63.32301,-60.36947,-58.50986,-57.3829,-57.05288,-57.79168,-59.55419,-61.66531,-63.04547,-62.83608,-60.93776,-58.02483,-55.01183,-52.38924,-49.96038,-47.19749,-43.93129,-40.79146,-38.97261,-39.41236,-41.95587,-45.16414,-47.01385,-46.10667,-42.60796,-38.26194,-35.41514,-35.62786,-38.72699,-42.87368,-45.58187,-45.05471,-41.06351,-34.93093,-28.74018,-24.29963,-22.42652,-22.81939,-24.41872,-25.95171,-26.39336,-25.24036,-22.61554,-19.22286,-16.12142,-14.30226,-14.18083,-15.26469,-16.26476,-15.70808,-12.78294,-7.927444,-2.754151,0.7228664,1.151329,-1.422124,-5.577188,-9.282207,-10.92772,-10.03676,-7.308078,-4.085966,-1.66524,-0.8368758,-1.810455,-4.35632,-7.925567,-11.66586,-14.47765,-15.31035,-13.69772,-10.22984,-6.538156,-4.59991,-5.644329,-9.323527,-13.76861,-16.63619,-16.57189,-14.15287,-11.62613,-11.51794,-14.96367,-20.85408,-26.40773,-28.85172,-27.14394,-22.61472,-18.10344,-16.15454,-17.45314,-20.50567,-22.73125,-22.19776,-18.84363,-14.41901,-11.26518,-10.80956,-12.77861,-15.57435,-17.445,-17.58379,-16.43187,-15.0912,-14.38864,-14.31641,-14.21263,-13.44732,-12.01052,-10.52587,-9.709915,-9.75672,-10.18491,-10.29501,-9.863853,-9.47155,-10.11656,-12.3428,-15.54122,-18.03765,-18.0391,-14.8596,-9.569757,-4.545296,-2.125074,-3.219564,-6.782431,-10.50197,-12.25821,-11.38552,-8.927265,-6.765893,-6.270569,-7.405172,-8.884535,-9.220114,-7.884034,-5.761183,-4.575993,-5.697676,-9.146353,-13.46845,-16.55418,-16.8545,-14.23166,-9.961708,-5.969849,-3.824669,-4.075068,-6.20444,-9.066823,-11.44641,-12.4511,-11.682,-9.288097,-5.988945,-2.997495,-1.693137,-3.01693,-6.827931,-11.64893,-15.12804,-15.14114,-10.99528,-4.005023,3.009513,7.131194,6.90392,3.128741,-1.59856,-4.359486,-3.532378,0.3876797,5.217342,8.445072,8.660915,6.203323,2.705028,-0.08339942,-1.40334,-1.857075,-2.888512,-5.797768,-10.956,-17.68033,-24.75008,-31.13698,-36.44534,-40.83037,-44.56153,-47.63495,-49.7603,-50.73113,-50.87257,-51.17569,-52.93108,-57.02433,-63.31305,-70.49467,-76.60264,-79.90307,-79.73011,-76.82681,-73.02332,-70.42617,-70.522,-73.60979,-78.7839,-84.4162,-88.86909,-91.10608,-90.95895,-88.99507,-86.11295,-83.09507,-80.33335,-77.82732,-75.40401,-72.99265,-70.76874,-69.07025,-68.13696,-67.84769,-67.652,-66.78769,-64.69887,-61.42252,-57.6935,-54.65376,-53.27617,-53.79709,-55.48125,-56.88567,-56.5257,-53.61847,-48.52166,-42.63129,-37.78,-35.4314,-36.06486,-39.03671,-42.95444,-46.34683,-48.28566,-48.67193,-48.09407,-47.38763,-47.15604,-47.49752,-48.04457,-48.24996,-47.73656,-46.52162,-45.01486,-43.81636,-43.43361,-44.05818,-45.49484,-47.25571,-48.76368,-49.57635,-49.54617,-48.86008,-47.93952,-47.22451,-46.91184,-46.75393,-46.02828,-43.7363,-38.98816,-31.41913,-21.42972,-10.09583,1.247779,11.5643,20.52358,28.53233,36.35773,44.55656,53.0504,61.1143,67.79945,72.53683,75.53983,77.73423,80.23378,83.67088,87.79817,91.62055,93.99276,94.32687,92.98361,91.11523,90.06297,90.67545,92.94318,96.13184,99.28655,101.7739,103.5447,105.0078,106.6551,108.7056,110.9771,113.0214,114.3903,114.8581,114.5002,113.6437,112.7704,112.4262,113.1286,115.2328,118.7625,123.2845,127.9414,131.6878,133.6499,133.43,131.1914,127.4956,123.0189,118.3449,113.9433,110.2803,107.883,107.212,108.3692,110.8505,113.5911,115.3855,115.4962,114.083,112.1443,110.9506,111.2852,112.9585,114.9077,115.8274,114.938,112.4104,109.2041,106.4533,104.8203,104.2151,104.006,103.5073,102.3746,100.6633,98.58989,96.26024,93.61919,90.65342,87.6317,85.10436,83.5707,83.01944,82.71481,81.48106,78.39239,73.44524,67.73202,62.92276,60.31858,60.054,60.96554,61.23269,59.40369,55.17387,49.4549,43.7411,39.22331,36.22612,34.27897,32.6772,31.06998,29.64174,28.79305,28.61384,28.59366,27.82434,25.5699,21.79044,17.22731,12.96779,9.783001,7.696097,6.072119,4.14555,1.592042,-1.272777,-3.803758,-5.6057,-6.940269,-8.640161,-11.56665,-15.98205,-21.28343,-26.30173,-29.98311,-32.00575,-32.92897,-33.78719,-35.40928,-37.91172,-40.67772,-42.79808,-43.65384,-43.25965,-42.18682,-41.18467,-40.80296,-41.26357,-42.60043,-44.86603,-48.16546,-52.44817,-57.22855,-61.5206,-64.15385,-64.3567,-62.25407,-58.91687,-55.85916,-54.2428,-54.27172,-55.16702,-55.75193,-55.27283,-53.91237,-52.64376,-52.51373,-53.83833,-55.87606,-57.23771,-56.79357,-54.48069,-51.44629,-49.38596,-49.47565,-51.59217,-54.35636,-56.00332,-55.52949,-53.35912,-51.06842,-50.32297,-51.72074,-54.32169,-56.21167,-55.76253,-52.76692,-48.67504,-45.73012,-45.52677,-47.9227,-51.03946,-52.40149,-50.5231,-45.93965,-41.00666,-38.55604,-40.21699,-45.42449,-51.71457,-56.11789,-56.8056,-54.01991,-49.78791,-46.66079,-46.27136,-48.54361,-51.93285,-54.44388,-54.76212,-52.85825,-49.81933,-47.13117,-45.89755,-46.41383,-48.22261,-50.48738,-52.40252,-53.43899,-53.39452,-52.33682,-50.53408,-48.39772,-46.40509,-44.97762,-44.34475,-44.46164,-45.0289,-45.59919,-45.70798,-44.97283,-43.15543,-40.21689,-36.37654,-32.12615,-28.12077,-24.92246,-22.69484,-21.04207,-19.15248,-16.23034,-11.98353,-6.845783,-1.746447,2.461888,5.548512,8.032134,10.76667,14.24643,18.12421,21.32409,22.72774,21.99013,19.90884,18.04812,17.82994,19.68979,22.87036,25.99011,27.98106,28.73116,28.98837,29.63146,30.88514,32.0988,32.27767,30.96622,28.78478,27.15139,27.33228,29.50101,32.53338,34.75454,35.14504,34.12983,33.3307,34.40181,37.76269,42.16876,45.49176,46.20402,44.51038,42.27234,41.71315,43.78792,47.39588,50.05817,49.64993,45.98946,41.13264,38.09429,38.82747,42.84804,47.48509,49.62696,47.7897,43.09234,38.46775,36.65353,38.35194,41.82321,44.17387,43.4182,39.86014,35.83075,33.97957,35.33673,38.52548,40.6993,39.57137,35.13568,29.87978,27.31113,29.75658,36.87159,45.80612,52.87188,55.59692,53.867,49.52244,44.81346,40.81168,36.80039,30.9331,21.59975,8.545187,-6.941463,-22.76139,-37.06625,-48.93461,-58.33719,-65.60781,-70.93755,-74.28432,-75.68555,-75.61718,-75.01778,-74.88879,-75.74243,-77.31319,-78.76782,-79.28918,-78.6428,-77.35668,-76.42307,-76.75143,-78.73312,-82.14592,-86.36097,-90.62891,-94.2471,-96.5926,-97.16507,-95.76794,-92.7737,-89.23562,-86.6133,-86.11668,-87.99179,-91.21777,-93.90607,-94.26478,-91.59266,-86.68948,-81.39895,-77.54426,-75.91261,-75.91864,-76.13143,-75.28168,-73.05998,-70.18516,-67.74419,-66.31705,-65.53886,-64.41994,-62.17835,-58.94722,-55.79061,-53.95906,-53.89014,-54.69334,-54.56379,-51.92928,-46.58907,-40.04479,-34.72258,-32.52378,-33.6213,-36.30177,-37.99444,-36.85431,-32.89041,-27.91117,-24.32013,-23.53986,-25.08132,-26.85309,-26.49978,-22.89966,-16.86438,-10.61441,-6.39406,-5.122999,-5.922035,-6.762052,-5.767317,-2.32476,2.668113,7.49366,10.72693,12.03925,12.22958,12.55765,13.88657,16.20245,18.76637,20.71475,21.66194,21.9214,22.2656,23.44981,25.82843,29.25844,33.25274,37.20299,40.52605,42.7336,43.52774,42.98355,41.72791,40.91069,41.82347,45.25294,50.90481,57.29834,62.31555,64.19732,62.46128,58.20081,53.55389,50.6157,50.40457,52.45996,55.26656,57.20516,57.4397,56.2352,54.59134,53.50426,53.36121,53.82409,54.19681,53.95454,53.0492,51.81185,50.583,49.38765,47.91143,45.789,42.97446,39.90238,37.30373,35.79206,35.49717,35.98548,36.50533,36.38312,35.31987,33.43748,31.10807,28.72647,26.5719,24.78701,23.39551,22.27993,21.13904,19.53597,17.1237,13.98197,10.83424,8.893763,9.285571,12.3058,16.98824,21.35762,23.35897,21.98863,17.93624,13.27189,10.28419,10.14159,12.22014,14.56242,15.21186,13.56962,10.86072,9.349307,10.77212,15.01699,19.96672,22.6957,21.31064,16.26267,10.25176,6.726792,7.887478,13.42482,20.77139,26.67284,29.0646,28.08008,25.61936,23.858,23.74187,24.46733,24.24225,21.75252,17.30298,12.8498,10.89648,12.97327,18.66677,25.78407,31.50711,33.81168,32.34212,28.34654,23.8648,20.73356,19.93607,21.48821,24.70361,28.55448,31.96027,34.02088,34.26978,32.90981,30.84903,29.36285,29.43387,31.11269,33.35135,34.53355,33.46508,30.20678,26.14131,23.1206,22.17662,22.6527,22.4253,19.20473,12.15584,2.779112,-5.617998,-9.658109,-7.83942,-1.494419,5.868371,10.48647,10.39514,6.395235,1.396099,-1.415802,-0.4471833,3.48962,7.815149,9.769895,7.928079,2.76756,-3.906879,-10.17097,-14.99383,-18.4803,-21.34994,-24.15486,-26.82961,-28.84063,-29.73343,-29.60556,-29.13246,-29.13748,-30.04036,-31.59547,-33.10004,-33.90215,-33.82697,-33.21638,-32.5737,-32.09951,-31.48204,-30.11723,-27.61669,-24.24442,-20.95372,-18.95461,-19.04939,-21.13231,-24.15889,-26.61998,-27.27335,-25.75464,-22.76658,-19.76666,-18.31021,-19.34706,-22.77292,-27.42378,-31.52671,-33.44157,-32.3961,-28.885,-24.50788,-21.25691,-20.54608,-22.45973,-25.65083,-28.01674,-27.84936,-24.84123,-20.34479,-16.66693,-15.74393,-17.94864,-21.76165,-24.56101,-24.11687,-19.92151,-13.545,-7.770172,-4.99863,-5.873895,-8.946679,-11.57452,-11.49377,-8.099978,-2.674453,2.530444,5.721801,6.58896,6.29511,6.504959,8.140904,10.71497,12.67697,12.53129,9.961779,6.202978,3.395074,3.326546,6.361153,11.21997,15.73658,18.09713,17.80097,15.79574,13.78162,13.18274,14.4309,16.93699,19.64922,21.74504,22.9922,23.61465,23.87317,23.74908,22.99366,21.48809,19.59595,18.17754,18.18203,20.05704,23.37924,26.99036,29.59519,30.46675,29.82005,28.62163,27.95903,28.37112,29.5537,30.60674,30.64225,29.35365,27.19008,25.04646,23.69018,23.30338,23.4286,23.33829,22.57621,21.31623,20.30378,20.41074,22.07379,24.95948,28.06407,30.20064,30.60104,29.29646,27.06858,25.00698,23.92571,23.96144,24.56283,24.85432,24.14889,22.31293,19.78778,17.28341,15.35098,14.09926,13.21289,12.23041,10.87567,9.213773,7.535126,6.06756,4.742626,3.208314,1.104744,-1.579072,-4.331791,-6.293788,-6.71879,-5.459734,-3.172982,-1.0885,-0.4509192,-1.934284,-5.347575,-9.77348,-14.03433,-17.21302,-18.96512,-19.51524,-19.41858,-19.26777,-19.49221,-20.28877,-21.63334,-23.31466,-24.98449,-26.26059,-26.89399,-26.93517,-26.77833,-27.00171,-28.0517,-29.95174,-32.24177,-34.22614,-35.39816,-35.76714,-35.85435,-36.34031,-37.59294,-39.40476,-41.13234,-42.14752,-42.27863,-41.91824,-41.71384,-42.07321,-42.86716,-43.576,-43.78531,-43.64463,-43.89067,-45.34327,-48.19939,-51.66556,-54.29129,-54.88271,-53.41585,-51.27899,-50.56291,-52.75859,-57.68037,-63.36742,-67.12648,-67.12962,-63.57337,-58.63529,-55.21002,-55.19134,-58.37275,-62.65274,-65.39848,-65.08523,-62.17136,-58.68618,-56.85121,-57.66438,-60.3592,-63.03923,-64.0073,-62.88135,-60.7794,-59.50942,-60.356,-63.27932,-67.01131,-69.9072,-70.93047,-70.12679,-68.35567,-66.57523,-65.24235,-64.23006,-63.23245,-62.25696,-61.76698,-62.34028,-64.10606,-66.40822,-67.97819,-67.51957,-64.30216,-58.36729,-50.25161,-40.50502,-29.4214,-17.20447,-4.40554,7.800191,17.85633,24.55611,27.80871,28.86605,29.73978,32.08765,36.25764,41.13522,44.93722,46.45948,45.95259,45.0232,45.60351,48.66993,53.57777,58.4728,61.50864,62.04368,61.00145,60.15549,60.84968,63.0637,65.49522,66.61131,65.92078,64.53226,64.53879,67.5899,73.61369,80.60132,85.68173,86.84406,84.2045,79.98182,77.17711,77.7928,81.71764,86.95373,90.97963,92.31914,91.29763,89.55389,88.72375,89.24298,90.08794,89.59294,86.73798,81.9953,77.15182,74.2369,74.28281,76.72839,79.8131,81.64301,81.20405,78.71062,75.19283,71.75558,69.11004,67.68799,68.1391,71.67344,79.80032,93.47246,112.1369,133.3638,153.4321,168.6808,176.9542,178.3931,175.1799,170.4119,166.7043,165.1783,165.2141,164.929,162.0474,154.7668,142.3441,125.2926,105.1933,84.18795,64.28259,46.68659,31.47058,17.75192,4.37769,-9.227514,-22.54285,-34.12371,-42.42804,-46.82463,-48.13887,-48.33563,-49.47886,-52.59811,-57.19295,-61.71704,-64.74149,-66.02738,-66.77348,-68.84245,-73.46138,-80.26593,-87.35143,-92.3308,-93.72637,-91.79498,-88.2653,-85.19234,-83.71376,-83.5294,-83.40347,-82.2746,-80.15136,-78.14892,-77.65028,-79.20835,-81.99231,-84.19849,-84.16333,-81.42003,-76.97674,-72.63411,-69.81949,-68.73473,-68.37736,-67.37975,-65.05347,-61.91169,-59.33346,-58.6391,-60.23441,-63.395,-66.7855,-69.29945,-70.62674,-71.20876,-71.71574,-72.50967,-73.50565,-74.47461,-75.44653,-76.78651,-78.80008,-81.15847,-82.66778,-81.72403,-77.3007,-69.85737,-61.49428,-55.09931,-52.88519,-55.15982,-60.0913,-64.65074,-66.20388,-63.83461,-58.66621,-53.06932,-49.3019,-48.40306,-49.91787,-52.46228,-54.64046,-55.70367,-55.62384,-54.6999,-53.10146,-50.71045,-47.32603,-43.00043,-38.1932,-33.60487,-29.81774,-27.01727,-24.98689,-23.34208,-21.78723,-20.18746,-18.43324,-16.27766,-13.36917,-9.537454,-5.142227,-1.16799,1.130315,0.9156994,-1.606919,-5.06854,-7.486004,-7.237862,-3.923347,1.406365,6.801823,10.44926,11.60018,10.88305,9.854661,10.08436,12.30276,16.06442,20.05052,22.7833,23.34317,21.74095,18.82582,15.84713,13.91383,13.58191,14.69972,16.53023,18.08591,18.55656,17.67369,15.85213,14.01087,13.11155,13.61374,15.13781,16.56232,16.56786,14.37642,10.2861,5.673599,2.41067,1.966916,4.657063,9.425708,14.28337,17.17756,16.88167,13.50587,8.437703,3.776489,1.510359,2.744246,7.243675,13.45807,19.05365,21.82009,20.63855,16.08648,10.3151,6.122297,5.56829,8.820512,13.91749,17.72071,17.65067,13.26667,6.718939,1.679814,1.258962,6.090864,13.78578,20.18595,21.77711,17.84028,11.0028,5.768329,5.839598,11.82914,20.77095,27.77915,28.89169,23.39973,14.26295,6.369791,3.702904,7.110336,13.9787,19.92649,21.42766,17.77565,11.28131,5.717812,4.065242,6.936217,12.53523,18.00601,21.20497,21.78869,21.04895,20.76464,21.91777,24.10633,25.9516,26.13284,24.31928,21.40587,18.95496,18.25272,19.58764,22.16196,24.62098,25.81997,25.35777,23.60902,21.32153,19.09303,17.06664,15.00376,12.63985,10.05989,7.832241,6.794666,7.59483,10.23669,13.8982,17.16021,18.5804,17.359,13.7674,9.097903,5.114408,3.242401,3.894089,6.28525,8.860835,10.12314,9.425957,7.301282,5.136442,4.383993,5.755193,8.855908,12.4617,15.24966,16.53804,16.59309,16.33892,16.67815,17.86524,19.32933,20.05064,19.24311,16.90628,13.89704,11.47355,10.58946,11.36298,13.0311,14.4032,14.53727,13.24715,11.1667,9.360876,8.720069,9.467572,11.01711,12.21576,11.82133,8.986325,3.564389,-3.834077,-12.01006,-19.48854,-24.89019,-27.28063,-26.4142,-22.79191,-17.48994,-11.79634,-6.787888,-3.028528,-0.5259888,1.046898,2.008187,2.413941,2.053686,0.6896951,-1.629871,-4.416019,-6.8818,-8.329555,-8.556253,-8.015978,-7.612977,-8.224082,-10.22236,-13.28224,-16.57794,-19.2493,-20.84911,-21.50945,-21.75009,-22.08034,-22.66649,-23.27684,-23.51869,-23.18494,-22.46058,-21.84664,-21.85933,-22.7207,-24.26011,-26.09755,-27.97778,-30.01487,-32.65825,-36.37994,-41.27289,-46.82536,-52.03617,-55.83294,-57.57076,-57.34109,-55.92825,-54.44527,-53.84346,-54.53316,-56.27302,-58.34087,-59.87888,-60.25655,-59.31738,-57.43229,-55.3432,-53.83558,-53.33525,-53.57688,-53.50776,-51.53235,-46.06553,-36.19646,-22.16564,-5.4041,11.92129,27.66236,40.38947,49.71355,56.12281,60.49709,63.62269,65.97788,67.83834,69.51527,71.45606,74.06741,77.37005,80.77696,83.25148,83.85352,82.37959,79.66788,77.2936,76.7504,78.56933,81.92011,84.98834,85.95803,84.04733,79.98822,75.66195,73.10109,73.43853,76.39275,80.53445,84.10966,85.89942,85.64612,83.90652,81.55833,79.345,77.71317,76.9129,77.12403,78.40208,80.46092,82.53003,83.53668,82.632,79.76782,75.89721,72.55646,71.00172,71.42986,72.83364,73.6617,72.90368,70.87912,69.14322,69.48417,72.61954,77.4638,81.52491,82.26723,78.62113,71.67348,64.06538,58.44586,55.94724,55.64082,55.29684,52.92472,48.07267,42.04824,36.95698,34.24439,33.73846,33.82254,32.58583,29.13983,24.20075,19.56458,16.86818,16.50245,17.40735,17.84587,16.5793,13.61857,10.06272,7.198503,5.546596,4.542935,3.054506,0.3132143,-3.443627,-7.107382,-9.510493,-10.32131,-10.36508,-11.12942,-13.79719,-18.47888,-24.16199,-29.37853,-33.09587,-35.21552,-36.3894,-37.3766,-38.47839,-39.47764,-40.07442,-40.39672,-41.10331,-42.9332,-46.03337,-49.62831,-52.38022,-53.26502,-52.35063,-50.86304,-50.40326,-51.8088,-54.47081,-56.65718,-56.70026,-54.26299,-50.77486,-48.65326,-49.76076,-54.11683,-59.76492,-63.94339,-64.82063,-62.64508,-59.5301,-58.00624,-59.31287,-62.58633,-65.49686,-65.89725,-63.35134,-59.48772,-56.9264,-57.50374,-61.00395,-65.26266,-67.57635,-66.4686,-62.63242,-58.43722,-56.36266,-57.43058,-60.67482,-63.95389,-65.49229,-65.06339,-64.0141,-64.16206,-66.3825,-69.9037,-72.81618,-73.4414,-71.59949,-68.87914,-67.69405,-69.73719,-74.85169,-81.05699,-85.70351,-86.99995,-84.94689,-81.1373,-77.63837,-75.7381,-75.35958,-75.43916,-74.90188,-73.50258,-71.95823,-71.33345,-72.16792,-73.99034,-75.56461,-75.68874,-73.98846,-71.1657,-68.54616,-67.24124,-67.47888,-68.51864,-69.16737,-68.53259,-66.53455,-63.89701,-61.68506,-60.71929,-61.2108,-62.76467,-64.65292,-66.13586,-66.66443,-65.9452,-63.95299,-60.95782,-57.53193,-54.43569,-52.33423,-51.44545,-51.34365,-51.11268,-49.84123,-47.20074,-43.7299,-40.58522,-38.84621,-38.78319,-39.5738,-39.71091,-37.90784,-33.95773,-28.98315,-24.86264,-23.13659,-24.04778,-26.32262,-27.85913,-26.92654,-23.15352,-17.7054,-12.55188,-9.291507,-8.266238,-8.499487,-8.455338,-7.094322,-4.529019,-1.867999,-0.3835067,-0.5844852,-1.826503,-2.717694,-2.037628,0.4596224,3.906097,6.94042,8.667535,9.303596,10.05917,12.32313,16.67971,22.40984,27.81524,31.17055,31.70429,29.99755,27.5685,25.92608,25.69323,26.32569,26.55583,25.24322,22.09847,17.87786,14.0012,11.87716,12.32678,15.3527,20.2539,25.91972,31.14009,34.88074,36.54979,36.24261,34.8374,33.76889,34.435,37.45203,42.18193,46.91027,49.71185,49.58426,47.16783,44.532,44.04818,46.97024,52.59848,58.60286,62.3733,62.59286,60.04459,57.11889,56.31372,58.68141,63.22633,67.64354,69.9046,69.62778,68.30733,68.23943,70.86641,75.67003,80.39287,82.48067,80.80626,76.52303,72.45035,71.35591,74.22855,79.64852,84.65105,86.51836,84.35696,79.49246,74.50651,71.61226,71.44111,72.97138,74.52905,75.08849,74.96062,75.44099,77.73811,81.98655,87.04776,91.21022,93.2524,93.08586,91.51916,89.33539,86.39362,81.47211,73.05873,60.60758,45.39686,30.31696,18.58084,12.05684,10.21676,10.36971,9.104552,4.145299,-4.430086,-14.29662,-22.24699,-26.03675,-25.67488,-23.44933,-22.68715,-25.93789,-33.56658,-43.50114,-52.25032,-56.63573,-55.32333,-49.37122,-41.55131,-34.85654,-31.02447,-29.86926,-29.74163,-28.79191,-26.25513,-22.97594,-20.85115,-21.53217,-25.20092,-30.21776,-33.9258,-34.17848,-30.6776,-25.27743,-21.01317,-20.38908,-23.93454,-29.89364,-35.23272,-37.34765,-35.43615,-30.73418,-25.54882,-21.77562,-19.87737,-18.94221,-17.68377,-15.60979,-13.49884,-12.83977,-14.64353,-18.50008,-22.59665,-24.73903,-23.69858,-19.9526,-15.29158,-11.55656,-9.392908,-7.909588,-5.495615,-1.205444,4.317238,9.113593,11.26465,10.3903,8.167086,7.364335,9.940248,15.47977,21.14069,23.31812,20.05143,12.59158,4.985385,1.783772,5.244329,13.81773,22.95878,27.83073,26.22896,19.86925,13.2156,10.61033,13.57399,20.02412,25.88608,27.97383,26.17134,23.42066,23.51797,28.2311,35.75693,41.66882,41.82404,35.32771,25.52326,18.2178,18.16302,26.00428,37.68234,46.74422,48.17248,41.3678,30.44951,21.72542,19.93892,25.61002,35.02588,42.73516,44.87002,41.22092,34.91109,30.09862,29.32325,32.18359,36.01919,37.92361,36.63334,33.0851,29.45134,27.49906,27.47257,28.19677,28.16613,26.71399,24.3999,22.4164,21.57025,21.67234,21.79656,21.15518,19.84609,18.83075,19.1182,20.78135,22.61291,22.78222,20.10151,15.00795,9.506903,6.026991,5.914811,8.586211,11.92793,13.69232,12.94132,10.55981,8.501953,8.311854,9.958781,11.80329,11.7218,8.615097,3.263922,-2.055458,-4.940348,-4.307868,-0.9839274,2.903214,5.271009,5.268692,3.571665,1.694187,0.8754224,1.312174,2.194168,2.410054,1.359215,-0.6925551,-2.888913,-4.406759,-4.946836,-4.780123,-4.409097,-4.172601,-4.101921,-4.075134,-4.053153,-4.135016,-4.370336,-4.530307,-4.125533,-2.771322,-0.6773366,1.153769,1.302856,-1.228598,-6.225404,-12.08628,-16.50513,-17.67935,-15.32503,-10.84328,-6.494822,-4.076047,-3.923969,-4.873074,-5.170746,-3.734275,-0.9179367,1.706019,2.390785,0.3817918,-3.558775,-7.594827,-9.91111,-9.735686,-7.65035,-5.049548,-3.172688,-2.382453,-2.143511,-1.642599,-0.5476578,0.6689693,1.08406,0.09801435,-1.936496,-3.71198,-3.650198,-0.8667657,4.18994,9.838964,13.96517,15.05676,12.90016,8.580868,3.85861,0.3207992,-1.218937,-0.8275837,0.8621475,3.098457,5.30621,7.133123,8.352068,8.801711,8.459351,7.576371,6.707773,6.51933,7.424767,9.266216,11.27422,12.39559,11.8425,9.551419,6.262583,3.142744,1.14927,0.5014588,0.5731924,0.2742371,-1.306025,-4.377069,-8.355869,-12.24802,-15.25413,-17.2235,-18.68527,-20.46426,-23.15219,-26.7854,-30.92382,-35.04309,-38.93448,-42.80785,-47.01516,-51.60191,-56.04411,-59.42036,-60.96228,-60.62938,-59.28542,-58.28316,-58.66019,-60.44397,-62.54478,-63.3647,-61.78476,-57.91852,-53.13682,-49.31831,-47.77835,-48.54551,-50.43688,-51.86812,-51.85977,-50.58603,-49.13284,-48.67176,-49.6436,-51.51825,-53.27467,-54.22795,-54.58137,-55.2818,-57.26497,-60.63395,-64.38834,-66.95014,-67.16879,-65.12757,-62.18043,-60.15745,-60.24438,-62.27091,-64.87295,-66.40769,-66.00059,-64.03345,-61.78367,-60.51187,-60.65519,-61.67447,-62.61187,-62.90332,-62.8232,-63.23115,-64.82346,-67.47094,-70.17155,-71.69457,-71.47122,-70.07768,-68.92274,-69.31136,-71.51256,-74.48309,-76.46175,-76.05404,-73.08741,-68.67324,-64.45236,-61.55104,-59.95147,-58.67151,-56.57794,-53.23083,-49.16687,-45.45494,-42.8828,-41.38165,-40.09649,-38.02349,-34.72103,-30.56479,-26.37593,-22.73483,-19.53351,-16.13468,-12.02648,-7.450963,-3.460918,-1.266069,-1.283014,-2.592813,-3.294065,-1.633447,2.790102,8.590188,13.3219,15.00408,13.48676,10.73903,9.779627,12.84741,19.9405,28.67537,35.6162,38.30022,36.72523,33.37737,31.76911,34.37239,41.19295,49.81954,56.86562,59.88554,58.60905,54.82386,51.10623,49.28748,49.6227,51.08307,52.41895,53.1608,53.84675,55.37582,58.0434,61.05365,62.95414,62.74516,60.87035,59.29641,60.46721,65.70044,74.05058,82.45594,87.21867,86.01177,79.22426,69.81034,61.69868,57.68998,58.07654,60.76325,62.74464,61.98106,58.52264,54.25461,51.52654,51.60452,53.93141,56.59768,57.62191,56.14695,52.78067,48.93432,45.69531,43.05574,40.02705,35.52834,29.39154,22.75013,17.5098,15.23229,16.16279,19.0338,21.76283,22.58703,20.92546,17.4815,13.6166,10.48038,8.473171,7.316304,6.551884,6.016807,5.916433,6.475766,7.493823,8.209202,7.646019,5.233296,1.259467,-3.187918,-6.800269,-8.787153,-9.303269,-9.296378,-9.891141,-11.71655,-14.59258,-17.72762,-20.23761,-21.61855,-21.89065,-21.39908,-20.49222,-19.34189,-18.0089,-16.6392,-15.57519,-15.25463,-15.96394,-17.64633,-19.92894,-22.35484,-24.63628,-26.72663,-28.66244,-30.32994,-31.39015,-31.47436,-30.52332,-28.98257,-27.63209,-27.09923,-27.38318,-27.77798,-27.33576,-25.6104,-23.15562,-21.34606,-21.52678,-23.99584,-27.52627,-29.85449,-28.94512,-24.28784,-17.3815,-11.02349,-7.774612,-8.523416,-12.04657,-15.84632,-17.7306,-17.12097,-15.25363,-14.16921,-15.18883,-17.91326,-20.42854,-20.5889,-17.51611,-12.29657,-7.380829,-5.050875,-5.945575,-8.609421,-10.36991,-8.990123,-4.04851,2.815641,8.916389,12.12455,12.04696,10.08463,8.415114,8.616462,10.81886,13.85867,16.22119,17.06689,16.65284,15.94106,15.76867,16.23115,16.72347,16.56409,15.68258,14.80631,14.96588,16.66857,19.37204,21.70579,22.3544,21.00919,18.69106,17.14562,17.65859,20.08388,22.79194,23.65433,21.46786,16.87448,12.11505,9.706186,10.8608,14.68667,18.724,20.51299,19.18632,16.03212,13.62772,14.0843,17.55173,21.99108,24.40864,22.78118,17.42676,10.9117,6.523814,6.274325,9.702234,14.23763,16.87126,16.03827,12.50283,8.701993,7.021536,8.164542,10.68754,11.98841,10.06865,4.8958,-1.522843,-6.382949,-7.81267,-5.967788,-2.818098,-0.8177461,-1.356596,-3.981025,-6.819617,-7.848944,-6.12168,-2.173807,2.57312,6.921972,10.72817,14.90042,20.62306,28.37271,37.40786,46.06147,52.6216,56.22143,57.19576,56.74211,56.16727,56.21724,56.8645,57.58791,57.87231,57.57259,56.94632,56.41294,56.26307,56.52108,57.01289,57.53631,57.9882,58.37505,58.74527,59.13421,59.57538,60.14929,60.9944,62.23541,63.86561,65.67951,67.3335,68.52348,69.17402,69.50793,69.93156,70.78839,72.12421,73.61002,74.68333,74.84532,73.96252,72.41117,70.9748,70.52242,71.60545,74.16669,77.52377,80.67451,82.80731,83.7649,84.18615,85.18671,87.69176,91.77285,96.40751,99.88977,100.7452,98.65466,94.80862,91.39087,90.4083,92.52225,96.60561,100.3568,101.6599,99.88809,96.33564,93.4761,93.46956,96.82672,102.0544,106.4983,107.8493,105.3767,100.1465,94.15032,88.95938,84.78109,80.48,74.46328,65.77964,54.69864,42.44869,30.38151,19.1847,8.657689,-1.884962,-12.96531,-24.5514,-36.16394,-47.30338,-57.78436,-67.68397,-76.97282,-85.19943,-91.58168,-95.52554,-97.20216,-97.69231,-98.48077,-100.5702,-103.8205,-107.0236,-108.7344,-108.325,-106.5241,-105.0248,-105.3775,-107.908,-111.4146,-113.8866,-113.7867,-111.0453,-107.0986,-103.9456,-102.8627,-103.6283,-104.7546,-104.5384,-102.2109,-98.44101,-94.90815,-93.27803,-94.25512,-97.25932,-100.8165,-103.316,-103.6595,-101.5316,-97.33809,-92.01891,-86.8634,-83.26836,-82.32455,-84.28253,-88.20062,-92.1448,-94.0424,-92.81479,-89.08681,-84.90793,-82.52077,-82.9015,-85.05994,-86.66277,-85.65208,-81.78051,-76.94088,-73.94169,-74.47837,-77.70425,-80.49668,-79.38914,-72.94633,-62.94991,-53.48308,-48.40942,-48.87931,-52.55061,-55.09679,-53.03209,-45.97319,-36.82804,-29.81339,-27.68216,-30.05655,-33.95531,-36.04879,-34.97916,-32.09208,-30.12227,-30.88361,-33.7356,-36.00517,-35.06936,-30.53604,-24.84147,-21.72502,-23.61951,-29.84895,-36.99773,-41.26114,-41.12212,-38.4082,-36.91404,-39.53912,-46.01156,-52.90583,-56.03459,-53.5507,-47.50433,-42.62879,-43.08814,-49.42618,-57.91311,-62.87558,-60.5148,-51.62402,-41.30001,-35.76096,-38.35402,-47.40116,-57.30021,-62.11645,-59.26386,-50.88533,-42.15226,-37.777,-39.14315,-43.89011,-48.0061,-48.77086,-46.4309,-43.54194,-42.65917,-44.22022,-46.2345,-45.97912,-42.3708,-37.15874,-33.9456,-35.6543,-42.24533,-50.37945,-55.38164,-54.2364,-47.58663,-39.3582,-34.24222,-34.7177,-39.59194,-44.98358,-47.01664,-44.37205,-39.00475,-34.63088,-34.10372,-37.4959,-42.14851,-44.56418,-42.78518,-37.63777,-32.06842,-29.11782,-29.95772,-33.28306,-36.36027,-36.90591,-34.48102,-30.52433,-27.14567,-25.63564,-25.75382,-26.21453,-25.89883,-24.82832,-24.16838,-25.28155,-28.56229,-32.94202,-36.46051,-37.52509,-35.97927,-33.22953,-31.33122,-31.65209,-34.014,-36.8763,-38.41134,-37.72721,-35.41586,-33.08171,-32.20046,-33.09731,-34.73241,-35.42447,-34.01345,-30.68137,-26.88785,-24.46598,-24.46728,-26.4953,-28.94111,-29.95688,-28.54989,-25.12827,-21.19436,-18.4152,-17.66295,-18.59771,-19.99668,-20.5661,-19.70023,-17.73082,-15.56779,-14.0247,-13.30012,-12.94587,-12.30341,-11.06818,-9.562195,-8.507041,-8.448356,-9.244304,-10.01255,-9.633442,-7.52001,-4.147137,-0.9398145,0.4940454,-0.6254808,-3.60149,-6.401797,-6.566224,-2.397555,6.223584,17.84664,30.2529,41.57568,51.11108,59.41329,67.70705,77.02961,87.61122,98.79266,109.4235,118.427,125.1982,129.6885,132.2607,133.5028,134.1192,134.8709,136.4562,139.2847,143.2458,147.6678,151.595,154.2992,155.739,156.6528,158.1679,161.1212,165.4973,170.3513,174.2872,176.2194,175.9631,174.3131,172.593,171.972,172.9507,175.2577,178.1163,180.6358,182.0851,181.981,180.0949,176.5165,171.7775,166.8848,163.0877,161.3799,161.977,164.1272,166.459,167.7235,167.487,166.3061,165.2389,165.0089,165.4114,165.4221,163.9855,160.9483,157.4441,155.3627,156.1704,159.8421,164.6629,168.1221,168.3873,165.4265,161.0291,157.6876,157.0481,158.9375,161.5922,162.9187,161.9256,159.3661,157.1757,157.1125,159.5429,163.2025,166.0768,166.7735,165.4212,163.4564,162.4274,162.6152,162.4041,158.8488,149.1145,131.9322,108.2412,80.73244,52.66863,26.70786,4.315574,-14.12716,-28.8504,-40.30173,-49.04524,-55.8272,-61.52827,-66.86552,-72.00637,-76.43669,-79.30623,-80.12096,-79.33309,-78.36131,-78.91423,-81.97292,-87.07491,-92.41021,-95.75076,-95.70248,-92.54279,-88.14082,-84.99996,-84.97093,-88.34737,-93.80096,-99.12354,-102.3281,-102.5374,-100.2782,-97.13385,-94.99335,-95.24249,-98.20518,-103.0185,-107.9863,-111.3049,-111.8984,-109.9891,-107.0674,-105.1666,-105.7405,-108.7449,-112.5236,-114.6902,-113.5814,-109.4115,-104.3285,-101.1962,-101.7567,-105.3284,-108.9712,-109.1784,-104.1413,-95.16208,-86.21252,-81.76036,-84.11086,-91.90381,-100.7628,-105.7807,-104.3647,-97.70444,-89.96102,-85.68317,-87.05648,-92.67663,-98.56353,-100.7261,-97.64143,-91.11628,-85.0546,-82.97363,-85.84888,-91.594,-96.41103,-97.09167,-92.83221,-85.52274,-78.47147,-74.46124,-74.33784,-76.87157,-79.78065,-81.12791,-80.20522,-77.48709,-73.89692,-70.02953,-65.88432,-61.20539,-56.05792,-51.12033,-47.41984,-45.68061,-45.76147,-46.61651,-46.85367,-45.5473,-42.77256,-39.50187,-36.92036,-35.6022,-35.0863,-34.1352,-31.52005,-26.83319,-20.80811,-14.93844,-10.63249,-8.433783,-7.791183,-7.507246,-6.558085,-4.745022,-2.758603,-1.630773,-1.9608,-3.450866,-5.07409,-5.760687,-5.122302,-3.6965,-2.520307,-2.319036,-2.892718,-3.176827,-1.997226,0.9676672,4.703284,7.268,6.920621,3.276178,-2.282173,-7.269615,-9.48887,-8.297049,-4.952501,-1.815539,-0.9054521,-2.722961,-6.062426,-8.886521,-9.65466,-8.235868,-5.85809,-4.211984,-4.374424,-6.280123,-9.029818,-11.71484,-14.09778,-16.64915,-19.95987,-24.03453,-28.05654,-30.84628,-31.6877,-30.89415,-29.65528,-29.2362,-30.09654,-31.58494,-32.46532,-31.92369,-30.33241,-29.19101,-30.23324,-34.2857,-40.65797,-47.49327,-52.85378,-55.81842,-56.87832,-57.41517,-58.67933,-61.00092,-63.7555,-66.03554,-67.47093,-68.56198,-70.2801,-73.25568,-77.18658,-80.93607,-83.27087,-83.70735,-82.8433,-81.92498,-81.95819,-83.00806,-84.19682,-84.40105,-83.13804,-80.99144,-79.25636,-79.04904,-80.51276,-82.68698,-84.13501,-83.89175,-82.07359,-79.74187,-78.1409,-77.86282,-78.52101,-79.13352,-78.90917,-77.85657,-76.78403,-76.70721,-78.10063,-80.52567,-82.88364,-84.0985,-83.74741,-82.22307,-80.36337,-78.85415,-77.83899,-76.97936,-75.86185,-74.40582,-72.95756,-72.02028,-71.85197,-72.24985,-72.67397,-72.58416,-71.69453,-69.92534,-67.0928,-62.61946,-55.5744,-45.1246,-31.15533,-14.63488,2.591459,18.54646,32.01348,43.05756,52.85516,62.91852,74.15845,86.3173,98.07489,107.7353,114.0863,116.9638,117.2589,116.4344,115.8566,116.2957,117.7896,119.8502,121.8276,123.2279,123.8662,123.8529,123.4889,123.1486,123.1943,123.9199,125.5084,127.9891,131.2025,134.7968,138.2769,141.1232,142.961,143.7287,143.7586,143.6917,144.2115,145.6854,147.8894,150.0054,150.9591,149.981,147.1033,143.2878,140.0474,138.7131,139.7294,142.3929,145.2187,146.7587,146.4091,144.7279,143.0594,142.6787,143.9704,146.1472,147.6923,147.2696,144.5548,140.4873,136.7885,135.0338,135.8209,138.5065,141.6304,143.7484,144.1771,143.2473,141.9774,141.411,142.0291,143.5531,145.2021,146.2108,146.2976,145.8377,145.674,146.68,149.2929,153.2299,157.5153,160.8237,162.012,160.6214,157.1067,152.6388,148.5171,145.4496,143.0819,140.082,134.8073,126.2352,114.6342,101.5485,89.04838,78.64732,70.52067,63.50786,55.90504,46.55338,35.53127,24.01163,13.40101,4.363477,-3.583516,-11.60853,-20.56122,-30.15227,-38.95179,-45.28309,-48.44213,-49.39196,-50.38477,-53.67098,-60.09331,-68.48775,-76.31802,-81.1713,-82.17648,-80.45456,-78.3465,-77.95697,-79.9696,-83.46054,-86.73535,-88.53614,-88.77218,-88.33081,-88.21228,-88.70096,-89.20728,-88.8681,-87.39812,-85.48952,-84.40601,-85.04642,-87.18401,-89.48898,-90.37357,-89.08012,-86.22516,-83.38692,-82.01426,-82.43732,-83.69788,-84.32239,-83.46487,-81.56396,-80.00828,-80.04259,-81.73061,-83.7801,-84.41745,-82.71277,-79.3801,-76.41032,-75.71935,-77.73108,-80.91875,-82.7013,-81.14992,-76.36622,-70.57431,-66.81738,-67.08832,-71.1072,-76.52285,-80.36626,-80.7732,-77.86904,-73.33178,-69.063,-65.96072,-63.62825,-61.11858,-58.05033,-55.18795,-54.01101,-55.57377,-59.50516,-63.92364,-66.4031,-65.38333,-61.09999,-55.43014,-50.77457,-48.71811,-49.3077,-51.32723,-53.27444,-54.32714,-54.68353,-55.1571,-56.42274,-58.48851,-60.72544,-62.34616,-62.92232,-62.56914,-61.73106,-60.81041,-59.95568,-59.13761,-58.37034,-57.81969,-57.66753,-57.85467,-57.97238,-57.47655,-56.1218,-54.28558,-52.87744,-52.81726,-54.40929,-57.06592,-59.62248,-61.0671,-61.18998,-60.68457,-60.60776,-61.56792,-63.22107,-64.45229,-64.13737,-61.96215,-58.72681,-55.9181,-54.83949,-55.88419,-58.41248,-61.25448,-63.43064,-64.57686,-64.83974,-64.44122,-63.35645,-61.41656,-58.74633,-56.10651,-54.72239,-55.56609,-58.53938,-62.19348,-64.33372,-63.25391,-58.84771,-52.83288,-47.8525,-45.95346,-47.38422,-50.48268,-52.73298,-52.31502,-49.15845,-44.85584,-41.5507,-40.5773,-41.74905,-43.70578,-44.9915,-45.05751,-44.49176,-44.36583,-45.23637,-46.57678,-47.08766,-45.6821,-42.43203,-38.76009,-36.66995,-37.4763,-40.86129,-44.89702,-47.05855,-45.62002,-40.58968,-33.64146,-27.12776,-22.80241,-21.00834,-20.74503,-20.47153,-19.08434,-16.47482,-13.39729,-10.82671,-9.268177,-8.449462,-7.542596,-5.725316,-2.713114,1.049951,4.625356,7.078467,7.955505,7.49618,6.499483,5.939683,6.537404,8.487657,11.44974,14.76954,17.79942,20.15117,21.77419,22.85796,23.65427,24.34248,25.00781,25.7058,26.5187,27.52362,28.68112,29.74616,30.31748,30.04871,28.9009,27.23906,25.64386,24.5083,23.68076,22.44967,19.97258,15.93818,11.02445,6.768134,4.803105,5.860642,9.158446,12.64163,14.03886,12.15958,7.644205,2.661405,-0.3204189,0.03089449,3.146078,6.942801,9.136311,8.661495,6.327807,4.319449,4.885625,9.064279,16.22797,24.68131,32.8528,40.26533,47.66232,56.26245,66.70251,78.41207,89.83855,99.34574,106.1567,110.7048,114.183,117.6324,121.2124,124.1452,125.3522,124.3292,121.6617,118.84,117.5067,118.6253,122.0743,126.8588,131.7292,135.7759,138.6623,140.4569,141.3066,141.2535,140.3214,138.7425,137.0672,135.9927,135.9874,136.979,138.365,139.3851,139.6278,139.3229,139.1972,139.9645,141.78,144.03,145.619,145.59,143.6961,140.5667,137.3742,135.2147,134.5827,135.2357,136.4794,137.644,138.4323,138.9462,139.4385,140.0183,140.5452,140.7829,140.6785,140.5351,140.9168,142.3162,144.7897,147.8035,150.4112,151.6831,151.1577,149.0767,146.2932,143.9141,142.8638,143.558,145.7959,148.8692,151.8112,153.6983,153.9263,152.3965,149.5498,146.2054,143.2193,141.0721,139.5672,137.8122,134.5373,128.6295,119.6214,107.879,94.38168,80.22104,66.10667,52.16434,38.13018,23.79548,9.395947,-4.329059,-16.47095,-26.48548,-34.58681,-41.73057,-49.15464,-57.71706,-67.40439,-77.29984,-86.0434,-92.53888,-96.52296,-98.68831,-100.2994,-102.5144,-105.7798,-109.6171,-112.9054,-114.5007,-113.8648,-111.3768,-108.1781,-105.6392,-104.7269,-105.5892,-107.5488,-109.486,-110.3944,-109.8281,-108.0346,-105.7502,-103.8047,-102.7551,-102.713,-103.3963,-104.3126,-104.9452,-104.8682,-103.8033,-101.6761,-98.69398,-95.39128,-92.54457,-90.91228,-90.87875,-92.19444,-94.00411,-95.21085,-95.01431,-93.32396,-90.79163,-88.42544,-87.00742,-86.66824,-86.87713,-86.83983,-86.03372,-84.52734,-82.88606,-81.75077,-81.39452,-81.56273,-81.68993,-81.31541,-80.3848,-79.22095,-78.20016,-77.39333,-76.45979,-74.8951,-72.46573,-69.51215,-66.87563,-65.45641,-65.66534,-67.11346,-68.7428,-69.33508,-68.11716,-65.14294,-61.27174,-57.78208,-55.82117,-55.93328,-57.84486,-60.57544,-62.83488,-63.57313,-62.47222,-60.14555,-57.88965,-57.03683,-58.20534,-60.88076,-63.64595,-65.01359,-64.39986,-62.60033,-61.36945,-62.27102,-65.50648,-69.5461,-71.93386,-70.85615,-66.47466,-61.07112,-57.77765,-58.62587,-63.1844,-68.74885,-72.04578,-71.36694,-67.69376,-64.00248,-63.16904,-65.88969,-70.08059,-72.24062,-69.89842,-63.4654,-56.16587,-52.0136,-53.16859,-58.48188,-64.25995,-66.76339,-64.74407,-60.27217,-57.26947,-58.74923,-64.66809,-71.88009,-76.23243,-75.35944,-70.25182,-64.53189,-61.95559,-63.87724,-68.41531,-71.8586,-71.30271,-66.68401,-60.83574,-57.58022,-59.20607,-65.04369,-72.03133,-76.77499,-77.63289,-75.44556,-72.56285,-71.01295,-71.17239,-71.81506,-71.35493,-69.24919,-66.49452,-64.8952,-65.71606,-68.75491,-72.50071,-75.20235,-76.0136,-75.38245,-74.47845,-74.1899,-74.50559,-74.72848,-74.26865,-73.29801,-72.68302,-73.23107,-74.88203,-76.56149,-76.89828,-75.29469,-72.49443,-70.12629,-69.48408,-70.44425,-71.40085,-70.38156,-66.60105,-61.29544,-57.11529,-56.37036,-59.29986,-63.62792,-65.84117,-63.43508,-56.64913,-48.48225,-42.89956,-42.35997,-46.27573,-51.41936,-54.01221,-52.12483,-46.82962,-41.38979,-39.06565,-41.00407,-45.57386,-49.52242,-50.13315,-46.95085,-41.98273,-38.3104,-38.06382,-41.06372,-44.95152,-46.65821,-44.25602,-38.07095,-30.45435,-24.4353,-22.08456,-23.48878,-26.79816,-29.1919,-28.17282,-22.54828,-12.72506,-0.3288884,12.55906,24.17375,33.56015,40.67151,46.11706,50.71733,55.07013,59.30258,63.08877,65.88264,67.21413,66.88506,64.99197,61.83829,57.87793,53.789,50.63049,49.89626,53.27238,62.06763,76.5341,95.45778,116.3369,136.18,152.5988,164.6633,173.0732,179.5515,185.7844,192.4747,199.0054,203.864,205.5645,203.5527,198.6158,192.6063,187.6514,185.2586,185.7457,188.2266,191.1047,192.8091,192.4303,190.005,186.3743,182.7291,180.0736,178.8441,178.832,179.4089,179.9172,180.0181,179.8261,179.7769,180.3211,181.6263,183.4607,185.324,186.7471,187.5816,188.1063,188.8789,190.4086,192.8289,195.7566,198.4301,200.0714,200.2959,199.3577,198.0859,197.5146,198.3629,200.6152,203.4317,205.4778,205.5606,203.2784,199.3408,195.337,192.9902,193.2169,195.4508,197.6147,196.817,190.4902,177.4399,158.3036,135.2123,110.8536,87.43148,66.03841,46.69213,28.90657,12.38464,-2.598332,-15.31557,-25.07659,-31.72536,-35.81433,-38.35178,-40.30038,-42.15126,-43.82632,-44.93096,-45.15247,-44.52261,-43.37845,-42.07599,-40.68226,-38.88314,-36.19136,-32.33176,-27.55396,-22.66012,-18.70778,-16.54506,-16.43545,-17.97508,-20.33757,-22.70086,-24.62232,-26.17206,-27.77751,-29.88793,-32.65501,-35.80418,-38.76095,-40.95766,-42.14885,-42.55542,-42.74469,-43.29477,-44.41895,-45.7691,-46.56096,-45.99567,-43.77236,-40.40075,-37.09633,-35.25472,-35.74867,-38.4257,-42.111,-45.15774,-46.27533,-45.18789,-42.75071,-40.4515,-39.57919,-40.5391,-42.70759,-44.89341,-46.10662,-46.15306,-45.69069,-45.72935,-46.90993,-49.03716,-51.17321,-52.23471,-51.70681,-50.00927,-48.27018,-47.64271,-48.59364,-50.61224,-52.5213,-53.19291,-52.22116,-50.14026,-48.07104,-47.03724,-47.38839,-48.67649,-50.02854,-50.73842,-50.67811,-50.27068,-50.0757,-50.29978,-50.58704,-50.24241,-48.7337,-46.11863,-43.08755,-40.57516,-39.19672,-38.89756,-39.07007,-39.0711,-38.78172,-38.794,-40.04243,-43.07842,-47.4628,-51.72551,-54.00694,-53.05359,-48.9791,-43.30359,-38.20568,-35.40357,-35.3178,-37.00009,-38.83959,-39.58208,-39.02103,-37.95603,-37.5008,-38.23942,-39.8016,-41.11965,-41.15968,-39.60999,-37.06568,-34.61623,-33.15507,-32.89667,-33.40139,-34.02187,-34.38804,-34.55807,-34.76048,-34.99854,-34.90606,-34.03092,-32.34253,-30.51659,-29.66301,-30.57908,-33.02808,-35.62626,-36.55637,-34.73546,-30.66959,-26.34645,-24.12059,-25.24569,-29.01263,-33.1119,-35.04828,-33.71712,-30.10709,-26.64751,-25.61388,-27.63904,-31.31139,-34.11533,-34.07301,-30.99429,-26.53418,-23.08125,-22.2769,-24.16114,-27.4424,-30.57533,-32.79375,-34.35865,-35.93339,-37.68438,-38.90393,-38.51486,-36.08257,-32.50084,-29.70627,-29.49885,-32.26753,-36.58117,-40.04145,-40.8857,-39.23246,-37.04839,-36.79042,-39.63774,-44.5746,-49.0314,-50.69557,-49.23459,-46.67226,-46.06668,-49.3443,-55.79525,-62.34172,-65.48734,-63.66441,-58.35915,-53.18518,-51.47639,-54.02254,-58.52641,-61.21475,-59.55088,-54.1907,-48.77765,-47.60783,-52.66162,-61.99283,-70.63252,-73.53072,-68.70152,-58.55946,-48.56621,-44.01444,-46.95029,-55.12661,-63.57107,-67.71031,-66.06391,-60.87792,-56.42798,-56.18531,-60.67423,-67.30519,-72.15362,-72.44974,-68.19633,-61.9944,-57.33627,-56.53667,-59.5739,-64.41695,-68.44546,-69.96164,-68.88885,-66.39653,-63.90166,-62.20404,-61.27467,-60.67369,-60.14029,-59.85814,-60.23064,-61.41459,-63.04046,-64.37702,-64.82867,-64.37976,-63.62967,-63.37024,-64.0066,-65.25225,-66.33566,-66.58157,-65.94498,-65.09377,-64.94942,-65.9892,-67.80464,-69.26181,-69.20697,-67.27979,-64.29225,-61.88506,-61.62449,-64.06393,-68.33505,-72.52849,-74.66497,-73.72166,-70.15872,-65.68076,-62.38144,-61.72132,-63.83003,-67.42145,-70.30318,-70.21793,-65.66519,-56.41497,-43.56762,-29.16844,-15.5129,-4.37092,3.600732,9.028316,13.48451,18.76847,26.1162,35.70941,46.71176,57.78214,67.75324,76.08159,82.83761,88.31222,92.57199,95.31877,96.17977,95.2216,93.28333,91.81206,92.21703,95.11359,99.95103,105.304,109.6803,112.3455,113.6353,114.5583,115.9681,117.8842,119.4451,119.542,117.6977,114.5602,111.626,110.3348,111.129,113.1281,114.6778,114.4405,112.3128,109.5462,107.9628,108.7637,111.7091,115.2123,117.2942,116.7806,113.9761,110.4003,107.7964,107.0838,107.9282,109.1638,109.72,109.3939,108.9531,109.5452,111.8656,115.6783,120.0039,123.8079,126.6834,129.0579,131.8153,135.6384,140.5471,145.9264,150.9594,155.0996,158.2349,160.4733,161.8036,161.9688,160.6955,158.0889,154.8206,151.8674,149.9135,148.8446,147.7589,145.5716,141.8322,137.1535,132.8753,130.118,128.8659,127.7692,124.901,119.0332,110.5739,101.4759,94.08835,89.66429,87.51179,85.39013,80.92661,73.13473,63.03157,52.95295,45.04377,39.95107,36.5851,33.05614,28.07496,21.80453,15.57603,10.7256,7.454004,4.592294,0.4798359,-5.678688,-12.99986,-19.31283,-22.55479,-22.2233,-19.85439,-18.14889,-19.30549,-23.6738,-29.61843,-34.6456,-36.98591,-36.55673,-34.72195,-33.14659,-32.66122,-32.96326,-33.28,-33.35101,-33.84715,-35.81904,-39.58965,-44.0289,-46.93518,-46.4223,-42.37871,-36.88154,-33.10791,-33.35678,-37.50394,-43.00776,-46.55528,-46.2849,-43.06909,-39.94039,-40.00982,-44.28138,-50.86301,-56.12726,-57.03903,-53.07298,-46.44577,-40.56732,-37.83564,-38.30434,-40.0731,-40.99654,-40.38521,-39.43898,-40.13707,-43.47609,-48.43692,-52.5146,-53.46917,-51.01664,-47.17735,-44.94829,-46.18674,-50.19862,-54.06871,-54.56328,-50.33059,-42.90225,-35.81308,-32.43455,-33.96786,-38.89119,-44.13778,-47.12313,-47.23742,-45.87766,-45.14274,-46.20033,-48.46587,-50.08251,-49.26826,-45.55713,-40.13117,-35.12453,-32.45029,-32.90743,-36.00454,-40.40969,-44.60876,-47.40767,-48.19279,-47.06314,-44.894,-43.19778,-43.58858,-46.89792,-52.38541,-57.67884,-59.77773,-56.75449,-49.15594,-40.07707,-33.61027,-32.46359,-36.23856,-41.59248,-44.34498,-42.25573,-36.63014,-31.57611,-31.26981,-36.98162,-45.88375,-52.55766,-52.33297,-44.31964,-32.12701,-21.74817,-17.94756,-21.47219,-28.84712,-34.79592,-35.61509,-31.27937,-25.00544,-20.76485,-20.58205,-23.47335,-26.61604,-27.71985,-26.75941,-25.77363,-26.92024,-30.30462,-33.31306,-32.11525,-24.4135,-11.5384,1.672292,9.333932,7.869655,-1.818298,-14.71796,-24.39266,-26.35766,-20.19308,-9.32037,1.176859,7.236347,7.484302,3.20898,-2.938595,-8.474428,-11.95845,-13.00937,-11.86992,-9.076002,-5.446984,-2.168621,-0.5932472,-1.648746,-5.181034,-9.759973,-13.24582,-13.88711,-11.29726,-6.671887,-2.081185,0.7232664,1.234678,0.2959186,-0.6095625,-0.3475264,1.260744,3.551459,5.660236,7.162415,8.251307,9.38932,10.77014,12.04741,12.54747,11.79654,9.953075,7.81902,6.424776,6.489445,8.11964,10.90006,14.2271,17.58536,20.57439,22.75457,23.56788,22.53424,19.66146,15.75101,12.26095,10.65862,11.5848,14.36781,17.27975,18.47733,17.10333,13.86606,10.69635,9.644054,11.66289,16.02263,20.71455,23.6086,23.66234,21.45703,18.75691,17.38408,18.10526,20.19728,21.93021,21.65261,18.81922,14.35907,10.18672,8.158731,9.077903,12.29452,16.09763,18.6502,18.94334,17.26712,14.98126,13.74707,14.64795,17.6503,21.65088,25.04521,26.50179,25.55823,22.78072,19.4618,17.04444,16.54966,18.23052,21.53325,25.30883,28.15296,28.76645,26.2745,20.46898,11.92435,1.916485,-7.901805,-16.02158,-21.6212,-24.88645,-26.91341,-29.18519,-32.84141,-38.10024,-44.14375,-49.5465,-53.03312,-54.16062,-53.55175,-52.54762,-52.46663,-53.87327,-56.25303,-58.26651,-58.44548,-55.96606,-51.10721,-45.17532,-39.94796,-36.91486,-36.67118,-38.7234,-41.76638,-44.28011,-45.16786,-44.1592,-41.81936,-39.18785,-37.23491,-36.40258,-36.45024,-36.66894,-36.33794,-35.1677,-33.48104,-32.03078,-31.55996,-32.36079,-34.08871,-35.93654,-37.06057,-37.00727,-35.90329,-34.32634,-32.96753,-32.29977,-32.42667,-33.14288,-34.10313,-34.96352,-35.43526,-35.29668,-34.44848,-33.03124,-31.51366,-30.613,-30.99347,-32.86305,-35.72404,-38.50096,-40.05522,-39.82406,-38.18663,-36.28369,-35.35062,-35.95599,-37.63792,-39.20355,-39.53127,-38.36586,-36.56886,-35.61879,-36.64701,-39.62157,-43.22906,-45.57631,-45.30789,-42.45138,-38.44803,-35.31745,-34.4352,-35.64272,-37.21547,-36.7142,-32.24119,-23.41316,-11.54898,0.9794413,11.84115,19.69935,24.57054,27.49066,29.75261,32.16718,34.73425,36.85497,37.91249,37.85246,37.40097,37.76162,39.93618,44.05359,49.1294,53.46406,55.52041,54.80408,52.21254,49.59243,48.71579,50.271,53.49673,56.71189,58.42293,58.29436,57.33294,57.14792,58.78357,61.93704,65.13232,66.75819,66.24928,64.54963,63.47966,64.41459,67.216,70.23,71.42596,69.90778,66.69673,64.14495,64.30196,67.35247,71.27351,73.05479,70.71999,64.76418,57.96004,53.59055,53.27966,55.91891,58.4612,58.05683,54.04811,48.41402,44.33699,43.90122,46.56887,49.54564,49.79899,46.28717,40.77156,36.57691,36.14553,39.13958,42.50811,42.5593,37.62777,29.44381,22.16774,19.67483,22.92578,29.2455,34.04146,33.81409,28.4146,21.02454,15.90492,15.49552,18.86667,22.55324,23.1231,19.63354,14.24197,10.5693,11.01361,14.95094,19.12186,19.94862,16.15439,9.829155,5.160009,5.663379,11.79488,20.55642,27.35974,28.88696,25.04885,18.79572,14.00562,12.94151,14.98499,17.41101,17.55082,14.7772,10.9371,8.97821,10.77051,15.65437,20.72012,22.63174,19.77318,13.3044,6.45949,2.573722,3.11823,6.958205,11.22097,13.14124,11.69869,8.086218,4.839008,4.269868,7.191497,12.61318,18.43854,22.61773,24.05491,22.8607,20.00434,16.73628,14.14766,12.99417,13.66657,16.1328,19.8194,23.58652,25.99167,25.86681,22.96451,18.27549,13.7293,11.3311,12.15177,15.73176,20.26314,23.48184,23.79174,21.00928,16.34332,11.66966,8.547265,7.525846,8.068091,9.022861,9.28863,8.273905,5.974932,2.773555,-0.7966687,-4.14264,-6.593609,-7.451418,-6.243185,-3.101182,1.005651,4.467921,5.696876,3.946115,-0.2016858,-5.046762,-8.637488,-9.812723,-8.791647,-6.937596,-5.841688,-6.316771,-7.955019,-9.527758,-9.937229,-9.054627,-7.857992,-7.770425,-9.657603,-13.18554,-16.99092,-19.5494,-20.13944,-19.23715,-18.08641,-17.77789,-18.51848,-19.62455,-20.23225,-20.17306,-20.31534,-22.04274,-26.17739,-32.10464,-37.78167,-40.74309,-39.53008,-34.64159,-28.3716,-23.59305,-22.21441,-24.23367,-27.92159,-30.95329,-31.74496,-30.19249,-27.45447,-25.04642,-23.89963,-23.9633,-24.49496,-24.72221,-24.37638,-23.77695,-23.50727,-23.98854,-25.25916,-27.05009,-29.01169,-30.87892,-32.48014,-33.66995,-34.32833,-34.47004,-34.34966,-34.39626,-34.9387,-35.89624,-36.71482,-36.6983,-35.57685,-33.90348,-32.90133,-33.73593,-36.63504,-40.48777,-43.31927,-43.46383,-40.72513,-36.71725,-34.04622,-34.7523,-38.97723,-44.75195,-49.11461,-49.89949,-47.06635,-42.70766,-39.72237,-40.02085,-43.43116,-47.9973,-51.41551,-52.58916,-52.22573,-52.09128,-53.49849,-56.15859,-58.27565,-57.86888,-54.39627,-49.47377,-46.06261,-46.56062,-51.05107,-56.95186,-60.43304,-58.79422,-52.29931,-44.24073,-39.09921,-39.88283,-46.28091,-54.78856,-60.74531,-61.05258,-55.92858,-48.66933,-43.61013,-43.55476,-48.21006,-54.50216,-58.49939,-57.73883,-52.58497,-45.88731,-41.22279,-40.79147,-44.15921,-48.49359,-50.08633,-46.28467,-36.80675,-23.81164,-10.77604,-0.8235928,4.624313,6.233679,6.066653,6.261477,7.840083,10.30413,12.2237,12.44027,11.11922,9.938504,11.20078,16.34146,24.76221,33.82315,40.17132,41.72569,39.1222,35.62677,35.40198,41.05626,51.94847,64.3585,73.5313,76.41855,73.44746,68.19784,65.15987,66.96322,72.81819,79.1422,81.94115,79.38837,72.93608,66.2784,62.90646,63.90635,67.44489,70.22044,69.82405,66.37054,62.30227,60.55534,62.40733,66.52205,69.84575,69.70641,65.63515,59.64604,54.81078,53.16539,54.43871,56.48341,57.05856,55.6385,53.90223,54.5094,59.01851,66.45802,73.64323,77.11944,75.44758,70.25766,65.29617,64.05132,67.51999,73.60541,78.54465,79.40099,75.9437,70.66216,66.93004,66.58575,68.58295,69.63249,66.40864,57.83832,45.93766,34.63114,27.3273,24.83793,24.98569,24.12512,19.55514,11.24443,1.771144,-5.443319,-8.430721,-8.016844,-7.368744,-10.06901,-17.95061,-30.0272,-43.11757,-53.69552,-59.783,-61.76724,-61.77008,-62.11266,-63.91729,-66.69113,-69.0269,-69.82629,-69.1729,-68.29238,-68.69306,-71.12295,-75.0636,-79.08088,-81.76389,-82.6058,-82.25143,-81.9835,-82.82597,-84.87186,-87.25897,-88.76761,-88.61133,-86.89778,-84.4933,-82.43422,-81.30772,-80.99855,-80.9104,-80.44304,-79.36597,-77.85677,-76.24778,-74.73407,-73.28762,-71.82121,-70.42149,-69.40701,-69.11515,-69.56357,-70.26929,-70.42256,-69.35426,-66.99944,-64.02902,-61.53276,-60.44042,-61.0431,-62.8934,-65.09148,-66.71189,-67.08601,-65.84251,-62.85039,-58.28307,-52.84586,-47.92836,-45.33021,-46.43717,-51.18966,-57.54419,-62.02732,-61.36708,-54.40117,-43.06578,-31.6432,-24.47325,-23.39527,-26.54189,-29.40351,-27.67264,-20.14384,-9.750645,-1.900016,-1.001706,-7.364671,-16.55098,-21.79713,-18.13111,-5.621242,10.37884,22.2801,24.78959,18.11202,7.798677,1.319693,3.501665,13.67498,26.2627,34.34883,33.91193,26.08117,16.12873,10.02411,10.85126,17.31522,25.07363,29.77796,29.72419,26.47473,23.3042,22.76845,25.13502,28.63319,31.11943,31.79897,31.73005,32.82549,36.191,41.0889,45.30481,46.6427,44.46214,40.17233,36.36936,35.25908,37.45883,41.92815,46.93571,51.26237,54.76486,57.99073,61.28176,64.16436,65.55195,64.61195,61.60556,58.00558,55.73248,56.01171,58.65137,62.24859,65.1764,66.65851,67.1983,68.10253,70.47636,74.40865,78.88978,82.46542,84.13014,83.85117,82.43166,80.90654,79.95255,79.70061,79.97639,80.66653,81.86098,83.66763,85.90789,88.01968,89.31881,89.45205,88.67987,87.72713,87.26809,87.41505,87.61182,87.0506,85.33681,82.91631,80.92189,80.50151,82.06716,84.97793,87.88255,89.49866,89.31496,87.76955,85.82858,84.29332,83.32037,82.45114,81.06799,78.9047,76.23935,73.6652,71.65746,70.28559,69.27894,68.35845,67.53651,67.12016,67.40067,68.27779,69.13873,69.13285,67.68234,64.87774,61.47013,58.45076,56.49741,55.65679,55.45637,55.3297,55.02431,54.69618,54.64977,54.96098,55.31093,55.19,54.32922,53.01254,51.98046,51.92869,52.9243,54.17132,54.35623,52.41608,48.25827,42.94712,38.1839,35.35124,34.68028,35.04018,34.48091,31.21524,24.48338,14.84393,3.7949,-6.990282,-16.35716,-23.95962,-30.10353,-35.36445,-40.26602,-45.173,-50.35017,-56.02555,-62.34357,-69.23787,-76.36139,-83.18539,-89.23954,-94.32948,-98.55757,-102.1125,-104.9835,-106.8442,-107.2495,-106.0538,-103.752,-101.441,-100.3242,-101.0084,-103.0407,-105.0442,-105.4559,-103.4702,-99.60548,-95.49602,-92.97034,-92.93479,-94.73989,-96.44822,-95.8887,-91.90034,-85.03851,-77.32684,-71.19945,-68.24846,-68.4866,-70.5062,-72.37732,-72.71492,-71.29711,-68.94059,-66.80839,-65.64171,-65.39115,-65.41528,-65.0374,-64.05042,-62.84224,-62.09849,-62.31981,-63.48621,-65.07085,-66.35973,-66.8476,-66.46528,-65.53634,-64.54279,-63.87452,-63.69896,-63.96966,-64.49892,-65.01331,-65.17966,-64.65467,-63.20728,-60.8874,-58.13345,-55.7038,-54.40825,-54.75043,-56.6727,-59.55553,-62.4812,-64.61889,-65.52649,-65.23215,-64.10091,-62.61014,-61.17308,-60.0694,-59.44152,-59.27891,-59.36427,-59.24184,-58.30173,-56.01084,-52.19917,-47.22729,-41.89671,-37.11465,-33.48922,-31.09171,-29.52281,-28.22414,-26.81791,-25.25424,-23.69826,-22.28665,-20.97495,-19.61066,-18.16748,-16.9187,-16.34744,-16.78917,-18.03805,-19.23604,-19.21204,-17.12967,-13.05091,-8.020999,-3.558983,-0.8281476,0.004400654,-0.196661,-0.139598,1.034671,3.200299,5.367923,6.398831,5.83049,4.251079,2.959672,3.129934,5.034874,7.856229,10.21439,11.07279,10.418,9.26324,8.969638,10.32867,13.0036,15.68999,16.88841,15.79628,12.76561,9.067516,6.144913,4.835691,5.02577,5.885181,6.46843,6.266606,5.38775,4.325025,3.540306,3.169341,3.014762,2.762042,2.205322,1.304354,0.06381698,-1.611921,-3.913667,-6.931228,-10.40909,-13.67839,-15.89224,-16.47191,-15.48735,-13.69251,-12.13681,-11.55652,-11.92174,-12.44671,-12.08848,-10.24031,-7.178871,-3.960141,-1.800445,-1.314523,-2.092047,-2.899173,