Bandpass,0,0.11602,160.75803,-1370.1512,-2019.6528,-1678.129,-697.4306,254.37938,610.95764,269.30051,-378.08655,-759.0448,-546.75018,116.65747,749.59882,902.40143,488.2973,-165.88353,-574.01611,-450.94196,88.980507,632.99719,784.02222,449.35635,-105.30083,-465.53268,-376.99875,76.229744,548.0423,694.34393,423.85895,-46.654144,-364.34314,-303.81631,74.041496,479.21173,614.36603,392.21289,-10.032895,-291.60333,-253.0726,62.602169,412.09341,538.034,357.36365,14.222069,-235.18164,-214.2881,48.732666,350.77988,469.82785,327.68683,40.483437,-174.92287,-163.81595,56.220901,315.96561,425.15326,312.76855,74.1157,-105.68513,-90.58992,109.13414,350.43127,467.01956,390.89948,196.75551,40.414394,41.083294,195.85638,387.43695,475.22791,399.49753,221.89783,75.498131,64.778442,190.80762,355.13812,436.11121,378.65991,231.42886,106.42899,94.146225,198.1633,336.32346,404.7803,355.40729,229.29982,123.54125,118.10609,217.82648,351.18387,424.6275,390.78168,280.53296,177.30421,154.65472,223.95161,329.42279,391.87228,367.07755,275.9306,185.9669,160.14044,211.60995,296.9389,350.56671,333.31717,258.97571,180.85553,150.39534,179.60109,234.6552,263.76398,237.01894,168.28133,103.71026,86.774727,126.43377,191.67451,235.2623,228.05716,178.40094,123.22397,98.882408,114.21764,145.61017,156.65179,126.73412,66.889603,11.491971,-7.2997231,17.036087,61.248245,89.861809,80.853317,40.486279,-2.9806292,-21.162243,-6.3267951,24.037937,41.462379,28.2362,-9.6687756,-47.663883,-61.191402,-43.757782,-11.161584,10.654674,4.6344051,-25.602289,-59.448196,-75.077522,-65.244179,-41.596882,-24.928167,-29.194822,-51.366161,-74.346214,-80.28891,-64.074417,-36.984474,-18.189127,-20.692162,-42.197186,-67.367348,-79.389,-72.059662,-53.612278,-39.889599,-42.344357,-59.861652,-80.192062,-89.48996,-82.583321,-66.396248,-54.308819,-55.999805,-70.454262,-87.174461,-94.38501,-87.906097,-74.103485,-64.921104,-68.904694,-84.947914,-103.27527,-112.7245,-108.81553,-96.709305,-87.095596,-88.267517,-100.285,-115.36965,-123.96603,-121.80045,-112.73971,-105.54049,-107.13327,-117.52099,-129.99684,-136.34503,-133.04175,-123.86849,-117.12009,-119.58835,-131.77162,-147.71611,-159.42236,-162.46805,-158.77696,-154.71547,-156.15654,-164.25252,-174.93893,-182.30891,-183.15756,-179.27258,-175.87555,-177.54105,-184.73961,-193.56769,-198.76707,-197.68719,-192.21735,-187.31549,-187.3271,-192.89131,-200.70938,-206.25282,-207.29166,-205.56044,-205.33316,-210.02373,-219.4052,-229.56012,-235.62201,-235.28256,-230.47086,-225.96521,-225.96405,-231.13892,-238.32347,-243.0325,-242.89998,-239.42436,-236.63582,-237.57491,-241.14952,-241.79024,-232.42722,-208.98209,-173.43633,-133.39954,-98.3675,-74.98896,-64.225899,-61.964584,-62.365093,-61.571903,-59.41407,-58.289528,-60.398609,-65.507011,-70.851929,-73.149269,-71.129723,-66.685547,-63.736965,-65.554199,-72.351349,-80.779533,-85.667885,-82.896957,-71.619919,-54.56002,-36.387825,-21.32922,-11.451843,-6.4371276,-4.6019158,-4.2321382,-4.3346443,-4.5510507,-4.6489091,-4.2202425,-2.8795302,-0.71240735,1.5465684,2.9075317,2.8719461,1.9417071,1.4069294,2.4621315,5.2554026,8.6020927,10.656929,10.133194,7.2114296,3.4506958,0.71556151,-0.13668583,0.15430118,-0.14166628,-2.3397951,-6.159821,-9.6975918,-10.686777,-8.245532,-3.8858597,-1.0019959,-3.0758474,-11.740223,-25.978806,-42.994171,-60.142269,-76.601387,-93.632553,-113.27457,-136.41461,-161.61331,-185.53331,-204.69598,-217.36952,-224.32153,-227.99049,-230.74495,-233.50298,-235.65024,-236.18399,-235.07988,-233.72812,-234.03125,-236.84113,-241.0058,-243.91733,-243.33707,-239.2421,-234.27979,-232.32193,-235.97171,-244.71715,-255.08646,-262.81631,-265.6062,-264.53394,-263.05899,-264.20306,-267.83572,-270.04083,-265.20804,-249.64604,-224.40402,-195.39514,-170.60333,-156.01642,-152.73509,-156.93608,-162.54889,-164.8461,-162.71318,-158.37274,-155.05066,-154.32982,-154.95732,-153.74484,-147.76964,-136.31831,-121.35277,-106.37088,-94.566811,-87.485779,-84.829605,-85.201141,-87.038704,-89.109261,-90.487328,-90.422318,-88.494591,-85.032951,-81.33445,-79.226509,-79.998367,-83.333054,-87.065147,-88.140236,-84.322838,-75.595261,-64.294868,-53.837799,-46.831924,-43.805359,-43.343964,-43.43462,-42.965271,-42.257587,-42.267715,-43.131573,-43.277161,-39.951416,-30.958513,-16.440701,0.62504095,15.731186,25.22735,28.284435,27.158676,25.594885,26.445532,30.085054,34.620129,37.644684,38.23872,37.785046,39.048363,44.19706,53.180977,63.60638,72.186821,76.756821,77.477142,76.464439,76.191589,77.833282,80.703896,83.100952,83.843826,83.3144,83.194542,85.059227,88.832359,92.248802,91.803223,84.671097,70.436699,51.580551,32.454483,17.372309,8.89258,7.1318917,10.256029,15.640823,20.973616,24.826151,26.69273,26.789671,25.882763,25.162666,25.997593,29.446815,35.673931,43.618423,51.245548,56.373444,57.685055,55.357819,50.936054,46.517666,43.73489,43.107533,44.081402,45.625462,46.945026,47.866856,48.730038,49.956577,51.645554,53.45063,54.76368,55.029526,53.984257,51.725819,48.661964,45.423473,42.768066,41.426067,41.852131,43.957249,47.002342,49.814747,51.309723,51.066814,49.605679,48.138565,47.892113,49.385258,52.111179,54.835369,56.334156,56.115356,54.679516,53.185081,52.765255,53.94714,56.517143,59.850174,63.411942,67.063797,70.984993,75.323357,79.872253,84.024452,87.030762,88.372208,88,86.324554,84.022148,81.818604,80.349106,80.062958,81.086861,83.048462,85.017593,85.775528,84.462898,81.34639,78.20961,77.942581,83.319107,95.492477,113.04626,132.24934,148.53197,158.48006,161.29465,158.93144,154.88086,152.32249,152.70654,155.48993,159.00937,161.79509,163.44418,164.56888,166.00993,167.98994,169.85934,170.60478,169.71037,167.69969,165.91972,165.68011,167.33383,169.9465,171.80936,171.48152,168.69215,164.52879,160.80852,159.04944,159.68663,161.9799,164.59468,166.42722,167.14757,167.18062,167.23679,167.76901,168.71352,169.62523,170.04195,169.79678,169.09378,168.36031,168.02802,168.38356,169.51392,171.27348,173.21359,174.52205,174.10683,170.91937,164.44453,155.10583,144.29977,133.9442,125.71735,120.3802,117.55613,116.08044,114.69152,112.64141,109.88757,106.82804,103.84795,101.04242,98.307426,95.680122,93.59919,92.804832,93.878723,96.728973,100.42234,103.56435,105.05556,104.76606,103.68095,103.38509,105.17315,109.31184,114.88521,120.2867,124.03032,125.39169,124.54784,122.23295,119.21929,115.97965,112.68771,109.43876,106.43344,103.95018,102.15079,100.92568,99.956329,98.976067,98.012596,97.372765,97.320969,97.669975,97.630356,96.126633,92.454941,86.865067,80.627502,75.447914,72.530594,71.869164,72.243813,71.971466,69.962662,66.421089,62.734451,60.620518,61.069382,63.748955,67.230873,69.861237,70.698402,69.931129,68.562904,67.638641,67.564644,67.960526,68.082275,67.459236,66.267105,65.181427,64.846046,65.364441,66.19165,66.504242,65.780464,64.178162,62.448753,61.454269,61.624012,62.713009,64.00116,64.768143,64.709175,64.027924,63.18734,62.533199,62.065826,61.497555,60.512604,59.010319,57.151798,55.200333,53.308044,51.431213,49.439812,47.31942,45.28091,43.659966,42.655193,42.092396,41.405804,39.887203,37.068256,33.002323,28.268812,23.696838,19.974909,17.369148,15.68451,14.443273,13.135415,11.390187,9.0133724,5.9464951,2.2459946,-1.8728198,-5.9784961,-9.4574938,-11.702756,-12.405229,-11.792621,-10.647538,-10.041651,-10.884836,-13.509881,-17.512897,-21.942495,-25.747236,-28.255663,-29.451153,-29.917873,-30.507509,-31.913414,-34.369354,-37.606403,-41.056362,-44.165676,-46.644577,-48.536007,-50.106518,-51.663975,-53.434277,-55.566528,-58.2272,-61.663136,-66.1231,-71.632019,-77.747566,-83.499344,-87.647079,-89.211884,-88.033966,-85.026794,-81.911667,-80.490822,-81.800781,-85.603004,-90.521004,-94.784904,-97.190918,-97.740997,-97.596153,-98.368668,-101.16407,-105.92894,-111.47594,-116.15407,-118.7571,-119.14182,-118.22434,-117.40388,-117.78658,-119.65879,-122.46349,-125.21334,-127.03961,-127.55899,-126.91599,-125.58167,-124.1033,-122.95268,-122.48344,-122.91021,-124.24162,-126.20392,-128.26978,-129.86809,-130.70439,-130.98613,-131.34923,-132.46103,-134.51907,-136.99629,-138.87254,-139.28247,-138.19557,-136.65677,-136.3479,-138.65962,-143.81215,-150.58682,-156.88335,-160.8084,-161.65561,-160.19237,-158.09769,-156.92703,-157.26385,-158.56981,-159.7666,-160.09775,-159.65323,-159.20499,-159.50526,-160.59149,-161.64204,-161.53242,-159.72296,-156.83478,-154.44554,-154.15878,-156.52077,-160.51515,-164.03152,-165.07977,-163.01563,-158.99394,-155.32567,-154.09978,-155.9068,-159.45711,-162.34456,-162.50183,-159.46593,-154.68741,-150.69904,-149.6461,-152.05157,-156.5294,-160.58038,-161.97092,-159.88409,-155.21249,-149.89812,-145.77719,-143.63199,-142.96667,-142.55447,-141.34801,-139.17003,-136.78638,-135.36565,-135.69591,-137.64783,-140.19743,-141.97945,-142.04015,-140.36499,-137.90033,-136.07245,-136.06564,-138.22687,-141.87994,-145.6214,-147.94365,-147.89267,-145.4678,-141.59628,-137.70483,-135.08577,-134.34279,-135.16551,-136.53308,-137.2453,-136.51921,-134.3506,-131.45366,-128.80972,-127.06709,-126.12115,-125.11221,-122.85102,-118.44345,-111.7739,-103.58659,-95.130249,-87.572784,-81.508095,-76.806816,-72.856361,-69.021721,-65.059074,-61.273403,-58.373402,-57.135315,-58.054768,-61.127861,-65.812683,-71.1483,-75.983315,-79.269402,-80.366348,-79.270271,-76.651398,-73.625,-71.298119,-70.281143,-70.425156,-70.963089,-71.011803,-70.157478,-68.757454,-67.734749,-67.951683,-69.537933,-71.616867,-72.654114,-71.266655,-67.021729,-60.734001,-54.063332,-48.645515,-45.276058,-43.623463,-42.601871,-41.113495,-38.658371,-35.438805,-31.960503,-28.485121,-24.773689,-20.321846,-14.901918,-8.9764986,-3.6201921,0.062662482,1.6545032,1.7705898,1.7520633,2.8610799,5.4863601,8.8866434,11.659953,12.651061,11.717661,9.8648157,8.6676588,9.3583603,12.154245,16.224922,20.271179,23.307724,25.152662,26.365046,27.752254,29.824631,32.545895,35.468952,38.067371,39.979347,41.019726,41.052002,39.939678,37.706249,34.799938,32.186771,31.052753,32.175739,35.332989,39.194035,41.900188,42.083672,39.731422,36.315647,34.028343,34.524532,37.926689,42.720886,46.636929,47.986454,46.636795,44.025234,42.22691,42.685081,45.40781,49.108257,52.140759,53.57888,53.72464,53.753208,54.791172,57.094406,59.892376,61.982494,62.632439,62.142536,61.667751,62.420746,64.808243,68.099518,70.860741,71.868813,70.897728,68.861481,67.230545,67.114975,68.611046,70.814629,72.458763,72.737312,71.785881,70.544022,70.132202,71.167267,73.435822,76.078629,78.108093,78.906433,78.423935,77.03405,75.223007,73.352524,71.620827,70.171127,69.196609,68.931541,69.54689,71.068581,73.421791,76.587379,80.735428,86.183998,93.145538,101.39536,110.09705,117.96307,123.7345,126.75279,127.30785,126.54694,125.9655,126.73254,129.1935,132.79088,136.41368,138.96553,139.85052,139.15224,137.46568,135.5218,133.82489,132.47876,131.25124,129.8007,127.9229,125.69273,123.44545,121.62135,120.55148,120.27748,120.48083,120.55804,119.82787,117.80431,114.43105,110.16899,105.8737,102.48704,100.66133,100.48589,101.45527,102.70968,103.43939,103.25285,102.31989,101.21899,100.58035,100.72964,101.53314,102.52126,103.19773,103.33163,103.04729,102.6653,102.41446,102.22253,101.74055,100.59583,98.707161,96.443314,94.501503,93.565453,93.950317,95.453903,97.499901,99.469498,101.00261,102.08621,102.9071,103.61376,104.18552,104.50888,104.58555,104.67702,105.22522,106.55865,108.57852,110.67342,111.98084,111.87392,110.37214,108.1899,106.35643,105.62428,106.0379,106.94443,107.44341,106.981,105.69445,104.27885,103.47173,103.51268,103.95453,103.96317,102.90704,100.83466,98.508896,96.965126,96.880424,98.168129,100.05779,101.59438,102.21482,102.02003,101.58027,101.43299,101.6379,101.70431,100.9423,98.995346,96.185989,93.42968,91.755577,91.72715,93.115982,95.020454,96.349228,96.383484,95.10833,93.159264,91.451546,90.714447,91.166176,92.457176,93.863884,94.61158,94.177956,92.46524,89.790405,86.708977,83.745102,81.144081,78.770477,76.225266,73.150215,69.572517,66.087234,63.73299,63.573483,66.171532,71.225662,77.571106,83.560242,87.641373,88.865387,87.114304,83.009918,77.613457,72.080391,67.381104,64.109802,62.363365,61.705204,61.27961,60.127937,57.645115,53.969337,50.042606,47.204521,46.451061,47.744869,49.816044,50.66309,48.55864,43.027058,35.22052,27.431927,21.977272,20.05636,21.219635,23.713097,25.460228,25.089302,22.435091,18.308325,13.784367,9.5222397,5.5339293,1.4720727,-2.8567953,-7.1721311,-10.834938,-13.304448,-14.587728,-15.337223,-16.499367,-18.730715,-21.959545,-25.377266,-27.867247,-28.609415,-27.507923,-25.219683,-22.809895,-21.261768,-21.107143,-22.327663,-24.504068,-27.077082,-29.578308,-31.758274,-33.611656,-35.327099,-37.181519,-39.394932,-41.987606,-44.714344,-47.143757,-48.878315,-49.80735,-50.227776,-50.718922,-51.807629,-53.61599,-55.731018,-57.420776,-58.102802,-57.788479,-57.211929,-57.528568,-59.732597,-64.123993,-70.13327,-76.597939,-82.316254,-86.553215,-89.231499,-90.755615,-91.641693,-92.212791,-92.528725,-92.532562,-92.251511,-91.883156,-91.715408,-91.9673,-92.690697,-93.806381,-95.225464,-96.933273,-98.948997,-101.19044,-103.37153,-105.055,-105.86734,-105.74474,-105.02621,-104.29765,-104.06287,-104.45249,-105.17384,-105.74805,-105.87955,-105.69952,-105.69933,-106.38072,-107.85214,-109.65554,-110.96686,-111.06812,-109.79996,-107.70267,-105.74476,-104.80069,-105.19955,-106.62147,-108.39474,-109.98891,-111.3736,-113.00037,-115.41031,-118.71922,-122.32738,-125.08002,-125.83643,-124.14843,-120.65476,-116.92699,-114.78777,-115.41157,-118.65524,-122.97553,-126.01498,-125.61296,-120.78499,-112.21619,-102.03481,-92.962784,-87.225731,-85.709618,-87.726974,-91.465324,-94.875038,-96.564629,-96.295258,-94.883118,-93.614967,-93.508163,-94.794624,-96.864296,-98.652992,-99.235382,-98.300186,-96.273392,-94.057663,-92.558678,-92.264183,-93.08844,-94.532082,-96.032547,-97.287453,-98.368561,-99.577751,-101.14831,-102.97824,-104.55549,-105.11931,-103.96931,-100.75992,-95.639694,-89.191505,-82.236275,-75.617699,-70.059517,-66.111465,-64.131027,-64.236694,-66.220421,-69.479691,-73.064888,-75.897964,-77.121132,-76.437805,-74.27858,-71.689423,-69.968048,-70.196449,-72.866173,-77.742767,-84.001175,-90.54731,-96.381058,-100.86884,-103.85556,-105.61469,-106.67963,-107.61785,-108.8128,-110.31904,-111.84611,-112.89285,-112.99365,-111.97484,-110.09337,-107.9726,-106.34984,-105.75713,-106.30277,-107.67004,-109.32613,-110.81101,-111.93341,-112.76696,-113.4725,-114.08436,-114.41367,-114.13139,-112.9614,-110.8352,-107.89124,-104.32394,-100.21004,-95.470634,-90.033371,-84.101418,-78.324707,-73.696518,-71.161316,-71.1213,-73.132751,-76.006607,-78.303558,-78.973969,-77.791397,-75.337563,-72.558342,-70.165817,-68.251015,-66.334908,-63.805473,-60.439987,-56.654404,-53.294441,-51.081421,-50.061008,-49.423851,-47.853188,-44.23373,-38.324047,-30.996731,-23.88871,-18.638487,-16.119204,-16.072639,-17.316446,-18.379177,-18.199619,-16.527777,-13.865491,-11.053041,-8.7821817,-7.3074369,-6.4645605,-5.9065866,-5.3587203,-4.727077,-4.029006,-3.2431481,-2.2189798,-0.72212398,1.4197611,4.1821022,7.3216357,10.489072,13.406243,15.999506,18.414833,20.916143,23.731882,26.931023,30.378843,33.77737,36.764671,39.039871,40.48164,41.223289,41.642445,42.239079,43.425987,45.322445,47.67588,49.993786,51.849571,53.197048,54.480682,56.420898,59.550915,63.767437,68.197357,71.524628,72.641464,71.261398,68.115356,64.58342,61.960155,60.793537,60.705757,60.804596,60.410122,59.60648,59.234127,60.306896,63.233356,67.376854,71.288612,73.512535,73.470894,71.8573,70.252266,70.160378,72.037132,74.892441,76.712891,75.456886,70.050751,60.844131,49.331528,37.378849,26.439875,17.175404,9.5804873,3.4041405,-1.4828141,-4.9994106,-7.0272713,-7.6395173,-7.1768532,-6.1165252,-4.8561511,-3.5931497,-2.3853669,-1.3165354,-0.59779972,-0.49059799,-1.0941353,-2.1740277,-3.2047212,-3.6484601,-3.3054922,-2.4876063,-1.8632857,-2.0405459,-3.1430185,-4.6595311,-5.6821003,-5.3999844,-3.5528805,-0.5746693,2.6431384,5.2059655,6.6112809,6.8747315,6.3687572,5.5319819,4.6553268,3.8549604,3.1873772,2.7662914,2.7651336,3.3020246,4.3094077,5.5082498,6.5266037,7.0916877,7.1682014,6.9541049,6.7446756,6.7603002,7.0444431,7.4767938,7.867075,8.0578089,7.986804,7.7089911,7.4012303,7.3534508,7.9137592,9.3551073,11.688597,14.526531,17.123238,18.645023,18.57016,16.996674,14.644279,12.50308,11.312599,11.192608,11.676372,12.139143,12.332854,12.633307,13.777873,16.228888,19.606138,22.661289,23.959354,22.95797,20.839481,20.497431,25.518444,38.587959,60.124744,87.872383,117.67561,145.03902,166.67578,181.32529,189.58102,193.02618,193.28424,191.50246,188.40071,184.62274,180.97897,178.33696,177.24263,177.59023,178.63541,179.39476,179.1891,177.98044,176.29494,174.81056,173.90721,173.47879,173.09973,172.38268,171.24596,169.90746,168.64723,167.55927,166.5062,165.31215,164.0222,162.98961,162.68204,163.3282,164.67465,166.06505,166.82101,166.66583,165.87601,165.02821,164.5087,164.14732,163.27336,161.19292,157.76534,153.64742,149.97719,147.65933,146.72008,146.19518,144.68097,141.23239,136.03664,130.41217,126.10907,124.3372,125.12142,127.36375,129.53346,130.51822,130.10738,128.8663,127.58244,126.7212,126.25819,125.92849,125.61169,125.49165,125.84316,126.62812,127.26798,126.84582,124.65839,120.74014,115.95193,111.51281,108.25412,106.10193,104.16431,101.39262,97.37986,92.7463,88.831444,86.881561,87.26754,89.247673,91.420189,92.550423,92.226807,90.948784,89.658859,89.100403,89.454803,90.453186,91.780685,93.384247,95.411835,97.849037,100.20478,101.59346,101.25288,99.154861,96.215645,93.841164,93.017525,93.539116,93.959724,92.414886,87.868111,80.986336,74.013084,69.609596,69.299438,72.448181,76.429115,77.933434,74.704575,66.728661,56.237869,46.566154,40.520218,39.136154,41.404949,44.982765,47.405689,47.160389,44.152954,39.491795,34.822414,31.57745,30.43902,31.155661,32.713737,33.770504,33.19619,30.531696,26.170376,21.158686,16.680573,13.469601,11.462252,9.8921738,7.7713857,4.4647794,0.0027234664,-5.0487013,-10.039553,-14.6682,-19.074276,-23.530207,-27.982122,-31.826389,-34.154442,-34.352623,-32.653534,-30.221628,-28.649151,-29.14452,-31.926102,-36.215733,-40.827671,-44.944447,-48.548382,-52.229706,-56.544357,-61.424278,-66.107216,-69.669525,-71.784012,-73.123398,-75.0476,-78.71331,-84.179718,-90.139847,-94.524216,-95.65033,-93.21331,-88.493965,-83.652176,-80.552162,-79.847878,-80.862038,-82.261314,-83.024551,-83.052773,-83.059372,-83.889915,-85.797401,-88.195274,-90.050072,-90.624016,-90.047333,-89.334625,-89.845718,-92.551582,-97.560356,-104.1471,-111.18682,-117.66158,-122.94259,-126.77904,-129.16068,-130.27463,-130.62303,-131.14624,-133.10654,-137.62596,-145.05315,-154.54613,-164.21782,-171.88661,-176.08778,-176.79124,-175.39624,-173.97687,-174.19162,-176.4696,-179.91911,-182.97362,-184.36198,-183.82422,-182.17944,-180.76009,-180.59773,-181.86052,-183.85007,-185.50851,-186.08951,-185.58478,-184.68091,-184.31805,-185.14249,-187.17183,-189.83267,-192.30412,-193.94678,-194.5873,-194.54393,-194.42722,-194.84608,-196.15729,-198.34033,-201.01334,-203.5641,-205.35535,-205.95399,-205.31633,-203.84851,-202.28328,-201.3849,-201.5914,-202.7679,-204.22305,-205.01953,-204.44725,-202.41634,-199.545,-196.87001,-195.31641,-195.20741,-196.084,-196.93671,-196.72183,-194.87761,-191.56436,-187.5199,-183.64435,-180.57092,-178.46031,-177.09584,-176.16437,-175.50743,-175.17645,-175.28259,-175.78249,-176.38348,-176.65747,-176.29369,-175.31018,-174.0621,-173.021,-172.45929,-172.24384,-171.87231,-170.7227,-168.3432,-164.589,-159.53029,-153.22897,-145.58566,-136.41212,-125.71363,-113.98872,-102.30014,-91.995026,-84.180824,-79.247406,-76.729935,-75.614182,-74.908966,-74.130775,-73.389755,-73.019592,-72.999687,-72.576538,-70.387421,-65.077118,-56.069553,-44.025692,-30.681078,-18.119993,-7.884932,-0.42191952,4.8442454,8.8989544,12.409188,15.349583,17.204918,17.579359,16.766682,15.857052,16.263426,18.943054,23.808937,29.72283,35.099243,38.761215,40.527302,41.180317,41.861282,43.291405,45.318935,47.061802,47.524048,46.265373,43.688705,40.78017,38.499611,37.23423,36.658127,36.048645,34.805515,32.808079,30.392937,28.020258,25.911604,23.93552,21.806906,19.416962,17.011988,15.064196,13.928424,13.560322,13.538867,13.404963,13.06861,12.951782,13.703747,15.642197,18.309996,20.50843,20.870285,18.661285,14.307102,9.2811613,5.3803196,3.8068128,4.6039205,6.7704506,8.9502964,10.242234,10.628448,10.798499,11.549501,13.199921,15.401122,17.425756,18.681074,19.069027,18.965862,18.89266,19.167929,19.815584,20.773361,22.190817,24.524485,28.295673,33.655659,40.087685,46.515099,51.809933,55.399727,57.571178,59.251728,61.397808,64.391731,67.853676,71.000031,73.306969,75.022713,77.160805,80.944756,87.036148,95.028252,103.52855,110.79551,115.56619,117.61447,117.7567,117.3466,117.5683,118.90151,120.98841,122.89637,123.5883,122.36722,119.13366,114.40811,109.15392,104.47375,101.26628,99.945251,100.32785,101.76051,103.45282,104.87134,105.98373,107.20197,109.04247,111.70391,114.83604,117.66959,119.44863,119.89838,119.41804,118.85422,118.98421,120.03971,121.58662,122.84525,123.23685,122.77985,122.05183,121.72701,122.00172,122.32047,121.63528,119.07819,114.63179,109.34853,104.92926,102.8703,103.66943,106.56432,109.96357,112.31766,112.91853,112.17311,111.22469,111.18858,112.48111,114.63146,116.64509,117.64585,117.37626,116.25997,115.03374,114.23151,113.87756,113.57969,112.92894,111.8997,110.94486,110.6891,111.40314,112.60703,113.09282,111.40997,106.5709,98.58886,88.541748,78.117996,68.884773,61.661438,56.304001,51.965996,47.6436,42.686687,37.022381,31.036072,25.25532,20.064672,15.609404,11.888095,8.9036884,6.7251248,5.4082508,4.8546052,4.7494283,4.6660709,4.2923036,3.6237247,2.9689419,2.7316585,3.0967669,3.8349488,4.3805466,4.1608562,2.9765356,1.1798171,-0.48444024,-1.2905864,-0.93951201,0.30121562,1.8130019,3.0468435,3.8575847,4.520606,5.424612,6.6695771,7.877337,8.380353,7.68362,5.883472,3.7302792,2.2500715,2.1439013,3.3536789,5.093061,6.3423753,6.4950118,5.732975,4.8813319,4.8356042,5.9408588,7.7348809,9.2248554,9.5133295,8.3618994,6.3325362,4.4346466,3.5312467,3.8983316,5.2007308,6.8473077,8.4344549,9.953764,11.639236,13.607111,15.59213,17.001408,17.258478,16.184208,14.127539,11.742422,9.5709419,7.7384319,5.9832606,3.9912727,1.7698568,-0.24218415,-1.4404128,-1.5203143,-0.79736316,-0.11639397,-0.36806777,-1.9171045,-4.3299632,-6.5994225,-7.7272725,-7.2767491,-5.5228629,-3.104275,-0.42746562,2.7495756,7.2447357,13.915029,23.001923,33.79517,44.849369,54.632782,62.217312,67.608002,71.552948,74.999878,78.556244,82.257149,85.709213,88.43605,90.164101,90.890541,90.767349,89.962395,88.633987,87.018143,85.502487,84.556122,84.506317,85.301506,86.450325,87.226433,87.044922,85.783325,83.841255,81.899796,80.538094,79.95108,79.929886,80.078232,80.083008,79.845093,79.407768,78.78701,77.879593,76.545959,74.801231,72.932709,71.396912,70.516068,70.170876,69.730057,68.320412,65.307213,60.691734,55.16254,49.752865,45.31263,42.124519,39.891682,38.071587,36.301903,34.619907,33.341816,32.721199,32.661419,32.706852,32.322514,31.254267,29.701744,28.176514,27.150452,26.750032,26.708569,26.587938,26.07906,25.142923,23.897194,22.372984,20.384241,17.665012,14.196633,10.450717,7.2853756,5.470922,5.1254811,5.4759326,5.1926394,3.16206,-0.78069437,-5.6758528,-10.006064,-12.690505,-13.857111,-14.834203,-17.292845,-22.054043,-28.353268,-34.112743,-37.135643,-36.510349,-33.31855,-30.133959,-29.549397,-32.603611,-38.079533,-43.132622,-44.896091,-42.11013,-35.811882,-28.704214,-23.622082,-22.034138,-23.443476,-25.958433,-27.586391,-27.411226,-25.96841,-24.691977,-24.890524,-26.946499,-30.207184,-33.536854,-36.076832,-37.681648,-38.783497,-39.859467,-40.939629,-41.531105,-41.009777,-39.185478,-36.618359,-34.434196,-33.730011,-34.943531,-37.593315,-40.564243,-42.769218,-43.783604,-44.067276,-44.643101,-46.429745,-49.631699,-53.55294,-56.949902,-58.72456,-58.560249,-57.131985,-55.760399,-55.69109,-57.395081,-60.281937,-62.993614,-64.125183,-62.976479,-59.916279,-56.157032,-53.075542,-51.47937,-51.250233,-51.5676,-51.559345,-50.958153,-50.334156,-50.739475,-52.979877,-56.980648,-61.671085,-65.491562,-67.22908,-66.669395,-64.662407,-62.568123,-61.443844,-61.491184,-62.099133,-62.417744,-62.044762,-61.341381,-61.15736,-62.160965,-64.251556,-66.488953,-67.629181,-66.942039,-64.780884,-62.517681,-61.854591,-63.915367,-68.653831,-74.913261,-81.071564,-85.872543,-88.974945,-90.967819,-92.936653,-95.898415,-100.42388,-106.57292,-114.04441,-122.34573,-130.85944,-138.83849,-145.4563,-149.99445,-152.11215,-152.02888,-150.46935,-148.36705,-146.493,-145.23579,-144.65582,-144.73755,-145.61618,-147.57318,-150.77455,-154.94098,-159.22937,-162.49258,-163.8317,-163.13156,-161.23257,-159.58115,-159.50858,-161.52243,-165.00928,-168.52824,-170.55013,-170.25374,-167.96429,-165.0125,-163.09309,-163.44655,-166.25945,-170.55864,-174.63649,-176.80421,-176.13281,-172.85425,-168.24724,-164.05742,-161.70863,-161.66243,-163.22363,-164.88858,-165.07283,-162.86566,-158.44193,-152.93718,-147.87254,-144.44695,-143.06676,-143.32532,-144.37631,-145.42892,-146.05832,-146.18416,-145.80801,-144.75731,-142.65685,-139.16615,-134.31381,-128.67409,-123.22742,-118.95374,-116.38766,-115.39186,-115.27038,-115.13866,-114.3301,-112.6274,-110.23966,-107.59944,-105.12812,-103.08307,-101.50798,-100.24148,-98.942444,-97.138847,-94.333672,-90.166344,-84.553879,-77.698509,-69.905685,-61.293381,-51.59309,-40.238461,-26.775236,-11.393615,4.7598801,19.764874,31.606531,39.036961,42.148281,42.31403,41.506283,41.359097,42.494831,44.461918,46.256645,47.057228,46.704563,45.669968,44.608604,43.863869,43.288643,42.496403,41.332714,40.194271,39.928616,41.347065,44.664574,49.248741,53.867958,57.30706,58.983177,59.198498,58.899734,59.117138,60.431458,62.764168,65.557793,68.171692,70.218895,71.6567,72.636398,73.273361,73.519775,73.215073,72.247017,70.685608,68.791878,66.909424,65.329483,64.22197,63.653736,63.639256,64.150993,65.070183,66.1334,66.959373,67.192123,66.703293,65.730186,64.842163,64.724388,65.881027,68.413643,71.987617,75.990341,79.781441,82.902451,85.162758,86.605606,87.420708,87.869522,88.243088,88.824753,89.825851,91.300171,93.08905,94.856361,96.2276,96.976906,97.160225,97.109825,97.278885,98.011719,99.361649,101.05569,102.62762,103.65266,103.96587,103.7553,103.48285,103.66764,104.63242,106.33504,108.37306,110.17168,111.27193,111.57361,111.39354,111.28682,111.7122,112.72842,113.91634,114.60487,114.29443,113.02708,111.45307,110.50942,110.8697,112.49283,114.5712,115.95002,115.79421,114.10361,111.74877,109.98568,109.7336,111.05585,113.16024,114.91024,115.51746,114.98027,114.00871,113.51315,114.00789,115.31328,116.72101,117.47379,117.22112,116.16487,114.85011,113.80355,113.29719,113.3774,114.06728,115.50963,117.88027,121.11713,124.70392,127.75491,129.44008,129.51308,128.56924,127.79375,128.29192,130.40364,133.46046,136.18327,137.49698,137.2392,136.2796,135.9399,137.07451,139.42265,141.69167,142.36256,140.72142,137.43887,134.28014,133.07133,134.5354,137.72243,140.41916,140.3331,136.37537,129.29977,121.33321,115.01846,111.93275,111.98914,113.66689,114.98175,114.61412,112.57301,110.07745,108.78448,109.82394,113.15302,117.52525,121.03214,121.90809,119.21079,113.10128,104.6618,95.389366,86.609787,79.048637,72.701065,67.008621,61.230129,54.824642,47.673534,40.054367,32.407475,25.045694,17.987055,11.015643,3.9327884,-3.1671915,-9.7926159,-15.221309,-18.867981,-20.641829,-21.068382,-21.077887,-21.56081,-22.937832,-24.991362,-27.054182,-28.439167,-28.852402,-28.547859,-28.143595,-28.225716,-28.990108,-30.139805,-31.093418,-31.37006,-30.914577,-30.16959,-29.855415,-30.58856,-32.555336,-35.416222,-38.481533,-41.05172,-42.737553,-43.601154,-44.064224,-44.651951,-45.715668,-47.272583,-49.027924,-50.547543,-51.477135,-51.692242,-51.31097,-50.581585,-49.725006,-48.831543,-47.871685,-46.805443,-45.708588,-44.818554,-44.451462,-44.82695,-45.907337,-47.363579,-48.712532,-49.564713,-49.844173,-49.84499,-50.077168,-50.97916,-52.658581,-54.813103,-56.881401,-58.340015,-58.976669,-58.986145,-58.840683,-59.018394,-59.750923,-60.93132,-62.221786,-63.282349,-63.977222,-64.438835,-64.960281,-65.787819,-66.93705,-68.136253,-68.926178,-68.863068,-67.724907,-65.626312,-62.995941,-60.430843,-58.488541,-57.493523,-57.421188,-57.888493,-58.242481,-57.707893,-55.544392,-51.174454,-44.267796,-34.792423,-23.049133,-9.6911516,4.2962098,17.695568,29.259056,37.983768,43.376606,45.599422,45.416622,43.94846,42.321636,41.355473,41.397453,42.342434,43.782574,45.193054,46.07877,46.065659,44.965546,42.840565,40.047478,37.20052,35.002247,33.967075,34.157452,35.094383,35.941807,35.915138,34.712917,32.719517,30.82823,29.9447,30.430271,31.806028,32.910862,32.454208,29.673092,24.733324,18.653114,12.794744,8.2086649,5.1857262,3.2390409,1.4849564,-0.82526743,-3.9300475,-7.5234413,-11.032298,-14.001192,-16.347969,-18.361753,-20.483942,-23.032461,-26.03618,-29.25429,-32.336517,-35.010605,-37.194118,-38.993393,-40.619041,-42.276154,-44.075039,-45.982208,-47.81723,-49.301697,-50.162579,-50.267475,-49.732044,-48.924274,-48.326485,-48.299427,-48.874741,-49.717175,-50.31543,-50.316532,-49.804035,-49.323647,-49.599384,-51.084797,-53.624973,-56.466843,-58.651363,-59.572155,-59.354855,-58.800175,-58.901733,-60.231094,-62.588898,-65.166977,-67.13707,-68.286575,-69.262665,-71.219208,-75.050049,-80.686836,-86.937309,-92.022957,-94.532806,-94.225441,-92.177078,-90.162987,-89.633987,-90.908913,-93.075775,-94.654221,-94.594551,-92.97963,-90.987732,-90.147034,-91.361496,-94.328842,-97.714317,-99.960167,-100.21144,-98.780151,-96.879684,-95.833115,-96.281746,-97.891281,-99.703392,-100.85155,-101.13773,-101.09007,-101.49548,-102.76206,-104.57177,-106.0666,-106.43246,-105.46864,-103.74782,-102.26358,-101.82001,-102.58826,-104.12102,-105.77841,-107.22337,-108.60617,-110.30521,-112.44254,-114.58451,-115.91805,-115.83295,-114.49995,-112.97206,-112.62979,-114.25546,-117.33877,-120.13929,-120.5784,-117.48145,-111.41153,-104.53442,-99.531906,-98.176407,-100.41114,-104.48564,-108.05573,-109.57163,-109.11646,-108.21446,-108.77105,-111.8243,-116.86631,-122.10476,-125.4492,-125.59683,-122.59592,-117.64032,-112.32497,-107.8655,-104.71289,-102.6746,-101.32587,-100.37208,-99.744385,-99.449593,-99.363091,-99.147911,-98.342545,-96.52034,-93.392494,-88.811447,-82.736343,-75.247421,-66.617874,-57.349663,-48.059746,-39.207127,-30.806606,-22.350515,-13.067577,-2.4279528,9.3943024,21.410818,32.174828,40.423862,45.636784,48.179771,48.978409,48.953747,48.593887,47.911087,46.751343,45.182957,43.660645,42.851109,43.264759,44.971874,47.598545,50.574581,53.422592,55.875507,57.780865,58.944389,59.114853,58.169617,56.344002,54.251354,52.572601,51.576008,50.836208,49.459061,46.779568,43.105606,39.935719,39.344913,42.781303,49.986744,58.794239,66.075546,69.385818,68.350502,64.922737,62.296265,63.090267,67.892143,75.033127,81.703148,85.676247,86.5569,85.80011,85.568977,87.235199,90.51609,93.773453,95.207367,94.10041,91.280083,88.53434,87.430283,88.359665,90.431084,92.215103,92.766434,92.196037,91.42836,91.378174,92.185905,93.082489,92.978615,91.340157,88.702171,86.43174,85.88369,87.523552,90.616707,93.692352,95.462212,95.576332,94.727905,94.075638,94.410629,95.643906,96.94059,97.367836,96.578735,95.055367,93.761765,93.471313,94.243912,95.401443,95.99247,95.4058,93.715157,91.548981,89.617226,88.247566,87.242882,86.118378,84.503555,82.398392,80.109108,77.944061,75.929886,73.782394,71.162148,68.018646,64.748245,62.017815,60.34573,59.710327,59.448132,58.516457,55.962929,51.326355,44.762508,36.88163,28.458738,20.21438,12.754363,6.6022229,2.1855526,-0.297649,-1.0620071,-0.79704154,-0.47886977,-0.9664399,-2.5924199,-5.0064344,-7.3980489,-8.991806,-9.524334,-9.410964,-9.4973717,-10.550431,-12.803481,-15.83061,-18.812351,-21.013334,-22.175663,-22.606918,-22.945152,-23.77586,-25.336025,-27.448296,-29.664343,-31.480717,-32.490013,-32.423515,-31.138992,-28.631775,-25.0868,-20.907927,-16.638226,-12.753692,-9.425292,-6.4097133,-3.1810834,0.7292915,5.3695641,10.211995,14.335492,16.876062,17.501532,16.631823,15.260235,14.458588,14.834308,16.24029,17.898071,18.86455,18.583099,17.217718,15.591814,14.770128,15.51207,17.88821,21.258465,24.615496,27.10364,28.434668,28.981558,29.508785,30.696806,32.732033,35.196266,37.318836,38.44339,38.431927,37.759846,37.235916,37.506355,38.637314,40.02858,40.714905,39.878242,37.270725,33.309994,28.816492,24.580219,21.032965,18.207491,15.958375,14.243739,13.242226,13.216667,14.23332,15.959557,17.712418,18.751738,18.634678,17.399935,15.465422,13.318688,11.216634,9.0931749,6.7186036,3.975713,1.0440491,-1.6382703,-3.5993707,-4.5806551,-4.6416993,-4.0785251,-3.2503841,-2.4607077,-1.9635469,-2.0365913,-2.9890387,-5.0259099,-8.032526,-11.456229,-14.441216,-16.208841,-16.481615,-15.672817,-14.683499,-14.399099,-15.190631,-16.742775,-18.326296,-19.336315,-19.734463,-20.09429,-21.219067,-23.594278,-27.049334,-30.854797,-34.178116,-36.576588,-38.193184,-39.543503,-41.075752,-42.836655,-44.478374,-45.573421,-45.971573,-45.911839,-45.808907,-45.905224,-46.100403,-46.132339,-45.983738,-46.156078,-47.490902,-50.532467,-54.808681,-58.569611,-59.308804,-54.903362,-44.759029,-30.255533,-14.155117,0.74311459,12.940578,22.78688,31.929396,42.030846,53.567467,65.451637,75.68441,82.585701,85.797737,86.431305,86.298988,86.770401,88.005394,89.040199,88.619385,86.178421,82.306801,78.39724,75.746429,74.736603,74.656136,74.269562,72.734489,70.231171,67.872849,66.95652,68.061668,70.606247,73.161591,74.319695,73.538124,71.403313,69.138817,67.684677,66.958229,65.791779,62.607582,56.418114,47.534138,37.548275,28.611748,22.444841,19.654966,19.710472,21.495192,24.027079,26.875582,30.068022,33.64677,37.271793,40.205471,41.718517,41.63036,40.573132,39.736752,40.202877,42.272392,45.227875,47.714867,48.533554,47.360729,44.951641,42.690384,41.76532,42.481182,44.131165,45.495716,45.63908,44.493603,42.86871,41.897907,42.296658,43.914898,45.862411,47.104019,47.117313,46.177227,45.092117,44.58791,44.769566,45.029995,44.46814,42.530537,39.438053,36.103073,33.583988,32.432629,32.360348,32.435314,31.67281,29.627665,26.608856,23.397993,20.684061,18.604412,16.69199,14.240874,10.817492,6.5559983,2.0384045,-2.1458635,-5.8441868,-9.4732437,-13.742009,-19.149075,-25.5905,-32.338673,-38.406174,-43.061733,-46.18071,-48.236187,-49.974102,-52.002476,-54.544571,-57.46312,-60.472111,-63.34856,-65.999748,-68.381035,-70.381241,-71.805878,-72.492271,-72.467751,-72.012299,-71.550171,-71.42318,-71.693535,-72.113998,-72.294098,-71.961044,-71.152672,-70.225716,-69.676445,-69.873688,-70.835625,-72.139648,-72.985992,-72.389458,-69.459885,-63.722366,-55.395271,-45.50029,-35.680183,-27.695749,-22.748926,-20.937441,-21.161655,-21.616514,-20.683577,-17.77387,-13.646379,-9.9928074,-8.5002279,-9.9241543,-13.711122,-18.380367,-22.406689,-25.040777,-26.561481,-27.841518,-29.567366,-31.676451,-33.408516,-33.927452,-33.05899,-31.596413,-30.919855,-32.155731,-35.437214,-39.777111,-43.658905,-45.96476,-46.627636,-46.579525,-47.04565,-48.677109,-51.11898,-53.305717,-54.272888,-53.919571,-53.190845,-53.547085,-56.069637,-60.792183,-66.685387,-72.280518,-76.502327,-79.172676,-80.902946,-82.521446,-84.47924,-86.645554,-88.584564,-90.041664,-91.224602,-92.639915,-94.601135,-96.795357,-98.276527,-97.954857,-95.286301,-90.697716,-85.439293,-80.934273,-78.034851,-76.658463,-76.022842,-75.297562,-74.217751,-73.246346,-73.190979,-74.558388,-77.10408,-79.894447,-81.844185,-82.369865,-81.72747,-80.819817,-80.612778,-81.546402,-83.308685,-85.083221,-86.071884,-85.941063,-84.932816,-83.635239,-82.629417,-82.269295,-82.697411,-83.987839,-86.210831,-89.308136,-92.876015,-96.099037,-98.022835,-98.109978,-96.757401,-95.376007,-95.841698,-99.52037,-106.39684,-114.86172,-122.37389,-126.70055,-127.05889,-124.49611,-121.26616,-119.5479,-120.24435,-122.55584,-124.55513,-124.39367,-121.40437,-116.45693,-111.40078,-107.98882,-106.96262,-107.82758,-109.3723,-110.50866,-110.83726,-110.57661,-109.96281,-108.60909,-105.35275,-98.78907,-88.212814,-74.379265,-59.559856,-46.768555,-38.521496,-35.766636,-37.521919,-41.364597,-44.467903,-44.643345,-40.929089,-33.576824,-23.618952,-12.352256,-0.99959397,9.3963699,17.97093,24.084177,27.469995,28.398861,27.703077,26.574421,26.181232,27.267103,29.910101,33.537811,37.169945,39.773273,40.59885,39.411434,36.570354,32.950424,29.707903,27.927786,28.245358,30.587677,34.176186,37.836903,40.509098,41.712448,41.72184,41.339226,41.379391,42.166382,43.349182,44.163731,43.992722,42.873611,41.613777,41.399334,43.100449,46.686081,51.125465,54.880238,56.737038,56.509193,55.188858,54.435596,55.669682,59.273151,64.348946,69.176353,72.110825,72.432365,70.687202,68.361404,67.097038,67.897331,70.739296,74.752113,78.791344,82.03656,84.273529,85.751282,86.779282,87.375603,87.21402,85.896217,83.345497,80.030319,76.834923,74.628006,73.786636,73.977516,74.3489,74.036339,72.688828,70.70256,69.018509,68.596092,69.861565,72.439163,75.305138,77.266495,77.497887,75.86277,72.886551,69.44313,66.348351,64.061356,62.598209,61.637993,60.72456,59.464622,57.66658,55.406601,53.020809,51.016788,49.905502,49.992298,51.212814,53.111179,55.004993,56.280479,56.673714,56.383774,55.949997,55.960548,56.757584,58.299751,60.238884,62.134987,63.662724,64.696068,65.263725,65.460327,65.408241,65.289421,65.376213,65.968102,67.21772,68.948784,70.627647,71.58107,71.382347,70.174179,68.685043,67.864159,68.314323,69.870979,71.626053,72.43428,71.625595,69.48848,67.205482,66.251884,67.605255,71.234726,76.163185,81.036163,84.823692,87.226723,88.583076,89.411514,89.957344,90.063011,89.422668,87.987648,86.180527,84.724228,84.187004,84.568489,85.240524,85.314789,84.207153,82.021027,79.485504,77.481819,76.469048,76.187454,75.831329,74.573219,72.096619,68.801079,65.566177,63.24332,62.199806,62.178661,62.519825,62.567451,62.004772,60.944618,59.778461,58.92403,58.631771,58.928154,59.669621,60.631512,61.579033,62.317112,62.737736,62.858471,62.812054,62.753056,62.709854,62.481621,61.691631,60.022907,57.522667,54.76762,52.720558,52.283463,53.763962,56.576702,59.410084,60.833904,60.053574,57.399162,54.258381,52.458157,53.401081,57.394287,63.500381,69.961357,74.961792,77.357117,77.052879,74.92009,72.348015,70.663269,70.649757,72.321884,74.994156,77.596581,79.117867,79.0177,77.444389,75.148041,73.098732,71.967468,71.727371,71.607605,70.466759,67.420311,62.390495,56.258804,50.504799,46.502598,44.849575,45.093491,46.002945,46.221779,44.941925,42.2407,38.94054,36.123837,34.604443,34.632305,35.926567,37.929512,40.077709,41.941135,43.220787,43.705368,43.289974,42.066246,40.391705,38.825329,37.900852,37.836086,38.348022,38.698738,37.962334,35.370655,30.557911,23.604263,14.913791,5.0531011,-5.3388619,-15.560258,-24.863111,-32.575817,-38.337505,-42.326546,-45.311771,-48.429237,-52.75008,-58.848019,-66.593102,-75.272324,-83.947647,-91.834938,-98.506424,-103.86234,-107.9761,-110.97776,-113.06438,-114.58434,-116.05328,-118.00197,-120.70103,-123.94207,-127.0612,-129.248,-129.98216,-129.33086,-127.91225,-126.54774,-125.83649,-125.93819,-126.69688,-127.98458,-129.97404,-133.09465,-137.66414,-143.45267,-149.52716,-154.56165,-157.48125,-158.05417,-157.04349,-155.79451,-155.49551,-156.56209,-158.51245,-160.37711,-161.34343,-161.20784,-160.37502,-159.47697,-158.94102,-158.83168,-159.04352,-159.6235,-160.89014,-163.18427,-166.41078,-169.75891,-171.92198,-171.79535,-169.24428,-165.3967,-162.16338,-161.18713,-162.84323,-165.94913,-168.43306,-168.59982,-166.21721,-162.71727,-160.34227,-160.73474,-163.84387,-167.84723,-170.16736,-168.98466,-164.33812,-158.15578,-153.20518,-151.59236,-153.67928,-158.00446,-162.18086,-164.19339,-163.34822,-160.40063,-156.90208,-154.23166,-152.87999,-152.32257,-151.44197,-149.17587,-145.02119,-139.185,-132.39828,-125.55534,-119.35561,-114.05618,-109.37095,-104.52515,-98.468338,-90.221405,-79.264572,-65.80751,-50.788025,-35.555099,-21.360575,-8.9067583,1.8165214,11.330506,20.237896,28.830557,36.961082,44.223789,50.288532,55.143864,59.088367,62.498997,65.565552,68.198486,70.181931,71.453621,72.287338,73.209724,74.669197,76.66127,78.573532,79.396042,78.221649,74.773155,69.661224,64.217331,59.975792,58.062176,58.781349,61.579441,65.358139,68.959251,71.587669,73.008499,73.482986,73.524742,73.612961,73.985947,74.580208,75.112663,75.249443,74.777878,73.702652,72.221695,70.593933,68.967758,67.267273,65.210892,62.467869,58.875961,54.59613,50.102512,45.99176,42.700272,40.278263,38.348145,36.278111,33.485527,29.713524,25.139908,20.269005,15.671939,11.715672,8.4172993,5.4860339,2.5148442,-0.78820926,-4.4492893,-8.2283592,-11.758256,-14.743855,-17.11648,-19.064981,-20.928192,-23.003366,-25.369213,-27.818651,-29.944736,-31.3452,-31.844933,-31.617451,-31.130941,-30.933594,-31.380865,-32.44416,-33.701607,-34.51474,-34.294605,-32.71529,-29.770458,-25.665823,-20.637892,-14.825036,-8.2699919,-1.035001,6.671443,14.467658,21.913385,28.704008,34.816513,40.499115,46.093506,51.790794,57.474438,62.757465,67.202179,70.592918,73.092239,75.176498,77.379883,79.994522,82.905846,85.665787,87.768013,88.971191,89.486832,89.922852,91.008156,93.240959,96.6418,100.73521,104.76603,108.04045,110.22475,111.45906,112.23505,113.09966,114.33107,115.75058,116.77499,116.70175,115.10081,112.12098,108.54041,105.50306,104.03731,104.57381,106.69972,109.28494,110.93684,110.57545,107.85941,103.27039,97.839767,92.677979,88.548843,85.678909,83.843346,82.61956,81.632286,80.659477,79.58429,78.282845,76.565125,74.228516,71.189774,67.599571,63.854149,60.487137,57.999142,56.71212,56.705738,57.834949,59.786327,62.134743,64.396286,66.102745,66.913696,66.739609,65.809807,64.622673,63.773251,63.730152,64.675102,66.487648,68.870293,71.521927,74.243851,76.921097,79.423058,81.535072,83.01284,83.750412,83.942184,84.084831,84.74781,86.198051,88.0933,89.46257,89.049034,85.875931,79.74041,71.349602,61.995892,52.923882,44.721279,37.058933,28.913277,19.137657,7.0639777,-7.1822615,-22.788244,-38.667931,-53.905434,-67.963127,-80.566139,-91.399055,-99.880112,-105.23027,-106.85676,-104.84412,-100.23431,-94.858948,-90.726784,-89.234375,-90.600777,-93.839287,-97.306412,-99.555183,-100.04519,-99.33213,-98.646233,-99.113892,-101.08096,-103.93571,-106.53049,-107.9381,-108.0689,-107.75388,-108.22546,-110.30907,-113.83338,-117.64743,-120.26025,-120.72318,-119.20788,-116.91044,-115.33154,-115.38058,-116.87037,-118.7234,-119.75188,-119.49681,-118.56615,-118.23585,-119.5647,-122.6043,-126.23713,-128.77187,-128.92844,-126.5836,-122.79977,-119.12875,-116.65707,-115.42322,-114.57648,-113.1364,-110.79861,-108.20071,-106.44125,-106.1796,-106.96621,-107.32877,-105.63786,-101.2259,-95.012619,-89.166229,-85.938324,-86.359833,-89.607674,-93.453964,-95.536201,-94.671509,-91.413368,-87.535263,-84.807465,-83.87178,-83.933113,-83.437576,-81.25721,-77.572876,-73.851242,-71.909279,-72.659698,-75.345161,-77.763733,-77.365067,-72.556137,-63.436497,-51.549297,-38.843742,-26.51162,-14.404662,-1.3533249,13.850797,31.432413,50.186794,67.861542,82.132561,91.627602,96.467705,98.096153,98.547813,99.562447,101.95757,105.48747,109.16038,111.79903,112.57625,111.32175,108.52105,105.0527,101.80016,99.310387,97.641403,96.451347,95.260559,93.72757,91.775719,89.50795,86.997017,84.136909,80.706398,76.632904,72.260963,68.368317,65.809586,64.9375,65.173149,65.08828,63.081512,58.330006,51.443764,44.34819,39.355949,37.910622,39.748215,43.023121,45.372276,45.293465,42.985386,40.110626,38.621399,39.399899,41.604588,43.171097,42.166374,38.123783,32.476597,27.775713,26.160805,28.041609,31.818483,34.811298,34.805317,31.253508,25.426527,19.492371,15.176013,12.864218,11.666847,10.28703,8.0397024,5.3201313,3.2545829,2.8420036,4.2192311,6.5491014,8.5647173,9.3483057,8.7951775,7.4801788,6.0908518,4.8886395,3.6010783,1.794721,-0.5968588,-3.0343189,-4.6446743,-4.831089,-3.7734258,-2.4248154,-1.9551078,-2.9871702,-5.1364655,-7.1791015,-7.7637005,-6.2255807,-2.9962089,0.63707256,3.2568054,4.0760355,3.2928886,1.8763206,0.96851772,1.2861837,2.846056,5.1013331,7.3298965,9.0132742,10.018369,10.555413,11.0109,11.774729,13.119711,15.126074,17.631721,20.224863,22.323629,23.360334,23.013769,21.37191,18.920454,16.346416,14.260134,12.989986,12.550333,12.762119,13.406533,14.289348,15.187176,15.761335,15.566026,14.207426,11.579312,8.0119715,4.2012668,0.92261058,-1.3149865,-2.468184,-2.895479,-3.086236,-3.3710995,-3.8007019,-4.2463083,-4.6105533,-4.9613366,-5.4725718,-6.2172937,-6.9879551,-7.3140235,-6.7068086,-4.9860435,-2.4634955,0.16102101,2.1472728,3.0961611,3.1296201,2.7656069,2.583421,2.9013202,3.6611273,4.5597568,5.3009176,5.7776036,6.0726109,6.3128672,6.5183225,6.5733585,6.335938,5.7817049,5.0507603,4.3464446,3.7617373,3.1779678,2.3348484,1.0417539,-0.61435217,-2.2197146,-3.1933844,-3.0598032,-1.6588031,0.83744413,4.0951967,7.84512,12.004601,16.625355,21.727919,27.16024,32.584286,37.584766,41.800018,44.971752,46.89764,47.370945,46.214809,43.435772,39.395023,34.833504,30.657248,27.557863,25.690069,24.632668,23.694986,22.397751,20.818659,19.560129,19.339935,20.46615,22.551924,24.677309,25.905714,25.81633,24.696074,23.266466,22.146158,21.440287,20.762827,19.687195,18.298197,17.41523,18.259607,21.720371,27.675461,34.833302,41.252964,45.2724,46.305813,45.043121,42.953632,41.421879,41.050961,41.528988,42.071018,42.081501,41.571487,41.069702,41.133568,41.838776,42.623081,42.596878,41.101818,38.131836,34.337315,30.629068,27.670856,25.60891,24.199594,23.20331,22.724091,23.223648,25.184767,28.664619,33.07164,37.354218,40.506161,42.071777,42.326591,42.023026,41.876507,42.131882,42.483757,42.378387,41.46962,39.908783,38.274109,37.196014,36.936543,37.201561,37.299519,36.530178,34.549068,31.491749,27.817104,24.011061,20.358564,16.909702,13.609466,10.449431,7.5100393,4.8741727,2.511451,0.26134923,-2.0405552,-4.3790689,-6.4744697,-7.8999095,-8.358717,-7.945013,-7.1919618,-6.8359189,-7.4147205,-8.9457808,-10.899454,-12.505324,-13.214816,-13.034442,-12.516808,-12.409382,-13.179274,-14.714374,-16.393005,-17.482815,-17.622084,-17.083555,-16.654781,-17.204102,-19.190758,-22.406343,-26.090389,-29.339867,-31.567944,-32.756592,-33.38588,-34.116711,-35.432728,-37.441113,-39.909409,-42.464199,-44.795059,-46.736702,-48.211842,-49.123955,-49.320145,-48.68095,-47.28553,-45.524925,-44.050072,-43.539177,-44.389526,-46.502533,-49.29303,-51.934502,-53.721539,-54.367718,-54.097244,-53.505394,-53.283791,-53.961231,-55.774082,-58.685101,-62.483334,-66.873993,-71.513336,-76.014549,-79.987671,-83.146843,-85.444557,-87.135139,-88.683365,-90.52475,-92.796814,-95.213409,-97.19503,-98.217804,-98.190582,-97.619026,-97.415184,-98.418083,-100.88117,-104.2345,-107.29389,-108.83649,-108.23764,-105.80944,-102.63838,-100.00353,-98.700768,-98.655701,-99.040489,-98.814987,-97.366531,-94.870796,-92.169571,-90.251999,-89.661057,-90.183723,-91.006157,-91.231506,-90.441872,-88.963989,-87.680359,-87.500893,-88.810287,-91.216423,-93.74382,-95.354813,-95.495354,-94.35775,-92.725662,-91.509674,-91.250954,-91.871223,-92.788361,-93.299454,-92.98761,-91.916573,-90.522278,-89.298729,-88.489914,-87.977043,-87.413628,-86.50251,-85.22686,-83.888649,-82.937347,-82.702934,-83.198456,-84.103828,-84.925941,-85.230156,-84.813675,-83.747971,-82.305801,-80.846375,-79.726585,-79.254356,-79.651199,-80.988266,-83.10305,-85.555222,-87.689621,-88.825447,-88.509323,-86.714317,-83.878273,-80.753578,-78.136604,-76.601067,-76.34201,-77.165489,-78.584793,-79.953918,-80.591751,-79.892868,-77.440186,-73.112511,-67.14019,-60.049706,-52.480629,-44.937695,-37.600838,-30.304636,-22.709427,-14.571501,-5.9559727,2.7287853,10.882817,17.944994,23.559277,27.600498,30.100058,31.185461,31.116762,30.387827,29.755398,30.062794,31.861523,35.020336,38.605225,41.215725,41.698257,39.88147,36.883488,34.725227,35.370102,39.674778,46.842194,54.723709,60.845261,63.609634,63.014732,60.504749,58.076118,57.186501,58.102974,60.02634,61.836357,62.930069,63.603683,64.75872,67.170944,70.844772,74.904617,78.104156,79.615845,79.573799,79.00544,79.18824,80.842018,83.670235,86.535683,88.151451,87.851738,85.975273,83.653458,82.16629,82.27285,83.899666,86.316742,88.629822,90.258202,91.13208,91.558533,91.913086,92.384308,92.911354,93.297379,93.373932,93.095718,92.532616,91.811707,91.079773,90.505836,90.283119,90.581718,91.455788,92.773422,94.246651,95.573532,96.609482,97.441597,98.294769,99.322327,100.43426,101.30784,101.60041,101.22561,100.48376,99.91906,99.967216,100.62315,101.37349,101.47561,100.42652,98.317963,95.82946,93.844215,92.927628,93.008995,93.476067,93.614655,93.089516,92.133987,91.31636,91.045029,91.158592,90.893852,89.2696,85.64431,80.091141,73.360428,66.474739,60.233334,54.936565,50.464821,46.595196,43.292179,40.761654,39.257397,38.820503,39.172504,39.851612,40.485199,40.985622,41.519817,42.285133,43.279045,44.256031,44.913437,45.157661,45.224716,45.53318,46.360054,47.587017,48.735729,49.302402,49.163033,48.735073,48.731743,49.638851,51.273186,52.767262,53.055019,51.580425,48.762577,45.873505,44.353935,44.968521,47.32856,50.092869,51.731869,51.384922,49.290268,46.550388,44.42094,43.596127,43.927315,44.695011,45.184246,45.140995,44.81662,44.628231,44.738384,44.893764,44.644314,43.760983,42.507614,41.522552,41.356064,41.980911,42.645256,42.224293,39.888992,35.678432,30.597862,26.150688,23.565468,23.171349,24.286089,25.67033,26.26696,25.789356,24.831394,24.464556,25.581097,28.367514,32.19352,35.953773,38.653107,39.91227,40.135178,40.268093,41.289398,43.693493,47.223454,50.978523,53.839039,54.997368,54.330635,52.427467,50.255886,48.6497,47.894764,47.649193,47.246151,46.201698,44.616711,43.21101,42.943626,44.431976,47.523727,51.299694,54.530724,56.329006,56.60548,56.056427,55.690773,56.192421,57.509651,58.912254,59.456661,58.545029,56.220245,53.029346,49.580719,46.119793,42.421928,38.072796,32.932514,27.446444,22.561535,19.267733,18.035831,18.500872,19.595098,20.061867,19.056246,16.497046,12.995674,9.4407015,6.5056167,4.363605,2.743058,1.2443717,-0.30641884,-1.6919034,-2.4207859,-2.0520723,-0.53458983,1.6310374,3.5009685,4.0200548,2.4222643,-1.4835621,-7.2684412,-14.092594,-21.068321,-27.607325,-33.593723,-39.311253,-45.178299,-51.445705,-58.03149,-64.586922,-70.747383,-76.401138,-81.78788,-87.340027,-93.350288,-99.680801,-105.72977,-110.72307,-114.18394,-116.29072,-117.86584,-119.94896,-123.17474,-127.33069,-131.39977,-134.11749,-134.75102,-133.63905,-132.13658,-131.94273,-134.16331,-138.6429,-143.97191,-148.19456,-149.83305,-148.64838,-145.70268,-142.6931,-140.95447,-140.72136,-141.08075,-140.62958,-138.42673,-134.65337,-130.57568,-127.8299,-127.46138,-129.29961,-132.04601,-134.02142,-134.12468,-132.43275,-130.09618,-128.60919,-128.90355,-130.8062,-133.16797,-134.56203,-134.11844,-131.99927,-129.25365,-127.16826,-126.51692,-127.14694,-128.11745,-128.27393,-126.90631,-124.12269,-120.76431,-117.95486,-116.55805,-116.82243,-118.34814,-120.32525,-121.87852,-122.35515,-121.47505,-119.35163,-116.42849,-113.36171,-110.85117,-109.4303,-109.2663,-110.06263,-111.14395,-111.7242,-111.24996,-109.64311,-107.29507,-104.78775,-102.46983,-100.1115,-96.837822,-91.406609,-82.722672,-70.358681,-54.846016,-37.604649,-20.541946,-5.4857807,6.3289776,14.542794,19.649252,22.712231,24.951048,27.350662,30.425247,34.194016,38.343552,42.481319,46.355717,49.943466,53.375271,56.755898,59.991505,62.734379,64.490311,64.840919,63.663509,61.226097,58.099976,54.930565,52.183186,49.990501,48.168358,46.374222,44.31147,41.872234,39.161171,36.416039,33.891911,31.776287,30.161604,29.053753,28.376911,27.955786,27.496927,26.614202,24.926725,22.207218,18.509787,14.196826,9.8299341,5.9660649,2.9606204,0.88135988,-0.42523855,-1.1653476,-1.4404716,-1.2069694,-0.37967676,0.99474412,2.6268613,4.0407634,4.798665,4.7768593,4.318562,4.1375327,4.9816113,7.2131338,10.534544,14.031902,16.547968,17.215397,15.881524,13.20029,10.334953,8.4187632,8.0475044,9.0581951,10.692486,12.03831,12.502392,12.064488,11.198769,10.537392,10.488462,11.028994,11.775711,12.265756,12.258339,11.866266,11.440249,11.287361,11.410557,11.445581,10.850605,9.2455721,6.697504,3.767436,1.2664015,-0.16210452,-0.40540907,0.021574415,0.22095977,-0.61378706,-2.7386017,-5.6633854,-8.3376455,-9.6349297,-8.8930178,-6.2323847,-2.4898531,1.1929154,3.9032297,5.3289218,5.7775278,5.8537774,6.0001059,6.1809654,5.9037805,4.565465,1.9125998,-1.6739188,-5.261312,-7.7875824,-8.58813,-7.7189164,-5.8844819,-4.0148792,-2.7478077,-2.1271732,-1.6900622,-0.86643165,0.58222204,2.3790603,3.9232774,4.7226205,4.7659779,4.5698714,4.85045,6.0303893,7.9136553,9.7612152,10.73839,10.452034,9.2253008,7.9211745,7.4199686,8.0845165,9.556447,11.008433,11.677307,11.32265,10.315781,9.3209772,8.8062468,8.7256622,8.5807581,7.7941289,6.1114373,3.7423196,1.1570579,-1.2794315,-3.5300782,-5.7707229,-8.0158539,-9.7924719,-10.175923,-8.2601681,-3.8051491,2.3766625,8.6165085,13.132117,14.911898,14.209812,12.33883,10.883266,10.816339,12.064662,13.765423,15.009014,15.550162,16.008787,17.437628,20.5644,25.230524,30.406569,34.769161,37.449188,38.45961,38.545185,38.595467,39.048054,39.688583,39.951763,39.46505,38.41124,37.432301,37.144424,37.630844,38.308685,38.303696,37.096447,34.989155,33.042049,32.480991,33.943726,37.057671,40.635544,43.372074,44.595654,44.594933,44.324135,44.700611,45.97039,47.559181,48.493073,48.091354,46.458748,44.447536,43.118965,43.06485,44.036457,45.118343,45.32655,44.240974,42.273239,40.417019,39.65834,40.422638,42.385937,44.727901,46.629341,47.691246,48.042423,48.126774,48.36145,48.906006,49.667549,50.484966,51.318371,52.291378,53.563343,55.14286,56.795647,58.12495,58.773239,58.605873,57.753536,56.493061,55.058636,53.516777,51.782833,49.749626,47.418686,44.928905,42.458405,40.072781,37.635109,34.851929,31.435801,27.285353,22.572077,17.683353,13.059394,9.0183878,5.6571751,2.8579099,0.36968586,-2.0916431,-4.7646756,-7.7884421,-11.15861,-14.69144,-18.01988,-20.655256,-22.121984,-22.124405,-20.669617,-18.079285,-14.876264,-11.597643,-8.6209059,-6.0741434,-3.8485332,-1.681131,0.74088722,3.6842012,7.285049,11.475906,15.946619,20.186388,23.638729,25.93819,27.120897,27.672409,28.338503,29.759592,32.117508,35.011799,37.670422,39.400761,40.02132,39.999573,40.183716,41.26738,43.308826,45.615124,47.091095,46.865982,44.828663,41.744026,38.869522,37.289619,37.35162,38.517601,39.692204,39.809059,38.330418,35.403801,31.651737,27.786459,24.305889,21.417717,19.152391,17.502565,16.447887,15.857236,15.391155,14.546067,12.870572,10.229468,6.9184561,3.512177,0.51423532,-1.9609402,-4.235846,-6.7763085,-9.7271318,-12.596036,-14.345165,-13.902205,-10.820316,-5.6853008,0.013447143,4.5252695,6.6620836,6.3529091,4.6261215,3.0413842,2.8986084,4.6558819,7.8404765,11.438683,14.48898,16.528648,17.681173,18.413788,19.181913,20.202562,21.468235,22.931173,24.679708,26.956335,29.997639,33.810722,38.049194,42.087662,45.268101,47.188023,47.881111,47.806931,47.668278,48.149891,49.688457,52.348606,55.828423,59.578133,62.994663,65.639725,67.414177,68.615593,69.830887,71.681114,74.517624,78.219635,82.216209,85.747978,88.245598,89.618103,90.276993,90.867775,91.859138,93.241173,94.532288,95.110847,94.675934,93.539215,92.531906,92.540886,93.931419,96.213844,98.193321,98.561417,96.610687,92.653137,87.874107,83.677605,80.88578,79.255898,77.602798,74.460571,68.896004,60.994278,51.735188,42.348217,33.551556,25.147778,16.223707,5.822628,-6.3411222,-19.584288,-32.573112,-44.068954,-53.637638,-61.871552,-69.969139,-78.914207,-88.752815,-98.420074,-106.24809,-110.88232,-112.08811,-110.98501,-109.56844,-109.7738,-112.58148,-117.62228,-123.45764,-128.3499,-131.10231,-131.55226,-130.51628,-129.27924,-128.93053,-129.88528,-131.7944,-133.83458,-135.1924,-135.48883,-134.94695,-134.24388,-134.13866,-135.06726,-136.90811,-139.03937,-140.66864,-141.27507,-140.9334,-140.3325,-140.4518,-142.04489,-145.20412,-149.25665,-153.07349,-155.63898,-156.56734,-156.26746,-155.65451,-155.57578,-156.29791,-157.37361,-157.97722,-157.50374,-156.05013,-154.45781,-153.86246,-155.00847,-157.74614,-161.03111,-163.44757,-163.95845,-162.44911,-159.75749,-157.19289,-155.84288,-156.07008,-157.45511,-159.15341,-160.39391,-160.8037,-160.40749,-159.3927,-157.88011,-155.8943,-153.53468,-151.15715,-149.33829,-148.54813,-148.69743,-148.8755,-147.52879,-143.07079,-134.62083,-122.44478,-107.81248,-92.326363,-77.102104,-62.288181,-47.215214,-31.084871,-13.772656,3.7581632,19.703995,32.204697,40.219288,44.000847,44.923122,44.791889,45.053158,46.326168,48.450203,50.907806,53.283226,55.451706,57.427143,59.052975,59.827915,59.04887,56.212734,51.416954,45.476665,39.648415,35.100643,32.432297,31.508194,31.679792,32.227299,32.74435,33.254959,34.045486,35.374443,37.272095,39.540379,41.899113,44.122307,46.042141,47.433773,47.919727,47.041607,44.52121,40.561756,35.956535,31.857796,29.273682,28.564775,29.255411,30.308243,30.726383,30.128613,28.94128,28.080658,28.321173,29.749949,31.657572,32.936359,32.729794,30.916523,28.125801,25.294327,23.076471,21.507963,20.137264,18.50716,16.620274,15.031197,14.472952,15.266457,16.940161,18.370409,18.409363,16.624001,13.662965,10.981067,10.054541,11.551862,14.965869,18.930613,22.020681,23.535288,23.792299,23.779657,24.420246,25.938389,27.728319,28.785294,28.395847,26.629419,24.31966,22.562,22.060579,22.737898,23.837399,24.43235,24.011057,22.783375,21.545168,21.210443,22.303524,24.697336,27.715036,30.499838,32.429108,33.360802,33.620647,33.780197,34.362141,35.611401,37.413197,39.365089,40.953644,41.758194,41.60297,40.60067,39.0742,37.396812,35.831501,34.450108,33.164932,31.833776,30.352905,28.667822,26.70405,24.29682,21.216076,17.315416,12.722178,7.9163108,3.5865934,0.29617223,-1.85613,-3.3441951,-4.9741149,-7.3994098,-10.681963,-14.197821,-16.990278,-18.382946,-18.473295,-18.173035,-18.733101,-21.020975,-24.988701,-29.662523,-33.662041,-35.927914,-36.21809,-35.098675,-33.491009,-32.111736,-31.175827,-30.512243,-29.934149,-29.532665,-29.64533,-30.521278,-31.959158,-33.238609,-33.461189,-32.107174,-29.427282,-26.368778,-24.039104,-23.030945,-23.044519,-23.061745,-21.969669,-19.238039,-15.224571,-10.929923,-7.3814473,-5.0513277,-3.6661527,-2.4879134,-0.83750677,1.5015032,4.2438898,6.9046321,9.1919756,11.208503,13.340294,15.943153,19.064486,22.390923,25.438496,27.838999,29.534763,30.783485,32.010689,33.623722,35.878559,38.81424,42.22438,45.660404,48.518177,50.264336,50.767227,50.560284,50.805584,52.838089,57.432411,64.183655,71.435387,76.934143,78.954323,77.287552,73.481697,70.102989,69.375618,71.966187,76.64286,81.039726,83.087067,82.246857,79.798416,78.000069,78.650131,81.94326,86.327637,89.436935,89.501663,86.363846,81.495064,77.061005,74.663597,74.55162,75.74012,76.869514,77.174965,76.917702,77.038177,78.332336,80.757118,83.350517,84.807129,84.3013,81.998795,78.932381,76.356918,75.035591,74.919144,75.377373,75.754959,75.824989,75.830444,76.13356,76.786949,77.386688,77.339676,76.350197,74.74749,73.374489,73.070236,74.081375,75.81356,77.121574,76.979736,75.115486,72.204079,69.501312,68.144325,68.547157,70.235947,72.178055,73.360245,73.255592,71.941498,69.884407,67.606209,65.467712,63.65749,62.293686,61.472408,61.178509,61.133804,60.755714,59.346085,56.456989,52.216785,47.378212,43.003616,39.935638,38.355148,37.691311,36.938427,35.187149,32.054985,27.779865,22.962254,18.155903,13.576958,9.0922699,4.4474907,-0.4562059,-5.435226,-10.119424,-14.183774,-17.547468,-20.413322,-23.14049,-26.048716,-29.274706,-32.74107,-36.216244,-39.403664,-42.018536,-43.853615,-44.850006,-45.157722,-45.129639,-45.196892,-45.646084,-46.414574,-47.058418,-46.970863,-45.766533,-43.603046,-41.20435,-39.513218,-39.145878,-39.986065,-41.208046,-41.764179,-41.062981,-39.407478,-37.882877,-37.720821,-39.514172,-42.778759,-46.16209,-48.196297,-48.140697,-46.390106,-44.192406,-42.854782,-42.941978,-43.970646,-44.781258,-44.332836,-42.400524,-39.729755,-37.561302,-36.84811,-37.674362,-39.242455,-40.418236,-40.468575,-39.516479,-38.437576,-38.287121,-39.637821,-42.244301,-45.222046,-47.598179,-48.873035,-49.254272,-49.454746,-50.219856,-51.893932,-54.272884,-56.78492,-58.839283,-60.110836,-60.612911,-60.572247,-60.240677,-59.783009,-59.287605,-58.837269,-58.539467,-58.467594,-58.55991,-58.577991,-58.193619,-57.173973,-55.545197,-53.607853,-51.768379,-50.28199,-49.079884,-47.81612,-46.130913,-43.974339,-41.771935,-40.292019,-40.254951,-41.896957,-44.753693,-47.819038,-50.01989,-50.755764,-50.199844,-49.184486,-48.727528,-49.461815,-51.285206,-53.421181,-54.844738,-54.824703,-53.278973,-50.761658,-48.120506,-46.04678,-44.779293,-44.106148,-43.613522,-42.986927,-42.163509,-41.259102,-40.36031,-39.363922,-38.003494,-36.056282,-33.579704,-30.987356,-28.875212,-27.683905,-27.41275,-27.590204,-27.549425,-26.853918,-25.602133,-24.398056,-23.980455,-24.729612,-26.367887,-28.065849,-28.915081,-28.487179,-27.124441,-25.75849,-25.343954,-26.245152,-27.962122,-29.387926,-29.46492,-27.852886,-25.198803,-22.827904,-22.022102,-23.303335,-26.140615,-29.248322,-31.293308,-31.593412,-30.409746,-28.691822,-27.463539,-27.237179,-27.795002,-28.427547,-28.430738,-27.523254,-25.929836,-24.116968,-22.397585,-20.690298,-18.591064,-15.687997,-11.884531,-7.5027986,-3.1064966,0.81465024,4.0643973,6.7125373,8.8650608,10.438182,11.146197,10.749337,9.3918409,7.7551918,6.8478603,7.5007682,9.8687744,13.282472,16.597916,18.869349,19.933622,20.517239,21.763647,24.456696,28.436069,32.60466,35.55909,36.463886,35.606949,34.252861,33.850674,35.077156,37.326752,38.999146,38.43961,34.969238,29.370981,23.525473,19.412207,18.078382,19.18416,21.361441,23.115173,23.678364,23.300407,22.845131,23.0306,23.856567,24.606565,24.398733,22.879093,20.558891,18.550665,17.876692,18.81938,20.754597,22.578209,23.431942,23.234007,22.659212,22.595282,23.463541,24.884575,25.928858,25.783619,24.370989,22.474712,21.26248,21.506821,23.026873,24.742851,25.336464,24.10619,21.465767,18.753292,17.456175,18.329102,20.948235,23.966032,25.891876,25.907404,24.228254,21.830223,19.758802,18.477482,17.643795,16.397596,13.918698,9.873436,4.4939318,-1.6895219,-8.2149162,-14.878595,-21.64592,-28.408077,-34.822472,-40.390324,-44.719292,-47.754143,-49.768826,-51.096783,-51.797211,-51.538872,-49.849407,-46.60601,-42.424305,-38.608238,-36.579762,-37.061714,-39.504978,-42.168251,-42.900017,-40.245708,-34.273495,-26.63427,-19.786495,-15.785675,-15.285545,-17.279581,-19.698185,-20.511032,-18.728251,-14.782162,-10.135421,-6.3851266,-4.3806548,-3.8253124,-3.537178,-2.1796803,0.96420991,5.5952873,10.574635,14.55503,16.712175,17.177746,16.941431,17.273325,18.975512,21.869968,24.814859,26.265766,25.101889,21.27895,15.944176,10.9279,7.8653331,7.4143491,8.9922533,11.171774,12.507716,12.323744,11.016128,9.7157021,9.5236177,10.779251,12.787748,14.154277,13.516565,10.250175,4.7641864,-1.7340465,-7.8194923,-12.424342,-15.116263,-16.011719,-15.482686,-13.902255,-11.585001,-8.8962603,-6.3676219,-4.6575089,-4.3248882,-5.54071,-7.9320679,-10.688271,-12.902099,-13.975585,-13.878789,-13.130985,-12.522168,-12.719838,-13.948417,-15.877805,-17.754711,-18.709942,-18.114666,-15.848993,-12.379848,-8.6108246,-5.5504956,-3.9245248,-3.8962567,-5.0287766,-6.516736,-7.5809913,-7.8267655,-7.3781934,-6.7238965,-6.3739929,-6.5385056,-7.0180454,-7.3593698,-7.1578846,-6.299943,-4.9880686,-3.5485375,-2.1734054,-0.79244775,0.82706279,2.8239968,5.022521,6.923799,7.943769,7.7576814,6.5294375,4.8701854,3.540133,3.066865,3.4973147,4.4079547,5.1375513,5.0890236,3.9402714,1.6944629,-1.3909249,-4.908958,-8.3869009,-11.359047,-13.467349,-14.590389,-14.932964,-14.982682,-15.299812,-16.223665,-17.665665,-19.136599,-20.019011,-19.931438,-18.95755,-17.593948,-16.458122,-15.962358,-16.177208,-16.959808,-18.212755,-20.02837,-22.556402,-25.662113,-28.64987,-30.343721,-29.599939,-26.006773,-20.330738,-14.357929,-10.128766,-8.9602242,-10.823634,-14.460462,-18.171316,-20.786945,-22.207689,-23.17334,-24.428905,-25.856997,-26.183777,-23.501926,-16.323402,-4.5224495,10.414469,25.988272,39.774578,50.361217,57.633129,62.341515,65.338547,67.018906,67.298592,66.048157,63.577744,60.761673,58.681767,58.03965,58.768112,60.132351,61.258324,61.715714,61.742458,61.957905,62.78558,64.023277,64.89756,64.588058,62.854252,60.300926,58.056866,57.05537,57.404152,58.297058,58.561882,57.49675,55.4282,53.58847,53.356991,55.34391,58.91671,62.495316,64.445282,64.011116,61.709026,58.951721,57.169724,56.997787,58.020294,59.180382,59.526978,58.787632,57.422009,56.192539,55.610527,55.659317,55.951717,56.141422,56.229923,56.516228,57.23703,58.206223,58.782055,58.246334,56.352562,53.635654,51.210346,50.135414,50.742302,52.383781,53.797585,53.8713,52.318604,49.826122,47.576923,46.466301,46.522026,46.895138,46.403572,44.254452,40.477524,35.82254,31.240114,27.322617,24.062654,21.029015,17.764187,14.087164,10.109928,6.0291586,1.9298331,-2.2015827,-6.2701774,-9.8945074,-12.49794,-13.704476,-13.793099,-13.835057,-15.291976,-19.21377,-25.5,-32.729759,-38.758232,-41.799107,-41.374634,-38.55677,-35.337574,-33.499264,-33.661663,-35.067772,-36.201832,-35.82098,-33.748497,-30.960995,-28.966671,-28.905718,-30.933434,-34.214584,-37.445797,-39.51585,-39.899666,-38.632057,-36.016956,-32.370789,-27.994244,-23.322493,-19.027985,-15.883944,-14.411339,-14.551173,-15.640997,-16.781157,-17.383867,-17.528589,-17.843958,-18.955248,-20.860504,-22.691933,-23.093222,-21.03286,-16.551609,-10.937312,-6.1561627,-3.8382554,-4.4137697,-6.9223084,-9.6120815,-10.96231,-10.509334,-8.9910088,-7.7552605,-7.8290071,-9.2329226,-10.948654,-11.527565,-9.9443598,-6.1795363,-1.2139853,3.5111516,6.8167725,8.2805271,8.283597,7.6751122,7.313858,7.7466297,9.1274309,11.305789,13.93961,16.547153,18.529299,19.257278,18.275543,15.551932,11.61834,7.4669352,4.2004247,2.5926106,2.7872612,4.2935295,6.2669616,7.9059801,8.7467289,8.7274122,8.0491858,6.9751086,5.710206,4.4075146,3.2309783,2.366014,1.9296706,1.8422266,1.7868075,1.3430617,0.25402057,-1.3364432,-2.8584397,-3.5732505,-3.0003614,-1.2687218,0.84110963,2.2334177,2.0603986,0.21450493,-2.5248611,-4.7861304,-5.2049561,-3.0367904,1.5051653,7.3272972,12.888518,16.782902,18.233562,17.331324,14.969566,12.529959,11.432778,12.685153,16.556202,22.48299,29.255642,35.439457,39.890224,42.156349,42.587029,42.08802,41.635624,41.786652,42.431923,42.918015,42.468487,40.676506,37.803349,34.721329,32.526054,32.011841,33.269577,35.602734,37.804493,38.674328,37.548782,34.616333,30.875105,27.737516,26.433443,27.458303,30.311699,33.663803,35.901447,35.820885,33.142502,28.588083,23.470158,18.99757,15.661701,13.032314,10.066371,5.7391849,-0.38072214,-7.9551826,-16.192781,-24.443184,-32.675385,-41.515442,-51.797253,-63.894955,-77.256233,-90.445663,-101.7029,-109.71211,-114.15755,-115.77316,-115.89332,-115.78583,-116.13759,-116.9315,-117.70261,-117.95663,-117.48877,-116.45547,-115.22691,-114.16343,-113.45858,-113.10531,-112.95248,-112.78796,-112.41299,-111.71129,-110.71831,-109.6605,-108.90815,-108.81366,-109.49001,-110.66069,-111.71012,-111.95644,-111.0171,-109.04695,-106.68049,-104.68766,-103.54395,-103.18477,-103.1009,-102.70439,-101.70683,-100.24295,-98.65596,-97.112419,-95.351891,-92.791679,-88.948822,-83.891441,-78.375999,-73.522461,-70.201286,-68.529724,-67.830078,-67.103935,-65.719254,-63.842926,-62.306576,-61.976322,-63.050236,-64.781006,-65.850388,-65.179245,-62.64159,-59.188084,-56.261936,-54.865292,-54.884846,-55.136833,-54.128819,-51.062817,-46.433208,-41.823517,-39.017044,-38.975922,-41.324493,-44.645317,-47.375824,-48.718704,-48.988831,-49.197273,-50.168015,-51.774277,-52.791386,-51.462593,-46.429493,-37.469337,-25.624002,-12.688173,-0.39406762,10.236813,19.064007,26.529575,33.163712,39.220989,44.617664,49.110847,52.521278,54.829994,56.124821,56.505348,56.07217,55.023476,53.754471,52.816387,52.686024,53.45974,54.690468,55.53698,55.203072,53.432167,50.740803,48.199287,46.838619,47.014099,48.118446,48.854366,47.945599,44.887447,40.289963,35.59137,32.288334,31.121948,31.69319,32.732166,32.859638,31.388224,28.691256,25.929482,24.311531,24.33881,25.487505,26.511724,26.180002,24.005579,20.546076,17.111073,15.062694,15.116336,17.024464,19.784523,22.209625,23.5163,23.614298,22.988287,22.304071,22.005482,22.12985,22.40403,22.506647,22.301926,21.900921,21.537584,21.36692,21.328884,21.1633,20.556974,19.323772,17.506912,15.348351,13.151231,11.119219,9.2622776,7.415874,5.3580403,2.9592259,0.28642318,-2.3915932,-4.699923,-6.3040633,-7.0295129,-6.8895822,-6.0070329,-4.4794674,-2.2792139,0.73334408,4.6705365,9.4262419,14.55957,19.357948,23.088873,25.332027,26.216043,26.416538,26.893148,28.48629,31.572975,35.946747,40.95945,45.820934,49.882473,52.768406,54.335129,54.54631,53.388031,50.891651,47.2346,42.822849,38.269512,34.258636,31.362572,29.90715,29.937134,31.262871,33.526772,36.245892,38.844025,40.726654,41.430893,40.80838,39.131145,37.015438,35.154476,33.98357,33.474815,33.20565,32.681412,31.717833,30.62715,30.059834,30.576735,32.221165,34.389267,36.123539,36.67881,36.010872,34.857212,34.320854,35.187855,37.398911,40.022404,41.772228,41.766426,40.055954,37.584137,35.591888,34.839592,35.142006,35.519157,34.870979,32.739525,29.656092,26.833431,25.391058,25.617609,26.765203,27.531837,26.9314,24.976299,22.695377,21.433592,21.864923,23.378157,24.300314,22.906376,18.64164,12.791515,8.1133003,7.5455194,12.673157,22.806023,35.202557,46.33091,53.482082,55.876625,54.727276,52.328476,50.76746,50.989693,52.65353,54.694641,56.123989,56.53495,56.08392,55.105026,53.745987,51.930416,49.650284,47.307411,45.768387,46.01001,48.551716,53.059361,58.417259,63.258549,66.632088,68.388786,69.059883,69.342934,69.568069,69.509613,68.647331,66.655876,63.743458,60.581684,57.876217,55.898037,54.329079,52.547623,50.152264,47.336845,44.823334,43.373966,43.216225,43.797447,44.071266,43.148987,40.881924,37.969036,35.497433,34.212593,34.012249,34.02166,33.223003,31.232794,28.70475,27.062927,27.697321,31.102793,36.488701,42.102325,46.079296,47.328667,45.962341,43.070293,40.029957,37.781479,36.468464,35.584671,34.46003,32.752449,30.663177,28.799194,27.819643,28.096905,29.566347,31.796829,34.191803,36.194252,37.415352,37.678543,37.01289,35.623283,33.838383,32.025932,30.485628,29.360527,28.614931,28.093559,27.622334,27.077345,26.366627,25.334316,23.664753,20.884144,16.506941,10.278213,2.3824973,-6.5202079,-15.492613,-23.686571,-30.705683,-36.771339,-42.583801,-48.921879,-56.167999,-64.002663,-71.446922,-77.266457,-80.562836,-81.261429,-80.229256,-78.921806,-78.695129,-80.110069,-82.593262,-84.666336,-84.672592,-81.660049,-75.968788,-69.195305,-63.516819,-60.697159,-61.276962,-64.366814,-68.148193,-70.811127,-71.427086,-70.301674,-68.647774,-67.798836,-68.426735,-70.20414,-72.077263,-72.956581,-72.399101,-70.877312,-69.484673,-69.259239,-70.522476,-72.610733,-74.146553,-73.695938,-70.458839,-64.643921,-57.36676,-50.163006,-44.384464,-40.763149,-39.299892,-39.451321,-40.455879,-41.61787,-42.445477,-42.651833,-42.104046,-40.806133,-38.941082,-36.923023,-35.37553,-34.980797,-36.222404,-39.125736,-43.135048,-47.22673,-50.254673,-51.40329,-50.549088,-48.3493,-45.989544,-44.684402,-45.15517,-47.335102,-50.450508,-53.440262,-55.501514,-56.481308,-56.914257,-57.696457,-59.580822,-62.770721,-66.82457,-70.903152,-74.2006,-76.310295,-77.337402,-77.735336,-78.007607,-78.47628,-79.243149,-80.318459,-81.771675,-83.75396,-86.354088,-89.397087,-92.366257,-94.564384,-95.462982,-95.032997,-93.822075,-92.680626,-92.265915,-92.62323,-93.132507,-92.90239,-91.407516,-88.978004,-86.79528,-86.318504,-88.41143,-92.651466,-97.242752,-99.643555,-97.629189,-90.269028,-78.339417,-63.995667,-49.906208,-38.296543,-30.333696,-26.04258,-24.646362,-25.044838,-26.169994,-27.130924,-27.23723,-26.04656,-23.495121,-20.028095,-16.575039,-14.281599,-14.071665,-16.254028,-20.395193,-25.537123,-30.63641,-34.974277,-38.321194,-40.809723,-42.65654,-43.952301,-44.658401,-44.778343,-44.534622,-44.379372,-44.795536,-46.008465,-47.803604,-49.578835,-50.599792,-50.290203,-48.376167,-44.819298,-39.63168,-32.747066,-24.06908,-13.670127,-1.9864762,10.157269,21.747089,31.898384,40.108955,46.311031,50.730694,53.689075,55.494114,56.468067,57.021774,57.635841,58.689293,60.229103,61.873257,62.988583,63.099022,62.285336,61.287785,61.17939,62.755833,66.00267,69.992462,73.317307,74.825554,74.227226,72.204193,69.96991,68.569595,68.364891,69.006096,69.857178,70.536324,71.174995,72.219238,73.94091,76.048058,77.722809,78.109123,76.934929,74.824554,73.038689,72.757675,74.345596,77.074623,79.513275,80.361687,79.226013,76.852547,74.674316,73.946571,74.995529,77.026512,78.591888,78.427124,76.16394,72.528358,68.948112,66.823898,66.872948,68.865959,71.832619,74.567535,76.155754,76.286522,75.269135,73.807335,72.663925,72.349983,72.937439,74.049324,75.034584,75.275078,74.507416,73.007019,71.517456,70.922882,71.807472,74.1325,77.221695,80.081261,81.883728,82.338684,81.736061,80.649963,79.507042,78.311073,76.70945,74.352112,71.283165,68.066261,65.512772,64.153275,63.787949,63.432888,61.745255,57.705681,51.157009,42.869572,34.087471,25.832134,18.392107,11.310034,3.8595526,-4.3111482,-12.802532,-20.615919,-26.751675,-30.870844,-33.580528,-36.130093,-39.677361,-44.564796,-50.05447,-54.696548,-57.118816,-56.76709,-54.160728,-50.531372,-47.093987,-44.415428,-42.26339,-39.99395,-37.182838,-34.052269,-31.391714,-30.018646,-30.145466,-31.097908,-31.611866,-30.558121,-27.651995,-23.691206,-20.145332,-18.321369,-18.598581,-20.192453,-21.590973,-21.404375,-19.128799,-15.389264,-11.548112,-8.9390259,-8.1854448,-8.9779205,-10.386507,-11.468346,-11.786717,-11.557358,-11.393705,-11.864017,-13.152985,-15.01183,-16.975451,-18.66544,-19.977215,-21.059677,-22.144918,-23.369118,-24.699949,-25.987347,-27.065636,-27.818806,-28.177319,-28.088573,-27.529158,-26.58359,-25.537447,-24.889574,-25.221516,-26.958317,-30.146736,-34.394547,-39.033463,-43.432861,-47.28849,-50.712086,-54.062683,-57.621975,-61.324131,-64.730553,-67.29538,-68.779854,-69.557373,-70.585793,-73.00132,-77.514801,-83.934166,-91.103149,-97.340439,-101.18977,-102.10281,-100.68778,-98.374466,-96.659637,-96.332489,-97.100182,-97.818382,-97.195351,-94.57103,-90.329124,-85.709229,-82.129562,-80.40834,-80.323898,-80.750336,-80.272095,-77.914658,-73.584892,-68.007965,-62.251465,-57.153416,-52.98806,-49.518642,-46.330296,-43.176151,-40.099144,-37.27615,-34.735409,-32.184093,-29.097544,-25.030279,-19.945526,-14.335153,-9.0310993,-4.8050146,-1.9874188,-0.3259939,0.84356761,2.2262619,4.2180347,6.7721081,9.5360355,12.152407,14.528244,16.90943,19.719431,23.260643,27.453735,31.768175,35.393845,37.576664,37.955578,36.734623,34.602314,32.432739,30.910088,30.257904,30.204269,30.195414,29.741091,28.703865,27.372986,26.282114,25.875771,26.220213,26.934462,27.393887,27.100004,26.009018,24.628233,23.816994,24.392736,26.75,30.689499,35.536682,40.47398,44.907204,48.685062,52.083988,55.596527,59.651325,64.404732,69.685661,75.08876,80.144424,84.475456,87.876808,90.30452,91.804909,92.438461,92.247543,91.288994,89.713104,87.836807,86.148315,85.204727,85.438301,86.947266,89.378555,91.986412,93.87442,94.33345,93.127579,90.591919,87.492516,84.714409,82.927444,82.382874,82.917328,84.128159,85.602158,87.070839,88.42971,89.649475,90.667534,91.343689,91.505203,91.038315,89.952583,88.370338,86.452644,84.321739,82.0401,79.658875,77.28727,75.108452,73.299927,71.891335,70.657227,69.146477,66.878456,63.626179,59.628201,55.582718,52.385986,50.72567,50.740475,51.939991,53.444134,54.42078,54.481342,53.812141,52.971214,52.478748,52.45443,52.52813,52.082535,50.67886,48.39637,45.861504,43.928608,43.190411,43.608871,44.49482,44.862228,43.961121,41.685226,38.621681,35.716457,33.74873,32.910374,32.717728,32.287289,30.803497,27.911894,23.832214,19.158232,14.488058,10.109138,5.9084568,1.5321836,-3.3275559,-8.7040501,-14.319937,-19.752594,-24.687546,-29.098665,-33.243851,-37.478359,-41.996414,-46.65316,-50.972927,-54.345562,-56.311108,-56.789665,-56.147762,-55.079453,-54.368389,-54.639462,-56.191257,-58.945145,-62.493713,-66.209442,-69.384178,-71.387482,-71.830231,-70.6959,-68.378647,-65.57798,-63.056644,-61.347256,-60.541954,-60.275894,-59.920177,-58.884369,-56.866573,-53.923786,-50.349361,-46.463528,-42.4674,-38.449612,-34.512718,-30.892138,-27.946367,-26.000456,-25.150274,-25.183142,-25.697319,-26.3538,-27.080687,-28.065872,-29.521685,-31.385166,-33.193428,-34.272343,-34.153244,-32.94125,-31.348927,-30.312965,-30.405338,-31.430168,-32.517323,-32.710129,-31.693302,-30.162922,-29.526232,-31.041527,-34.90102,-39.854446,-43.679516,-44.291553,-40.868744,-34.325577,-26.83832,-20.690655,-17.113935,-15.789195,-15.264128,-13.980199,-11.254086,-7.6254115,-4.4107895,-2.8071952,-3.1448832,-4.7517185,-6.4673929,-7.4258142,-7.5771294,-7.6261272,-8.466486,-10.516653,-13.404638,-16.195221,-17.987122,-18.474466,-18.110319,-17.784586,-18.243164,-19.624781,-21.394188,-22.686026,-22.823307,-21.692572,-19.776743,-17.870779,-16.682514,-16.551287,-17.404285,-18.909639,-20.684475,-22.427179,-23.9345,-25.057257,-25.677929,-25.750036,-25.368111,-24.796978,-24.409105,-24.540701,-25.334965,-26.655046,-28.113855,-29.208946,-29.504278,-28.78771,-27.151218,-24.972647,-22.807686,-21.223415,-20.621538,-21.109253,-22.469734,-24.254978,-25.973862,-27.299704,-28.201818,-28.934086,-29.880493,-31.331135,-33.30069,-35.483025,-37.368061,-38.46637,-38.53381,-37.688404,-36.362038,-35.105579,-34.333138,-34.12167,-34.162952,-33.901257,-32.805099,-30.650023,-27.668713,-24.474871,-21.776085,-20.008585,-19.087479,-18.423037,-17.216188,-14.885339,-11.388371,-7.252728,-3.2944508,-0.19729258,1.7873129,2.8348689,3.2543223,3.1218145,2.115288,-0.3074896,-4.4859519,-10.176958,-16.506577,-22.337988,-26.85886,-30.023073,-32.550274,-35.460659,-39.426891,-44.354652,-49.462967,-53.809811,-56.912182,-59.043873,-61.00922,-63.546986,-66.775841,-70.073311,-72.490334,-73.434975,-73.160645,-72.705719,-73.286575,-75.512955,-78.929459,-82.197365,-83.833557,-83.073288,-80.342369,-77.059898,-74.893799,-74.905182,-77.058899,-80.336212,-83.327873,-84.933937,-84.788803,-83.242432,-81.004532,-78.723846,-76.746658,-75.130043,-73.807549,-72.736343,-71.919403,-71.324913,-70.81263,-70.162361,-69.205948,-67.968727,-66.706413,-65.79155,-65.510483,-65.897552,-66.712631,-67.57618,-68.177422,-68.430573,-68.493973,-68.654739,-69.157852,-70.077682,-71.290192,-72.539627,-73.548996,-74.118675,-74.182091,-73.813652,-73.194748,-72.542435,-72.011063,-71.598114,-71.108742,-70.229012,-68.708351,-66.572655,-64.232567,-62.370087,-61.594788,-62.010872,-62.934589,-62.969814,-60.478024,-54.251678,-44.051441,-30.704214,-15.682924,-0.38386342,14.492246,29.090519,43.986343,59.451866,74.867027,88.678589,98.99794,104.53971,105.3746,103.04752,99.961548,98.344582,99.350822,102.76041,107.38487,111.88195,115.47541,118.1821,120.48907,122.77235,124.88654,126.20338,126.05181,124.23567,121.2589,118.09581,115.65682,114.30328,113.72482,113.24258,112.31765,110.91831,109.51349,108.72442,108.89719,109.89531,111.23881,112.46172,113.40901,114.2504,115.20833,116.21743,116.79106,116.22334,114.0079,110.1866,105.37836,100.45688,96.093086,92.474342,89.385208,86.571304,84.096588,82.401787,81.988174,82.936958,84.624413,85.888557,85.604012,83.327293,79.59491,75.65744,72.791977,71.61396,71.817734,72.499748,72.838264,72.671288,72.586884,73.469398,75.813141,79.273712,82.771263,85.09211,85.602493,84.611542,83.150291,82.314819,82.602242,83.663513,84.617188,84.699463,83.814491,82.625038,82.131943,83.020973,85.195709,87.781952,89.582855,89.688599,87.87339,84.575699,80.53228,76.338181,72.212631,68.078735,63.844517,59.652222,55.911659,53.100506,51.477798,50.907215,50.903259,50.864304,50.346321,49.22541,47.684765,46.072472,44.735886,43.919861,43.749367,44.258232,45.413933,47.118473,49.203262,51.446465,53.619736,55.540245,57.093529,58.212856,58.834492,58.867168,58.202534,56.761482,54.54454,51.654118,48.279797,44.663624,41.069241,37.762886,34.993771,32.957066,31.741547,31.288824,31.397949,31.786236,32.179657,32.38401,32.302055,31.903608,31.191528,30.20505,29.060064,27.977715,27.241751,27.071051,27.467243,28.141506,28.594091,28.325329,27.059757,24.841913,21.940071,18.627197,15.001233,10.985518,6.519114,1.7958159,-2.6467049,-6.0954838,-8.0116453,-8.3351316,-7.5236759,-6.2747464,-5.1040506,-4.071909,-2.8621111,-1.1721046,0.86363602,2.5483975,2.9402797,1.4436387,-1.714829,-5.4785166,-8.4844685,-9.8214836,-9.5448885,-8.6043558,-8.2161341,-9.0808878,-10.960042,-12.891029,-13.894459,-13.689334,-12.919528,-12.720383,-13.904165,-16.312048,-18.784035,-19.796034,-18.373806,-14.708992,-10.095002,-6.2373242,-4.3815541,-4.7895207,-6.8348398,-9.5739279,-12.361511,-15.106259,-18.060858,-21.386093,-24.871035,-28.040474,-30.558908,-32.594173,-34.818409,-37.992519,-42.405041,-47.575256,-52.47187,-56.144569,-58.364498,-59.83749,-61.823799,-65.390327,-70.768822,-77.225952,-83.514511,-88.598045,-92.178719,-94.713463,-96.960869,-99.410606,-101.99862,-104.28081,-105.89713,-106.95367,-108.02134,-109.74158,-112.3258,-115.3231,-117.84646,-119.12198,-118.99234,-118.02888,-117.17187,-117.13892,-117.99445,-119.15508,-119.80408,-119.41602,-118.03704,-116.15902,-114.31941,-112.744,-111.29506,-109.74229,-108.12081,-106.86886,-106.60129,-107.65538,-109.73618,-111.94597,-113.22783,-112.96165,-111.32941,-109.20359,-107.62051,-107.17008,-107.68327,-108.39709,-108.46393,-107.45975,-105.57153,-103.37917,-101.4222,-99.868034,-98.498878,-96.991531,-95.256134,-93.57029,-92.4067,-92.081688,-92.483261,-93.080856,-93.220924,-92.515915,-91.075623,-89.441177,-88.278854,-88.033424,-88.740883,-90.073334,-91.536949,-92.67308,-93.156403,-92.788727,-91.460487,-89.142517,-85.901779,-81.881775,-77.20845,-71.863518,-65.634491,-58.230099,-49.535603,-39.853825,-29.941889,-20.761885,-13.057548,-7.0131669,-2.2270944,1.9639466,6.018003,9.9034796,13.212216,15.606232,17.275179,19.034803,21.918322,26.470169,32.201572,37.621395,40.916489,40.93055,37.861198,33.228291,29.096296,26.992916,27.159681,28.568922,29.669752,29.383902,27.738377,25.774284,24.836367,25.724115,28.237371,31.363434,33.93124,35.281597,35.537323,35.356991,35.402317,35.909843,36.641602,37.197853,37.421349,37.577343,38.174679,39.560177,41.582016,43.569561,44.660805,44.277515,42.456993,39.8475,37.385468,35.853443,35.562077,36.299084,37.525776,38.682255,39.441502,39.814438,40.093113,40.677811,41.857079,43.616161,45.553066,46.968475,47.141087,45.70229,42.931263,39.776596,37.519142,37.187496,39.011818,42.230206,45.398109,47.072449,46.513657,44.020771,40.719059,37.93758,36.549164,36.647652,37.709049,39.074013,40.402931,41.807011,43.605305,45.921684,48.43713,50.48698,51.436672,51.067924,49.702393,47.980347,46.458351,45.313553,44.356731,43.324905,42.217377,41.406773,41.423931,42.561481,44.586681,46.790329,48.366299,48.878502,48.499466,47.853905,47.571396,47.856209,48.374432,48.539425,47.995449,46.951771,46.112423,46.222355,47.523258,49.49316,51.070839,51.248665,49.665306,46.814983,43.728622,41.323696,39.840275,38.733852,37.105358,34.399052,30.914381,27.780294,26.370119,27.4874,30.808552,34.928623,38.00695,38.661499,36.622402,32.801907,28.774149,25.978441,25.082094,25.807781,27.245825,28.411779,28.720846,28.158546,27.138021,26.205526,25.792614,26.122414,27.246357,29.114319,31.603163,34.505642,37.536587,40.398006,42.878117,44.907684,46.516701,47.717911,48.422615,48.490227,47.909878,46.97826,46.284954,46.414005,47.477608,48.775852,48.878082,46.203781,39.855671,30.236988,19.039774,8.5269012,0.4587594,-4.7362204,-8.0593138,-11.245676,-15.697206,-21.698015,-28.385551,-34.463219,-39.158817,-42.775944,-46.461998,-51.349274,-57.659477,-64.402069,-69.907028,-72.868195,-73.213463,-72.210457,-71.710083,-73.001236,-76.017059,-79.414589,-81.483284,-81.297394,-79.366707,-77.365562,-77.115318,-79.470154,-83.805145,-88.407608,-91.497475,-92.225098,-91.047279,-89.307358,-88.348221,-88.742584,-90.089005,-91.417557,-91.862953,-91.142899,-89.575882,-87.716934,-85.933174,-84.229149,-82.403404,-80.360542,-78.305214,-76.662811,-75.797569,-75.754509,-76.222824,-76.738762,-76.9617,-76.810753,-76.372337,-75.679298,-74.567215,-72.749878,-70.071877,-66.737587,-63.311348,-60.444912,-58.498867,-57.324108,-56.373913,-55.087906,-53.288601,-51.309055,-49.749741,-49.022797,-48.999031,-49.013149,-48.243156,-46.224869,-43.167728,-39.869141,-37.288799,-36.061016,-36.24559,-37.439098,-39.118042,-40.939846,-42.782307,-44.511749,-45.679665,-45.409897,-42.610111,-36.41597,-26.610054,-13.76413,0.97701097,16.33535,31.309422,45.347675,58.248554,69.920265,80.193382,88.804863,95.530334,100.33942,103.45112,105.2574,106.18407,106.59258,106.7739,106.99751,107.52931,108.56322,110.09865,111.86643,113.39689,114.23219,114.17256,113.3982,112.36959,111.54765,111.10033,110.78621,110.10275,108.61845,106.28289,103.51199,100.98167,99.248596,98.432487,98.162834,97.828522,96.974243,95.586937,94.077721,92.956612,92.401161,92.005424,90.902313,88.228706,83.681931,77.835449,71.998306,67.655907,65.774559,66.342232,68.396576,70.523857,71.55323,71.068977,69.477081,67.622169,66.20369,65.338814,64.512733,62.91687,59.949879,55.57851,50.363163,45.167702,40.757118,37.527843,35.500782,34.522045,34.487816,35.41835,37.337463,40.069069,43.132168,45.850113,47.636734,48.287651,48.085087,47.63501,47.524143,47.999611,48.859203,49.606506,49.760384,49.119453,47.822536,46.184647,44.430851,42.507729,40.092899,36.793877,32.412716,27.121704,21.456001,16.134501,11.802748,8.8120718,7.1113071,6.2702813,5.6115413,4.4101086,2.1147919,-1.4652529,-6.0757089,-11.089566,-15.741274,-19.446995,-22.070091,-23.990847,-25.922857,-28.550867,-32.171043,-36.526466,-40.931335,-44.61972,-47.129635,-48.515324,-49.279716,-50.075825,-51.347763,-53.102863,-54.922142,-56.1842,-56.374237,-55.325401,-53.292492,-50.846233,-48.650295,-47.215073,-46.714264,-46.921295,-47.286762,-47.139809,-45.954979,-43.59129,-40.401817,-37.148193,-34.732555,-33.846756,-34.688717,-36.874813,-39.590561,-41.91209,-43.155865,-43.1101,-42.065022,-40.651596,-39.572365,-39.336094,-40.090126,-41.600719,-43.381035,-44.919231,-45.920479,-46.458195,-46.949574,-47.939732,-49.778706,-52.356659,-55.065777,-57.056511,-57.689613,-56.946278,-55.54253,-54.632938,-55.218792,-57.564671,-60.953255,-63.940166,-64.998634,-63.224976,-58.742771,-52.614174,-46.337055,-41.212765,-37.898499,-36.309875,-35.826244,-35.610241,-34.858139,-32.913872,-29.302114,-23.772421,-16.383738,-7.5677609,1.9204222,11.190155,19.457989,26.204845,31.162285,34.178566,35.12532,33.988968,31.13797,27.571251,24.883135,24.809889,28.494642,35.84647,45.396622,54.818195,61.898628,65.471176,65.810585,64.296227,62.566257,61.668064,61.680859,61.969795,61.836597,61.109325,60.294476,60.227352,61.485767,63.964939,66.878632,69.161774,70.003365,69.189995,67.095825,64.388153,61.666828,59.240189,57.102539,55.039192,52.741966,49.876549,46.127052,41.267063,35.251289,28.249868,20.543182,12.288754,3.2995758,-6.9751706,-19.170752,-33.532646,-49.522751,-65.787392,-80.577652,-92.43351,-100.7606,-105.97485,-109.14684,-111.38119,-113.31481,-115.01451,-116.27155,-117.02703,-117.59527,-118.52335,-120.20388,-122.54288,-124.94529,-126.64964,-127.19109,-126.68011,-125.71519,-125.00293,-124.95193,-125.50416,-126.28024,-126.89017,-127.16411,-127.15277,-126.94718,-126.5103,-125.68372,-124.35802,-122.62338,-120.69972,-118.61822,-115.86489,-111.30857,-103.60349,-91.938217,-76.712402,-59.677757,-43.352188,-29.953718,-20.427111,-14.12416,-9.3337584,-4.3561416,1.5097044,7.6393709,12.585044,15.073865,14.883943,13.075737,11.460974,11.645239,14.20882,18.474598,22.947386,26.131514,27.259893,26.571741,25.060862,23.898163,23.859846,25.029545,26.862078,28.51565,29.263166,28.799597,27.336231,25.468363,23.886864,23.060764,23.031523,23.41815,23.636501,23.222717,22.081841,20.513002,18.990993,17.841612,17.029177,16.212803,15.047875,13.526375,12.095771,11.426547,11.940375,13.403193,14.88629,15.183474,13.471932,9.8190365,5.2033963,1.0094429,-1.7120512,-2.7694802,-2.8256264,-2.8849356,-3.6189959,-4.9708471,-6.2802544,-6.8160996,-6.3289771,-5.2330985,-4.2918305,-4.0337071,-4.3206716,-4.3927665,-3.3861883,-0.98787755,2.2230356,5.0066381,6.1565027,5.2393217,2.9190595,0.65339613,-0.069198526,1.4888173,4.9533086,9.0778522,12.413013,14.011589,13.796838,12.448912,10.942536,10.031399,9.9480543,10.422023,10.934153,11.028458,10.523721,9.5603113,8.5088892,7.8102059,7.8104744,8.6354294,10.132872,11.905576,13.437436,14.277036,14.204428,13.300293,11.880181,10.33011,8.9366283,7.8028584,6.8802433,6.0672822,5.2885485,4.4981217,3.6258247,2.5419726,1.10704,-0.70067036,-2.6675868,-4.3466339,-5.2200971,-4.9508324,-3.5696251,-1.4676131,0.81927389,2.9078965,4.7592463,6.6390634,8.8756065,11.581293,14.532912,17.299353,19.535095,21.238771,22.791113,24.7293,27.391159,30.65612,33.957367,36.574406,38.041332,38.432194,38.353409,38.639828,39.915375,42.249939,45.089443,47.494041,48.569229,47.887875,45.711151,42.908997,40.612774,39.748917,40.657803,42.970661,45.80648,48.200821,49.559368,49.905041,49.786705,49.897392,50.617371,51.749737,52.612717,52.44379,50.879532,48.221798,45.324921,43.167057,42.359409,42.878281,44.158974,45.464508,46.28384,46.522873,46.410561,46.235519,46.121799,45.990028,45.68932,45.152763,44.423485,43.519184,42.252419,40.180946,36.776745,31.734175,25.213488,17.83667,10.411821,3.5514693,-2.5688064,-8.1553307,-13.492042,-18.608772,-23.164387,-26.636917,-28.694225,-29.485851,-29.641996,-29.960554,-30.972853,-32.66201,-34.508976,-35.830891,-36.194672,-35.653572,-34.678967,-33.85463,-33.536697,-33.681068,-33.916656,-33.789738,-33.018871,-31.622631,-29.879416,-28.177549,-26.854942,-26.102947,-25.951773,-26.309971,-27.018703,-27.89576,-28.76305,-29.461994,-29.864115,-29.885391,-29.511532,-28.830391,-28.047346,-27.445459,-27.268156,-27.555466,-28.027052,-28.123503,-27.251621,-25.146564,-22.1451,-19.157196,-17.270906,-17.159967,-18.638273,-20.677259,-21.951012,-21.631407,-19.946236,-18.101633,-17.540081,-18.94224,-21.597944,-23.598652,-22.817141,-18.133656,-10.172337,-1.075055,6.5840964,11.110027,12.448276,11.966932,11.443873,11.932412,13.225313,14.217666,13.867194,12.067341,9.8342819,8.6960373,9.7223768,12.873068,17.110764,21.188301,24.551323,27.718254,31.864559,37.893353,45.638699,53.769482,60.493568,64.620033,66.288338,66.882942,68.179626,71.262932,75.891785,80.69001,84.008514,84.896271,83.584923,81.237053,79.185989,78.189903,78.158104,78.45433,78.494614,78.194122,77.967545,78.325325,79.389328,80.690292,81.394547,80.801773,78.77356,75.810341,72.739441,70.233833,68.476738,67.168983,65.836655,64.204346,62.376472,60.718727,59.540062,58.802555,58.055176,56.633465,53.999706,50.024517,45.064243,39.818779,35.070034,31.437445,29.240158,28.477037,28.882193,30.01018,31.331347,32.337093,32.646706,32.083805,30.683079,28.61475,26.063513,23.132935,19.835009,16.1691,12.231648,8.2738543,4.6583142,1.7358955,-0.2803466,-1.3663964,-1.6408846,-1.2678503,-0.38782057,0.87340462,2.337615,3.7226353,4.6753731,4.8944745,4.2699003,2.9368403,1.1876352,-0.71777296,-2.7228611,-5.0049696,-7.8290195,-11.308665,-15.23294,-19.087631,-22.281689,-24.453468,-25.66976,-26.386675,-27.184584,-28.430019,-30.065765,-31.654428,-32.647758,-32.719219,-31.96385,-30.85462,-29.991999,-29.800474,-30.344549,-31.353962,-32.422852,-33.258583,-33.848949,-34.481075,-35.628559,-37.772896,-41.224586,-45.982445,-51.653828,-57.466572,-62.413612,-65.543594,-66.334053,-64.993095,-62.504879,-60.316662,-59.747005,-61.379478,-64.769806,-68.665421,-71.66185,-72.953186,-72.747505,-72.090233,-72.186317,-73.628777,-76.018303,-78.229362,-79.169876,-78.552277,-77.163879,-76.432152,-77.538589,-80.646423,-84.756729,-88.311653,-90.172066,-90.335487,-89.913818,-90.370384,-92.511223,-95.901627,-99.108253,-100.62029,-99.843369,-97.501701,-95.174309,-94.273026,-95.14856,-96.925018,-98.165245,-97.898239,-96.289406,-94.483376,-93.729149,-94.408463,-95.668991,-95.949036,-94.052269,-90.027687,-85.222252,-81.435829,-79.735817,-79.742531,-79.88694,-78.472878,-74.807251,-69.596077,-64.302299,-59.892017,-55.854458,-50.239407,-40.789948,-26.497379,-8.5767059,9.8123703,24.995932,34.5411,38.309368,38.229347,37.004208,36.59412,37.379639,38.410328,38.430122,36.920052,34.478252,32.369274,31.644182,32.477089,34.150604,35.63802,36.328995,36.393349,36.577648,37.639702,39.851372,42.899914,46.195518,49.300129,52.138905,54.859669,57.494682,59.730343,60.996017,60.826359,59.231617,56.79361,54.398762,52.776798,52.145302,52.177132,52.279476,51.97047,51.102612,49.822823,48.358818,46.829338,45.22192,43.523922,41.862484,40.508759,39.723495,39.562054,39.800705,40.057533,40.031033,39.685925,39.253044,39.048134,39.246048,39.771717,40.371304,40.78722,40.888794,40.661102,40.081249,39.009514,37.20927,34.495411,30.890486,26.644169,22.0732,17.329086,12.279085,6.6192217,0.16631423,-6.8735323,-13.869903,-20.023197,-24.758257,-27.995119,-30.112923,-31.638554,-32.890568,-33.841885,-34.300804,-34.265415,-34.161926,-34.747147,-36.696693,-40.142593,-44.486397,-48.643024,-51.579681,-52.808704,-52.521843,-51.300442,-49.628128,-47.563099,-44.802357,-41.079792,-36.590824,-32.108639,-28.671808,-27.028692,-27.203764,-28.476919,-29.790915,-30.317839,-29.820057,-28.596684,-27.097994,-25.51067,-23.614744,-20.999012,-17.454416,-13.23762,-8.9968109,-5.4016199,-2.7363377,-0.74456781,1.1643,3.4916492,6.3051395,9.2104149,11.653027,13.335267,14.457085,15.616144,17.437332,20.181093,23.584103,27.01977,29.852255,31.743389,32.727928,33.048679,32.908714,32.338684,31.272346,29.755764,28.108105,26.880146,26.598946,27.442936,29.055141,30.630672,31.256433,30.33466,27.874399,24.505852,21.21398,18.918774,18.088947,18.548439,19.548063,20.07102,19.256603,16.781557,13.044176,9.0573082,6.0642295,5.0143409,6.1189127,8.6984882,11.416219,12.810571,11.886917,8.4905958,3.293227,-2.5746593,-8.0327711,-12.436145,-15.669621,-17.9695,-19.641752,-20.872206,-21.720312,-22.237076,-22.561007,-22.88257,-23.293715,-23.652721,-23.603271,-22.776266,-21.054207,-18.706421,-16.27479,-14.263323,-12.838057,-11.757205,-10.600209,-9.1459255,-7.6219358,-6.6146564,-6.6640496,-7.8110509,-9.4398546,-10.586331,-10.563572,-9.5008907,-8.3935747,-8.5477581,-10.708409,-14.4133,-18.03126,-19.544912,-17.662994,-12.603475,-6.0492778,-0.26476809,3.1238961,3.9630344,3.5252807,3.6243925,5.4457469,8.8144073,12.339342,14.320083,13.830189,11.296538,8.2257204,6.2710547,6.2387071,7.6510024,9.1188059,9.2667065,7.6247578,4.9453435,2.7751043,2.5653803,4.8593736,9.0133057,13.567507,17.008806,18.479048,18.071882,16.632095,15.24604,14.731901,15.368292,16.919979,18.859402,20.625753,21.809809,22.236469,21.971548,21.281103,20.549335,20.154902,20.331068,21.067675,22.114166,23.096767,23.693989,23.772331,23.403629,22.759338,21.957552,20.970533,19.661722,17.936668,15.916958,14.0269,12.927984,13.315461,15.658405,19.989256,25.826796,32.268242,38.229824,42.765976,45.360508,46.075153,45.47715,44.354694,43.339878,42.633396,42.002312,41.084145,39.837334,38.845768,39.21846,42.040951,47.62672,55.005798,62.028965,66.155792,65.59269,60.195244,51.622356,42.614288,35.752697,32.358276,32.102573,33.492893,34.882664,35.373905,35.08794,34.710098,34.686035,34.658009,33.547943,30.244699,24.434723,17.004087,9.7085028,4.2789016,1.4963112,0.794653,0.62336606,-0.66135263,-3.9115624,-8.8061037,-14.135627,-18.515381,-21.072882,-21.743372,-21.101099,-19.941734,-18.926182,-18.466555,-18.809427,-20.130291,-22.493141,-25.698389,-29.187635,-32.1674,-33.951187,-34.326866,-33.692131,-32.831936,-32.45549,-32.79105,-33.513298,-34.054256,-34.076458,-33.763206,-33.702602,-34.433182,-35.97541,-37.707214,-38.716068,-38.423187,-37.059971,-35.64249,-35.404968,-37.013714,-40.04734,-43.083103,-44.363194,-42.665035,-37.88765,-31.054733,-23.78941,-17.604452,-13.399711,-11.364378,-11.200499,-12.414412,-14.462173,-16.723316,-18.451181,-18.867996,-17.42996,-14.102674,-9.4197607,-4.2161498,0.84209663,5.6377544,10.623584,16.439415,23.356344,30.915146,38.017334,43.437172,46.443321,47.140869,46.324013,44.949032,43.580395,42.167694,40.276127,37.581764,34.267342,31.03244,28.706219,27.729845,27.868206,28.354986,28.381084,27.605276,26.353243,25.380934,25.364353,26.449047,28.139494,29.578594,30.020712,29.200243,27.395233,25.198017,23.180325,21.666397,20.708822,20.20249,19.994574,19.898876,19.644751,18.872135,17.253504,14.702358,11.519603,8.3315544,5.8027482,4.2745881,3.5601058,3.0443227,2.0439241,0.20365973,-2.3219888,-5.009007,-7.3143015,-8.9880056,-10.141293,-11.052995,-11.892281,-12.588283,-12.94928,-12.923849,-12.769065,-12.953269,-13.833199,-15.346047,-16.981083,-18.105101,-18.440279,-18.341923,-18.630329,-20.042707,-22.670395,-25.803078,-28.345741,-29.564054,-29.641113,-29.609314,-30.633125,-33.091839,-36.108177,-37.920223,-36.938354,-32.834305,-26.92897,-21.565355,-18.814514,-19.323133,-22.044912,-25.027401,-26.722652,-26.932266,-26.740768,-27.486536,-29.499395,-31.528179,-31.338905,-27.167887,-19.097149,-9.4092398,-1.6002893,1.4129046,-1.1730198,-7.6908817,-15.01232,-20.278904,-22.305191,-21.871984,-20.866123,-20.932611,-22.531672,-24.926355,-26.955036,-27.939178,-28.067087,-28.043148,-28.350983,-28.742136,-28.3582,-26.394522,-22.795574,-18.442499,-14.666693,-12.421991,-11.704231,-11.635253,-11.152214,-9.8080301,-8.1077881,-7.1379352,-7.7520452,-9.8966665,-12.565303,-14.425483,-14.687757,-13.612441,-12.301663,-11.922669,-12.903508,-14.658245,-16.026997,-16.117472,-14.956877,-13.497025,-12.966334,-14.017326,-16.263855,-18.539818,-19.720156,-19.557695,-18.965687,-19.529627,-22.530243,-28.077188,-34.89225,-40.886562,-44.203186,-44.132584,-41.401077,-37.703892,-34.770885,-33.477432,-33.442417,-33.264553,-31.219776,-26.049679,-17.483315,-6.3065295,5.988759,17.780941,27.871372,35.808102,41.883076,46.833656,51.390892,55.876514,60.030956,63.152122,64.475433,63.599628,60.732449,56.62241,52.21582,48.23455,44.915688,42.056454,39.321865,36.611343,34.24411,32.836201,32.935581,34.636395,37.414215,40.298019,42.298466,42.862938,42.11232,40.737259,39.618729,39.38163,40.114525,41.387634,42.53688,43.045296,42.813225,42.180225,41.699905,41.801239,42.527412,43.498875,44.123882,43.941296,42.900982,41.413074,40.122288,39.52375,39.642994,39.985531,39.817963,38.644798,36.607971,34.550648,33.661259,34.858078,38.246086,42.965305,47.545959,50.601124,51.487808,50.576603,48.987831,47.952564,48.160965,49.448498,50.95583,51.617699,50.66349,47.845875,43.317978,37.312099,29.88224,20.897463,10.277534,-1.7127193,-14.33194,-26.499514,-37.127903,-45.459568,-51.236912,-54.660061,-56.219398,-56.53355,-56.260838,-56.050945,-56.457996,-57.78838,-59.959824,-62.503212,-64.777206,-66.313911,-67.084229,-67.480919,-67.989166,-68.746483,-69.31456,-68.884369,-66.847672,-63.379845,-59.600582,-57.101635,-57.038452,-59.315311,-62.412025,-64.055557,-62.423801,-57.206112,-49.881344,-43.011868,-38.932667,-38.579643,-41.119587,-44.562218,-46.952896,-47.420708,-46.482986,-45.488758,-45.608681,-47.022243,-48.78286,-49.391376,-47.677452,-43.439751,-37.49543,-31.179081,-25.650501,-21.431917,-18.393625,-16.103464,-14.252599,-12.87769,-12.277983,-12.734646,-14.244095,-16.433451,-18.692703,-20.43399,-21.340979,-21.501328,-21.378132,-21.631456,-22.839895,-25.207767,-28.376133,-31.457035,-33.343102,-33.210003,-30.98971,-27.546408,-24.398144,-23.06324,-24.341887,-27.917831,-32.513157,-36.523804,-38.786724,-39.057392,-37.95937,-36.490574,-35.426033,-34.982319,-34.899487,-34.804424,-34.548603,-34.274117,-34.196404,-34.319042,-34.344822,-33.883293,-32.805523,-31.45582,-30.513498,-30.553814,-31.599073,-32.993736,-33.734432,-33.071079,-30.990511,-28.252249,-25.936747,-24.794144,-24.818848,-25.325069,-25.462215,-24.817614,-23.705841,-22.966238,-23.423906,-25.382904,-28.473459,-31.914478,-34.971432,-37.285786,-38.88456,-39.933987,-40.481548,-40.405964,-39.595879,-38.171001,-36.513714,-35.035931,-33.842407,-32.575287,-30.62044,-27.585245,-23.719339,-19.937052,-17.351099,-16.579334,-17.288288,-18.322744,-18.394342,-16.909763,-14.389031,-12.166035,-11.533052,-12.876494,-15.383547,-17.54056,-18.121187,-17.023506,-15.393162,-14.924231,-16.7663,-20.733431,-25.329233,-28.588621,-29.222263,-27.364164,-24.477819,-22.499422,-22.750198,-25.255682,-28.823755,-31.760265,-32.748363,-31.389416,-28.179371,-24.063162,-19.925289,-16.322474,-13.52279,-11.681985,-10.927655,-11.257298,-12.360088,-13.574677,-14.111617,-13.460474,-11.72652,-9.63871,-8.1561699,-7.8574715,-8.4553108,-8.7319698,-6.9649935,-1.6456281,7.8578849,20.997519,36.214481,51.467861,64.875427,75.219398,82.171593,86.219208,88.366394,89.729256,91.151184,92.955063,94.916634,96.475616,97.104408,96.66732,95.583916,94.690033,94.845169,96.481987,99.344193,102.56982,105.09218,106.15337,105.66081,104.20317,102.7289,102.06882,102.55407,103.91169,105.46037,106.47503,106.52219,105.61183,104.12598,102.59899,101.47998,100.98941,101.11219,101.69506,102.57275,103.6502,104.90704,106.34059,107.89882,109.45628,110.85445,111.98045,112.82458,113.46339,113.96288,114.26035,114.11843,113.21627,111.35757,108.6808,105.72247,103.24815,101.90346,101.86762,102.72278,103.64644,103.84393,102.97847,101.33845,99.628944,98.505669,98.138008,98.080467,97.544716,95.91111,93.161613,89.958923,87.314537,86.043312,86.330597,87.660858,89.128571,89.922867,89.692192,88.598892,87.084663,85.541779,84.111771,82.711327,81.212486,79.606827,78.021164,76.585548,75.275391,73.866249,72.044456,69.586472,66.459267,62.753246,58.495739,53.502483,47.417435,39.961658,31.247387,21.932762,13.065649,5.6541648,0.18825166,-3.6062019,-6.6178231,-9.8694448,-13.969353,-18.800474,-23.616922,-27.481842,-29.78974,-30.580633,-30.487581,-30.374958,-30.892136,-32.192841,-33.951553,-35.627472,-36.794888,-37.347332,-37.484142,-37.528275,-37.715073,-38.084282,-38.519997,-38.880489,-39.110729,-39.260101,-39.40839,-39.573189,-39.681408,-39.63224,-39.400734,-39.091362,-38.882622,-38.889454,-39.046825,-39.123863,-38.894714,-38.369102,-37.908978,-38.096821,-39.372456,-41.632046,-44.064545,-45.408504,-44.575062,-41.332268,-36.645332,-32.40662,-30.615263,-32.39917,-37.406933,-43.930729,-49.729656,-53.126091,-53.782742,-52.743134,-51.737263,-52.171719,-54.389584,-57.603233,-60.488049,-62.034679,-62.128521,-61.527203,-61.300415,-62.126644,-63.903637,-65.897018,-67.288658,-67.733459,-67.549759,-67.431091,-67.893173,-68.842461,-69.563087,-69.137154,-67.028763,-63.461086,-59.354794,-55.87508,-53.869442,-53.523003,-54.400284,-55.795853,-57.143768,-58.236092,-59.155083,-60.017269,-60.734257,-60.958458,-60.242844,-58.302944,-55.214664,-51.43478,-47.644829,-44.514805,-42.508286,-41.80349,-42.328232,-43.850956,-46.062519,-48.616039,-51.135792,-53.231682,-54.550495,-54.86544,-54.169632,-52.718864,-50.979301,-49.477543,-48.607876,-48.491833,-48.976208,-49.787239,-50.758911,-51.983845,-53.754261,-56.281071,-59.341949,-62.108639,-63.350254,-62.002136,-57.836292,-51.834129,-45.961601,-42.36002,-42.323673,-45.61425,-50.524792,-54.70483,-56.320358,-54.916443,-51.515194,-47.928841,-45.724335,-45.45966,-46.609035,-48.141159,-49.306179,-50.088955,-51.050766,-52.722401,-55.022812,-57.149418,-58.041973,-57.10619,-54.686535,-51.940258,-50.173641,-50.07365,-51.343155,-52.973366,-53.953068,-53.922825,-53.334316,-53.032253,-53.584511,-54.857933,-56.150162,-56.776485,-56.668728,-56.519073,-57.321182,-59.603401,-62.900017,-65.878174,-67.103477,-65.977089,-63.223873,-60.57222,-59.781487,-61.604595,-65.333862,-69.221283,-71.517166,-71.485619,-69.776787,-67.944275,-67.426025,-68.622787,-70.622429,-71.703018,-70.277321,-65.707123,-58.541359,-50.109043,-41.773392,-34.301773,-27.667526,-21.298969,-14.536222,-6.9946418,1.3329558,10.19873,19.281565,28.27994,36.885799,44.721889,51.346832,56.361183,59.552895,60.981731,60.946686,59.865704,58.152443,56.158005,54.177418,52.462799,51.188488,50.375126,49.843502,49.27438,48.380974,47.104618,45.697842,44.61034,44.218334,44.554256,45.215988,45.538582,44.951454,43.323673,41.097321,39.127888,38.315742,39.222664,41.860641,45.731403,50.059875,54.084339,57.274368,59.419319,60.604733,61.126923,61.38348,61.752403,62.46851,63.526814,64.662506,65.44281,65.451927,64.488167,62.669102,60.382805,58.110481,56.223454,54.870766,54.011757,53.550117,53.459633,53.802868,54.626728,55.815479,57.025043,57.778332,57.696453,56.741421,55.319603,54.161377,54.015324,55.302029,57.902035,61.187241,64.282745,66.432335,67.294365,67.035515,66.193008,65.387733,65.036186,65.200394,65.637375,66.004845,66.099083,65.987114,65.955772,66.306892,67.121399,68.142288,68.864235,68.797081,67.758751,66.020912,64.203979,62.960457,62.613884,62.953625,63.299355,62.792229,60.740395,56.825573,51.079117,43.691238,34.822781,24.571537,13.118305,0.9294315,-11.169197,-22.157907,-31.175278,-37.859749,-42.466358,-45.671646,-48.174053,-50.328636,-52.033604,-52.923378,-52.725368,-51.537884,-49.84864,-48.29258,-47.319839,-46.993225,-47.032543,-47.04784,-46.782455,-46.201572,-45.394493,-44.40416,-43.144894,-41.485176,-39.425266,-37.207924,-35.241039,-33.858391,-33.084686,-32.590496,-31.8939,-30.679501,-29.00279,-27.218628,-25.675859,-24.410044,-23.091255,-21.307903,-19.005247,-16.742395,-15.51709,-16.197571,-18.903297,-22.767357,-26.303095,-28.203825,-28.08983,-26.708952,-25.42721,-25.310637,-26.389675,-27.60541,-27.505302,-25.260019,-21.341131,-17.394478,-15.347756,-16.280088,-19.739386,-23.920368,-26.591557,-26.220545,-22.663107,-17.084141,-11.250399,-6.6700616,-4.0604482,-3.3426163,-4.0113788,-5.5468559,-7.6084485,-9.9818888,-12.440671,-14.698672,-16.492395,-17.680721,-18.227186,-18.053551,-16.908489,-14.430286,-10.441666,-5.2962222,0.01800479,4.1991115,6.2657189,6.1279821,4.6899176,3.3473155,3.1513641,4.1684794,5.4769759,5.8331881,4.5785022,2.1681221,-0.064853653,-0.77977824,0.44937873,2.8077264,4.7701426,5.1610231,4.0279655,2.7076843,2.9924574,5.9214306,11.001635,16.404387,20.045052,20.861027,19.456318,17.685913,17.445084,19.447195,22.776255,25.48823,25.853313,23.430374,19.300514,15.352874,13.125723,12.959248,13.965693,14.76113,14.418734,13.009554,11.426722,10.690206,11.252899,12.771848,14.44341,15.604563,16.151447,16.503063,17.190128,18.410126,19.880852,21.073973,21.619883,21.562782,21.282352,21.167116,21.312771,21.485771,21.371098,20.891602,20.326374,20.115034,20.489765,21.227993,21.743425,21.481483,20.344524,18.827492,17.738281,17.6742,18.609962,19.886484,20.615273,20.226221,18.791134,16.918934,15.31986,14.357698,13.894829,13.503577,12.846786,11.921949,10.99257,10.290687,9.7606306,9.0779543,7.9453788,6.4215212,4.979794,4.1862292,4.1938839,4.4409261,3.8457904,1.4559653,-2.843364,-8.0573339,-12.49757,-14.689339,-14.222603,-11.998792,-9.6940775,-8.7628832,-9.6076736,-11.43466,-12.867727,-12.9016,-11.567601,-9.8941221,-9.2203264,-10.34047,-13.040438,-16.296835,-18.956249,-20.412567,-20.846684,-20.931076,-21.277023,-22.049313,-23.003212,-23.854025,-24.634531,-25.717537,-27.45788,-29.727243,-31.732519,-32.327812,-30.675562,-26.837713,-21.886787,-17.423018,-14.770379,-14.337153,-15.521939,-17.194145,-18.417835,-18.955248,-19.260147,-20.021418,-21.603851,-23.770052,-25.846199,-27.180391,-27.552395,-27.249331,-26.770332,-26.385071,-25.866232,-24.586866,-21.91641,-17.642782,-12.12993,-6.0984669,-0.16910563,5.532023,11.442777,18.251646,26.388386,35.635273,45.110924,53.658558,60.426819,65.308273,68.972878,72.461258,76.557625,81.296326,85.89006,89.132545,90.055954,88.471069,85.080315,81.100235,77.619987,75.080399,73.183304,71.27137,68.918716,66.333443,64.290558,63.622093,64.593826,66.594887,68.381996,68.764793,67.320183,64.682816,62.211437,61.219593,62.233604,64.721123,67.433311,69.121399,69.172615,67.796669,65.710716,63.596493,61.720222,59.947247,58.078281,56.204639,54.78669,54.384968,55.244583,57.048618,59.034809,60.405972,60.754456,60.217876,59.282764,58.404083,57.724739,57.081242,56.251247,55.21534,54.207954,53.514069,53.183392,52.911785,52.215229,50.789204,48.786221,46.786205,45.454762,45.120316,45.572041,46.227055,46.545418,46.387009,46.045189,45.934059,46.16959,46.373051,45.865875,44.133999,41.230598,37.819107,34.811417,32.845901,31.960798,31.669092,31.342899,30.593557,29.356239,27.637915,25.171492,21.313154,15.339947,6.9789753,-3.2233882,-14.01801,-24.052708,-32.590603,-39.858692,-46.763729,-54.146442,-62.083874,-69.741043,-75.904427,-79.847633,-81.923264,-83.437668,-85.848068,-89.797668,-94.639038,-98.78714,-100.69309,-99.812477,-96.94397,-93.733124,-91.686874,-91.35083,-92.16214,-93.012711,-93.078926,-92.324127,-91.351631,-90.773247,-90.608521,-90.194672,-88.696144,-85.841644,-82.321228,-79.49437,-78.544914,-79.632004,-81.632065,-82.70108,-81.348076,-77.359642,-71.989517,-67.281326,-64.931969,-65.380821,-67.655006,-70.023079,-71.021568,-70.223061,-68.3162,-66.516037,-65.725395,-65.980553,-66.494766,-66.222847,-64.562752,-61.761063,-58.801846,-56.877361,-56.76651,-58.463055,-61.21949,-63.930336,-65.614342,-65.745735,-64.308662,-61.616009,-58.047405,-53.87088,-49.230537,-44.268242,-39.265606,-34.685951,-31.061876,-28.774384,-27.8458,-27.876041,-28.1807,-28.077032,-27.175014,-25.521431,-23.526772,-21.730534,-20.55158,-20.166174,-20.558275,-21.662333,-23.456812,-25.915871,-28.854036,-31.809519,-34.114452,-35.177765,-34.837254,-33.54607,-32.227627,-31.83391,-32.846882,-35.025757,-37.566097,-39.578487,-40.585163,-40.718807,-40.507381,-40.412117,-40.457829,-40.231915,-39.265511,-37.527145,-35.654793,-34.711082,-35.569862,-38.314392,-42.056213,-45.336819,-46.903637,-46.398834,-44.533386,-42.626698,-41.782589,-42.200871,-43.046562,-42.964165,-40.937466,-36.989174,-32.306614,-28.708418,-27.736206,-29.856882,-34.192474,-38.908501,-42.051121,-42.407841,-39.975044,-35.829311,-31.500141,-28.180269,-26.174793,-24.856714,-23.132963,-20.160402,-15.918983,-11.320358,-7.7768869,-6.4530382,-7.6084619,-10.406775,-13.313932,-14.87814,-14.460393,-12.508062,-10.227539,-8.8631563,-9.015522,-10.393681,-12.116287,-13.334098,-13.758057,-13.761582,-14.022223,-14.976248,-16.474941,-17.878895,-18.515041,-18.166515,-17.243841,-16.512009,-16.563797,-17.413969,-18.509714,-19.161438,-19.095257,-18.728153,-18.944698,-20.496359,-23.417374,-26.864843,-29.525362,-30.358374,-29.214453,-26.933647,-24.855968,-24.050709,-24.747711,-26.315994,-27.775217,-28.481085,-28.523787,-28.583763,-29.3622,-30.993711,-32.861053,-33.957043,-33.561081,-31.77071,-29.509577,-27.973799,-27.857861,-28.865101,-29.842209,-29.480457,-27.153584,-23.357174,-19.453039,-16.858751,-16.180773,-16.838696,-17.43047,-16.627588,-14.053344,-10.598544,-7.9683981,-7.7218308,-10.37086,-15.066802,-20.042635,-23.53187,-24.61936,-23.551367,-21.382843,-19.240377,-17.682867,-16.534582,-15.233888,-13.406259,-11.245043,-9.4358625,-8.6802244,-9.1475887,-10.237936,-10.839589,-9.949666,-7.2889886,-3.5353236,-0.020496326,1.9491707,1.771757,-0.1463137,-2.6199403,-4.309936,-4.395072,-2.9355755,-0.7573961,1.0468733,1.7063808,1.1290207,-0.14560594,-1.337501,-1.9162208,-1.9025172,-1.8138559,-2.293467,-3.6416011,-5.5196915,-6.9979172,-6.9226079,-4.4036703,0.83816898,8.4361124,17.64436,27.730154,38.258251,49.120556,60.332287,71.760437,82.980499,93.359184,102.30207,109.49384,114.96838,118.96874,121.70725,123.20881,123.3632,122.16158,119.95012,117.50062,115.80246,115.65907,117.30951,120.30116,123.70348,126.55878,128.3306,129.11545,129.52028,130.29211,131.90997,134.34848,137.11227,139.49355,140.90347,141.11803,140.34317,139.09834,137.98904,137.46758,137.66962,138.38074,139.14291,139.46396,139.04927,137.95393,136.57425,135.46405,135.05101,135.3907,136.09258,136.46956,135.84552,133.86745,130.66525,126.78718,122.96144,119.82053,117.72572,116.75026,116.77795,117.61623,119.04219,120.77459,122.43553,123.57997,123.81927,122.98561,121.2366,119.01998,116.89787,115.31548,114.43651,114.13074,114.11061,114.1297,114.12466,114.22144,114.60992,115.3686,116.34827,117.18874,117.46709,116.90133,115.50156,113.58429,111.63568,110.08683,109.11164,108.54819,107.98127,106.93851,105.09083,102.3464,98.790573,94.517197,89.466705,83.386353,75.95472,67.007858,56.733852,45.712299,34.763359,24.681936,15.996084,8.8647194,3.1373463,-1.4969941,-5.3782134,-8.8214779,-12.118317,-15.51915,-19.150864,-22.906828,-26.415459,-29.176764,-30.846241,-31.512459,-31.763708,-32.433083,-34.111919,-36.704159,-39.323502,-40.664196,-39.691795,-36.277393,-31.391953,-26.711058,-23.823359,-23.478031,-25.290974,-28.059912,-30.480106,-31.82762,-32.223118,-32.368889,-32.980301,-34.300415,-35.995552,-37.455647,-38.255867,-38.451149,-38.515648,-38.994801,-40.127792,-41.697002,-43.184071,-44.094212,-44.20858,-43.602417,-42.457653,-40.854271,-38.730682,-36.05698,-33.080887,-30.425341,-28.906654,-29.142788,-31.189016,-34.448177,-37.939217,-40.778042,-42.58485,-43.578465,-44.320488,-45.294434,-46.599976,-47.950775,-48.953465,-49.459717,-49.744686,-50.39151,-51.960434,-54.658062,-58.210804,-62.00716,-65.404984,-68.014854,-69.810791,-71.043671,-72.047569,-73.06488,-74.16674,-75.265747,-76.172638,-76.659447,-76.531128,-75.722267,-74.403961,-73.034149,-72.27108,-72.728302,-74.659721,-77.746574,-81.143448,-83.810905,-84.988525,-84.554901,-83.062836,-81.417389,-80.377113,-80.170708,-80.454987,-80.630791,-80.309654,-79.62735,-79.193413,-79.692993,-81.377899,-83.760635,-85.713066,-85.938354,-83.572678,-78.603798,-71.901077,-64.86319,-58.880959,-54.87957,-53.125832,-53.324482,-54.884083,-57.182327,-59.713219,-62.102352,-64.059135,-65.350548,-65.833321,-65.515785,-64.586365,-63.365391,-62.192673,-61.312809,-60.826508,-60.733593,-61.030109,-61.782406,-63.114468,-65.105186,-67.660828,-70.4571,-73.010628,-74.858582,-75.749496,-75.72953,-75.066338,-74.054337,-72.826836,-71.304077,-69.322723,-66.870964,-64.271988,-62.176846,-61.338276,-62.275608,-65.01532,-69.054237,-73.562569,-77.706947,-80.915741,-82.965378,-83.892189,-83.841118,-82.977295,-81.506416,-79.741669,-78.105911,-77.008308,-76.647255,-76.875885,-77.24968,-77.258186,-76.606056,-75.356354,-73.831284,-72.333336,-70.886124,-69.195541,-66.884399,-63.853245,-60.508228,-57.66148,-56.119827,-56.197216,-57.463493,-58.91592,-59.502792,-58.7043,-56.82914,-54.848053,-53.855667,-54.462971,-56.451969,-58.865101,-60.462067,-60.297409,-58.141068,-54.571903,-50.737946,-47.907787,-46.99107,-48.19339,-50.921986,-53.99017,-56.077217,-56.292107,-54.605042,-51.916172,-49.668488,-49.143768,-50.786648,-53.939674,-57.180027,-59.10725,-59.139584,-57.83062,-56.477692,-56.221771,-57.173809,-58.120609,-57.031563,-52.101078,-42.723927,-29.83267,-15.413445,-1.5159068,10.634573,20.912479,29.863256,37.935509,44.937344,50.094093,52.65052,52.575661,50.852032,49.109962,48.810024,50.48304,53.505703,56.546097,58.390224,58.634628,57.84071,57.105572,57.367428,58.896957,61.260441,63.707668,65.670265,67.026062,67.991844,68.787918,69.371613,69.460968,68.830833,67.640648,66.51049,66.233345,67.276947,69.40184,71.67717,72.934479,72.417191,70.244484,67.404999,65.269691,64.89386,66.495094,69.382042,72.344902,74.267265,74.624054,73.63179,72.034409,70.699234,70.258232,70.946129,72.638374,74.983589,77.518166,79.726021,81.088333,81.186409,79.862068,77.355751,74.308029,71.566414,69.857529,69.486465,70.233582,71.517616,72.740288,73.616661,74.301865,75.24485,76.862457,79.229454,81.963898,84.365234,85.715981,85.574966,83.914459,81.057518,77.482803,73.61554,69.697067,65.75695,61.656132,57.160378,52.027542,46.112949,39.482758,32.486603,25.718313,19.827723,15.234719,11.886238,9.2170725,6.3891716,2.7264516,-1.8749125,-6.8015895,-10.959142,-13.293654,-13.331125,-11.440419,-8.6704588,-6.2469196,-5.0015507,-5.0372124,-5.7893968,-6.4187717,-6.2942061,-5.3001547,-3.8287649,-2.5084262,-1.8580365,-2.0661151,-2.9870687,-4.3041759,-5.7224255,-7.0687895,-8.2670927,-9.249115,-9.8986883,-10.085435,-9.7663517,-9.0757723,-8.3270273,-7.906559,-8.1117887,-9.0199547,-10.456043,-12.070028,-13.476254,-14.384622,-14.671936,-14.383187,-13.687007,-12.817789,-12.021545,-11.502185,-11.359324,-11.523513,-11.718389,-11.4904,-10.330009,-7.8648047,-4.0554309,0.70121026,5.6377683,9.8611679,12.698051,13.994899,14.221492,14.29777,15.190837,17.450987,20.909111,24.701342,27.637257,28.752937,27.783165,25.311083,22.508224,20.586277,20.234915,21.330029,23.054716,24.355667,24.48177,23.31727,21.347414,19.306124,17.73053,16.68609,15.809383,14.617299,12.870955,10.757054,8.7708187,7.3776836,6.6751509,6.2820902,5.5442734,3.9455698,1.476454,-1.2774926,-3.4055834,-4.1641483,-3.4118738,-1.7281843,-0.1293059,0.47192115,-0.23699021,-1.7958921,-3.2247131,-3.560307,-2.3764813,4.7867334e-06,2.6866002,4.7285523,5.5880389,5.3722568,4.7008214,4.3250332,4.7399888,6.0042024,7.8295417,9.8327074,11.758318,13.536484,15.175397,16.61009,17.647945,18.063549,17.77058,16.932653,15.917264,15.114841,14.748122,14.805604,15.137774,15.627583,16.286444,17.186035,18.275826,19.250332,19.622311,19.016897,17.518961,15.817907,14.983093,15.932003,18.876644,23.094929,27.210104,29.86153,30.399391,29.202682,27.434956,26.387577,26.803989,28.575651,30.954227,33.097492,34.571537,35.492378,36.257397,37.104713,37.850376,38.013935,37.251873,35.778648,34.436119,34.294682,35.987671,39.183434,42.546089,44.256145,42.828697,37.790726,29.864229,20.590015,11.633725,4.1579566,-1.4477611,-5.4324627,-8.329154,-10.641459,-12.731577,-14.884495,-17.394949,-20.535784,-24.396339,-28.71818,-32.893654,-36.196068,-38.145916,-38.802139,-38.787411,-39.005421,-40.193192,-42.553829,-45.670223,-48.736927,-50.968513,-51.955154,-51.78624,-50.909985,-49.846165,-48.933109,-48.241547,-47.669678,-47.12466,-46.658009,-46.468109,-46.773422,-47.637554,-48.851398,-49.944351,-50.33152,-49.541504,-47.433399,-44.310692,-40.871746,-37.993885,-36.417423,-36.453457,-37.852737,-39.920437,-41.849808,-43.125416,-43.784569,-44.376446,-45.614765,-47.902805,-51.008465,-54.104771,-56.186161,-56.635788,-55.603222,-53.942959,-52.724026,-52.595387,-53.403049,-54.315346,-54.39584,-53.264481,-51.406895,-49.897907,-49.681877,-50.860291,-52.467247,-52.927608,-50.959011,-46.374191,-40.270451,-34.456249,-30.440914,-28.599203,-28.027344,-27.179808,-24.88287,-21.076633,-16.804089,-13.445053,-11.682563,-10.876619,-9.2791557,-5.00172,2.8324854,13.454878,24.742159,34.288269,40.648636,44.044666,46.134762,49.000961,53.944344,60.771698,67.953171,73.525581,76.205696,76.087471,74.558395,73.51638,74.343559,77.19928,80.993538,84.023727,84.911194,83.337418,80.206902,77.174004,75.797318,76.764137,79.577904,82.855125,85.064568,85.317284,83.796463,81.609062,80.149132,80.322891,82.058311,84.363716,85.895416,85.711479,83.788094,81.015053,78.686859,77.791382,78.501244,80.138046,81.59333,81.930176,80.811066,78.537964,75.74736,73.005173,70.568611,68.4254,66.506973,64.85659,63.594067,62.704872,61.846809,60.382534,57.687843,53.564365,48.465183,43.327351,39.056545,35.963058,33.523426,30.667267,26.458839,20.768215,14.49486,9.1576757,6.0552664,5.4864631,6.5150104,7.4539938,6.8143783,4.1710753,0.43131903,-2.6675422,-3.5524368,-1.7315713,1.8924752,5.4894094,7.2735353,6.4237103,3.4372051,-0.25652063,-3.166976,-4.576582,-4.8609896,-5.1403131,-6.5052018,-9.3024006,-12.910078,-16.125078,-17.912556,-18.056013,-17.315506,-17.005121,-18.250959,-21.375879,-25.769667,-30.301422,-34.003372,-36.601398,-38.577896,-40.752014,-43.661812,-47.145931,-50.384346,-52.361897,-52.455399,-50.779194,-48.089958,-45.334908,-43.143753,-41.579102,-40.273083,-38.820915,-37.144455,-35.577839,-34.626637,-34.572536,-35.193024,-35.783722,-35.475117,-33.657307,-30.276005,-25.856247,-21.271425,-17.397709,-14.814738,-13.648487,-13.567171,-13.895483,-13.812985,-12.611344,-9.9634981,-6.1111145,-1.8553582,1.7085166,3.6418791,3.5951085,1.9827423,-0.22393173,-1.9972342,-2.7713242,-2.6756978,-2.3468821,-2.4445806,-3.1901867,-4.2331843,-4.9336848,-4.8666511,-4.1945343,-3.6328213,-4.0025311,-5.648982,-8.1152344,-10.312737,-11.119954,-10.061793,-7.6576123,-5.2161946,-4.1820416,-5.3971648,-8.6815405,-12.94163,-16.717894,-18.85858,-18.977468,-17.508554,-15.399506,-13.650055,-12.92801,-13.401489,-14.793559,-16.574194,-18.185654,-19.228661,-19.575123,-19.394323,-19.088217,-19.148617,-19.980347,-21.762646,-24.416971,-27.701496,-31.381804,-35.377956,-39.797024,-44.827824,-50.56234,-56.859318,-63.346424,-69.575241,-75.248314,-80.385414,-85.320824,-90.512123,-96.246796,-102.39797,-108.36921,-113.28241,-116.34208,-117.21216,-116.21828,-114.2582,-112.43946,-111.60268,-111.95975,-113.03136,-113.92184,-113.79308,-112.28839,-109.68311,-106.69103,-104.05364,-102.16244,-100.93729,-100.01795,-99.124939,-98.337326,-98.091942,-98.895386,-100.93595,-103.85731,-106.8577,-109.07045,-109.99983,-109.74988,-108.91444,-108.20693,-108.05976,-108.42424,-108.85994,-108.82249,-107.9567,-106.23427,-103.89956,-101.30729,-98.771919,-96.495331,-94.557915,-92.921394,-91.422394,-89.791603,-87.74617,-85.146355,-82.122482,-79.048775,-76.31736,-74.015259,-71.721802,-68.617508,-63.913857,-57.382629,-49.646797,-41.998966,-35.796616,-31.769777,-29.665529,-28.464344,-27.04299,-24.86327,-22.241413,-20.029455,-18.938446,-18.980911,-19.428394,-19.315407,-18.12376,-16.134565,-14.157717,-12.798403,-11.784739,-9.8894711,-5.5987358,1.8452034,11.711747,21.905731,29.967644,34.391331,35.455051,35.030106,35.45752,38.168331,42.886734,47.887714,51.11903,51.468163,49.395107,46.585423,44.908558,45.377792,47.746002,50.904255,53.713604,55.657803,56.901783,57.811981,58.39159,58.123478,