Bandpass,0,0.11602,334.87009,-2888.1042,-4253.8906,-3525.4236,-1441.5327,588.64209,1366.2714,666.6203,-689.39355,-1496.8701,-1061.2257,327.6427,1662.522,1996.4171,1139.3704,-230.2838,-1094.996,-852.5061,265.07111,1398.6969,1717.4039,1023.2524,-132.73842,-886.38361,-705.24884,237.24628,1219.5283,1522.7035,955.11804,-31.010895,-697.96887,-573.40375,216.80818,1066.934,1354.6448,895.8512,59.579262,-525.90747,-443.20001,218.80539,952.01892,1218.3948,843.92773,129.67511,-388.75781,-342.29962,209.65205,841.41718,1087.6826,784.64856,176.17383,-282.10577,-264.42001,193.40738,736.29474,963.23181,721.92175,208.81985,-189.77306,-188.10258,194.90678,662.92102,870.70667,678.19592,243.55183,-105.5585,-118.70506,197.88071,597.21069,782.55719,626.42181,256.35745,-49.188808,-70.670761,194.88348,541.13104,712.10352,591.12195,279.79745,14.279898,-13.00476,208.0925,505.96655,660.39111,565.3147,301.23019,68.255089,34.821327,216.04713,469.23615,604.70325,526.09821,296.63895,86.216209,43.139927,187.2881,401.53973,523.34326,465.22638,275.14334,95.384949,54.548073,174.30695,358.28256,467.46219,423.34473,262.41653,104.45008,61.588665,157.10199,312.54111,409.54095,377.8656,244.38287,109.08547,68.945274,147.40953,280.57477,367.46774,344.89612,231.35954,109.70262,64.223679,120.28715,230.20195,313.12509,316.85477,254.95023,193.01398,196.62727,281.15967,400.6113,482.37787,480.73242,409.0755,328.08167,300.02667,343.88492,423.8259,478.03891,465.14694,393.65378,313.75641,279.18906,308.24326,372.36856,419.34128,412.46051,356.4183,291.62036,262.6684,285.36005,336.5007,372.93326,364.38739,315.22122,259.37009,233.27597,247.74028,279.77502,290.09171,252.75227,174.87221,92.096771,43.602638,45.118149,79.304565,109.68147,107.17117,69.795593,21.889366,-5.4453297,2.4633601,33.945717,60.819702,59.784752,29.221661,-10.629542,-33.473476,-26.498308,0.75974965,24.222321,23.349409,-4.0867863,-41.116016,-64.610741,-62.200912,-40.666519,-20.150944,-19.048273,-40.909046,-72.677063,-94.911934,-95.969147,-79.69693,-61.490589,-56.288334,-67.755478,-86.517639,-98.232117,-94.983849,-81.325455,-70.613724,-74.671127,-94.673286,-120.04478,-136.06552,-134.47144,-119.2766,-103.70409,-100.64593,-113.65288,-134.85091,-151.01695,-153.19827,-142.93111,-130.81218,-128.75627,-141.64166,-164.179,-184.87349,-193.91321,-189.31642,-177.29701,-167.1357,-164.63344,-168.84096,-174.01141,-174.82556,-170.76227,-166.45776,-168.07478,-178.62595,-195.76189,-213.50049,-226.40005,-233.00093,-236.11581,-240.02628,-246.91444,-255.26587,-261.33533,-262.40018,-259.22433,-255.82999,-256.73807,-263.71713,-274.41757,-283.88168,-287.88547,-285.84891,-281.44666,-280.66418,-288.66959,-307.41568,-335.1312,-367.5166,-399.54285,-426.80853,-446.16614,-456.02008,-456.74033,-451.08353,-443.98523,-441.18793,-446.9541,-461.99506,-482.95291,-503.99274,-519.73969,-527.86017,-529.75507,-529.05371,-529.04755,-530.84979,-533.45087,-535.38904,-536.5379,-538.4259,-542.646,-548.46838,-551.59277,-545.40088,-524.41589,-488.04251,-442.19388,-397.49475,-364.75806,-350.10043,-352.34811,-364.10861,-375.83282,-380.59399,-377.05695,-369.25494,-363.58057,-364.79889,-373.20596,-384.26376,-390.69888,-385.89441,-366.93677,-335.9892,-299.49072,-265.61691,-241.12976,-228.9558,-227.50052,-231.93866,-236.80888,-238.60136,-237.02016,-234.31311,-233.16628,-234.53839,-236.89253,-237.43015,-234.60901,-230.25882,-229.68053,-239.2865,-262.93393,-299.10345,-340.76981,-378.2984,-403.88046,-415.03674,-415.22946,-411.33636,-409.59515,-412.45834,-418.10104,-422.5813,-423.00598,-419.55621,-415.14328,-413.12973,-414.82886,-418.55057,-420.81506,-418.82852,-412.46487,-404.37842,-398.18784,-395.99628,-396.94232,-397.74634,-394.85593,-386.74243,-374.85269,-362.66766,-353.58231,-349.03696,-348.05627,-348.32877,-347.93192,-346.46808,-344.90933,-344.42242,-345.15146,-345.89508,-344.90155,-341.16241,-335.22546,-328.9075,-324.08743,-321.4144,-319.81985,-317.15771,-311.53055,-302.42984,-290.99429,-279.31369,-269.31216,-261.93063,-257.01233,-253.76573,-251.33696,-249.089,-246.54196,-243.24414,-238.85364,-233.42412,-227.58522,-222.29036,-218.14038,-214.72668,-210.58943,-204.04831,-194.51341,-183.39084,-173.7886,-168.94754,-170.23338,-175.98743,-182.14198,-184.42635,-180.89392,-173.15045,-165.36781,-161.54881,-162.68852,-165.66368,-164.68837,-154.59091,-133.9901,-106.44508,-78.845871,-57.963486,-47.156013,-45.073093,-46.945454,-47.506927,-43.733978,-35.885857,-26.513281,-18.360453,-12.622129,-8.571475,-4.5416036,0.63745582,6.8132935,12.790947,17.373446,20.319628,22.526957,25.37195,29.749916,35.51778,41.689636,47.171417,51.476658,54.961647,58.528938,63.122627,69.396774,77.678123,88.032249,100.16894,113.16027,125.27146,134.29228,138.45337,137.50049,133.19034,128.68344,126.99201,129.3515,134.58507,139.98535,143.24065,144.14934,144.88693,148.48973,156.44907,167.03612,175.64326,177.17467,169.13489,153.4825,135.97847,123.29148,119.54589,124.37434,133.59923,142.01466,146.45277,147.23038,147.22006,149.38133,154.55069,160.99252,165.90106,167.64789,167.0676,166.80067,169.14383,173.9695,178.27945,177.83652,169.85887,154.98326,137.16035,121.52404,111.62469,107.80527,107.67444,108.1849,107.77389,107.08894,107.92516,111.32632,116.38779,120.72678,122.28379,121.05569,119.34147,120.1571,124.88425,131.92018,137.52007,138.50618,135.09676,131.81241,135.54007,151.6842,180.68954,217.13815,252.10603,277.46762,289.64874,290.71506,286.3754,282.36407,281.53061,283.30243,285.50122,286.94928,288.90915,294.35699,305.68384,322.53018,341.35385,357.11618,366.01785,367.51596,364.35962,360.70966,359.63699,361.60919,364.81274,366.88824,366.76105,365.30817,364.5126,365.84299,369.0965,372.54227,374.22458,373.44327,371.31512,369.99277,371.08652,374.41141,377.96573,379.1955,376.7067,371.26627,365.40155,361.84189,361.81711,364.32291,366.83008,366.97791,364.16498,360.0293,357.5209,359.14813,365.46323,374.66849,383.51794,388.92719,389.35019,385.21426,378.32416,370.74188,363.85684,358.11017,353.34085,349.33325,346.10443,343.75958,342.12766,340.57599,338.26697,334.7569,330.52487,326.98593,325.84515,328.09521,333.25406,339.36377,343.84552,344.77747,341.86697,336.53064,331.01227,327.0546,324.93478,323.47504,321.05334,317.00925,312.55591,310.56055,314.20694,325.22424,342.65646,362.87839,380.89252,392.25851,394.70242,388.6796,376.76172,362.31747,348.22134,336.15482,326.62201,319.39682,313.9859,309.85468,306.44165,303.15546,299.49768,295.26559,290.64774,286.07156,281.86752,278.00601,274.15845,270.10303,266.1925,263.47397,263.23517,266.16013,271.62665,277.69052,281.91132,282.60886,279.78439,275.07474,270.69186,267.9754,266.48856,264.28644,259.23712,250.56277,239.57664,229.07716,221.73203,218.46971,217.92984,217.36107,214.41632,208.69449,202.01794,197.23352,196.26489,198.62025,201.27217,199.97784,191.2551,173.90436,149.3331,120.70268,91.557213,64.723618,41.894329,23.764196,10.302622,0.86666942,-5.781096,-11.255116,-16.965427,-23.404278,-29.837715,-34.82037,-37.39922,-38.252518,-39.828392,-45.056816,-55.172047,-67.971649,-77.846703,-78.002655,-63.938473,-36.307114,-1.411572,31.184168,52.813286,59.46003,53.12413,40.157047,27.632799,19.852898,16.859264,15.527478,12.271585,5.5500274,-3.3194189,-11.33448,-16.00386,-17.042864,-16.494947,-17.29027,-21.245943,-27.805676,-34.283901,-37.418434,-35.265305,-28.333395,-19.369366,-11.99884,-9.0222845,-11.255056,-17.414072,-24.970623,-31.439236,-35.452759,-37.172287,-37.944397,-39.458168,-42.841377,-48.12104,-54.285374,-59.899261,-63.958115,-66.536926,-68.880417,-72.864182,-80.098694,-91.154915,-105.32719,-121.03909,-136.62347,-151.0063,-163.92456,-175.64,-186.44333,-196.34467,-205.15439,-212.82553,-219.71353,-226.48007,-233.67213,-241.30342,-248.80711,-255.4597,-260.98932,-265.88467,-271.09631,-277.27432,-284.08838,-290.20267,-294.05847,-295.02075,-294.09537,-293.61572,-295.94379,-301.91895,-310.03503,-316.9361,-319.02335,-314.27777,-303.27441,-288.87131,-274.8508,-264.34958,-258.90347,-258.42215,-261.80444,-267.62357,-274.49527,-281.15945,-286.57663,-290.23544,-292.50711,-294.62189,-297.98383,-303.04639,-308.46588,-311.28818,-308.36102,-298.30841,-282.85977,-266.54459,-254.70262,-250.84975,-254.94313,-263.61911,-272.28534,-277.79083,-280.04114,-281.61465,-285.72385,-293.90436,-304.92612,-315.55963,-322.59415,-324.7294,-323.13986,-320.47025,-319.07065,-319.70569,-321.52396,-323.12494,-323.80746,-324.04861,-324.91928,-326.97873,-329.57681,-331.15802,-330.37659,-327.18771,-323.06491,-320.11536,-319.67554,-321.36761,-323.29547,-323.26392,-320.18399,-314.69159,-308.55328,-303.27637,-298.89664,-293.80399,-285.76859,-273.5282,-257.92477,-241.86374,-229.10164,-222.56023,-223.08879,-229.26643,-238.20906,-246.83829,-252.95142,-255.69081,-255.40622,-253.16968,-250.23232,-247.58813,-245.6925,-244.36136,-242.90567,-240.52611,-236.85745,-232.39156,-228.47452,-226.76157,-228.34309,-233.01823,-239.17821,-244.43883,-246.71188,-245.12257,-240.26187,-233.6698,-226.91223,-220.83588,-215.42171,-210.23024,-205.0416,-200.20163,-196.43991,-194.32805,-193.80586,-194.14058,-194.358,-193.83989,-192.66664,-191.47479,-190.94632,-191.29872,-192.12621,-192.67812,-192.35257,-191.0497,-189.15366,-187.18759,-185.40547,-183.59947,-181.22411,-177.72014,-172.82291,-166.71303,-160.0173,-153.75185,-149.24878,-147.99149,-151.24699,-159.5137,-172.02942,-186.71292,-200.77557,-211.84955,-219.07036,-223.4321,-227.06705,-231.74489,-237.44699,-241.94843,-241.81238,-234.34532,-219.40668,-199.95978,-180.94398,-167.04008,-160.57271,-160.71411,-164.36186,-168.06134,-169.7679,-169.44786,-168.33859,-167.56413,-167.14925,-166.0885,-163.30856,-158.70676,-153.4194,-149.07777,-146.599,-145.44542,-143.97316,-140.68846,-135.5184,-130.11833,-126.87934,-127.24049,-130.47934,-133.91396,-134.51292,-130.90225,-124.38644,-118.17348,-115.17205,-115.74277,-116.93023,-113.83331,-102.41637,-82.093941,-56.481949,-31.786463,-13.726123,-4.7622252,-3.1955099,-4.5373931,-4.2144589,0.042937301,7.4463334,15.249394,20.794065,23.136738,23.325443,23.366461,24.745224,27.536812,30.615015,32.669949,33.23167,32.986061,33.234966,34.961433,38.190365,42.064213,45.519165,48.044804,50.006123,52.361092,56.03455,61.401356,68.183922,75.73082,83.388374,90.683083,97.259384,102.75306,106.82336,109.38731,110.85974,112.12213,114.11528,117.25793,121.09275,124.47035,126.23365,125.99708,124.50157,123.27457,123.77945,126.58949,131.11433,136.03859,140.15477,143.02188,145.03169,146.90683,149.0659,151.36856,153.43854,155.28447,157.65721,161.72673,168.15588,176.1524,183.22253,185.98962,181.77975,170.13672,153.37468,135.77222,121.76899,114.09193,112.7727,115.51177,119.10708,121.12629,120.94883,119.72287,119.39872,121.45871,126.04394,131.89001,137.02814,139.83319,139.87314,138.15221,136.64748,137.36696,141.3744,148.24756,156.24922,163.15794,167.36699,168.68849,168.41286,168.55414,170.67583,174.9686,180.14577,184.25407,185.9277,185.30118,183.97151,183.98825,186.49146,190.89001,195.164,197.1577,196.05984,193.10022,190.9621,192.23203,197.84409,206.49826,215.41417,221.9283,224.92014,225.20366,224.73213,225.24048,227.26408,230.12598,232.75128,234.58401,235.87073,237.13109,238.33203,238.57864,236.78006,232.97507,229.37616,230.2054,240.10773,261.8847,294.83759,334.73422,375.46216,411.41205,439.22839,458.03729,468.29626,470.3009,463.53229,447.34119,422.43088,391.94485,361.15463,335.66129,319.0563,311.42685,309.63379,309.22604,306.8714,301.90829,296.20999,292.59732,292.86694,296.62192,301.48721,304.41138,303.16849,297.20715,287.53293,275.93585,264.17038,253.5323,244.86086,238.67587,235.1624,233.98285,234.16595,234.3428,233.34026,230.80966,227.44446,224.55968,223.23686,223.57451,224.56352,224.71574,223.06036,219.8448,216.4389,214.45518,214.63293,216.22859,217.36926,216.22668,212.3307,207.20564,203.87291,205.40942,213.30458,226.4986,241.63614,254.43414,261.48944,261.64429,256.27612,248.4334,241.30602,236.81253,234.97537,234.31764,232.98224,229.92073,225.49841,221.20576,218.66727,218.52768,219.86131,220.45621,217.83658,210.47784,198.56999,183.94711,169.26312,156.884,148.06512,142.75826,140.00784,138.5993,137.57423,136.41524,134.95831,133.23007,131.36017,129.56709,128.11314,127.16132,126.60197,126.00916,124.82864,122.71525,119.77807,116.51269,113.4209,110.58551,107.55649,103.70652,98.843369,93.603668,89.235886,86.801987,86.305191,86.41124,85.093704,80.886436,73.92202,65.980759,59.408356,55.577995,53.980438,52.672852,49.880196,45.656387,42.338497,43.27021,50.480854,62.850529,76.125977,85.003639,86.096222,79.909576,70.502617,62.976494,60.372921,61.97628,64.101517,62.804977,56.684685,47.90287,40.782253,38.960697,43.020847,50.128532,55.817581,56.638653,51.914642,43.587311,34.51046,26.547457,19.788631,13.232036,6.1514912,-1.0498085,-7.1622162,-11.30562,-13.837725,-16.198479,-19.760984,-24.623772,-29.38707,-32.193577,-32.274734,-30.765825,-30.058428,-32.091732,-36.86734,-42.379383,-46.100449,-46.935699,-46.122097,-46.300587,-49.401932,-54.978928,-60.37207,-62.723366,-61.365189,-58.680717,-58.581532,-63.565628,-72.535698,-81.171616,-84.830688,-81.990685,-75.654381,-71.466293,-73.683899,-81.857857,-90.763466,-93.881058,-88.099472,-76.247169,-65.431892,-62.116364,-67.29348,-75.239326,-76.929276,-65.933289,-42.793381,-14.868481,8.2377825,20.48814,22.481745,19.839209,18.35253,19.628151,20.460514,16.294441,6.0139794,-5.7420406,-10.712316,-2.2341559,20.161615,50.109554,78.202789,97.510582,106.951,110.35429,112.30541,114.174,113.38986,106.32483,92.23349,74.87635,60.353676,52.803123,51.447041,51.485592,48.237297,41.187096,34.501064,33.345844,38.891499,46.280403,47.750267,38.925159,23.306395,10.829369,10.763008,24.011242,41.132519,48.613499,39.494686,20.199501,7.1298652,13.823759,37.350471,55.035797,36.749332,-33.059414,-138.14632,-232.22829,-263.07825,-207.28523,-94.587257,-4.0687647,-29.953325,-233.34265,-606.35779,-1069.767,-1506.8733,-1815.9703,-1953.4005,-1945.295,-1864.4745,-1788.3435,-1762.3907,-1787.6765,-1834.4814,-1868.8945,-1873.8425,-1852.962,-1818.866,-1777.4708,-1720.8289,-1632.998,-1503.319,-1336.4182,-1151.4187,-971.255,-810.20813,-668.64026,-538.18164,-412.79593,-297.01901,-205.05919,-151.37636,-139.65474,-158.24155,-185.47958,-201.4048,-197.98912,-181.37784,-165.26102,-160.47224,-168.00879,-179.72325,-185.32829,-180.15369,-168.10162,-158.12352,-157.27309,-165.58232,-176.31281,-181.04842,-175.69138,-163.05981,-150.49266,-144.49518,-146.37253,-151.78391,-154.16818,-149.31564,-137.85045,-124.19829,-113.2266,-107.21485,-105.20451,-104.75945,-104.37479,-104.51815,-106.61642,-111.05195,-116.00916,-118.2609,-115.36612,-107.57197,-97.894165,-90.226425,-86.824982,-86.981583,-87.801338,-86.442947,-82.138458,-76.547386,-72.291733,-70.866608,-71.519341,-71.882919,-69.792786,-64.850975,-58.562077,-53.009521,-49.168724,-46.201488,-42.277355,-36.25494,-28.871502,-22.455669,-19.313551,-19.974459,-22.628782,-24.22961,-22.502617,-17.42935,-11.143942,-6.3339748,-4.3158779,-4.1725793,-3.5480509,-0.47815174,5.1060214,11.305559,15.651652,16.935474,16.119801,15.657353,17.701256,22.499285,28.140646,31.871435,32.097359,29.720001,27.916645,30.52083,40.05357,56.597984,78.061607,101.43314,124.07932,144.2868,160.94464,172.92897,178.9079,177.85255,169.89262,156.80133,141.61035,127.46867,116.41431,108.80741,103.72813,99.996658,97.089874,95.364815,95.532455,97.855583,101.69984,105.76264,108.79047,110.25556,110.52808,110.47404,110.8195,111.74855,112.97645,114.15627,115.24107,116.50288,118.22299,120.35346,122.47659,124.13698,125.29368,126.5043,128.6301,132.21657,136.98262,141.8186,145.35799,146.77914,146.31314,145.11507,144.58185,145.56844,148.0096,151.15971,154.23206,156.95807,159.6741,162.9066,166.79654,170.81516,174.0014,175.56445,175.42601,174.31734,173.36188,173.43234,174.71725,176.76659,178.93945,180.90146,182.81,185.07768,187.92459,191.08289,193.89491,195.74617,196.51994,196.73824,197.27644,198.84167,201.56815,204.99252,208.40044,211.28099,213.57083,215.54369,217.47124,219.34474,220.8885,221.86232,222.41542,223.19321,225.05789,228.55641,233.46516,238.72687,242.87457,244.75066,244.14885,242.03503,240.21379,240.57799,244.27235,251.1382,259.68701,267.63556,272.80707,274.03812,271.69632,267.54263,263.94608,262.77841,264.52206,268.07605,271.41083,272.75235,271.63318,269.16968,267.35098,267.73395,270.35782,273.62152,275.30325,274.16205,271.11841,269.18253,272.02316,281.9198,298.27802,317.61319,335.06677,346.62549,350.8205,349.02518,344.32394,339.7348,336.84888,335.55899,334.79919,333.61627,331.81848,329.88077,328.36905,327.4527,326.90677,326.53763,326.58261,327.64227,330.09454,333.40857,335.94366,335.53214,330.59418,321.11261,308.8252,296.47153,286.53333,280.21802,277.24307,276.42822,276.58832,277.09586,277.81128,278.59457,278.91913,277.98312,275.26587,271.06201,266.48309,262.79633,260.50052,258.8107,256.00656,250.51314,242.03867,231.98671,222.80087,216.60307,213.97606,213.67104,213.42793,211.3734,207.09694,201.73944,197.09576,194.37566,193.45645,193.08594,191.82999,189.06926,185.35822,181.93721,179.78586,178.90443,178.31857,176.77519,173.61774,169.22607,164.73808,161.27997,159.25987,158.19887,157.16745,155.46341,153.02393,150.29765,147.72925,145.30641,142.5657,139.08597,135.08702,131.60698,129.97928,130.82086,133.14529,134.24135,130.56229,119.28138,99.743294,74.043213,46.399715,21.603468,3.2766361,-7.2699804,-11.140528,-11.005066,-9.8063707,-9.6497526,-11.307184,-14.40466,-18.038126,-21.4249,-24.272902,-26.759945,-29.23488,-31.876118,-34.528164,-36.80788,-38.40398,-39.374126,-40.237293,-41.772568,-44.611721,-48.851894,-53.928383,-58.853035,-62.710995,-65.142387,-66.527367,-67.759163,-69.735764,-72.872147,-76.918465,-81.17205,-84.921303,-87.823296,-89.985641,-91.745026,-93.350288,-94.81208,-96.034317,-97.104752,-98.47419,-100.81481,-104.58636,-109.58308,-114.80111,-118.7876,-120.32135,-119.04066,-115.64639,-111.56322,-108.27262,-106.71238,-107.05785,-108.92472,-111.76802,-115.17576,-118.90428,-122.73833,-126.3901,-129.58014,-132.23917,-134.61903,-137.14606,-140.07089,-143.18619,-145.89609,-147.67816,-148.64005,-149.70949,-152.18275,-156.81281,-163.03438,-168.96552,-172.38641,-172.21663,-169.54144,-167.35062,-168.86003,-175.19702,-183.77129,-188.43857,-181.66147,-157.7807,-115.86102,-60.746185,-1.8369761,49.815388,84.818024,97.873466,88.660439,61.224152,22.437675,-19.829628,-58.406853,-88.171799,-106.9128,-115.51448,-117.31068,-116.68424,-117.36009,-121.09024,-127.32841,-134.02167,-139.05037,-141.49687,-142.05382,-142.42339,-144.16907,-147.7728,-152.45264,-156.76509,-159.52061,-160.40218,-159.95354,-159.06622,-158.40546,-158.17499,-158.29886,-158.76485,-159.78296,-161.61595,-164.25027,-167.23441,-169.88235,-171.72499,-172.8508,-173.81963,-175.14658,-176.70953,-177.54759,-176.27866,-171.92392,-164.60478,-155.62215,-146.83051,-139.70306,-134.70343,-131.36609,-128.98608,-127.38356,-127.15911,-129.23233,-133.99525,-140.7195,-147.70265,-153.12015,-156.03276,-156.86055,-156.98451,-157.74309,-159.52336,-161.59473,-162.81749,-162.73228,-162.23802,-163.31619,-167.89992,-176.58549,-188.03209,-199.48087,-208.11877,-212.47762,-213.04468,-211.7679,-210.82487,-211.44449,-213.4679,-215.8082,-217.38631,-217.86499,-217.71992,-217.69144,-218.09177,-218.51006,-218.13332,-216.4351,-213.7075,-211.01756,-209.57715,-209.93658,-211.55424,-213.05847,-213.06277,-211.02486,-207.60156,-204.26712,-202.42744,-202.57637,-204.00836,-205.25192,-204.94727,-202.63377,-198.98734,-195.39337,-193.13626,-192.69121,-193.51283,-194.39996,-194.18275,-192.31934,-189.0826,-185.28278,-181.73848,-178.82335,-176.33171,-173.69569,-170.38611,-166.24974,-161.60657,-157.08563,-153.32047,-150.67703,-149.13858,-148.36989,-147.89406,-147.28308,-146.2859,-144.86751,-143.1725,-141.44307,-139.92024,-138.75313,-137.94011,-137.32237,-136.63467,-135.59294,-133.97704,-131.66847,-128.63142,-124.86554,-120.38081,-115.22845,-109.57478,-103.75816,-98.262436,-93.584442,-90.048653,-87.673439,-86.183022,-85.179749,-84.388931,-83.828407,-83.783539,-84.578453,-86.263596,-88.408684,-90.149635,-90.503654,-88.811775,-85.082573,-80.048439,-74.888008,-70.740623,-68.244751,-67.318031,-67.26899,-67.163712,-66.25103,-64.23941,-61.313641,-57.925056,-54.501778,-51.25021,-48.146454,-45.094963,-42.130981,-39.521244,-37.682789,-36.954746,-37.353035,-38.458809,-39.522804,-39.749458,-38.622669,-36.109722,-32.644531,-28.909418,-25.537582,-22.888006,-20.988338,-19.637365,-18.572939,-17.593237,-16.573639,-15.405324,-13.935818,-11.980588,-9.4100618,-6.2482638,-2.699228,0.93748969,4.4218936,7.7033572,10.939384,14.389304,18.252275,22.553953,27.144922,31.785507,36.221336,40.160149,43.146648,44.441452,43.0574,38.041264,28.934189,16.192755,1.3109229,-13.500461,-25.994007,-34.634579,-39.061039,-40.038143,-38.938522,-37.041389,-35.020737,-32.871113,-30.256289,-27.021811,-23.529659,-20.598249,-19.082628,-19.354654,-21.006165,-22.966433,-23.98328,-23.210117,-20.588493,-16.837828,-13.081341,-10.320399,-9.0231981,-9.0037537,-9.6017408,-10.030421,-9.7078991,-8.4331532,-6.3671556,-3.8709929,-1.2984324,1.1633033,3.5467489,6.0400229,8.8398256,11.991625,15.301232,18.378948,20.815405,22.410715,23.329821,24.078348,25.286234,27.404474,30.486021,34.184143,37.971027,41.437572,44.477932,47.239422,49.884594,52.354641,54.334843,55.480759,55.760265,55.646713,55.966343,57.433014,60.147308,63.416645,66.084221,67.223228,66.771156,65.654884,65.245209,66.426071,68.886162,71.203156,71.864067,70.769569,70.35714,75.527756,92.099014,124.27887,172.2493,231.03487,291.33173,342.12048,374.09204,382.55518,368.72589,338.98654,302.52179,268.32101,242.66946,227.92516,222.79141,223.71346,226.68059,228.70459,228.51469,226.4102,223.55574,221.1609,219.9209,219.87724,220.61769,221.59569,222.3649,222.65395,222.3461,221.47995,220.32111,219.43192,219.59741,221.52756,225.42775,230.69566,236.02057,239.97311,241.8593,242.36601,243.53394,247.90797,257.18829,271.06494,286.91904,300.67221,308.45251,308.27356,300.87033,289.26495,277.30408,267.94946,262.19507,259.09402,256.73972,253.54364,249.06766,244.01993,239.56384,236.47571,234.69878,233.5103,232.09494,230.08325,227.70259,225.50139,223.90663,222.95186,222.33759,221.71323,220.91461,219.96349,218.86595,217.43651,215.36206,212.5072,209.21692,206.30867,204.64305,204.4991,205.1996,205.33803,203.57423,199.53741,194.21912,189.50697,187.06102,187.21063,188.60622,188.922,186.23064,180.20473,172.36952,165.21919,160.74059,159.28207,159.48528,159.3006,157.39342,153.9951,150.63734,148.9713,149.49886,151.10358,151.71999,149.69443,144.90694,138.87573,133.75391,130.886,129.8987,128.94731,125.96209,120.06542,112.21745,104.6666,99.579041,97.756874,98.274147,99.229332,99.068657,97.57814,95.900627,95.612762,97.523369,101.01147,104.32364,105.59142,103.86882,99.525589,93.811546,87.973045,82.562691,77.378632,71.977158,66.290916,60.845402,56.406521,53.344284,51.222973,48.964161,45.503017,40.488449,34.533993,28.839363,24.441875,21.606419,19.749067,17.904587,15.375178,12.101018,8.5288363,5.1355629,2.0058222,-1.2071992,-4.9236865,-9.1847811,-13.486642,-17.064014,-19.438658,-20.83061,-22.105484,-24.243862,-27.645586,-31.695173,-34.849876,-35.20026,-31.214718,-22.350487,-9.3611097,5.7048244,19.767382,29.251564,30.933424,23.006264,6.0210056,-16.828236,-40.480625,-59.770691,-71.482475,-75.659172,-75.375771,-74.975571,-77.681137,-83.936371,-91.468498,-97.037453,-98.771957,-97.573067,-96.610283,-99.145302,-106.03709,-114.57516,-119.52686,-115.91848,-101.95521,-80.335754,-57.146023,-38.946747,-29.717552,-29.3438,-34.353703,-40.269279,-44.067703,-45.353481,-45.77681,-47.347496,-50.877258,-55.523655,-59.563606,-61.702633,-61.959885,-61.572098,-62.087914,-64.352036,-68.071198,-72.174408,-75.612358,-77.987602,-79.612663,-81.059029,-82.623634,-84.142845,-85.260139,-85.874931,-86.362762,-87.35775,-89.256744,-91.846275,-94.375336,-96.055939,-96.631577,-96.57663,-96.749176,-97.728691,-99.326195,-100.65652,-100.76772,-99.407715,-97.375183,-96.15937,-97.055344,-100.31568,-104.9045,-109.04144,-111.21235,-111.02052,-109.35929,-107.82557,-107.77189,-109.59622,-112.67596,-115.91113,-118.45668,-120.14626,-121.37072,-122.575,-123.79289,-124.58071,-124.39479,-123.11829,-121.32426,-120.04642,-120.1833,-121.93523,-124.66942,-127.32787,-129.1243,-130.07179,-130.98343,-132.92851,-136.48332,-141.2527,-145.97057,-149.1277,-149.75786,-147.93951,-144.77222,-141.91891,-141.04193,-143.45511,-150.09117,-161.6156,-178.40829,-200.26431,-225.94653,-252.9463,-277.79376,-296.97934,-308.16101,-311.08334,-307.70511,-301.4068,-295.6286,-292.59088,-292.69608,-294.83038,-297.29886,-298.82135,-299.05615,-298.45786,-297.69446,-297.08508,-296.44122,-295.37708,-293.81656,-292.29199,-291.77765,-293.12085,-296.40308,-300.60736,-303.76831,-303.48865,-297.52417,-284.18195,-262.49097,-232.30331,-194.50302,-151.30989,-106.41869,-64.627708,-30.811529,-8.4965076,1.349371,0.66545379,-6.4942465,-15.586278,-23.261461,-28.291168,-31.34903,-33.910801,-37.010033,-40.595917,-43.790733,-45.736206,-46.352482,-46.43985,-47.049923,-48.590469,-50.340244,-50.787697,-48.649288,-43.94231,-38.409641,-34.971138,-36.465195,-44.365108,-58.15287,-75.629753,-93.913055,-110.54055,-124.14792,-134.51849,-142.17595,-147.86945,-152.2222,-155.60344,-158.12495,-159.66104,-159.89334,-158.45441,-155.18991,-150.41754,-144.97026,-139.89352,-135.90034,-132.91447,-130.05434,-126.16585,-120.63617,-113.97448,-107.73039,-103.71786,-102.97566,-105.10738,-108.43923,-110.92746,-111.26654,-109.519,-106.89918,-104.89045,-104.29321,-104.81107,-105.39253,-105.03107,-103.44275,-101.16993,-99.092072,-97.741241,-96.929558,-95.935349,-94.070892,-91.18354,-87.716431,-84.30703,-81.259254,-78.317406,-74.929291,-70.797562,-66.278664,-62.285004,-59.712868,-58.785011,-58.786934,-58.413025,-56.509293,-52.714622,-47.574505,-42.080101,-36.996151,-32.478466,-28.241421,-24.092426,-20.339052,-17.643532,-16.323277,-15.577556,-13.296279,-6.8072109,5.6953278,23.824785,44.631924,63.560146,76.335701,80.827904,77.891701,70.761703,63.370239,58.533188,56.955509,57.475616,58.238205,58.001339,56.810341,55.744846,56.038521,58.212311,61.769703,65.580444,68.62561,70.582382,71.888336,73.304832,75.3293,77.875786,80.425041,82.507248,84.153923,85.987999,88.877945,93.382172,99.350586,105.94395,112.05602,116.86845,120.19936,122.46257,124.31791,126.28095,128.54948,131.11116,133.97502,137.283,141.17735,145.53172,149.81627,153.31194,155.62657,157.1722,159.1711,162.98615,169.01907,175.80965,180.00734,177.48228,165.18243,142.81938,113.42717,82.367432,55.185699,35.378517,23.211845,16.164442,10.67498,4.1689115,-3.7562265,-11.555421,-17.082232,-19.132286,-18.220467,-16.179335,-14.937465,-15.331773,-16.728334,-17.648817,-16.921265,-14.541015,-11.649515,-9.6536436,-9.1008749,-9.101655,-7.7355261,-3.2263646,4.8469119,15.087272,24.892288,31.803835,34.796906,34.747063,33.817886,34.15881,36.699326,40.734783,44.496651,46.306,45.587746,43.152744,40.632839,39.47097,40.109627,41.856106,43.457012,43.975964,43.40538,42.640678,42.863201,44.74752,48.003464,51.53426,54.095577,55.026924,54.59269,53.728931,53.376198,53.843319,54.623775,54.79092,53.716244,51.632332,49.644299,49.137768,50.924965,54.663029,58.93861,62.014072,62.814232,61.559574,59.642002,58.789368,60.00531,62.928768,66.022995,67.507568,66.482628,63.550297,60.514374,59.288345,60.644455,63.590805,65.857559,65.360687,61.922123,58.289604,59.763012,72.382309,100.34821,143.7771,197.82219,253.65016,300.98996,331.31384,340.45071,329.67184,304.90906,274.49869,246.37996,225.80861,214.34613,210.3054,210.24265,210.7312,209.66507,206.67033,202.66426,198.96597,196.4761,195.29292,194.83937,194.3101,193.13715,191.23862,188.98106,186.94102,185.61868,185.23018,185.63354,186.38208,186.87144,186.54015,185.07182,182.53043,179.35788,176.20575,173.65317,171.94057,170.86392,169.90036,168.50706,166.42737,163.8277,161.18758,159.01559,157.56812,156.73759,156.16289,155.47269,154.50208,153.35938,152.33191,151.71831,151.69469,152.26305,153.2533,154.32709,154.97827,154.5889,152.60646,148.82379,143.62126,137.97646,133.1369,130.05806,128.90324,128.92899,128.88495,127.73699,125.28461,122.26751,119.85749,118.83366,118.97491,119.09591,117.7475,114.15494,108.78087,103.11772,98.811264,96.668022,96.195084,95.980392,94.661812,91.82917,88.240036,85.197121,83.524796,82.887878,81.990105,79.589561,75.669334,71.920288,71.080925,75.409988,85.172768,98.093536,110.19296,117.60727,118.38795,113.28262,105.1002,97.088692,91.2957,87.818703,85.255508,81.9291,77.048485,71.106224,65.372482,60.934849,57.974808,55.740738,53.165745,49.647808,45.439613,41.404221,38.345234,36.399265,34.90744,32.832031,29.411518,24.606243,19.059286,13.6428,8.9318447,4.9633093,1.4052131,-2.0396786,-5.3257513,-8.0871391,-9.965601,-10.985698,-11.68291,-12.869295,-15.182418,-18.717758,-22.985868,-27.211767,-30.766556,-33.449478,-35.463058,-37.147076,-38.694782,-40.059952,-41.097759,-41.798115,-42.404499,-43.310654,-44.809082,-46.888313,-49.243408,-51.501274,-53.493416,-55.366089,-57.438053,-59.912102,-62.66795,-65.313774,-67.480316,-69.147057,-70.74395,-72.919701,-76.110413,-80.203903,-84.549324,-88.329224,-91.053085,-92.834625,-94.258705,-95.932869,-98.04879,-100.27815,-102.08716,-103.24026,-104.10545,-105.49761,-108.12731,-112.03048,-116.409,-120.05627,-122.13467,-122.79723,-123.20376,-124.85904,-128.65147,-134.19542,-139.91621,-143.86057,-144.7601,-142.71838,-139.12933,-135.90919,-134.52505,-135.37952,-137.84013,-140.78346,-143.24182,-144.76321,-145.36444,-145.25763,-144.63989,-143.70074,-142.75522,-142.267,-142.61079,-143.67072,-144.58138,-143.90184,-140.25012,-133.08914,-123.19173,-112.46079,-103.16412,-97.009354,-94.582626,-95.429794,-98.63652,-103.45132,-109.50896,-116.53839,-123.84555,-130.05516,-133.43175,-132.68381,-127.77544,-120.19512,-112.43137,-106.88902,-104.83583,-105.96073,-108.75915,-111.47303,-113.01106,-113.33729,-113.18252,-113.35315,-114.1219,-115.07267,-115.44079,-114.6714,-112.81228,-110.50539,-108.61951,-107.78057,-108.08193,-109.10532,-110.18067,-110.69465,-110.28072,-108.83926,-106.44521,-103.23306,-99.309471,-94.69368,-89.279373,-82.847702,-75.185112,-66.31942,-56.786667,-47.75272,-40.827133,-37.554916,-38.784473,-44.249062,-52.646854,-62.255241,-71.798866,-81.10112,-91.124817,-103.32858,-118.65867,-136.72485,-155.63109,-172.57881,-184.93819,-191.23523,-191.57294,-187.33989,-180.45316,-172.59669,-164.8409,-157.73303,-151.63818,-146.98753,-144.2177,-143.46031,-144.25874,-145.59717,-146.31409,-145.68964,-143.84099,-141.65074,-140.23828,-140.28,-141.59381,-143.24767,-144.12665,-143.60591,-141.91165,-139.9494,-138.71376,-138.65097,-139.36874,-139.86852,-139.15562,-136.86371,-133.53337,-130.39572,-128.79129,-129.53691,-132.55188,-136.89612,-141.16443,-144.03668,-144.75177,-143.33736,-140.5343,-137.45816,-135.12471,-134.02087,-133.90683,-133.96346,-133.24881,-131.2533,-128.24692,-125.18133,-123.14601,-122.66231,-123.24967,-123.58726,-122.24769,-118.59705,-113.29001,-107.98608,-104.38799,-103.16922,-103.5,-103.56422,-101.84516,-98.419151,-95.397339,-96.100952,-103.3084,-117.51899,-136.2507,-154.85323,-168.4734,-174.15602,-171.98712,-164.73311,-156.26273,-149.67102,-146.09607,-144.73219,-143.82289,-141.90901,-138.58586,-134.44405,-130.41995,-127.1049,-124.48232,-122.18566,-119.98264,-118.06066,-116.88073,-116.72129,-117.28415,-117.70258,-117.00311,-114.73431,-111.32905,-107.91982,-105.6825,-105.10685,-105.66353,-106.104,-105.23335,-102.68786,-99.22538,-96.319267,-95.264839,-96.311897,-98.34156,-99.307671,-97.233025,-91.236603,-82.044342,-71.711304,-62.70002,-56.7873,-54.341194,-54.295692,-54.783131,-54.063797,-51.279488,-46.69368,-41.371521,-36.535358,-32.96162,-30.713173,-29.287762,-28.034849,-26.570845,-24.958824,-23.577126,-22.785141,-22.603218,-22.604944,-22.092876,-20.468313,-17.596762,-13.96871,-10.553756,-8.3926849,-8.0905485,-9.4129038,-11.137074,-11.20703,-7.1385498,3.4380577,22.218149,49.746933,85.110268,125.87051,168.31627,208.0506,240.84679,263.58185,274.97345,275.8623,268.91565,257.8349,246.33488,237.23409,231.92003,230.28152,231.0256,232.2067,231.80846,228.28267,220.98807,210.45168,198.33426,187.00153,178.73761,174.84528,175.03052,177.42981,179.36749,178.54466,174.08189,166.86304,158.9807,152.58504,148.78679,147.23672,146.59508,145.56035,143.78874,142.12231,142.00508,144.49998,149.57581,156.13858,162.76949,168.64725,174.01057,179.83984,186.98625,195.36926,203.82289,210.72188,214.96985,216.66933,217.00661,217.42844,218.68211,220.38559,221.41701,220.8293,218.62143,215.80602,213.7339,213.19531,214.00186,215.409,217.09145,219.90175,225.69717,236.12611,251.0358,267.56564,280.70615,285.26074,278.26016,260.51718,236.42607,212.07594,192.67564,180.62698,175.14854,173.43651,172.52179,170.72377,168.00403,165.27626,163.33218,162.15092,160.97098,158.93781,155.78111,152.03325,148.67542,146.50346,145.66273,145.63785,145.64998,145.15526,144.11829,142.93138,142.09918,141.93355,142.44147,143.41768,144.61424,145.84521,146.9798,147.88593,148.41666,148.47151,148.07616,147.39333,146.63016,145.89929,145.13972,144.16425,142.80406,141.04411,139.05153,137.08461,135.36226,133.99452,133.0087,132.4091,132.17281,132.14717,131.9317,130.89182,128.39023,124.15633,118.56237,112.57269,107.31282,103.46814,100.88142,98.639816,95.646362,91.343208,86.121841,81.130913,77.578148,75.967064,75.770927,75.769409,74.832695,72.632469,69.803185,67.448601,66.336624,66.339287,66.501907,65.685181,63.323357,59.76741,55.985516,52.859543,50.602863,48.72282,46.528282,43.756531,40.790413,38.256447,36.31303,34.258957,30.934778,25.810179,20.041655,16.611813,19.130606,29.752596,47.381081,67.368004,83.159218,89.190422,83.513588,68.681946,50.368324,34.488567,24.455309,20.064083,18.488419,16.580107,12.940416,8.4948263,5.3654685,4.9770055,6.7992435,8.6269455,8.1829948,4.8734932,0.38627198,-2.3859134,-1.4282516,2.7495074,7.1477504,8.1612701,4.2122617,-2.5826735,-6.9427347,-3.0611334,12.077726,36.640026,64.413239,87.624146,100.56462,102.04429,95.410248,86.297691,79.527191,76.917923,77.088882,77.066666,74.499565,69.08342,62.466919,56.931061,53.854317,52.971958,52.796848,51.772583,49.307335,46.022236,43.151318,41.605301,41.375725,41.641487,41.411041,40.17857,38.123882,35.77169,33.440437,30.949114,27.823744,23.837612,19.441933,15.704844,13.733517,13.945202,15.692759,17.531672,17.988722,16.354595,13.007451,9.0890255,5.7771053,3.6390183,2.454999,1.5527116,0.34970549,-1.3001696,-3.1658573,-4.9843826,-6.76509,-8.7881784,-11.308517,-14.238489,-17.11949,-19.461184,-21.205093,-22.914207,-25.450144,-29.283941,-33.918636,-37.913651,-39.63866,-38.369324,-35.027004,-32.006279,-32.074799,-36.93343,-46.284828,-57.981575,-69.169838,-77.732231,-83.167221,-86.432503,-88.964851,-91.606583,-94.173256,-95.895889,-96.32296,-95.934235,-95.942146,-97.383194,-100.18345,-102.9852,-104.0379,-102.69093,-100.50491,-101.10942,-108.65672,-125.61465,-151.13445,-180.98291,-209.17026,-230.45065,-242.39697,-246.02771,-244.80321,-242.68634,-242.37076,-244.5258,-248.2171,-251.99529,-254.89142,-256.7966,-258.19995,-259.65195,-261.38324,-263.26907,-265.02859,-266.41211,-267.23514,-267.32449,-266.54935,-265.01389,-263.27332,-262.30203,-263.04749,-265.70605,-269.14957,-270.96399,-268.2587,-258.92389,-242.67006,-221.23438,-197.58987,-174.58241,-153.77219,-135.1335,-117.73331,-100.90004,-85.099075,-71.939957,-63.315811,-60.242722,-62.157845,-67.132057,-72.859383,-77.792946,-81.723351,-85.47728,-89.992241,-95.413536,-100.81488,-104.70718,-105.97282,-104.59467,-101.70656,-98.954399,-97.603767,-97.965065,-99.456047,-101.17145,-102.50166,-103.35595,-103.88216,-103.98121,-103.09249,-100.53621,-96.265137,-91.505585,-88.734383,-90.802444,-99.56134,-114.72711,-133.66472,-152.30257,-166.76212,-174.88657,-176.91191,-175.00439,-171.9985,-170.0549,-169.91484,-171.01883,-172.25252,-172.782,-172.49188,-171.86118,-171.47673,-171.56573,-171.84694,-171.74817,-170.79799,-168.91914,-166.45468,-163.94881,-161.8493,-160.31575,-159.22183,-158.31123,-157.38918,-156.43817,-155.61014,-155.11725,-155.08247,-155.41646,-155.77171,-155.60255,-154.32709,-151.54402,-147.21707,-141.73198,-135.77954,-130.10938,-125.28047,-121.54514,-118.92095,-117.3754,-116.96181,-117.77522,-119.73718,-122.37553,-124.81609,-126.0888,-125.62758,-123.66374,-121.21826,-119.61798,-119.76767,-121.60252,-124.07492,-125.71928,-125.47533,-123.27498,-120.03539,-117.07256,-115.31641,-114.82605,-114.89412,-114.63266,-113.61716,-112.14443,-110.94307,-110.56307,-110.89427,-111.16745,-110.44836,-108.28537,-105.06046,-101.79596,-99.540352,-98.73735,-98.982193,-99.29715,-98.712784,-96.761642,-93.590691,-89.688263,-85.483612,-81.127975,-76.586082,-71.908333,-67.416824,-63.623192,-60.926346,-59.328037,-58.401623,-57.556347,-56.407154,-54.97443,-53.568768,-52.465141,-51.640274,-50.798538,-49.673813,-48.353855,-47.327259,-47.157604,-47.999794,-49.346207,-50.264553,-50.026024,-48.677845,-47.065575,-46.143353,-45.932594,-44.842003,-39.959538,-28.374743,-8.9074078,16.751017,44.25433,68.222412,84.49868,91.873405,92.367409,89.961815,88.510834,89.98687,93.95108,98.39296,101.30119,101.97288,101.32052,101.10356,102.66782,106.03054,109.87723,112.43842,112.67121,111.00569,109.20446,109.42837,113.0647,119.98991,128.65982,136.93239,143.12709,146.73389,148.43329,149.50835,151.06087,153.50198,156.55981,159.69641,162.58092,165.2742,168.02063,170.84506,173.30281,174.62584,174.214,172.14507,169.31834,167.06633,166.43069,167.55855,169.63692,171.4503,172.22156,172.17181,172.38197,173.98798,177.20923,180.877,182.8578,181.20616,175.38501,166.79411,158.23087,152.54948,151.27887,153.98897,158.7374,163.2724,166.23373,167.64638,168.49509,169.76407,171.6369,173.38716,173.98326,172.93704,170.77533,168.79663,168.28105,169.69904,172.45784,175.35121,177.39864,178.50412,179.49455,181.51671,185.19057,190.06273,194.69618,197.32658,196.68323,192.51543,185.58841,177.24294,168.83029,161.32367,155.22047,150.64708,147.49724,145.5031,144.263,143.31416,142.2894,141.09003,139.94458,139.27557,139.42885,140.43356,141.95615,143.48514,144.62172,145.27649,145.64226,145.97801,146.37674,146.69579,146.69951,146.29642,145.67641,145.22804,145.28683,145.90387,146.81987,147.68097,148.3461,149.05179,150.28902,152.45055,155.48221,158.7886,161.48384,162.84781,162.70757,161.50822,160.03853,158.99306,158.6423,158.79066,159.0034,158.92088,158.45508,157.78024,157.18483,156.9274,157.19116,158.11295,159.78436,162.1552,164.88608,167.2968,168.53902,167.9774,165.58752,162.1084,158.79584,156.85921,156.87666,158.52545,160.79276,162.55099,163.16669,162.79912,162.23793,162.40056,163.79057,166.20868,168.83865,170.62256,170.71886,168.8466,165.41135,161.40182,158.09317,156.61565,157.48866,160.28889,163.65422,165.74301,165.04764,161.20398,155.32283,149.53191,145.83267,144.82506,145.04222,143.39189,136.60658,122.99411,103.53424,81.672821,61.87352,47.684544,40.341702,38.597614,39.747349,41.160553,41.426338,40.563847,39.387432,38.612339,38.337372,38.162518,37.696644,36.953735,36.28981,35.952145,35.658653,34.624126,32.098892,28.052198,23.459061,19.88838,18.587561,19.654047,21.877066,23.403725,22.823322,19.967344,15.907836,12.181879,9.7929907,8.6734657,7.9422102,6.7150493,4.836432,2.9818211,2.0668433,2.4300764,3.4366641,3.8396349,2.6609457,-0.057726931,-3.2171617,-5.4057217,-5.9093256,-5.2434893,-4.7886143,-5.762681,-8.2751579,-11.182801,-12.904061,-12.6348,-11.068977,-10.036052,-11.233565,-14.921163,-19.540714,-22.626888,-22.463789,-19.36352,-15.627505,-14.117973,-16.341883,-21.354916,-26.312971,-28.418131,-27.035179,-24.55827,-25.349117,-33.287903,-49.388081,-70.93042,-92.660378,-109.34881,-118.22685,-119.95123,-117.70544,-115.16219,-114.61578,-116.32057,-119.19026,-122.14056,-125.05393,-128.74779,-134.09937,-141.06754,-148.37523,-154.10565,-156.81206,-156.39795,-154.20164,-152.25732,-152.2202,-154.60167,-158.69893,-163.14175,-166.64081,-168.50117,-168.71603,-167.75626,-166.30661,-165.11383,-164.92503,-166.3869,-169.83516,-175.06389,-181.2684,-187.29271,-192.11092,-195.28253,-197.09846,-198.31464,-199.63696,-201.28662,-202.91953,-203.93237,-203.92911,-203.0229,-201.77628,-200.83852,-200.54527,-200.75847,-201.04463,-201.04863,-200.78709,-200.64929,-201.1022,-202.30504,-203.90356,-205.15923,-205.34906,-204.19728,-202.07414,-199.83598,-198.39362,-198.25565,-199.30936,-200.96461,-202.57599,-203.8885,-205.22263,-207.24998,-210.45303,-214.58066,-218.47311,-220.46687,-219.25758,-214.7747,-208.51147,-202.9812,-200.45834,-201.65074,-205.11661,-207.91554,-207.28404,-202.43921,-195.38586,-190.05283,-190.02664,-196.05745,-204.81111,-209.77649,-204.07332,-183.79601,-150.14351,-109.18707,-69.391731,-38.202118,-19.435555,-12.663569,-14.581768,-21.296791,-30.124525,-40.028015,-50.810688,-61.953098,-72.066391,-79.351273,-82.657387,-82.301064,-79.99791,-77.920311,-77.511665,-78.84063,-80.875305,-82.410072,-82.953476,-82.971306,-83.384941,-84.767265,-86.865395,-88.796097,-89.734962,-89.552589,-88.905647,-88.71566,-89.436707,-90.673882,-91.449554,-90.925858,-89.044868,-86.602562,-84.689903,-83.907059,-83.9338,-83.786163,-82.585602,-80.279549,-77.766502,-76.295303,-76.534042,-77.965294,-79.06675,-78.2089,-74.70446,-69.320023,-63.898144,-60.311687,-59.400986,-60.547047,-62.120594,-62.495934,-60.989094,-58.167271,-55.399101,-53.982349,-54.40247,-56.133415,-58.019684,-58.935604,-58.310753,-56.268337,-53.400818,-50.40696,-47.825298,-45.957638,-44.916142,-44.670158,-45.033379,-45.639999,-46.003586,-45.693466,-44.550819,-42.800381,-40.957531,-39.561779,-38.89056,-38.827866,-38.96162,-38.8321,-38.160881,-36.920567,-35.234459,-33.222721,-30.940784,-28.464947,-26.040493,-24.130129,-23.253328,-23.661119,-25.037516,-26.44504,-26.606136,-24.40836,-19.373966,-11.845149,-2.8021321,6.5538797,15.19803,22.45056,27.886091,31.13562,31.795179,29.55467,24.473442,17.19059,8.872673,0.86418229,-5.7917347,-10.693711,-14.089391,-16.5592,-18.587473,-20.293987,-21.48226,-21.942513,-21.774717,-21.485615,-21.770685,-23.111282,-25.451128,-28.174528,-30.418568,-31.537771,-31.441761,-30.607111,-29.768402,-29.489183,-29.876657,-30.60095,-31.181732,-31.340818,-31.189707,-31.136099,-31.573624,-32.548061,-33.595905,-33.836098,-32.244171,-27.948751,-20.413099,-9.4741507,4.6756687,21.445585,39.700958,57.611347,72.68956,82.194244,83.898567,76.986588,62.665775,44.106712,25.575445,11.013462,2.6466894,0.27134541,1.5900847,3.4650953,3.4744174,0.98028332,-2.8285677,-5.8913302,-6.6324835,-4.9043493,-1.9649702,0.44939044,1.3216978,1.0168834,0.96792668,2.6150053,6.3631387,11.344096,16.224882,20.539557,25.559549,33.921242,48.024567,68.110321,91.301605,112.43923,126.46665,131.08687,128.1051,122.55197,119.98236,123.47552,132.09462,141.71904,147.73761,147.9646,144.01784,140.35623,141.6109,149.85992,163.47128,178.12024,189.24713,194.40799,194.16325,191.16365,188.23016,186.75322,186.36163,185.855,184.53467,182.88242,182.10196,182.92194,184.62051,185.08531,181.98245,174.30373,163.25311,151.83667,143.35681,139.72046,140.57983,143.77989,146.75839,147.9827,147.55663,146.72688,146.7415,147.88611,149.3309,149.82489,148.69733,146.44502,144.49609,144.30969,146.40924,149.97429,153.23885,154.42932,152.65855,148.2625,142.44664,136.53714,131.33298,126.92736,123.02139,119.43455,116.4248,114.60412,114.53474,116.30888,119.41183,122.96264,126.16885,128.69563,130.72226,132.67912,134.87198,137.26189,139.54225,141.4326,142.94904,144.4288,146.2674,148.54396,150.80516,152.17482,151.72441,148.84584,143.36447,135.3383,124.76428,111.54443,95.914627,79.170868,64.181496,55.124111,56.242878,70.023529,95.668579,128.77586,162.59279,190.39278,207.87637,214.44081,212.75476,206.98772,200.7347,195.73962,191.93726,188.49442,184.97467,181.81354,179.8873,179.64594,180.57504,181.45744,181.25476,179.91214,178.39885,177.84499,178.3326,178.23059,174.66061,164.92567,148.0453,125.41456,100.15088,75.550842,53.654572,34.80529,18.368935,3.957834,-7.8300533,-15.745056,-19.03809,-18.508142,-16.536295,-15.913545,-18.185539,-22.677774,-26.970972,-28.602846,-26.868322,-23.438869,-21.281012,-22.535236,-26.801584,-31.087887,-31.591007,-26.215605,-16.160879,-5.4518938,1.3727382,1.9648688,-2.4885178,-8.1636848,-11.154286,-9.9989576,-6.5198679,-4.4363227,-6.7012782,-13.356034,-21.346682,-26.434168,-25.939583,-20.520058,-13.820008,-10.239248,-12.270732,-19.097452,-27.273008,-32.946274,-34.133411,-31.597078,-27.876888,-25.241327,-23.986654,-22.197897,-17.068588,-6.8545165,7.8237419,24.125105,38.4114,48.002129,52.201675,52.106949,49.516994,45.773327,41.266129,35.778175,29.238125,22.22784,15.85044,11.084001,8.1311941,6.2647896,4.296669,1.3500437,-2.5904071,-6.7074885,-9.9127064,-11.544044,-11.743601,-11.305645,-11.149621,-11.799211,-13.197439,-14.921548,-16.583378,-18.103836,-19.682913,-21.532888,-23.615084,-25.599678,-27.082565,-27.888983,-28.223732,-28.540819,-29.214584,-30.245371,-31.21483,-31.532345,-30.808439,-29.099773,-26.858292,-24.622845,-22.672197,-20.887205,-18.926208,-16.597958,-14.170837,-12.386234,-12.131724,-13.954936,-17.71266,-22.578178,-27.415184,-31.307005,-33.939941,-35.635639,-37.042427,-38.695366,-40.715073,-42.808861,-44.537392,-45.648445,-46.253277,-46.739838,-47.495003,-48.628387,-49.879654,-50.764015,-50.856697,-50.03664,-48.550175,-46.879738,-45.522827,-44.821598,-44.918499,-45.803474,-47.35099,-49.27367,-51.023838,-51.772877,-50.603615,-46.934589,-41.018105,-34.231342,-28.913088,-27.698153,-32.574657,-44.079418,-61.030983,-80.963181,-101.07852,-119.27431,-134.75566,-147.96864,-159.94716,-171.47211,-182.52155,-192.30254,-199.80913,-204.54495,-206.95819,-208.31245,-210.05373,-213.03383,-217.04088,-220.9146,-223.19135,-222.92398,-220.22696,-216.25677,-212.65553,-210.77432,-211.09314,-213.11784,-215.75594,-217.91817,-219.00476,-219.0466,-218.49701,-217.86418,-217.42717,-217.17717,-216.955,-216.63538,-216.20949,-215.72586,-215.174,-214.44312,-213.42369,-212.19254,-211.12888,-210.82648,-211.79327,-214.08768,-217.11964,-219.7823,-220.90038,-219.78925,-216.63034,-212.4465,-208.66656,-206.48878,-206.36153,-207.83763,-209.86024,-211.3148,-211.55473,-210.64191,-209.20891,-208.05229,-207.69484,-208.14709,-208.97083,-209.57771,-209.57872,-208.99088,-208.20224,-207.72888,-207.89738,-208.60187,-209.22293,-208.7052,-205.72829,-198.90421,-186.97655,-169.03706,-144.77057,-114.68528,-80.22506,-43.652111,-7.6677856,25.124632,52.700214,73.821297,87.901291,94.661591,93.87159,85.433167,69.847237,48.7966,25.39427,3.7324281,-12.275394,-20.319151,-20.679234,-16.185373,-11.038235,-8.9876089,-11.742087,-18.402628,-26.185158,-32.012035,-34.097607,-32.694061,-29.669615,-27.261761,-26.784452,-28.02706,-29.613857,-30.003716,-28.462988,-25.43194,-22.136833,-19.777506,-18.841261,-18.944807,-19.220245,-18.913515,-17.775888,-16.029602,-14.00756,-11.774471,-9.0017862,-5.1477571,0.23299098,7.2897654,15.8977,25.812624,36.766491,48.387348,60.016998,70.639038,79.090454,84.522896,86.856384,86.907784,86.050674,85.567261,86.076996,87.399902,88.935806,90.293495,91.725563,94.047813,98.0718,103.92254,110.71278,116.82768,120.67792,121.4703,119.52736,115.97398,112.01003,108.23822,104.4592,100.02462,94.4748,88.012932,81.494049,75.935226,71.869591,68.965416,66.16301,62.259125,56.599144,49.477581,42.023617,35.64233,31.322329,29.177937,28.454697,27.978205,26.803621,24.732519,22.439014,21.142447,21.98527,25.42021,30.913052,37.119751,42.463978,45.833233,47.040043,46.807632,46.29147,46.405365,47.335102,48.516479,49.07893,48.471458,46.87009,45.098976,44.104786,44.31797,45.322441,46.073322,45.557213,43.498096,40.662888,38.550705,38.61977,41.486126,46.548183,52.242695,56.77924,58.947678,58.586273,56.518192,54.06068,52.407173,52.185741,53.344166,55.32304,57.36647,58.820763,59.338428,58.96664,58.118458,57.422966,57.470863,58.530994,60.370949,62.308315,63.517277,63.46175,62.220146,60.495476,59.272987,59.300571,60.688274,62.864388,64.915382,66.105858,66.270103,65.855011,65.613327,66.153458,67.616577,69.646126,71.622856,72.992599,73.49852,73.231247,72.535988,71.874565,71.707542,72.393745,74.077545,76.578613,79.366409,81.710556,83.005356,83.123039,82.567429,82.271103,83.089859,85.269516,88.228081,90.834633,92.057007,91.592407,90.074188,88.700798,88.50515,89.727592,91.698677,93.305908,93.7304,92.958763,91.732117,90.982872,91.163864,91.946159,92.49826,92.145386,90.932701,89.679703,89.469925,90.92247,93.75032,96.913734,99.260323,100.2058,99.990471,99.361076,98.94664,98.813934,98.540535,97.73481,96.562935,95.797256,96.234077,97.820282,99.122482,97.634743,90.907791,77.920555,59.885101,39.954338,21.932327,8.6765518,1.0567197,-2.0129728,-2.5956738,-2.4676118,-2.3239095,-1.8384444,-0.38777298,2.1483541,5.0777164,7.2571249,7.8294029,6.8004289,5.0550823,3.8059278,3.8438094,5.0710034,6.5909643,7.2632546,6.3551965,3.9006395,0.59618634,-2.6397653,-5.1438675,-6.75207,-7.7300668,-8.5048542,-9.3955832,-10.485496,-11.653192,-12.68794,-13.402577,-13.705722,-13.641379,-13.407595,-13.337969,-13.817244,-15.135392,-17.345486,-20.222174,-23.375605,-26.47282,-29.42684,-32.41069,-35.660801,-39.187119,-42.596359,-45.183369,-46.272717,-45.611595,-43.555622,-40.907471,-38.493797,-36.748936,-35.580082,-34.603409,-33.580765,-32.732159,-32.664677,-33.914871,-36.383041,-39.053795,-40.256077,-38.394302,-32.778076,-24.086111,-14.184694,-5.3753481,0.54175228,2.9156804,2.3123257,0.039957963,-2.5504849,-4.6020312,-5.8922224,-6.610476,-7.0110836,-7.2088289,-7.2365232,-7.2690368,-7.7786984,-9.409812,-12.532335,-16.657106,-20.03961,-19.779802,-12.535805,4.3127089,31.46648,66.986366,106.44257,144.00842,174.17694,193.47217,201.46654,200.66318,195.27397,189.41496,185.51114,183.60263,181.80864,177.64441,169.48903,157.47121,143.38515,129.77165,118.71182,110.96847,105.85498,101.78807,97.142799,90.951576,83.170738,74.525169,66.139023,59.171803,54.549171,52.748486,53.585686,56.054413,58.378559,58.424446,54.438892,45.834015,33.607193,20.09408,8.0800629,-0.33993834,-4.5896416,-5.7069616,-5.6764965,-6.3803668,-8.7369061,-12.45497,-16.455278,-19.635294,-21.502018,-22.338564,-22.890078,-23.838955,-25.41869,-27.370317,-29.198786,-30.51199,-31.221376,-31.521822,-31.728386,-32.114964,-32.847271,-33.99794,-35.570786,-37.490074,-39.585907,-41.644268,-43.536945,-45.33942,-47.284348,-49.468491,-51.417873,-51.79739,-48.574158,-39.741718,-24.371044,-3.4803355,19.796738,40.964924,55.599266,60.843575,56.312416,44.031147,27.522116,10.522757,-4.0941586,-14.843954,-21.586029,-25.148743,-26.886589,-28.290464,-30.61994,-34.510098,-39.627968,-44.589867,-47.336491,-45.949764,-39.595364,-29.104279,-16.821177,-5.7222347,1.7744135,4.687295,3.591759,-0.020599283,-4.7039886,-9.7452831,-15.203249,-21.379333,-28.172901,-34.82296,-40.236683,-43.66964,-45.256634,-45.983505,-47.075485,-49.19212,-51.97279,-54.259563,-54.876698,-53.467701,-50.836216,-48.546833,-48.015812,-49.653069,-52.593517,-55.19582,-56.018162,-54.694599,-52.199604,-50.352509,-50.850872,-54.376366,-60.255825,-66.836983,-72.348755,-75.773224,-77.276863,-78.002167,-79.361244,-82.226143,-86.451935,-90.986763,-94.506096,-96.218475,-96.375282,-96.154114,-96.92115,-99.247169,-102.24709,-103.69827,-100.99568,-92.521278,-78.716194,-62.23819,-47.044044,-36.814217,-33.50425,-36.74041,-44.308121,-53.386192,-61.811146,-68.722656,-74.377037,-79.427948,-84.236504,-88.645493,-92.257713,-94.892113,-96.804993,-98.495132,-100.26698,-101.93012,-102.91284,-102.74335,-101.55226,-100.20486,-99.921371,-101.6077,-105.33201,-110.28795,-115.25547,-119.24174,-121.89281,-123.46057,-124.43417,-125.15296,-125.66935,-125.88589,-125.7637,-125.37388,-124.7513,-123.73582,-122.03754,-119.57017,-116.80701,-114.78534,-114.57545,-116.44674,-119.30161,-120.90844,-118.99818,-112.67235,-103.23874,-93.833656,-87.910751,-87.426826,-91.818092,-98.417816,-104.0704,-106.93087,-107.32001,-107.13282,-108.26054,-111.13643,-114.40868,-115.94942,-114.47031,-110.58033,-106.49334,-104.5239,-105.36112,-107.30112,-107.01346,-101.42395,-89.576675,-73.358017,-56.688377,-43.713978,-37.06012,-37.038387,-42.019199,-49.489815,-57.067722,-63.016991,-66.321808,-66.676849,-64.637337,-61.781296,-60.46088,-62.863297,-69.626694,-78.780426,-85.855042,-85.46386,-73.773628,-50.617237,-20.037188,11.16872,36.234169,51.133522,55.861889,53.756538,49.407352,46.394699,46.0233,47.503105,49.156826,49.742172,49.105621,47.957798,47.150845,47.067749,47.517323,48.087193,48.582447,49.178967,50.201519,51.752415,53.526421,54.98251,55.748363,55.940315,56.135281,56.988705,58.758518,61.075111,63.131218,64.175316,63.980736,62.979168,61.975403,61.641632,62.130917,63.058846,63.846592,64.174149,64.223946,64.545898,65.639542,67.54818,69.758446,71.495598,72.232559,72.072433,71.728752,72.083405,73.587967,75.902626,78.042953,78.990608,78.411621,77.015572,76.270569,77.569023,81.296028,86.359245,90.513733,91.372879,87.592979,79.598183,69.452591,59.952396,53.42812,50.873981,51.794922,54.735703,58.098042,60.769993,62.305603,62.729221,62.258507,61.202545,60.053238,59.550182,60.463562,63.051678,66.462616,68.521423,66.214851,56.799454,39.051086,14.015328,-15.164261,-44.286674,-69.496941,-88.39122,-100.38261,-106.32748,-107.78639,-106.38402,-103.52326,-100.38823,-97.978569,-96.978935,-97.5037,-98.958839,-100.25185,-100.34763,-98.885071,-96.45871,-94.340294,-93.768333,-95.22876,-98.173874,-101.35036,-103.51399,-104.06748,-103.23641,-101.73518,-100.2289,-99.01059,-98.105606,-97.643044,-98.08181,-99.953773,-103.15938,-106.26392,-106.38335,-99.972733,-84.280434,-58.753994,-25.60734,10.833854,45.727432,75.449982,98.613472,115.94009,129.22467,140.08583,149.22447,156.50005,161.58675,164.64124,166.48811,168.22221,170.55089,173.368,175.8688,177.12708,176.73717,175.08809,173.09435,171.57587,170.70567,169.88686,168.12877,164.6694,159.44455,153.12082,146.69664,140.94113,136.0195,131.51045,126.76432,121.34927,115.30682,109.08569,103.23608,98.08548,93.603981,89.523582,85.605423,81.858894,78.559067,76.048416,74.454193,73.512833,72.633125,71.186493,68.871284,65.942123,63.158474,61.455807,61.495663,63.321369,66.29422,69.33754,71.355988,71.614594,69.901337,66.432739,61.608875,55.793438,49.247765,42.221077,35.082714,28.355402,22.589439,18.146772,15.045884,12.98997,11.576821,10.557062,9.9643097,10.024901,10.910956,12.519047,14.447272,16.20647,17.529623,18.561232,19.780375,21.692856,24.492786,27.921328,31.415104,34.430874,36.705025,38.253345,39.112526,39.032242,37.391582,33.476692,27.000912,18.547604,9.6154099,2.1601477,-2.1720917,-2.7309792,-0.11101973,4.1518068,8.2563486,10.832397,11.340442,10.057714,7.7552061,5.2857795,3.2727404,1.973232,1.28791,0.8573336,0.20915923,-1.0585545,-3.0928903,-5.6778688,-8.2858524,-10.304117,-11.338406,-11.419359,-10.973593,-10.563848,-10.561802,-10.971735,-11.52228,-11.947838,-12.235315,-12.632045,-13.395012,-14.477889,-15.430526,-15.648232,-14.839367,-13.377199,-12.232809,-12.456034,-14.504412,-17.872501,-21.313709,-23.560213,-24.093334,-23.452185,-22.858784,-23.398357,-25.307966,-27.865534,-29.961916,-30.954096,-31.178053,-31.711277,-33.489471,-36.355099,-38.718845,-38.162304,-32.718613,-22.116552,-8.2534847,5.4152174,15.281861,19.084515,16.7915,10.535825,3.7498891,-0.028698567,1.8093269,10.351226,25.037727,43.901417,64.060997,82.402641,96.35659,104.5833,107.31438,106.15734,103.39128,101.04179,100.15924,100.62666,101.53609,101.86883,101.08054,99.302086,97.131531,95.230568,94.002266,93.50351,93.549759,93.854118,94.077324,93.798523,92.521881,89.817711,85.570625,80.178314,74.526985,69.693138,66.504646,65.203468,65.403557,66.358849,67.368042,68.072693,68.494164,68.835075,69.216354,69.537926,69.54335,69.020081,67.982887,66.712936,65.629486,65.074478,65.130966,65.563957,65.903366,65.629837,64.393791,62.190502,59.418423,56.769966,54.959999,54.382664,54.861141,55.654694,55.778755,54.515335,51.847622,48.552929,45.860168,44.834465,45.830093,48.32832,51.247841,53.526905,54.615993,54.600163,53.933609,53.031609,52.039917,50.935787,49.833397,49.18047,49.59235,51.341442,53.812893,55.330891,53.569286,46.401398,32.756794,13.035151,-11.108807,-37.427742,-63.78476,-88.544807,-110.57447,-129.05037,-143.36395,-153.25868,-159.07974,-161.86632,-163.09552,-164.13905,-165.72748,-167.75145,-169.52774,-170.36043,-170.04382,-169.00891,-168.06422,-167.94212,-168.95509,-170.94547,-173.48741,-176.14636,-178.62117,-180.74435,-182.44951,-183.81262,-185.14084,-186.95166,-189.69911,-193.29362,-196.69376,-197.92673,-194.70433,-185.42969,-170.07849,-150.42416,-129.41069,-109.97038,-93.918732,-81.506821,-71.79969,-63.546555,-55.94931,-48.88279,-42.553902,-36.988373,-31.817038,-26.548113,-21.0842,-16.004879,-12.284529,-10.552764,-10.409366,-10.355171,-8.5219545,-3.8186369,3.241673,10.633816,15.863683,17.358955,15.337385,11.586309,8.2802858,6.5932741,6.0036364,4.7401505,1.0663064,-5.4537292,-13.551373,-20.982382,-25.905415,-27.995272,-28.552515,-29.538769,-32.184479,-36.108433,-39.563198,-40.687675,-38.981052,-36.038975,-35.022728,-39.09499,-49.681774,-65.534668,-83.11853,-98.118126,-107.27299,-109.62718,-106.64858,-101.28519,-96.532532,-94.237755,-94.637764,-96.696411,-98.921242,-100.18341,-100.1649,-99.313606,-98.442436,-98.245323,-98.981155,-100.441,-102.15025,-103.64887,-104.68433,-105.23398,-105.39182,-105.23663,-104.79403,-104.11749,-103.4025,-102.99649,-103.22374,-104.08575,-105.02892,-104.98932,-102.78875,-97.733459,-90.097595,-81.18396,-72.86544,-66.807617,-63.773624,-63.38158,-64.431709,-65.596359,-66.072769,-65.852547,-65.517975,-65.761482,-66.956429,-69.017426,-71.560921,-74.182442,-76.635201,-78.823257,-80.691406,-82.162537,-83.195648,-83.891403,-84.496979,-85.234917,-86.052612,-86.509796,-85.969322,-84.037674,-80.972977,-77.729462,-75.515701,-75.090279,-76.255592,-77.937737,-78.864822,-78.417595,-77.041779,-75.855034,-75.629036,-75.822044,-74.413712,-68.843788,-57.62912,-41.698547,-24.528408,-10.812146,-4.2845254,-5.8899498,-13.352669,-22.422781,-29.09915,-31.565145,-30.7656,-29.384983,-29.940685,-33.194965,-37.825603,-41.465481,-42.360493,-40.541622,-37.76585,-36.299988,-37.369186,-40.29459,-42.888348,-42.863369,-39.368904,-33.685089,-28.635908,-27.070539,-30.322136,-37.543472,-46.264751,-53.77837,-58.489162,-60.449806,-60.855309,-60.931602,-61.003002,-60.352634,-57.926811,-53.353809,-47.529858,-42.312847,-39.470451,-39.556232,-41.482388,-43.139305,-42.733871,-40.010452,-36.522926,-34.670242,-35.977856,-39.631657,-42.210518,-38.926071,-25.823181,-1.8207188,30.48193,65.664772,97.576698,121.61257,136.11499,142.37238,143.43625,142.51671,141.77512,141.95572,142.76782,143.57442,143.9248,143.72116,143.10532,142.29248,141.50821,141.01396,141.09845,141.95306,143.49066,145.26996,146.65062,147.13835,146.71259,145.89856,145.49394,146.09311,147.70424,149.71068,151.20943,151.51433,150.50838,148.63951,146.59761,144.91476,143.75842,143.02322,142.60252,142.59712,143.28561,144.87994,147.26939,149.97572,152.38718,154.12263,155.26456,156.27933,157.66451,159.56516,161.6355,163.25648,163.96747,163.81091,163.33949,163.26422,163.97394,165.25217,166.39093,166.63528,165.67178,163.84544,161.97188,160.87549,160.9518,162.01694,163.5036,164.83736,165.73296,166.23759,166.54068,166.726,166.65498,166.0497,164.68883,162.5611,159.87686,156.96559,154.17191,151.83904,150.35736,150.15797,151.54199,154.36487,157.75246,160.08276,159.35829,153.86703,142.83086,126.70694,106.97948,85.55687,64.101318,43.633957,24.569906,7.0719647,-8.5644627,-21.765331,-31.856602,-38.432575,-41.663151,-42.341526,-41.64238,-40.72884,-40.412182,-41.008709,-42.411293,-44.285862,-46.271545,-48.102798,-49.637497,-50.821346,-51.632149,-52.039562,-52.004192,-51.524536,-50.71423,-49.857388,-49.372803,-49.650185,-50.806343,-52.500393,-53.968029,-54.33926,-53.122185,-50.581291,-47.736435,-45.902008,-45.980392,-47.92963,-50.776962,-53.233925,-54.56049,-55.095863,-56.012196,-58.316525,-61.65699,-63.733143,-60.863945,-49.62698,-28.805006,-0.58128959,29.776484,55.741482,72.054344,76.748367,71.714691,61.593826,51.609207,45.426117,44.001995,45.806007,48.082634,48.394085,45.685459,40.493782,34.403492,29.17061,25.971941,25.046814,25.749853,26.87225,27.061308,25.221027,20.828302,14.108511,6.0066209,-2.0825098,-8.7734461,-13.178593,-15.2114,-15.549899,-15.267502,-15.315462,-16.125858,-17.536011,-19.047125,-20.233658,-21.036644,-21.758793,-22.780317,-24.204151,-25.692703,-26.634666,-26.555134,-25.501242,-24.12546,-23.368166,-23.904634,-25.696764,-27.953203,-29.559608,-29.740496,-28.549988,-26.878242,-25.957241,-26.667099,-29.072069,-32.463531,-35.852177,-38.558525,-40.502274,-42.022686,-43.412243,-44.560516,-45.021019,-44.480415,-43.267757,-42.454525,-43.356838,-46.694908,-51.974285,-57.578156,-61.612385,-63.013512,-62.193115,-60.749149,-60.385612,-61.73933,-63.915955,-65.080894,-63.720783,-59.690262,-54.258663,-49.04335,-44.521484,-39.189564,-30.09197,-14.558188,7.8555236,34.454121,60.187752,79.777191,90.007423,90.926628,85.374825,77.268341,69.73288,64.108589,60.15749,57.00732,54.013634,51.000153,47.960552,44.750118,41.21312,37.672417,35.213737,35.196045,37.996994,41.757507,42.204021,34.139801,14.117818,-17.158363,-54.286278,-89.114578,-114.34505,-126.83625,-128.71111,-125.62999,-123.30228,-124.38242,-127.61458,-129.6116,-127.92717,-123.24175,-119.09424,-119.26761,-124.57307,-131.28426,-132.48735,-121.7542,-97.007301,-62.228012,-25.909491,2.9090462,18.78426,21.916946,17.157549,10.820038,7.3181877,7.506392,9.3713884,10.239676,8.8746195,6.1537337,4.1172266,4.2741575,6.4365511,8.8528614,9.4519062,7.2699842,3.0854969,-1.1076727,-3.3614571,-2.9051385,-0.455789,2.3801475,4.114954,4.1150522,2.6713645,0.51778144,-1.7430986,-3.8787775,-5.8368545,-7.3897228,-7.988369,-7.0030131,-4.1951132,-0.058423724,4.260448,7.4588199,8.6959,7.9523897,5.9298983,3.5913818,1.6567948,0.35439393,-0.48129746,-1.1138113,-1.6620144,-2.0696919,-2.2538333,-2.2585654,-2.2571721,-2.389837,-2.5759888,-2.4757898,-1.6664001,0.06891942,2.5386405,5.1791997,7.3211212,8.5207376,8.7520084,8.3522091,7.7792134,7.3506813,7.1238451,6.958838,6.681345,6.2115116,5.5810924,4.862545,4.0994954,3.307955,2.5395005,1.9318354,1.6787229,1.9240021,2.6603634,3.7226818,4.8934083,6.0402603,7.1685953,8.3351107,9.4942436,10.431769,10.897083,10.883874,10.839386,11.547781,13.601238,16.668074,19.000898,17.615211,9.2619762,-8.1387548,-34.276165,-66.107384,-98.677109,-126.79952,-146.85216,-157.86681,-161.46497,-160.77199,-158.92499,-157.91284,-158.21207,-159.20447,-159.96976,-159.94516,-159.14674,-157.97719,-156.88103,-156.12004,-155.76936,-155.83507,-156.32014,-157.15451,-158.06483,-158.54851,-158.05342,-156.29686,-153.51608,-150.4496,-148.01015,-146.8166,-146.85217,-147.43234,-147.45833,-145.75182,-141.25148,-133.00964,-120.13351,-101.89748,-78.125282,-49.683609,-18.735353,11.555899,37.885166,57.875214,70.81192,77.64521,80.267143,80.502182,79.399895,77.195816,73.848145,69.67569,65.57972,62.65963,61.500008,61.680779,61.936794,60.943722,58.242992,54.673164,51.968449,51.733028,54.433441,59.067619,63.744873,66.821114,67.869232,67.866753,68.482452,70.909981,74.964752,78.972366,80.479187,77.341011,68.588387,54.682323,37.177116,18.11064,-0.5229525,-17.05966,-30.280746,-39.505093,-44.703796,-46.528687,-46.110176,-44.619778,-42.800388,-40.757843,-38.171387,-34.792027,-30.866413,-27.144396,-24.41412,-22.871141,-21.796982,-19.852911,-15.879989,-9.7199421,-2.5066922,3.8099637,7.4574823,7.7626519,5.4596453,2.2352276,-0.16560185,-0.71717727,0.63701403,3.2782147,6.41715,9.4150629,11.76663,12.918139,12.240338,9.3207207,4.4134402,-1.3412578,-6.2331953,-8.7765141,-8.5363865,-6.4316168,-4.2395549,-3.5429366,-4.7534285,-6.8397093,-7.9585257,-6.6103425,-2.5984397,2.8060074,7.5824366,10.096109,9.9428082,8.0159063,5.8259726,4.5647092,4.5154672,5.1263757,5.5997314,5.5334578,5.1745944,5.1607952,5.9908276,7.6255665,9.4888086,10.834427,11.201246,10.652082,9.6787348,8.8919163,8.7296553,9.3465815,10.675392,12.529635,14.636137,16.607512,17.965273,18.298845,17.508333,15.951768,14.331688,13.333662,13.24763,13.878035,14.881737,16.34725,19.175123,24.855186,34.596478,48.245125,63.694218,77.318909,85.403374,85.891418,79.497673,69.491859,60.188683,54.923199,54.604431,57.613403,61.032051,62.429455,61.151386,58.417423,56.286987,56.229927,58.218655,60.862164,62.412533,61.943825,59.955685,58.080627,58.161766,61.322628,67.563683,75.996376,85.38739,94.541588,102.27658,107.14132,107.28962,100.83459,86.638512,65.107178,38.450474,10.139638,-16.228403,-38.079277,-54.431149,-65.654633,-72.680901,-76.217888,-76.460274,-73.398026,-67.406975,-59.626377,-51.795216,-45.604076,-41.953808,-40.58025,-40.275181,-39.571667,-37.501873,-34.026394,-29.952808,-26.451855,-24.465288,-24.299393,-25.552242,-27.344934,-28.711672,-28.980293,-28.012566,-26.2323,-24.433008,-23.429325,-23.689426,-25.121023,-27.134773,-28.972267,-30.125416,-30.597244,-30.83285,-31.355539,-32.348202,-33.47543,-34.090942,-33.706322,-32.396412,-30.837576,-29.91881,-30.171627,-31.410751,-32.849335,-33.626022,-33.387627,-32.523235,-31.88842,-32.219524,-33.656136,-35.700954,-37.61451,-38.917305,-39.604992,-39.929909,-39.975933,-39.449852,-37.952217,-35.567966,-33.257114,-32.54343,-34.454479,-38.276245,-41.003407,-38.093815,-25.372339,-1.1404613,32.719917,71.367538,109.0695,141.55643,167.32234,187.19026,202.56764,213.64703,218.81633,215.7132,203.22946,183.09032,159.85489,139.17764,125.28609,119.14928,118.39714,118.98049,117.52613,112.99131,106.7457,101.23099,98.194267,97.641876,98.076218,97.694542,95.642876,92.482094,89.636452,88.301277,88.609673,89.61364,90.037102,89.235718,87.695114,86.747955,87.720833,91.069397,96.018982,100.87088,103.73065,103.22598,98.886002,91.122818,80.976807,69.825821,59.145947,50.286049,44.202187,41.193336,40.779888,41.855202,43.098118,43.460735,42.48077,40.273991,37.27021,33.91114,30.514828,27.342445,24.720427,23.025345,22.475866,22.882996,23.60726,23.85194,23.15387,21.722073,20.313248,19.640997,19.697134,19.529284,17.795181,13.894306,8.9892673,6.1321917,9.1419783,20.627443,40.169781,63.749084,84.9207,97.313255,97.266174,85.29998,65.705719,44.518288,26.947577,15.538221,9.8347282,7.466928,5.8489242,3.4933715,0.33117411,-2.8957331,-5.5653105,-7.7340379,-9.9827204,-12.74255,-15.653213,-17.470272,-16.657888,-12.333473,-4.9781857,3.5538201,10.78071,14.696818,14.626975,11.374176,6.6199899,1.9653625,-1.8166955,-4.9099255,-7.9621954,-11.357571,-14.770997,-17.318846,-18.208916,-17.443829,-16.070745,-15.747047,-17.83485,-22.564316,-28.797724,-34.576153,-38.151962,-38.904942,-37.606186,-35.892101,-35.290363,-36.395714,-38.669487,-40.92379,-42.124691,-41.98502,-41.006664,-40.027058,-39.644157,-39.92601,-40.553574,-41.204998,-41.823017,-42.535862,-43.318516,-43.733246,-43.065147,-40.867085,-37.565365,-34.636333,-34.085602,-37.423985,-44.725262,-54.379807,-63.77042,-70.526665,-73.636703,-73.772362,-72.674637,-72.031952,-72.575745,-73.926086,-75.187653,-75.792366,-75.958183,-76.456329,-77.911873,-80.210983,-82.502724,-83.823311,-83.880684,-83.383011,-83.607925,-85.473648,-88.777222,-92.197273,-94.137901,-93.87439,-92.194366,-91.028717,-92.251808,-96.431557,-102.39099,-107.91924,-111.1828,-111.88282,-111.35331,-111.51994,-113.45081,-116.5506,-119.0246,-119.32919,-117.55915,-115.661,-116.10856,-119.77154,-124.40776,-124.99095,-116.01223,-94.610352,-62.721344,-26.865505,4.5005789,24.724567,31.794878,28.788202,21.808403,16.687794,16.312235,19.913954,24.427368,26.822474,25.917816,22.705181,19.266987,17.225811,16.814127,17.077173,16.881229,15.882325,14.734756,14.44117,15.392031,16.855431,17.330399,15.539105,11.366821,6.0856895,1.6881212,-0.24297512,0.59998065,3.1796081,5.834497,7.2798676,7.2392468,6.3568931,5.5459824,5.2853394,5.3564115,5.1547575,4.288238,2.9857199,2.0048342,2.109261,3.5039911,5.6457448,7.573452,8.5311069,8.4486599,7.9480777,7.8750277,8.6843262,10.102655,11.293571,11.402132,10.10207,7.7797713,5.2504072,3.2246993,1.9050591,0.98085392,-0.0017183706,-1.188385,-2.231024,-2.5163882,-1.6505834,0.15798634,2.1195259,3.3133657,3.2837057,2.3695796,1.5120479,1.6235992,2.9109087,4.6035662,5.3057561,3.795203,-0.20540805,-5.7700157,-11.212129,-14.992028,-16.557524,-16.612509,-16.640045,-17.950188,-20.810303,-24.176561,-26.202944,-25.261257,-20.918327,-14.343014,-7.9287524,-4.3298368,-5.3916531,-11.468781,-21.391212,-33.01125,-44.02224,-52.689377,-58.253761,-60.958378,-61.787521,-62.059391,-62.99107,-65.324738,-69.09697,-73.632057,-77.800537,-80.484932,-81.075348,-79.758858,-77.435936,-75.282394,-74.179688,-74.327423,-75.255951,-76.214294,-76.668365,-76.563194,-76.150795,-75.478462,-73.886406,-69.90551,-61.729977,-48.090199,-29.08028,-6.4785933,16.646078,36.874813,51.483822,59.136452,59.99284,55.326706,46.948715,36.732155,26.362869,17.241661,10.393857,6.3203902,4.8682723,5.2705712,6.4342327,7.384943,7.6424861,7.3120856,6.8441339,6.6267166,6.6814933,6.6556969,6.0931721,4.775414,2.8850772,0.88574076,-0.77553052,-1.9100505,-2.5969324,-2.9762473,-3.0234196,-2.526613,-1.3283082,0.33714145,1.6989911,1.6912178,-0.49214828,-4.8496022,-10.405014,-15.585122,-18.964514,-19.951323,-19.005665,-17.268354,-15.847058,-15.216501,-15.098232,-14.855245,-14.089611,-13.00231,-12.250483,-12.399641,-13.369996,-14.308837,-14.053575,-11.950958,-8.5263853,-5.5358472,-5.2719479,-9.4366455,-18.173466,-29.801422,-41.433376,-50.193413,-54.428139,-54.311298,-51.562313,-48.463139,-46.713814,-46.727676,-47.703899,-48.372372,-47.930729,-46.594658,-45.424049,-45.534409,-47.198414,-49.438911,-50.437004,-48.571865,-43.481476,-36.462654,-29.893976,-25.963345,-25.446154,-27.295067,-29.327259,-29.605757,-27.648462,-24.678852,-22.733915,-23.193531,-25.700905,-28.218222,-28.232225,-24.358728,-17.306044,-9.5519972,-3.9201169,-1.9606885,-3.1676235,-5.5059991,-6.8581491,-6.4044428,-5.0325546,-4.5561485,-6.3395839,-10.309223,-15.026926,-18.734529,-20.594955,-21.23514,-22.213413,-24.812252,-29.036831,-33.543068,-36.542782,-37.030209,-35.446888,-33.312714,-32.098614,-32.161739,-32.51585,-31.605085,-28.52676,-23.825029,-19.282084,-16.842113,-17.407558,-20.321037,-23.85051,-26.297651,-26.949425,-26.261719,-25.251528,-24.634573,-24.368589,-23.879539,-22.673346,-20.723494,-18.225378,-14.870018,-9.2740154,0.79292274,17.267805,40.330318,67.570816,94.472542,116.11585,129.2366,133.51608,131.42427,126.79456,123.01815,121.86342,123.41591,126.87761,131.48256,136.87251,142.8105,148.66449,153.25563,155.33565,154.40802,151.26799,147.77708,145.91446,146.67921,149.56094,152.93489,155.12094,155.4019,154.33725,153.20168,152.97662,153.61287,154.07114,153.09308,150.15038,145.9084,141.8884,139.56419,139.50133,141.09563,143.04651,144.21246,144.27237,143.78818,143.68967,144.57645,146.31201,148.14313,149.2083,149.06256,147.88336,146.27608,144.86751,143.97728,143.54657,143.29527,142.93544,142.28372,141.24638,139.76903,137.85216,135.63437,133.4411,131.69052,130.66124,130.26675,130.02582,129.30721,127.72857,125.45009,123.14124,121.60708,121.29971,122.03759,123.12941,123.82837,123.81322,123.36965,123.15117,123.69152,125.01547,126.62449,127.86676,128.42345,128.55159,128.88538,129.90112,131.38718,132.2677,130.90578,125.71335,115.72221,100.82851,81.656036,59.219013,34.644924,9.1039257,-16.110643,-39.539356,-59.706337,-75.452057,-86.275208,-92.472527,-94.982224,-95.019539,-93.708656,-91.886322,-90.112762,-88.784821,-88.208405,-88.564972,-89.825798,-91.723671,-93.843018,-95.783394,-97.285583,-98.244171,-98.637871,-98.489822,-97.940628,-97.386353,-97.507347,-99.021019,-102.16772,-106.18506,-109.15416,-108.47751,-101.89774,-88.593727,-69.747314,-48.194466,-27.263634,-9.3779583,4.8405633,16.494356,27.43927,39.00066,51.113213,62.342941,70.717842,74.836647,74.608681,71.245956,66.59005,62.220058,58.851364,56.298012,53.913857,51.175591,48.052483,44.992462,42.597145,41.21236,40.663437,40.254017,39.011292,36.06551,31.015942,24.143904,16.374475,8.9674158,3.0318391,-0.92870963,-3.1985662,-4.6183977,-6.0209718,-7.6460443,-8.9265442,-8.8733473,-6.9288464,-3.8120043,-1.7739708,-3.9390492,-12.91547,-29.338957,-51.156601,-74.14196,-93.499748,-105.81747,-110.40115,-109.3336,-106.25687,-104.54015,-105.78421,-109.38663,-113.29061,-115.40944,-114.90041,-112.60917,-110.50385,-110.47797,-113.21622,-117.74331,-121.87832,-123.33028,-120.85094,-114.86004,-107.25394,-100.5296,-96.684868,-96.432648,-99.071091,-103.00027,-106.5584,-108.72888,-109.39204,-109.07991,-108.46707,-107.94206,-107.4991,-106.94988,-106.23983,-105.60091,-105.41092,-105.85695,-106.65711,-107.06947,-106.22366,-103.58397,-99.250084,-93.899956,-88.412491,-83.416199,-79.049057,-75.058472,-71.131599,-67.195152,-63.467724,-60.249756,-57.644726,-55.460438,-53.395531,-51.379272,-49.783329,-49.288906,-50.440723,-53.178452,-56.708435,-59.887539,-61.945934,-63.107166,-64.668747,-68.407906,-75.597023,-86.184235,-98.632797,-110.54489,-119.74176,-125.21206,-127.42766,-127.90273,-128.29938,-129.60779,-131.83047,-134.26451,-136.12314,-137.08,-137.4268,-137.81279,-138.79095,-140.4781,-142.51672,-144.30841,-145.32445,-145.28584,-144.13451,-141.88167,-138.5036,-134.00162,-128.59819,-122.90857,-117.90784,-114.62878,-113.70904,-115.03815,-117.73867,-120.54465,-122.40399,-122.97385,-122.70992,-122.47456,-122.88676,-123.8261,-124.44558,-123.74913,-121.40751,-118.26269,-116.07658,-116.50195,-119.76736,-123.86079,-124.84487,-118.36979,-101.75769,-75.614929,-44.065811,-13.361314,10.539732,24.264372,28.095497,25.363972,20.582251,17.351957,17.098124,19.131298,21.764711,23.676407,24.693645,25.645193,27.546484,30.761229,34.712822,38.290169,40.614891,41.621834,42.070415,43.009048,45.075657,48.100304,51.248962,53.581917,54.645641,54.72757,54.648445,55.265675,57.016727,59.761791,62.963665,66.03376,68.609329,70.624809,72.204834,73.512596,74.671516,75.778229,76.935974,78.232742,79.663261,81.073212,82.210175,82.884399,83.137299,83.278786,83.731461,84.763474,86.295738,87.942825,89.291718,90.241905,91.157776,92.688927,95.338333,99.052109,103.1228,106.51163,108.41656,108.73174,108.09396,107.47323,107.57014,108.42069,109.47606,110.09874,110.11714,110.02159,110.62321,112.3847,114.90192,116.96616,117.26956,115.35892,112.20094,109.88596,110.49829,114.72324,120.99939,125.78339,124.89564,115.30306,96.437149,70.395576,40.98608,12.177445,-13.224718,-34.08287,-50.550484,-63.246788,-72.586319,-78.641235,-81.485901,-81.640724,-80.20665,-78.548607,-77.734024,-78.110283,-79.296165,-80.563408,-81.319717,-81.366425,-80.807747,-79.771355,-78.238075,-76.162964,-73.787094,-71.815025,-71.165688,-72.305855,-74.548737,-75.860741,-73.504448,-65.342918,-51.148052,-33.126675,-15.234985,-1.5171551,5.7145271,6.9082384,4.977654,3.8786631,6.8576846,15.293482,28.63818,45.284126,63.671978,82.914925,102.63516,122.28627,140.57935,155.52634,165.15388,168.45262,165.94373,159.48131,151.39633,143.49368,136.47624,130.06512,123.63622,116.90054,110.19648,104.2747,99.805939,96.988823,95.505219,94.791016,94.376938,94.053604,93.798698,93.605392,93.407196,93.168442,93.023453,93.270775,94.142891,95.491859,96.669716,96.797035,95.333649,92.588539,89.760101,88.362,89.314911,92.276031,95.702492,97.706039,97.221283,94.740738,92.078064,91.209305,92.846695,95.626007,96.467926,91.989006,80.20871,61.615608,39.027863,16.371899,-2.9172115,-17.037445,-26.02286,-31.109392,-33.796577,-35.180176,-35.81731,-35.978035,-35.921246,-35.924976,-36.08609,-36.138882,-35.544621,-33.87883,-31.274315,-28.576862,-27.027884,-27.600323,-30.366541,-34.292339,-37.614536,-38.622086,-36.432976,-31.373484,-24.795013,-18.458729,-13.808561,-11.459108,-11.077868,-11.648866,-11.962671,-11.126502,-8.911643,-5.8228784,-2.8673222,-1.1078962,-1.183805,-3.017221,-5.8561459,-8.6361303,-10.458784,-10.903381,-9.9827881,-7.7891874,-4.1012325,1.7209799,10.405768,22.168682,36.237747,50.87896,64.003174,74.05365,80.662209,84.679184,87.567001,90.546478,94.02784,97.644028,100.78156,103.17078,105.08798,107.03918,109.2032,111.10506,111.81744,110.57285,107.31933,102.74728,97.680542,92.214684,85.23748,74.773743,59.061733,37.748543,12.452745,-13.700147,-37.335331,-56.160679,-69.633682,-78.672852,-84.727928,-88.877182,-91.502159,-92.615204,-92.439941,-91.706131,-91.396545,-92.146889,-93.792763,-95.461281,-96.193161,-95.668907,-94.509781,-93.914886,-94.867912,-97.457947,-100.78108,-103.48243,-104.55715,-103.8703,-102.08128,-100.09326,-98.466438,-97.212341,-96.058098,-94.898262,-94.022591,-93.913574,-94.778809,-96.222244,-97.370781,-97.418541,-96.20385,-94.370911,-92.954987,-92.662109,-93.364433,-94.199432,-94.224915,-93.160378,-91.65638,-90.861008,-91.569443,-93.571465,-95.699234,-96.587517,-95.635384,-93.48436,-91.643967,-91.490089,-93.316017,-96.100983,-98.175415,-98.340668,-96.679298,-94.499748,-93.452827,-94.424431,-96.954079,-99.556992,-100.704,-99.776596,-97.361656,-94.734489,-92.94622,-92.181976,-91.822945,-91.113045,-89.890266,-88.810104,-88.879761,-90.645744,-93.651131,-96.600487,-98.165146,-97.885597,-96.518463,-95.51609,-95.892052,-97.142998,-96.900146,-91.579086,-77.747437,-53.563725,-19.642305,20.982328,63.702404,103.61208,136.75323,160.96967,176.16997,183.96268,186.789,186.84581,185.21809,181.62074,174.91585,164.17676,149.72296,133.48795,118.41318,107.13461,100.70217,98.118752,97.024979,95.147507,91.62252,87.354988,84.178322,83.365059,84.488197,85.429405,83.586731,77.530342,68.028458,57.746326,49.771626,45.881809,45.637981,46.85157,47.081059,45.164665,41.806572,38.889156,38.033863,39.410099,41.58828,42.504807,40.856491,36.973064,32.594284,29.72901,29.37999,30.978895,32.868954,33.460636,32.255474,30.062498,28.310358,27.974628,28.876217,29.817741,29.430893,27.125359,23.484562,19.857843,17.458286,16.601339,16.596645,16.335953,15.13785,13.247568,11.648683,11.332788,12.550457,14.575218,16.154192,16.344967,15.1731,13.663224,13.214602,14.725043,18.030085,22.015224,25.322472,27.195795,27.932087,28.66522,30.634354,34.403828,39.518963,44.801601,49.094776,51.99823,54.149002,56.87307,61.396564,68.050468,75.901772,83.012917,87.20475,86.951836,81.989693,73.37191,62.987705,52.798164,44.155777,37.496304,32.484531,28.466511,24.945713,21.824804,19.31555,17.624649,16.653263,15.928773,14.830411,12.972188,10.491198,8.0335274,6.4128404,6.1272678,7.0255523,8.3401699,9.0920935,8.6458092,7.0948997,5.2502146,4.2318959,4.89393,7.4007549,11.178341,15.242537,18.69915,21.134916,22.70829,23.937151,25.346603,27.19113,29.385784,31.636663,33.647022,35.256084,36.440964,37.218227,37.548981,37.339905,36.555504,35.367313,34.221844,33.741722,34.467789,36.555706,39.595078,42.684471,44.773529,45.130589,43.6931,41.082165,38.223961,35.751217,33.527676,30.626337,25.865862,18.667383,9.7334108,1.0555356,-4.9206157,-6.6508055,-4.6596856,-1.7932477,-2.2459621,-9.7120371,-25.5467,-47.905701,-72.371574,-93.803291,-108.49088,-115.53693,-116.81993,-115.67138,-115.06973,-116.33986,-118.9659,-121.43427,-122.45259,-121.76595,-120.14883,-118.72233,-118.15393,-118.29948,-118.48177,-118.14268,-117.36795,-116.90819,-117.69434,-120.1982,-124.07998,-128.35013,-131.91817,-134.15634,-135.12918,-135.39291,-135.5601,-135.95116,-136.54495,-137.19525,-137.88773,-138.80852,-140.16895,-141.93835,-143.71985,-144.89928,-144.99049,-143.94484,-142.20831,-140.48102,-139.33704,-138.95094,-139.09195,-139.35593,-139.45015,-139.33278,-139.13719,-138.97673,-138.80301,-138.42946,-137.69009,-136.59389,-135.3456,-134.21773,-133.38203,-132.8392,-132.49828,-132.3244,-132.40723,-132.86433,-133.64139,-134.38594,-134.55037,-133.71974,-131.97012,-129.98912,-128.80522,-129.21637,-131.2197,-133.77446,-135.04921,-133.02654,-126.14801,-113.697,-95.817261,-73.297554,-47.353443,-19.545652,8.2217598,33.81279,55.220364,71.109535,81.26693,86.643661,88.874352,89.472946,89.135414,87.552406,83.848083,77.386307,68.458138,58.432365,49.269829,42.674591,39.354408,38.780476,39.54121,40.065155,39.326099,37.204987,34.396923,31.977188,30.862886,31.400949,33.222816,35.397327,36.819,36.693867,34.932064,32.255795,29.919714,29.118065,30.343599,33.047398,35.835648,37.155743,36.121914,33.007397,29.09341,25.940859,24.512474,24.67922,25.410433,25.51029,24.410385,22.498243,20.782639,20.151983,20.7586,21.963406,22.868168,23.033293,22.837496,23.191956,24.799513,27.505798,30.25452,31.739489,31.327887,29.588856,27.992496,27.912592,29.585505,31.772728,32.448345,30.146641,25.11747,19.49259,16.257883,17.586409,23.52317,31.833132,39.131744,42.646549,41.59127,37.391159,32.702797,29.873241,29.755936,31.507652,33.355274,33.76049,32.25753,29.540672,26.892033,25.419863,25.603653,27.351629,30.403522,34.713493,40.528267,48.136353,57.500469,68.03878,78.684761,88.158005,95.269852,99.12973,99.244263,95.588989,88.704132,79.754356,70.412163,62.471619,57.270092,55.174217,55.428474,56.507931,56.836739,55.50742,52.61668,49.051178,45.879967,43.737949,42.569176,41.852398,41.114567,40.357735,40.096882,40.978573,43.241379,46.394562,49.35532,50.986271,50.709541,48.815655,46.272373,44.150284,43.018761,42.67791,42.375546,41.353592,39.37048,36.875778,34.744522,33.758163,34.16777,35.604771,37.369247,38.885128,40.019985,41.077282,42.496765,44.488731,46.855228,49.106327,50.770802,51.674107,51.997467,52.102413,52.277473,52.610741,53.08099,53.77676,55.039986,57.381214,61.197205,66.500862,72.901657,79.907852,87.366173,95.698296,105.67816,117.79572,131.58359,145.40097,156.95331,164.37373,167.28273,167.16026,166.7084,168.47337,173.47545,180.64627,187.42987,191.2206,190.80115,186.93948,181.81335,177.65027,175.44244,174.5267,173.25002,170.24193,165.43498,160.15636,156.23625,154.72879,155.09618,155.40213,153.40182,147.83955,139.14751,129.14679,120.00309,113.1467,108.83096,106.51381,105.65314,106.22316,108.48666,112.14044,115.48203,115.34168,108.08986,91.32859,65.362129,33.56377,1.3259817,-25.938976,-44.759621,-54.585617,-57.415417,-56.433186,-54.480286,-53.136517,-52.709366,-52.862152,-53.306988,-54.09454,-55.418674,-57.224499,-59.015369,-60.055626,-59.836269,-58.458984,-56.647564,-55.361576,-55.265862,-56.401257,-58.251698,-60.126316,-61.573421,-62.551388,-63.28035,-63.934113,-64.432289,-64.494301,-63.90237,-62.754921,-61.497276,-60.685822,-60.645309,-61.264565,-62.079662,-62.587849,-62.571144,-62.205795,-61.89201,-61.940693,-62.350704,-62.833824,-63.055347,-62.898827,-62.552933,-62.361694,-62.564892,-63.140224,-63.875591,-64.612457,-65.454437,-66.748886,-68.82058,-71.640968,-74.693916,-77.179062,-78.453621,-78.425766,-77.624535,-76.885277,-76.859039,-77.68129,-79.017494,-80.419434,-81.68325,-82.889641,-84.05468,-84.656136,-83.470901,-79.006645,-70.407005,-58.317696,-45.110088,-34.173252,-28.537134,-29.532352,-36.226994,-45.960308,-55.66629,-63.236324,-68.186058,-71.350128,-73.927254,-76.554047,-78.985069,-80.493408,-80.607834,-79.606026,-78.402054,-77.927795,-78.475868,-79.492012,-79.971863,-79.178993,-77.17009,-74.753166,-72.908485,-72.082077,-71.848526,-71.177551,-69.117851,-65.430489,-60.753956,-56.218891,-52.804302,-50.875263,-50.17168,-50.169178,-50.47414,-50.935139,-51.428017,-51.578815,-50.775635,-48.600571,-45.437698,-42.772331,-42.803185,-47.414623,-57.029598,-70.04953,-83.320854,-93.482422,-98.50309,-98.567635,-95.823212,-93.148109,-92.651848,-94.729164,-98.120018,-100.82131,-101.23705,-98.901985,-94.457336,-89.035728,-83.515137,-78.070244,-72.168388,-64.862549,-55.130035,-42.118752,-25.346807,-4.9650025,17.929724,41.137691,61.631226,76.353081,83.278496,82.204567,74.767632,63.581451,50.91996,37.689445,23.304371,6.5415878,-13.168955,-34.851463,-56.082142,-74.0383,-86.843994,-94.369133,-98.005173,-99.619789,-100.42619,-100.52931,-99.41407,-96.962517,-94.199242,-93.142319,-95.765953,-102.73062,-112.75285,-123.10648,-131.01337,-135.08426,-135.91548,-135.47935,-135.71762,-137.24963,-139.0146,-139.04762,-135.85721,-129.50482,-121.70904,-114.94009,-111.10418,-110.63139,-112.47017,-114.88773,-116.49096,-116.81281,-116.163,-114.94711,-112.97658,-109.24021,-102.2653,-90.819283,-74.533287,-54.136116,-31.248934,-7.9118743,13.928537,32.824005,48.076763,59.826351,68.925438,76.556587,83.641289,90.262123,95.423546,97.385269,94.510071,86.23188,73.602577,59.053833,45.442692,34.877747,27.968243,23.890114,21.169733,18.660337,16.104109,13.980424,12.828468,12.571115,12.337614,10.91694,7.5304494,2.3930225,-3.3238835,-8.1158972,-10.967761,-11.874879,-11.776302,-11.983308,-13.471516,-16.433659,-20.282011,-24.010817,-26.662666,-27.663401,-26.932724,-24.814003,-21.91151,-18.891579,-16.271484,-14.240014,-12.599858,-10.915687,-8.8453598,-6.4763684,-4.4131651,-3.4672136,-4.0647306,-5.7393379,-7.1138358,-6.5162444,-2.9517448,3.1529925,9.9617147,15.093862,16.886797,15.293574,11.834542,8.603878,6.9511948,6.6965742,6.4139113,4.6258006,1.1432372,-2.3362091,-2.8004181,2.6440597,15.320465,34.342419,57.085587,80.388435,101.72052,119.7003,133.86534,144.10228,150.28394,152.37604,150.82375,146.77037,141.79562,137.26801,133.75584,130.94495,128.15067,125.05892,122.13748,120.38835,120.6075,122.70731,125.63788,128.01118,128.99974,128.84929,128.60419,129.22032,130.71341,132.00024,131.60649,128.77484,124.17828,119.68036,117.23962,117.66849,120.08833,122.465,122.87686,120.67299,116.76783,112.92419,110.5656,109.94796,110.21836,110.23051,109.45736,108.31726,107.70984,108.16872,109.31999,110.0822,109.45535,107.27663,104.33211,101.70682,99.857628,98.144272,95.242111,90.201752,83.396957,76.617996,72.137367,71.309128,73.633987,76.952621,78.689209,77.367218,73.441734,68.956741,66.310959,66.966003,70.891083,76.971169,83.937462,91.086868,98.319183,105.60574,112.45122,117.88605,121.06197,121.99213,121.7994,122.16638,124.28044,127.98672,131.7722,133.64961,132.37889,128.21278,122.66936,117.49971,113.56679,110.39528,106.6702,101.29852,94.272369,86.736626,80.23687,75.690239,72.790916,70.233429,66.565941,61.077126,54.142666,46.860676,40.280361,34.747856,29.741028,24.199541,17.061506,7.6839304,-3.9859383,-17.409243,-31.496212,-44.685642,-55.196949,-61.556244,-63.271225,-61.282696,-57.797478,-55.409679,-55.888252,-59.317291,-64.154404,-68.239578,-70.167313,-70.155533,-69.830231,-71.039459,-74.462128,-78.941216,-82.018852,-81.371559,-76.252892,-68.039505,-59.548328,-53.560936,-51.454472,-52.712849,-55.498428,-57.818485,-58.538818,-57.713299,-56.20438,-54.99184,-54.644447,-55.181156,-56.223492,-57.197643,-57.453556,-56.373299,-53.617508,-49.511997,-45.335075,-43.170891,-45.193523,-52.644043,-65.070412,-80.347527,-95.559586,-108.27555,-117.46954,-123.55167,-127.56141,-130.13544,-130.99979,-129.34117,-124.75965,-118.05924,-111.22309,-106.49338,-105.13161,-106.69947,-109.37651,-111.13354,-110.99723,-109.57864,-108.54157,-109.40307,-112.49039,-116.73915,-120.41868,-122.24516,-122.12069,-121.04812,-120.36814,-120.90838,-122.62568,-124.90157,-127.1577,-129.26086,-131.41586,-133.6955,-135.6673,-136.49809,-135.51485,-132.79231,-129.25883,-126.14338,-124.09375,-122.59198,-120.13477,-115.12321,-106.88678,-96.136261,-84.51387,-73.539085,-63.688766,-54.277679,-44.253632,-33.366112,-22.868532,-15.193023,-12.715759,-16.352798,-24.870251,-35.358917,-44.601418,-50.525375,-52.927174,-53.147087,-53.026287,-53.853115,-55.893211,-58.626751,-61.341972,-63.582928,-65.182732,-66.012535,-65.814232,-64.38118,-61.998142,-59.744217,-59.266655,-61.982956,-68.126526,-76.275032,-83.79155,-88.064407,-87.896301,-84.228737,-79.729286,-77.421944,-79.107109,-84.445854,-91.197655,-96.442101,-98.082832,-95.828247,-91.194725,-86.638596,-84.349922,-85.313568,-88.982971,-93.538559,-96.458778,-95.128128,-87.363861,-71.884262,-48.738132,-19.585236,12.393785,43.125648,68.733711,86.711723,96.65963,100.20338,100.10892,99.019707,98.44561,98.480019,98.30545,97.110153,94.838043,92.339706,90.882149,91.363297,93.732704,96.964684,99.579712,100.38944,99.039452,96.081764,92.603699,89.680092,87.963669,87.58403,88.308044,89.774315,91.629013,93.522614,95.062256,95.847755,95.632713,94.51828,93.017967,91.887444,91.766106,92.819168,94.59964,96.23558,96.858055,96.038254,93.993134,91.454254,89.287773,88.086838,87.952209,88.547913,89.353874,89.942078,90.125626,89.940887,89.535515,89.074478,88.724617,88.688164,89.201706,90.445633,92.395958,94.72805,96.879082,98.284363,98.676048,98.264145,97.6651,97.589317,98.454071,100.15118,102.11668,103.66858,104.40855,104.43885,104.25917,104.41419,105.1253,106.1523,106.97726,107.18224,106.75348,106.08797,105.683,105.72436,105.88643,105.53637,104.25603,102.33797,100.85932,101.15459,103.88438,108.20482,111.57414,110.43879,101.57037,83.446777,57.009933,25.434946,-6.9604344,-36.129372,-59.396683,-75.849937,-86.033318,-91.283562,-93.117584,-92.901672,-91.767197,-90.584404,-89.854172,-89.556755,-89.135864,-87.763618,-84.834625,-80.423958,-75.392723,-71.007187,-68.252342,-67.253235,-67.190628,-66.803391,-65.188004,-62.391743,-59.406898,-57.551014,-57.621201,-59.36948,-61.646515,-63.127136,-63.145901,-62.092361,-61.100178,-61.227196,-62.660686,-64.47068,-65.082069,-63.174587,-58.450508,-51.803688,-44.81126,-38.891632,-34.657101,-31.827009,-29.68261,-27.699104,-25.909807,-24.778511,-24.714758,-25.613188,-26.769356,-27.250669,-26.476248,-24.607662,-22.473043,-21.055807,-20.867899,-21.60652,-22.314999,-21.952618,-20.027937,-16.917904,-13.69062,-11.542691,-11.17261,-12.424516,-14.363946,-15.707256,-15.359774,-12.802154,-8.1814976,-2.1247618,4.5920911,11.359025,17.914621,24.351942,30.964069,37.989212,45.345955,52.468208,58.338036,61.753613,61.764217,58.099506,51.382565,42.989044,34.580933,27.519592,22.443712,19.221691,17.285181,16.132616,15.691488,16.314417,18.412783,21.967215,26.247595,29.961702,31.791584,31.029486,27.945065,23.660385,19.59461,16.79331,15.520361,15.323081,15.488631,15.574553,15.667463,16.216602,17.577688,19.598021,21.548662,22.478695,21.781689,19.612097,16.872946,14.762901,14.149412,15.14316,17.118645,19.142157,20.51796,21.108664,21.256418,21.4083,21.741728,22.065355,22.05529,21.63015,21.155293,21.281609,22.492716,24.668585,27.001284,28.384426,28.074957,26.211943,23.828077,22.291677,22.484737,24.217829,26.267624,27.057068,25.603722,22.185596,18.328688,16.113569,17.189112,22.034855,29.846138,39.042831,48.057625,55.944378,62.50909,67.978195,72.479126,75.666122,76.679337,74.400162,67.817345,56.323227,39.874119,19.058186,-4.8731341,-30.032938,-54.087955,-74.690071,-90.089897,-99.698227,-104.29244,-105.68815,-105.96633,-106.60846,-107.97112,-109.36064,-109.63509,-107.96857,-104.34,-99.501358,-94.511284,-90.176613,-86.764557,-84.130463,-82.10598,-80.817497,-80.672508,-82.009979,-84.675903,-87.865799,-90.409317,-91.366699,-90.572464,-88.765007,-87.190674,-86.907249,-88.211578,-90.541504,-92.898087,-94.498512,-95.226097,-95.588974,-96.237694,-97.39653,-98.625969,-99.106766,-98.267754,-96.320976,-94.300598,-93.519516,-94.754646,-97.683159,-100.96408,-102.95996,-102.67548,-100.32905,-97.1866,-94.747437,-93.787994,-93.867882,-93.612732,-91.592384,-87.230644,-81.1651,-74.835587,-69.583771,-65.860977,-63.059681,-60.059387,-56.095757,-51.345131,-46.814865,-43.609024,-42.077019,-41.449318,-40.248756,-37.246162,-32.352612,-26.862524,-22.870115,-22.205957,-25.535162,-32.135086,-40.422886,-48.837399,-56.50304,-63.314754,-69.511871,-75.146797,-79.871269,-83.171494,-84.815956,-85.11792,-84.7743,-84.395241,-84.104317,-83.55294,-82.369034,-80.693878,-79.343887,-79.385033,-81.363922,-84.76255,-88.161026,-90.114685,-90.191139,-89.382759,-89.432388,-91.328629,-93.884743,-93.439995,-85.159454,-65.448471,-34.226288,4.2731981,42.781792,73.837204,92.782402,99.417412,97.529617,92.670738,89.440132,89.683731,92.388947,95.059891,95.588943,93.50869,90.019554,86.975067,85.584755,85.657898,85.788948,84.285278,80.227646,74.0438,67.314201,61.979561,59.417282,59.863564,62.420639,65.570282,67.887489,68.605476,67.80793,66.227844,64.808472,64.260124,64.810387,66.224716,68.03463,69.816917,71.36499,72.678879,73.822693,74.781456,75.437927,75.690308,75.612007,75.504066,75.757454,76.588203,77.831146,78.975174,79.47654,79.181984,78.575676,78.632858,80.297813,83.860924,88.614067,93.030655,95.414619,94.680168,90.842064,84.968201,78.659508,73.373802,69.947746,68.492805,68.590469,69.568336,70.683388,71.204514,70.513298,68.314415,64.88649,61.159256,58.42841,57.741707,59.266235,62.057541,64.468506,65.040016,63.362877,60.35413,57.723049,56.920971,58.230637,60.592175,62.297028,62.105495,60.049301,57.380718,55.70327,55.880016,57.474781,59.119865,59.561947,58.658844,57.622097,58.317104,62.089741,68.927048,77.536278,86.289612,94.373199,102.32706,111.58203,123.30325,137.34851,152.088,165.24489,175.20453,181.89737,186.63258,190.96593,195.35106,198.4929,197.87918,191.2045,177.82474,159.35945,139.09392,120.55822,106.11,96.262581,89.983521,85.609192,81.74955,77.715286,73.413414,69.00325,64.661514,60.587734,57.110451,54.66029,53.52383,53.538269,54.007011,53.990452,52.838428,50.608532,48.047585,46.103264,45.277237,45.272175,45.201836,44.240795,42.264751,40.013386,38.62447,38.82835,40.349915,41.953754,42.15274,40.15667,36.461258,32.686962,30.732107,31.713547,35.278332,39.634678,42.239521,40.754211,33.813892,21.340435,4.4036388,-15.178719,-35.294037,-53.9305,-69.499069,-81.08194,-88.561729,-92.559174,-94.158844,-94.512688,-94.494644,-94.557091,-94.81366,-95.231033,-95.76162,-96.330635,-96.739258,-96.638588,-95.683517,-93.818504,-91.500191,-89.652161,-89.302567,-91.077095,-94.846466,-99.757133,-104.6419,-108.56892,-111.20764,-112.82164,-113.94719,-115.00508,-116.0974,-117.07239,-117.73765,-118.01863,-117.94791,-117.54438,-116.74828,-115.52322,-114.06371,-112.90618,-112.7674,-114.13179,-116.83738,-119.98095,-122.29208,-122.80865,-121.44511,-119.06777,-116.98991,-116.18192,-116.69529,-117.67162,-117.92589,-116.71455,-114.1841,-111.22125,-108.83485,-107.50578,-106.9387,-106.35242,-105.07298,-103.00869,-100.70365,-98.981346,-98.462234,-99.280334,-101.12928,-103.51155,-105.95097,-108.03104,-109.33035,-109.44342,-108.18712,-105.87022,-103.35229,-101.70556,-101.59618,-102.79362,-104.23772,-104.75748,-104.03632,-103.12208,-103.95478,-107.99252,-114.6832,-120.78954,-121.18903,-110.92487,-87.49633,-52.165657,-9.5865622,33.987652,72.883202,103.42644,124.05902,134.48665,134.77,125.14852,106.69592,82.156387,56.053974,33.608868,18.839407,12.890189,13.626404,16.835711,18.419859,16.35717,11.363501,5.9775343,2.7336252,2.5769672,4.4376235,6.1033669,5.7294364,2.9944305,-0.78228396,-3.5479395,-3.8122103,-1.5214742,1.9648216,4.6921086,5.1737943,3.0872328,-0.70981616,-4.7290545,-7.5761819,-8.4607439,-7.3202858,-4.6394558,-1.1681505,2.2996218,5.0514026,6.5433578,6.5004001,5.0074062,2.511132,-0.32821769,-2.9052691,-4.9306617,-6.5317469,-8.1108608,-10.01151,-12.157839,-13.864243,-13.940141,-11.076393,-4.3619323,6.2928386,20.02059,35.225002,50.085709,63.122868,73.56868,81.382973,86.930054,90.517876,92.081261,91.211464,87.523598,81.130379,72.894226,64.238266,56.560436,50.55925,45.872658,41.275608,35.358822,27.314186,17.375662,6.6652927,-3.4433365,-12.038375,-19.016823,-24.872093,-30.10177,-34.66843,-37.909172,-38.983425,-37.574879,-34.36993,-30.956011,-29.143259,-30.082745,-33.691986,-38.719311,-43.397419,-46.299561,-46.92408,-45.736073,-43.738018,-41.899048,-40.789146,-40.560551,-41.156528,-42.497692,-44.475266,-46.790371,-48.844173,-49.871117,-49.319237,-47.259651,-44.52438,-42.407822,-42.042316,-43.788013,-46.997932,-50.306461,-52.277687,-52.041878,-49.576756,-45.527618,-40.743092,-35.843555,-31.059584,-26.352684,-21.635035,-16.875113,-12.020637,-6.8603826,-1.0241839,5.7863431,13.45606,21.272461,28.11907,33.0256,35.780956,37.207539,38.854248,42.209358,47.847294,54.996227,61.787052,66.055923,66.263321,62.052563,54.210842,44.150402,33.268307,22.535561,12.449387,3.2289991,-4.980495,-12.054182,-17.963322,-22.838051,-26.901293,-30.300806,-32.989983,-34.795353,-35.656178,-35.850861,-35.986568,-36.68042,-38.107716,-39.747814,-40.580547,-39.697525,-36.980263,-33.388584,-30.602306,-30.159456,-32.576241,-36.981331,-41.501652,-44.183552,-43.915344,-40.842869,-36.111107,-31.185797,-27.222288,-24.82613,-24.203136,-25.398848,-28.306313,-32.390697,-36.421749,-38.62965,-37.46249,-32.653027,-25.928364,-20.728317,-20.793484,-28.181992,-41.738045,-56.938168,-67.38121,-67.318726,-54.039654,-28.97069,2.9929347,35.523376,63.230297,83.281967,95.696884,102.4506,106.07451,108.50944,110.65209,112.55827,113.93967,114.56294,114.36897,113.38468,111.62106,109.09083,105.92622,102.4682,99.215469,96.637283,94.967453,94.119331,93.777168,93.598747,93.394737,93.180786,93.096443,93.274727,93.762283,94.530251,95.5336,96.740791,98.092285,99.424942,100.45105,100.85897,100.51279,99.634911,98.827225,98.859192,100.28656,103.08562,106.51376,109.31345,110.20547,108.45939,104.26981,98.742889,93.47654,89.911491,88.74675,89.688774,91.649063,93.289673,93.646919,92.526047,90.480225,88.406425,86.996605,86.358559,86.020645,85.306618,83.842667,81.871231,80.159019,79.536461,80.345299,82.145966,83.890549,84.48278,83.399345,80.997093,78.317543,76.509918,76.228951,77.370834,79.282639,81.266914,83.012741,84.645897,86.365105,87.932442,88.40712,86.363899,80.514336,70.366776,56.512573,40.35014,23.40992,6.6913424,-9.5961542,-25.76626,-42.080666,-58.267262,-73.446495,-86.492447,-96.566681,-103.46716,-107.58568,-109.54773,-109.8185,-108.55545,-105.78613,-101.74113,-97.057861,-92.667732,-89.413139,-87.640472,-87.039497,-86.835388,-86.206001,-84.658897,-82.149254,-78.908691,-75.146652,-70.848862,-65.80011,-59.784927,-52.799961,-45.125832,-37.227146,-29.575333,-22.524323,-16.298124,-11.042966,-6.8490109,-3.6973915,-1.3873036,0.44855487,2.1851792,3.9750764,5.6167312,6.6628842,6.7511778,5.9543562,4.879868,4.3734384,4.9387937,6.2080898,6.8245144,4.8882875,-1.2092206,-11.9798,-26.477629,-42.560436,-57.621078,-69.422951,-76.683853,-79.250168,-77.931862,-74.180305,-69.744705,-66.326096,-65.191101,-66.774361,-70.427208,-74.52475,-77.027184,-76.336533,-72.0588,-65.251648,-57.973278,-52.33041,-49.522034,-49.391499,-50.709305,-51.984612,-52.308098,-51.743263,-51.088726,-51.227715,-52.511288,-54.554871,-56.528255,-57.697681,-57.844051,-57.304268,-56.658146,-56.313995,-56.28244,-56.264858,-55.950222,-55.279404,-54.483246,-53.882343,-53.613396,-53.494678,-53.135166,-52.213223,-50.729721,-49.05859,-47.756527,-47.253044,-47.61565,-48.52924,-49.489189,-50.078262,-50.159481,-49.884602,-49.539268,-49.340919,-49.319782,-49.346359,-49.269855,-49.062935,-48.868885,-48.9132,-49.331905,-50.029346,-50.671207,-50.843182,-50.30109,-49.164883,-47.91758,-47.16996,-47.29541,-48.142918,-49.024914,-49.036858,-47.565777,-44.704597,-41.309345,-38.624966,-37.663883,-38.687382,-41.099758,-43.825024,-45.939075,-47.165493,-47.926449,-48.926971,-50.558483,-52.531292,-53.996548,-54.089657,-52.537289,-49.916061,-47.373638,-45.975376,-46.084984,-47.162247,-48.085449,-47.772778,-45.711365,-42.108223,-37.662029,-33.204651,-29.494677,-27.250999,-27.255468,-30.248165,-36.488621,-45.165939,-54.074612,-59.928764,-59.351524,-50.147579,-32.233982,-7.7381773,19.788918,46.626026,69.969841,88.398094,101.66616,110.1777,114.56641,115.60756,114.33559,112.04974,109.99206,108.79839,108.09937,106.65026,103.05688,96.740891,88.552162,80.582817,75.20237,73.828636,76.14814,80.259476,83.672104,84.588181,82.739372,79.335411,76.219452,74.777855,75.249596,76.786285,78.135651,78.464798,77.809891,76.922424,76.673851,77.429489,78.774208,79.717415,79.206848,76.626114,72.011299,65.927719,59.150116,52.36631,46.052391,40.520702,36.027637,32.814922,31.036348,30.625124,31.211845,32.177849,32.84605,32.726624,31.697544,30.029354,28.239365,26.843679,26.124401,26.022434,26.205387,26.272671,25.987139,25.403435,24.813829,24.532959,24.642141,24.852198,24.589478,23.284279,20.712626,17.191631,13.495538,10.514902,8.8356667,8.4728746,8.9121666,9.434514,9.5312643,9.1627083,8.7101116,8.6610498,9.2330866,10.177776,10.891643,10.766005,9.5565586,7.5412488,5.3685689,3.6912582,2.8113518,2.5490258,2.4037504,1.8947433,0.86568439,-0.42496112,-1.4608226,-1.7498581,-1.0454792,0.61791408,3.0617337,6.1426959,9.8288555,14.11395,18.8358,23.533478,27.444479,29.637905,29.186897,25.278145,17.242615,4.5967069,-12.790848,-34.389164,-58.702644,-83.236153,-104.92707,-121.00523,-129.95064,-132.06993,-129.33582,-124.50132,-119.91174,-116.63764,-114.39063,-112.2299,-109.58327,-106.8993,-105.46695,-106.4751,-109.91132,-114.07383,-116.15207,-113.68206,-106.08852,-95.363899,-85.342484,-79.800125,-80.314957,-85.042694,-89.145935,-86.775337,-73.687744,-49.23967,-16.801182,17.579248,47.580349,68.935051,80.651428,84.714127,84.611183,83.541634,83.190506,83.544777,83.626923,82.569771,80.367828,77.920898,76.443558,76.678047,78.422592,80.654755,82.147804,82.184113,80.9319,79.280838,78.273796,78.509781,79.882927,81.781731,83.566376,84.973648,86.17543,87.477982,88.910713,90.031891,90.120071,88.637123,85.64341,81.865845,78.354065,75.943665,74.876221,74.811249,75.188744,75.662704,76.298294,77.42128,79.277084,81.791145,84.620438,87.431961,90.143425,92.8871,95.702919,98.238907,99.799377,99.840363,98.615913,97.431824,98.104301,101.72803,107.42111,111.9259,110.58298,99.412132,77.290565,47.008595,14.496191,-13.506173,-32.185009,-40.412136,-40.684261,-37.4123,-34.596416,-34.150616,-35.637024,-37.290043,-37.508442,-35.867954,-33.16151,-30.655472,-29.201729,-28.815392,-28.906376,-28.875671,-28.583374,-28.365608,-28.653444,-29.53528,-30.609158,-31.220926,-30.88858,-29.595423,-27.764212,-25.980568,-24.709557,-24.215019,-24.689589,-26.406982,-29.682571,-34.596298,-40.661621,-46.724808,-51.255875,-52.921196,-51.106411,-46.059731,-38.567509,-29.394341,-18.891077,-7.062398,5.9444933,19.29332,31.304853,39.917919,43.58131,42.073727,36.737206,29.927818,23.946274,20.025053,17.923645,16.334206,13.842216,9.8920927,5.2384524,1.6777531,1.2479628,5.3272357,14.042302,26.172943,39.477028,51.219757,58.713631,59.789223,53.196926,38.921181,18.30625,-6.1477842,-31.376699,-54.598263,-74.096382,-89.59024,-102.00344,-112.74537,-122.87383,-132.56464,-141.1312,-147.52165,-150.96387,-151.37994,-149.37056,-145.84793,-141.59731,-137.04903,-132.36551,-127.71963,-123.52029,-120.39606,-118.93044,-119.31934,-121.17587,-123.61288,-125.56392,-126.17243,-125.06367,-122.40333,-118.76706,-114.91738,-111.58131,-109.27696,-108.20235,-108.20005,-108.82424,-109.52042,-109.86854,-109.77499,-109.491,-109.41827,-109.80036,-110.49705,-111.01314,-110.79838,-109.64309,-107.90235,-106.36816,-105.83531,-106.62297,-108.36642,-110.22974,-111.41155,-111.6117,-111.14524,-110.62924,-110.4674,-110.50548,-110.11678,-108.67142,-106.06032,-102.88839,-100.17116,-98.718445,-98.620895,-99.199585,-99.46553,-98.779953,-97.260002,-95.648033,-94.740135,-94.786186,-95.301727,-95.442909,-94.688545,-93.334579,-92.414177,-93.046814,-95.628365,-99.41568,-102.82583,-104.30794,-103.25983,-100.40888,-97.396248,-95.788521,-96.083664,-97.268372,-97.146324,-93.214813,-83.597252,-67.581764,-45.60701,-18.864277,11.153181,42.896271,74.761261,104.99821,131.72379,153.13029,167.8235,175.12527,175.19452,168.92154,157.65843,142.90211,126.0363,108.19334,90.247345,72.90844,56.852619,42.797951,31.450352,23.307055,18.406124,16.184372,15.586176,15.435162,14.906598,13.839528,12.69261,12.157523,12.667036,14.111657,15.938341,17.53376,18.586771,19.14579,19.338083,19.020338,17.738878,15.173689,11.835776,9.4771929,10.726808,17.918427,31.666159,50.057343,69.101685,84.374763,93.039543,95.119965,93.279854,91.229858,91.709259,95.234962,100.30701,104.82517,107.71314,109.66083,112.53187,117.90945,125.84154,134.6992,142.28148,147.42079,150.96913,155.4348,163.43733,175.94843,191.45282,206.58275,217.83965,223.3385,223.52711,220.51631,216.53734,212.54672,207.82076,200.6814,189.76328,174.94655,157.3951,138.79488,120.41724,102.6865,85.508461,69.040352,54.261612,42.850788,36.369614,35.249992,38.243519,42.727367,45.752342,45.293472,41.068867,34.552032,28.230528,24.507574,24.744593,28.805649,35.212845,41.788738,46.519951,48.327156,47.455963,45.312389,43.762714,44.163033,46.571846,49.595459,51.057285,49.254494,44.191208,38.094528,34.825638,38.359951,51.023853,72.341438,99.054817,126.29568,149.33078,165.08232,172.82516,173.93188,170.98247,166.7471,163.44298,162.39792,164.02777,167.96985,173.28537,178.73224,183.11493,185.6416,186.14682,185.06215,183.14468,181.11688,179.41791,178.17473,177.3378,176.81825,176.49814,176.12953,175.27139,173.40903,170.24937,165.99809,161.36378,157.18051,153.81026,150.69218,146.37392,139.08235,127.54,111.55136,92.015274,70.388672,47.987419,25.607008,3.6999791,-17.075428,-35.423416,-49.538986,-57.8605,-60.045368,-57.539341,-53.291389,-50.657696,-52.030922,-57.90913,-66.872131,-76.421623,-84.186707,-88.862877,-90.487267,-90.069016,-88.918083,-88.073822,-88.05011,-88.863953,-90.181786,-91.458855,-92.072495,-91.515854,-89.655907,-86.930397,-84.300362,-82.877945,-83.368851,-85.645538,-88.747246,-91.364738,-92.553642,-92.24942,-91.261292,-90.748764,-91.51786,-93.585304,-96.269463,-98.705261,-100.39954,-101.43817,-102.227,-102.99908,-103.49532,-103.09729,-101.34833,-98.489639,-95.589539,-94.100906,-95.073593,-98.502914,-103.23458,-107.50528,-109.80456,-109.5567,-107.25705,-104.05183,-101.08174,-99.00351,-97.922997,-97.665115,-98.09539,-99.228844,-101.07542,-103.40038,-105.64905,-107.15078,-107.48756,-106.7666,-105.58666,-104.69846,-104.57391,-105.16319,-105.98449,-106.46317,-106.27621,-105.47935,-104.36897,-103.22651,-102.15976,-101.15365,-100.25649,-99.70739,-99.853638,-100.88347,-102.5718,-104.26537,-105.18158,-104.86383,-103.49436,-101.82679,-100.73987,-100.67369,-101.3101,-101.72205,-100.92255,-98.484207,-94.844643,-91.102699,-88.423477,-87.407959,-87.798225,-88.677246,-89.023872,-88.283478,-86.629074,-84.791832,-83.597549,-83.499146,-84.36557,-85.612495,-86.558731,-86.78389,-86.295052,-85.444328,-84.683037,-84.312271,-84.363853,-84.654053,-84.952415,-85.154686,-85.359016,-85.806717,-86.72477,-88.161072,-89.909348,-91.574188,-92.749916,-93.217705,-93.045914,-92.52726,-91.98336,-91.557014,-91.133461,-90.458969,-89.392174,-88.116295,-87.136833,-87.013268,-87.956284,-89.547356,-90.80616,-90.640251,-88.464363,-84.63102,-80.379097,-77.266068,-76.359161,-77.631645,-79.925972,-81.539627,-81.134102,-78.470749,-74.558395,-71.113571,-69.607376,-70.39357,-72.366074,-73.315323,-70.803322,-63.138958,-50.018204,-32.580624,-12.912352,6.744051,24.721903,40.319698,53.733093,65.612717,76.480255,86.285835,94.32354,99.557167,101.20736,99.301239,94.872894,89.655846,85.370926,82.952538,82.130562,81.628296,79.91127,76.102127,70.55262,64.727379,60.430626,58.78941,59.569317,61.23407,61.750671,59.715607,55.180317,49.703495,45.574299,44.603279,47.116421,51.684013,55.731251,56.722736,53.327976,46.000397,36.711113,28.0014,21.83886,18.829815,18.137014,18.090578,17.145195,14.687205,11.296739,8.3621922,7.2786245,8.6680126,12.034849,16.028931,19.156519,20.539272,20.299932,19.369368,18.840868,19.257168,20.252491,20.763399,19.689075,16.619715,12.213969,8.0108194,5.7810593,6.7682023,11.200799,18.2775,26.55916,34.514721,40.955418,45.22794,47.20417,47.185936,45.805626,43.911861,42.383877,41.869167,42.542469,44.039951,45.656239,46.728714,46.988194,46.648865,46.173412,45.879288,45.681927,45.186367,44.080685,42.529308,41.213413,40.885487,41.670677,42.600201,41.79813,37.358498,28.47673,16.15646,2.9954443,-7.9183116,-14.417326,-16.173681,-14.604825,-11.854122,-9.4912071,-7.7245789,-5.5634227,-1.7446964,4.2363806,11.679878,19.078917,25.042217,29.087248,31.775322,34.14299,36.873852,39.810543,42.128063,42.990898,42.162323,40.082748,37.346748,33.982731,29.122726,21.398327,9.8812103,-5.0310979,-21.39846,-36.394279,-47.479515,-53.414204,-54.552921,-52.351589,-48.506481,-44.312012,-40.566772,-37.889721,-36.99157,-38.52055,-42.507587,-47.854992,-52.402912,-53.762909,-50.550251,-43.279102,-34.299129,-26.71258,-22.856236,-23.226433,-26.454548,-30.279222,-32.851387,-33.556705,-32.933414,-31.909273,-31.017904,-30.180803,-29.13533,-28.046234,-27.682226,-28.899363,-31.781702,-35.167213,-37.101391,-36.092449,-32.357738,-28.08338,-26.273895,-28.734634,-34.457977,-39.61726,-39.455425,-31.118568,-15.731541,1.705188,14.791553,19.313101,15.89191,10.082733,9.7136164,20.854988,44.606354,76.434029,108.35757,132.72194,145.51018,147.55322,143.26839,137.91426,135.00697,135.2074,136.97005,138.21889,137.87527,136.37762,135.09557,135.22537,136.95998,139.41286,141.22482,141.37679,139.69507,136.81975,133.76817,131.42535,130.24071,130.20496,130.99661,132.14296,133.12215,133.43872,132.73256,130.91995,128.28479,125.42417,123.03259,121.62186,121.3311,121.92981,122.99304,124.1218,125.07104,125.73551,126.05684,125.96432,125.41125,124.46457,123.34014,122.30875,121.50974,120.80953,119.84081,118.24139,115.95515,113.38242,111.24157,110.19213,110.44383,111.60931,112.91307,113.6363,113.51418,112.82673,112.12745,111.80174,111.7663,111.52608,110.5538,108.72332,106.4758,104.57436,103.59338,103.49356,103.60325,103.06374,101.4687,99.256714,97.532867,97.347771,98.836258,100.77026,100.89162,96.951263,87.942513,74.847977,60.436436,48.14632,40.593933,38.463333,40.336304,43.513439,45.34407,44.326752,40.407692,34.394405,26.929499,17.724577,5.5835142,-10.755375,-31.461531,-54.883678,-77.787392,-96.542992,-108.67124,-113.90012,-114.12368,-112.26278,-110.65966,-109.91721,-108.84324,-105.51433,-98.810165,-89.483124,-80.09623,-73.831894,-72.846886,-77.123177,-84.476501,-91.709457,-96.23983,-97.28611,-95.986946,-94.475014,-94.520859,-96.558418,-99.608109,-102.03733,-102.6103,-101.16757,-98.575249,-96.070999,-94.487434,-93.845352,-93.509819,-92.718422,-91.082123,-88.740837,-86.138023,-83.644096,-81.324593,-78.993759,-76.455414,-73.699898,-70.890564,-68.172188,-65.49588,-62.645233,-59.468204,-56.114117,-53.021496,-50.568226,-48.577805,-46.062374,-41.508987,-33.689514,-22.595377,-9.9267559,1.2516139,7.6230021,6.9789972,-0.86289287,-14.04536,-29.527203,-44.31731,-56.444828,-65.252747,-71.03978,-74.433655,-75.944534,-75.914818,-74.746094,-73.089149,-71.753822,-71.35701,-71.968704,-73.051064,-73.786018,-73.601357,-72.546547,-71.258942,-70.539345,-70.826035,-71.925476,-73.176682,-73.922966,-73.954773,-73.61702,-73.520004,-74.075577,-75.199036,-76.38826,-77.112259,-77.214455,-77.026558,-77.103142,-77.769844,-78.822121,-79.610527,-79.471519,-78.207809,-76.27475,-74.527138,-73.687599,-73.895432,-74.641319,-75.124115,-74.770401,-73.547523,-71.856613,-70.104683,-68.298615,-65.998016,-62.703575,-58.422691,-53.98793,-50.837955,-50.329041,-52.984955,-58.173771,-64.447983,-70.357224,-75.224464,-79.38974,-83.771683,-89.052002,-95.045105,-100.69519,-104.72031,-106.4779,-106.46183,-106.07381,-106.79136,-109.26158,-112.90843,-116.3106,-118.10487,-117.83082,-116.17959,-114.50533,-113.93439,-114.6481,-115.77206,-115.89086,-113.81314,-109.09715,-102.0677,-93.429703,-83.837639,-73.742996,-63.567356,-53.962208,-45.845665,-40.099918,-37.115578,-36.532269,-37.409622,-38.74564,-39.984032,-41.141285,-42.464939,-43.904537,-44.847797,-44.39603,-42.034008,-38.201077,-34.271317,-31.839529,-31.725632,-33.376331,-35.132793,-35.260582,-33.091084,-29.502197,-26.385023,-25.432714,-27.067425,-30.238327,-33.217339,-34.809216,-35.091564,-35.141949,-35.966255,-37.46833,-38.31921,-36.940601,-32.947968,-27.938999,-24.848089,-26.051373,-31.363482,-37.330288,-38.536221,-30.394264,-11.86802,13.521444,39.110737,58.218601,67.249779,67.070953,61.993919,57.104179,55.569679,57.432693,60.372353,61.708836,60.266426,56.972843,53.997513,53.173611,54.812679,57.637974,59.760036,59.957024,58.410015,56.486565,55.8116,57.274963,60.573219,64.472649,67.528412,68.78981,68.138077,66.191574,63.948223,62.386669,62.155567,63.376884,65.571487,67.759621,68.793076,67.868546,65.003029,61.167603,57.897633,56.501156,57.287975,59.311642,60.85762,60.452553,57.803253,54.063419,51.212425,50.887074,53.374691,57.401688,60.867188,62.079063,60.732067,58.030849,55.899223,55.783321,57.789467,60.660854,62.557739,62.119644,59.157692,54.609123,49.872849,46.008682,43.302559,41.397858,39.798927,38.336967,37.275467,37.031105,37.768044,39.193493,40.708385,41.793121,42.338341,42.68235,43.339794,44.630516,46.478672,48.51202,50.359543,51.896576,53.229912,54.418571,55.138573,54.565491,51.614685,45.437283,35.887432,23.679834,10.143263,-3.2813313,-15.511735,-26.028637,-34.769489,-41.861992,-47.413177,-51.477627,-54.162342,-55.716862,-56.484631,-56.726669,-56.457855,-55.451923,-53.452843,-50.463226,-46.894344,-43.432625,-40.666927,-38.698978,-36.996632,-34.608562,-30.628349,-24.63158,-16.825296,-7.8384743,1.6831338,11.393064,21.263006,31.315186,41.289532,50.519753,58.150158,63.582355,66.865051,68.753624,70.365517,72.613792,75.748756,79.279831,82.32489,84.182541,84.797401,84.857933,85.47773,87.635231,91.658188,96.994652,102.35653,106.1522,107.02173,104.27839,98.119606,89.556808,80.096008,71.27002,64.170876,59.143551,55.75737,53.069897,50.07254,46.121937,41.168861,35.702862,30.477791,26.184685,23.233122,21.701944,21.40007,21.926449,22.670721,22.805086,21.387325,17.650311,11.407696,3.3575916,-4.9608521,-11.654687,-15.247199,-15.359402,-12.918623,-9.73209,-7.6091652,-7.483079,-9.0025892,-10.811555,-11.350259,-9.7233753,-6.1553683,-1.8067336,1.9025233,4.0464358,4.5963974,4.2857246,4.0758586,4.5805769,5.7858596,7.1832304,8.1678953,8.4120092,7.9839931,7.1868563,6.283504,5.3334522,4.2555299,3.0437427,1.9386399,1.3846896,1.7657441,3.0887239,4.850512,6.220933,6.4688044,5.3854098,3.4407632,1.5622237,0.6573019,1.1630343,2.888325,5.2315712,7.6218524,9.8971338,12.382457,15.629319,19.995008,25.337805,31.022991,36.233788,40.392807,43.442791,45.836979,48.27544,51.367828,55.418686,60.421921,66.203011,72.565445,79.330788,86.27343,93.049278,99.227211,104.44523,108.59893,111.91743,114.8379,117.72179,120.57217,122.9312,124.03832,123.17705,120.02603,114.83038,108.31653,101.4179,94.969986,89.524361,85.339531,82.497307,81.033577,80.986099,82.328941,84.836525,87.963654,90.8283,92.349228,91.533447,87.8396,81.481506,73.512512,65.580467,59.375591,55.964256,55.317272,56.308414,57.252064,56.755161,54.443363,51.138462,48.341324,47.277164,48.048393,49.420021,49.41486,46.412071,40.118031,31.827007,23.799112,18.110516,15.647375,15.816801,17.093987,18.002729,17.871622,16.884041,15.430659,13.256322,9.0509968,0.85965514,-12.847543,-32.055634,-54.728523,-77.326515,-96.111122,-108.59227,-114.40409,-115.21577,-113.79037,-112.70554,-113.34843,-115.58242,-118.11719,-119.30117,-117.93422,-113.7729,-107.58749,-100.81953,-95.016869,-91.273087,-89.877945,-90.305107,-91.533211,-92.552719,-92.816467,-92.410027,-91.862648,-91.723991,-92.17498,-92.922401,-93.442375,-93.399681,-92.938499,-92.617668,-93.010086,-94.237976,-95.78997,-96.793312,-96.59771,-95.283607,-93.719109,-93.071106,-94.051468,-96.390518,-98.916901,-100.2397,-99.621429,-97.477081,-95.153275,-94.103355,-94.977501,-97.217705,-99.428192,-100.28461,-99.387039,-97.494011,-95.983337,-95.901649,-97.242683,-98.945389,-99.621506,-98.529617,-96.138847,-93.891449,-93.304108,-94.990524,-98.246002,-101.4683,-103.14094,-102.73988,-100.98296,-99.282326,-98.786324,-99.659271,-101.07108,-101.87913,-101.51159,-100.42511,-99.802589,-100.68269,-103.11916,-105.97703,-107.56886,-106.77216,-103.91335,-100.79147,-99.707306,-101.96713,-106.6845,-110.59364,-109.07467,-97.962303,-75.30864,-42.2981,-2.9327137,37.320488,73.289787,101.52733,120.89568,132.22299,137.3385,138.01093,135.27101,129.35561,120.19008,108.07154,94.133934,80.299927,68.695854,60.799316,56.756668,55.255989,54.079117,51.109138,45.31839,37.248459,28.738514,22.036791,18.74168,19.092741,21.933424,25.310186,27.358604,27.02099,24.282902,19.904686,14.884695,9.9836121,5.537046,1.5738856,-1.9216985,-4.8168721,-6.8305464,-7.7031732,-7.4000154,-6.2005196,-4.6082888,-3.1297455,-2.0455732,-1.2985854,-0.55510885,0.59459817,2.3986754,4.7856297,7.3622336,9.5695524,10.923759,11.225771,10.634946,9.5667791,8.4648438,7.5676765,6.7999825,5.8521976,4.404058,2.3587079,-0.058602922,-2.404397,-4.2643614,-5.4901037,-6.2721705,-6.9984803,-7.9887576,-9.2830029,-10.63329,-11.715746,-12.426856,-13.057659,-14.203529,-16.432137,-19.895023,-24.122837,-28.150768,-30.931637,-31.824181,-30.895712,-28.880428,-26.823942,-25.609568,-25.610653,-26.627871,-28.1105,-29.52063,-30.649376,-31.744398,-33.413494,-36.366962,-41.111187,-47.704437,-55.654121,-63.993359,-71.528122,-77.192589,-80.3965,-81.223145,-80.371147,-78.836922,-77.467255,-76.600357,-75.991341,-75.075188,-73.425705,-71.137001,-68.878021,-67.554482,-67.756912,-69.328926,-71.346161,-72.563896,-72.100739,-69.95845,-67.049408,-64.68663,-63.819942,-64.472977,-65.73101,-66.302826,-65.324104,-62.909031,-60.098095,-58.216042,-58.022301,-59.177704,-60.370853,-60.050892,-57.341572,-52.593582,-47.243004,-43.054211,-41.187397,-41.624771,-43.265934,-44.604492,-44.569786,-43.051525,-40.844891,-39.109455,-38.70277,-39.777367,-41.823807,-44.054184,-45.836376,-46.911926,-47.318562,-47.147156,-46.351582,-44.751476,-42.199608,-38.757435,-34.728931,-30.528179,-26.498772,-22.844429,-19.73415,-17.479046,-16.574772,-17.457317,-20.019552,-23.155231,-24.679926,-21.838772,-12.30313,4.748939,27.993376,54.129864,78.861382,98.295639,110.17621,114.43625,112.89386,108.30028,103.21513,99.198051,96.593536,94.874718,93.265663,91.288635,88.991447,86.816666,85.262444,84.563408,84.569107,84.86174,85.016418,84.837387,84.432037,84.088326,84.039314,84.265907,84.467331,84.228874,83.293663,81.7714,80.140724,79.017441,78.805283,79.432098,80.342911,80.779327,80.201897,78.613098,76.58297,74.948227,74.352768,74.897728,76.107346,77.224396,77.647171,77.237106,76.318787,75.399849,74.821259,74.583183,74.454468,74.260948,74.11161,74.364853,75.335876,76.959839,78.691811,79.779243,79.77121,78.92205,78.166306,78.602669,80.766693,84.161346,87.398239,88.930405,87.95993,84.951134,81.394997,78.93602,78.391441,79.28418,80.196915,79.728699,77.439476,74.167931,71.514297,70.826134,72.350075,75.096565,77.48584,78.326294,77.471466,75.745956,74.247337,73.557724,73.434761,73.177284,72.35041,71.282669,70.920227,72.11895,74.908371,78.323158,80.995911,82.116669,82.028099,81.922859,82.74749,84.057442,83.731232,78.956207,68.029259,51.853813,34.055374,19.428633,11.502831,10.665439,14.046369,17.329563,17.453457,14.56067,11.970521,14.146885,23.873911,40.353069,59.376076,75.463104,84.677765,86.468048,83.534691,79.953087,78.790047,80.649628,83.88784,86.150162,86.113426,84.311005,82.617012,82.856567,85.510963,89.322716,91.955177,91.19796,85.958702,76.547729,64.291656,50.910458,38.108818,27.518902,20.774084,19.37792,24.238253,35.083828,50.18634,66.697731,81.547699,92.481316,98.708817,100.86301,100.36325,98.600357,96.392845,93.927246,91.070221,87.748306,84.136108,80.599159,77.528709,75.240425,73.988335,73.991486,75.329659,77.679375,80.044647,80.731606,77.723572,69.372551,55.090508,35.66737,13.018767,-10.521774,-32.997139,-53.301304,-71.132698,-86.541801,-99.421753,-109.2996,-115.57005,-118.01321,-117.23772,-114.71561,-112.30943,-111.5004,-112.72701,-115.21616,-117.43963,-117.9868,-116.39693,-113.48367,-110.93295,-110.34656,-112.2291,-115.4935,-117.82037,-116.75816,-111.02695,-101.32967,-90.195206,-80.878174,-75.857933,-75.71756,-78.993141,-83.056664,-85.526413,-85.416359,-83.408829,-81.161476,-80.126122,-80.623016,-81.722542,-81.962273,-80.400993,-77.311218,-74.059181,-72.253326,-72.716331,-74.949417,-77.440292,-78.622284,-77.8722,-75.905212,-74.306152,-74.484062,-76.704941,-79.814751,-81.840073,-81.114998,-77.263069,-71.455017,-65.801376,-62.248043,-61.615429,-63.304688,-65.77906,-67.478653,-67.613556,-66.410439,-64.755081,-63.534863,-63.122456,-63.293564,-63.558945,-63.627571,-63.6656,-64.18718,-65.675346,-68.2043,-71.313606,-74.202515,-76.105003,-76.612823,-75.782227,-74.021088,-71.882248,-69.899727,-68.511429,-68.012016,-68.466087,-69.601219,-70.805405,-71.360664,-70.902519,-69.884216,-69.704803,-72.26577,-79.040108,-90.092308,-103.63548,-116.50613,-125.45148,-128.62971,-126.53268,-121.80194,-117.9973,-117.9535,-122.57927,-130.68129,-139.80321,-147.5209,-152.45558,-154.53656,-154.55603,-153.46387,-151.90089,-150.17877,-148.53094,-147.27702,-146.68576,-146.65508,-146.56279,-145.56447,-143.25304,-140.21751,-137.96436,-138.01308,-140.56303,-143.55083,-142.84805,-133.75763,-113.18408,-81.367943,-42.217793,-1.9953083,33.011219,58.671738,74.047249,80.950417,82.512634,81.666641,80.303116,79.296112,79.022835,79.793365,81.838097,84.951385,88.206306,90.114738,89.261009,85.057564,78.141136,70.139374,62.936192,57.868233,55.295002,54.714775,55.252159,56.157753,57.037094,57.771969,58.313911,58.566555,58.435696,57.951077,57.302769,56.728325,56.340652,56.057415,55.71262,55.265472,54.918007,55.011723,55.760162,57.035065,58.411476,59.477661,60.177193,60.876221,62.032177,63.66946,65.089386,65.148308,63.042824,59.104618,54.968246,52.799751,53.902164,57.534073,60.793991,59.849537,51.945347,37.051247,18.123423,-0.26907316,-14.215796,-22.33379,-26.167015,-28.948175,-33.549572,-40.90419,-49.808208,-58.079819,-64.173958,-68.113823,-71.137558,-74.386345,-77.637787,-79.053734,-76.199234,-67.692581,-54.382248,-39.229977,-25.915068,-17.000351,-12.768636,-11.389105,-10.223252,-7.3980813,-2.6892262,2.7190838,7.2839732,10.186079,11.756927,13.090069,15.233521,18.573214,22.780968,27.241112,31.543652,35.661602,39.747787,43.814198,47.628883,50.939789,53.813007,56.735973,60.311459,64.725578,69.418747,73.298225,75.438034,75.799271,75.402267,75.711662,77.55722,80.308884,81.942314,80.080673,73.431091,62.709824,50.417969,39.54071,31.938093,27.409552,23.996983,19.311872,12.040812,2.7081358,-6.7148218,-14.021947,-17.994102,-18.894411,-18.040583,-16.865166,-16.139317,-15.8154,-15.443655,-14.721841,-13.71975,-12.65562,-11.500673,-9.8285322,-7.1032796,-3.1993546,1.2993723,5.3496227,8.1555605,