Bandpass,0,0.11602,-57.94968,480.78763,726.73462,644.07031,349.67773,64.696022,-24.093349,115.98817,353.11771,496.04645,435.44415,218.49928,6.2409105,-49.768429,82.078278,295.54709,430.00143,389.71985,210.52596,27.601332,-27.544462,77.364182,256.5567,374.32458,346.39166,199.08456,45.051399,-2.9842868,85.28717,239.06578,342.37341,320.5571,192.98889,55.074512,5.7738967,75.707748,207.94128,302.83752,291.35547,182.34232,51.057465,-19.423986,1.3655435,73.202675,120.25443,90.57132,-5.276422,-104.12724,-139.2744,-90.641464,1.2110041,66.378937,57.562149,-16.294405,-98.736946,-128.98637,-86.680786,-5.3901753,53.788128,47.741203,-17.979418,-95.072083,-129.20427,-99.556236,-32.335361,20.417444,19.788635,-32.38657,-96.792625,-126.98856,-103.52008,-46.81002,-0.46211833,1.4526509,-41.464397,-97.541313,-127.94274,-115.53725,-76.389946,-46.250023,-53.072186,-96.367355,-148.28107,-174.75035,-160.4606,-119.22661,-82.839447,-77.420212,-105.01593,-143.54475,-164.22922,-152.9718,-119.92386,-90.891312,-87.789902,-112.98279,-148.70885,-171.14142,-167.86879,-145.64073,-123.12469,-114.88801,-119.2048,-119.01555,-95.197678,-42.01379,26.932673,86.745064,117.44342,116.64043,99.794113,88.318474,94.501228,114.07371,131.2753,132.00473,114.98454,92.749321,82.036041,90.936531,112.32552,128.26137,122.02711,89.152534,39.83749,-8.3935719,-42.094711,-59.236164,-67.866745,-78.032722,-93.538368,-109.65066,-117.92194,-113.84456,-101.14527,-89.41291,-87.033798,-95.000633,-106.39961,-111.96334,-107.42984,-97.085106,-90.765099,-96.52459,-114.43561,-136.15161,-150.61354,-151.75285,-142.58174,-132.68932,-130.93068,-138.53679,-147.54762,-145.68687,-124.31198,-84.053368,-34.514179,11.451551,44.816719,64.203041,74.454285,81.697479,88.786911,94.242226,94.888275,89.650642,81.341133,75.066582,74.605469,79.638512,85.998466,88.765121,85.887344,79.654762,74.968613,75.711433,81.846832,89.275749,92.459648,87.907669,76.163483,61.139366,47.539764,38.296635,33.642933,32.056545,31.955418,32.70808,34.352573,36.610149,38.34008,38.092903,35.350132,31.323454,28.454367,28.809814,32.548332,37.701324,41.555771,42.656437,41.878616,41.662601,43.918369,48.231129,51.912537,52.121208,48.644611,45.221432,48.106926,62.454929,88.721855,121.50406,151.77863,171.35539,176.91263,171.24803,161.14777,153.36545,151.23505,153.80688,157.61902,159.55678,158.79274,156.72456,155.36246,155.63573,156.92813,158.04948,158.69868,160.13083,164.41231,172.77473,184.29651,195.9295,203.93253,205.79504,201.43083,192.96819,183.41731,175.16418,169.1915,165.28937,162.81662,161.32141,160.63182,160.56264,160.68741,160.47873,159.70145,158.65414,157.9599,158.01927,158.58598,158.88129,158.22836,156.71381,155.28511,155.10237,156.58603,158.93431,160.60913,160.55722,159.28566,158.87727,161.71275,168.6165,177.67151,184.6284,184.83487,175.60602,157.64537,134.72597,111.93211,93.583672,81.978638,77.359016,78.630074,84.007439,91.149689,97.064911,98.485771,93.07917,81.009094,65.707947,52.880135,47.812256,52.332798,63.310036,73.875061,76.937546,69.056137,52.366978,33.381756,19.367399,14.491232,17.992086,25.29137,31.096182,32.402679,29.588509,25.211525,21.673363,19.51181,17.421417,13.736514,8.070734,1.8136874,-2.8409214,-4.5076308,-3.5771182,-1.8120861,-0.9496097,-1.471005,-2.5493536,-3.2182555,-3.7781012,-6.184495,-12.897757,-24.888922,-40.275379,-54.764458,-63.861584,-65.499641,-61.321476,-55.65955,-52.789375,-54.235504,-57.925285,-59.771832,-56.634537,-48.668129,-39.475529,-33.953823,-35.264107,-42.921631,-53.224735,-61.666748,-65.681564,-65.92231,-65.329491,-66.75798,-70.862984,-75.686928,-78.159821,-76.397469,-71.161636,-65.461693,-62.574707,-63.840305,-67.726089,-70.794495,-69.939194,-64.446136,-56.582016,-50.381844,-49.431324,-54.999222,-65.561172,-77.841782,-88.609161,-96.130219,-100.55862,-103.26181,-105.6908,-108.52232,-111.47336,-113.70649,-114.44356,-113.42092,-111.04047,-108.27508,-106.4352,-106.83276,-110.33543,-116.88723,-125.22607,-133.08586,-137.99727,-138.44322,-134.80507,-129.51123,-126.15725,-127.93335,-136.12762,-149.48343,-164.74533,-178.08998,-186.68994,-189.65691,-188.02577,-183.9828,-179.87227,-177.4735,-177.72728,-180.77455,-186.07243,-192.49294,-198.50789,-202.60745,-203.9192,-202.73334,-200.53857,-199.37753,-200.75166,-204.66431,-209.40813,-212.31471,-211.10898,-205.11598,-195.62634,-185.21927,-176.46342,-170.76837,-168.0226,-167.12553,-166.95381,-167.06435,-167.67021,-168.96004,-170.30289,-169.9812,-165.75967,-156.05147,-141.02974,-123.00777,-105.78444,-93.202347,-87.582024,-88.762405,-94.180565,-99.932724,-102.32264,-99.216949,-90.656067,-78.531982,-65.569496,-54.141682,-45.482235,-39.61158,-35.890785,-33.767971,-33.18755,-34.36718,-37.090569,-40.04866,-40.820103,-36.729935,-26.242937,-10.100886,8.5737295,25.453089,36.937748,41.804878,41.613331,39.605499,38.749889,40.112476,42.555286,43.928085,42.954296,40.540527,39.583374,43.310303,53.16272,67.576584,82.497475,93.397278,97.615952,95.637405,90.563988,86.163612,84.725212,86.031525,88.011932,88.556847,87.251274,85.867256,87.278572,93.489861,104.05754,115.95526,125.05049,128.36369,125.78696,120.24149,116.16056,117.15137,124.14418,135.02994,145.91803,153.23555,155.46606,153.61084,150.25185,147.90808,147.72311,149.21361,151.06485,152.26642,152.6902,152.65242,151.7877,148.16789,138.57765,120.163,92.694183,60.061649,29.820112,10.591184,8.3965931,23.7607,51.179634,81.369408,105.22554,117.50469,118.42158,112.53536,105.77905,102.39574,103.3872,107.01981,110.67591,112.66782,112.90258,112.22925,111.22742,109.48573,105.92716,99.873688,91.956291,84.089012,78.440521,76.112694,76.491241,77.765205,78.252472,77.544113,76.567909,76.439064,76.887169,75.457649,68.25621,51.987537,26.111866,-6.2520947,-39.346428,-67.219688,-86.229797,-96.21904,-99.819366,-100.4902,-100.59474,-100.65404,-100.03795,-98.376297,-96.553833,-96.535927,-100.15577,-107.74825,-117.62994,-126.84057,-132.70287,-134.21429,-132.41365,-129.55362,-127.67667,-127.52354,-128.41103,-129.03284,-128.54472,-127.17842,-126.02458,-126.22204,-128.168,-131.28532,-134.44611,-136.69084,-137.72226,-137.87357,-137.66029,-137.30881,-136.62105,-135.23457,-133.01979,-130.26395,-127.48549,-125.03788,-122.84738,-120.53283,-117.84883,-115.1082,-113.20309,-113.10056,-115.06868,-118.12579,-120.12422,-118.52049,-111.47443,-98.717354,-81.752892,-63.314289,-46.37397,-33.177177,-24.687134,-20.576147,-19.642748,-20.401468,-21.602892,-22.535608,-23.067844,-23.468781,-24.110081,-25.185884,-26.583542,-27.961533,-28.964613,-29.403933,-29.244646,-28.396204,-26.500425,-22.992172,-17.555517,-10.767137,-4.4376397,-1.1871511,-3.210089,-10.788688,-21.497387,-30.852669,-34.393921,-30.236237,-20.625221,-11.370791,-9.1533871,-17.97348,-36.665215,-58.950993,-76.161507,-81.254936,-72.024803,-51.849594,-27.72439,-6.7985244,6.663393,12.427506,13.315334,13.08635,14.607142,19.23588,27.348757,39.162483,54.967979,74.537102,96.260841,116.91252,132.54468,140.20253,139.46854,132.83363,124.56102,118.63032,116.91835,118.6193,121.14507,121.87454,119.68128,115.40028,111.09993,108.73359,109.03206,111.2449,113.76492,115.15873,114.96417,113.83748,113.05075,113.68742,115.99261,119.2011,121.90087,122.74186,121.15656,117.75777,114.20515,112.55014,114.31087,119.6931,127.36176,134.94102,140.05963,141.4453,139.49995,136.03203,133.2709,132.69167,134.2917,136.70639,138.07378,137.13724,133.95845,129.85678,126.63879,125.56752,126.63699,128.52522,129.23323,127.08159,121.58372,113.78897,105.9261,100.47636,99.057091,101.61541,106.35235,110.50948,111.73344,109.37275,104.97836,101.5984,102.08638,107.25961,114.96602,120.73003,119.80074,109.58306,91.121841,68.772324,48.198765,33.800308,26.975309,26.095509,28.007397,29.982355,30.870768,30.862804,30.263149,28.35511,23.31097,13.297648,-1.9896157,-20.505215,-38.440483,-51.966236,-59.078815,-60.410954,-58.551922,-56.395138,-55.623959,-56.26144,-57.407299,-58.45192,-59.784569,-62.472252,-67.215218,-73.459457,-79.439079,-83.211243,-83.965134,-82.621437,-81.206955,-81.366539,-83.031364,-84.210815,-82.130714,-75.01368,-63.338428,-49.748108,-37.674843,-29.585417,-25.958223,-25.549782,-26.608973,-28.08905,-30.008482,-32.818954,-36.415291,-39.687901,-41.075764,-39.755623,-36.520378,-33.519218,-32.812336,-34.605137,-36.409492,-33.912281,-23.266729,-3.543277,22.158382,47.729015,66.759331,75.488785,74.385269,67.534355,60.265762,56.403286,56.644775,58.834393,59.767117,57.339355,51.78043,45.347427,40.802391,39.656536,41.211563,42.893753,41.621212,35.407768,24.353004,10.56641,-2.8419607,-13.127235,-18.954746,-20.69104,-19.924417,-18.559097,-17.968088,-18.579073,-19.997627,-21.497482,-22.561125,-23.188776,-23.864578,-25.268055,-27.937384,-32.075005,-37.564442,-44.12558,-51.464325,-59.308182,-67.326653,-75.034241,-81.794052,-86.970276,-90.16803,-91.427879,-91.256355,-90.462578,-89.873749,-90.05719,-91.158539,-92.899887,-94.715027,-95.963371,-96.158043,-95.146286,-93.18187,-90.84343,-88.802238,-87.52417,-87.058182,-87.053238,-87.03051,-86.767563,-86.538834,-87.003555,-88.743423,-91.709259,-94.958313,-96.936539,-96.229309,-92.372749,-86.219254,-79.584175,-74.34079,-71.495888,-70.809235,-71.175827,-71.485512,-71.355942,-71.233971,-71.822876,-73.299629,-74.964951,-75.66494,-74.727966,-72.69886,-71.188957,-71.72879,-74.257095,-76.284172,-73.496506,-61.728283,-39.321671,-8.5250149,24.979362,54.295979,74.162582,82.940857,82.775162,77.995628,72.794571,69.49482,68.22599,67.896454,67.599289,67.463875,68.474876,71.535248,76.538612,82.146126,86.434036,87.978912,86.675934,83.788383,81.229073,80.530533,82.095818,85.09758,87.997459,89.347824,88.463425,85.689583,82.207321,79.481895,78.542442,79.3172,80.272469,78.583313,70.93219,54.769379,29.574732,-2.4790854,-36.895901,-68.237419,-91.97242,-105.96333,-110.90995,-109.60171,-105.44397,-101.06036,-97.638237,-95.178345,-93.262215,-91.70401,-90.639008,-90.064308,-89.26046,-86.611229,-80.062592,-68.024681,-50.222454,-28.026394,-4.1033845,18.40332,36.758801,49.24514,55.380196,55.837425,52.208385,46.668083,41.51564,38.587997,38.679489,41.224018,44.468235,46.149014,44.405807,38.500774,29.013145,17.471682,5.6955862,-4.7746301,-12.924565,-18.24127,-20.656651,-20.646088,-19.422003,-18.933329,-21.395142,-28.372,-39.835594,-53.8055,-66.962997,-76.078621,-79.546936,-78.156075,-74.595787,-71.932365,-71.910187,-74.065125,-76.15509,-75.614365,-71.126358,-63.368347,-54.532413,-47.002438,-42.064919,-39.440102,-37.82793,-35.985023,-33.542957,-31.030733,-29.175642,-28.08194,-26.958042,-24.636587,-20.522034,-15.248572,-10.498156,-8.0065613,-8.3747072,-10.487454,-11.981629,-10.532019,-5.186378,3.0623927,11.801799,18.478418,21.648001,21.488903,19.379341,16.924555,15.100567,14.002353,13.213093,12.394433,11.616106,11.215511,11.373484,11.806712,11.863273,10.969247,9.0822496,6.7878661,4.9411659,4.1036153,4.1879454,4.5752139,4.6171041,4.1467986,3.6122828,3.7279396,4.9049087,6.8942876,8.925128,10.249058,10.689457,10.774327,11.332239,12.835843,14.986372,16.879953,17.677666,17.312809,16.698023,17.211252,19.737654,23.881655,27.898716,29.459852,26.837784,19.834755,9.9297438,-0.40695727,-8.8118515,-13.938225,-15.768275,-15.313554,-14.009589,-13.165497,-13.643177,-15.707989,-18.913427,-22.003073,-22.99641,-19.666735,-10.423106,4.7211843,23.628889,42.403683,56.655663,63.170368,61.196724,52.707668,41.494686,31.546839,25.502953,23.873047,25.284754,27.491083,28.561964,27.699877,25.395464,22.976324,21.828934,22.630409,24.864822,26.795174,25.949205,20.034355,8.0140638,-9.0858936,-28.093349,-44.559658,-54.384232,-55.548317,-49.121773,-38.94677,-30.013588,-26.227634,-28.638626,-35.022861,-41.041531,-42.391693,-36.863808,-25.296066,-11.021082,1.8116826,10.118064,13.033368,11.880373,9.1512699,7.1699796,7.1474833,9.0029001,11.843949,14.673015,16.869688,18.250322,18.821609,18.520912,17.18078,14.739244,11.506249,8.2367353,5.8867097,5.1502852,6.043438,7.8029857,9.2021637,9.1460323,7.2419176,4.0394697,0.80261105,-1.0814352,-0.76406002,1.6583183,5.1880012,8.3900881,10.04463,9.6730967,7.6981311,5.1800237,3.277081,2.7027814,3.4451504,4.8794279,6.2084107,6.9980073,7.5178733,8.6822062,11.580922,16.810799,23.949917,31.488352,37.326431,39.662548,37.858585,32.828793,26.698076,21.840874,19.75835,20.381912,22.205591,23.219942,22.168272,19.430695,17.006878,17.548044,22.92589,33.112572,46.003262,58.306175,67.037643,70.827858,70.361198,67.770866,65.387589,64.565926,65.202477,66.105026,65.865837,63.645119,59.414192,53.619827,46.623119,38.381889,28.623011,17.36179,5.3476257,-5.9554782,-14.928214,-20.584618,-23.092543,-23.672367,-23.904039,-24.844654,-26.476542,-27.796738,-27.464247,-24.597733,-19.262096,-12.412067,-5.4054265,0.57065845,4.8340602,7.1967931,7.7520046,6.7016726,4.3683257,1.3311076,-1.5099939,-3.1011369,-2.6104193,0.19475546,4.8170037,10.253017,15.452817,19.744448,22.986097,25.400202,27.255283,28.642883,29.494766,29.784235,29.708607,29.669537,30.036863,30.868668,31.816732,32.321693,31.983212,30.841795,29.351082,28.033863,27.0541,26.022818,24.21467,21.089146,16.781181,12.214415,8.7187986,7.3552794,8.3512173,10.992223,14.035278,16.386683,17.634998,18.137369,18.647814,19.754292,21.483135,23.291431,24.409174,24.287798,22.882481,20.635164,18.220009,16.231348,14.97908,14.450446,14.39468,14.454253,14.297498,13.743586,12.864846,12.012532,11.700296,12.341325,13.952246,16.01943,17.680447,18.191835,17.436527,16.128214,15.499011,16.566526,19.381031,22.739172,24.625023,23.212343,17.89278,9.7284689,1.0306361,-5.7326727,-9.1011152,-9.2191458,-7.5659075,-6.027276,-5.8821697,-7.2769299,-9.4211807,-11.288541,-12.331665,-12.777201,-13.382859,-14.888092,-17.545034,-21.004107,-24.558428,-27.5259,-29.510487,-30.429939,-30.389484,-29.569578,-28.22682,-26.758585,-25.69101,-25.500711,-26.335632,-27.830149,-29.195484,-29.598509,-28.632524,-26.588831,-24.339073,-22.87858,-22.799192,-24.006598,-25.838123,-27.481709,-28.417809,-28.619146,-28.426458,-28.235691,-28.232243,-28.335428,-28.34137,-28.11463,-27.674189,-27.13563,-26.601059,-26.121971,-25.773249,-25.750025,-26.350008,-27.78775,-29.944733,-32.258911,-33.900082,-34.182774,-32.974022,-30.813826,-28.63463,-27.238081,-26.869026,-27.174328,-27.569088,-27.738173,-27.894619,-28.589525,-30.206041,-32.526886,-34.738735,-35.927216,-35.737671,-34.712101,-34.005974,-34.624504,-36.690342,-39.279331,-40.990894,-40.895824,-39.201164,-37.130039,-36.053673,-36.467815,-37.570366,-37.817986,-36.145622,-33.000755,-30.373066,-30.624407,-34.75843,-41.251556,-46.332615,-45.745415,-37.076649,-21.297699,-2.5597203,13.717052,23.416851,25.539024,22.289541,17.519091,14.512079,14.422754,16.159243,17.585878,17.146555,14.86375,12.173445,10.841839,11.757111,14.381204,17.144917,18.445223,17.564789,14.962317,11.841043,9.3589773,8.0097198,7.5125489,7.1795321,6.43962,5.166625,3.6547375,2.3420246,1.5184031,1.2054347,1.234102,1.4094149,1.6272482,1.886552,2.2341146,2.7113273,3.3340902,4.0825572,4.8688259,5.495502,5.6667008,5.1024847,3.7288623,1.8253416,-0.0036441081,-1.0730027,-0.96376526,0.2397887,1.9924734,3.606431,4.6496987,5.1602845,5.525722,6.1092863,6.8903942,7.3904252,6.9616852,5.2556863,2.5429876,-0.3598783,-2.5384295,-3.5222416,-3.561661,-3.4472358,-3.9827847,-5.454843,-7.4428387,-9.084877,-9.6125793,-8.8004208,-7.0507917,-5.0937619,-3.5362802,-2.5735724,-2.0326846,-1.6690301,-1.4637794,-1.6925708,-2.7242711,-4.7153597,-7.4359217,-10.35311,-12.899681,-14.724219,-15.754003,-16.065756,-15.717909,-14.718182,-13.165801,-11.42725,-10.135533,-9.9181643,-10.986167,-12.877897,-14.603477,-15.180345,-14.256244,-12.400819,-10.821894,-10.633649,-12.125709,-14.520847,-16.413984,-16.637276,-14.996413,-12.386148,-10.193493,-9.3738995,-9.8165321,-10.432878,-9.9213257,-7.6990566,-4.3675079,-1.3808069,-0.1208929,-0.98926127,-3.1261985,-4.9563603,-5.2081637,-3.733125,-1.5794423,-0.26890764,-0.7588253,-2.7839119,-5.022768,-5.9848304,-5.0302362,-2.8394008,-1.005437,-0.99811387,-3.1645668,-6.4178419,-8.8289242,-8.7641287,-5.8659306,-1.2778177,3.0115917,5.2897162,5.0262055,3.0473318,0.93278044,0.057473354,0.87649333,2.844048,4.9265342,6.3061137,6.8015852,6.7789564,6.6959114,6.663497,6.3594289,5.3423576,3.5070965,1.3107313,-0.43408141,-1.0798005,-0.61388981,0.27486259,0.61598402,-0.19975486,-1.992403,-3.8911557,-4.9156666,-4.6547055,-3.5680649,-2.6788795,-2.842,-4.0858727,-5.5050583,-5.8227644,-4.2769322,-1.2276974,1.969924,3.8109596,3.6883564,2.4459128,2.0129428,4.2734118,9.8333054,17.456753,24.559072,28.504002,27.958969,23.528606,17.333065,11.833284,8.626461,7.8869762,8.6693134,9.7422428,10.347283,10.426863,10.303286,10.1807,9.9137583,9.2119923,8.0588293,6.928978,6.5445466,7.2999468,8.8026743,9.9568367,9.6424875,7.5756025,4.7258592,2.9105103,3.739419,7.5782347,13.257456,18.800234,22.7516,25.234291,27.9704,33.154282,41.833084,52.830273,62.961964,68.506844,67.101128,58.951332,46.67239,33.897022,23.522995,16.615597,12.494389,9.755084,7.4295392,5.5083742,4.5830593,5.0091958,6.3017144,7.2527728,6.7005253,4.384376,1.2489395,-1.0575429,-1.1832544,1.0785303,4.6382394,7.7382894,8.9452467,7.8908815,5.3537669,2.7165518,1.201039,1.3466364,2.9593041,5.423243,8.0774565,10.416101,12.083588,12.810182,12.439008,11.05269,9.063797,7.1236634,5.8444519,5.4977961,5.9023981,6.5878453,7.1178012,7.3356256,7.362648,7.3825593,7.4204254,7.3221326,6.9547777,6.431376,6.1063542,6.2635159,6.7048783,6.6120067,4.925241,1.118193,-4.1112595,-8.7738504,-10.355392,-7.0892119,0.97848862,11.792153,22.132681,29.057316,31.135618,28.835526,23.956059,18.568277,14.140165,11.275302,10.003124,10.197455,11.718249,14.21608,16.903841,18.671701,18.63096,16.753458,14.08457,12.241626,12.427699,14.606455,17.452049,19.182486,18.745628,16.528711,14.0574,12.864286,13.333985,14.397521,14.364477,12.339309,9.1785975,7.197825,8.6976728,14.260785,22.02853,28.573626,30.909624,28.358124,23.0201,18.490206,17.623579,20.81279,25.899323,29.743525,30.359179,28.153479,25.455385,24.717501,26.701406,29.953911,31.951658,31.084023,28.011543,25.338339,25.711212,29.600636,34.33128,35.171589,27.95149,11.641272,-10.714835,-33.328529,-50.500347,-59.308537,-60.652691,-58.195885,-55.999245,-56.319439,-58.778301,-61.164307,-61.141472,-57.72411,-51.705532,-44.991394,-39.446945,-36.028526,-34.625732,-34.50626,-34.917042,-35.430367,-35.924606,-36.381008,-36.751419,-37.000149,-37.21756,-37.630367,-38.44339,-39.628006,-40.853104,-41.658352,-41.771183,-41.335468,-40.86607,-40.9417,-41.844967,-43.400162,-45.112175,-46.489037,-47.30619,-47.635437,-47.657459,-47.444134,-46.903072,-45.921432,-44.563156,-43.118221,-41.92738,-41.109493,-40.429554,-39.457172,-37.93359,-36.070583,-34.515537,-33.949142,-34.573574,-35.873154,-36.870327,-36.750935,-35.443249,-33.728157,-32.761772,-33.303341,-35.168179,-37.29324,-38.393261,-37.780243,-35.804977,-33.637512,-32.550026,-33.186295,-35.275555,-37.912266,-40.13332,-41.366486,-41.495018,-40.625732,-38.875488,-36.41972,-33.743191,-31.767279,-31.555094,-33.638546,-37.414886,-41.17231,-42.956711,-41.867565,-38.914455,-36.672066,-37.676346,-42.399349,-48.113506,-49.605675,-41.647709,-21.989601,6.8461413,38.14793,63.845997,78.15239,80.066299,73.423492,64.554024,58.929893,58.659458,62.074635,65.381676,65.200844,60.465763,52.720333,44.903206,39.564049,37.626839,38.299095,39.938362,41.157253,41.459587,41.150799,40.784809,40.646259,40.616611,40.413616,39.916004,39.276917,38.751423,38.415108,38.033077,37.205505,35.687302,33.638626,31.610483,30.260021,29.976101,30.648893,31.713623,32.426708,32.210579,30.896088,28.773977,26.466013,24.684948,23.96615,24.451775,25.807947,27.337143,28.281088,28.200541,27.23151,26.037811,25.435207,25.877747,27.124311,28.327486,28.525225,27.232555,24.733753,21.862261,19.419382,17.668344,16.318712,15.066347,14.302677,15.390766,20.125931,29.55551,42.860828,57.111881,68.25563,72.936386,70.160408,61.818413,51.712578,43.622345,39.520103,38.938007,39.756313,39.807503,38.234581,35.787388,33.996609,33.90744,35.288765,36.829762,37.107407,35.578232,32.878204,30.256392,28.61021,27.862095,27.132919,25.549927,23.04195,20.484837,19.05744,19.283098,20.499372,21.209538,20.121174,17.14282,13.590426,11.387414,11.759582,14.315913,17.177279,18.109007,15.918,11.178321,5.7988715,1.7364562,-0.25771499,-0.99934977,-2.1056886,-4.6570425,-8.2429504,-11.090366,-11.22434,-7.8926868,-2.2874167,2.9472945,5.1321964,3.0048609,-2.689868,-9.7910728,-16.054588,-20.35228,-23.019287,-25.24205,-28.009905,-31.383402,-34.538322,-36.467121,-36.773483,-35.979568,-35.156273,-35.182934,-36.18618,-37.543499,-38.407742,-38.338081,-37.574444,-36.783684,-36.5065,-36.746059,-37.012505,-36.778515,-35.983246,-35.182858,-35.211617,-36.587448,-39.094589,-41.855148,-43.850761,-44.531761,-44.092278,-43.236698,-42.632832,-42.467796,-42.43129,-42.117764,-41.512691,-41.156227,-41.819359,-43.908226,-47.046257,-50.185547,-52.224865,-52.726524,-52.215973,-51.814156,-52.420914,-54.008743,-55.544937,-55.644318,-53.541126,-49.71764,-45.729729,-43.303425,-43.281761,-45.123005,-47.292942,-48.289589,-47.60376,-45.96043,-44.685776,-44.661476,-45.627544,-46.355801,-45.590588,-43.076927,-39.886894,-37.719109,-37.583786,-38.787048,-39.01543,-35.628319,-27.431065,-15.792274,-4.2951393,2.997386,3.6897278,-1.6687987,-9.957756,-17.283504,-21.099754,-21.373533,-20.156698,-19.956053,-22.045607,-25.84222,-29.693401,-32.428905,-34.483616,-37.685658,-43.740501,-52.404396,-60.669243,-63.723801,-57.34124,-40.379875,-15.899023,9.8673983,30.212648,40.900002,41.788921,36.363197,29.572212,25.284098,24.734467,26.643915,28.656866,29.052559,27.680019,25.693245,24.462614,24.502733,25.137892,25.063732,23.359888,20.248537,17.106438,15.742497,17.405663,22.116116,28.673962,35.281384,40.385277,43.286148,44.254349,44.192295,44.094521,44.592773,45.759014,47.180168,48.209145,48.26767,47.098869,44.899269,42.285767,40.089912,39.033333,39.409664,40.929352,42.833618,44.255142,44.66124,44.147648,43.412537,43.406727,44.83569,47.774487,51.597153,55.250866,57.724316,58.46936,57.580269,55.67569,53.579239,51.972496,51.172981,51.100105,51.396942,51.622543,51.430138,50.679478,49.466606,48.077946,46.889088,46.241516,46.339809,47.208252,48.71928,50.666908,52.831623,54.994457,56.906677,58.275345,58.835796,58.525021,57.668247,57.015816,57.490746,59.652191,63.083523,66.053802,65.763039,59.23772,44.592247,22.100597,-5.4919338,-33.691036,-57.793266,-74.589653,-83.440613,-86.197815,-86.009827,-85.620247,-86.036629,-86.256805,-84.170273,-78.110443,-68.170135,-56.518673,-46.510658,-41.053795,-41.123459,-45.23988,-50.19751,-52.6539,-50.729904,-44.795143,-37.084026,-30.428684,-26.838535,-26.669142,-28.728533,-31.127321,-32.3092,-31.693907,-29.680923,-27.16905,-24.986523,-23.577311,-23.031694,-23.289637,-24.26631,-25.783985,-27.415415,-28.463463,-28.216728,-26.388266,-23.44478,-20.534536,-18.954788,-19.420261,-21.579828,-24.1292,-25.519011,-24.872732,-22.559826,-20.045029,-19.06164,-20.57659,-24.161108,-28.153696,-30.534462,-30.006922,-26.663979,-21.86894,-17.450348,-14.703314,-13.775801,-13.758056,-13.360446,-11.729608,-8.9107828,-5.7202477,-3.168689,-1.8349347,-1.58079,-1.7485499,-1.667002,-1.1121964,-0.42744425,-0.24886417,-1.0409917,-2.7572556,-4.8409581,-6.5515976,-7.3925066,-7.3629832,-6.8842225,-6.4658079,-6.3429399,-6.3239994,-5.9428024,-4.8097296,-2.9295926,-0.77910775,0.90782422,1.5162244,0.86168861,-0.73925179,-2.6621668,-4.2943468,-5.2825522,-5.5780363,-5.2936711,-4.5099397,-3.1852369,-1.2325352,1.3094493,4.160758,6.8540239,8.946249,10.251791,10.929832,11.352122,11.832641,12.407702,12.829973,12.790127,12.206484,11.354445,10.706851,10.568782,10.769393,10.679618,9.6272144,7.4936242,5.0953355,4.021503,5.9086409,11.50377,20.05818,29.459454,37.104256,41.075741,40.989727,38.049168,34.299049,31.529926,30.458879,30.615757,30.91642,30.498491,29.280888,27.937723,27.380655,28.146921,30.10363,32.61832,35.0107,36.92947,38.396488,39.539532,40.276989,40.245159,39.055321,36.692871,33.734852,31.173117,29.911974,30.257538,31.74634,33.444839,34.536343,34.817894,34.789955,35.293285,36.939713,39.701607,42.899288,45.559788,46.90049,46.657475,45.122192,42.945648,40.871044,39.518883,39.243118,40.021961,41.392197,42.520916,42.511234,40.898918,38.091141,35.404827,34.517826,36.51606,41.072662,46.351528,49.865181,49.906876,46.705696,42.484234,40.194901,41.55471,45.551498,48.451073,45.507973,33.541527,12.932668,-12.158856,-35.568233,-51.951218,-59.114952,-58.618347,-54.440052,-50.62323,-49.314877,-50.241711,-51.68951,-52.128983,-51.338779,-50.352425,-50.428371,-51.900616,-53.783382,-54.408676,-52.616932,-48.633957,-44.006729,-40.643894,-39.629852,-40.619904,-42.199585,-42.916763,-42.248383,-40.845753,-39.935925,-40.353291,-41.915054,-43.582733,-44.276054,-43.739826,-42.831699,-43.011547,-45.371948,-49.863796,-55.232761,-59.70005,-61.935547,-61.707745,-59.84486,-57.609818,-55.951294,-55.112736,-54.780251,-54.563736,-54.406956,-54.629299,-55.608932,-57.386673,-59.512569,-61.260258,-62.058708,-61.839199,-61.066765,-60.450619,-60.537186,-61.439754,-62.837704,-64.192482,-65.016457,-65.052696,-64.329849,-63.140129,-61.986118,-61.480743,-62.153393,-64.174355,-67.126869,-70.020821,-71.658089,-71.240356,-68.893585,-65.745834,-63.411961,-63.108059,-64.904915,-67.617508,-69.480522,-69.26709,-67.180534,-64.915367,-64.737381,-68.01516,-73.99836,-79.556023,-80.102234,-71.325905,-50.94733,-19.744822,18.521221,58.153137,93.04142,118.11584,130.34256,129.13853,116.25414,95.235718,70.584007,46.748726,27.167706,13.610373,6.0383606,3.0257416,2.5553312,2.8508551,2.9121671,2.5900803,2.2695251,2.3947771,3.0927346,4.0463815,4.6258287,4.1815634,2.3741107,-0.5704692,-3.7678523,-5.813868,-5.1759925,-0.76231033,7.5304852,18.55925,30.170792,39.925468,46.033897,48.071114,47.096764,45.096275,44.016315,44.889515,47.489677,50.655193,53.046803,53.886345,53.278896,51.999512,50.94305,50.598652,50.840462,51.099529,50.761086,49.548138,47.724133,46.084068,45.792755,48.125725,54.12331,64.170174,77.598824,92.524132,106.12775,115.44777,118.44276,114.8603,106.43469,96.226822,87.368301,81.819839,79.770294,79.952034,80.627853,80.63208,79.858353,78.97303,78.645187,78.886566,78.987953,78.095413,75.992546,73.473808,71.947357,72.437546,74.614754,76.545067,75.453896,69.169411,57.449177,42.39843,27.678898,16.892902,11.998422,12.58386,16.332268,20.338203,22.504896,22.282768,20.461849,18.299362,16.604534,15.333957,13.85661,11.603489,8.6034441,5.5362186,3.2908256,2.3541937,2.4550292,2.7039227,2.1390915,0.32920963,-2.3409491,-4.8680506,-6.1792622,-5.7024117,-3.6390586,-0.81881446,1.7403562,3.2957675,3.625092,2.9721408,1.7934819,0.49676496,-0.67789686,-1.6067758,-2.1542857,-2.099602,-1.1944441,0.67639071,3.3416319,6.3148837,8.9389572,10.649221,11.226532,10.905566,10.272937,9.9964056,10.515474,11.847919,13.610845,15.244268,16.31625,16.739851,16.776295,16.81749,17.074644,17.369473,17.183002,15.974558,13.614444,10.676245,8.3766527,8.1244259,10.858749,16.499371,23.808348,30.775261,35.377956,36.375366,33.765377,28.701916,22.929462,18.020189,14.77677,13.058626,12.066319,10.89602,9.0634918,6.7405396,4.6106024,3.4459636,3.6397362,4.9380345,6.5121679,7.3436403,6.7407508,4.7343884,2.1421945,0.23263174,0.10607559,2.0597255,5.2438197,7.8159041,7.588347,2.927953,-6.4796863,-19.363216,-33.253548,-45.387482,-53.738277,-57.713902,-58.217224,-57.070526,-56.113472,-56.428581,-58.054245,-60.265163,-62.191563,-63.385227,-64.01165,-64.603653,-65.592682,-66.964371,-68.284927,-69.079742,-69.290916,-69.467438,-70.509033,-73.08931,-77.126213,-81.676682,-85.383545,-87.245087,-87.242096,-86.410362,-86.272293,-87.94371,-91.452629,-95.695236,-99.069954,-100.41081,-99.654449,-97.841393,-96.46669,-96.593285,-98.270126,-100.5844,-102.26944,-102.45733,-101.11487,-98.945549,-96.896759,-95.636856,-95.3256,-95.750191,-96.636253,-97.855751,-99.387253,-101.11449,-102.68895,-103.62373,-103.58096,-102.63578,-101.29248,-100.20789,-99.803574,-100.04145,-100.51862,-100.79269,-100.67152,-100.23586,-99.589302,-98.571716,-96.727119,-93.623329,-89.316795,-84.582672,-80.650352,-78.537338,-78.407837,-79.428024,-80.277588,-80.007584,-78.651276,-77.133896,-76.521706,-77.157265,-78.356621,-78.959068,-78.361198,-77.212105,-77.073578,-79.041092,-82.139793,-82.666382,-75.222588,-55.173454,-21.292501,22.922783,70.128288,111.84825,141.63567,157.07912,159.79594,153.74767,143.09518,130.84576,118.78262,108.19403,100.42715,96.601044,96.65049,98.579437,98.814926,93.818634,82.140953,65.608086,48.727661,36.477566,31.706703,33.696602,38.760601,42.504368,42.346741,38.769974,34.611973,32.968353,35.118454,39.790524,44.14019,45.683113,43.851254,40.180981,37.11747,36.34594,37.814754,40.059208,41.489826,41.644512,41.47411,42.462337,45.244385,48.770367,50.694172,48.809937,42.605587,33.875412,25.925503,21.818033,22.725679,27.393604,32.994946,36.79351,37.564606,35.950943,33.665203,32.186928,31.860825,31.944553,31.456799,30.128799,28.730034,28.518589,30.210159,33.216484,35.734989,35.697739,32.003857,25.255856,17.527376,11.29713,8.1930618,8.2801695,10.258062,12.365899,13.391256,13.183533,12.445148,12.048302,12.392332,13.226774,14.009673,14.501974,15.155232,17.003803,21.103476,27.845488,36.548744,45.568859,52.878731,56.839355,56.807346,53.3269,47.852837,42.14653,37.605129,34.796265,33.382439,32.457947,31.137512,29.102222,26.80287,25.177673,25.008928,26.282139,27.965317,28.421568,26.292534,21.360678,14.842363,8.8568363,5.3128934,4.851316,6.504775,8.3344822,8.7007084,7.3979063,5.9256096,6.6744299,11.481259,20.420986,31.582621,41.987118,49.110073,52.110729,52.065212,51.124786,51.168877,52.791325,55.195305,56.968861,57.167511,55.982685,54.593666,54.352592,55.874924,58.642567,61.379665,62.969177,63.349064,63.839081,66.667511,73.891907,86.212112,102.22923,118.51775,130.55449,134.21301,127.29443,110.5003,87.404579,63.336987,43.543842,31.356234,27.160788,28.643549,32.174789,34.623737,34.672081,32.98954,31.297176,30.985315,32.176353,33.783012,34.429241,33.523987,31.69713,30.27853,30.202993,31.165045,31.705467,30.266762,26.543055,22.173986,20.206079,23.540192,33.270153,47.926853,64.08757,77.956184,86.933014,90.260429,88.492989,82.337845,71.797897,56.273331,35.542137,10.867276,-14.663009,-36.965065,-52.578583,-60.147053,-60.89135,-57.823277,-54.202942,-52.147495,-52.113056,-53.359089,-54.898804,-56.232601,-57.446407,-58.782524,-60.163338,-61.11694,-61.17627,-60.409195,-59.604858,-59.89138,-61.999962,-65.68885,-69.767479,-72.758369,-73.784676,-73.096138,-71.875053,-71.444679,-72.404083,-74.262184,-75.805222,-75.940407,-74.444893,-72.123436,-70.280853,-69.871719,-70.893906,-72.416199,-73.203125,-72.511818,-70.54174,-68.266479,-66.790192,-66.669106,-67.633247,-68.853577,-69.534317,-69.413559,-68.848419,-68.464302,-68.645363,-69.234856,-69.648689,-69.308296,-68.078499,-66.400848,-65.03019,-64.556854,-65.038292,-65.981056,-66.670723,-66.615883,-65.809814,-64.65564,-63.640347,-63.009136,-62.67046,-62.375813,-62.007397,-61.726765,-61.849163,-62.530064,-63.518372,-64.211952,-64.044838,-62.976227,-61.723007,-61.484581,-63.203243,-66.708229,-70.216957,-70.527786,-63.912289,-47.3829,-19.8507,17.24238,60.001255,102.80038,139.4286,164.38942,174.10313,167.76918,147.65497,118.64027,87.022392,58.855072,38.340393,26.855394,22.990599,23.562439,25.133663,25.363102,23.627888,20.754726,18.143105,16.823195,16.938499,17.838293,18.603012,18.61591,17.833958,16.64468,15.46191,14.355124,12.956717,10.701734,7.2470698,2.8100388,-1.790316,-5.4428082,-7.264936,-7.0695329,-5.5188508,-3.8514354,-3.2864249,-4.3976612,-6.799037,-9.3442516,-10.76863,-10.43188,-8.7243805,-6.8630691,-6.1592183,-7.1846938,-9.3682938,-11.319043,-11.717261,-10.219565,-7.7673898,-6.0428147,-6.3779655,-8.8246574,-12.036736,-14.105058,-13.833982,-11.60262,-9.1825705,-8.5714035,-10.599399,-14.282543,-17.435968,-18.200382,-16.447805,-14.024643,-13.524187,-16.30481,-21.091021,-24.242657,-21.750099,-11.846058,3.4048545,18.670242,27.920115,27.594357,18.52507,5.4679694,-5.4910498,-10.136624,-8.0961142,-2.5436482,2.0178251,2.4488344,-1.4628233,-7.3452215,-12.048304,-13.639688,-12.362356,-10.127524,-9.0834503,-10.296069,-13.339412,-16.874619,-19.639847,-21.115435,-21.505264,-21.242035,-20.538591,-19.364513,-17.790245,-16.291473,-15.634114,-16.339111,-18.138113,-19.923862,-20.365595,-18.836864,-15.995936,-13.533004,-13.163998,-15.510965,-19.643707,-23.639015,-25.814596,-25.808342,-24.756901,-24.442656,-25.999363,-29.08416,-32.102386,-33.330948,-32.147755,-29.495382,-27.248812,-26.936769,-28.728186,-31.402962,-33.314259,-33.625057,-32.892159,-32.537235,-33.564705,-35.4729,-36.22477,-33.429447,-26.022007,-15.320698,-4.6897221,2.0775325,2.7054968,-2.4568417,-10.804456,-19.025137,-24.829895,-27.83515,-29.193663,-30.400581,-32.172752,-34.12878,-35.355915,-35.318584,-34.379093,-33.556271,-33.745247,-35.01403,-36.507759,-37.022076,-35.817436,-33.095951,-29.839315,-27.180792,-25.792694,-25.698288,-26.547613,-28.037153,-30.084627,-32.630703,-35.299934,-37.305428,-37.788998,-36.400555,-33.659462,-30.743759,-28.771729,-28.060244,-27.921452,-27.195553,-25.159681,-22.127867,-19.245163,-17.58353,-17.22953,-17.1483,-16.078491,-13.895037,-12.372671,-14.531831,-22.675619,-36.242455,-50.972027,-60.255474,-58.221512,-42.919476,-17.707439,10.115214,32.79623,45.825653,49.776054,49.323387,50.152802,55.65546,65.328529,75.637733,82.559944,84.073456,81.069115,76.305649,72.325233,69.830681,67.573418,63.684013,57.387936,49.848129,43.55267,40.710255,41.793556,45.233086,48.442245,49.44149,47.975864,45.418579,43.61655,43.547413,44.736145,45.794907,45.634567,44.428768,43.60804,44.869507,48.899494,54.723091,60.168911,63.168808,63.033615,60.852879,58.751614,58.499451,60.393036,63.139862,64.798706,64.133385,61.474957,58.527386,57.256226,58.599468,61.844788,65.071869,66.364624,65.010666,61.930435,59.083862,58.249664,59.94865,63.162216,65.981255,66.749802,64.998695,61.64077,58.37941,56.746834,57.355534,59.745682,62.808586,65.436546,66.98819,67.365089,66.792824,65.571846,64.007034,62.511814,61.695606,62.235928,64.51825,68.259315,72.423096,75.598022,76.700935,75.608963,73.289833,71.2565,70.57811,70.987869,70.637894,66.732307,56.795361,39.969105,17.691847,-6.5921826,-28.56975,-44.529274,-52.537212,-52.881409,-47.7052,-40.091713,-33.016071,-28.534674,-27.403933,-29.133944,-32.363995,-35.407631,-36.818199,-35.837437,-32.607956,-28.079807,-23.634125,-20.559637,-19.590172,-20.693455,-23.185047,-26.086155,-28.532728,-30.041264,-30.538658,-30.204796,-29.269255,-27.897217,-26.209761,-24.378052,-22.68162,-21.456734,-20.950256,-21.172586,-21.855137,-22.556797,-22.87044,-22.616505,-21.915066,-21.096502,-20.501678,-20.282581,-20.312204,-20.252014,-19.741186,-18.60677,-16.980515,-15.252331,-13.87327,-13.103275,-12.83977,-12.634682,-11.915678,-10.312089,-7.9113374,-5.2874379,-3.2569001,-2.4733365,-3.0812552,-4.634717,-6.3426247,-7.5056343,-7.8827372,-7.7584996,-7.6675472,-7.95961,-8.5057383,-8.7642107,-8.1841021,-6.6796293,-4.8319378,-3.6356564,-3.9133253,-5.7692289,-8.4630594,-10.82617,-11.974751,-11.846442,-11.170928,-10.8513,-11.148699,-11.243196,-9.5417919,-4.6266503,3.713269,14.038749,23.754435,30.316858,32.471115,30.78758,27.186758,23.759796,21.618259,20.465649,19.103325,16.48085,12.568327,8.4774275,5.7772393,5.4880929,7.4334421,10.366758,12.75791,13.690492,13.276682,12.356705,11.752986,11.642299,11.494835,10.598778,8.7554436,6.6021123,5.2889729,5.7086496,7.8169789,10.545351,12.410217,12.443749,10.835343,8.8507338,8.0660048,9.4017544,12.567739,16.254686,18.925985,19.693106,18.738289,17.071096,15.837844,15.655769,16.368002,17.293781,17.721899,17.284733,16.005152,14.085221,11.68689,8.913208,5.9858074,3.4133344,1.9243444,2.1210928,4.0560837,7.045186,9.9060669,11.52579,11.418415,9.9173098,7.8804483,6.1145177,4.9122896,4.0114455,2.9772873,1.7047651,0.64706713,0.5765174,2.0289619,4.827601,8.0452604,10.465023,11.247109,10.358188,8.4813223,6.4920731,4.8976097,3.6637223,2.5682459,1.8143743,2.4037247,5.8875751,13.526071,25.319725,39.535664,53.106197,62.768909,66.36338,63.590813,55.850895,45.304585,33.740105,21.886839,9.503808,-3.917974,-18.350729,-32.847069,-45.799141,-55.651989,-61.626648,-64.041252,-64.08654,-63.22871,-62.587288,-62.591621,-63.021919,-63.330151,-63.029625,-61.967018,-60.392933,-58.846973,-57.928421,-58.038666,-59.183998,-60.92429,-62.524269,-63.287624,-62.946194,-61.899803,-61.12944,-61.757984,-64.442871,-68.925514,-74.025154,-78.140373,-80.026443,-79.430122,-77.214851,-74.888428,-73.792725,-74.419518,-76.244507,-78.158905,-79.215134,-79.215645,-78.781456,-78.872406,-80.082497,-82.177086,-84.181877,-84.97715,-84.022301,-81.746582,-79.348099,-78.114174,-78.674797,-80.640892,-82.837761,-83.98024,-83.377747,-81.26181,-78.578171,-76.412209,-75.412521,-75.533356,-76.185379,-76.632027,-76.360321,-75.236168,-73.440552,-71.322601,-69.304939,-67.860115,-67.463799,-68.432434,-70.678635,-73.559586,-76.012047,-77.007973,-76.118828,-73.830582,-71.346085,-69.923874,-70.13533,-71.528961,-72.960037,-73.399277,-72.674339,-71.597473,-71.332466,-72.409378,-74.112877,-74.78804,-72.992447,-68.768738,-64.084816,-61.915085,-64.304054,-70.523964,-76.57222,-76.58744,-65.643494,-42.481232,-10.639042,22.745449,49.918919,65.754402,69.608025,64.953087,57.185844,50.92371,48.225521,48.464104,49.564957,49.625385,47.919113,44.876736,41.357437,37.908169,34.548622,31.115419,27.751776,25.057825,23.735947,24.004433,25.266447,26.350916,26.216841,24.651863,22.466602,21.016373,21.340849,23.47979,26.41408,28.672094,29.210091,28.007919,26.02013,24.542828,24.417768,25.568401,27.12104,27.983685,27.487923,25.704178,23.288319,21.02693,19.415298,18.533735,18.251804,18.557138,19.729521,22.203316,26.191122,31.32346,36.574276,40.57933,42.214191,41.12714,37.925377,33.893528,30.381487,28.186123,27.259079,26.890436,26.246296,24.934187,23.256229,22.001373,21.913219,23.175795,25.251562,27.182192,28.159685,27.992271,27.154762,26.393911,26.171671,26.353525,26.384058,25.835621,24.915457,24.50086,25.585249,28.466286,32.273464,35.292213,36.036999,34.467503,32.519867,33.442112,40.135418,53.378593,71.002106,88.609093,101.55987,107.17179,105.91988,100.98034,96.411308,95.03566,97.213264,101.10703,104.13716,104.65201,102.81257,100.26645,98.967133,99.972801,102.96097,106.64571,109.68529,111.41932,111.99875,111.95867,111.66438,111.0763,109.96091,108.29505,106.47057,105.10108,104.59204,104.85876,105.47171,106.14466,107.14648,109.19794,112.77023,117.19772,120.28368,118.87355,110.27914,93.831596,71.640884,48.018379,27.772079,14.246396,8.1304302,7.6026421,9.6059246,11.441844,11.796561,10.771618,9.152668,7.5693464,6.13307,4.6870499,3.3177404,2.6074288,3.3533583,5.9335814,9.8132324,13.6213,15.830949,15.634956,13.440929,10.644135,8.8086519,8.7748766,10.25025,12.111667,13.183058,12.963907,11.854698,10.785005,10.54192,11.260778,12.388803,13.094338,12.81101,11.556633,9.8561773,8.3707581,7.5018411,7.2090745,7.1066461,6.7260637,5.7676201,4.2213788,2.3459196,0.56065542,-0.69330126,-1.0987291,-0.59252983,0.57309258,1.9108839,2.9407547,3.4970109,3.9027371,4.8350549,6.8806481,10.018522,13.392449,15.620884,15.564695,13.130855,9.5781965,7.0304852,7.3787313,11.174496,17.188972,22.95755,26.045595,25.323269,21.516542,16.732187,13.265572,12.407903,13.923362,16.418156,18.277382,18.553387,17.311291,15.348519,13.601574,12.671977,12.705585,13.53612,14.820747,15.984822,16.059937,13.700367,7.6035218,-2.74807,-16.436993,-31.051186,-43.434723,-50.979694,-52.805489,-50.166832,-45.837498,-42.79089,-42.884754,-46.218361,-51.40831,-56.504574,-59.969002,-61.218826,-60.59309,-58.959133,-57.304352,-56.516304,-57.305893,-60.096458,-64.791443,-70.551247,-75.845451,-78.944305,-78.710976,-75.269463,-70.090607,-65.336433,-62.764561,-62.813168,-64.424568,-65.731682,-65.193779,-62.479095,-58.55434,-54.95628,-52.75346,-51.898052,-51.392036,-50.12986,-47.814846,-45.293003,-44.047543,-45.177803,-48.554207,-52.74086,-55.773037,-56.305225,-54.39225,-51.40263,-49.131573,-48.699196,-49.943226,-51.667435,-52.530624,-51.947964,-50.402256,-48.99572,-48.605515,-49.265869,-50.212944,-50.535728,-49.933945,-49.00853,-48.855534,-50.250908,-53.025723,-56.107105,-58.220112,-58.753681,-58.152157,-57.520706,-57.708019,-58.539043,-58.803001,-57.078182,-52.852936,-47.130959,-42.014477,-39.458351,-40.007244,-42.410114,-44.454826,-44.52253,-42.805721,-41.278843,-42.310978,-46.75798,-52.823181,-56.583019,-54.041821,-43.556,-27.130877,-9.7010574,3.2912011,8.6527233,6.9341068,1.8145363,-2.2047732,-2.384639,0.9161247,4.8589482,6.1882491,3.3848565,-2.4109557,-8.1839085,-10.928959,-9.3987808,-4.6595039,0.77180058,4.5357733,5.7177978,5.0639505,4.1412668,4.1349592,5.129395,6.2956719,6.7394886,6.3210406,5.8293309,6.3944516,8.5818872,11.839816,14.719073,15.744132,14.362169,11.339867,8.3432627,6.9683347,7.8339477,10.287112,12.862888,14.167496,13.619557,11.622156,9.1315308,6.9664187,5.3267069,3.8053541,1.8296393,-0.80589217,-3.6850348,-5.9573355,-6.8369174,-6.0934315,-4.2371588,-2.2977314,-1.3322231,-1.9337747,-3.9842846,-6.745513,-9.2108383,-10.534589,-10.351475,-8.8712139,-6.7353096,-4.7113194,-3.3546867,-2.7783601,-2.6328874,-2.3152697,-1.3182176,0.45152113,2.5624075,4.2382355,4.7550087,3.8453064,1.8755319,-0.32268038,-1.8856307,-2.3687701,-1.9473698,-1.2442714,-0.89276946,-1.1129279,-1.5763148,-1.6512084,-0.87116671,0.685004,2.3670299,3.3211143,3.0301535,1.6770493,0.079398751,-0.78800058,-0.39542124,0.99874216,2.5000615,3.1532986,2.5927947,1.353821,0.62450737,1.5595808,4.5564904,8.9350777,13.231346,15.950274,16.344225,14.764375,12.387676,10.496455,9.7523594,9.898838,10.051954,9.3701811,7.6603837,5.5259299,3.962183,3.6648352,4.5086246,5.5538983,5.607842,4.0136547,1.1881818,-1.4272404,-1.9883105,0.90777493,7.6171546,17.375389,28.713709,40.049145,50.087044,57.871723,62.607906,63.543488,60.133507,52.448498,41.538677,29.411785,18.487022,10.726053,6.8877826,6.3285198,7.4709225,8.6752701,9.0147896,8.5335703,7.9016247,7.757484,8.200387,8.7557421,8.7912979,8.0475969,6.8779039,6.0131178,6.0180984,6.8399291,7.7972422,8.0533943,7.2644053,5.9420519,5.2386651,6.2411795,9.2075272,13.250207,16.711884,18.043159,16.665213,13.29216,9.5129414,6.8845015,6.0834141,6.6159701,7.2324195,6.7570086,4.8050127,1.9550304,-0.69475597,-2.2695842,-2.6735253,-2.6138358,-3.1033194,-4.7777324,-7.4643197,-10.257003,-12.023889,-12.010055,-10.165186,-7.027144,-3.2863779,0.65145546,4.8117628,9.4265327,14.512874,19.558928,23.552145,25.368896,24.320896,20.557236,15.099179,9.4806204,5.1639032,2.996592,2.9366863,4.1413217,5.3610682,5.4727259,3.9444957,1.0570661,-2.2133496,-4.6251154,-5.2610393,-4.0312901,-1.8384756,-0.27236974,-0.91573107,-4.5595574,-10.72089,-17.749743,-23.528002,-26.441141,-26.12565,-23.583071,-20.579065,-18.641958,-18.212065,-18.423923,-17.653761,-14.529389,-8.8296957,-1.7572544,4.5801797,8.1969557,8.2017937,5.1931272,0.88982773,-2.76458,-4.5147858,-4.2440619,-2.7785723,-1.2367287,-0.347031,-0.12472678,-0.041448701,0.48740411,1.6457515,3.0834119,4.167573,4.4294615,3.9025686,3.1340578,2.8697007,3.6189411,5.3722043,7.632226,9.7163439,11.121401,11.723543,11.714208,11.359962,10.787178,9.9576302,8.8435783,7.6444683,6.8350973,6.9441175,8.1668959,10.076745,11.689712,11.941253,10.357404,7.5257826,5.0249066,4.7512574,7.9409628,14.403293,22.417143,29.406219,33.083164,32.482582,28.349525,22.695194,17.780619,15.085333,14.795379,16.023947,17.554739,18.621292,19.261215,20.081181,21.645304,23.923162,26.173615,27.344603,26.730015,24.456175,21.476858,19.06525,18.108295,18.633255,19.851286,20.680922,20.417704,19.131382,17.550409,16.522289,16.407953,16.808723,16.808668,15.581252,12.970027,9.6638403,6.8422899,5.5054173,5.9052653,7.4343371,9.0355921,9.8672934,9.7977076,9.4214754,9.6044016,10.86915,13.031365,15.321087,16.897526,17.403772,17.187038,17.039961,17.643267,19.089867,20.812244,21.961397,21.982882,21.007746,19.804132,19.327242,20.162134,22.207132,24.772051,26.993,28.281647,28.543633,28.085777,27.340578,26.623642,26.063,25.679377,25.487488,25.508602,25.700237,25.908888,25.940752,25.730017,25.464392,25.521124,26.200449,27.425299,28.654156,29.141167,28.429722,26.757452,25.051857,24.436501,25.501245,27.782976,29.804554,29.677719,25.917706,17.994438,6.3477907,-8.0199566,-23.976587,-40.352211,-55.662823,-67.823578,-74.334724,-73.141884,-63.843666,-48.511799,-31.434681,-17.642309,-10.815765,-11.653932,-17.623728,-24.297026,-27.588774,-25.696936,-19.724529,-12.735104,-7.8833885,-6.7399831,-8.7215328,-11.811249,-13.979397,-14.366297,-13.547421,-12.849984,-13.289496,-14.869495,-16.666151,-17.556307,-17.031488,-15.532806,-14.111831,-13.694124,-14.471252,-15.824139,-16.794033,-16.745825,-15.760563,-14.50601,-13.703482,-13.578809,-13.679836,-13.180083,-11.45628,-8.5493565,-5.2039342,-2.4624033,-1.075393,-1.0978931,-1.9108672,-2.6362629,-2.6762338,-2.0479503,-1.3280635,-1.2641389,-2.3018899,-4.3078737,-6.6338997,-8.4642,-9.2334824,-8.8850193,-7.8477354,-6.7749519,-6.2076178,-6.3427515,-7.0069995,-7.8140507,-8.3938608,-8.5655718,-8.3807726,-8.0479717,-7.8105073,-7.8581696,-8.31042,-9.2503481,-10.751952,-12.852555,-15.469178,-18.311642,-20.868732,-22.517679,-22.741062,-21.365078,-18.700134,-15.4936,-12.686925,-11.0663,-10.957717,-12.107842,-13.81159,-15.232093,-15.766393,-15.288121,-14.160101,-13.02466,-12.488128,-12.861323,-14.076148,-15.794696,-17.620512,-19.274496,-20.636341,-21.65192,-22.202681,-22.061628,-20.999388,-18.989571,-16.371775,-13.829283,-12.140267,-11.808352,-12.777618,-14.415711,-15.807168,-16.216307,-15.467626,-14.02712,-12.736186,-12.351796,-13.157724,-14.862088,-16.816908,-18.400864,-19.32003,-19.656174,-19.672186,-19.546801,-19.244379,-18.611441,-17.61252,-16.504156,-15.782016,-15.900677,-16.943663,-18.482292,-19.753563,-20.075518,-19.246454,-17.665777,-16.084291,-15.13355,-14.935367,-15.047603,-14.784185,-13.697678,-11.899397,-9.9945726,-8.6657333,-8.1777477,-8.1419525,-7.7164998,-6.1362605,-3.2427049,0.32986766,3.4471712,5.0824852,4.8742762,3.296706,1.3445591,-0.066745341,-0.61370879,-0.67891496,-1.0094067,-2.1466215,-3.9948652,-5.8048129,-6.58848,-5.713748,-3.3148932,-0.26502678,2.281512,3.5138936,3.3962543,2.6602411,2.367568,3.2962611,5.4978471,8.2678118,10.533379,11.431749,10.757056,9.0432243,7.2626748,6.3315539,6.7011666,8.2403212,10.427603,12.693336,14.683589,16.29801,17.521309,18.213337,18.049002,16.688446,14.08199,10.691981,7.4345331,5.3083339,4.8886905,5.9865565,7.7128887,8.9655609,9.0936155,8.3540668,7.8597999,8.9935713,12.580512,18.280367,24.568693,29.361019,30.971556,28.899399,24.023863,18.118931,12.975883,9.6275873,8.0800142,7.6338658,7.5248694,7.4445486,7.6216164,8.4623699,10.051695,11.903629,13.164811,13.145009,11.803602,9.8339443,8.2560797,7.7729011,8.3244104,9.156786,9.376297,8.6167183,7.3519697,6.6128683,7.2742114,9.3894396,12.044318,13.868393,13.901433,12.261479,10.179214,9.3762732,11.193167,16.020023,23.347271,32.299786,42.172928,52.507145,62.619041,70.98204,75.065384,72.006577,59.932777,39.229282,12.948021,-14.031648,-36.76746,-52.064201,-59.403477,-60.574001,-58.326633,-54.89724,-51.222416,-47.158516,-42.35704,-37.077805,-32.353012,-29.42732,-28.920807,-30.341564,-32.309273,-33.345734,-32.702145,-30.68478,-28.300661,-26.508808,-25.609612,-25.175161,-24.524086,-23.361797,-22.104748,-21.644688,-22.711903,-25.282782,-28.45463,-30.901089,-31.637482,-30.62104,-28.81218,-27.656408,-28.293337,-30.949677,-34.847511,-38.65226,-41.185421,-42.003326,-41.544304,-40.796432,-40.690536,-41.551281,-42.892292,-43.657787,-42.786583,-39.81192,-35.185062,-30.139784,-26.143099,-24.201014,-24.384588,-25.845856,-27.332617,-27.921995,-27.543724,-26.966496,-27.235579,-28.899284,-31.521412,-33.82476,-34.419601,-32.680363,-29.205452,-25.533705,-23.263063,-23.117748,-24.565754,-26.24123,-26.892462,-26.211506,-24.964581,-24.310497,-24.76334,-25.536299,-24.7861,-20.685131,-12.66952,-2.0411398,8.5228357,16.310141,19.964481,20.081154,18.660599,17.797817,18.457796,20.097546,21.310499,20.986032,19.156279,16.95336,15.741323,16.071148,17.229462,17.728668,16.412271,13.395843,10.152046,8.6273832,9.9558878,13.643607,17.815165,20.41577,20.612164,19.468859,19.415586,22.786373,30.309906,40.477295,50.182873,56.264854,57.050442,53.044006,46.441441,39.846004,34.975529,32.062309,30.16066,28.027882,24.971237,21.181458,17.464828,14.658901,13.145149,12.721416,12.818338,12.842568,12.418738,11.44219,10.008044,8.3327971,6.7200484,5.5284142,5.0756655,5.4832273,6.5605316,7.8495693,8.8551998,9.3384361,9.4678831,9.6933231,10.394407,11.536349,12.59212,12.826942,11.787037,9.6687202,7.2957134,5.6823049,5.4435287,6.4335995,7.8565969,8.7854166,8.750927,8.0141115,7.3446603,7.4604974,8.5087147,9.9393167,10.861683,10.659802,9.483552,8.3245554,8.6486721,11.807998,18.535114,28.708765,41.38652,54.980518,67.477867,76.719421,80.814079,78.690712,70.614624,58.367756,44.855625,33.174366,25.502182,22.347557,22.549795,24.037142,24.929987,24.392637,22.805716,21.248003,20.677511,21.33749,22.714067,23.987,24.606482,24.591393,24.380777,24.397583,24.672575,24.80592,24.283703,22.90906,21.033329,19.420027,18.827593,19.576378,21.356899,23.367641,24.67033,24.55518,22.755217,19.474651,15.291711,11.006174,7.4537301,5.2820258,4.7218747,5.4579029,6.7193956,7.6163111,7.5779228,6.6351156,5.3404121,4.3448296,3.911159,3.7397132,3.3066401,2.5467374,2.3969908,4.7018743,11.335309,22.927311,37.948193,52.821167,63.197937,65.839027,60.121704,48.339756,34.607128,22.953737,15.637905,12.53387,11.796019,11.267644,9.7379313,7.3542914,5.0987477,3.8289568,3.591949,3.6452072,3.0874338,1.5876849,-0.32702133,-1.6187046,-1.4567302,0.20194764,2.5603647,4.4686127,5.101305,4.3779216,2.8887775,1.4384665,0.55537957,0.28814024,0.3654384,0.52952546,0.75950557,1.2281013,2.0679789,3.1741161,4.2257786,4.9194279,5.2209082,5.4193592,5.9181237,6.9109693,8.1971617,9.2996302,9.826911,9.8272715,9.8676777,10.75051,13.031096,16.643656,20.87818,24.723721,27.360849,28.506571,28.432108,27.696449,26.806816,26.024347,25.392351,24.893929,24.571335,24.505524,24.693314,24.955759,24.987999,24.541578,23.613136,22.493151,21.622875,21.343645,21.698494,22.405985,23.006184,23.070328,22.347013,20.790169,18.5096,15.722839,12.744628,9.9763384,7.8313208,6.5868487,6.2455826,6.5288076,7.053906,7.6053343,8.3040314,9.5181265,11.53932,14.25223,17.082125,19.338984,20.769978,21.905226,23.83193,27.382668,32.172199,36.15057,36.146229,29.309732,14.760971,-5.5086946,-27.113052,-45.017849,-55.706631,-58.630718,-56.177849,-52.214733,-50.045471,-50.913639,-53.801636,-56.4921,-57.141327,-55.395321,-52.452137,-50.168224,-49.872093,-51.650448,-54.491108,-57.086891,-58.710014,-59.587406,-60.590317,-62.515209,-65.472107,-68.778954,-71.396049,-72.581642,-72.333336,-71.352379,-70.590866,-70.695946,-71.697189,-73.097679,-74.263832,-74.8386,-74.919701,-74.918999,-75.226334,-75.912537,-76.665123,-76.993866,-76.573921,-75.509605,-74.347015,-73.808487,-74.384865,-76.013863,-78.040382,-79.509781,-79.659767,-78.350914,-76.18721,-74.232803,-73.45533,-74.193069,-75.949852,-77.648972,-78.21627,-77.165916,-74.853699,-72.256348,-70.417603,-69.897919,-70.550613,-71.730118,-72.760063,-73.331299,-73.567543,-73.740257,-73.867401,-73.516975,-71.993584,-68.810837,-64.133743,-58.868824,-54.296127,-51.436928,-50.533474,-50.959469,-51.617828,-51.584587,-50.614563,-49.220253,-48.301052,-48.56332,-50.074612,-52.193096,-53.887909,-54.262325,-53.013767,-50.625027,-48.210838,-47.064445,-48.025715,-50.844311,-53.759346,-53.541252,-46.176823,-28.17296,1.8562113,41.92939,86.425339,127.17215,155.71895,166.03119,156.55457,130.76962,95.967804,60.736938,32.184593,13.989831,5.9450035,4.9617596,6.9128728,8.432477,7.9682884,5.8269415,3.4285116,2.272321,3.1275804,5.7544613,9.1702232,12.23751,14.249533,15.233453,15.848828,16.954123,19.071465,22.031397,24.994205,26.85346,26.820024,24.874317,21.832218,18.977167,17.453938,17.75482,19.569468,22.0499,24.298624,25.776123,26.411089,26.41674,26.012125,25.282558,24.269438,23.171389,22.430231,22.557775,23.777496,25.742172,27.587524,28.369143,27.644314,25.81212,23.943422,23.159418,23.936785,25.79808,27.611914,28.322958,27.631582,26.164034,25.014463,24.973267,25.978308,27.174444,27.538977,26.624975,24.882515,23.314772,22.708761,23.004025,23.28525,22.446003,20.074844,16.919882,14.550548,14.389101,16.746468,20.53425,23.891073,25.343706,24.744473,23.356918,23.021482,24.946207,28.915514,33.425217,36.631165,37.468094,36.210567,34.153469,32.689941,32.442867,33.014378,33.44738,32.995399,31.623966,29.919697,28.549679,27.737309,27.167435,26.36429,25.198698,24.081009,23.659115,24.255745,25.513475,26.573727,26.69628,25.852917,24.80525,24.544552,25.467386,26.904673,27.407845,25.656399,21.37779,15.622591,10.173556,6.4811525,4.8610792,4.4981465,4.206481,3.3369555,2.1250606,1.2240125,0.83606893,0.22319321,-1.8680311,-6.0475278,-11.231552,-14.623646,-13.01622,-4.7535253,8.8943815,23.961174,35.657616,40.843052,39.595901,34.909981,30.728743,29.592445,31.393545,33.960449,34.944786,33.623924,31.337706,30.273312,31.499876,33.705391,33.62114,27.955059,15.600522,-1.3364407,-18.392658,-30.973318,-36.582985,-35.758141,-31.287811,-26.394007,-23.097477,-21.695812,-21.413919,-21.49931,-21.865728,-22.889706,-24.70146,-26.704897,-27.827374,-27.34623,-25.597029,-23.881741,-23.480526,-24.401787,-24.822088,-21.7953,-12.968731,1.6963005,19.316113,35.085423,44.416737,45.053757,38.011116,26.891657,16.056633,8.7025032,5.8186116,6.3827047,8.4296036,10.240904,11.017494,10.846354,10.21741,9.5201712,8.8174782,7.9235654,6.6192427,4.8201246,2.623822,0.27167651,-1.9121403,-3.5830417,-4.454669,-4.3912015,-3.4639461,-1.9135659,-0.019972252,2.030648,4.167212,6.3124499,8.2277603,9.5041504,9.7912235,9.1464748,8.2171688,8.0062675,9.2487764,11.765899,14.301237,15.112345,13.084956,8.6868877,4.0355411,1.83084,3.6508505,8.6358128,13.493525,14.025166,7.411386,-6.0682116,-22.973375,-38.43668,-48.722893,-53.084385,-53.756622,-54.054344,-55.718987,-57.190544,-53.986012,-41.129627,-16.325186,17.962976,54.822769,85.607109,103.72173,107.53945,100.91998,91.055939,84.752853,85.052811,89.917847,93.613518,90.035446,76.218529,54.174618,30.070971,11.155099,2.0341752,2.2922306,6.7491379,8.2625027,1.5827689,-13.836278,-33.626362,-51.013626,-60.630138,-61.449417,-57.150642,-53.696884,-55.543827,-62.717121,-70.506821,-72.002357,-62.029903,-40.240707,-11.608635,15.897465,35.106731,42.802029,40.63269,33.547726,26.889553,23.870998,24.689753,27.415058,29.758829,30.515831,29.915035,28.957083,28.432779,28.367035,28.179764,27.294008,25.653116,23.770411,22.339735,21.753048,21.885258,22.253719,22.370916,22.005964,21.202051,20.119865,18.896523,17.641592,16.522564,15.790495,15.659259,16.118477,16.867601,17.487915,17.761463,17.878212,18.313604,19.410578,20.976204,22.261116,22.437922,21.289225,19.572922,18.683943,19.726011,22.603466,25.846165,27.441061,26.215652,22.814043,19.44491,18.355728,19.921669,21.672543,19.139797,8.2878428,-11.804362,-37.677498,-62.583256,-79.492691,-84.398361,-78.067589,-65.307907,-52.273758,-43.450459,-40.015396,-40.298916,-41.720398,-42.741051,-43.558788,-45.278545,-48.389584,-51.815475,-53.309811,-50.940937,-44.590233,-36.353485,-29.493732,-26.59754,-28.133448,-32.3302,-36.399124,-38.246464,-37.553673,-35.599499,-34.080238,-33.832329,-34.345539,-34.330502,-32.842358,-30.102945,-27.433495,-26.378832,-27.676741,-30.801067,-34.361969,-37.027737,-38.293346,-38.585018,-38.709305,-39.128532,-39.629974,-39.611507,-38.712425,-37.253349,-36.108788,-36.088779,-37.300476,-38.993961,-40.039783,-39.707237,-38.172264,-36.36927,-35.280739,-35.181515,-35.404987,-34.830193,-32.761562,-29.566725,-26.579601,-25.275301,-26.235357,-28.590269,-30.333977,-29.349655,-24.542437,-16.427593,-6.8824577,1.7231339,7.4852219,9.5281935,8.0161352,3.803715,-1.9538755,-8.0436182,-13.329978,-16.933552,-18.504934,-18.443174,-17.811687,-17.845146,-19.247992,-21.720781,-24.094362,-25.083429,-24.221107,-22.335251,-21.165043,-22.278429,-25.968332,-30.899164,-34.83213,-36.036545,-34.477131,-31.932945,-30.858799,-32.641762,-36.375217,-39.025986,-37.024437,-28.387205,-14.085921,2.21662,15.965247,24.010893,26.069033,24.519409,22.744385,23.071802,25.571939,28.365046,29.127285,26.762703,22.176178,17.719084,15.743433,17.228489,21.325087,26.018305,29.39328,30.664478,30.372623,29.752821,29.807148,30.730953,32.009319,32.991058,33.432884,33.592499,33.843819,34.180843,34.074501,32.876305,30.524981,28.027321,27.270901,30.139084,37.370438,47.819798,58.59243,66.048592,67.203949,60.85844,47.960804,31.126518,13.61894,-1.7231685,-13.216327,-20.559666,-24.615564,-26.905571,-28.988588,-31.867149,-35.570938,-39.07225,-40.629765,-38.500431,-31.760214,-20.856728,-7.5896974,5.5221677,16.208233,23.278078,26.91765,28.34153,29.041367,30.063414,31.679842,33.545822,35.141991,36.170147,36.66473,36.814575,36.690853,36.115597,34.774223,32.483551,29.414488,26.107365,23.26598,21.461082,20.916227,21.474226,22.71965,24.155203,25.341183,25.975805,25.947542,25.380121,24.636684,24.217377,24.531246,25.631622,27.092176,28.173754,28.269913,27.405178,26.444777,26.769217,29.459791,34.37566,39.67136,42.162952,38.539307,26.933863,8.0963974,-14.488711,-35.721054,-50.8139,-57.177135,-55.375557,-48.707863,-41.613678,-37.684696,-38.237877,-42.105175,-46.659641,-49.461906,-49.612129,-48.091251,-46.964314,-47.969734,-51.362301,-55.711929,-58.776672,-58.909042,-56.119164,-52.120384,-49.311398,-49.320496,-52.028881,-55.702976,-58.165543,-58.261356,-56.661037,-55.450207,-56.725266,-61.072205,-66.911377,-71.170448,-70.922974,-65.026291,-54.791546,-43.314617,-33.900742,-28.518814,-27.127485,-28.123831,-29.487646,-29.862804,-28.997972,-27.474138,-26.095028,-25.416948,-25.642813,-26.754982,-28.608717,-30.851763,-32.812321,-33.626583,-32.705799,-30.29162,-27.62594,-26.417082,-27.776882,-31.292376,-34.971962,-36.317165,-33.983448,-28.950329,-24.268597,-23.294186,-27.354345,-34.321873,-39.171917,-36.436844,-23.260534,-1.2746758,23.870926,45.136597,57.422516,59.752224,55.184566,48.693909,44.402115,43.777908,45.659924,47.760864,48.465164,47.740582,46.748482,46.670788,47.731476,49.114719,49.739452,49.210571,48.181667,47.854618,49.012955,51.335762,53.522846,54.157501,52.692451,49.856941,47.198334,46.078876,46.813953,48.516922,49.716084,49.296574,47.143574,44.116287,41.452568,40.052238,40.091644,41.127079,42.497616,43.690731,44.45694,44.711987,44.425457,43.644695,42.612869,41.798119,41.697525,42.486439,43.772102,44.701038,44.436069,42.724289,40.155987,37.886848,36.9627,37.685917,39.465279,41.270966,42.390133,42.950806,43.829178,45.985203,49.684502,54.162571,57.992195,59.928135,59.666363,58.00716,56.317184,55.660362,56.180443,57.126213,57.45834,56.586666,54.728687,52.677662,51.195923,50.493946,50.155975,49.519855,48.187729,46.277901,44.262184,42.571159,41.321762,40.392189,39.744427,39.641827,40.450703,42.047066,43.232918,41.69376,34.757973,20.695211,-0.13658226,-25.003944,-49.635319,-69.804634,-82.847519,-88.351021,-87.764343,-83.305176,-76.884163,-69.634369,-62.142597,-54.988205,-49.040314,-45.226189,-43.94828,-44.642227,-45.900406,-46.183331,-44.698326,-41.865604,-39.039978,-37.646427,-38.281895,-40.360046,-42.513836,-43.470104,-42.812576,-41.149506,-39.620724,-39.119968,-39.77211,-40.990913,-42.017281,-42.506271,-42.723789,-43.223385,-44.268734,-45.459641,-45.87183,-44.64212,-41.596054,-37.467571,-33.536236,-30.911646,-29.938385,-30.105457,-30.48583,-30.363756,-29.595121,-28.469933,-27.23996,-25.741968,-23.478395,-20.14769,-16.214582,-12.989392,-11.975658,-13.779668,-17.2859,-19.768995,-18.094547,-10.456202,2.3396292,16.876303,28.554173,33.740711,31.481359,23.828703,14.633226,7.5166807,4.1872616,3.9936016,4.8332858,4.7270508,3.0389037,0.64172208,-0.94233716,-0.74695712,0.92778903,2.7401514,3.2483582,1.8852686,-0.6935569,-3.0817556,-4.0438399,-3.2432466,-1.3182088,0.67009383,1.9667382,2.5052326,2.7238166,3.0359149,3.4173069,3.4467602,2.7526107,1.4771307,0.33940014,0.18577769,1.3329064,3.2108006,4.6326551,4.568944,2.9102194,0.66359431,-0.60639888,0.24333076,3.1847453,7.0138726,10.107102,11.432275,11.132103,10.297127,10.115308,11.022997,12.474797,13.497766,13.616976,13.449185,14.474392,18.072548,24.452169,32.21637,38.915035,42.284,41.41346,37.131401,31.401096,26.163181,22.377094,19.827967,17.713245,15.500846,13.413223,12.214144,12.507493,14.113673,16.021183,16.980284,16.33041,14.473817,12.648985,12.140751,13.448472,15.954192,18.28854,19.131237,17.923689,15.073116,11.594361,8.4952726,6.3228469,5.1037455,4.6008425,4.6069617,5.0395474,5.8200102,6.7229061,7.3962555,7.5817146,7.3551769,7.1510196,7.4871726,8.5594978,10.015849,11.122094,11.248604,10.345882,9.050231,8.3063374,8.746418,10.261842,12.084802,13.334353,13.634977,13.348475,13.237847,13.811323,14.856856,15.561172,15.176163,13.756673,12.381344,12.597044,15.386385,20.352139,25.734091,29.342993,29.858644,27.644915,24.512684,22.55051,22.780901,24.541187,26.015022,25.560867,22.928373,19.513405,17.45141,18.151894,21.280504,24.911463,26.781164,25.809059,22.840399,20.065374,19.454964,21.234331,23.427864,22.83831,16.901354,5.2879367,-9.725749,-24.339725,-35.104965,-40.493191,-41.313732,-39.872845,-38.512562,-38.448551,-39.520004,-40.821659,-41.650375,-42.091442,-42.908333,-44.907749,-48.280159,-52.372852,-56.016144,-58.151192,-58.347584,-56.922661,-54.658726,-52.351048,-50.468292,-49.076084,-47.988159,-46.997147,-46.046238,-45.283627,-45.013348,-45.576336,-47.187355,-49.762371,-52.809711,-55.483803,-56.855392,-56.328259,-54.000175,-50.732533,-47.818764,-46.375694,-46.778019,-48.470505,-50.289433,-51.119202,-50.497528,-48.810123,-46.973293,-45.825172,-45.621037,-45.942383,-46.045799,-45.391647,-43.994278,-42.381199,-41.224518,-40.918541,-41.383156,-42.187733,-42.859489,-43.133385,-42.981136,-42.450478,-41.494499,-39.964134,-37.786091,-35.178997,-32.708794,-31.092642,-30.848774,-32.012074,-34.101036,-36.354836,-38.086193,-38.93943,-38.9361,-38.348385,-37.537193,-36.860069,-36.640064,-37.107185,-38.264828,-39.764767,-40.967339,-41.29335,-40.742195,-40.212242,-41.23111,-44.99234,-51.083126,-56.668774,-56.863674,-46.482208,-22.564455,13.527225,55.639313,94.488297,120.89655,129.1985,119.26146,96.219345,68.131577,42.752258,24.9153,15.582133,12.665396,12.878017,13.510261,13.320222,12.377995,11.302124,10.537575,10.102146,9.7957554,9.5424271,9.5120831,9.9147787,10.658935,11.191578,10.707872,8.6356506,5.0773382,0.8889938,-2.6996338,-4.7204366,-4.97931,-4.1342411,-3.2928889,-3.3759339,-4.6273479,-6.5495729,-8.2726202,-9.1044807,-8.9178991,-8.1536617,-7.4732904,-7.3086257,-7.5999393,-7.8709679,-7.5632796,-6.3949175,-4.517077,-2.3985286,-0.55429429,0.67817098,1.1782097,0.91937041,-0.16462785,-2.1780777,-5.10816,-8.6510305,-12.199761,-15.06527,-16.809605,-17.447788,-17.334404,-16.776428,-15.649021,-13.347891,-9.2108345,-3.1928885,3.674186,9.4540739,12.151628,10.798981,6.1026073,0.16430674,-4.6534219,-7.0672135,-7.5632548,-7.9369059,-9.9059219,-13.662678,-17.346498,-17.88755,-12.80348,-1.8740369,12.379304,25.787392,34.614655,37.415112,35.575695,32.262867,30.465094,31.350437,33.910225,36.009602,36.074165,34.279579,32.490688,33.041897,37.195911,44.286701,52.065731,57.979851,60.542828,59.970615,57.784031,55.754467,54.930813,55.332825,56.379627,57.621971,59.196793,61.688747,65.544533,70.50679,75.507446,79.130661,80.37059,79.227699,76.806435,74.884605,75.205734,78.835953,85.820518,95.188492,105.22552,113.90927,119.42813,120.69764,117.73191,111.6866,104.45995,97.938683,93.206749,90.130249,87.58223,84.224464,79.418404,73.722054,68.64473,65.767029,65.728027,67.686005,69.599052,69.200089,65.140587,57.684235,48.590057,40.270271,34.680313,32.500099,32.972576,34.413559,35.094498,34.065964,31.561134,28.822939,27.437506,28.447927,31.621815,35.221756,36.466423,32.591843,22.118696,5.7493086,-13.605247,-31.805689,-45.10704,-51.67701,-52.250523,-49.570587,-46.903786,-46.426449,-48.344891,-51.181393,-52.972431,-52.602314,-50.455044,-48.033329,-46.865368,-47.464828,-49.043098,-50.145527,-49.751415,-48.062229,-46.415794,-46.360535,-48.502708,-51.910423,-54.505749,-54.232681,-50.281845,-43.612442,-36.459938,-31.150774,-28.95273,-29.618908,-31.809185,-34.024895,-35.428596,-36.084461,-36.594421,-37.498634,-38.89534,-40.493267,-41.951588,-43.16486,-44.24749,-45.264118,-45.990921,-45.980392,-44.942833,-43.158585,-41.545219,-41.219845,-42.777699,-45.771309,-48.802807,-50.254253,-49.232986,-46.121346,-42.344257,-39.47327,-38.232948,-38.05629,-37.483456,-35.14407,-30.68034,-25.014206,-19.803165,-16.463593,-15.407045,-15.962049,-16.97175,-17.605726,-17.808384,-18.094666,-18.882195,-19.881416,-20.023987,-18.033033,-13.28968,-6.4353638,0.69714636,5.81953,7.1936994,4.3767767,-1.6417212,-8.9049301,-15.25792,-19.047497,-19.511229,-16.821154,-11.885722,-6.0313716,-0.63736689,3.2289412,5.0996895,5.2036414,4.2922311,3.2392733,2.6067381,2.422112,2.3031566,1.8442969,0.99360371,0.14258905,-0.15372616,0.36271465,1.3542402,2.0049043,1.5250018,-0.27310494,-2.7266545,-4.606987,-4.7938304,-2.9282293,0.36779222,3.8446155,6.3268499,7.3265252,7.2064295,6.8364177,7.0051389,7.9748197,9.4294176,10.782874,11.588129,11.765836,11.542283,11.205599,10.894289,10.564196,10.114367,9.5314636,8.9248152,8.443409,8.1771317,8.1495123,8.4066391,9.0964746,10.422191,12.465591,15.017938,17.593163,19.673918,21.037228,21.893797,22.675739,23.579802,24.21748,23.722267,21.3626,17.288662,12.819995,9.881424,9.7548409,11.880597,13.592173,11.209827,2.0723436,-13.621286,-32.349159,-48.659939,-57.796112,-58.108784,-51.85273,-43.857422,-38.826653,-38.847672,-42.556267,-46.37772,-46.986412,-43.406734,-37.465611,-32.403385,-30.635902,-32.170647,-34.698086,-35.245541,-32.250801,-26.661312,-21.337799,-19.175495,-21.193533,-25.8417,-29.955219,-30.711248,-27.315887,-21.369431,-15.746478,-12.781163,-12.94515,-14.815576,-16.247162,-15.88872,-14.019366,-12.197014,-12.033052,-13.974135,-16.924391,-18.943129,-18.527185,-15.617709,-11.681471,-8.8390722,-8.6195431,-11.122956,-15.067303,-18.614462,-20.404631,-20.163465,-18.58536,-16.681702,-15.089019,-13.780623,-12.292533,-10.21173,-7.5304694,-4.618382,-1.8751022,0.6339854,3.2524192,6.4361615,10.289217,14.275633,17.349976,18.472012,17.207769,14.043477,10.202426,7.0528679,5.440733,5.3234801,5.8998117,6.1396646,5.3953404,3.7452567,1.8935435,0.71142673,0.7036857,1.7077049,2.9809952,3.6048939,2.9605682,1.0142238,-1.7208972,-4.4803443,-6.5947185,-7.6708474,-7.5208902,-5.9325266,-2.4932239,3.3391964,11.883687,22.767841,34.637585,45.297161,52.328766,53.975632,49.892429,41.383209,30.969654,21.454355,14.896672,11.964192,11.93185,13.273802,14.505145,14.835892,14.340984,13.639055,13.339526,13.613809,14.128721,14.333376,13.872232,12.837498,11.700747,10.985188,10.909968,11.248108,11.488593,11.186486,10.26027,9.0371656,8.0229511,7.5643444,7.6450472,7.9610596,8.2190781,8.4345989,8.993474,10.40061,12.867877,16.032244,19.036322,20.972273,21.431717,20.799412,20.063179,20.218109,21.623941,23.737917,25.428802,25.705833,24.4076,22.39226,21.07449,21.583052,24.083994,27.734138,31.327147,34.220928,36.907505,40.777889,47.147984,56.125694,66.070175,74.08326,77.350853,74.603867,66.849464,56.926601,48.12664,42.664333,40.848324,41.349186,42.290695,42.425259,41.680359,40.83567,40.677944,41.289608,41.96936,41.794563,40.370663,38.195595,36.36404,35.822227,36.705379,38.223156,39.161621,38.637917,36.586983,33.680733,30.803303,28.511208,26.872213,25.740927,25.163424,25.501284,27.113745,29.843111,32.779785,34.626911,34.523529,32.761414,30.795206,30.385754,32.357395,35.827507,38.555954,38.340584,34.613827,29.128002,25.10207,25.185383,29.445,34.711372,35.873882,28.530733,11.511126,-12.214989,-36.811501,-56.332508,-67.409714,-70.415703,-68.602592,-65.911972,-64.845619,-65.587463,-66.669022,-66.494255,-64.606735,-61.911842,-59.866604,-59.345661,-60.031971,-60.72673,-60.289272,-58.494308,-56.200314,-54.743752,-55.016838,-56.876019,-59.261002,-60.899075,-61.090786,-60.06543,-58.728291,-58.034706,-58.43322,-59.707039,-61.231094,-62.392109,-62.870419,-62.650772,-61.855732,-60.600929,-58.996056,-57.246925,-55.706615,-54.766537,-54.629936,-55.137119,-55.801826,-56.072132,-55.657825,-54.7047,-53.694401,-53.136551,-53.259121,-53.895252,-54.620792,-55.027512,-54.94133,-54.458435,-53.812759,-53.198078,-52.671638,-52.179554,-51.646515,-51.041077,-50.375359,-49.669586,-48.940086,-48.231617,-47.653378,-47.356354,-47.435627,-47.816971,-48.223202,-48.271622,-47.658932,-46.32058,-44.469189,-42.507622,-40.898872,-40.079292,-40.419716,-42.153599,-45.201851,-48.953587,-52.209801,-53.507629,-51.834145,-47.406399,-41.978668,-38.263741,-38.540092,-43.104084,-49.51442,-53.28989,-49.936611,-37.334896,-17.156116,5.5952744,24.79582,36.024586,38.453407,34.789803,29.397491,25.778873,24.923052,25.40852,25.007347,22.607859,19.146114,16.968533,18.129818,22.836147,29.115635,33.946587,35.088982,32.409222,27.85178,24.126118,23.014231,24.408867,26.652916,27.859686,27.262571,25.682425,24.851521,26.125734,29.506948,33.640228,36.749187,37.828159,37.258137,36.441753,36.743553,38.495464,40.763954,42.034595,41.329353,38.970333,36.437595,35.376499,36.384983,38.37846,38.98489,35.788822,27.71908,15.777637,2.6847787,-8.368144,-15.177546,-17.424822,-16.575331,-14.89728,-14.1779,-14.83654,-15.877278,-15.647692,-12.940145,-7.8113661,-1.6751359,3.3681939,5.5898528,4.5068526,1.1180884,-2.5954101,-4.6112976,-3.7424746,-0.022780091,5.5176563,11.466599,16.640862,20.388147,22.531897,23.15324,22.459099,20.831648,18.927776,17.594711,17.494585,18.607824,19.996523,20.152025,17.905285,13.444903,8.7758713,7.1615882,11.656628,23.431416,40.825745,59.752655,75.354118,84.100204,85.253311,80.960289,74.987457,70.831474,70.211464,72.648163,76.183472,78.695755,79.050095,77.547615,75.594765,74.899681,76.626045,80.817307,86.209511,90.432625,90.577065,84.07769,69.747093,48.601593,24.025833,0.97916764,-15.627604,-22.76807,-20.491287,-11.831891,-1.4218125,6.5297561,9.8807831,9.0399494,6.1648235,3.6535211,2.8345461,3.5347912,4.6060977,4.9147596,4.1000066,2.667845,1.4862951,1.1303941,1.5534676,2.2589319,2.7658138,2.9764934,3.1786466,3.7207778,4.649333,5.6032248,6.0432138,5.6288867,4.4504714,2.9468062,1.5885376,0.57943791,-0.200445,-0.98831481,-1.8570433,-2.5998693,-2.8799419,-2.5216432,-1.6986815,-0.85088015,-0.38056794,-0.36695328,-0.54076707,-0.56597716,-0.42479333,-0.58905673,-1.7874372,-4.4667015,-8.2947836,-12.075953,-14.210267,-13.480236,-9.718997,-3.9640396,2.0002625,6.4506054,8.4344854,8.0234766,6.0473027,3.5460641,1.2956076,-0.35593128,-1.3497527,-1.6826166,-1.3051628,-0.22996482,1.2678735,2.5690188,2.884053,1.6332674,-1.1848992,-4.8818173,-8.3330183,-10.493402,-10.905163,-9.9200125,-8.5070724,-7.7416739,-8.243784,-9.863451,-11.781649,-12.977068,-12.815852,-11.451026,-9.8080378,-9.1403294,-10.362971,-13.501584,-17.558538,-20.907644,-22.068213,-20.504219,-17.048,-13.693238,-12.781143,-15.894896,-22.947226,-31.910095,-39.393909,-41.923969,-37.428761,-26.296909,-11.471218,2.5788071,11.660033,13.671019,9.5598335,2.8710022,-2.0215633,-2.2041922,2.1215081,7.5581121,9.1810083,3.1803272,-10.913285,-29.688383,-47.406521,-58.890877,-62.177742,-59.411411,-55.409981,-54.66367,-58.47374,-63.917389,-65.307404,-57.378078,-38.41391,-11.548845,16.499962,38.55299,50.224277,51.594936,46.55492,40.387218,37.061615,37.688938,40.757523,43.698177,44.658958,43.450649,41.296593,39.791977,39.86623,41.373566,43.415634,45.021011,45.670353,45.384544,44.45982,43.15514,41.584141,39.82827,38.084892,36.654778,35.744888,35.255257,34.763683,33.776474,32.093048,30.016106,28.227448,27.384584,27.701731,28.803137,29.9538,30.512541,30.300861,29.646057,29.088627,28.975634,29.229496,29.443485,29.21586,28.466864,27.503685,26.786388,26.565861,26.658239,26.52746,25.636538,23.844158,21.586184,19.709114,19.025892,19.817778,21.52895,22.800232,21.838057,16.993114,7.3669372,-6.7366185,-23.668621,-40.698288,-54.681259,-62.986572,-64.387848,-59.557011,-50.893272,-41.676937,-34.856178,-31.985399,-32.799358,-35.614052,-38.33337,-39.532028,-39.058392,-37.877254,-37.29953,-38.078751,-39.905186,-41.573505,-41.697521,-39.533264,-35.429291,-30.660645,-26.769264,-24.80547,-24.892439,-26.317289,-28.037111,-29.266689,-29.809254,-29.984045,-30.260862,-30.871805,-31.647373,-32.151379,-31.988707,-31.060392,-29.596695,-27.962872,-26.391302,-24.843172,-23.112988,-21.118837,-19.180868,-18.072166,-18.748669,-21.859985,-27.29711,-34.048985,-40.496918,-45.043396,-46.77647,-45.827576,-43.226379,-40.323441,-38.095219,-36.72298,-35.687969,-34.320728,-32.452744,-30.724421,-30.282967,-31.975334,-35.493412,-39.037498,-39.832569,-35.361835,-24.73501,-9.4552078,6.8930902,19.964325,26.37118,24.974283,17.141926,5.9258876,-5.3505845,-14.351733,-20.271605,-23.559019,-25.175119,-25.910257,-26.120049,-25.886276,-25.322592,-24.711704,-24.365591,-24.364357,-24.441263,-24.161182,-23.286547,-22.045198,-21.057125,-20.924334,-21.757172,-22.994947,-23.696074,-23.141731,-21.350626,-19.130367,-17.590895,-17.419394,-18.401726,-19.531746,-19.663006,-18.285656,-15.912523,-13.805879,-13.209399,-14.576098,-17.284241,-20.009455,-21.494616,-21.215719,-19.539312,-17.326614,-15.307418,-13.673096,-12.147415,-10.433665,-8.6659489,-7.4996219,-7.7476649,-9.8075294,-13.285728,-17.102898,-20.038704,-21.380415,-21.269915,-20.543827,-20.186026,-20.745377,-22.066923,-23.464527,-24.184837,-23.858707,-22.685854,-21.292,-20.391182,-20.461704,-21.583023,-23.457909,-25.553934,-27.28536,-28.189518,-28.074636,-27.100698,-25.734865,-24.551119,-23.935003,-23.852661,-23.856503,-23.379763,-22.170938,-20.576284,-19.421564,-19.48649,-20.866373,-22.6642,-23.31329,-21.447006,-16.839849,-10.815297,-5.7746072,-4.0198703,-6.5076795,-12.267775,-18.863689,-23.660521,-25.176428,-23.74074,-21.104866,-19.288233,-19.390356,-21.081621,-23.024078,-23.876532,-23.192945,-21.640001,-20.4415,-20.470901,-21.620779,-22.857445,-22.892174,-20.99752,-17.434528,-13.252042,-9.6497488,-7.3589244,-6.4240813,-6.4430285,-6.9963164,-7.9056954,-9.1538506,-10.605584,-11.844105,-12.334153,-11.828151,-10.681783,-9.7580023,-9.8907652,-11.244748,-13.057727,-14.038381,-13.232572,-10.786079,-8.022007,-6.6706862,-7.6807017,-10.393683,-12.703778,-12.211441,-7.7055345,-0.031706832,8.2562275,14.300716,16.545361,15.528245,13.359521,12.23199,12.951918,14.470636,14.738432,12.320997,7.6977291,3.349853,2.5224378,7.399868,17.809875,31.232895,44.076122,53.415867,58.194241,59.28043,58.552376,57.714375,57.597588,58.234077,59.418106,61.184971,63.814896,67.426041,71.582199,75.328621,77.706528,78.379913,77.875282,77.205345,77.123665,77.573792,77.793457,77.062309,75.573822,74.750084,76.648247,82.726028,92.716934,104.36889,114.29774,119.52048,118.81012,113.1277,104.951,96.961235,90.864098,86.942192,84.427116,82.297058,79.947594,77.394089,75.038864,73.295753,72.357567,72.187607,72.616554,73.391388,74.149773,74.433441,73.85585,72.385574,70.534271,69.221802,69.289886,70.920151,73.357788,75.199539,75.139061,72.724075,68.625755,64.220795,60.748924,58.608341,57.26207,55.799118,53.725433,51.392551,49.737652,49.522484,50.646191,52.074524,52.484737,51.186714,48.647236,46.203945,45.139618,45.775902,47.271637,48.327194,48.333069,48.130486,49.763538,55.274361,65.273438,78.226456,90.973557,100.20976,104.03449,102.64645,97.834648,91.703629,85.531837,79.491898,73.294968,67.138756,62.124672,59.716061,60.547215,63.438122,65.42382,62.980045,53.828896,38.275436,19.254526,1.0193813,-12.799129,-20.689611,-23.54837,-23.734318,-23.56385,-24.156366,-25.216784,-25.709257,-24.85305,-22.763803,-20.383919,-18.842247,-18.724257,-19.731033,-20.906635,-21.245743,-20.288927,-18.369913,-16.418329,-15.472518,-16.176731,-18.492693,-21.714962,-24.741804,-26.478411,-26.235371,-24.000374,-20.487043,-16.912971,-14.547515,-14.182856,-15.7616,-18.369438,-20.649235,-21.471262,-20.526144,-18.507486,-16.748032,-16.474756,-18.084038,-20.858639,-23.319992,-24.047457,-22.507437,-19.39876,-16.277941,-14.645221,-15.010412,-16.505518,-17.318806,-15.743863,-11.246385,-4.8968439,1.141232,4.8182783,5.4020972,3.926451,2.5437305,3.0979755,5.7500391,8.5306587,8.20193,2.0384603,-10.453669,-26.902861,-42.977165,-54.412762,-59.0872,-58.004036,-54.656998,-53.15144,-56.144394,-63.721439,-73.739487,-83.298424,-90.388443,-94.749985,-97.550377,-100.24231,-103.43974,-106.55081,-108.34309,-107.97805,-105.75863,-103.06246,-101.50774,-101.92282,-103.81679,-105.70487,-106.071,-104.33525,-101.20475,-98.202301,-96.702232,-97.1045,-98.66024,-100.01941,-100.10788,-98.756355,-96.702888,-95.020081,-94.38578,-94.685631,-95.181717,-95.092072,-94.164848,-92.861839,-92.048302,-92.416763,-94.032257,-96.283295,-98.245224,-99.204376,-99.016678,-98.111237,-97.184769,-96.805328,-97.153839,-98.003937,-98.884758,-99.294861,-98.866241,-97.456123,-95.189774,-92.457863,-89.831024,-87.863228,-86.838097,-86.608467,-86.683868,-86.581947,-86.243477,-86.182388,-87.144821,-89.378517,-91.968773,-92.804695,-89.442322,-80.546875,-67.086731,-52.410229,-40.895718,-35.756805,-37.247704,-42.45166,-46.973335,-47.658207,-44.690769,-41.651035,-43.303738,-52.366623,-67.300812,-82.687286,-92.193367,-92.424835,-85.21978,-76.738869,-73.646446,-78.580032,-87.740799,-92.312065,-83.14608,-56.122917,-15.064662,29.555492,65.439095,84.131096,84.445908,71.996002,55.482124,42.154099,35.014534,32.950089,33.049461,33.175838,33.088268,33.7285,35.6758,38.234509,39.912209,39.793617,38.52005,37.868771,39.075455,41.162464,40.727226,33.686081,18.008591,-4.4089642,-28.183512,-47.151241,-57.704876,-60.574635,-59.81226,-59.591583,-60.959637,-60.786213,-53.74052,-36.08746,-8.8130016,22.057178,48.295273,63.769913,67.558937,63.995007,59.726257,59.732849,64.790466,71.803505,76.513062,76.610352,73.196579,69.794113,69.80407,74.261047,81.368561,87.955101,91.665428,92.310143,91.542313,91.303543,92.330299,93.844208,94.543335,93.960121,92.961784,92.86544,93.795547,93.640388,88.671661,75.730881,54.663338,29.297461,6.0670929,-9.1206026,-13.957284,-10.85059,-5.3438396,-2.7591174,-5.0892305,-9.9976149,-12.462983,-7.9817758,4.6550956,22.635202,40.74044,54.181915,60.906315,62.118904,60.968807,60.436787,61.784878,64.366898,66.626595,67.403366,66.642273,65.178688,63.961769,63.401569,63.299564,63.291805,63.328526,63.733597,64.782005,66.172707,66.903046,65.762878,62.176762,56.802647,51.399261,47.946312,47.521252,49.637745,52.487175,53.962311,52.85133,49.487698,45.48595,42.75444,42.395966,44.136578,46.57074,48.019131,47.46756,45.065685,41.965511,39.662174,39.236919,40.890663,43.946796,47.246502,49.694435,50.695522,50.319126,49.164013,48.013744,47.440578,47.528656,47.843109,47.671677,46.436771,44.073727,41.161324,38.702183,37.639805,38.36216,40.47086,42.958572,44.704853,45.015255,43.906601,42.000553,40.124329,38.878952,38.420895,38.534554,38.875084,39.174858,39.281612,39.06382,38.338501,36.951672,34.987938,32.930401,31.570858,31.626492,33.253117,35.785145,37.950073,38.526619,37.108189,34.50993,32.519863,33.064312,37.211319,44.551495,53.296349,61.037891,65.759254,66.578743,63.895248,58.94949,53.108608,47.266075,41.611576,35.788532,29.271793,21.751299,13.374928,4.801403,-2.9278445,-8.671896,-11.581325,-11.491198,-9.144001,-6.0716996,-4.0895967,-4.5667214,-7.8141184,-12.935929,-18.273643,-22.242764,-24.114574,-24.304237,-24.00795,-24.422215,-26.031017,-28.393486,-30.535471,-31.656849,-31.670465,-31.218178,-31.173298,-31.990381,-33.361965,-34.424953,-34.37619,-33.072823,-31.200817,-29.886988,-30.004318,-31.623074,-33.958836,-35.839306,-36.380848,-35.452084,-33.666515,-31.963118,-31.081457,-31.260424,-32.294594,-33.826271,-35.616459,-37.604786,-39.764149,-41.921757,-43.730423,-44.834553,-45.102753,-44.733383,-44.132874,-43.646286,-43.343266,-43.030525,-42.492393,-41.779724,-41.312702,-41.683281,-43.258179,-45.84071,-48.635109,-50.573578,-50.836643,-49.272358,-46.480721,-43.529049,-41.471622,-40.933048,-41.943985,-44.053219,-46.597145,-48.964474,-50.751106,-51.792213,-52.117199,-51.875298,-51.254147,-50.402611,-49.384121,-48.199173,-46.888016,-45.658466,-44.927383,-45.183369,-46.688683,-49.18272,-51.815979,-53.454746,-53.272816,-51.31953,-48.685253,-47.058628,-47.81329,-51.078743,-55.334087,-57.834713,-55.748547,-47.480648,-33.533073,-16.461838,0.062294878,12.649487,19.407549,20.468445,17.666378,13.593999,10.497219,9.4709358,10.230827,11.472862,11.60848,9.5485067,5.2201743,-0.37951404,-5.6047945,-8.8724356,-9.3488035,-7.2983098,-3.9282219,-0.80788326,0.84354299,0.64001292,-0.94691795,-2.9900935,-4.6659832,-5.6337805,-6.0391488,-6.2045846,-6.2692504,-6.0528269,-5.2376943,-3.721801,-1.8623015,-0.40246767,-0.09843535,-1.2802657,-3.6367841,-6.3690033,-8.6136417,-9.8678474,-10.163152,-9.9201641,-9.628583,-9.5879374,-9.8600159,-10.401187,-11.208699,-12.329467,-13.721923,-15.107309,-15.970423,-15.746521,-14.060669,-10.817163,-6.0453472,0.37337777,8.8179903,19.658068,32.651527,46.37162,58.141785,64.744362,63.714771,54.607208,39.514229,22.450212,7.8097439,-1.3626952,-4.4278793,-3.0295076,0.063170657,2.4572771,3.1594319,2.6415987,2.0657434,2.2586141,3.106488,3.7025599,3.0667806,0.90175396,-2.1357672,-4.8165092,-6.1002398,-5.7638807,-4.4891787,-3.3716197,-3.1914089,-3.9303601,-4.8404512,-4.9991708,-3.9700181,-2.1298623,-0.45478284,0.084441252,-0.88203132,-2.9160628,-5.0656705,-6.4444509,-6.7085128,-6.1371427,-5.3085322,-4.6368237,-4.1117616,-3.4114089,-2.2704515,-0.79368633,0.55044127,1.2687629,1.2545282,0.92859566,0.95362794,1.6944635,2.8275094,3.4423776,2.6414895,0.25543919,-2.8569345,-5.2208085,-5.6773491,-4.2299747,-2.1784344,-1.3489717,-2.8580718,-6.2390413,-9.6064539,-10.880654,-9.3495436,-6.5190582,-5.5662799,-9.5773716,-19.582512,-33.63018,-47.576424,-57.221531,-60.561516,-58.801357,-55.505814,-54.396561,-57.129784,-62.382912,-66.751457,-66.838089,-61.216412,-51.09787,-39.397709,-28.906626,-20.781731,-14.280371,-7.8000956,-0.44215083,6.9801235,12.153334,12.551019,6.9744973,-3.5958223,-16.322254,-27.772964,-35.38467,-38.354301,-37.60051,-34.982147,-32.308773,-30.665001,-30.278708,-30.820612,-31.834099,-33.024025,-34.301079,-35.648716,-36.959393,-37.96571,-38.315739,-37.760883,-36.364006,-34.606323,-33.289127,-33.205963,-34.691185,-37.268688,-39.640812,-40.118046,-37.341419,-30.934795,-21.70343,-11.222722,-1.025357,8.1338892,16.476236,24.730696,33.312923,41.723339,48.617344,52.558117,52.982872,50.727741,47.711567,45.922455,46.323696,48.371452,50.451015,50.942295,49.218704,45.943256,42.510876,40.063709,38.780338,37.924213,36.586472,34.560917,32.692875,32.41634,34.772976,39.586807,45.381573,50.132889,52.385418,52.021061,50.20116,48.55471,48.168911,49.034405,50.257534,50.824619,50.354416,49.32901,48.689091,49.123985,50.571503,52.26001,53.226772,52.927345,51.524494,49.70639,48.220177,47.473488,47.44968,47.911842,48.658031,49.596603,50.612686,51.412777,51.573704,50.841316,49.467121,48.260773,48.193455,49.725685,52.303734,54.445118,54.485107,51.596672,46.446167,41.008728,37.57045,37.473167,40.358459,44.388241,47.323532,47.809547,46.089645,43.735561,42.599834,43.669426,46.53001,49.732346,51.770618,52.015026,51.012131,50.006588,50.045303,51.270363,52.850945,53.56979,52.660717,50.35104,47.766048,46.251835,46.513191,48.053226,49.215744,47.805744,41.98708,31.057608,15.793965,-1.7408243,-18.826139,-32.907734,-42.329018,-46.726292,-46.967247,-44.681927,-41.597977,-38.970951,-37.343296,-36.684299,-36.752457,-37.409821,-38.683273,-40.573246,-42.81411,-44.840195,-46.055359,-46.246422,-45.816425,-45.590984,-46.248238,-47.740211,-49.164856,-49.298141,-47.532627,-44.599934,-42.469048,-43.265987,-47.706726,-53.960945,-57.754776,-53.883579,-38.495262,-11.008956,25.326431,64.519783,99.991547,126.70132,142.28047,146.84993,141.95258,129.425,110.87417,87.876862,62.481339,37.413486,15.658769,-0.41797203,-9.892025,-13.526182,-13.288698,-11.427024,-9.6169186,-8.5992804,-8.3713799,-8.664052,-9.3267488,-10.396483,-11.902328,-13.646514,-15.185779,-16.051388,-16.047113,-15.399204,-14.638548,-14.285152,-14.539714,-15.178474,-15.713421,-15.717821,-15.129921,-14.373843,-14.241012,-15.586536,-18.961964,-24.319304,-30.89942,-37.373241,-42.232883,-44.330246,-43.362312,-40.067513,-35.982044,-32.804024,-31.636864,-32.494411,-34.354652,-35.767387,-35.703968,-34.174904,-32.250912,-31.456717,-32.874809,-36.474739,-41.059582,-44.865059,-46.471615,-45.518871,-42.84095,-39.98209,-38.395367,-38.774006,-40.847496,-43.685642,-46.276081,-48.029102,-48.956593,-49.485649,-50.064068,-50.792835,-51.266071,-50.67247,-48.096241,-42.896194,-35.03746,-25.272434,-15.097901,-6.4591923,-1.244071,-0.7018972,-4.9956851,-13.089974,-23.067093,-32.780724,-40.585918,-45.827404,-48.869965,-50.67654,-52.167297,-53.702042,-54.953735,-55.219532,-53.969975,-51.304268,-48.037769,-45.362598,-44.271908,-45.075676,-47.281605,-49.899239,-51.978767,-53.065845,-53.318989,-53.254581,-53.316898,-53.56918,-53.702717,-53.333134,-52.350693,-51.056465,-49.975163,-49.47963,-49.513905,-49.643566,-49.421909,-48.806675,-48.287865,-48.570606,-49.988327,-52.066685,-53.618343,-53.412327,-51.037781,-47.371006,-44.241825,-43.398346,-45.372135,-48.992348,-51.946514,-52.125206,-48.941643,-43.76545,-39.127087,-37.129719,-38.045349,-40.001446,-40.002876,-35.694756,-26.798178,-15.355342,-4.6719356,2.3511364,4.4732714,2.2793868,-2.6552033,-8.8581619,-15.4797,-21.924805,-27.025236,-28.594368,-23.978107,-11.480262,8.1883793,31.476244,53.082962,68.152138,74.40657,73.026817,67.778412,62.906025,61.004745,62.029102,63.867802,63.979431,61.029079,55.591892,49.653034,45.370995,43.926533,45.089237,47.601601,49.991562,51.274998,51.219456,50.191017,48.829956,47.781879,47.541367,48.335129,49.997272,51.916862,53.206551,53.13483,51.633759,49.53035,48.233372,48.941261,51.810692,55.653927,58.467953,58.571125,55.675659,51.187294,47.46664,46.449497,48.468964,52.035336,54.740505,54.735744,51.857464,47.698711,44.601505,44.230473,46.631882,50.33379,53.350372,54.386436,53.46645,51.657028,50.182362,49.607998,49.646648,49.638599,49.257336,48.853378,49.160446,50.6035,52.775208,54.537949,54.740318,53.055828,50.320454,48.074619,47.579418,48.971298,51.153084,52.524563,52.073776,50.089996,48.008347,47.485741,49.329609,52.993309,56.955349,59.69429,60.581726,60.105984,59.334854,59.063934,59.295834,59.417931,58.903038,57.947292,57.486839,58.487206,60.956524,63.394596,63.156479,57.628387,45.575489,27.887705,7.3063283,-12.681976,-29.14502,-40.534904,-46.760559,-48.702412,-47.629265,-44.869751,-41.752625,-39.558529,-39.241978,-40.96347,-43.771564,-45.817646,-45.188206,-40.986729,-34.023514,-26.61269,-21.484983,-20.387402,-23.177067,-27.949749,-32.126255,-33.843906,-32.834522,-30.316742,-28.055853,-27.240583,-27.882353,-29.047304,-29.667652,-29.326052,-28.481806,-28.032732,-28.57287,-29.897085,-31.104612,-31.221022,-29.897394,-27.699347,-25.785282,-25.186924,-26.164894,-28.052111,-29.672077,-30.051317,-28.974718,-27.05549,-25.311659,-24.542648,-24.897123,-25.87232,-26.7012,-26.85265,-26.328518,-25.595825,-25.231262,-25.525221,-26.298628,-27.037687,-27.249821,-26.810869,-26.082788,-25.719976,-26.266941,-27.774868,-29.661289,-30.907774,-30.50647,-27.927845,-23.365849,-17.634605,-11.779467,-6.6203947,-2.4772444,0.78610808,3.4549565,5.6095958,6.9655023,7.0234509,5.4408622,2.3814757,-1.4034705,-4.8528671,-7.0993156,-7.9139729,-7.826509,-7.8358464,-8.8642006,-11.255166,-14.587558,-17.891937,-20.13077,-20.671595,-19.514629,-17.19949,-14.498846,-12.100444,-10.437812,-9.7015142,-9.9412613,-11.133974,-13.154927,-15.691452,-18.203211,-20.01226,-20.518908,-19.447376,-16.993019,-13.789326,-10.705858,-8.5680609,-7.9125228,-8.8553619,-11.091129,-13.99559,-16.794342,-18.765928,-19.446678,-18.785021,-17.17524,-15.318689,-13.929678,-13.398314,-13.582031,-13.8662,-13.504228,-12.081228,-9.8431892,-7.6741757,-6.6863999,-7.6164474,-10.360222,-13.92973,-16.890413,-18.059103,-17.079052,-14.546616,-11.620807,-9.3528185,-8.1389742,-7.6203494,-7.067606,-5.9766965,-4.4590716,-3.1375508,-2.5839911,-2.6552782,-2.1920731,0.64199102,7.4822011,18.792355,33.344975,48.475513,61.021057,68.487923,69.883476,65.850754,58.129612,48.706299,39.115459,30.191359,22.255642,15.479705,10.114021,6.4367943,4.511189,3.9862566,4.1408672,4.1875086,3.6598885,2.637634,1.6612269,1.3876493,2.1994369,3.9997807,6.2974238,8.4977961,10.197713,11.302729,11.925907,12.180513,12.042089,11.38686,10.169175,8.5858803,7.0754256,6.1159539,5.938313,6.3488879,6.8017807,6.7017012,5.7608538,4.1838546,2.5527856,1.4717919,1.1879007,1.4282037,1.5645925,1.0139575,-0.36756721,-2.1395252,-3.4766004,-3.6027391,-2.2125278,0.35613468,3.2867525,5.6852336,6.9962287,7.22472,6.8730617,6.652782,7.1250043,8.42939,10.201509,11.702868,12.129071,11.018595,8.6393385,6.1856332,5.6163721,9.0583687,17.897896,31.911785,48.905346,65.200844,76.94854,81.767662,79.927994,74.375023,69.40934,68.532417,72.490074,78.558357,81.558556,76.215576,59.747833,33.405869,2.1770706,-27.207678,-48.984783,-60.484386,-62.729389,-59.382229,-54.730946,-51.790852,-51.388649,-52.47139,-53.228859,-52.290024,-49.375805,-45.21619,-40.974594,-37.621277,-35.598373,-34.852829,-35.079739,-35.954678,-37.230408,-38.719128,-40.256298,-41.709469,-43.012299,-44.159985,-45.13866,-45.84177,-46.067623,-45.645004,-44.623379,-43.381779,-42.533222,-42.632786,-43.849087,-45.816593,-47.792717,-49.050728,-49.276104,-48.717907,-47.997833,-47.700638,-48.011265,-48.629032,-49.001389,-48.707542,-47.731411,-46.451172,-45.373905,-44.814617,-44.742821,-44.886894,-44.99794,-45.067207,-45.337494,-46.108212,-47.486282,-49.268951,-51.040756,-52.406849,-53.189163,-53.450237,-53.347775,-52.954113,-52.196983,-50.975609,-49.35775,-47.685547,-46.474262,-46.140842,-46.736691,-47.87532,-48.923916,-49.350212,-49.010223,-48.20174,-47.465965,-47.279011,-47.824535,-48.946945,-50.230515,-51.057732,-50.550793,-47.457619,-40.182541,-27.150436,-7.5018921,18.150259,47.332367,76.034386,99.769058,114.99184,120.26782,116.64677,107.07407,95.134972,83.743347,74.375954,67.128349,61.417797,56.833374,53.60582,52.44194,53.871662,57.557713,62.047371,65.191963,65.06736,60.921177,53.623566,45.341583,38.565502,34.968338,34.683529,36.375149,38.056942,38.213448,36.611347,34.359615,33.195969,34.41441,38.054779,42.826294,46.811333,48.537197,47.782356,45.638149,43.791481,43.466724,44.678658,46.26627,46.703213,45.197556,42.399017,40.249722,41.020081,46.062073,54.992191,65.777496,75.683701,82.560524,85.767387,86.271629,85.930756,86.412506,88.361465,91.223991,93.73745,94.725998,93.725334,91.121223,87.804581,84.616409,81.932381,79.60231,77.221504,74.519501,71.607979,68.939857,67.013969,66.009933,65.578529,64.93325,63.23151,60.075176,55.87215,51.83065,49.505791,50.033913,53.379108,57.97805,61.043968,59.507816,51.253902,36.114281,16.141182,-5.0188317,-23.409601,-36.152195,-42.329544,-43.015907,-40.516945,-37.248817,-34.806393,-33.604698,-33.139435,-32.599983,-31.446228,-29.665758,-27.665014,-25.959505,-24.898159,-24.572708,-24.907455,-25.809652,-27.250412,-29.226597,-31.654222,-34.292709,-36.772499,-38.725075,-39.948475,-40.520935,-40.802895,-41.318317,-42.552269,-44.730228,-47.655945,-50.680595,-52.848476,-53.206348,-51.184658,-46.895374,-41.190086,-35.408405,-30.893478,-28.484509,-28.231171,-29.475443,-31.25511,-32.806572,-33.889385,-34.762489,-35.853024,-37.346512,-38.973846,-40.142708,-40.334167,-39.501385,-38.185658,-37.228535,-37.213181,-37.959705,-38.404888,-37.000774,-32.475101,-24.573841,-14.385087,-4.0429215,4.0738468,8.2717819,8.1599798,4.6770039,-0.447366,-5.4943042,-9.4166012,-12.06491,-13.941637,-15.6922,-17.650049,-19.672123,-21.300455,-22.094501,-21.906815,-20.950699,-19.661573,-18.477869,-17.683573,-17.373554,-17.499727,-17.917503,-18.400078,-18.669756,-18.520609,-18.03248,-17.746899,-18.608364,-21.561495,-26.925488,-33.899109,-40.598495,-44.798332,-45.124168,-42.079292,-38.246109,-37.37442,-42.685902,-55.229984,-73.187675,-92.554428,-108.88293,-119.17256,-122.92042,-121.85408,-118.64267,-115.44698,-113.17417,-111.75619,-111.04729,-111.51888,-114.10584,-119.21027,-125.55386,-129.80928,-127.53854,-115.15234,-91.89212,-60.696167,-27.360209,1.6692173,21.777996,31.717556,33.510651,30.943424,27.565823,25.262129,24.001158,22.651688,20.196001,16.5807,12.791998,10.259309,10.0506,12.347051,16.428743,21.075693,25.096676,27.716412,28.708559,28.319664,27.093565,25.676998,24.634033,24.281527,24.584379,25.170406,25.49378,25.09663,23.845686,22.0172,20.183065,18.964483,18.788668,19.762804,21.690048,24.166203,26.677376,28.672047,29.648046,29.303383,27.729996,25.533985,23.737473,23.409597,25.151539,28.70562,32.953518,36.382111,37.821373,37.065426,35.012337,33.207695,33.016014,34.869579,38.016453,40.915447,42.064816,40.811592,37.706936,34.230419,32.050026,32.219425,34.72073,38.553661,42.281792,44.731045,45.495758,45.037205,44.37064,44.516788,45.968727,48.384922,50.607048,50.976105,47.829163,40.019329,27.310829,10.54366,-8.4761534,-27.338591,-43.561783,-55.16814,-61.158554,-61.750492,-58.294426,-52.867401,-47.647957,-44.269634,-43.385593,-44.617508,-46.910923,-49.131107,-50.604298,-51.32251,-51.705193,-52.068344,-52.14798,-51.027386,-47.597046,-41.339382,-32.976563,-24.521206,-18.562485,-17.059048,-20.243675,-26.258625,-31.797617,-33.502861,-29.447994,-19.972477,-7.4646564,4.7639356,13.917582,18.756935,19.797544,18.698153,17.275385,16.698635,17.220982,18.444145,19.826595,21.080126,22.257149,23.571882,25.155571,26.936176,28.696218,30.219559,31.392071,32.190098,32.602627,32.591656,32.154228,31.446115,30.849571,30.884504,31.969976,34.165318,37.065071,39.947819,42.126137,43.310188,43.769951,44.183289,45.233418,47.168526,49.574589,51.51712,52.024654,50.705406,48.193306,46.161282,46.809399,51.974232,62.21347,76.294853,91.397118,104.03442,111.36216,112.28825,107.84844,100.63209,93.52253,88.391586,85.429161,83.444,80.914223,77.123985,72.674339,69.054771,67.573166,68.378075,70.269966,71.483917,70.953049,69.176537,68.006584,69.352806,73.55999,78.539978,80.374596,75.232979,61.590221,41.44553,19.736485,2.1621771,-7.4411817,-8.752326,-4.7772393,-0.0050578108,1.9927156,0.17652532,-3.9297001,-7.6158252,-8.8078232,-7.2219439,-4.2661252,-1.9288299,-1.4824088,-2.8350275,-4.8474441,-6.2703133,-6.5957494,-6.258626,-6.1274791,-6.7203693,-7.7350917,-8.2174244,-7.2201443,-4.466547,-0.55228788,3.4380453,6.6112695,8.7640991,10.370408,12.099277,14.229494,16.382124,17.752592,17.667879,16.072353,13.606397,11.231092,9.6627445,8.9986353,8.7688904,8.3510284,7.4446011,6.2835612,5.4636116,5.5319247,6.6359587,8.4621286,10.473509,12.246276,13.656242,14.805591,15.79317,16.553822,16.928221,16.920818,16.917452,17.618221,19.629932,22.935261,26.615171,29.108391,28.972195,25.753605,20.427547,15.041492,11.649153,11.068571,12.179326,12.24153,8.1775074,-1.7977567,-17.056719,-34.585854,-50.206997,-60.406715,-63.856037,-61.862896,-57.562675,-54.309166,-54.119431,-56.947884,-61.078083,-64.31089,-65.235291,-63.895561,-61.570702,-59.904205,-59.95863,-61.742889,-64.417686,-66.957451,-68.798431,-70.068909,-71.30986,-72.937195,-74.846733,-76.437233,-77.022217,-76.330154,-74.735527,-73.052193,-72.023582,-71.853935,-72.100471,-72.005692,-71.05294,-69.37616,-67.74588,-67.12812,-68.089729,-70.423126,-73.224213,-75.374008,-76.130447,-75.483833,-74.089622,-72.853233,-72.434052,-72.949814,-74.008957,-74.994125,-75.396744,-75.022316,-74.006325,-72.701378,-71.536598,-70.906593,-71.081345,-72.111076,-73.745117,-75.440567,-76.530258,-76.527794,-75.423622,-73.774124,-72.472008,-72.281227,-73.397339,-75.319511,-77.146515,-78.133362,-78.151543,-77.733002,-77.646896,-78.288803,-79.323608,-79.878441,-79.202782,-77.347786,-75.33622,-74.594093,-75.931808,-78.752098,-81.126549,-80.878624,-77.119209,-71.24704,-66.587616,-66.584702,-72.382652,-81.182365,-86.528282,-80.735657,-58.480652,-19.82173,28.94211,77.166161,113.7429,131.22127,128.31485,109.7784,83.921204,59.090588,40.777309,30.47636,26.440973,25.561251,25.230011,24.327591,23.108168,22.386772,22.685711,23.839325,25.159807,25.914293,25.746223,24.803062,23.568184,22.567442,22.140882,22.368889,23.120506,24.137634,25.097603,25.657648,25.515598,24.496597,22.628248,20.145605,17.400978,14.718587,12.280056,10.113329,8.1903677,6.5635266,5.4410977,5.1386452,5.9215193,7.8225312,10.537617,13.464843,15.885962,17.230825,17.333336,16.584929,15.910499,16.532156,19.553137,25.478565,33.858753,43.241837,51.525295,56.621468,57.183937,53.080032,45.394199,35.967613,26.70299,18.959646,13.28063,9.4891739,7.0015192,5.1416445,3.3299451,1.1616454,-1.5310117,-4.587079,-7.4688892,-9.3952732,-9.711236,-8.3528271,-6.1039395,-4.3740349,-4.4883108,-6.8305655,-10.368999,-12.951677,-12.322025,-7.3343601,1.3367301,11.443974,20.25926,25.879194,27.987928,27.679535,26.551565,25.728216,25.451595,25.414591,25.441366,25.87327,27.282951,29.728354,32.221546,33.038464,30.90941,26.394032,22.406845,23.239176,32.350704,50.097713,72.801392,93.908485,106.80223,107.81476,97.814903,81.535828,65.088249,53.094845,46.988873,45.220493,44.949585,44.008839,41.951118,39.74482,38.599682,38.884418,39.879498,40.421387,39.858246,38.579601,37.760281,38.550465,41.312,45.411377,49.644047,52.931122,54.802929,55.416012,55.220032,54.606323,53.790535,52.917786,52.17664,51.739586,51.568008,51.311668,50.500282,48.967979,47.184696,46.145962,46.769581,49.166885,52.358215,54.771152,55.299942,54.206947,53.117035,53.901661,57.051952,60.643131,60.780403,53.54071,37.410603,14.748925,-8.7563868,-26.527372,-34.171177,-31.501797,-22.399857,-12.644819,-6.9938211,-7.1271596,-11.459657,-16.662907,-19.797157,-19.766315,-17.417135,-14.528879,-12.560442,-11.984492,-12.468953,-13.529246,-15.02247,-17.109192,-19.813725,-22.654116,-24.737204,-25.306816,-24.33396,-22.665861,-21.564735,-21.924128,-23.701508,-25.959444,-27.475204,-27.483807,-26.051386,-23.87352,-21.720837,-19.986609,-18.661131,-17.681362,-17.28739,-18.015329,-20.27449,-23.841017,-27.732048,-30.673025,-31.904503,-31.751198,-31.47007,-32.382309,-34.843021,-37.801579,-39.365009,-38.089897,-34.158112,-29.561644,-27.005674,-28.090429,-31.891096,-34.924366,-32.704548,-22.120953,-3.3160903,20.029909,42.221596,58.078648,65.13382,64.389565,59.362797,54.076988,51.146969,50.909897,51.865093,51.94656,49.788635,45.311081,39.46553,33.494202,28.254171,23.98966,20.562519,17.846556,15.939221,15.040861,15.130935,15.73263,15.998066,15.118281,12.823401,9.6485682,6.7589068,5.382041,6.1360741,8.6235552,11.536625,13.252544,12.634879,9.6361418,5.3867908,1.7091981,0.28270566,1.8615237,5.9214244,10.899822,14.904845,16.548647,15.514815,12.614106,9.3364449,7.1400361,6.8208079,8.2394056,10.495522,12.428922,13.190866,12.620591,11.269556,10.084302,9.9118948,11.067549,13.172502,15.344322,16.65237,16.614298,15.474445,14.102506,13.543759,14.447415,16.685144,19.386997,21.396521,21.903374,20.894184,19.153641,17.805717,17.661247,18.762083,20.399565,21.59763,21.762577,21.093519,20.49049,21.005419,23.164146,26.570799,30.039898,32.191082,32.174763,30.126822,27.105131,24.537231,23.448996,23.832489,24.432329,23.050274,17.28001,5.4448781,-12.562998,-34.852829,-57.751846,-76.727051,-87.801064,-88.981956,-81.107079,-67.653137,-53.483109,-43.0103,-38.588093,-39.866825,-44.390282,-49.069271,-51.723392,-51.8899,-50.55962,-49.139015,-48.366436,-47.872585,-46.609276,-43.786282,-39.633617,-35.447128,-32.873222,-32.905193,-35.254726,-38.508667,-40.961575,-41.581264,-40.501602,-38.772354,-37.590176,-37.551697,-38.406162,-39.40741,-39.948006,-39.993259,-40.018864,-40.543346,-41.647141,-42.868702,-43.572586,-43.517025,-43.180782,-43.567741,-45.581039,-49.380188,-54.170227,-58.59193,-61.476994,-62.48481,-62.217388,-61.760151,-61.972908,-63.001572,-64.304008,-65.118607,-65.011002,-64.113716,-62.925007,-61.864552,-60.950378,-59.848782,-58.246765,-56.237274,-54.385422,-53.381859,-53.510201,-54.320915,-54.782364,-53.849819,-51.089504,-46.938923,-42.425613,-38.539307,-35.692669,-33.63908,-31.883312,-30.257824,-29.205359,-29.512014,-31.639912,-35.131115,-38.557278,-40.151051,-38.791729,-34.741459,-29.63665,-25.678326,-24.460363,-26.110426,-29.243412,-31.750675,-31.96575,-29.549274,-25.626486,-22.153233,-20.9049,-22.639353,-26.822678,-31.960249,-36.268303,-38.314545,-37.365616,-33.391006,-26.842215,-18.373686,-8.6184931,1.9442811,13.031131,24.50046,36.198639,47.738903,58.31377,66.679352,71.404114,71.344269,66.16095,56.625217,44.524078,32.160278,21.637287,14.228658,10.091474,8.4200792,7.9380784,7.4899669,6.4761262,4.9689441,3.5005472,2.6540112,2.6662321,3.2363405,3.6366644,3.0805936,1.1708354,-1.8046581,-4.9062133,-6.9261165,-6.9579377,-4.8701744,-1.4306552,2.0018432,4.0752139,4.0315557,1.993474,-1.1727945,-4.3079777,-6.4590993,-7.1698294,-6.4596963,-4.5859485,-1.7941899,1.770744,5.9648333,10.473778,14.738421,18.072466,19.929371,20.16855,19.161964,17.671959,16.556101,16.440851,17.510279,19.490389,21.816673,23.898651,25.363283,26.174456,26.57893,26.907993,27.341913,27.782671,27.941818,27.630226,27.088339,27.113798,28.809143,32.98439,39.499275,46.95269,53.006824,55.300297,52.53949,45.192879,35.381638,25.987368,19.43552,16.787855,17.574488,20.345078,23.51124,25.951225,27.100609,26.663815,24.344559,19.918859,13.626049,6.5086913,0.27813119,-3.406096,-3.8854196,-2.0482194,-0.0041338783,0.044835299,-2.8957169,-7.9608965,-12.885724,-15.340449,-14.325223,-10.742394,-6.7821217,-4.5258751,-4.6807566,-6.2613525,-7.3961325,-6.68504,-4.1797943,-1.3361716,0.0003775135,-1.1404521,-4.2057776,-7.5099616,-9.3634148,-9.1448259,-7.5904727,-6.1426344,-5.8582926,-6.6667676,-7.490097,-7.1114759,-5.1466398,-2.4123499,-0.42669237,-0.39451352,-2.3884964,-5.2865233,-7.4894547,-7.9074721,-6.5444446,-4.3246984,-2.3539634,-1.188121,-0.63376772,-0.17692769,0.34554347,0.39732641,-0.96806723,-4.3579431,-9.3813763,-14.606224,-18.246109,-19.177822,-17.633793,-15.096555,-13.421618,-13.701087,-15.538967,-17.154116,-16.239721,-11.101912,-1.5029944,11.143484,24.222916,34.748734,40.244816,39.44939,32.721779,22.077679,10.782459,2.4933732,0.11608412,4.7582445,15.25562,28.580736,41.043091,49.762184,53.707363,53.803345,52.103378,50.542141,49.984764,50.063381,49.785271,48.433258,46.148201,43.848125,42.602516,42.927582,44.479443,46.316032,47.504448,47.642876,46.969555,46.049271,45.31942,44.840229,44.400826,43.844906,43.316872,43.207287,43.828129,45.07486,46.360714,46.913177,46.249874,44.50378,42.360302,40.637589,39.794079,39.69997,39.821671,39.674656,39.209686,38.849163,39.146378,40.318092,41.998985,43.412865,43.857952,43.173946,41.862885,40.77367,40.564156,41.309532,42.519463,43.534592,44.003525,44.089462,44.260494,44.832699,45.629501,46.045319,45.500904,43.966644,42.141373,41.09227,41.547913,43.319965,45.291565,46.050392,44.792938,41.899284,38.754761,36.884396,36.947544,38.276447,39.312302,38.693676,36.281181,33.395855,32.04187,33.571091,37.666466,42.367863,45.204319,44.748104,41.57082,37.913418,36.19717,37.286087,39.639103,39.984108,35.199524,24.298832,9.292676,-5.6499891,-16.296949,-20.496492,-19.134861,-15.395463,-12.823545,-13.381119,-16.616119,-20.33762,-22.263412,-21.564631,-19.378016,-18.052565,-19.675972,-24.808563,-32.145134,-39.215115,-43.631371,-44.16193,-41.112579,-35.967396,-30.623726,-26.663639,-24.939831,-25.499271,-27.71719,-30.527206,-32.724899,-33.355522,-32.117714,-29.598862,-27.140865,-26.290771,-28.047651,-32.298386,-37.786472,-42.675865,-45.421104,-45.465408,-43.392021,-40.487885,-38.024509,-36.693748,-36.482555,-36.95335,-37.645138,-38.292072,-38.760456,-38.858517,-38.273941,-36.766132,-34.48959,-32.158638,-30.829693,-31.345222,-33.763016,-37.167439,-40.050278,-41.082474,-39.825184,-36.943432,-33.791031,-31.630278,-30.97084,-31.413731,-32.042374,-32.053455,-31.199274,-29.789312,-28.329071,-27.116959,-26.107046,-25.104574,-24.084982,-23.330961,-23.237734,-23.923164,-24.969702,-25.561533,-24.993414,-23.223959,-21.058493,-19.762011,-20.289705,-22.615101,-25.618177,-27.659321,-27.521318,-25.146463,-21.705107,-18.942497,-18.19865,-19.692204,-22.482443,-25.095173,-26.398602,-26.194614,-25.207474,-24.545736,-25.021746,-26.750774,-29.222519,-31.717829,-33.748501,-35.237682,-36.375435,-37.31052,-37.924194,-37.83849,-36.631298,-34.097862,-30.396278,-26.01722,-21.633823,-17.930786,-15.472569,-14.606847,-15.379459,-17.476866,-20.260548,-22.948463,-24.911182,-25.94343,-26.338072,-26.682585,-27.473473,-28.782795,-30.201103,-31.109114,-31.10408,-30.286381,-29.195236,-28.424551,-28.185408,-28.137499,-27.63476,-26.234596,-24.114182,-22.076723,-21.102863,-21.723757,-23.637114,-25.841696,-27.22237,-27.208456,-26.072971,-24.681389,-23.873331,-23.908258,-24.353302,-24.474962,-23.840157,-22.68758,-21.799387,-21.962782,-23.404789,-25.600777,-27.589909,-28.572222,-28.371527,-27.458702,-26.555111,-26.133318,-26.184498,-26.396017,-26.554579,-26.813887,-27.578735,-29.076767,-30.967636,-32.351635,-32.257381,-30.310326,-27.098763,-23.921072,-22.021883,-21.807962,-22.58984,-23.058228,-22.1954,-19.999714,-17.507616,-16.076736,-16.417393,-18.055428,-19.623156,-19.796305,-18.226864,-15.805176,-14.045064,-14.010109,-15.542949,-17.367689,-18.02519,-16.995985,-15.199137,-14.464484,-16.291636,-20.735064,-26.210253,-30.409365,-31.750601,-30.391914,-28.103989,-27.0571,-28.322445,-31.105509,-33.254585,-32.728115,-29.038803,-23.676981,-19.177914,-17.405018,-18.171751,-19.144089,-17.159683,-10.18778,1.2763135,14.258619,24.796137,29.999689,29.497784,25.470657,21.334427,19.89896,22.050137,26.608566,31.2864,34.06889,34.217758,32.441647,30.32279,29.47467,30.929504,34.979237,41.356808,49.481236,58.570126,67.632904,75.507263,81.072205,83.60231,83.066162,80.158104,76.005653,71.706871,67.963928,65.007935,62.80373,61.332912,60.714611,61.06641,62.22562,63.583755,64.229324,63.378334,60.845875,57.239616,53.70298,51.317726,50.511192,50.839622,51.304405,51.02787,49.876556,48.630512,48.562786,50.656067,54.92078,60.237209,64.842995,67.203201,66.769768,64.199852,60.924412,58.340698,57.113358,56.980648,57.135445,56.892536,56.190098,55.602634,55.877304,57.325089,59.495808,61.377792,62.014297,61.145985,59.458992,58.259102,58.750343,61.339218,65.363426,69.37719,71.794418,71.507355,68.167709,62.071674,53.843315,44.190842,33.877663,23.823582,15.112364,8.7450409,5.1997104,4.0706816,4.0869989,3.6074831,1.3770243,-2.876265,-8.3664608,-13.756767,-17.945541,-20.648653,-22.424273,-24.14757,-26.302544,-28.577457,-30.046928,-29.829441,-27.783655,-24.767607,-22.259661,-21.552097,-23.007685,-25.837715,-28.537607,-29.713808,-28.807156,-26.30192,-23.339998,-21.019352,-19.820459,-19.485933,-19.37137,-18.995434,-18.421509,-18.242813,-19.207275,-21.73266,-25.601688,-29.992767,-33.799679,-36.055656,-36.26733,-34.555561,-31.605349,-28.478876,-26.338192,-26.107597,-28.129173,-31.924829,-36.213654,-39.276199,-39.597931,-36.539639,-30.697296,-23.716101,-17.588259,-13.754728,-12.468611,-12.76228,-13.038297,-11.956917,-9.1275301,-5.2314267,-1.5404009,0.85410357,1.6343768,1.3397802,0.9366461,1.1842159,2.2077022,3.5255525,4.4670162,4.6665468,4.2952528,3.8929741,3.9506953,4.561873,5.3984418,6.0204768,6.2743154,6.4561753,7.07863,8.3706045,9.8641024,10.408332,8.6948376,4.0335679,-3.0842957,-11.019775,-17.66659,-21.442829,-22.055851,-20.61363,-19.018856,-18.982361,-21.194935,-25.088627,-29.273293,-32.359997,-33.69426,-33.612526,-33.132755,-33.309116,-34.640991,-36.853615,-39.127411,-40.596924,-40.813366,-39.922024,-38.494255,-37.153419,-36.232738,-35.657104,-35.091339,-34.237827,-33.088169,-31.973837,-31.389763,-31.703144,-32.9263,-34.690216,-36.431328,-37.674343,-38.238716,-38.250912,-37.975353,-37.597988,-37.125175,-36.472046,-35.665211,-34.979557,-34.852642,-35.572971,-36.924332,-38.054375,-37.738869,-34.973404,-29.585981,-22.493914,-15.397408,-10.026924,-7.3446403,-7.1538877,-8.3428421,-9.6107216,-10.231777,-10.39548,-10.935238,-12.649288,-15.671525,-19.303213,-22.402712,-24.061975,-24.120651,-23.194368,-22.229561,-21.90819,-22.302879,-22.982855,-23.446587,-23.539812,-23.556751,-23.976036,-25.056971,-26.612394,-28.121468,-29.073578,-29.258957,-28.781254,-27.816689,-26.379955,-24.374516,-21.961054,-19.945332,-19.737391,-22.639734,-28.701918,-35.823238,-39.850292,-35.969475,-20.93998,4.9061122,37.035934,67.999565,90.187737,98.813141,93.692009,78.988892,61.120728,45.925701,36.498722,32.642433,31.969105,31.838533,30.984722,30.001669,30.589228,34.161842,40.71389,48.599232,55.304211,58.725609,58.216808,54.841675,50.741573,48.002968,47.652493,49.296082,51.540051,52.902607,52.674122,51.242737,49.727863,49.174343,49.820213,50.907238,51.170834,49.713329,46.695236,43.356228,41.282764,41.340084,42.964775,44.359783,43.597301,40.024673,35.077065,31.860168,33.571861,41.580608,54.29509,67.59977,76.760063,78.817017,74.140259,66.233467,59.866814,58.573475,62.912766,70.444473,77.350456,80.688797,79.942924,77.012062,74.764709,75.134758,77.961082,81.247314,82.600647,80.881187,76.996368,73.343765,72.262024,74.456429,78.364525,80.844566,78.784424,70.714882,57.552975,42.134056,27.87044,17.301102,11.257724,8.9430952,8.6904831,8.8583288,8.3628445,6.6799965,3.5205891,-1.4377309,-8.4827852,-17.483685,-27.492081,-36.706112,-42.983864,-44.745586,-41.81266,-35.686977,-29.029642,-24.527782,-23.700087,-26.266109,-30.424072,-33.890038,-35.124256,-34.066433,-31.992336,-30.627138,-31.088942,-33.317856,-36.313625,-38.969086,-40.892857,-42.628056,-45.093723,-48.629025,-52.332962,-54.237339,-52.312325,-45.728447,-35.576244,-24.538679,-15.649517,-10.841746,-10.124701,-11.834988,-13.745481,-14.315526,-13.341235,-11.7075,-10.538078,-10.385071,-10.984232,-11.643864,-11.878396,-11.767071,-11.783412,-12.281795,-13.099381,-13.630289,-13.334477,-12.266759,-11.15165,-10.854568,-11.579271,-12.395012,-11.535612,-7.3976936,0.35473841,10.324219,19.944292,26.821724,30.085373,30.928993,32.005913,36.018513,44.309933,56.227421,69.536186,81.550804,90.300919,95.140602,96.627472,95.930992,94.206863,92.238617,90.366425,88.534103,86.315208,82.951859,77.562744,69.602509,59.418091,48.537868,39.354568,34.168285,33.97747,37.660217,42.077229,43.176163,37.636944,24.287075,4.6200347,-17.796881,-38.700638,-54.642101,-63.999718,-67.185219,-66.123383,-63.35218,-61.137241,-60.875347,-62.891666,-66.601646,-70.92942,-74.824745,-77.690155,-79.546165,-80.861328,-82.140984,-83.519775,-84.626747,-84.839211,-83.784065,-81.748535,-79.678253,-78.690849,-79.369606,-81.297066,-83.18486,-83.593674,-81.839157,-78.516365,-75.275574,-73.936798,-75.452919,-79.342628,-83.935303,-87.274529,-88.133339,-86.551895,-83.632774,-80.797691,-79.013412,-78.449463,-78.693001,-79.265068,-80.018341,-81.142876,-82.833443,-84.93071,-86.852821,-87.894257,-87.673187,-86.38475,-84.6577,-83.111465,-81.942162,-80.852715,-79.386269,-77.410545,-75.366508,-74.049492,-74.034584,-75.147186,-76.39534,-76.491234,-74.678398,-71.331482,-67.892365,-66.109116,-66.999825,-70.173729,-73.956596,-76.288612,-75.884918,-72.971893,-69.15239,-66.469353,-66.217163,-68.2034,-70.898087,-72.381508,-71.52787,-68.718437,-65.647743,-64.313057,-65.757698,-69.29937,-72.721161,-73.374123,-69.624916,-61.865475,-52.506119,-44.898449,-41.702972,-43.525677,-48.528763,-53.230587,-54.103905,-49.179783,-38.878254,-25.702406,-13.020202,-3.5970757,1.3940332,2.4834201,1.2384909,-0.68947703,-2.2535427,-3.1441333,-3.4664869,-3.3226457,-2.6378684,-1.317655,0.46394753,2.1516306,3.0355804,2.7017083,1.3855523,-0.058422435,-0.60647207,0.33128855,2.5482414,5.1702847,7.2041507,8.1501513,8.2800388,8.4072447,9.3183165,11.25498,13.785821,16.126482,17.658636,18.27784,18.346357,18.32523,18.38932,18.324139,17.773748,16.631098,15.246644,14.267071,14.202562,15.042313,16.221998,16.99729,16.973562,16.410276,16.064846,16.667255,18.38991,20.693996,22.674622,23.671381,23.715307,23.491764,23.840214,25.144348,27.050056,28.720135,29.453045,29.22967,28.79656,29.21801,31.204588,34.686333,38.929783,43.117611,46.983894,51.054913,56.313217,63.495468,72.481926,82.174194,90.938499,97.33667,100.71024,101.31116,99.978035,97.62175,94.847092,91.884026,88.772255,85.599144,82.614265,80.177841,78.624268,78.145859,78.737755,80.176529,82.004547,83.553421,84.081856,83.053833,80.453331,76.926025,73.573547,71.421822,70.828506,71.200653,71.251785,69.697334,65.982857,60.584549,54.679276,49.395649,45.143055,41.464787,37.495911,32.681049,27.225666,21.955845,17.703316,14.691767,12.403941,10.043976,7.2421784,4.4365788,2.5870571,2.3897552,3.5842447,4.9459262,5.0916739,3.608613,1.695598,1.7528051,6.038835,15.182358,27.511818,39.69791,48.377937,51.796848,50.486488,46.627544,42.578831,39.554443,37.259514,34.599125,30.845671,26.38608,22.531122,20.572973,20.816982,22.315334,23.514936,23.379457,22.217678,21.658106,23.785131,29.981632,40.161057,52.76757,65.43428,75.861679,82.493408,84.826721,83.44429,79.897224,76.435097,75.469208,78.752281,86.537247,97.20224,107.74024,115.06107,117.4992,115.66437,112.06543,109.65842,110.16484,113.19,116.68024,118.3922,117.38545,114.55416,111.88782,111.03244,112.19199,114.13396,115.24075,114.77431,113.36184,112.29387,112.13776,111.74314,108.51096,99.926262,85.41748,67.27224,49.87746,37.622196,32.689178,34.063015,38.326225,41.701698,42.06464,39.750931,36.823887,35.442276,36.455299,39.063698,41.592712,42.696541,42.132011,40.658356,39.281551,38.478184,37.945427,36.961784,34.990417,32.04734,28.623518,25.336245,22.661217,20.937353,20.505955,21.660975,24.238997,27.068569,27.795918,23.509886,12.087642,-6.4047866,-29.15386,-51.415871,-68.454781,-77.621994,-79.431824,-77.024315,-74.335907,-74.040344,-76.411995,-79.658936,-81.37355,-80.127457,-76.260071,-71.509552,-67.879768,-66.543816,-67.431793,-69.610222,-72.03643,-74.11338,-75.731537,-76.923958,-77.535767,-77.235321,-75.862305,-73.796104,-71.983452,-71.516411,-73.004478,-76.165131,-79.929039,-83.011147,-84.587135,-84.657295,-83.905769,-83.204063,-83.116829,-83.713844,-84.735054,-85.901421,-87.097908,-88.308304,-89.416153,-90.108047,-90.026802,-89.094978,-87.75016,-86.854797,-87.26609,-89.314896,-92.546654,-95.929008,-98.422386,-99.555847,-99.634567,-99.448372,-99.686874,-100.46418,-101.2749,-101.40003,-100.46744,-98.767151,-97.098328,-96.257492,-96.53093,-97.549278,-98.602791,-99.185623,-99.371284,-99.740364,-100.90374,-102.96407,-105.31889,-106.97942,-107.21278,-106.0685,-104.40332,-103.35042,-103.57014,-104.79749,-106.02737,-106.25079,-105.25454,-103.90675,-103.66003,-105.53539,-109.25593,-113.18446,-115.24429,-114.33331,-111.30721,-108.73113,-109.28032,-113.54683,-118.5503,-118.0684,-105.01186,-74.914467,-28.838501,25.90506,77.835091,115.40079,131.27345,124.86499,101.9812,71.934418,43.637024,22.550241,9.7292376,2.9985507,-0.78496748,-3.7912166,-6.5414453,-8.5161238,-9.2874823,-9.2449694,-9.4412222,-10.798909,-13.375074,-16.286518,-18.364313,-19.040266,-18.7882,-18.773451,-19.957279,-22.319611,-24.793165,-25.98712,-25.189875,-22.912563,-20.549395,-19.376768,-19.623894,-20.334288,-20.175421,-18.623247,-16.583101,-15.817677,-17.382118,-20.069761,-20.068285,-12.401417,6.3828926,35.725677,70.307693,101.71131,121.82557,126.29887,116.26064,97.460983,77.374825,61.868721,53.140064,49.79417,48.67178,47.133144,44.441189,41.618172,40.159683,40.63546,42.135033,42.84874,41.295578,37.323212,32.223522,27.931787,25.872681,26.199741,27.866291,29.405336,29.866444,29.319767,28.67593,29.026941,30.981249,34.393936,38.573586,42.725807,46.291924,48.999535,50.712559,51.328217,50.894573,49.875858,49.27869,50.361256,53.913387,59.452232,64.869026,66.91227,62.446529,49.935532,30.377483,7.137476,-15.315403,-33.16518,-44.624565,-50.266724,-52.234173,-52.855236,-53.480045,-54.144863,-54.127647,-52.911419,-50.859409,-49.142208,-48.975628,-50.690632,-53.272472,-54.711014,-52.9949,-47.183079,-37.941963,-27.259277,-17.522305,-10.485551,-6.6617389,-5.3788595,-5.3585367,-5.4267426,-4.983819,-4.078371,-3.1761985,-2.8359921,-3.4614377,-5.1760879,-7.7831578,-10.780208,-13.456419,-15.113907,-15.378729,-14.450067,-13.091899,-12.278943,-12.631162,-13.960851,-15.254185,-15.174469,-12.834938,-8.3745642,-2.9497519,1.891275,5.0775743,6.5721412,7.2485576,8.1719027,9.7840776,11.579082,12.528899,11.991459,10.460629,9.5774784,11.296878,16.68664,25.128458,34.473942,42.108822,46.286793,46.911781,45.305088,43.15971,41.410679,39.782475,37.288586,33.288311,28.310642,24.010487,22.223726,23.726381,27.538864,31.284492,32.430496,29.664923,23.574263,16.235149,10.014108,6.3330526,5.1189542,5.1700935,5.0865698,4.113318,2.3965201,0.60769129,-0.69181937,-1.4665849,-2.1598356,-3.3062387,-5.1462998,-7.5170803,-10.033932,-12.35269,-14.2862,-15.730955,-16.559002,-16.661171,-16.156145,-15.56162,-15.673116,-17.099661,-19.728966,-22.565298,-24.210461,-23.804045,-21.81743,-20.05294,-20.650188,-24.595118,-30.689857,-35.793343,-36.396961,-30.697903,-19.884304,-7.7095666,1.5514902,5.6242404,5.6996164,5.8730822,10.795894,22.887703,40.763531,59.818146,74.621208,81.70871,81.166862,76.186287,71.000763,68.536301,69.144325,71.008598,71.749634,70.087128,66.534523,62.838005,60.699657,60.703091,62.099915,63.464581,63.661232,62.450951,60.418629,58.411362,56.977173,56.193096,55.901543,56.044308,56.745266,58.053646,59.592541,60.484962,59.739372,56.906509,52.554363,48.164921,45.419495,45.265457,47.344917,50.170559,51.971451,51.70422,49.613556,47.006161,45.391315,45.527931,46.961021,48.315983,48.153511,45.862038,42.064571,38.321117,36.31625,36.991711,40.07851,44.236504,47.68454,48.981972,47.598042,44.054371,39.642109,35.88538,33.986801,34.452721,36.999554,40.736271,44.532192,47.428932,48.948639,49.191788,48.699829,48.154663,48.056011,48.523991,49.307919,49.977421,50.181984,49.841396,49.180279,48.612541,48.556091,49.271984,50.773945,52.787731,54.711246,55.563484,53.988045,48.427883,37.548771,20.849846,-0.77227402,-24.831615,-47.677376,-65.52108,-75.728142,-77.822433,-73.69883,-66.862755,-60.979858,-58.381916,-59.228989,-61.718876,-63.210842,-61.669193,-56.686291,-49.595215,-42.687149,-38.020008,-36.482368,-37.57312,-39.91489,-42.109306,-43.403797,-43.829014,-43.837734,-43.780838,-43.608341,-42.973553,-41.610699,-39.666546,-37.717724,-36.447613,-36.210213,-36.793617,-37.555763,-37.844269,-37.415085,-36.568565,-35.919502,-35.968239,-36.768307,-37.907486,-38.795063,-39.039349,-38.651081,-37.947811,-37.255043,-36.642082,-35.893246,-34.730991,-33.112762,-31.362831,-30.018147,-29.480345,-29.718386,-30.24629,-30.415775,-29.841995,-28.67687,-27.535433,-27.10759,-27.69977,-29.003893,-30.24954,-30.651173,-29.875961,-28.246906,-26.562702,-25.648947,-25.907188,-27.112911,-28.55332,-29.401348,-29.109718,-27.631559,-25.394457,-23.086229,-21.378281,-20.699715,-21.119051,-22.340618,-23.802687,-24.859222,-25.010298,-24.111551,-22.468824,-20.746893,-19.702707,-19.853922,-21.248505,-23.460972,-25.818857,-27.729635,-28.921394,-29.470078,-29.625589,-29.575174,-29.310925,-28.68152,-27.570543,-26.053823,-24.409691,-22.970901,-21.928244,-21.233683,-20.676001,-20.0721,-19.428581,-18.950371,-18.889103,-19.347925,-20.195253,-21.158699,-22.030245,-22.821735,-23.738949,-24.977369,-26.485117,-27.879847,-28.6089,-28.269188,-26.879459,-24.914892,-23.067375,-21.878468,-21.477375,-21.581799,-21.737938,-21.617359,-21.164381,-20.513618,-19.775801,-18.888004,-17.666121,-16.027519,-14.199346,-12.715323,-12.150462,-12.748071,-14.20337,-15.790308,-16.792141,-16.973915,-16.776928,-17.075682,-18.621767,-21.518507,-25.07266,-28.142168,-29.783632,-29.804516,-28.87533,-28.128374,-28.489243,-30.151178,-32.506588,-34.558262,-35.532967,-35.303032,-34.35799,-33.367355,-32.642006,-31.866013,-30.291719,-27.284435,-22.864353,-17.877125,-13.645966,-11.283556,-11.069761,-12.285267,-13.630566,-14.004642,-13.181451,-11.95582,-11.62813,-13.094021,-16.068687,-18.938921,-19.404085,-15.618637,-7.2396173,4.2011137,15.836211,24.664875,28.815588,28.244368,24.559072,20.127331,16.976507,16.039906,17.045252,18.95899,20.631983,21.280218,20.643137,18.91432,16.650316,14.768986,14.55155,17.445156,24.551689,35.943916,50.189186,64.47818,75.484543,80.654167,79.307693,72.96077,64.64756,57.567394,53.744171,53.367096,55.082813,56.976734,57.638023,56.736515,54.899197,53.10524,52.05006,51.84425,52.117577,52.324921,51.984901,50.73418,48.292095,44.511719,39.574478,34.177113,29.460585,26.56529,25.995565,27.213589,28.836851,29.455877,28.632908,27.417379,27.928978,32.128479,40.46677,51.273365,61.35503,67.53492,68.244781,64.210991,57.827465,51.642971,46.956551,43.423157,39.868462,35.664555,31.610044,29.587648,31.136818,35.895546,41.06089,42.422443,36.504005,22.575914,3.3002288,-16.431976,-31.821541,-40.306942,-42.358238,-40.619091,-38.105629,-36.655975,-36.503471,-36.985821,-37.622253,-38.626709,-40.461567,-42.856689,-44.206219,-42.03791,-34.4631,-21.717266,-6.6809545,6.1686649,12.921523,12.277996,6.2202563,-1.141377,-5.8787112,-6.3186512,-3.6307874,-0.61742896,0.47060135,-0.34423903,-0.64526325,2.7823482,11.624656,24.459217,36.975571,43.969643,42.013432,31.282259,15.500442,0.044629414,-10.720273,-15.404061,-15.836905,-15.587237,-17.702068,-22.99077,-29.775091,-35.129593,-36.779415,-34.49419,-30.178293,-26.663843,-25.976734,-28.12887,-31.14934,-32.327065,-29.937136,-24.460918,-18.611563,-16.146484,-20.094007,-31.296753,-47.962261,-66.372856,-82.354591,-92.815582,-96.729622,-95.258743,-91.078545,-87.231506,-85.932762,-87.725456,-91.276558,-93.928612,-92.872185,-86.519135,-75.46624,-62.503021,-51.504669,-45.633976,-45.742554,-49.888081,-54.357502,-55.737465,-52.889423,-47.627716,-43.583809,-43.820412,-48.58884,-54.651791,-56.734486,-50.394707,-34.686878,-13.028773,8.3173847,23.348692,29.276581,27.694296,23.379763,21.528648,25.059198,33.465225,43.671703,52.144798,56.870346,58.081856,57.535435,57.05077,