Bandpass,0,0.14891,-406.23318,3337.0334,4927.9697,4090.1528,1676.4689,-683.28137,-1600.1298,-809.35309,745.62762,1676.442,1181.8005,-405.50476,-1927.1487,-2296.0439,-1298.6107,279.59766,1266.5341,974.04218,-321.69815,-1624.1445,-1975.5128,-1154.6025,193.37679,1065.0613,846.59119,-255.35013,-1399.8434,-1752.5265,-1093.5306,49.482826,819.39325,669.61505,-250.62177,-1235.5991,-1562.3795,-1019.0661,-37.191101,650.94958,559.20636,-209.11832,-1062.92,-1376.0571,-945.45026,-120.16165,478.07745,420.8475,-222.75473,-958.51965,-1246.6528,-897.86975,-196.20668,329.0972,300.73962,-237.79488,-872.34143,-1136.6409,-855.15118,-258.7597,201.28789,192.45978,-260.96683,-810.13135,-1049.0299,-812.14941,-284.27255,149.10442,190.19972,-159.97516,-617.87256,-838.4469,-670.17023,-256.31851,84.301117,99.800507,-212.22231,-613.08557,-807.93646,-664.1189,-301.61014,5.2880969,35.034061,-221.52814,-563.8996,-738.18439,-625.93402,-325.73965,-72.041611,-57.200142,-291.18356,-600.39771,-761.26434,-665.57544,-395.28278,-155.3392,-119.09626,-302.78751,-560.06335,-696.33801,-614.93408,-386.66599,-194.02223,-194.25604,-403.44662,-685.22589,-849.45038,-786.65497,-541.11835,-273.17358,-142.62776,-199.91237,-361.65057,-482.86914,-468.08615,-338.69391,-210.11482,-200.11482,-338.74536,-545.99713,-691.08008,-687.30432,-552.59882,-393.43704,-326.89651,-399.25153,-559.02826,-700.36786,-741.33026,-678.83795,-582.3725,-535.18036,-569.41394,-643.42859,-675.95215,-609.26105,-453.38968,-279.37234,-168.22839,-154.50571,-205.55289,-249.89084,-231.74425,-150.82639,-59.135975,-19.211155,-56.26334,-139.67775,-206.3694,-207.33105,-142.47626,-58.773994,-14.385568,-36.124649,-101.29794,-156.02042,-155.18109,-94.244652,-10.354504,46.523994,50.021061,14.538358,-18.347322,-12.814131,34.010887,90.446175,114.6096,86.09922,21.610935,-36.522381,-50.002861,-10.810206,54.409622,104.02596,110.33976,77.163544,34.555256,15.831508,34.015785,74.108093,105.38207,103.67976,67.545479,17.69355,-18.201662,-23.474264,-0.69396853,34.056042,64.705391,85.643776,101.9737,121.08898,143.65779,161.75388,165.43417,151.94302,129.58093,112.64571,111.11533,123.11009,136.20926,136.92667,121.3033,98.543221,84.733101,91.109818,115.50827,143.40614,158.01614,152.28593,134.25967,122.0026,131.68622,167.13251,217.84798,266.43341,299.76706,316.12476,323.78729,332.98724,347.61356,362.75632,369.46091,362.6315,345.87057,329.57806,323.79575,331.17282,345.24506,355.2366,353.84155,342.3873,329.8096,326.36319,336.64188,356.73892,377.23566,389.58261,391.293,386.57782,382.5032,383.8298,390.24561,397.56949,401.46869,400.59671,396.89136,393.22583,390.67581,387.77954,382.35678,374.24628,366.49918,363.77777,368.98508,380.68948,393.47305,401.20798,401.04578,395.27249,389.65088,389.37909,395.51016,404.34174,410.15189,409.27826,402.63055,394.91483,391.23233,393.55804,399.59793,404.73096,405.50705,402.11453,398.07394,397.4866,401.93463,409.32553,415.50638,417.44708,415.67471,414.20734,418.02545,429.8284,448.25528,468.66608,485.8147,496.55966,500.9281,501.13525,499.57437,497.32349,494.08978,489.30646,483.26337,477.28247,472.85532,470.56802,469.81952,469.65909,470.0921,472.72348,480.03543,493.6293,512.62036,533.3869,550.99963,561.50708,563.66016,559.04572,550.68536,541.15143,531.46851,521.38483,510.55701,499.57135,489.95776,483.21655,479.69012,478.23849,477.03326,474.88028,472.03146,469.81897,469.37094,470.43423,471.31644,470.13364,466.49835,462.31314,460.85883,464.57184,472.94968,482.11807,486.59796,482.34619,469.21252,451.22064,434.41632,423.56161,419.67484,419.84415,419.26669,414.07574,403.12866,387.76062,369.95776,350.45746,328.23859,301.78156,271.13651,239.18399,210.96399,191.25798,181.8423,180.15849,180.33786,176.09949,163.91838,144.72749,123.31384,105.89479,97.294579,99.172501,109.9719,126.23242,144.27779,161.35446,175.87721,187.06317,194.50439,198.04861,197.96652,195.1149,190.83856,186.60428,183.58699,182.44197,183.31004,185.90067,189.4726,192.7114,193.72644,190.4324,181.35028,166.49484,147.79228,128.61147,112.47409,101.54533,95.733528,92.947227,90.403465,86.246773,80.533882,75.015015,71.878571,72.261566,75.457947,79.296616,81.408463,80.543892,77.099709,72.562401,68.305183,64.600037,60.538986,54.913498,47.414616,39.26141,32.728207,29.789,30.729778,33.65662,35.279488,32.530807,24.035122,10.554183,-5.7736931,-22.771488,-39.150024,-54.387798,-67.75882,-77.419792,-80.528168,-74.664337,-59.817257,-39.575497,-20.441633,-9.2678337,-10.039267,-21.79388,-38.939236,-53.881924,-60.548626,-56.891041,-45.138096,-29.942886,-15.772325,-5.1469946,1.4448726,4.3667946,3.5969129,-1.5119674,-11.362489,-25.0012,-39.89402,-53.045532,-62.81382,-70.087822,-77.79908,-88.880852,-103.96485,-120.44043,-133.67996,-139.77533,-138.04027,-131.60408,-125.64944,-124.40872,-128.85432,-136.52774,-143.49287,-146.99162,-146.99794,-145.74255,-145.75323,-147.95309,-151.18765,-153.38721,-153.32161,-151.51521,-149.63298,-148.92294,-149.08827,-148.62361,-146.42882,-143.36868,-142.33052,-146.4176,-156.4333,-169.56943,-180.53671,-184.64999,-180.85008,-172.50322,-165.29524,-163.63271,-168.13377,-176.07434,-184.46007,-193.29211,-206.22308,-227.62498,-257.93216,-290.90607,-315.66431,-323.17963,-313.47223,-298.41846,-297.19998,-325.93481,-387.13565,-465.5592,-533.79175,-565.30115,-548.04559,-491.00644,-419.82651,-363.86737,-341.83133,-353.73245,-383.17331,-407.94382,-412.47729,-395.18729,-367.20471,-344.2074,-336.74716,-344.72665,-358.67191,-366.28244,-359.94321,-340.88651,-318.10544,-303.23917,-304.61133,-323.53232,-354.28622,-387.16345,-412.62988,-424.69476,-422.39297,-409.32758,-391.87515,-376.83923,-369.25122,-370.89261,-379.97253,-392.11963,-402.37836,-407.39529,-406.76675,-402.83691,-399.01498,-397.51111,-397.76962,-396.53223,-389.56171,-374.11902,-350.8606,-324.14301,-300.58124,-286.58618,-286.03497,-299.02548,-322.04623,-349.25269,-374.21329,-391.54456,-398.11804,-393.74298,-381.27835,-366.06729,-354.60214,-352.5437,-362.58905,-382.98938,-407.5094,-427.17752,-433.43088,-421.54169,-392.89932,-355.03687,-319.16623,-296.07007,-291.99994,-306.33765,-332.07651,-358.93787,-377.71616,-383.84479,-378.5423,-367.10162,-355.34882,-346.25009,-338.5462,-328.14526,-311.40942,-288.32986,-263.58716,-244.69431,-238.15952,-245.85971,-263.80008,-284.10168,-299.16394,-305.62817,-305.84479,-306.01138,-312.12857,-326.20987,-344.98413,-361.77197,-370.27582,-367.91489,-356.7352,-341.53876,-326.64124,-313.44077,-300.30054,-284.61444,-265.46164,-244.93652,-227.24678,-216.26494,-213.2852,-216.53944,-222.73224,-229.40195,-236.34575,-245.07187,-256.73593,-270.19705,-281.8172,-287.39597,-285.04147,-276.97345,-268.8511,-266.85428,-274.29675,-289.92859,-308.99475,-326.28922,-339.12762,-348.26254,-356.21075,-364.25308,-370.2774,-369.05789,-354.92859,-325.23688,-282.49237,-233.98622,-189.1834,-156.33122,-139.83498,-139.17583,-149.2317,-161.49821,-165.96477,-153.74284,-120.33706,-68.622704,-9.8145132,39.092499,61.385838,47.970165,2.3195553,-60.002361,-117.63546,-152.59843,-157.54085,-137.19646,-103.51974,-67.755753,-34.460739,-1.0621136,37.191231,80.642784,121.83437,147.94781,147.73572,118.48911,68.454369,13.039089,-32.850712,-61.594242,-74.779388,-79.611275,-82.731766,-85.796799,-85.576767,-77.98542,-62.711201,-44.875748,-32.445488,-31.237814,-41.074104,-55.771194,-66.936592,-68.917831,-61.589691,-49.32708,-37.235634,-27.525618,-18.582117,-7.1494908,8.2685404,25.509951,39.853638,47.317295,47.687561,44.989063,44.953663,51.222187,62.928089,75.339302,83.09375,83.786575,79.48629,75.246651,75.748123,82.400566,92.78817,102.64175,108.81849,111.22192,112.49527,115.93931,123.26948,133.77023,145.26901,156.02391,166.04495,176.8958,190.19238,205.9579,222.06256,235.18268,242.66422,244.09654,241.63849,238.9554,239.44102,244.71014,254.05542,264.95825,274.24368,279.31516,279.04932,274.16763,267.05957,261.1134,259.69864,265.08896,277.72357,296.13861,317.60782,339.16074,358.44766,374.06378,385.34793,392.03851,394.21103,392.5871,388.86118,385.52414,384.96973,388.26865,394.42654,400.80157,404.6427,404.87631,402.93311,401.90149,404.37125,410.2912,416.31415,417.25739,408.96844,390.9213,366.94223,343.56461,326.94287,320.09946,322.00381,328.80499,336.24866,341.73514,344.92078,346.84518,348.50403,349.97485,350.60352,349.88721,348.20282,346.74179,346.70505,348.41599,351.06924,353.32172,354.27112,354.06808,353.69659,354.10175,355.34824,356.4711,356.15942,353.78366,350.01376,346.56406,345.22021,346.79938,350.71652,355.39008,359.15723,361.08325,361.21237,360.24301,358.97928,357.95602,357.38654,357.28995,357.56586,357.94061,357.92926,357.00415,354.97263,352.30362,350.07269,349.42722,350.86499,353.84201,357.05804,359.28363,360.14731,360.26776,360.57458,361.29956,361.44824,359.27518,353.54623,344.7117,335.05963,327.58099,324.21271,324.64871,326.58688,327.29147,325.39529,321.66068,318.16068,316.52005,316.59109,316.63791,314.93274,311.47974,308.31702,307.81485,309.97394,310.77234,303.23465,281.18582,243.68506,197.29787,154.36815,127.80059,125.07957,144.87813,178.15869,213.03,240.45485,257.58218,267.14548,273.89185,280.71414,287.00439,289.9595,287.46478,280.20914,271.44183,264.63141,260.85565,257.93143,251.99104,240.41187,224.00697,206.89392,194.08902,188.45599,189.05785,191.95831,192.83031,189.55336,183.10583,176.33493,171.66566,169.4473,168.0356,165.37477,160.77014,155.49123,151.79439,151.16161,153.11589,155.50284,156.00706,153.75232,149.79485,146.1689,144.23312,143.57935,142.33182,138.61636,132.1013,124.45207,118.33649,115.67526,116.37651,118.43378,119.28273,117.42535,113.18533,108.13229,103.69426,100.03548,96.021133,90.236023,82.229301,73.014099,64.45092,58.01318,53.900688,51.174652,48.763474,46.476929,45.132404,45.595631,47.449814,48.42094,45.237522,35.565552,19.776688,1.2569336,-15.149223,-25.711624,-29.807531,-30.045414,-30.424562,-33.724487,-39.824543,-46.025723,-49.106735,-47.703011,-43.420094,-39.982525,-41.049576,-48.185841,-60.291668,-74.738647,-89.280769,-103.33721,-117.77355,-133.4364,-149.61038,-163.62233,-171.99263,-172.42245,-165.29114,-153.64537,-141.66293,-132.57249,-127.32687,-124.77221,-123.04008,-121.11835,-119.53625,-119.7947,-123.06516,-129.14732,-136.425,-142.81371,-147.00313,-149.13737,-150.5206,-152.63327,-156.18703,-160.84554,-165.7067,-170.09132,-174.01071,-177.98683,-182.42076,-187.048,-190.93571,-193.05058,-192.98505,-191.30719,-189.27505,-188.11794,-188.3893,-189.82396,-191.75082,-193.71318,-195.82164,-198.59421,-202.43799,-207.19624,-212.12668,-216.34293,-219.39934,-221.58893,-223.73529,-226.62819,-230.50729,-234.95319,-239.24303,-242.89423,-245.99947,-249.12437,-252.86601,-257.40704,-262.38348,-267.13684,-271.14044,-274.2821,-276.82108,-279.09735,-281.25244,-283.18353,-284.74268,-285.97971,-287.19189,-288.71082,-290.59464,-292.50314,-293.91119,-294.5448,-294.71539,-295.25473,-297.02673,-300.31842,-304.54874,-308.55322,-311.31036,-312.64279,-313.39975,-314.95212,-318.2966,-323.35452,-328.94684,-333.48706,-335.94897,-336.46863,-336.17801,-336.38547,-337.66605,-339.49411,-340.68301,-340.33707,-338.65094,-336.96887,-337.00192,-339.67471,-344.35342,-348.99518,-351.19028,-349.50223,-344.31393,-337.68231,-332.29636,-330.15192,-331.68237,-335.7659,-340.49124,-344.15204,-345.89224,-345.73141,-344.12347,-341.46024,-337.8786,-333.44006,-328.45633,-323.63699,-319.89035,-317.88284,-317.65179,-318.53763,-319.4873,-319.53748,-318.18744,-315.47287,-311.76889,-307.52005,-303.10352,-298.8837,-295.3403,-293.08041,-292.63602,-294.13165,-297.04071,-300.23193,-302.34189,-302.30557,-299.77472,-295.215,-289.6579,-284.2641,-279.92416,-277.05457,-275.60699,-275.20227,-275.28528,-275.25845,-274.60995,-273.05554,-270.65628,-267.82608,-265.16452,-263.15302,-261.86606,-260.88171,-259.48016,-257.04028,-253.40469,-248.98108,-244.50713,-240.62094,-237.511,-234.86897,-232.16518,-229.0471,-225.57698,-222.13983,-219.0885,-216.38622,-213.51964,-209.77402,-204.70782,-198.51468,-192.02069,-186.29948,-182.136,-179.66757,-178.41069,-177.62914,-176.78621,-175.78983,-174.90041,-174.40755,-174.32841,-174.34355,-174.00032,-173.01933,-171.4722,-169.70088,-168.03932,-166.53741,-164.87959,-162.54785,-159.11038,-154.44167,-148.74503,-142.39648,-135.74606,-129.01671,-122.34118,-115.85784,-109.74574,-104.14655,-99.03653,-94.176857,-89.224579,-83.958504,-78.463951,-73.121414,-68.37114,-64.392441,-60.920952,-57.354908,-53.112064,-48.017483,-42.461155,-37.199799,-32.907978,-29.7547,-27.277397,-24.64337,-21.146749,-16.643711,-11.669604,-7.1784377,-4.0651631,-2.7398083,-2.963016,-3.9828455,-4.8506565,-4.7366123,-3.1253114,0.11897391,4.7581172,10.208761,15.605527,19.949785,22.364323,22.389652,20.186327,16.516731,12.479275,9.1012583,6.976593,6.1089616,6.0056024,5.9381776,5.2230659,3.4038835,0.30691484,-3.9834599,-9.1667347,-14.763616,-20.174839,-24.794071,-28.164188,-30.111,-30.773535,-30.497175,-29.636118,-28.367233,-26.605457,-24.041388,-20.246706,-14.770605,-7.1936302,2.826962,15.458506,30.527439,47.365292,64.806061,81.434006,96.042809,108.10754,118.00708,126.82937,135.81242,145.69357,156.31786,166.73174,175.72148,182.50151,187.16907,190.67415,194.33061,199.15179,205.38177,212.46692,219.45122,225.54311,230.52313,234.7784,238.97926,243.61823,248.69267,253.7088,257.9837,261.04886,262.91034,264.0181,264.97699,266.18707,267.6394,268.99527,269.90036,270.33313,270.75473,271.93787,274.548,278.71536,283.86725,288.95499,292.97906,295.52548,296.99557,298.37708,300.67288,304.31671,308.92371,313.52841,317.16449,319.42984,320.69034,321.80725,323.57678,326.24969,329.43475,332.42581,334.70993,336.30185,337.68625,339.43286,341.77802,344.47891,347.03415,349.08667,350.68921,352.22189,354.02756,356.06485,357.88232,358.9765,359.28033,359.38467,360.25031,362.53903,366.01163,369.46204,371.33188,370.67752,367.87488,364.56345,362.80161,363.92365,367.8024,372.97476,377.53421,380.20819,380.94244,380.66989,380.49368,380.88486,381.43362,381.26962,379.79062,377.1528,374.19217,371.88382,370.771,370.77322,371.45395,372.46301,373.75754,375.42841,377.32288,378.85446,379.24896,378.09689,375.77612,373.34613,371.90094,371.81583,372.46747,372.69565,371.71021,369.75912,367.99463,367.5593,368.54797,369.68188,369.0654,365.57959,359.9017,354.29739,351.17435,351.3364,353.224,353.83133,350.80774,344.30734,337.17804,333.16092,334.20645,338.7804,342.50381,340.9119,332.5625,320.30603,309.6395,305.05298,306.79288,310.4017,309.66153,301.23718,287.9498,278.21927,281.52866,302.36554,336.29684,370.79193,390.6983,385.52951,354.62848,307.45993,259.00854,222.86403,205.56949,204.77466,211.47646,214.58115,205.29654,179.60535,138.52943,87.013458,32.451233,-16.689596,-52.321651,-68.544083,-63.564812,-40.886257,-8.8028679,22.073412,42.459251,47.628033,38.705799,21.473728,3.3899052,-9.6200867,-15.113004,-14.172725,-9.9636841,-5.8532033,-4.1034455,-5.5463724,-10.000024,-16.866482,-25.47394,-35.084812,-44.782024,-53.485836,-60.184319,-64.261536,-65.733101,-65.270477,-64.020088,-63.298496,-64.246834,-67.50766,-73.000359,-79.900116,-86.904007,-92.744759,-96.740791,-99.078186,-100.62151,-102.3241,-104.58775,-106.9949,-108.61704,-108.7141,-107.3498,-105.4809,-104.43311,-105.11438,-107.51685,-110.86213,-114.27837,-117.50103,-121.06163,-125.80757,-132.10901,-139.37074,-146.26567,-151.57376,-155.03563,-157.57869,-160.70694,-165.45874,-171.67647,-178.12988,-183.4193,-187.00131,-189.56779,-192.47154,-196.60339,-201.56401,-205.79424,-207.64261,-206.64265,-204.07161,-202.33214,-203.52098,-208.13509,-214.78972,-221.12947,-225.29721,-226.967,-227.29573,-227.93367,-229.87624,-232.97658,-236.37201,-239.36139,-241.96368,-244.71533,-247.94786,-251.25716,-253.72849,-254.81282,-255.10374,-256.21362,-259.61685,-265.24564,-271.03836,-274.10883,-272.98642,-269.34064,-267.61234,-272.22787,-283.84491,-297.13779,-302.08456,-288.6947,-252.81705,-199.61235,-142.31079,-96.516579,-72.997421,-72.913986,-88.097343,-106.06078,-116.72321,-116.99216,-110.86165,-105.51035,-106.21516,-113.30697,-122.7619,-129.53947,-131.11378,-128.81458,-126.33146,-126.7421,-130.3168,-134.60143,-136.53203,-134.88434,-131.22166,-128.70045,-129.69658,-134.04849,-139.2036,-142.11887,-141.48383,-138.63557,-136.53433,-137.60474,-142.0556,-147.89162,-152.5441,-154.84421,-155.83331,-157.81081,-162.37059,-168.95683,-175.08774,-178.13429,-177.34117,-174.54849,-173.00438,-175.0773,-180.52692,-186.62756,-190.10152,-189.48361,-186.19716,-183.54408,-184.33871,-188.91916,-194.9975,-199.4429,-200.63899,-199.6125,-199.05832,-201.01315,-205.02768,-208.37445,-208.27232,-204.44621,-199.87918,-198.83344,-203.33807,-210.81145,-215.07327,-210.76117,-198.52586,-187.23569,-190.81836,-220.66565,-277.68399,-348.94897,-411.69318,-443.19843,-431.55194,-381.44846,-311.8392,-246.74396,-204.26352,-189.57964,-195.16594,-207.21753,-214.01183,-211.39165,-202.8662,-195.29681,-193.56377,-197.65274,-203.53223,-206.57758,-204.85739,-200.0963,-195.98732,-195.35065,-198.2215,-202.05977,-203.68996,-201.45439,-196.10796,-190.02388,-185.48346,-183.33713,-182.87636,-182.78192,-182.26791,-181.53418,-181.28902,-181.85904,-182.68419,-182.62924,-180.85684,-177.54822,-173.87466,-171.2054,-170.1308,-170.02898,-169.50502,-167.38884,-163.57155,-159.08315,-155.36842,-153.29053,-152.57205,-152.05449,-150.56818,-147.78275,-144.44211,-141.83614,-140.89157,-141.50941,-142.58289,-142.65793,-140.78392,-137.01617,-132.30008,-127.87625,-124.61563,-122.67001,-121.56743,-120.59836,-119.21111,-117.21032,-114.72777,-112.06827,-109.54847,-107.38068,-105.59503,-103.99823,-102.208,-99.806732,-96.587479,-92.762016,-88.964005,-85.973358,-84.275421,-83.71843,-83.519196,-82.665802,-80.500305,-77.117783,-73.311508,-70.08065,-68.009354,-66.91951,-66.02211,-64.457672,-61.856716,-58.543774,-55.260742,-52.618069,-50.664486,-48.872044,-46.535126,-43.292858,-39.406292,-35.602921,-32.605888,-30.675856,-29.467276,-28.268702,-26.433258,-23.697832,-20.202116,-16.253557,-12.060373,-7.647058,-2.9935689,1.7540987,6.2155242,9.9448776,12.73086,14.796312,16.720827,19.107632,22.209175,25.767838,29.182858,31.88821,33.683334,34.804241,35.718193,36.822906,38.282345,40.101498,42.336533,45.219196,49.042572,53.861752,59.246494,64.331146,68.213448,70.488144,71.56031,72.487129,74.394226,77.806915,82.321144,86.839996,90.24279,92.069138,92.78553,93.468666,95.11628,98.031815,101.6721,105.03788,107.33504,108.46938,109.06426,110.01283,111.87907,114.54664,117.33628,119.49876,120.75038,121.50206,122.64001,125.00213,128.87518,133.81006,138.84738,143.00389,145.73672,147.14426,147.83261,148.56172,149.87936,151.91983,154.42873,156.95413,159.08127,160.59984,161.55119,162.16721,162.75185,163.56436,164.74728,166.31665,168.20401,170.31892,172.59335,174.98285,177.42867,179.81485,181.96458,183.69838,184.9337,185.7683,186.48569,187.46008,188.99796,191.19702,193.90007,196.76976,199.44165,201.66927,203.38412,204.64954,205.55318,206.11816,206.2961,206.04794,205.45869,204.80455,204.51367,205.02028,206.5735,209.09457,212.16005,215.13365,217.39969,218.59941,218.76564,218.29269,217.75392,217.65073,218.21013,219.32216,220.63539,221.74767,222.38419,222.47475,222.11102,221.44044,220.58385,219.63145,218.69897,217.97005,217.65622,217.87427,218.52145,219.25883,219.65636,219.44002,218.68985,217.84021,217.44557,217.83086,218.84041,219.86093,220.13232,219.17615,217.08517,214.49445,212.24821,210.96649,210.77242,211.33115,212.1452,212.88989,213.56247,214.36334,215.422,216.58792,217.45305,217.59756,216.88306,215.57559,214.1994,213.21188,212.71991,212.43024,211.86391,210.68196,208.89694,206.83276,204.87881,203.2278,201.78938,200.33081,198.72052,197.0714,195.65939,194.67259,193.99004,193.18513,191.78897,189.64616,187.10175,184.85219,183.52245,183.23711,183.48503,183.39758,182.28377,180.07727,177.38947,175.11136,173.80821,173.29857,172.70233,170.94295,167.39345,162.2605,156.46846,151.12685,146.92627,143.84023,141.29645,138.66925,135.74263,132.83282,130.50568,129.10342,128.42204,127.76814,126.36197,123.8162,120.37423,116.75689,113.72942,111.67797,110.46283,109.61628,108.7191,107.68134,106.73787,106.18218,106.04885,105.98916,105.44315,103.99871,101.69084,99.027756,96.711121,95.221489,94.531799,94.129852,93.333603,91.698418,89.262421,86.483986,83.91964,81.848618,80.075104,78.024826,75.074226,70.917786,65.765587,60.266109,55.203491,51.13332,48.143116,45.848618,43.613903,40.876129,37.412186,33.420723,29.385994,25.798363,22.878069,20.451204,18.052315,15.208726,11.755842,8.0002766,4.6170859,2.3111637,1.4151781,1.6522307,2.2164989,2.1517591,0.83124495,-1.7291323,-4.9074593,-7.8470917,-9.9494534,-11.200763,-12.142174,-13.508477,-15.762221,-18.81484,-22.110392,-25.021698,-27.310976,-29.360151,-32.01054,-36.086922,-41.875832,-48.865414,-55.911892,-61.75922,-65.640259,-67.641937,-68.644493,-69.872009,-72.291939,-76.170128,-80.994102,-85.779419,-89.579788,-91.931633,-93.019348,-93.509216,-94.176979,-95.548874,-97.742798,-100.55941,-103.71946,-107.06432,-110.5827,-114.2626,-117.90705,-121.09236,-123.35703,-124.53548,-125.01502,-125.69656,-127.60494,-131.32639,-136.60092,-142.35023,-147.1821,-150.11786,-151.12715,-151.14194,-151.52371,-153.29221,-156.57808,-160.62949,-164.35728,-167.06406,-168.88651,-170.67003,-173.36522,-177.35027,-182.13181,-186.62881,-189.86061,-191.59398,-192.5302,-193.91034,-196.78981,-201.43732,-207.21986,-213.01616,-217.86774,-221.44914,-224.08415,-226.34908,-228.56728,-230.54752,-231.7325,-231.64153,-230.30356,-228.39865,-227.02487,-227.24164,-229.6546,-234.24638,-240.48398,-247.57686,-254.71939,-261.22824,-266.59888,-270.55832,-273.14423,-274.74768,-276.00531,-277.48227,-279.22937,-280.42981,-279.37473,-273.88107,-262.04843,-243.06268,-217.70277,-188.32468,-158.32104,-131.26837,-110.07444,-96.393547,-90.432899,-91.117882,-96.488968,-104.19189,-111.96146,-118.03918,-121.47337,-122.23966,-121.125,-119.37274,-118.1829,-118.24955,-119.53431,-121.38531,-122.94511,-123.63383,-123.44177,-122.86604,-122.53201,-122.73734,-123.21657,-123.29791,-122.37389,-120.38901,-118.00566,-116.2924,-116.08304,-117.3931,-119.28372,-120.3107,-119.33141,-116.19595,-111.89058,-108.02158,-105.93344,-105.9882,-107.43694,-108.94466,-109.4211,-108.62708,-107.18742,-106.03927,-105.7124,-105.93382,-105.81271,-104.46097,-101.61343,-97.826859,-94.138855,-91.441261,-90.004738,-89.461998,-89.215294,-88.930756,-88.735497,-88.974449,-89.7323,-90.522102,-90.434395,-88.699532,-85.285782,-81.083244,-77.477936,-75.536255,-75.312035,-75.744156,-75.250023,-72.672134,-68.001236,-62.432938,-57.729309,-55.278313,-55.405464,-57.304081,-59.556114,-60.881203,-60.680576,-59.146782,-57.01659,-55.233082,-54.742519,-56.45245,-61.199932,-69.572052,-81.585892,-96.430031,-112.52011,-127.96049,-141.23129,-151.7309,-159.85083,-166.53064,-172.56479,-178.09106,-182.57062,-185.24725,-185.76331,-184.51511,-182.51254,-180.83772,-180.05505,-179.94313,-179.6982,-178.45508,-175.78952,-171.91212,-167.48863,-163.25789,-159.71065,-156.99536,-155.02551,-153.62727,-152.58055,-151.54546,-150.00534,-147.3766,-143.30756,-138.00719,-132.35425,-127.62421,-124.90211,-124.47395,-125.55521,-126.55721,-125.79507,-122.28091,-116.18265,-108.70701,-101.47987,-95.7658,-91.938416,-89.452003,-87.278053,-84.52475,-80.889633,-76.72438,-72.7285,-69.488525,-67.137421,-65.306152,-63.355873,-60.725658,-57.191547,-52.913345,-48.284607,-43.708851,-39.442814,-35.577423,-32.123901,-29.106918,-26.577951,-24.536665,-22.830124,-21.129332,-19.036522,-16.283314,-12.902948,-9.2553139,-5.8624358,-3.1286509,-1.1005622,0.58872879,2.5473485,5.313314,9.0754833,13.579722,18.264923,22.54331,26.066082,28.839474,31.155058,33.403484,35.889023,38.732441,41.877293,45.155045,48.356445,51.289165,53.835018,56.015892,58.040733,60.275131,63.096401,66.672523,70.786346,74.843712,78.12072,80.153702,81.054367,81.533516,82.566124,84.848907,88.354462,92.263336,95.35376,96.659836,96.036469,94.304329,92.876945,93.062645,95.414597,99.471504,104.0128,107.67841,109.62661,109.91156,109.42734,109.48415,111.23689,115.21767,121.1449,128.05222,134.6627,139.86002,143.08603,144.52007,144.96719,145.48987,146.92972,149.53056,152.84479,155.97722,158.05127,158.66151,158.08057,157.12091,156.73917,157.60062,159.82317,162.99799,166.42595,169.41304,171.4828,172.4566,172.44223,171.793,171.05376,170.85641,171.73158,173.87448,176.98715,180.33012,183.02023,184.45323,184.62074,184.12004,183.82634,184.40585,185.95721,187.99625,189.78618,190.7995,191.02272,190.92865,191.16185,192.1609,193.95714,196.24644,198.6371,200.8745,202.89537,204.71898,206.31113,207.56221,208.40236,208.94012,209.47244,210.3131,211.54854,212.91998,213.96242,214.3419,214.15981,213.98058,214.51595,216.15082,218.63776,221.19971,223.00592,223.71078,223.67383,223.67967,224.32768,225.51471,226.40262,225.94278,223.63164,219.97305,216.2805,213.88092,213.20267,213.35291,212.51169,208.95789,202.12285,193.02293,183.78841,176.55736,172.38774,170.81664,170.28537,169.12082,166.45117,162.52477,158.31296,154.73213,152.02477,149.68364,146.91275,143.2657,139.01286,135.0009,132.12103,130.75267,130.54166,130.63185,130.17204,128.76486,126.59738,124.22315,122.18474,120.73225,119.78302,119.07999,118.38174,117.53496,116.41022,114.81105,112.4916,109.32123,105.49074,101.58205,98.385834,96.518959,96.051773,96.389565,96.524406,95.55336,93.181664,89.912086,86.786339,84.799904,84.31086,84.783424,85.030998,83.845634,80.677025,75.983345,71.045761,67.328712,65.719872,66.057831,67.206718,67.644402,66.25267,62.887196,58.424488,54.267681,51.58617,50.703678,50.958538,51.093964,49.945511,47.043144,42.812973,38.302681,34.618237,32.397224,31.586748,31.592583,31.653593,31.19795,29.998814,28.106665,25.67662,22.842333,19.707621,16.408705,13.139774,10.077164,7.2439842,4.4354224,1.3032243,-2.4193304,-6.6976619,-11.159829,-15.316634,-18.92301,-22.226751,-25.873816,-30.438576,-35.811676,-40.834671,-43.495003,-41.701492,-34.307686,-21.852592,-6.5827603,8.3231707,19.980034,26.871986,29.253477,28.714642,27.198765,26.034512,25.492603,25.035688,24.01185,22.298084,20.471804,19.420364,19.676233,20.947775,22.187704,22.186337,20.322725,16.984871,13.36475,10.727427,9.5979881,9.3814373,8.6768818,6.1193042,1.2486084,-5.1236014,-11.279934,-15.484813,-16.872332,-15.825773,-13.661241,-11.850669,-11.276188,-11.945776,-13.274145,-14.667008,-15.979914,-17.553507,-19.849669,-22.997936,-26.611574,-30.021303,-32.757626,-34.919846,-37.14098,-40.144989,-44.193558,-48.817013,-53.042618,-55.992054,-57.454517,-58.041122,-58.798363,-60.524147,-63.238934,-66.171417,-68.279564,-68.968933,-68.532944,-68.016975,-68.58577,-70.798599,-74.258087,-77.85511,-80.448364,-81.544197,-81.553429,-81.482689,-82.277603,-84.242493,-86.890442,-89.290451,-90.668053,-90.879242,-90.485428,-90.42054,-91.481873,-93.948288,-97.512016,-101.50233,-105.2244,-108.21885,-110.34834,-111.7426,-112.69262,-113.55602,-114.67087,-116.24731,-118.24564,-120.31556,-121.89096,-122.46293,-121.92317,-120.77412,-120.02892,-120.78481,-123.66082,-128.40945,-133.94899,-138.83682,-141.94583,-142.97427,-142.50757,-141.60843,-141.18884,-141.53761,-142.27153,-142.70784,-142.39713,-141.46452,-140.54326,-140.35252,-141.20348,-142.76154,-144.22762,-144.83055,-144.32188,-143.15942,-142.25844,-142.4575,-144.02156,-146.4796,-148.88774,-150.35023,-150.48155,-149.54004,-148.17535,-146.97131,-146.08542,-145.21385,-143.89462,-141.93874,-139.69095,-137.92503,-137.40988,-138.40173,-140.38409,-142.24467,-142.82188,-141.52429,-138.66592,-135.3114,-132.70393,-131.59427,-131.85173,-132.5786,-132.65834,-131.4155,-129.00325,-126.29956,-124.3858,-123.92538,-124.80902,-126.26001,-127.31007,-127.33924,-126.35495,-124.86909,-123.49369,-122.54277,-121.89844,-121.19835,-120.17612,-118.88824,-117.65852,-116.78992,-116.27467,-115.74434,-114.72705,-113.04266,-111.0391,-109.4585,-108.9732,-109.68181,-110.92207,-111.57837,-110.73988,-108.31196,-105.17521,-102.74803,-102.17974,-103.64958,-106.20282,-108.24187,-108.39663,-106.27119,-102.6416,-99.007874,-96.777603,-96.550873,-97.885437,-99.623398,-100.55094,-100.02145,-98.254532,-96.24176,-95.388092,-97.087006,-102.3661,-111.63894,-124.55219,-139.94894,-156.01785,-170.68102,-182.16183,-189.53171,-192.97459,-193.60611,-192.90753,-192.05319,-191.47925,-190.90421,-189.7458,-187.65115,-184.8091,-181.8735,-179.57962,-178.3197,-177.94263,-177.87511,-177.45331,-176.24409,-174.1824,-171.50053,-168.55521,-165.68379,-163.1442,-161.09924,-159.58099,-158.43123,-157.2926,-155.73373,-153.49747,-150.73235,-148.01637,-146.08223,-145.35872,-145.61203,-145.95998,-145.31693,-143.03224,-139.31787,-135.15755,-131.71309,-129.58752,-128.42825,-127.15487,-124.689,-120.71788,-115.97926,-111.85593,-109.52173,-109.18462,-109.91821,-110.19461,-108.78003,-105.43003,-100.96718,-96.731796,-93.786293,-92.371628,-91.903183,-91.421516,-90.145996,-87.783386,-84.480682,-80.579124,-76.422157,-72.344482,-68.752869,-66.101593,-64.665771,-64.241486,-64.050003,-63.038361,-60.481403,-56.509918,-52.155071,-48.783337,-47.229023,-47.201004,-47.419445,-46.465683,-43.809296,-40.283051,-37.582493,-37.005123,-38.199646,-38.77887,-35.172123,-24.337345,-5.4010882,19.697126,46.911362,71.737671,90.908218,103.30569,109.80695,112.38657,113.12531,113.62878,114.94244,117.6909,122.1198,127.95919,134.31523,139.86725,143.42752,144.58862,144.02124,143.15694,143.39616,145.33206,148.49988,151.8152,154.38515,156.11221,157.6618,159.83057,162.79999,165.85713,167.82849,167.94188,166.48962,164.77502,164.32097,165.85648,168.78583,171.53812,172.59363,171.5079,169.23936,167.55127,167.88531,170.45926,174.18155,177.4165,179.06213,179.21234,178.98476,179.67763,181.86484,185.04611,188.05289,189.87796,190.32468,190.0372,189.93968,190.53271,191.57236,192.3486,192.3252,191.63664,191.05315,191.4272,193.02867,195.26781,197.03299,197.42723,196.3968,194.81255,193.94109,194.6615,196.94832,199.94644,202.55257,204.08508,204.59528,204.65482,204.8304,205.25726,205.61452,205.48178,204.76749,203.8555,203.34544,203.58476,204.36125,205.01421,204.90991,203.94572,202.70741,202.14168,202.95177,205.12767,207.93484,210.36639,211.74191,212.04233,211.76909,211.46379,211.26506,210.83907,209.72964,207.84688,205.69557,204.12805,203.76262,204.47801,205.37189,205.26189,203.42242,200.0676,196.24449,193.19653,191.61607,191.27931,191.28958,190.73535,189.29131,187.35068,185.62646,184.54556,183.9028,183.03882,181.40619,179.08696,176.84787,175.65651,175.98965,177.4409,178.93861,179.44865,178.67232,177.23198,176.19214,176.248,177.17438,177.96443,177.59727,175.89862,173.84879,173.04588,174.62477,178.34917,182.53319,184.92268,184.02116,180.02014,174.71979,170.46854,168.78358,169.51732,171.07315,171.4915,169.68047,166.01006,161.94371,159.02289,157.91393,158.12428,158.49718,158.06319,156.63016,154.73982,153.10509,152.00494,151.10135,149.78662,147.75403,145.32097,143.23904,142.13281,142.00337,142.1895,141.82964,140.48012,138.41467,136.36423,134.88223,133.81902,132.32655,129.42824,124.75783,118.9213,113.18968,108.71371,105.81212,103.85024,101.8063,99.116043,96.164276,94.029686,93.631302,94.884697,96.51165,96.712807,94.300598,89.532089,84.044975,79.89035,78.273209,78.826576,79.898468,79.65107,77.221321,73.150848,68.792496,65.103668,61.664913,56.625088,47.66494,33.397861,14.335536,-7.1788592,-28.021173,-45.682339,-59.210808,-69.241043,-77.232704,-84.483978,-91.517395,-98.096916,-103.69434,-107.98326,-111.02779,-113.13158,-114.57404,-115.49629,-116.0157,-116.41908,-117.20387,-118.86726,-121.57037,-124.93965,-128.19189,-130.53708,-131.60149,-131.58965,-131.0894,-130.68192,-130.64951,-130.98157,-131.6308,-132.76691,-134.7737,-137.94847,-142.1275,-146.56555,-150.2435,-152.46193,-153.33096,-153.78551,-155.05197,-157.87427,-162.00369,-166.31465,-169.50528,-170.94612,-171.12233,-171.36781,-173.04865,-176.71371,-181.75163,-186.76009,-190.37383,-192.01581,-192.11464,-191.70407,-191.7256,-192.51912,-193.81216,-195.14354,-196.35239,-197.74287,-199.79958,-202.68228,-205.90971,-208.51773,-209.63423,-209.09386,-207.65363,-206.6183,-207.07948,-209.24687,-212.31013,-214.93538,-216.08803,-215.65794,-214.48737,-213.79007,-214.3465,-216.00572,-217.82448,-218.75412,-218.41943,-217.45764,-217.15372,-218.55377,-221.58417,-224.73123,-225.52631,-221.61685,-211.8644,-196.8931,-178.82036,-160.34889,-143.72322,-130.07932,-119.44592,-111.26927,-105.06046,-100.7548,-98.608475,-98.774422,-100.89845,-104.0421,-107.00887,-108.87992,-109.42775,-109.15255,-108.92131,-109.43127,-110.81807,-112.62871,-114.15006,-114.87088,-114.78725,-114.37289,-114.24922,-114.77148,-115.78896,-116.72221,-116.90651,-115.99654,-114.20062,-112.21799,-110.92046,-110.95097,-112.43961,-114.96042,-117.72461,-119.90095,-120.91726,-120.63186,-119.33457,-117.60375,-116.08318,-115.25138,-115.24947,-115.8207,-116.39398,-116.30429,-115.08785,-112.73658,-109.78223,-107.13052,-105.6768,-105.86046,-107.38432,-109.27954,-110.33631,-109.71538,-107.42084,-104.3471,-101.82317,-100.86669,-101.56154,-102.94724,-103.5387,-102.21779,-98.978584,-95.047165,-92.242416,-91.910591,-94.064102,-97.277481,-99.455833,-99.048622,-95.976944,-91.689873,-88.295181,-87.295387,-88.719933,-91.195221,-92.885712,-92.668793,-90.759872,-88.388985,-86.791534,-86.257301,-85.939812,-84.577362,-81.598129,-77.763657,-74.800957,-74.201851,-76.02063,-78.589088,-79.478325,-77.144066,-72.120506,-66.824226,-63.926815,-64.281296,-65.829025,-64.405968,-56.175175,-40.286926,-20.073168,-1.8675741,8.0351,6.5975547,-4.4148874,-19.449121,-32.121834,-38.389553,-38.15797,-34.576057,-31.669724,-31.881413,-34.96767,-38.714973,-40.759274,-40.195728,-37.969234,-35.958744,-35.543633,-36.69418,-38.151711,-38.451534,-36.981144,-34.321945,-31.702181,-30.038807,-29.300343,-28.628611,-27.066643,-24.302063,-20.862146,-17.644302,-15.180641,-13.229017,-11.017037,-7.9498177,-4.2197208,-0.81181479,1.1536244,1.2895221,0.37599114,-0.0074115526,1.5424384,5.3096385,10.20164,14.38352,16.411659,16.132648,14.763692,14.111122,15.445889,18.763632,22.881119,26.260603,27.989637,28.280651,28.210701,28.938335,30.956091,33.863739,36.75507,38.890182,40.162964,41.063736,42.219898,43.892246,45.807442,47.433628,48.467777,49.148342,50.142616,52.078114,55.055367,58.501007,61.482136,63.277393,63.819389,63.713093,63.828575,64.754951,66.485458,68.528687,70.338921,71.742683,73.057877,74.832848,77.405716,80.604912,83.801468,86.268311,87.590759,87.85247,87.498886,87.016731,86.686714,86.583099,86.778023,87.53157,89.252586,92.204727,96.164795,100.33035,103.63201,105.31427,105.41403,104.77206,104.48689,105.09737,106.00484,105.55019,101.7796,93.500069,81.02005,66.133987,51.349541,38.798069,29.4375,22.951847,18.313126,14.583858,11.442903,9.1552792,8.1025782,8.2728386,9.0995665,9.7621727,9.7209597,9.0936079,8.5963917,9.0796337,10.96693,13.96876,17.249754,19.923889,21.544746,22.283117,22.71125,23.375763,24.459482,25.737608,26.809393,27.401003,27.516018,27.355486,27.117056,26.865677,26.587599,26.364775,26.484444,27.333572,29.10404,31.517883,33.821747,35.142155,35.032497,33.863197,32.752457,33.002789,35.335293,39.381187,43.771099,46.814053,47.39362,45.561111,42.476482,39.735313,38.485596,38.85347,39.995579,40.708786,40.199928,38.547142,36.601261,35.429935,35.673447,37.202251,39.250275,40.897839,41.585999,41.365311,40.777733,40.497734,40.973297,42.257153,44.065212,45.960712,47.526955,48.457573,48.587166,47.922665,46.692707,45.357697,44.497692,44.562054,45.587574,47.076248,48.186371,48.224724,47.222908,46.269554,47.34314,52.628788,63.584415,80.185135,100.72156,122.27559,141.67908,156.53996,165.90747,170.33672,171.39746,170.90514,170.23209,169.96426,169.97371,169.78239,168.98914,167.54677,165.78627,164.22159,163.26944,163.04102,163.30652,163.63373,163.60986,163.01845,161.87862,160.34076,158.5213,156.39557,153.82756,150.72284,147.20123,143.66223,140.67575,138.74219,138.0549,138.40698,139.29977,140.18762,140.71071,140.78171,140.49406,139.93974,139.08084,137.77356,135.92613,133.66748,131.386,129.58081,128.59741,128.40614,128.56548,128.4043,127.32797,125.08441,121.85889,118.16927,114.63833,111.76434,109.78217,108.64057,108.06752,107.68031,107.10928,106.11287,104.65363,102.89471,101.09528,99.439362,97.894783,96.211403,94.098267,91.495224,88.75782,86.588722,85.691521,86.315659,87.975067,89.560455,89.842224,88.107574,84.560898,80.230293,76.411194,73.961945,72.863823,72.299118,71.184357,68.822395,65.280556,61.291515,57.778397,55.325176,53.912945,53.041092,52.098892,50.718956,48.903206,46.899593,44.976166,43.272758,41.805916,40.559917,39.536255,38.698036,37.869976,36.723835,34.923782,32.363628,29.316837,26.344782,23.971867,22.323973,20.992235,19.257442,16.564402,12.941187,9.0644703,5.8925905,4.0806932,3.5544946,3.5292046,2.970778,1.2018875,-1.7410264,-5.2221355,-8.4927139,-11.200879,-13.571427,-16.144442,-19.277981,-22.787939,-25.999577,-28.190472,-29.121527,-29.280664,-29.652357,-31.145359,-34.040138,-37.804352,-41.382687,-43.767273,-44.495754,-43.802372,-42.390896,-41.031681,-40.253296,-40.277,-41.139999,-42.827835,-45.273861,-48.239159,-51.225368,-53.576092,-54.780754,-54.81353,-54.264423,-54.121029,-55.280918,-58.066036,-62.033817,-66.209579,-69.607323,-71.729813,-72.758522,-73.345276,-74.165321,-75.525696,-77.26252,-78.956627,-80.289566,-81.287292,-82.296234,-83.728584,-85.768326,-88.243858,-90.749397,-92.924492,-94.699455,-96.345558,-98.305145,-100.92001,-104.23331,-107.97878,-111.74182,-115.16985,-118.09452,-120.50666,-122.43692,-123.85856,-124.70296,-124.98224,-124.91869,-124.95683,-125.60231,-127.15311,-129.48076,-132.01715,-133.99709,-134.85368,-134.55594,-133.68561,-133.18085,-133.85875,-135.96481,-139.00127,-141.94672,-143.76917,-143.96788,-142.85312,-141.40663,-140.78796,-141.74176,-144.2114,-147.34952,-149.90186,-150.74962,-149.33122,-145.75626,-140.60735,-134.59048,-128.24638,-121.85841,-115.54859,-109.43855,-103.73637,-98.689781,-94.457375,-91.010147,-88.149338,-85.635735,-83.341728,-81.320015,-79.742783,-78.757065,-78.358421,-78.367996,-78.52121,-78.599152,-78.509842,-78.271515,-77.925659,-77.456856,-76.782928,-75.818024,-74.551857,-73.079063,-71.558701,-70.14566,-68.95929,-68.116386,-67.785194,-68.175941,-69.417404,-71.365372,-73.478912,-74.905228,-74.806419,-72.796623,-69.245506,-65.234154,-62.126682,-60.948433,-61.896923,-64.260063,-66.795662,-68.365204,-68.472412,-67.421104,-66.037567,-65.154549,-65.174774,-65.951752,-67.008736,-67.907181,-68.506264,-68.958015,-69.476982,-70.073921,-70.45295,-70.145851,-68.790512,-66.367966,-63.250069,-60.040077,-57.316002,-55.426334,-54.426437,-54.138863,-54.255234,-54.411015,-54.232437,-53.405956,-51.803513,-49.619232,-47.404701,-45.902847,-45.693008,-46.808594,-48.567036,-49.783077,-49.335842,-46.836514,-43.0373,-39.715473,-39.024845,-42.592392,-50.789127,-62.530865,-75.70314,-87.996613,-97.749954,-104.42061,-108.51521,-111.08708,-113.10147,-114.98958,-116.57034,-117.30806,-116.71123,-114.64002,-111.37808,-107.4734,-103.47486,-99.72541,-96.313324,-93.174362,-90.248566,-87.573997,-85.255974,-83.342911,-81.713486,-80.081825,-78.155769,-75.874474,-73.57618,-71.956993,-71.785904,-73.487671,-76.80835,-80.769073,-83.980339,-85.196884,-83.848068,-80.270531,-75.514931,-70.823494,-67.054634,-64.359932,-62.275303,-60.150864,-57.650852,-55.017735,-52.938904,-52.094501,-52.660896,-54.07856,-55.244194,-55.040703,-52.91814,-49.200985,-44.943951,-41.406891,-39.428207,-39.029732,-39.456577,-39.617752,-38.680069,-36.493282,-33.62598,-31.008379,-29.390501,-28.917795,-29.05385,-28.884983,-27.631548,-25.080719,-21.703798,-18.39966,-16.014589,-14.910375,-14.818903,-15.050779,-14.917699,-14.105503,-12.772791,-11.327198,-10.040909,-8.7762547,-7.0260444,-4.2666121,-0.40203893,4.0082741,7.9321055,10.394891,11.057353,10.477362,9.86199,10.423415,12.707796,16.301331,20.098038,22.969124,24.422209,24.844166,25.18795,26.320963,28.469398,31.122704,33.450809,34.938156,35.789577,36.816448,38.869228,42.202137,46.21727,49.788933,51.975883,52.654808,52.644726,53.22237,55.33551,59.028587,63.45911,67.489922,70.455566,72.583351,74.783989,77.956696,82.287674,87.030411,90.931686,93.027153,93.273979,92.591103,92.272751,93.162254,95.135506,97.237289,98.377708,98.122444,97.049065,96.430244,97.447823,100.44562,104.69616,108.81853,111.56989,112.51252,112.16497,111.59065,111.72661,112.88367,114.69472,116.4761,117.71464,118.35612,118.74863,119.34107,120.38004,121.80502,123.36849,124.84481,126.15425,127.32702,128.3745,129.20552,129.67473,129.72696,129.51154,129.35661,129.60408,130.4196,131.71806,133.25835,134.82985,136.3799,137.9785,139.64886,141.20958,142.27965,142.47942,141.70248,140.25734,138.74777,137.74001,137.42413,137.50253,137.39716,136.6546,135.2858,133.80992,132.96172,133.24203,134.59741,136.43146,137.93843,138.54703,138.20265,137.33167,136.53851,136.24745,136.51363,137.09839,137.72417,138.3172,139.07141,140.29713,142.16039,144.48311,146.73183,148.20998,148.35916,147.02496,144.56418,141.74104,139.44167,138.30389,138.39989,139.10799,139.25935,137.54115,133.01456,125.52238,115.77978,105.0794,94.740685,85.583595,77.706596,70.681412,64.030304,57.677341,52.079151,47.944992,45.725418,45.209316,45.510166,45.476418,44.285301,41.855465,38.825344,36.119335,34.381927,33.632824,33.339447,32.826332,31.729685,30.196657,28.719433,27.747177,27.361059,27.237932,26.916254,26.164995,25.18811,24.515219,24.64669,25.688267,27.216934,28.467863,28.728443,27.703163,25.6441,23.193869,21.056351,19.691133,19.184025,19.322569,19.788828,20.337904,20.871284,21.395273,21.921713,22.385538,22.627151,22.443369,21.67663,20.298868,18.451471,16.419876,14.546287,13.112794,12.246869,11.897593,11.896052,12.062964,12.292385,12.552762,12.805259,12.908007,12.600216,11.613613,9.8624735,7.5848427,5.3105717,3.6309028,2.880393,2.9218597,3.1819594,2.936641,1.68476,-0.61329925,-3.5702224,-6.639276,-9.425127,-11.832552,-13.976981,-15.960176,-17.711378,-19.034655,-19.830791,-20.307886,-20.982252,-22.419601,-24.870401,-28.056759,-31.280439,-33.795048,-35.182198,-35.452419,-34.787689,-33.123672,-29.926514,-24.415895,-16.169941,-5.7309499,5.2495875,14.543408,20.33816,22.134501,20.99115,18.92798,17.811249,18.375971,19.963793,21.110775,20.589386,18.236185,15.054426,12.560966,11.829669,12.855319,14.622082,15.78393,15.47683,13.735792,11.295808,8.9860411,7.1805472,5.6815295,4.0646648,2.1710865,0.33643723,-0.83499026,-0.98173714,-0.37797359,0.12752847,-0.36583608,-2.1687131,-4.7000532,-6.7736473,-7.321856,-6.0945268,-3.8688312,-2.020376,-1.7266724,-3.3148751,-6.1638293,-9.1965027,-11.608961,-13.339372,-14.976343,-17.199854,-20.167732,-23.289656,-25.555523,-26.199076,-25.24654,-23.577007,-22.44899,-22.799114,-24.759554,-27.682838,-30.622816,-32.931458,-34.582527,-36.043674,-37.833778,-40.103462,-42.535599,-44.618553,-46.076958,-47.136429,-48.42009,-50.534229,-53.618095,-57.16264,-60.229855,-61.948475,-61.990837,-60.754368,-59.156689,-58.179581,-58.424587,-59.906582,-62.153797,-64.511925,-66.465515,-67.822029,-68.708588,-69.432755,-70.304337,-71.499268,-73.003204,-74.634506,-76.127563,-77.247421,-77.896767,-78.169601,-78.319351,-78.648552,-79.375282,-80.553322,-82.093353,-83.864098,-85.790779,-87.865738,-90.052444,-92.157806,-93.79528,-94.515289,-94.059608,-92.583961,-90.678612,-89.127075,-88.516495,-88.930855,-89.928154,-90.829971,-91.14566,-90.855843,-90.366943,-90.169876,-90.44323,-90.887077,-90.919044,-90.109741,-88.55722,-86.92775,-86.111282,-86.70507,-88.662987,-91.340706,-93.899681,-95.790314,-96.988281,-97.840492,-98.659904,-99.389549,-99.603691,-98.862541,-97.165489,-95.153488,-93.868202,-94.181412,-96.249817,-99.357452,-102.2684,-103.88606,-103.8213,-102.53677,-101.01082,-100.16023,-100.38435,-101.47427,-102.8711,-104.04356,-104.72575,-104.90923,-104.68272,-104.10742,-103.24063,-102.25607,-101.49795,-101.34917,-101.95929,-103.03318,-103.88488,-103.79277,-102.46121,-100.27827,-98.160248,-97.040573,-97.311821,-98.582657,-99.916695,-100.40232,-99.68058,-98.089058,-96.345955,-95.015305,-94.138977,-93.291588,-92.002632,-90.21994,-88.454956,-87.481026,-87.786217,-89.175461,-90.827126,-91.794601,-91.621773,-90.643562,-89.745201,-89.722725,-90.671455,-91.827225,-91.99395,-90.30088,-86.806541,-82.554947,-79.036591,-77.382957,-77.785118,-79.474808,-81.245377,-82.158691,-81.990189,-81.157578,-80.222008,-79.32045,-77.918144,-75.052734,-69.924232,-62.46669,-53.546673,-44.654686,-37.248997,-32.105045,-29.012823,-26.967525,-24.73221,-21.46376,-17.078594,-12.191347,-7.6947799,-4.2354636,-1.8791684,-0.13737354,1.6868496,4.0571785,6.9370432,9.8526106,12.232859,13.800227,14.755901,15.640493,16.967388,18.880775,21.075872,23.039585,24.443869,25.409147,26.438227,28.052988,30.387783,33.04203,35.324146,36.737923,37.370193,37.881561,39.067539,41.26878,44.04443,46.370861,47.27734,46.516212,44.811569,43.489307,43.6987,45.716618,48.784027,51.581284,53.032688,52.922325,51.941994,51.178055,51.410561,52.695503,54.474331,56.074524,57.204617,58.08519,59.153004,60.602707,62.146671,63.196342,63.33535,62.718391,62.070564,62.253292,63.690525,66.067505,68.530937,70.262138,71.024109,71.296974,71.909088,73.431267,75.768967,78.239571,80.066978,80.922142,81.107422,81.247169,81.712646,82.208588,81.834557,79.589882,74.969322,68.233627,60.182194,51.624054,42.963696,34.222347,25.469044,17.296034,10.900142,7.5974259,8.0254898,11.568315,16.45459,20.564537,22.503475,22.29038,21.223896,20.998934,22.622618,25.804441,29.187622,31.2484,31.270763,29.774965,28.148417,27.746038,29.05456,31.448311,33.662807,34.649517,34.250134,33.271976,32.945957,34.135902,36.800564,40.022369,42.551243,43.507275,42.823578,41.203049,39.667011,38.995266,39.376602,40.424026,41.484051,42.022701,41.871483,41.234596,40.504494,40.021427,39.91148,40.069981,40.274063,40.350315,40.307957,40.369602,40.878559,42.118526,44.129639,46.62038,49.040211,50.798641,51.529663,51.25946,50.375374,49.404091,48.723652,48.382275,48.136208,47.681049,46.922012,46.097115,45.660362,45.992958,47.132339,48.706379,50.129532,50.943352,51.083168,50.895103,50.88863,51.381889,52.268162,53.053555,53.143581,52.201622,50.365467,48.204094,46.457035,45.716022,46.216045,47.811577,50.098274,52.578987,54.793076,56.392673,57.195686,57.235859,56.784889,56.293461,56.229008,56.86478,58.137012,59.67374,61.000984,61.810429,62.115562,62.185223,62.292191,62.451767,62.347954,61.525375,59.736702,57.208237,54.617657,52.759094,52.086437,52.427536,53.071003,53.193035,52.365425,50.82048,49.294949,48.544369,48.836475,49.753422,50.438503,50.138275,48.697857,46.693169,45.111435,44.775127,45.863003,47.816742,49.678242,50.638817,50.462818,49.542942,48.583618,48.135338,48.276867,48.626328,48.642708,48.000938,46.79649,45.464245,44.487251,44.096882,44.151775,44.250816,43.981266,43.130192,41.735161,39.974884,38.009197,35.896584,33.640308,31.304399,29.081537,27.231106,25.909918,25.013428,24.158167,22.85256,20.775835,18.001518,15.020993,12.537149,11.134514,11.005413,11.875606,13.15462,14.211824,14.624834,14.286958,13.358073,12.129325,10.895205,9.8855562,9.2485018,9.0436201,9.2219992,9.6116562,9.9492445,9.975522,9.558321,8.7671967,7.8382411,7.0337343,6.4763336,6.0641661,5.5270281,4.5915742,3.148813,1.314238,-0.65557361,-2.5268388,-4.2152753,-5.7879853,-7.3467803,-8.8898716,-10.269348,-11.294552,-11.920576,-12.383895,-13.160262,-14.720912,-17.19203,-20.099657,-22.360884,-22.571209,-19.496992,-12.580062,-2.24541,10.126132,22.571232,33.1413,40.508411,44.348957,45.348293,44.819042,44.094799,43.974339,44.478603,45.032356,44.956997,43.983257,42.472912,41.20628,40.859615,41.502598,42.453918,42.622276,41.152943,37.991024,34.002205,30.553905,28.791391,29.035519,30.653429,32.460903,33.392284,33.028934,31.694359,30.115759,28.917412,28.28091,27.951668,27.516422,26.707075,25.511557,24.053885,22.393114,20.440096,18.071833,15.338768,12.564008,10.208757,8.5706224,7.5388041,6.6198497,5.2615213,3.2716186,1.028851,-0.69688416,-1.2293389,-0.46168369,1.0096191,2.2085702,2.3669391,1.3944628,-0.077802889,-1.1068324,-1.0240712,0.18684636,1.9518423,3.5312991,4.49121,4.8968916,5.1283302,5.4995341,5.9974432,6.3441052,6.3174758,6.049109,6.0216184,6.7198915,8.1772175,9.7788563,10.533182,9.6877432,7.2904654,4.2858019,2.0227938,1.451941,2.5235736,4.194397,5.056035,4.1777472,1.5962563,-1.8893787,-5.488955,-9.2259645,-14.186628,-21.968248,-33.612904,-48.683945,-65.101646,-79.914391,-90.612617,-96.254089,-97.772667,-97.324753,-97.085114,-98.19635,-100.43629,-102.70175,-103.91787,-103.76956,-102.82668,-102.05904,-102.12704,-102.94423,-103.79019,-103.86742,-102.90323,-101.3829,-100.25733,-100.32083,-101.66864,-103.58898,-104.96394,-104.93286,-103.41352,-101.17102,-99.403267,-99.096161,-100.52041,-103.13523,-105.91304,-107.86378,-108.45502,-107.72694,-106.10643,-104.09501,-102.04211,-100.11179,-98.395248,-97.023369,-96.157043,-95.851456,-95.911789,-95.887535,-95.265053,-93.768829,-91.578835,-89.294479,-87.623863,-86.960381,-87.105789,-87.333588,-86.788368,-85.00164,-82.212959,-79.284355,-77.235558,-76.663383,-77.390625,-78.560196,-79.12204,-78.420326,-76.527504,-74.13221,-72.068909,-70.800247,-70.183296,-69.657005,-68.706146,-67.275291,-65.844467,-65.111328,-65.49614,-66.810852,-68.32563,-69.197372,-68.975967,-67.847893,-66.45282,-65.400543,-64.822029,-64.267365,-63.025421,-60.647602,-57.312702,-53.774605,-50.919975,-49.233646,-48.536514,-48.17524,-47.530434,-46.486279,-45.52689,-45.381771,-46.459892,-48.469006,-50.502151,-51.559395,-51.171757,-49.711849,-48.171856,-47.536915,-48.149391,-49.471123,-50.397648,-49.928791,-47.77935,-44.560238,-41.434452,-39.471935,-39.091251,-39.894455,-40.945267,-41.284168,-40.371944,-38.246655,-35.379749,-32.384033,-29.762407,-27.798962,-26.570656,-25.993938,-25.848207,-25.791435,-25.42662,-24.446772,-22.806622,-20.810877,-19.030077,-18.052879,-18.193798,-19.318466,-20.889492,-22.209223,-22.723539,-22.223263,-20.850786,-18.937923,-16.790838,-14.54866,-12.17917,-9.5867729,-6.7499895,-3.8036788,-1.0231568,1.2796589,2.9000373,3.8616307,4.4572525,5.1732068,6.5022388,8.7066517,11.642457,14.759744,17.327301,18.806612,19.18648,19.067513,19.396317,20.950867,23.853994,27.418644,30.462624,31.952299,31.612751,30.128199,28.78253,28.729851,30.327766,32.946384,35.381828,36.62429,36.500027,35.77887,35.676445,37.069172,39.927731,43.334614,46.07185,47.392998,47.474777,47.25705,47.78587,49.502441,51.954414,54.120739,55.128742,54.877369,54.141327,54.077106,55.453171,58.11507,61.046043,62.993305,63.258179,62.138939,60.739521,60.265564,61.254948,63.222382,64.92318,65.044334,62.872658,58.531235,52.679695,45.930977,38.410614,29.765827,19.608013,8.0661192,-3.9552419,-15.025821,-23.82136,-29.750589,-33.183334,-35.134514,-36.603355,-37.983753,-38.91272,-38.641209,-36.677834,-33.282288,-29.480616,-26.575703,-25.443304,-26.039978,-27.422695,-28.272631,-27.617891,-25.340275,-22.189857,-19.325899,-17.672319,-17.462238,-18.208241,-19.068472,-19.350901,-18.842997,-17.793604,-16.608656,-15.500885,-14.345585,-12.83998,-10.847127,-8.6695747,-7.0317612,-6.7345757,-8.1649714,-10.958473,-14.045417,-16.097189,-16.15202,-14.083648,-10.652845,-7.1105723,-4.5702252,-3.4911387,-3.5443642,-3.9086471,-3.8012795,-2.9268634,-1.594259,-0.46189165,-0.09416952,-0.61322248,-1.6540594,-2.6309536,-3.1271067,-3.1504714,-3.0955653,-3.4475434,-4.4318991,-5.843421,-7.1638541,-7.8833613,-7.8058395,-7.1326523,-6.2734137,-5.5221181,-4.8327117,-3.8622596,-2.2640719,-0.032088097,2.3519795,4.0960512,4.5104289,3.4000514,1.1809306,-1.358874,-3.4938953,-4.8904748,-5.5891538,-5.6324754,-4.589479,-1.3389328,5.6524744,17.618782,34.703747,55.542713,77.503403,97.526474,113.18176,123.43914,128.80951,130.84596,131.31435,131.47043,131.76512,132.02592,131.90445,131.27567,130.36433,129.57603,129.19273,129.15138,129.04445,128.33102,126.62504,123.89864,120.50524,117.03242,114.07582,112.04224,111.05142,110.94597,111.37522,111.90665,112.13073,111.74297,110.59793,108.73116,106.34458,103.75499,101.31361,99.315384,97.921425,97.117645,96.723679,96.453804,96.015198,95.214081,94.031342,92.634384,91.312294,90.353699,89.915344,89.940697,90.170998,90.251381,89.888428,88.987289,87.700325,86.358261,85.310394,84.74807,84.598686,84.547607,84.182396,83.188354,81.491707,79.269814,76.820396,74.366875,71.92318,69.314178,66.352692,63.065041,59.804661,57.144337,55.573341,55.167877,55.453777,55.589661,54.806164,52.858501,50.208298,47.79211,46.485661,46.578411,47.591114,48.570492,48.694233,47.807938,46.539951,45.898174,46.587082,48.475704,50.566242,51.501949,50.309734,46.921978,42.163242,37.229385,33.004147,29.645035,26.674377,23.470671,19.799862,16.022827,12.854867,10.864001,10.063222,9.8717375,9.4584398,8.2265673,6.1231737,3.5991335,1.2900887,-0.34139925,-1.1769873,-1.3699701,-1.1542748,-0.71949762,-0.2398525,0.016143899,-0.34483907,-1.6942829,-4.1218762,-7.2540426,-10.32424,-12.503433,-13.305573,-12.809702,-11.552568,-10.169806,-9.0381012,-8.1641359,-7.3791962,-6.6663723,-6.3440156,-6.9357262,-8.7996521,-11.788263,-15.211667,-18.172009,-20.067657,-20.930387,-21.36204,-22.111874,-23.587084,-25.634026,-27.730686,-29.431477,-30.721443,-32.005154,-33.730373,-35.929401,-38.041718,-39.193256,-38.777702,-36.94878,-34.66481,-33.215412,-33.510357,-35.579006,-38.596786,-41.410156,-43.209461,-43.917728,-44.072678,-44.328629,-44.951614,-45.66021,-45.902084,-45.343998,-44.210117,-43.222641,-43.185345,-44.497379,-46.921303,-49.741058,-52.176643,-53.765488,-54.478462,-54.553429,-54.233486,-53.639832,-52.868031,-52.188789,-52.127178,-53.275597,-55.910408,-59.667118,-63.540157,-66.285843,-67.04277,-65.821648,-63.571056,-61.764797,-61.728054,-64.053932,-68.387657,-73.637199,-78.452255,-81.722954,-82.907364,-82.127533,-80.075287,-77.792107,-76.364342,-76.572731,-78.584366,-81.833076,-85.216248,-87.598656,-88.411369,-88.003296,-87.470016,-87.958138,-89.782013,-91.874878,-91.976852,-87.569153,-77.11657,-60.954441,-41.313381,-21.439821,-4.274436,8.6117764,17.295818,22.940531,26.81694,29.531744,30.886461,30.355076,27.773027,23.730453,19.401485,15.94265,13.882667,12.91665,12.230301,11.118334,9.4721994,7.8152194,6.8802085,7.0352197,7.9596124,8.7960529,8.6791601,7.2879419,5.0535002,2.8813512,1.5652031,1.2681471,1.4026171,0.98605108,-0.74822539,-3.8590848,-7.6186872,-10.88556,-12.701129,-12.762212,-11.513052,-9.8336363,-8.5304108,-7.9286461,-7.7817011,-7.5149336,-6.6339126,-5.0513201,-3.1541078,-1.5900847,-0.9061504,-1.2396142,-2.2231636,-3.1474111,-3.2970176,-2.2984865,-0.31868422,1.976004,3.6842194,4.046979,2.7778263,0.20314042,-2.8530295,-5.3964028,-6.6640167,-6.4242239,-5.0420752,-3.2850132,-1.9668813,-1.6036041,-2.2401164,-3.5113416,-4.8747029,-5.8697963,-6.2691054,-6.0721054,-5.4020605,-4.4169679,-3.3080955,-2.3615088,-1.9771698,-2.5477059,-4.2046514,-6.5765643,-8.7659607,-9.6704807,-8.5715275,-5.7070136,-2.476073,-1.0665437,-3.595957,-11.148749,-23.196617,-37.723526,-52.019363,-63.754177,-71.802452,-76.437241,-78.867783,-80.442085,-81.978081,-83.553299,-84.774971,-85.268456,-85.032845,-84.453087,-84.014259,-83.959015,-84.140007,-84.157791,-83.665489,-82.613907,-81.270599,-80.019707,-79.104736,-78.503922,-78.015823,-77.470894,-76.894455,-76.492241,-76.472275,-76.846046,-77.370331,-77.684616,-77.548653,-77.004517,-76.33873,-75.867416,-75.701485,-75.669151,-75.460182,-74.891197,-74.094055,-73.474899,-73.452492,-74.14753,-75.242363,-76.123398,-76.227097,-75.366249,-73.818604,-72.114998,-70.66597,-69.477821,-68.153992,-66.19043,-63.377216,-60.042664,-56.968761,-55.009823,-54.628498,-55.614895,-57.147373,-58.160408,-57.822243,-55.882919,-52.741108,-49.231537,-46.26252,-44.474449,-44.044846,-44.678402,-45.746498,-46.506325,-46.331539,-44.899567,-42.292095,-38.97628,-35.658749,-33.046379,-31.592354,-31.326658,-31.846043,-32.47419,-32.526577,-31.566339,-29.542828,-26.76165,-23.715044,-20.863926,-18.478565,-16.606325,-15.163967,-14.08355,-13.412095,-13.29174,-13.819966,-14.870721,-16.001265,-16.541954,-15.871202,-13.759422,-10.593241,-7.3182635,-5.0693684,-4.6320109,-5.9992299,-8.2765484,-10.028518,-9.930706,-7.4135389,-2.9659998,2.0706048,6.1262217,8.1302748,7.9767046,6.5002203,4.9986396,4.5705905,5.6185746,7.7570925,10.13349,11.949518,12.882953,13.19061,13.468555,14.237733,15.607857,17.211338,18.43507,18.80724,18.312111,17.44911,16.996016,17.599163,19.410559,21.970566,24.407745,25.860125,25.9032,24.762922,23.202673,22.144758,22.22641,23.521345,25.562395,27.632261,29.144852,29.901657,30.09683,30.103176,30.200516,30.427267,30.63748,30.696697,30.652966,30.740576,31.200394,32.044342,32.949768,33.394543,32.978981,31.736383,30.212854,29.226345,29.418375,30.860657,32.968594,34.801193,35.591633,35.201843,34.225525,33.665604,34.363934,36.5116,39.524345,42.356476,44.07338,44.358414,43.67482,43.005726,43.330917,45.132492,48.183842,51.703308,54.754128,56.659801,57.230457,56.72654,55.633442,54.399857,53.273338,52.280548,51.311436,50.227421,48.933083,47.398273,45.652828,43.778103,41.899288,40.165287,38.708519,37.599258,36.825722,36.321068,36.025314,35.937889,36.114819,36.600803,37.338818,38.129147,38.689068,38.800949,38.471409,38.003609,37.927181,38.812378,41.06242,44.78701,49.803711,55.734196,62.114304,68.45401,74.248055,78.996887,82.298508,84.007515,84.374519,84.045448,83.85762,84.492973,86.160492,88.49662,90.766937,92.279266,92.782913,92.622597,92.551247,93.304657,95.181877,97.869545,100.60058,102.54091,103.17538,102.4858,100.85897,98.827393,96.826134,95.100525,93.769455,92.935478,92.71608,93.156128,94.098114,95.142982,95.782013,95.653679,94.771011,93.557335,92.637695,92.490059,93.161407,94.225159,95.013443,94.988121,94.029526,92.473694,90.886444,89.722771,89.084686,88.7201,88.249596,87.465897,86.509834,85.807205,85.800545,86.635147,87.989098,89.157516,89.361839,88.131828,85.564789,82.322266,79.34903,77.434753,76.823174,77.066666,77.222542,76.327377,73.936089,70.449806,67.02787,65.071373,65.495415,68.152718,71.73616,74.265244,73.953522,70.030167,63.087315,54.766495,46.955952,40.939663,36.954044,34.355183,32.229591,30.026085,27.805796,25.987875,24.82173,24.005507,22.762577,20.354557,16.678244,12.501138,9.1129436,7.5689139,8.0040636,9.4874125,10.55107,10.082951,8.014267,5.3470993,3.49102,3.334348,4.6593103,6.2897077,6.8761277,5.7970114,3.5727334,1.5121849,0.82467163,1.7900209,3.5442798,4.6296105,3.9486754,1.4956782,-1.6141016,-3.8307483,-4.1204448,-2.5689166,-0.27023527,1.3907362,1.5693924,0.36987752,-1.3936659,-2.8662398,-3.7648432,-4.5222764,-5.8980627,-8.3642492,-11.712358,-15.150709,-17.806046,-19.265032,-19.779428,-20.010267,-20.51499,-21.353971,-22.095184,-22.204182,-21.531609,-20.541937,-20.108248,-20.996916,-23.377455,-26.676802,-29.873268,-32.0481,-32.863075,-32.696358,-32.388519,-32.776192,-34.285286,-36.782001,-39.707642,-42.372776,-44.238365,-45.068497,-44.936806,-44.137676,-43.06501,-42.097103,-41.504715,-41.398514,-41.73687,-42.400711,-43.303379,-44.468678,-46.015633,-48.045517,-50.501724,-53.108952,-55.457108,-57.196419,-58.220917,-58.708874,-58.977711,-59.242649,-59.448189,-59.30481,-58.525246,-57.107616,-55.462204,-54.26923,-54.131725,-55.232475,-57.213413,-59.359604,-60.975819,-61.723431,-61.719845,-61.366512,-61.050583,-60.935429,-60.971565,-61.085941,-61.371937,-62.103943,-63.538349,-65.636787,-67.928207,-69.64949,-70.117371,-69.116127,-67.055153,-64.785095,-63.173882,-62.69392,-63.258663,-64.382095,-65.529182,-66.416969,-67.081779,-67.703896,-68.351395,-68.852844,-68.903954,-68.333832,-67.32917,-66.431419,-66.272591,-67.19857,-69.019203,-71.058304,-72.494331,-72.800659,-72.029449,-70.77565,-69.848274,-69.844452,-70.868034,-72.534744,-74.231461,-75.454742,-76.028694,-76.097076,-75.931671,-75.704041,-75.370117,-74.727196,-73.585098,-71.925751,-69.945572,-67.962212,-66.258461,-64.971512,-64.095642,-63.581989,-63.450439,-63.8214,-64.833382,-66.4953,-68.573578,-70.599213,-72.008202,-72.347641,-71.441902,-69.44133,-66.748016,-63.879429,-61.347363,-59.591087,-58.944969,-59.592247,-61.483528,-64.260887,-67.27195,-69.735283,-71.028214,-70.965508,-69.900284,-68.552139,-67.622749,-67.403801,-67.613998,-67.583145,-66.692238,-64.808235,-62.437325,-60.483601,-59.746918,-60.465584,-62.189968,-64.065491,-65.340446,-65.768776,-65.652542,-65.51622,-65.659515,-65.91851,-65.814194,-64.980911,-63.547001,-62.148659,-61.506409,-61.818844,-62.401943,-61.886082,-58.93227,-53.067734,-45.115948,-36.909584,-30.406654,-26.707941,-25.549871,-25.564085,-25.12883,-23.284954,-20.173386,-16.77483,-14.177501,-12.874664,-12.52934,-12.300619,-11.447768,-9.7714806,-7.6090484,-5.4442887,-3.4702284,-1.4565219,0.97754878,3.9084425,6.8507466,8.9410009,9.4777575,8.4483957,6.6486354,5.2673273,5.1854429,6.4569693,8.3347578,9.837657,10.475223,10.62246,11.265684,13.274357,16.695688,20.577219,23.479881,24.375126,23.342556,21.593565,20.776846,21.991396,25.128769,28.957954,31.889887,32.928623,32.211731,30.824247,30.044918,30.535797,31.993544,33.453171,34.003132,33.420216,32.317265,31.73909,32.502357,34.716026,37.765545,40.72094,42.864292,43.995113,44.365158,44.362762,44.218964,43.94854,43.529739,43.130348,43.149307,43.985825,45.664387,47.577213,48.559025,47.312801,42.987617,35.610123,26.146542,16.168768,7.2954173,0.66885227,-3.3200464,-4.9886956,-5.0774403,-4.3821335,-3.4649961,-2.5413613,-1.5528947,-0.35956293,1.0625565,2.5282857,3.710495,4.3321195,4.3642302,4.0901489,3.9649155,4.3322864,5.1763139,6.0934172,6.5453148,6.2585344,5.5039282,5.0279264,5.6185079,7.5475059,10.258016,12.550807,13.21626,11.750572,8.7020502,5.4001174,3.2098949,2.7742043,3.7290349,5.0749774,5.9477215,6.2535224,6.7182512,8.2992868,11.360103,15.197357,18.29525,19.196802,17.449509,14.003423,10.774779,9.6221914,11.358922,15.395216,20.191732,24.190289,26.612976,27.657288,28.051134,28.358643,28.556459,28.161318,26.769871,24.575029,22.451809,21.525105,22.504614,25.233917,28.748449,31.791706,33.449177,33.517612,32.439648,30.929693,29.583477,28.704067,28.367699,28.57197,29.290747,30.397057,31.572947,32.361141,32.392124,31.646639,30.540545,29.723602,29.696468,30.505386,31.740026,32.847763,33.541428,33.999596,34.706348,36.047619,37.970062,39.9687,41.423912,42.040596,42.05669,42.056469,42.521969,43.459209,44.384838,44.689232,44.106316,42.938847,41.873745,41.534054,42.108418,43.324123,44.744907,46.110867,47.413807,48.64584,49.474968,49.216892,47.259743,43.698116,39.664047,36.959751,37.073063,40.165627,44.765953,48.504856,49.523544,47.655922,44.551163,42.576382,43.18906,45.892014,48.539341,48.842213,46.054588,41.632301,38.331867,38.313129,41.56218,45.794895,47.996479,46.57872,42.630005,39.297287,39.625881,44.309795,50.957581,55.497936,54.873436,49.218872,41.983837,37.80658,39.481148,46.029846,53.208996,56.174522,52.585007,44.10944,35.352654,30.915005,32.518726,38.054661,43.101627,43.840591,39.420578,32.283871,26.371986,24.526279,26.836613,30.935749,33.862888,34.095901,32.353203,30.727156,30.907211,32.837654,34.759102,34.540009,31.284801,26.05131,21.189478,18.804012,19.430645,21.810341,23.837914,23.956436,22.028818,19.170166,16.794153,15.642089,15.477427,15.557197,15.396889,15.173127,15.458777,16.555695,18.024458,18.851086,18.170544,15.998188,13.37331,11.739763,11.963739,13.684566,15.482696,15.778275,13.857234,10.332488,6.7449374,4.6007652,4.5046587,5.9376225,7.7468052,8.926878,9.1263227,8.5865431,7.6814184,6.5104194,4.9012184,2.7941246,0.62769419,-0.68797308,-0.30103967,1.8894944,4.9155746,7.1219621,7.0871301,4.5090246,0.45286897,-3.2449775,-5.0654221,-4.7023988,-3.2039104,-2.2901165,-3.3064098,-6.4752488,-10.874816,-15.077996,-17.97974,-19.285778,-19.432856,-19.118662,-18.84404,-18.774801,-18.924395,-19.395075,-20.395344,-21.974415,-23.691566,-24.541759,-23.300331,-19.142881,-12.171301,-3.5028694,5.1565485,12.217143,16.795282,18.900305,19.199455,18.583635,17.81193,17.376751,17.535505,18.357506,19.696272,21.140106,22.075132,21.929968,20.505236,18.16721,15.724491,14.007832,13.396998,13.612073,13.932848,13.720737,12.893363,12.012074,11.896325,13.009797,15.040896,16.99077,17.748356,16.795746,14.578932,12.279932,11.109267,11.552934,13.04662,14.2867,13.991779,11.653447,7.829658,3.8207133,0.93921322,-0.18867226,0.1010062,0.77731931,0.72736013,-0.65760165,-3.2387221,-6.3160653,-9.0816956,-11.050039,-12.229739,-12.979868,-13.680407,-14.43629,-14.990563,-14.885153,-13.764128,-11.640309,-8.9747953,-6.5246153,-5.0373445,-4.9469056,-6.2172894,-8.3976622,-10.841877,-12.967709,-14.428416,-15.139017,-15.195859,-14.788033,-14.18252,-13.783416,-14.17814,-16.059441,-19.981766,-26.037592,-33.639141,-41.58247,-48.438007,-53.120354,-55.358101,-55.803085,-55.695267,-56.240177,-58.021286,-60.757092,-63.524105,-65.309364,-65.578285,-64.547668,-63.032043,-61.975674,-61.949627,-62.891891,-64.211349,-65.164032,-65.268532,-64.530472,-63.378345,-62.384838,-61.957371,-62.171936,-62.815849,-63.572899,-64.210716,-64.653023,-64.914711,-64.977356,-64.7211,-63.981525,-62.701157,-61.062035,-59.479084,-58.415462,-58.104565,-58.348061,-58.542419,-57.963982,-56.180374,-53.354649,-50.241901,-47.842175,-46.878994,-47.395496,-48.713703,-49.801655,-49.850712,-48.729351,-47.041748,-45.750233,-45.584934,-46.596767,-48.12574,-49.202343,-49.132999,-47.90807,-46.184452,-44.862156,-44.525837,-45.099823,-45.922615,-46.179699,-45.4133,-43.791702,-41.984154,-40.737854,-40.43018,-40.866375,-41.425377,-41.440536,-40.575043,-38.981682,-37.18565,-35.79203,-35.196209,-35.437683,-36.231667,-37.118534,-37.640026,-37.478535,-36.538631,-34.969574,-33.121754,-31.428053,-30.228958,-29.608671,-29.336868,-28.97666,-28.12698,-26.671513,-24.879156,-23.276472,-22.353024,-22.273928,-22.778534,-23.328268,-23.405222,-22.766529,-21.497679,-19.854368,-18.032722,-16.051306,-13.832221,-11.403777,-9.0393925,-7.1841941,-6.1827493,-5.9913559,-6.1035633,-5.7909446,-4.5405517,-2.4122443,-0.063602269,1.6041316,1.9738494,1.0825807,-0.40366292,-1.5931649,-1.8872271,-1.284184,-0.29212818,0.45906767,0.6231485,0.28917119,-0.18991524,-0.5224272,-0.68631172,-0.85889095,-1.1386911,-1.3081392,-0.86861253,0.62739241,3.1684036,6.1182647,8.4716272,9.4196606,8.8763256,7.6047673,6.8238559,7.5125742,9.83673,13.054338,15.95391,17.544279,17.567753,16.541918,15.351315,14.690613,14.723556,15.139741,15.506846,15.631068,15.672441,15.96987,16.749004,17.954037,19.323755,20.62715,21.847778,23.155052,24.681488,26.292356,27.553318,27.953671,27.240353,25.618824,23.663332,21.990688,20.929596,20.42347,20.228239,20.23768,20.662994,21.898401,24.150276,27.110819,29.958662,31.751268,31.986519,30.961906,29.66888,29.260935,30.422279,33.033619,36.331799,39.427429,41.814953,43.54084,44.961861,46.326664,47.529716,48.233055,48.247608,47.845184,47.709972,48.514507,50.414902,52.86145,54.91679,55.897255,55.877769,55.647774,56.070862,57.244419,58.058449,56.545738,50.908524,40.631065,26.973244,12.488024,-0.19493924,-9.6125469,-16.009512,-20.888186,-25.893497,-31.752586,-37.911621,-43.031307,-45.94688,-46.432964,-45.295414,-43.794056,-42.84193,-42.535904,-42.299267,-41.472954,-39.894894,-38.05294,-36.731171,-36.439236,-37.05489,-37.93454,-38.395607,-38.208721,-37.743641,-37.674892,-38.472698,-40.049755,-41.808693,-43.039482,-43.370384,-42.953018,-42.269348,-41.72493,-41.338364,-40.752163,-39.548203,-37.632019,-35.409012,-33.63028,-33.01405,-33.885647,-36.039352,-38.858871,-41.574192,-43.492306,-44.123192,-43.236534,-40.922077,-37.658794,-34.300762,-31.870819,-31.165045,-32.341526,-34.755909,-37.212017,-38.549709,-38.252983,-36.707489,-34.931999,-33.940018,-34.134033,-35.119152,-36.044014,-36.221085,-35.591663,-34.717644,-34.321457,-34.718712,-35.562065,-36.085678,-35.670822,-34.313557,-32.642944,-31.469007,-31.193794,-31.533169,-31.777025,-31.411785,-30.634106,-30.325014,-31.420078,-34.05714,-37.090595,-38.36792,-35.68272,-27.868025,-15.381678,-0.044446737,15.880626,30.683655,43.689804,55.017361,64.894722,73.088921,78.87085,81.522499,80.985947,78.149261,74.528481,71.540947,69.858421,69.268272,69.105515,68.911369,68.82222,69.404007,71.069679,73.542442,75.814072,76.69548,75.613556,73.093323,70.544327,69.434517,70.366859,72.670067,74.795624,75.285812,73.694725,70.868301,68.405418,67.655579,68.901375,71.237633,73.191269,73.646965,72.470627,70.458855,68.710548,67.890587,67.886574,68.046043,67.759621,66.928314,65.971397,65.39724,65.29586,65.171448,64.273186,62.195667,59.295853,56.582481,55.107708,55.262363,56.473793,57.546127,57.440575,55.975868,53.966377,52.689507,53.032867,54.895325,57.247231,58.805141,58.856262,57.667473,56.205349,55.374599,55.319988,55.294453,54.201004,51.440548,47.471058,43.666168,41.531776,41.77879,43.859409,46.277653,47.481087,46.76609,44.629951,42.371864,41.230373,41.625244,42.972076,44.141029,44.211674,43.01228,41.115364,39.349594,38.206165,37.557041,36.851704,35.610222,33.829266,31.999487,30.72677,30.241894,30.165264,29.711288,28.203663,25.549799,22.346146,19.537336,17.855793,17.413885,17.710857,18.029547,17.933947,17.517836,17.237263,17.456373,18.042601,18.319538,17.442448,14.965549,11.224053,7.2573929,4.2897077,3.0701964,3.4735119,4.6040406,5.3380151,4.9705749,3.5782921,1.8927342,0.78601801,0.70234686,1.3878661,2.0714641,1.9636713,0.74922287,-1.2337197,-3.2287617,-4.5516028,-5.0248146,-5.0911708,-5.5442452,-7.0477262,-9.7337713,-13.111286,-16.32312,-18.589672,-19.583872,-19.543394,-19.090073,-18.888123,-19.339127,-20.45846,-21.954241,-23.420816,-24.524515,-25.103951,-25.182026,-24.934114,-24.649477,-24.68325,-25.370251,-26.892467,-29.147152,-31.704811,-33.9277,-35.234001,-35.388725,-34.653881,-33.685387,-33.20462,-33.615875,-34.792721,-36.170498,-37.102158,-37.268284,-36.889175,-36.601868,-37.071999,-38.579987,-40.841587,-43.177288,-44.92337,-45.822479,-46.144558,-46.464352,-47.244781,-48.502403,-49.777538,-50.433449,-50.095337,-48.949104,-47.707867,-47.260178,-48.203087,-50.517757,-53.542286,-56.21463,-57.421665,-56.278053,-52.256672,-45.211864,-35.383934,-23.422741,-10.375723,2.4553797,13.823589,22.916353,29.612381,34.444893,38.252644,41.691998,44.885094,47.410969,48.641445,48.209126,46.312504,43.668545,41.149246,39.337021,38.276772,37.565693,36.70145,35.451508,34.010212,32.863167,32.469967,32.979595,34.148804,35.486752,36.507328,36.925388,36.700897,35.951027,34.827835,33.450512,31.910856,30.303711,28.725456,27.230209,25.788593,24.302942,22.687832,20.963058,19.285631,17.888643,16.967873,16.59971,16.747906,17.340004,18.331383,19.683887,21.26704,22.77828,23.793261,23.969358,23.290659,22.168552,21.274601,21.16013,21.890055,22.951546,23.541889,23.083412,21.632826,19.890162,18.766142,18.774933,19.664753,20.562319,20.563108,19.377859,17.579128,16.24626,16.223448,17.496864,19.14642,19.948414,19.24449,17.472946,15.951512,15.998912,17.954794,20.774168,22.528053,21.547565,17.495153,11.649482,6.1687632,2.7517993,1.5209928,0.83498144,-1.831966,-8.4675875,-19.407831,-33.174133,-47.303524,-59.614765,-69.136223,-76.201416,-81.785477,-86.623756,-90.725487,-93.554146,-94.653114,-94.197426,-93.041672,-92.226219,-92.306221,-92.995705,-93.389732,-92.61451,-90.453308,-87.517868,-84.856308,-83.280678,-82.882965,-83.063705,-83.030174,-82.392952,-81.429138,-80.825706,-81.091888,-82.071121,-82.922562,-82.620522,-80.65834,-77.487213,-74.377052,-72.752731,-73.395058,-75.985664,-79.264969,-81.702652,-82.283127,-80.96315,-78.575409,-76.284492,-74.94191,-74.70414,-75.083839,-75.339691,-74.934868,-73.799683,-72.288414,-70.912239,-70.0401,-69.739143,-69.810287,-69.950195,-69.914009,-69.584885,-68.939529,-67.97187,-66.653107,-64.965302,-62.98035,-60.915356,-59.104408,-57.879665,-57.416832,-57.631359,-58.191315,-58.650448,-58.636681,-57.997379,-56.82608,-55.363476,-53.839199,-52.354321,-50.875477,-49.335922,-47.764957,-46.344719,-45.340294,-44.938278,-45.099857,-45.537064,-45.846287,-45.728703,-45.161999,-44.411087,-43.865387,-43.803623,-44.235558,-44.919147,-45.53371,-45.884926,-45.999214,-46.046356,-46.153641,-46.253117,-46.079231,-45.323696,-43.837971,-41.736534,-39.326038,-36.914398,-34.644962,-32.483143,-30.365959,-28.392935,-26.890963,-26.267647,-26.725863,-28.032909,-29.528013,-30.405886,-30.126295,-28.699631,-26.662455,-24.749922,-23.466877,-22.825304,-22.405254,-21.683573,-20.402521,-18.734644,-17.148151,-16.083912,-15.676642,-15.708002,-15.804172,-15.713907,-15.451765,-15.201204,-15.061402,-14.849158,-14.136044,-12.527496,-9.9988432,-7.0348959,-4.4346271,-2.8702481,-2.474622,-2.7393379,-2.8181355,-2.0651538,-0.46905795,1.3069658,2.3266504,1.9851243,0.43556955,-1.4451697,-2.5528932,-2.2241621,-0.6698727,1.0979538,1.8162295,0.68192124,-2.185962,-5.7943268,-8.7947531,-10.167975,-9.690774,-7.9488058,-5.9310794,-4.4719,-3.8639989,-3.8316536,-3.823688,-3.4058306,-2.5043538,-1.3772503,-0.37518743,0.31997722,0.79866087,1.3120399,2.0402324,2.9138675,3.6222341,3.811609,3.3465421,2.4589574,1.6753148,1.5481513,2.341049,3.8498518,5.4688339,6.4729142,6.3675151,5.1228628,3.1760039,1.2103848,-0.16283165,-0.65585208,-0.3704716,0.33250567,1.0696799,1.6404918,2.0946319,2.6385381,3.4481127,4.5033584,5.5446458,6.1806688,6.0930152,5.2261786,3.8546746,2.4802427,1.601501,1.4699883,1.9614463,2.6394649,2.9936707,2.7456598,2.0780225,1.6765893,2.5632334,5.7913361,12.12794,21.835419,34.604485,49.622429,65.723076,81.571442,95.864517,107.54554,116.01196,121.25942,123.88292,124.88733,125.34207,126.00789,127.10397,128.3331,129.15416,129.1559,128.32454,127.05704,125.92148,125.31891,125.261,125.40336,125.30982,124.77094,123.96077,123.31847,123.22376,123.67879,124.21901,124.13619,122.89548,120.49167,117.51221,114.84699,113.20471,112.72324,112.91276,112.97269,112.29593,110.85851,109.26201,108.40562,108.98578,111.1167,114.28118,117.61573,120.33918,122.06953,122.87097,123.0582,122.93196,122.63576,122.2075,121.74233,121.49795,121.82157,122.92246,124.64901,126.45445,127.62429,127.66215,126.60857,125.08611,124.01832,124.16516,125.72968,128.25008,130.82674,132.54884,132.89191,131.90022,130.10561,128.26942,127.09093,126.9894,127.99233,129.71585,131.43285,132.25409,131.43837,128.76811,124.82099,120.92478,118.68108,119.16745,122.16453,125.84407,127.19972,123.14677,111.84182,93.597443,70.91729,47.597092,27.305906,12.319535,2.9781682,-1.9603161,-4.3693361,-5.7756829,-6.8577137,-7.579216,-7.7224016,-7.3787041,-7.0516357,-7.3375421,-8.4591074,-10.027421,-11.241421,-11.418375,-10.503596,-9.2001915,-8.5989332,-9.5171642,-11.956937,-15.031551,-17.423639,-18.108622,-16.915678,-14.601695,-12.413169,-11.41197,-11.960482,-13.635734,-15.568625,-16.961979,-17.476147,-17.299929,-16.940119,-16.915329,-17.542316,-18.885193,-20.807785,-23.028055,-25.135292,-26.62343,-27.0198,-26.112534,-24.159763,-21.909042,-20.335737,-20.1908,-21.605606,-24.008661,-26.435854,-28.065989,-28.656435,-28.608648,-28.633827,-29.255154,-30.488661,-31.911949,-33.049759,-33.777435,-34.434063,-35.55555,-37.426464,-39.793545,-41.971767,-43.283028,-43.511494,-43.035172,-42.527325,-42.447453,-42.713135,-42.82217,-42.354713,-41.475971,-41.021732,-42.031475,-45.007996,-49.424789,-53.878021,-56.851017,-57.619167,-56.689426,-55.457569,-55.291458,-56.64893,-58.824844,-60.493191,-60.659515,-59.354935,-57.58971,-56.61377,-57.026939,-58.386822,-59.597786,-59.791027,-59.038776,-58.357876,-58.975471,-61.380672,-64.866158,-67.928986,-69.281303,-68.761848,-67.480476,-67.055695,-68.454063,-71.24514,-73.81884,-74.4478,-72.479218,-68.832962,-65.449928,-64.055817,-65.078156,-67.447243,-69.399246,-69.710037,-68.502769,-67.084419,-66.953712,-68.697578,-71.557137,-73.959091,-74.623825,-73.460968,-71.623283,-70.689392,-71.55661,-73.819031,-76.054977,-76.808228,-75.571892,-73.100342,-70.858482,-70.019257,-70.715599,-72.047501,-72.797318,-72.313873,-70.931915,-69.650993,-69.339539,-70.064308,-71.040031,-71.233307,-70.175682,-68.386093,-67.081177,-67.361244,-69.438011,-72.449226,-75.001213,-76.075363,-75.681442,-74.812355,-74.732536,-76.085678,-78.428146,-80.504578,-81.080482,-79.774872,-77.338676,-75.195549,-74.546844,-75.622086,-77.55143,-78.927299,-78.682007,-76.722008,-73.935547,-71.601936,-70.602768,-70.935638,-71.808624,-72.210472,-71.558586,-70.007065,-68.244827,-66.955666,-66.321693,-65.902489,-64.957558,-62.983353,-60.099274,-57.024277,-54.658543,-53.542114,-53.54007,-53.954865,-53.992088,-53.281193,-52.119968,-51.286369,-51.532516,-53.073048,-55.384449,-57.443634,-58.271683,-57.468914,-55.435894,-53.158657,-51.684643,-51.583054,-52.680397,-54.199696,-55.209621,-55.13121,-54.034752,-52.582947,-51.663452,-51.904457,-53.312176,-55.198067,-56.423302,-55.846272,-52.778477,-47.259491,-40.044174,-32.315659,-25.247868,-19.599119,-15.501191,-12.522511,-9.9645071,-7.2474017,-4.2038865,-1.1448011,1.3277006,2.6608655,2.6717179,1.6842121,0.41275415,-0.35012558,-0.085126989,1.2402457,3.2035513,5.1885214,6.7425847,7.8465281,8.9530506,10.76524,13.858723,18.335505,23.689384,28.961874,33.122536,35.492134,36.003311,35.177322,33.842892,32.755527,32.31712,32.525578,33.143757,33.95253,34.917927,36.175587,37.865257,39.948299,42.146351,44.05011,45.327137,45.890663,45.921963,45.74226,45.630203,45.707058,45.948811,46.284645,46.682335,47.147678,47.652958,48.083485,48.285629,48.211185,48.050385,48.217815,49.142799,50.965946,53.347927,55.560802,56.860374,56.936066,56.147995,55.367985,55.488434,56.891209,59.21693,61.59523,63.198189,63.759056,63.713516,63.868652,64.825813,66.55587,68.425789,69.662209,69.92263,69.548668,69.277374,69.561447,69.947845,68.97699,64.766113,56.009747,42.841553,27.042536,11.434896,-1.2451208,-9.4181499,-13.148306,-13.854376,-13.470342,-13.53305,-14.643496,-16.485069,-18.266953,-19.27457,-19.229012,-18.329496,-17.047459,-15.846698,-14.987964,-14.484653,-14.182722,-13.891737,-13.497295,-13.012101,-12.551281,-12.243411,-12.116877,-12.025391,-11.674743,-10.767188,-9.2023535,-7.2118764,-5.3142829,-4.0725002,-3.770612,-4.2075515,-4.7622323,-4.7244916,-3.7056177,-1.8673499,0.19284262,1.840269,2.8247464,3.4319637,4.2445984,5.6673613,7.5551562,9.2366266,9.9596949,9.4738979,8.3293304,7.6296749,8.3425665,10.602605,13.500001,15.563091,15.683316,13.900532,11.505149,10.324555,11.594641,15.12127,19.29422,21.995901,21.87406,19.194195,15.729293,13.737947,14.650641,18.264317,22.9214,26.533382,27.79566,26.853388,25.056314,24.023977,24.649342,26.651119,28.88483,30.127037,29.786791,28.119453,25.902657,23.892265,22.467316,21.660666,21.445827,21.962982,23.454788,25.959103,29.043577,31.867611,33.610302,33.994965,33.516167,33.150074,33.693859,35.173637,36.755482,37.270828,36.038376,33.431278,30.778189,29.620224,30.783939,33.87059,37.500759,40.159462,41.093277,40.681946,40.063015,40.286064,41.578388,43.213806,44.058365,43.408039,41.54187,39.612495,38.942272,40.186066,42.902485,45.802467,47.50695,47.33337,45.636253,43.527882,42.192474,42.231827,43.41814,44.945812,45.967533,46.060719,45.363197,44.353775,43.470238,42.82465,42.177315,41.15065,39.523933,37.422874,35.300335,33.729321,33.124615,33.533669,34.595451,35.687279,36.198078,35.809326,34.651554,33.247753,32.249088,32.079575,32.676151,33.48592,33.755322,32.974564,31.225851,29.210176,27.899721,27.990572,29.472038,31.584965,33.221455,33.550232,32.502155,30.821508,29.644064,29.848255,31.562073,34.110641,36.419403,37.617508,37.481842,36.481846,35.440861,35.053715,35.555157,36.701908,38.016384,39.090527,39.752579,40.03413,40.027534,39.784004,39.336418,38.803696,38.451229,38.611717,39.487717,40.968689,42.609562,43.817677,44.150463,43.543152,42.327286,41.037666,40.140446,39.851017,40.126392,40.779079,41.576473,42.224812,42.262363,41.00034,37.653851,31.679272,23.161304,13.000548,2.7242329,-6.0493789,-12.244795,-15.729845,-17.265923,-18.03968,-19.0411,-20.627632,-22.489882,-23.992229,-24.653419,-24.476906,-23.958406,-23.800926,-24.528339,-26.21936,-28.48752,-30.684877,-32.199711,-32.700043,-32.23193,-31.162613,-30.016714,-29.274582,-29.19878,-29.744005,-30.588173,-31.286543,-31.495911,-31.164942,-30.580235,-30.218847,-30.467529,-31.362997,-32.518822,-33.308842,-33.223026,-32.193249,-30.686592,-29.492353,-29.312382,-30.386782,-32.369442,-34.518116,-36.077652,-36.629368,-36.219051,-35.226997,-34.102615,-33.149044,-32.476742,-32.10656,-32.09499,-32.553791,-33.536381,-34.886497,-36.19347,-36.93428,-36.746201,-35.665058,-34.162304,-32.929993,-32.522198,-33.059536,-34.173477,-35.225574,-35.672935,-35.366985,-34.618542,-34.005096,-34.045998,-34.936901,-36.484577,-38.2551,-39.825844,-40.985447,-41.776112,-42.37896,-42.937389,-43.440701,-43.740818,-43.684628,-43.26963,-42.71524,-42.392387,-42.640167,-43.569523,-44.970119,-46.385265,-47.328533,-47.532944,-47.098122,-46.449936,-46.128742,-46.51878,-47.666431,-49.282799,-50.915657,-52.172504,-52.848625,-52.882301,-52.185192,-50.49371,-47.388596,-42.521034,-35.932098,-28.257381,-20.645805,-14.379233,-10.36622,-8.7772655,-9.0231285,-10.084538,-11.000257,-11.23842,-10.766382,-9.8359308,-8.6787958,-7.3424854,-5.7685318,-4.0178123,-2.4254174,-1.513014,-1.6734962,-2.8369873,-4.3817458,-5.4120593,-5.2728276,-3.9798644,-2.2611058,-1.1375146,-1.2803085,-2.5563521,-4.0819998,-4.7888227,-4.1588082,-2.645251,-1.4677075,-1.8632482,-4.2432551,-7.8017535,-10.866985,-11.829947,-10.10728,-6.5472546,-3.0091271,-1.3458226,-2.3869936,-5.5228572,-9.1243515,-11.529626,-11.994708,-11.049425,-10.081385,-10.443589,-12.649388,-16.125946,-19.623154,-21.969683,-22.688374,-22.123152,-21.073051,-20.235779,-19.838913,-19.65589,-19.315853,-18.629936,-17.691475,-16.715698,-15.795963,-14.80657,-13.543889,-11.983327,-10.415067,-9.3039618,-8.9424953,-9.1571903,-9.3298368,-8.7832947,-7.3010201,-5.4086394,-4.1688914,-4.5631199,-6.8376918,-10.257797,-13.469266,-15.26807,-15.289931,-14.165028,-13.029558,-12.719262,-13.193086,-13.585758,-12.858638,-10.599889,-7.4099917,-4.5857148,-3.3012114,-3.8444045,-5.4437594,-6.8206582,-7.0958562,-6.4177947,-5.8575754,-6.6185999,-9.0967531,-12.455633,-15.049577,-15.450089,-13.401703,-10.05352,-7.2812176,-6.5232744,-7.8907461,-10.139988,-11.528344,-10.98496,-8.8183594,-6.4929829,-5.630342,-6.9069672,-9.5845232,-11.978627,-12.544741,-10.856061,-7.8356729,-5.1151576,-3.9724047,-4.5614181,-5.9223876,-6.717876,-6.1591177,-4.4877868,-2.715929,-1.8505547,-2.1734328,-3.0796874,-3.5637367,-2.9798853,-1.5224797,-0.086874589,0.37597331,-0.46284935,-2.0909307,-3.5491428,-4.1519852,-4.0089288,-3.9603584,-4.9563084,-7.3055563,-10.326633,-12.667511,-13.108564,-11.332514,-8.1591396,-5.0888777,-3.4437532,-3.6421273,-5.0415902,-6.4115767,-6.7069468,-5.6550817,-3.8257167,-2.200304,-1.5587869,-2.0722003,-3.3104918,-4.5907578,-5.3960748,-5.6012554,-5.4147964,-5.1459346,-4.9952149,-5.0040669,-5.152936,-5.4856257,-6.1364784,-7.2323427,-8.7506752,-10.453852,-11.965085,-12.94935,-13.29087,-13.162879,-12.95449,-13.09873,-13.885485,-15.330283,-17.132271,-18.726303,-19.425312,-18.640106,-16.132338,-12.207348,-7.727972,-3.8734956,-1.6873225,-1.5963908,-3.1537292,-5.1838946,-6.3135681,-5.6470885,-3.2358775,-0.073840663,2.4023306,3.0540273,1.6281686,-1.121858,-3.8349369,-5.2277298,-4.6891737,-2.4819632,0.50897783,3.2862773,5.1962805,6.0988474,6.2246919,5.8873062,5.274404,4.4440303,3.476433,2.6127439,2.2287233,2.6293526,3.8038733,5.3363004,6.5764279,6.9988089,6.5330768,5.6435132,5.0816317,5.4431291,6.7946563,8.6046238,10.030993,10.399636,9.5898037,8.1016684,6.776998,6.3509445,7.1013088,8.781004,10.831104,12.703581,14.082478,14.895313,15.170485,14.900706,14.044886,12.667711,11.082426,9.8347712,9.4733906,10.221985,11.774421,13.387957,14.266902,14.026862,12.948808,11.840639,11.563212,12.497377,14.281371,15.992107,16.671497,15.882882,13.960912,11.807236,10.36352,10.086871,10.739763,11.601582,11.946156,11.477313,10.461998,9.5072107,9.1522036,9.5469074,10.407166,11.242356,11.676901,11.645822,11.352398,11.049531,10.823141,10.540821,10.000262,9.1647882,8.3101635,7.9667549,8.6793919,10.725728,13.957143,17.843243,21.676907,24.813793,26.828909,27.552238,27.03093,25.492567,23.341663,21.151703,19.584051,19.204815,20.258627,22.525141,25.37145,28.012926,29.866411,30.80657,31.176367,31.53858,32.308407,33.480919,34.613411,35.072014,34.396004,32.566792,30.030252,27.469999,25.473001,24.281164,23.757454,23.559166,23.390726,23.174946,23.048523,23.205481,23.705709,24.379107,24.887854,24.906368,24.306459,23.234251,22.032629,21.054213,20.471991,20.19409,19.929947,19.371758,18.392925,17.15523,16.062164,15.57409,15.973,17.195837,18.828079,20.273985,21.030718,20.93408,20.248158,19.542662,19.409418,20.157082,21.642521,23.331472,24.561443,24.8708,24.22135,23.000822,21.813591,21.183184,21.331375,22.143322,23.312492,24.555271,25.755919,26.962427,28.259317,29.624573,30.881773,31.786375,32.187366,32.150154,31.95022,31.932747,32.322769,33.102879,34.031013,34.780376,35.109043,34.95594,34.417187,33.639088,32.715229,31.661598,30.479422,29.247978,28.167044,27.505472,27.480215,28.140654,29.330681,30.75008,32.073975,33.059345,33.587894,33.646786,33.290459,32.627865,31.840105,31.188969,30.965792,31.368862,32.361198,33.602215,34.527718,34.574909,33.455772,31.334856,28.802132,26.63604,25.467201,25.511858,26.508936,27.885221,29.052086,29.673645,29.773487,29.644743,29.636351,29.945154,30.522404,31.12516,31.460102,31.327688,30.694351,29.677382,28.47868,27.319054,26.401039,25.892004,25.90122,26.439098,27.379343,28.465212,29.386585,29.909103,29.990595,29.81052,29.679398,29.867649,30.450195,31.263109,32.004379,32.418289,32.442436,32.211117,31.897484,31.486088,30.62756,28.691933,25.023026,19.268902,11.605357,2.7201247,-6.440156,-15.022462,-22.528645,-28.857912,-34.142258,-38.511372,-41.95433,-44.363346,-45.707756,-46.188877,-46.236252,-46.31918,-46.685574,-47.207718,-47.457924,-46.990097,-45.661411,-43.78907,-42.032417,-41.061356,-41.209026,-42.318016,-43.867458,-45.291119,-46.281155,-46.891674,-47.396191,-48.017612,-48.72847,-49.262173,-49.324509,-48.853859,-48.143429,-47.732403,-48.127579,-49.529079,-51.726791,-54.219463,-56.465607,-58.103737,-59.021168,-59.270103,-58.935684,-58.078453,-56.793995,-55.320374,-54.06842,-53.49818,-53.885666,-55.128124,-56.739933,-58.080559,-58.699074,-58.585564,-58.161179,-57.998909,-58.445591,-59.391327,-60.34761,-60.796501,-60.58662,-60.104176,-60.078762,-61.11903,-63.263618,-65.84964,-67.821495,-68.329544,-67.269531,-65.421043,-64.064972,-64.270058,-66.252121,-69.18869,-71.620583,-72.231079,-70.564949,-67.273834,-63.742649,-61.310371,-60.535778,-60.933151,-61.326794,-60.609497,-58.451874,-55.538239,-53.181461,-52.531086,-53.824257,-56.104885,-57.573265,-56.383526,-51.476021,-43.036087,-32.38863,-21.43276,-11.925284,-4.9423275,-0.70317262,1.2624108,1.7656955,1.6165366,1.403367,1.4159365,1.6724132,2.0059524,2.1837423,2.0370135,1.5650432,0.96240443,0.53815019,0.55203891,1.0537955,1.8274245,2.4899633,2.6981697,2.34044,1.5917363,0.79363728,0.23691465,-0.0087207034,-0.10395183,-0.2857447,-0.66347766,-1.1171767,-1.3796921,-1.2519221,-0.79747385,-0.36568454,-0.40381619,-1.1674885,-2.5206654,-3.9719534,-4.9457679,-5.1306839,-4.6865268,-4.1706018,-4.2150817,-5.1432776,-6.7539439,-8.4024849,-9.3304825,-9.0500498,-7.5661354,-5.3266859,-2.9562793,-0.94813818,0.50746512,1.4865556,2.1538479,2.5918009,2.7572756,2.5789115,2.0985434,1.526117,1.1433029,1.1095881,1.3109429,1.3798225,0.90665901,-0.27328801,-1.9042073,-3.3803484,-4.0489841,-3.5767767,-2.1532385,-0.39129391,1.0308832,1.7742838,2.0355132,2.4012711,3.4397888,5.2814503,7.4600329,9.1320915,9.5558252,8.5412836,6.5913281,4.6379776,3.5278118,3.5668495,4.3991013,5.2856169,5.6026874,5.24575,4.6911006,4.6865644,5.7739329,7.9438357,10.630619,13.035624,14.565694,15.115461,15.036989,14.846045,14.875039,15.09868,15.228685,14.990825,14.382932,13.736134,13.540136,14.150312,15.567421,17.427391,19.200958,20.473209,21.133347,21.373543,21.521069,21.8269,22.346094,22.970921,23.571348,24.130842,24.778534,25.698088,26.982307,28.54125,30.134296,31.510798,32.565784,33.402161,34.249168,35.284279,36.476643,37.565971,38.207836,38.204178,37.669605,37.010036,36.702389,36.996857,37.729488,38.381912,38.377777,37.450359,35.852932,34.263802,33.420345,33.690796,34.8451,36.175087,36.901913,36.62751,35.554127,34.338619,33.676594,33.881077,34.718857,35.597458,35.967793,35.673035,35.020512,34.545277,34.639854,35.304634,36.1772,36.799038,36.916245,36.600796,36.121601,35.684071,35.252384,34.600727,33.558567,32.255981,31.159468,30.834612,31.576887,33.166306,34.935997,36.137177,36.37616,35.839417,35.157787,35.000065,35.665756,36.941353,38.299053,39.280342,39.785942,40.070774,40.462372,41.024754,41.432568,41.16927,39.925491,37.916489,35.875423,34.689415,34.887394,36.29808,38.099777,39.244392,39.012127,37.382771,35.029011,32.960758,32.031998,32.562298,34.221542,36.168747,37.327015,36.667988,33.438705,27.322613,18.534929,7.8219905,-3.6815588,-14.742577,-24.383772,-32.151146,-38.158386,-42.882481,-46.828125,-50.257565,-53.137581,-55.309696,-56.741493,-57.668369,-58.520599,-59.689445,-61.303268,-63.176365,-64.965202,-66.414688,-67.512863,-68.444572,-69.389206,-70.327972,-71.020355,-71.177734,-70.704124,-69.810043,-68.891991,-68.247337,-67.832802,-67.26342,-66.085426,-64.152069,-61.835899,-59.90324,-59.102165,-59.720181,-61.403862,-63.367054,-64.854729,-65.556747,-65.701385,-65.78244,-66.129395,-66.638123,-66.860504,-66.387695,-65.241104,-63.966755,-63.332821,-63.815586,-65.224747,-66.743141,-67.383865,-66.584152,-64.55555,-62.165436,-60.430389,-59.951111,-60.643764,-61.912022,-63.10714,-63.944565,-64.601524,-65.462021,-66.72657,-68.187721,-69.336639,-69.71595,-69.253548,-68.329689,-67.527878,-67.251556,-67.483521,-67.856239,-67.97039,-67.716896,-67.35817,-67.307541,-67.775833,-68.560562,-69.152313,-69.093803,-68.322876,-67.216049,-66.246864,-65.455109,-64.092522,-60.740795,-53.919308,-42.886135,-28.187847,-11.631379,4.3345003,17.519081,26.72349,31.976648,34.229038,34.740421,34.515179,34.047531,33.421032,32.604401,31.711676,31.06739,31.067614,31.95435,33.654896,35.779831,37.773083,39.130047,39.578831,39.153374,38.144909,36.968922,36.010254,35.506207,35.504253,35.896873,36.504929,37.164391,37.778454,38.322926,38.822586,39.328339,39.911709,40.66444,41.673767,42.957153,44.381596,45.629841,46.273083,45.953926,44.602791,42.56118,40.511726,39.21553,39.176342,40.410786,42.457443,44.625484,46.344002,47.414799,48.031845,48.572899,49.302738,50.171177,50.820454,50.786068,49.766739,47.81493,45.35997,43.0714,41.638142,41.552048,42.956638,45.590572,48.840202,51.906513,54.063721,54.934208,54.658962,53.852467,53.320545,53.653564,54.903683,56.536633,57.70607,57.708176,56.357086,54.061741,51.56572,49.520027,48.15752,47.259422,46.403706,45.29892,43.964855,42.648018,41.561562,40.667831,39.683804,38.31398,36.533394,34.69326,33.345181,32.88929,33.293015,34.090736,34.680515,34.718155,34.330059,33.986446,34.116676,34.738369,35.373867,35.333698,34.188679,32.110455,29.836735,28.264174,27.922682,28.669294,29.800674,30.512604,30.412441,29.759453,29.284798,29.707998,31.251455,33.448334,35.357224,36.058163,35.152382,32.998978,30.573338,29.027798,29.171751,31.110136,34.193916,37.295494,39.286522,39.514267,38.071041,35.734203,33.596096,32.550972,32.88689,34.191574,35.624306,36.406147,36.251583,35.493187,34.832214,34.877747,35.769451,37.122795,38.321266,38.947525,39.053017,39.080467,39.500008,40.425915,41.498585,42.127342,41.925068,41.01601,39.977631,39.43766,39.605694,40.084801,40.125061,39.167992,37.309547,35.343441,34.323654,34.917809,36.978233,39.620056,41.755081,42.720997,42.585739,41.939587,41.351761,40.904892,40.160549,38.59013,36.154465,33.58379,32.100636,32.71542,35.541164,39.594723,43.252918,45.109852,44.718136,42.76873,40.620716,39.495251,39.833946,41.181183,42.594082,43.259205,42.911049,41.834217,40.535938,39.376713,38.41898,37.544724,36.678307,35.894299,35.321178,34.951645,34.566715,33.889866,32.877457,31.895472,31.571293,32.337402,33.942814,35.296417,34.833511,31.258295,24.239697,14.625826,4.0230222,-6.0173702,-14.711075,-22.228386,-29.280975,-36.42477,-43.568386,-50.014915,-54.983265,-58.219849,-60.253403,-62.102512,-64.633644,-68.014519,-71.640266,-74.578354,-76.217072,-76.665657,-76.637161,-76.914063,-77.791649,-78.902924,-79.549141,-79.290504,-78.358337,-77.572517,-77.80127,-79.33416,-81.61438,-83.534813,-84.111748,-83.084,-81.032906,-78.949562,-77.558716,-76.875397,-76.302063,-75.186661,-73.428688,-71.676598,-70.942497,-71.875877,-74.19735,-76.711166,-77.939323,-77.000916,-74.181435,-70.821404,-68.581772,-68.534607,-70.627411,-73.820671,-76.771065,-78.607765,-79.328384,-79.61911,-80.281525,-81.676964,-83.541534,-85.244652,-86.264137,-86.532578,-86.434402,-86.494881,-87.009918,-87.880783,-88.747696,-89.293228,-89.474861,-89.516457,-89.681114,-90.015656,-90.277565,-90.116142,-89.383759,-88.343658,-87.598404,-87.751289,-89.00309,-90.947456,-92.716278,-93.411743,-92.582985,-90.474449,-87.908173,-85.875198,-85.071251,-85.625282,-87.138344,-88.964104,-90.535278,-91.544067,-91.902725,-91.560204,-90.335953,-87.904938,-83.954445,-78.411377,-71.587852,-64.141922,-56.865505,-50.416985,-45.145443,-41.089577,-38.121696,-36.118519,-35.034283,-34.830837,-35.329418,-36.114632,-36.594036,-36.21117,-34.695309,-32.18763,-29.148878,-26.090885,-23.296047,-20.707825,-18.07024,-15.226048,-12.36297,-10.013194,-8.7649956,-8.845376,-9.8455181,-10.801945,-10.637463,-8.7326555,-5.2917533,-1.2657827,2.1487215,4.1582932,4.7920318,4.8436694,5.3703432,7.0464926,9.7555456,12.654571,14.661654,15.068489,13.920439,11.96137,10.205346,9.4057541,9.7229557,10.743444,11.783707,12.263912,11.93932,10.907874,9.4647121,7.9459915,6.659873,5.8958707,5.9261513,6.9259958,8.8301373,11.230847,13.434239,14.703474,14.587913,13.157343,10.993731,8.9255333,7.6399932,7.3806038,7.8849597,8.5772991,8.8895283,8.5292578,7.5681767,6.3434725,5.2677679,4.6692505,4.7305737,5.5119805,6.9927015,9.0751734,11.550988,14.07744,16.219599,17.570923,17.907728,17.30102,16.12467,14.949406,14.364346,14.792841,16.360565,18.846819,21.725182,24.286152,25.824533,25.857494,24.314642,21.625698,18.645199,16.405851,15.76633,17.079767,20.020966,23.659821,26.773552,28.29097,27.700985,25.262007,21.918907,18.946186,17.4489,17.922421,20.063284,22.927067,25.376034,26.613514,26.542103,25.754116,25.14822,25.374487,26.422647,27.604734,27.962729,26.873636,24.487236,21.71266,19.736322,19.347536,20.482975,22.279051,23.608194,23.766048,22.874512,21.744884,21.295549,21.911888,23.174809,24.13858,23.969677,22.51494,20.416052,18.697033,18.110558,18.690025,19.804722,20.660044,20.872538,20.702789,20.781569,21.538252,22.765362,23.6637,23.365683,21.576855,18.867943,16.380182,15.119956,15.321979,16.32942,17.084608,16.889709,15.89389,14.947137,14.912198,15.929153,17.187244,17.417397,15.80296,12.678783,9.4929247,7.9894972,9.11131,12.343015,15.952294,18.003853,17.507822,14.970591,12.009015,10.304445,10.594929,12.350514,14.2931,15.347983,15.345393,15.003301,15.255671,16.458445,18.077656,19.093971,18.818336,17.497059,16.225855,16.194017,17.783077,20.180996,21.832796,21.461119,18.969193,15.589079,13.138301,12.858507,14.606994,16.9447,18.063438,16.932533,13.906648,10.415198,7.9831786,7.2758298,7.8117619,8.4934406,8.518074,7.9734058,7.674964,8.3789835,9.988759,11.40319,11.198607,8.7072563,4.7114935,1.1805688,0.11950181,2.2451932,6.3957829,10.154074,11.380782,9.7229261,7.1166463,6.895905,11.981213,23.205454,38.761925,55.08144,68.593567,77.337845,81.551208,83.033546,83.829948,85.101379,86.812065,88.251884,88.870422,88.774475,88.577492,88.806923,89.39521,89.683098,88.94606,87.03672,84.631371,82.852692,82.505569,83.465881,84.67955,84.811676,83.127129,80.008698,76.755081,74.787697,74.795212,76.382309,78.439568,79.958664,80.720825,81.387238,82.942413,85.889847,89.766312,93.317963,95.228554,94.918777,92.89476,90.42923,88.794571,88.540123,89.247589,89.869675,89.392441,87.399017,84.232033,80.739098,77.829491,76.119934,75.809555,76.737526,78.488808,80.46891,81.983261,82.404533,81.432365,79.313362,76.829796,74.970009,74.414894,75.149033,76.477158,77.480019,77.631577,77.152138,76.821411,77.346649,78.722504,80.074699,80.177299,78.356003,75.166458,72.313103,71.736488,74.356461,79.240105,83.757927,84.710182,79.813126,68.714615,53.001564,35.274998,17.902754,2.1801808,-11.71383,-24.126989,-35.246532,-44.818184,-52.394825,-57.814758,-61.454678,-64.016251,-66.007111,-67.348831,-67.469276,-65.864845,-62.729954,-59.149216,-56.62999,-56.228977,-57.853283,-60.242207,-61.693581,-61.088036,-58.546066,-55.289234,-52.811371,-51.929638,-52.353939,-53.0406,-53.044174,-52.240963,-51.405624,-51.598339,-53.320354,-56.062408,-58.585262,-59.740959,-59.250671,-57.882275,-56.899734,-57.177273,-58.610649,-60.242344,-61.003441,-60.531891,-59.473484,-59.045986,-60.177601,-62.836628,-66.029762,-68.465897,-69.40773,-69.108223,-68.538689,-68.632294,-69.611412,-70.890312,-71.605194,-71.348656,-70.528839,-70.055008,-70.566505,-71.789131,-72.54171,-71.457024,-67.950958,-62.75951,-57.633331,-54.354122,-53.712616,-55.123764,-57.120056,-58.361752,-58.458664,-58.052509,-58.149136,-59.226128,-60.790234,-61.715584,-61.11021,-59.059334,-56.672718,-55.366035,-55.87178,-57.690845,-59.399555,-59.622116,-57.996269,-55.447842,-53.564827,-53.49342,-55.12175,-57.127995,-57.875019,-56.548115,-53.760128,-51.209984,-50.620987,-52.665874,-56.579365,-60.683399,-63.439938,-64.319527,-63.938999,-63.444286,-63.621078,-64.363487,-64.83815,-64.17617,-62.167446,-59.461475,-57.151005,-56.05267,-56.192997,-56.839714,-57.025696,-56.183113,-54.461205,-52.551579,-51.192913,-50.72319,-50.969269,-51.492683,-51.95747,-52.32975,-52.781155,-53.409588,-54.025753,-54.18956,-53.479603,-51.799374,-49.499081,-47.22892,-45.627872,-45.050129,-45.478607,-46.627216,-48.112949,-49.571171,-50.680992,-51.167408,-50.861473,-49.818371,-48.393375,-47.159344,-46.64917,-47.055748,-48.095726,-49.165359,-49.722721,-49.656509,-49.383263,-49.583393,-50.734539,-52.752712,-54.991962,-56.613426,-57.080124,-56.445644,-55.250172,-54.114727,-53.335487,-52.771038,-52.09103,-51.178471,-50.354713,-50.222679,-51.214138,-53.169518,-55.289017,-56.549221,-56.344913,-54.928204,-53.321621,-52.720604,-53.748852,-56.047455,-58.476048,-59.810322,-59.494751,-57.970436,-56.371868,-55.79295,-56.594425,-58.188065,-59.419186,-59.288895,-57.557304,-54.866459,-52.338669,-50.927124,-50.919796,-51.864521,-52.90284,-53.263691,-52.6171,-51.127239,-49.254459,-47.490139,-46.193115,-45.573544,-45.748608,-46.764496,-48.54681,-50.835407,-53.193832,-55.129772,-56.268429,-56.469189,-55.813988,-54.495869,-52.714752,-50.674084,-48.669186,-47.14624,-46.589787,-47.205421,-48.541798,-49.313953,-47.643143,-41.714161,-30.589016,-14.771871,3.7969575,22.360727,38.302132,49.984905,57.107513,60.472061,61.380283,61.02779,60.197517,59.318249,58.715519,58.791615,59.970936,62.453602,65.983299,69.842781,73.139702,75.241821,76.103661,76.27697,76.584335,77.640739,79.501274,81.637985,83.252487,83.735023,83.002037,81.525124,80.050003,79.181641,79.078148,79.419464,79.650368,79.341263,78.45282,77.358376,76.622704,76.673042,77.550438,78.874557,80.03154,80.474648,79.976433,78.711113,77.14521,75.814728,75.111923,75.178604,75.927826,77.14476,78.588814,80.044739,81.324226,82.26001,82.7332,82.735443,82.421516,82.094414,82.098534,82.66024,83.76368,85.146767,86.439514,87.379898,87.983971,88.560356,89.54232,91.219612,93.520622,95.980186,97.931015,98.8311,98.556694,97.499779,96.409012,96.048492,96.846085,98.706932,101.07775,103.21255,104.48592,104.58366,103.47973,101.23766,97.780113,92.789825,85.825928,76.604797,65.283607,52.565411,39.53595,27.296833,16.58729,7.6072459,0.14487779,-6.0701604,-11.014507,-14.262647,-15.22683,-13.628918,-9.9171619,-5.3345828,-1.5258025,0.15871146,-0.70125175,-3.3830709,-6.3791165,-8.152976,-7.8892336,-5.8294144,-3.0239799,-0.66938138,0.56407171,0.8180669,0.80089194,1.1995857,2.1467767,3.0923848,3.1613462,1.7611346,-0.95869315,-4.0973859,-6.458086,-7.1875963,-6.2101402,-4.2036476,-2.1594849,-0.82116634,-0.35134515,-0.40428033,-0.50493509,-0.44230208,-0.39850622,-0.73780346,-1.6271633,-2.7803988,-3.5316088,-3.2110319,-1.5795927,0.9745608,3.624584,5.573648,6.51191,6.7725487,7.0886731,8.1069498,9.9658232,12.199794,14.020134,14.785939,14.368312,13.19149,11.947603,11.185511,11.038851,11.249888,11.442848,11.439281,11.391899,11.646585,12.431628,13.592518,14.563478,14.614534,13.236443,10.438249,6.7856517,3.1632912,0.40077522,-1.0346245,-1.1348342,-0.22796801,1.2548815,2.9774168,4.7708516,6.5873728,8.4076328,10.177071,11.797484,13.150303,14.117564,14.595545,14.52733,13.974617,13.200491,12.684471,12.993277,14.509591,17.137497,20.174595,22.495558,23.029263,21.317913,17.847647,13.921408,11.083183,10.367925,11.779526,14.297055,16.421619,16.967562,15.658168,13.200149,10.81693,9.5347347,9.6466208,10.652102,11.668391,12.024787,11.65995,11.090892,11.008474,11.788271,13.242028,14.759045,15.723131,15.914078,15.62535,15.429044,15.757877,16.593628,17.476297,17.831751,17.401939,16.489891,15.846336,16.250589,18.031639,20.81683,23.662758,25.500826,25.652872,24.14167,21.645845,19.147739,17.478376,16.993975,17.520725,18.547905,19.528156,20.117893,20.258989,20.108271,19.897577,19.816017,19.959162,20.331455,20.860962,21.403028,21.747108,21.661459,20.989923,19.767015,18.278658,17.00477,16.44002,16.868404,18.210146,20.032969,21.731533,22.783478,22.947628,22.309862,21.177614,19.910927,18.798183,18.027832,17.72064,17.939821,18.628979,19.516586,20.096546,19.777937,18.185482,15.455882,12.319739,9.8485594,8.946887,9.8571272,11.984196,14.186595,15.401418,15.245317,14.218245,13.360431,13.549562,14.862568,16.406506,16.745714,14.686105,9.9525423,3.3561227,-3.6419933,-9.7011318,-14.248642,-17.644604,-20.813393,-24.609558,-29.313011,-34.523849,-39.452408,-43.367115,-45.912868,-47.153988,-47.402916,-47.018398,-46.320095,-45.625294,-45.293022,-45.661171,-46.876129,-48.741825,-50.741531,-52.277843,-53.009792,-53.07045,-53.005894,-53.456089,-54.774933,-56.83157,-59.113541,-61.049335,-62.328659,-63.018826,-63.433994,-63.887093,-64.515869,-65.286308,-66.11972,-66.994591,-67.918144,-68.803513,-69.401176,-69.409706,-68.734871,-67.701775,-67.000397,-67.312119,-68.819275,-70.947159,-72.587097,-72.736206,-71.170654,-68.685844,-66.68335,-66.320137,-67.763359,-70.066376,-71.786736,-71.95639,-70.746277,-69.347527,-69.120819,-70.58577,-72.962151,-74.613907,-74.117241,-71.214066,-66.961121,-62.934727,-60.032547,-57.743649,-54.476295,-48.804302,-40.808529,-32.541115,-27.165602,-27.2041,-32.965603,-42.186485,-51.180664,-56.838169,-58.256023,-57.00927,-55.93401,-57.235596,-61.138454,-65.902733,-69.117645,-69.353394,-67.055527,-64.111328,-62.42403,-62.487976,-62.936363,-61.368164,-55.910362,-46.500942,-35.081532,-24.604984,-17.505646,-14.569171,-14.819408,-16.360952,-17.54196,-17.69116,-17.061399,-16.181873,-15.185957,-13.619056,-10.826561,-6.5861478,-1.4849912,3.2560494,6.4079404,7.3946257,6.5627627,4.9078426,3.4628291,2.7536638,2.6457274,2.6244433,2.2723579,1.6070052,1.070953,1.2119621,2.2853527,4.0377121,5.7955589,6.790442,6.5258594,4.9934931,2.6510253,0.20316416,-1.6906456,-2.6507361,-2.6704104,-2.0514841,-1.2242674,-0.53284705,-0.078421496,0.30715963,0.94172412,2.0849202,3.754879,5.6782093,7.410131,8.5578098,8.9704838,8.7768402,8.2494631,7.5947247,6.8202648,5.7786231,4.3567324,2.6679778,1.0903773,0.097728044,-0.018987518,0.64694321,1.6407059,2.3925271,2.5349507,2.0872436,1.3936672,0.86964178,0.7362138,0.91932493,1.1626731,1.2473447,1.1432412,0.98455024,0.9092254,0.91387963,0.8615942,0.64880842,0.39076439,0.4436841,1.1909178,2.7089689,4.5566821,5.888835,5.892837,4.313273,1.7289058,-0.63550287,-1.5047637,-0.23762892,2.7943859,6.3631353,8.9968596,9.7112207,8.4615726,6.0926399,3.8501427,2.7477839,3.1264987,4.5987649,6.3450503,7.5594378,7.8085818,7.159492,6.0698652,5.1362882,4.8265347,5.2952676,6.3365617,7.4819932,8.2124968,8.2087507,7.53262,6.6389446,6.1833105,6.6984444,8.3010492,10.597133,12.855693,14.365911,14.777504,14.226688,13.178931,12.095358,11.139391,10.10927,8.6305819,6.4710202,3.7620049,0.97832757,-1.3098378,-2.7501736,-3.388803,-3.6152959,-3.924149,-4.6536231,-5.8574529,-7.3602319,-8.9232903,-10.390417,-11.72209,-12.923594,-13.949805,-14.674758,-14.951061,-14.70838,-14.009411,-13.017636,-11.900521,-10.741461,-9.5257769,-8.2101564,-6.82339,-5.52387,-4.5689006,-4.2086377,-4.5635762,-5.5518103,-6.9030437,-8.2526617,-9.27565,-9.8069744,-9.9005899,-9.7985716,-9.813529,-10.16784,-10.867455,-11.690298,-12.321065,-12.57679,-12.589625,-12.806119,-13.754312,-15.682446,-18.29071,-20.765059,-22.159288,-21.941696,-20.37615,-18.461473,-17.404299,-17.9053,-19.696482,-21.651638,-22.450111,-21.410843,-18.971027,-16.475161,-15.36636,-16.266485,-18.53339,-20.606947,-20.962299,-19.089417,-15.877309,-13.138227,-12.544847,-14.630412,-18.473867,-22.269575,-24.428688,-24.524378,-23.48811,-22.928146,-23.983437,-26.410328,-28.456678,-27.606735,-21.775599,-10.296324,5.8014307,24.294945,42.702671,59.122566,72.595161,82.952431,90.41333,95.267738,97.833633,98.615601,98.425224,98.25753,98.916977,100.60341,102.74634,104.25252,104.08321,101.86012,98.15506,94.280426,91.675163,91.209656,92.781395,95.412323,97.781815,98.89463,98.521362,97.191216,95.77758,94.944283,94.785789,94.862961,94.588005,93.696678,92.492188,91.688698,91.937912,93.334084,95.227364,96.500687,96.18145,94.036522,90.782814,87.75663,86.206741,86.612938,88.43409,90.443222,91.455956,91.015663,89.619682,88.350182,88.143311,89.16021,90.664574,91.494194,90.83326,88.791534,86.406433,85.044266,85.56115,87.74826,90.419052,92.098236,91.893059,90.008507,87.588516,85.987862,85.935631,87.115166,88.414711,88.674271,87.44088,85.248833,83.255974,82.486153,83.177635,84.658218,85.815247,85.838249,84.739822,83.31678,82.591187,83.115028,84.606354,86.154068,86.841972,86.358772,85.169724,84.119484,83.718468,83.583,82.410774,78.538666,70.768318,58.987156,44.24931,28.310696,12.919172,-0.7444185,-12.229359,-21.610901,-29.15196,-35.078827,-39.565304,-42.833683,-45.204288,-47.002937,-48.389496,-49.26664,-49.382233,-48.583973,-47.044071,-45.264614,-43.820972,-43.001225,-42.603237,-42.067352,-40.89497,-39.085598,-37.277035,-36.446144,-37.317749,-39.845051,-43.112324,-45.763191,-46.726791,-45.812809,-43.811111,-42.028355,-41.537868,-42.592842,-44.547058,-46.309616,-47.033531,-46.605682,-45.647121,-45.049694,-45.3643,-46.435566,-47.505798,-47.705402,-46.606159,-44.487423,-42.161175,-40.486153,-39.888695,-40.184109,-40.782627,-41.113792,-40.976669,-40.597366,-40.390285,-40.623177,-41.2402,-41.967804,-42.611259,-43.300701,-44.474228,-46.575817,-49.665962,-53.233475,-56.383186,-58.323044,-58.853519,-58.530312,-58.363636,-59.217117,-61.277565,-63.938358,-66.180428,-67.211418,-66.949753,-66.037872,-65.379196,-65.512383,-66.247719,-66.815872,-66.430107,-64.876892,-62.72221,-60.977409,-60.438404,-61.143845,-62.328827,-62.921787,-62.261929,-60.556328,-58.760216,-57.946896,-58.57806,-60.159245,-61.515518,-61.514511,-59.769283,-56.867523,-53.985695,-52.147217,-51.608318,-51.760036,-51.590485,-50.391563,-48.251705,-46.035301,-44.888916,-45.605968,-48.238396,-52.150139,-56.411118,-60.237228,-63.20805,-65.196144,-66.15834,-66.012428,-64.712753,-62.44305,-59.724079,-57.282928,-55.717285,-55.166965,-55.236202,-55.256416,-54.741631,-53.736225,-52.804127,-52.639065,-53.53685,-55.083923,-56.29631,-56.158451,-54.244904,-51.03471,-47.702724,-45.488777,-45.00745,-45.904396,-47.062485,-47.237728,-45.757137,-42.884644,-39.664021,-37.350876,-36.766903,-37.926579,-40.105656,-42.263691,-43.555134,-43.65752,-42.792255,-41.504292,-40.380863,-39.869049,-40.235451,-41.595013,-43.905563,-46.894913,-49.993969,-52.39917,-53.327271,-52.385071,-49.853992,-46.683594,-44.128014,-43.171997,-44.046032,-46.113293,-48.215408,-49.297924,-48.961979,-47.622887,-46.187901,-45.457497,-45.624329,-46.181328,-46.289162,-45.35899,-43.466492,-41.322701,-39.816048,-39.424046,-39.884033,-40.349037,-39.9398,-38.342026,-36.061153,-34.161777,-33.647263,-34.864834,-37.304375,-39.908115,-41.687714,-42.261551,-41.991837,-41.667,-41.960636,-43.019222,-44.416969,-45.456062,-45.565018,-44.507477,-42.277164,-38.800064,-33.717148,-26.470713,-16.69772,-4.694777,8.3717089,20.710529,30.536486,36.774883,39.46629,39.659,38.861374,38.361477,38.770844,39.991768,41.550583,43.040237,44.388569,45.813999,47.545582,49.532028,51.357956,52.43988,52.386242,51.293915,49.783165,48.724384,48.791512,50.084393,52.03503,53.666183,54.083969,52.957581,50.736652,48.482506,47.38195,48.175552,50.783543,54.322063,57.511547,59.281136,59.26952,57.970947,56.455212,55.810375,56.600422,58.617008,61.041561,62.909882,63.613407,63.166229,62.11536,61.181084,60.859715,61.21854,61.972866,62.752422,63.357548,63.837574,64.364876,65.025604,65.700195,66.130928,66.127716,65.754791,65.349106,65.340889,65.992058,67.232719,68.71093,70.02108,70.948822,71.560112,72.077255,72.644547,73.171524,73.386223,73.070351,72.298698,71.48217,71.143867,71.556725,72.495338,73.306343,73.298073,72.224541,70.546738,69.270927,69.423599,71.459801,74.958885,78.795685,81.689201,82.806595,82.078026,80.066414,77.509262,74.832985,71.926476,68.274475,63.324707,56.841026,49.040771,40.47686,31.783131,23.455643,15.776633,8.8689938,2.7895241,-2.4243703,-6.7717347,-10.323348,-13.223312,-15.649878,-17.775358,-19.764896,-21.80578,-24.109245,-26.830669,-29.923103,-33.023624,-35.496609,-36.681297,-36.250465,-34.477516,-32.222359,-30.593536,-30.442286,-31.96302,-34.627945,-37.491219,-39.680618,-40.791889,-40.978043,-40.727551,-40.51474,-40.558918,-40.82016,-41.176689,-41.605625,-42.211174,-43.086109,-44.140846,-45.072048,-45.537739,-45.435074,-45.070805,-45.061382,-45.977444,-47.936447,-50.412189,-52.416317,-52.981289,-51.680523,-48.886692,-45.616001,-43.04335,-41.95406,-42.418018,-43.831707,-45.267921,-45.925346,-45.453552,-44.029419,-42.201599,-40.617596,-39.766426,-39.826065,-40.642162,-41.817944,-42.870541,-43.397545,-43.194267,-42.275887,-40.798058,-38.924595,-36.728039,-34.194035,-31.329721,-28.29203,-25.417681,-23.091949,-21.512129,-20.503536,-19.545507,-18.042593,-15.701734,-12.772586,-9.9635258,-8.0444918,-7.3656478,-7.6051359,-7.9344654,-7.5232954,-6.069293,-4.0008082,-2.2000592,-1.4107815,-1.7148383,-2.4322808,-2.5271251,-1.2654465,1.301399,4.3446193,6.7500677,7.7698894,7.4129362,6.3418121,5.3840694,5.0176191,5.1822982,5.512815,5.7735972,6.1330223,7.0479999,8.8400936,11.299941,13.661436,15.02649,14.978539,13.951064,13.05425,13.426772,15.51962,18.789858,22.022093,24.075382,24.563374,24.020386,23.460037,23.651363,24.627811,25.771032,26.394827,26.388443,26.425106,27.54554,30.378584,34.54388,38.689087,41.199299,41.156525,38.937492,36.0522,34.306782,34.803608,37.388996,40.864361,43.790371,45.354694,45.76688,45.975807,46.944031,48.973469,51.504692,53.480522,54.004936,52.870708,50.651917,48.353283,46.872501,46.604527,47.381458,48.713169,50.128662,51.404705,52.58419,53.83287,55.263618,56.840549,58.398392,59.739273,60.739273,61.410267,61.892799,62.383896,63.026878,63.812984,64.556076,64.982193,64.914192,64.453896,64.027672,64.213577,65.403114,67.489014,69.805664,71.427254,71.70047,70.700569,69.293648,68.703201,69.796432,72.519875,75.861717,78.407204,79.16954,78.178291,76.437248,75.25985,75.398773,76.534828,77.468826,76.905861,74.330582,70.406013,66.633675,64.488327,64.573555,66.317749,68.3713,69.419373,68.885933,67.116676,64.996536,63.319145,62.343613,61.791008,61.202801,60.347118,59.371037,58.623604,58.328465,58.37756,58.392254,57.970051,56.8894,55.096043,52.494808,48.754612,43.346237,35.853069,26.358799,15.611575,4.7874656,-5.0480771,-13.451192,-20.744251,-27.688457,-34.898064,-42.389858,-49.570007,-55.657021,-60.236187,-63.552372,-66.337502,-69.301758,-72.656555,-76.012459,-78.72451,-80.434303,-81.413063,-82.446922,-84.327835,-87.29464,-90.811417,-93.846352,-95.479469,-95.452095,-94.316505,-93.110115,-92.779243,-93.712273,-95.637093,-97.884399,-99.798477,-101.03124,-101.58664,-101.6741,-101.53532,-101.36963,-101.35488,-101.66644,-102.41383,-103.52212,-104.6788,-105.45059,-105.54702,-105.06551,-104.51987,-104.57933,-105.65163,-107.5807,-109.68195,-111.12337,-111.41967,-110.71564,-109.6676,-109.00408,-109.06818,-109.65319,-110.22939,-110.3754,-110.08043,-109.68742,-109.52882,-109.55866,-109.3083,-108.25626,-106.36816,-104.3812,-103.53755,-104.84744,-108.33279,-112.79056,-116.32589,-117.40266,-115.77545,-112.67879,-110.08215,-109.41439,-110.53318,-111.60732,-110.03917,-103.91251,-93.114708,-79.469986,-65.816788,-54.593197,-46.764885,-41.681549,-37.85133,-34.06633,-30.143711,-26.853273,-25.162495,-25.370192,-26.7404,-27.882215,-27.60729,-25.679516,-22.952707,-20.804857,-20.240309,-21.24003,-22.767908,-23.411905,-22.238749,-19.324217,-15.64898,-12.461375,-10.53264,-9.7682543,-9.3840303,-8.4882889,-6.6700397,-4.2216048,-1.8844997,-0.31855476,0.34445351,0.58034676,1.154954,2.6322877,5.0273428,7.8128438,10.258702,11.882233,12.736148,13.376576,14.549422,16.786768,20.132706,24.122881,27.99613,31.009422,32.706924,33.049198,32.388096,31.328815,30.536711,30.538651,31.561855,33.454117,35.724621,37.714085,38.847603,38.870476,37.955914,36.624237,35.50642,35.069107,35.440113,36.416073,37.629414,38.764725,39.697784,40.491798,41.281349,42.14138,43.033844,43.857311,44.545959,45.131165,45.712471,46.358345,47.013767,47.490021,47.552486,47.050385,46.001354,44.57682,43.006134,41.473759,40.08234,38.896194,38.011147,37.57214,37.702038,38.383293,39.387295,40.32827,40.834969,40.742428,40.176495,39.464802,38.922531,38.651005,38.485004,38.127289,37.380047,36.313587,35.252838,34.587051,34.530663,34.997257,35.669018,36.207253,36.453545,36.484283,36.492962,36.60239,36.757595,36.783352,36.557743,36.156178,35.835274,35.847614,36.216843,36.652191,36.694714,36.020267,34.695095,33.19099,32.121601,31.858723,32.286816,32.876019,33.041206,32.550117,31.692802,31.074747,31.153719,31.833143,32.412216,31.970621,29.971319,26.694931,23.196007,20.759548,20.158037,21.157558,22.593073,22.997974,21.43581,18.050528,14.01095,10.879371,9.7704887,10.782592,13.013145,15.1224,16.093208,15.739022,14.683765,13.86473,13.890642,14.656249,15.438259,15.392349,14.125326,11.979038,9.8490047,8.6523781,8.7755518,9.8409395,10.933007,11.141048,10.085652,8.1130342,6.0527558,4.7052932,4.3867826,4.8098207,5.3560553,5.5427775,5.3652987,5.2855239,5.8754325,7.3556633,9.342104,10.980526,11.397421,10.190483,7.6566925,4.6246386,2.006346,0.34979054,-0.34778732,-0.49067858,-0.54283416,-0.74151647,-1.0442959,-1.3020316,-1.4877241,-1.7843754,-2.4566576,-3.6055851,-5.0025101,-6.1478195,-6.5393209,-5.9832172,-4.7455854,-3.4476478,-2.7748091,-3.18012,-4.7444925,-7.2343645,-10.268806,-13.46569,-16.498627,-19.097843,-21.076609,-22.418406,-23.363028,-24.377005,-25.949265,-28.290707,-31.130222,-33.784035,-35.513336,-35.977299,-35.487541,-34.869202,-34.985878,-36.224201,-38.283806,-40.427017,-42.027828,-43.039169,-44.03577,-45.776897,-48.57793,-51.938789,-54.725208,-55.826088,-54.868649,-52.50573,-50.056988,-48.715416,-48.829895,-49.73275,-50.217941,-49.336109,-46.959549,-43.734329,-40.468956,-37.41053,-33.948746,-28.996069,-21.815945,-12.737667,-3.2429376,4.6883621,9.5941629,11.280366,10.841393,9.9552422,9.9169292,11.021824,12.654752,13.961606,14.602459,15.057329,16.285044,18.989285,23.014503,27.301529,30.450878,31.533682,30.629702,28.757046,27.256266,27.032658,28.126127,29.839422,31.286203,31.96813,32.011299,31.952543,32.276451,33.054195,33.935974,34.482513,34.577911,34.610413,35.271507,37.090084,40.007347,43.285347,45.83741,46.80447,46.04369,44.239761,42.56572,42.077339,43.173782,45.415447,47.788475,49.260895,49.323975,48.231609,46.824097,46.050392,46.461308,47.950359,49.871727,51.449364,52.229877,52.314915,52.246262,52.627579,53.725037,55.298138,56.763596,57.580376,57.598557,57.135086,56.717533,56.659794,56.754719,56.302078,54.474464,50.798203,45.443661,39.139107,32.768082,26.91671,21.66267,16.723122,11.825346,7.0105462,2.6386144,-0.90833783,-3.5893114,-5.8327966,-8.2888479,-11.345759,-14.751902,-17.646404,-19.036142,-18.438871,-16.267748,-13.677311,-11.940326,-11.745269,-12.869965,-14.4427,-15.606521,-16.12631,-16.516457,-17.600491,-19.816065,-22.769009,-25.379429,-26.554522,-25.945601,-24.265276,-22.919569,-23.166046,-25.334312,-28.615797,-31.562006,-32.969513,-32.583828,-31.184282,-30.02486,-30.021519,-31.21983,-32.864021,-33.976578,-34.030476,-33.266766,-32.479488,-32.45789,-33.486149,-35.222599,-36.989773,-38.22216,-38.740189,-38.68578,-38.228554,-37.322124,-35.733425,-33.334438,-30.416975,-27.745096,-26.237045,-26.444098,-28.165386,-30.47595,-32.184254,-32.45282,-31.205503,-29.082922,-26.998781,-25.597309,-24.953293,-24.673277,-24.2827,-23.606552,-22.882668,-22.551771,-22.896494,-23.796257,-24.770416,-25.274885,-25.045486,-24.25806,-23.406958,-22.990921,-23.211929,-23.867867,-24.485365,-24.590834,-23.950783,-22.655279,-21.027351,-19.437925,-18.137777,-17.182495,-16.463177,-15.806745,-15.092393,-14.335825,-13.705026,-13.448729,-13.750269,-14.564996,-15.535998,-16.072315,-15.598618,-13.872792,-11.190257,-8.3192644,-6.1516781,-5.2364779,-5.4689989,-6.1494184,-6.4117517,-5.7823753,-4.5152531,-3.4620996,-3.5192595,-4.977046,-7.191268,-8.822607,-8.5415392,-5.7916822,-1.1442775,3.9871626,8.11094,10.438803,11.211591,11.383489,11.887175,12.966344,14.012188,14.006846,12.276965,9.0536213,5.4567347,2.8939166,2.2449312,3.3468249,5.1088467,6.1900597,5.8202014,4.258081,2.6133437,2.1549191,3.5417178,6.4447064,9.7728558,12.337578,13.530645,13.605027,13.415448,13.817674,15.124892,16.958927,18.563608,19.348761,19.295435,18.958286,19.07218,20.029022,21.572096,22.912159,23.198349,22.051952,19.833685,17.483223,16.033178,16.090805,17.584656,19.896059,22.257311,24.151588,25.480696,26.442017,27.251444,27.93289,28.319277,28.237047,27.705236,26.972662,26.34766,25.945734,25.562401,24.802099,23.406429,21.557785,19.916494,19.309128,20.226303,22.445593,25.049791,26.875664,27.147938,25.914351,24.001949,22.507767,22.133793,22.782328,23.666468,23.860081,22.92329,21.183817,19.472988,18.472261,18.092516,17.310207,14.61396,8.8383932,-0.087971911,-10.921649,-21.55673,-29.919342,-34.834198,-36.42738,-35.901684,-34.860771,-34.569603,-35.51717,-37.432262,-39.641617,-41.504852,-42.683556,-43.157063,-43.068588,-42.564564,-41.74464,-40.722767,-39.703922,-38.973537,-38.775414,-39.154743,-39.888226,-40.576099,-40.861958,-40.65086,-40.18388,-39.91201,-40.241188,-41.306683,-42.918091,-44.702656,-46.339302,-47.71328,-48.879066,-49.863796,-50.47319,-50.280197,-48.85635,-46.121658,-42.569736,-39.168251,-36.932129,-36.396152,-37.316017,-38.813728,-39.909786,-40.122524,-39.74667,-39.612411,-40.463692,-42.361324,-44.524319,-45.750824,-45.175243,-42.875866,-39.918652,-37.774048,-37.450935,-38.885986,-40.97522,-42.231743,-41.661987,-39.326027,-36.262169,-33.861385,-33.10358,-34.110554,-36.225414,-38.481686,-40.115898,-40.825882,-40.711941,-40.063343,-39.20377,-38.475376,-38.262196,-38.900093,-40.446793,-42.480911,-44.173687,-44.723614,-43.944004,-42.576237,-41.977352,-43.212166,-46.039528,-48.487282,-47.460861,-40.225925,-26.009596,-6.782196,13.324817,29.741898,39.428642,42.032482,39.658661,35.48085,32.066021,30.372662,29.881107,29.573864,28.988008,28.610968,29.41503,31.945021,35.667843,39.082096,40.540604,39.244251,35.75407,31.697197,28.869934,28.308828,29.877745,32.5509,35.126873,36.883446,37.798748,38.3032,38.834984,39.545639,40.324535,41.04163,41.75433,42.68692,44.000908,45.559193,46.902237,47.4944,47.086945,45.942223,44.745602,44.238846,44.794136,46.186947,47.699753,48.488953,48.006084,46.258621,43.807426,41.539085,40.337555,40.782349,42.954575,46.387253,50.173851,53.229469,54.65406,54.081818,51.860104,48.940811,46.493267,45.401867,45.893349,47.482719,49.253429,50.300571,50.087097,48.542282,45.912769,42.530739,38.685017,34.661362,30.856112,27.79327,25.951481,25.479504,26.009274,26.751238,26.875891,25.971712,24.283295,22.554657,21.561678,21.636982,22.507778,23.556911,24.318211,24.841232,25.642239,27.253332,29.687073,32.227962,33.760216,33.468742,31.460131,28.856623,27.234249,27.708958,30.231869,33.55434,35.915874,36.051563,33.907787,30.633909,27.870129,26.786036,27.462746,28.972277,30.054617,29.924528,28.688755,27.139378,26.109125,25.849874,25.853559,25.218199,23.292986,20.159519,16.629755,13.769423,12.265234,12.043692,12.372076,12.355877,11.502311,9.9982338,8.5521355,7.9313064,8.5033331,10.061749,12.013505,13.772731,15.090131,16.113806,17.168589,18.426891,19.706648,20.538675,20.463589,19.365414,17.620476,15.95112,15.055027,15.221977,16.166422,17.184473,17.556973,16.973049,15.728914,14.578322,14.309258,15.282179,17.19455,19.211607,20.393705,20.177042,18.632917,16.362822,14.106525,12.313115,10.942495,9.6127043,7.9814043,6.0932193,4.443193,3.6933746,4.2160335,5.7679148,7.5327301,8.5402861,8.2231359,6.768023,5.0313964,4.0517707,4.4415975,6.0200601,7.90483,9.004775,8.6194286,6.7975669,4.264535,1.9899989,0.67207539,0.43852139,0.90975493,1.5388604,1.9865887,2.293282,2.7591856,3.6363132,4.8498082,5.9419208,6.2921658,5.5006924,3.7217348,1.7488178,0.76820147,1.8525069,5.3930087,10.716767,16.085045,19.136461,17.66338,10.454795,-2.1288083,-18.117109,-34.499882,-48.21991,-57.200848,-60.982872,-60.700478,-58.434422,-56.257793,-55.425831,-56.060127,-57.407356,-58.458797,-58.562214,-57.714096,-56.440624,-55.415447,-55.083076,-55.499798,-56.429699,-57.566086,-58.696518,-59.711231,-60.496796,-60.848904,-60.515869,-59.368645,-57.576809,-55.64183,-54.226151,-53.856239,-54.671783,-56.371037,-58.37896,-60.125641,-61.264149,-61.717556,-61.575031,-60.959572,-59.988274,-58.84536,-57.869274,-57.517742,-58.158581,-59.785156,-61.859863,-63.45335,-63.67429,-62.178406,-59.449833,-56.644806,-55.035301,-55.340717,-57.326996,-59.916142,-61.758404,-61.949322,-60.488911,-58.233471,-56.386009,-55.830544,-56.686497,