Bandpass,0,0.14891,-75.2303,-260.1223,-411.7133,-497.3542,-506.1139,-451.6761,-365.1193,-281.3463,-225.5816,-205.7676,-213.3739,-230.9384,-241.9211,-238.1009,-221.8142,-203.1799,-194.6047,-205.4161,-238.4989,-289.4296,-347.6187,-398.8426,-428.7384,-426.9598,-391.0834,-328.7473,-256.4062,-194.1608,-158.0745,-153.2973,-171.594,-195.2536,-206.0823,-195.2406,-168.646,-144.6053,-144.327,-179.9541,-246.4875,-322.2392,-378.0538,-390.8753,-354.7392,-283.5311,-204.16,-143.7056,-117.244,-122.3755,-142.8538,-158.8356,-158.0275,-141.9103,-124.1355,-122.4358,-148.5996,-201.6968,-267.7132,-325.3834,-355.0993,-346.6822,-302.8064,-237.1531,-168.6483,-114.4703,-84.50348,-78.99495,-89.81245,-104.5446,-111.8943,-106.4814,-91.30704,-76.77393,-76.32372,-100.1434,-149.4735,-214.2318,-275.5179,-312.4992,-310.9771,-269.783,-201.8259,-128.9481,-72.74179,-45.53752,-45.89892,-60.80653,-73.39452,-72.28655,-57.73676,-41.41151,-39.92932,-65.50289,-118.5184,-185.8702,-245.9239,-277.6512,-269.5241,-224.0355,-156.0621,-86.2598,-32.84466,-5.393293,-2.905891,-16.16692,-32.67963,-41.85238,-38.64185,-24.87204,-8.30453,0.104912,-9.830381,-43.18395,-96.52877,-157.1572,-206.1333,-224.9345,-203.4419,-145.59,-69.32761,0.1100447,41.11616,45.65307,22.87683,-5.981045,-19.28323,-7.177906,22.44228,47.86246,45.60555,4.190671,-68.08066,-145.8699,-198.8413,-206.5606,-168.1835,-101.8502,-34.46678,12.12626,30.86572,30.03788,25.17673,27.69339,37.22402,42.09341,27.27498,-15.18435,-79.55993,-147.5038,-196.0834,-208.2984,-180.5025,-123.2071,-55.51498,3.468806,41.87668,58.00796,58.52462,53.67579,52.12621,57.40432,66.84206,72.90025,66.28992,40.04561,-6.593333,-65.97775,-122.9565,-159.4022,-161.185,-124.7345,-59.85009,13.2977,72.25108,101.8751,100.7612,81.02973,61.46416,57.44959,72.94498,98.62671,117.0334,111.8398,76.38258,17.2187,-48.65735,-101.0707,-124.5907,-113.6064,-72.9697,-14.91915,45.65779,95.61634,126.5358,136.1471,128.4063,112.1785,98.37572,95.82483,107.1176,126.3987,140.8267,135.9012,102.7111,43.6818,-26.44288,-85.51126,-112.9495,-98.69534,-47.72823,22.10765,88.00823,132.0002,147.9364,142.4827,129.9809,124.0288,130.0923,142.7685,148.894,134.8362,94.35264,33.20351,-31.7727,-78.88077,-90.44619,-60.47402,2.350189,77.81162,142.2746,178.3058,181.5468,161.6772,136.9459,124.763,132.8214,155.102,174.8275,173.0579,138.7563,75.31138,0.2181234,-62.05783,-90.596,-76.87507,-27.8214,38.13573,99.74778,141.9661,161.0194,163.52,160.6494,160.8024,164.5366,164.2533,148.5043,108.5967,44.1896,-34.77576,-110.7035,-164.3887,-181.954,-159.9125,-106.4021,-38.19616,25.32111,68.91384,86.4306,82.06423,67.48573,56.05285,56.52583,69.00603,84.94601,91.31829,77.13865,39.37537,-14.57034,-69.09969,-106.4793,-114.0112,-89.06643,-39.76755,18.79744,70.86584,105.8063,120.9708,120.8158,113.3892,106.3506,104.3971,108.7416,117.9457,128.8763,137.0806,136.9297,122.5886,90.47933,42.59093,-11.3553,-55.10628,-71.23061,-48.90965,9.635119,88.03645,161.6253,208.1095,217.9042,198.4918,170.057,154.3244,162.47,188.7989,213.8195,215.1667,180.3657,114.3756,37.87146,-22.6066,-47.02904,-30.1827,17.95146,78.88832,134.8303,175.1905,197.8085,205.9265,204.2116,196.7869,187.622,181.3705,182.3016,191.0284,201.4053,201.0504,177.0962,124.9486,54.71904,-9.898828,-41.50842,-23.23712,40.76022,125.4222,196.6411,228.8331,218.2252,183.8293,155.2113,154.1342,181.086,214.9294,225.9226,194.2669,122.8549,36.60581,-31.02858,-55.99859,-35.29412,14.11573,67.31395,106.0755,126.8106,137.5771,147.4824,156.7301,154.7101,127.6074,70.20862,-6.567153,-78.15529,-117.9909,-111.3597,-62.98537,6.120784,70.25883,111.7889,127.5911,126.426,120.3578,116.7438,115.8783,114.5945,111.6193,109.4694,110.9203,112.9713,104.0254,68.36972,-3.207105,-103.0254,-204.0435,-269.0066,-267.8002,-193.8895,-70.24868,59.39291,149.8983,174.5802,135.2166,57.64514,-23.57568,-82.2908,-110.5051,-116.8229,-116.5042,-120.4012,-129.478,-137.1146,-136.1651,-125.2123,-109.8123,-98.47831,-96.76363,-103.7234,-112.9889,-117.3092,-113.2123,-102.6858,-91.14002,-83.49203,-81.25494,-82.43482,-83.85537,-83.8571,-83.3101,-84.39518,-88.34478,-94.05726,-98.68191,-99.67315,-96.68118,-91.78548,-87.90494,-86.61963,-87.08837,-86.89397,-84.15538,-79.26865,-74.8699,-73.97531,-77.62225,-83.79562,-88.52953,-88.51829,-83.42822,-76.25865,-71.40434,-71.70513,-76.4669,-81.85245,-83.43685,-79.28089,-71.50953,-65.32769,-66.00768,-75.60192,-91.24451,-105.9408,-111.3689,-101.2816,-74.03876,-33.42562,12.25624,52.31952,76.38927,77.08288,52.08974,5.057391,-55.17799,-117.0165,-169.467,-205.2429,-222.378,-223.9003,-216.0095,-205.8659,-199.892,-202.8107,-216.9439,-241.2486,-270.2771,-294.0733,-300.1477,-277.7207,-222.7734,-141.31,-48.52777,36.34334,97.28642,127.0638,128.1278,108.6463,76.46461,35.18528,-14.95282,-72.11023,-127.7423,-165.9304,-169.1432,-128.022,-49.45518,42.71592,116.1514,144.004,117.1647,48.00747,-36.48678,-108.3683,-151.4778,-166.4897,-166.1804,-164.7086,-167.9243,-170.5404,-161.2542,-131.8325,-83.89234,-29.01792,17.54041,45.17804,52.7468,46.98692,36.10287,23.20162,4.239751,-28.10841,-77.34464,-137.7319,-194.4337,-229.4932,-230.2059,-195.058,-133.9895,-63.30087,1.476189,50.75196,81.92865,97.07854,99.86333,94.03418,83.88354,75.0065,73.34333,82.01958,97.78814,110.1414,105.0824,72.62518,14.16398,-55.01261,-110.6312,-130.2061,-104.3811,-42.60728,30.41892,86.21758,106.0984,89.69434,53.9017,22.81876,14.18295,29.65238,54.1474,64.4906,42.56122,-14.14588,-90.1438,-158.86,-195.0442,-186.1963,-137.3975,-67.65759,-0.328706,47.09964,68.82966,70.10757,61.67053,53.15332,49.14958,49.31327,51.15012,52.71562,53.10991,50.81907,41.92084,20.53017,-17.7753,-71.30644,-129.7055,-176.1283,-194.0526,-175.467,-125.6985,-61.63639,-3.792271,33.55573,48.47736,50.14198,51.00723,57.37335,64.41131,59.12176,29.68661,-24.5617,-89.10146,-139.3226,-152.4597,-119.7372,-51.68247,26.63302,87.8914,115.5517,110.5602,88.51701,69.57552,67.16686,81.71554,102.0575,112.6761,101.9782,67.13519,13.85643,-47.3121,-105.0776,-149.6959,-173.4875,-171.1778,-141.4304,-89.15536,-26.46897,29.83314,64.42099,70.52374,53.78545,29.87227,16.26654,22.37778,43.61153,63.18813,61.1933,26.09697,-37.63427,-110.1654,-164.9997,-181.2219,-152.9968,-91.71073,-20.1555,37.89302,67.47924,67.33896,48.32777,26.9153,17.08765,24.11213,42.45266,58.40436,56.3606,26.36791,-30.04623,-98.53101,-156.3647,-181.5484,-162.8415,-105.8372,-31.40479,33.54482,68.81338,70.52371,52.06862,35.4258,37.44223,58.99104,83.67119,87.33241,53.19836,-16.30783,-98.35759,-160.3568,-176.6123,-141.5384,-71.9056,2.876763,56.4411,77.88364,74.17882,62.28793,56.94092,62.17716,71.55068,75.70166,71.04916,62.93131,60.83868,69.32566,81.6616,81.71059,53.88553,-4.88868,-79.37739,-141.2038,-162.9207,-133.0183,-62.80807,19.19879,82.27019,108.994,102.3967,81.00784,65.72245,67.09064,80.85545,93.75152,94.77784,83.76876,71.25146,69.80392,83.12361,100.8036,103.1394,73.56007,10.92667,-66.45866,-128.3983,-148.0243,-115.976,-45.30193,35.63488,97.92482,125.9626,122.8205,105.0282,90.94197,90.21849,100.3539,111.2814,113.9387,106.7062,95.75446,89.7738,93.31978,103.5826,112.6746,113.5768,105.3904,94.15983,88.6737,94.08736,107.6536,119.3887,117.2697,93.73745,49.6745,-6.126526,-61.14841,-104.1381,-128.1978,-131.0617,-113.6936,-79.08363,-32.25883,19.14778,65.37032,97.0294,108.9708,103.1553,88.36146,76.21751,75.48764,87.91629,108.1347,127.6575,140.348,145.8264,148.6987,154.3885,164.6477,176.0289,182.4327,179.9241,170.2478,160.2896,157.5368,164.4598,175.7022,180.2515,167.4526,133.195,82.4139,26.49565,-22.50352,-57.02309,-75.46378,-79.716,-71.3269,-49.64396,-13.48925,35.14032,88.73132,135.9077,166.7247,178.1727,175.6899,168.9767,164.4469,159.5653,143.6783,105.772,44.58795,-25.88882,-80.34241,-94.40781,-58.52948,15.19463,98.08042,159.562,183.1106,173.8557,153.2909,144.4029,156.5358,179.4606,190.2959,168.7549,111.0383,33.61761,-35.2835,-70.98854,-64.89127,-26.85787,23.05698,67.37798,99.87452,124.9626,149.3195,172.5051,183.7716,167.6197,114.3922,28.54147,-71.24541,-160.3929,-219.9305,-243.9138,-238.5822,-214.8081,-179.8007,-134.0381,-75.16824,-5.235403,64.99445,118.8152,142.3603,133.5642,104.7977,76.64275,66.29196,77.90453,101.2343,119.468,121.0976,107.9278,93.86254,95.26438,119.2772,157.8654,191.5183,200.2616,174.9463,121.8394,58.04568,1.167768,-40.07029,-68.71387,-95.04163,-128.3348,-170.3903,-214.2039,-247.4142,-257.3986,-235.0567,-176.6685,-85.35417,26.54593,135.3161,207.5389,208.8455,118.9147,-53.72374,-266.5682,-454.3953,-555.3063,-540.5125,-432.2051,-297.8991,-221.1129,-261.3806,-423.4005,-651.5792,-853.5303,-941.191,-869.2365,-652.623,-356.3766,-65.12724,151.0793,258.585,262.2198,191.6333,82.77538,-34.85508,-141.0864,-221.2527,-262.4786,-254.8631,-197.0777,-101.3948,7.209125,99.38193,153.4169,164.2973,144.5099,116.1674,99.08069,101.5337,118.5051,137.4246,147.2157,144.9726,136.6554,132.1384,138.1974,153.8057,170.311,175.9662,162.0468,127.2521,78.44962,27.85228,-11.67196,-30.99046,-27.1746,-3.50468,32.52222,72.06345,107.4239,133.2573,146.2891,144.2228,125.0378,87.6634,34.02254,-28.88342,-88.86963,-131.8224,-147.7501,-136.8709,-111.999,-94.79504,-106.5863,-157.8533,-241.878,-336.3975,-412.9357,-449.2326,-438.3117,-389.5937,-321.9112,-252.8736,-190.8227,-133.6597,-74.42545,-9.46728,56.30052,110.2663,138.3156,132.2888,94.1944,35.08735,-30.07456,-88.12833,-130.8852,-155.0144,-160.1978,-147.8277,-121.2398,-86.54775,-52.17324,-26.12988,-12.20933,-7.708249,-4.822256,4.59946,23.85231,49.39963,73.80212,91.70659,104.456,119.3738,143.3582,174.8524,200.3072,199.0988,155.4575,70.66741,-32.59679,-118.054,-152.7556,-124.1358,-47.1883,42.93946,109.2071,131.479,115.0895,84.47178,66.11892,71.51901,90.51218,98.91871,75.39154,16.8004,-57.52671,-115.3992,-129.4134,-92.08799,-19.68906,57.10937,109.7717,125.8481,112.6451,89.40517,73.4976,69.02972,64.14358,37.74661,-28.84909,-141.9154,-291.6357,-455.4298,-605.4062,-716.0377,-769.4843,-758.0175,-684.6364,-562.5313,-413.1696,-262.3268,-133.952,-43.62156,5.739723,23.47975,25.97877,28.921,40.87099,61.19555,82.87077,98.0106,102.7051,98.6443,91.27615,86.31667,87.02946,93.59052,104.0891,115.6669,124.6977,126.2935,114.5704,84.86414,37.49129,-19.1844,-69.19011,-94.13879,-81.50584,-31.78918,39.8684,109.4604,154.9869,166.8486,151.9441,128.8607,116.5648,122.8841,139.501,146.6184,124.9473,68.27655,-10.7001,-84.99483,-126.2099,-118.7733,-67.71548,4.283083,68.89241,106.4663,114.7927,107.6213,104.1987,116.1785,139.6823,157.2587,148.6839,104.3816,33.59016,-37.74132,-78.59924,-68.03786,-5.741748,87.57561,180.0343,243.4097,265.2393,252.3353,224.6958,203.8123,201.8579,217.0504,236.6082,244.5819,229.7894,189.9203,130.7888,62.54518,-4.170061,-60.16979,-97.84801,-111.1043,-96.53804,-55.80551,2.616723,64.42818,113.9675,140.5147,143.1149,130.9025,118.243,116.9884,129.9749,149.34,160.5675,150.0367,111.9971,51.49641,-17.80861,-79.25859,-119.1216,-130.2593,-112.7712,-72.55421,-19.25769,35.61224,80.69405,107.4122,112.9647,102.1485,86.15016,77.64365,83.9157,101.6886,117.2392,112.8898,77.12331,12.86626,-61.23883,-118.187,-135.2908,-105.5058,-41.10918,32.45432,89.19424,114.6791,111.0913,93.00877,77.17846,72.8346,78.23659,84.75698,84.88037,78.14806,70.8401,69.79045,75.03496,77.07007,61.50588,18.76211,-47.37647,-118.4133,-168.8587,-179.1167,-146.0948,-85.08163,-21.54005,22.41759,38.85229,35.79367,29.29885,31.14281,40.18441,43.0457,23.7405,-23.93867,-89.38828,-148.4404,-175.4392,-157.126,-100.057,-27.08946,34.94085,68.98581,74.92246,66.21032,58.73277,59.19711,60.55528,47.33546,7.436516,-57.21272,-128.1624,-178.2181,-185.3298,-144.646,-71.72714,5.035925,58.58428,76.10449,63.75912,41.0824,28.66772,36.25386,57.69173,75.14182,69.70335,32.43435,-30.07317,-98.15507,-147.8821,-161.5443,-134.8205,-77.73335,-9.663031,48.77842,83.35113,90.40578,76.64845,55.15705,39.52046,38.30256,51.70786,71.53666,84.45726,77.51562,43.89176,-13.35482,-81.25173,-140.9069,-174.1767,-170.4183,-130.5737,-66.86448,1.812617,56.90462,86.80744,90.45287,76.57574,59.08918,50.52888,56.26142,71.86118,84.88064,80.5032,48.88258,-8.970633,-79.65347,-141.4311,-172.6958,-161.3286,-110.5989,-38.43726,30.0964,73.87235,84.93858,71.20558,51.00859,42.27903,52.09758,72.4232,84.59018,70.31965,23.25955,-45.49255,-111.2783,-147.4422,-138.5331,-88.09419,-16.85665,47.64922,84.47107,88.50175,70.9603,51.28431,45.23973,55.87663,72.12684,75.50501,51.0179,-3.687505,-75.73714,-142.1789,-180.0876,-176.5607,-133.8958,-67.90423,-0.6349895,48.81156,71.24599,69.43652,54.97781,41.91332,40.15263,51.4032,69.00069,81.30089,76.95749,49.85448,1.832442,-57.64738,-114.547,-154.7245,-168.2088,-151.9445,-110.3291,-53.66758,4.835213,52.6458,81.17107,87.944,77.12683,57.98907,41.55994,36.3306,44.51186,60.51389,72.68359,68.04768,38.33271,-15.32828,-81.33635,-141.0695,-175.6644,-173.3697,-134.2894,-70.47655,-1.290871,53.95976,83.04642,84.6978,67.9508,47.45921,36.80614,42.52142,61.17445,80.71609,85.6492,64.0953,13.92095,-54.79501,-122.4201,-166.9282,-172.8201,-137.9179,-74.72939,-5.371632,47.90358,72.21931,68.99065,51.75692,38.00118,39.19179,54.3062,70.33234,69.5603,39.83438,-17.68481,-87.42513,-145.6658,-171.0526,-154.1496,-101.4432,-32.09379,30.71122,69.51295,78.99805,66.52179,47.05439,35.2816,38.54809,53.62751,68.4952,68.15204,41.96787,-10.56618,-78.18292,-141.2317,-179.0099,-178.1354,-138.3728,-73.11382,-3.979924,48.24569,72.25176,70.23392,55.30359,43.53162,44.71437,56.74243,66.6618,58.0238,20.73191,-41.85541,-112.4832,-166.7509,-183.898,-156.3733,-93.53503,-17.6979,45.56862,78.31591,77.25951,53.89453,27.85859,16.77963,27.41248,52.22281,73.08064,70.43244,33.68932,-32.19228,-107.3761,-165.1693,-183.8707,-156.7873,-95.38846,-23.7835,32.83265,59.8796,59.12653,45.4481,36.54351,41.52194,55.02126,60.37989,40.15499,-12.12981,-85.97339,-157.3885,-200.1738,-198.7514,-155.5246,-88.91335,-23.62511,21.11134,38.96954,36.31131,25.75142,18.23291,18.3498,24.74731,33.76488,42.66356,49.88687,52.76566,45.58037,20.9164,-25.32393,-88.21179,-151.8788,-194.1864,-196.6936,-154.7248,-81.46317,-2.887691,54.35515,75.70434,64.96482,40.58223,24.09449,27.42253,46.1733,62.52671,55.74163,14.19213,-57.62812,-140.4892,-208.8809,-241.7921,-230.5772,-180.9494,-109.3503,-36.24794,20.63362,51.12119,54.64865,39.52393,19.57597,8.732407,14.9153,35.67611,58.14129,64.38036,40.52166,-14.68894,-86.75947,-150.3424,-180.4337,-164.3566,-108.0794,-33.23402,33.63844,73.71913,83.51443,73.66285,60.44239,55.66453,61.11468,70.30597,75.36897,73.65359,69.21268,68.27019,72.27834,74.15436,61.26514,24.00221,-35.44591,-100.3588,-145.6475,-150.228,-108.7013,-35.34933,42.32671,97.21265,115.8055,103.7225,80.62832,67.78339,75.46375,97.31514,114.5057,106.9841,65.38239,-2.873165,-76.22688,-128.6703,-141.2983,-110.1629,-47.15828,25.77842,85.9819,118.6834,121.581,104.0207,81.64269,68.8933,72.4644,88.26877,103.2723,101.5895,72.38381,16.06477,-54.28577,-117.3516,-152.2168,-147.3407,-105.6221,-43.0579,18.37083,60.13333,74.39874,65.87603,47.8693,34.97079,36.14562,51.2552,71.99948,86.12983,82.67871,56.15067,8.581574,-50.67363,-107.1425,-145.0342,-152.0388,-123.9544,-67.31855,1.669901,62.48436,98.26365,103.0122,84.23552,59.07938,45.34716,51.79182,72.90744,91.39388,87.41869,49.97001,-15.80512,-89.42451,-143.9067,-158.2062,-126.9248,-62.48903,11.03403,69.08079,97.03696,95.12576,76.02077,57.10735,51.58233,62.55605,82.38726,96.87138,91.98311,60.22187,4.22818,-63.45412,-124.2463,-159.7547,-158.3143,-119.5536,-55.09346,15.31481,71.10402,98.85015,97.39356,77.57599,56.45253,48.53444,58.31403,77.84865,90.73675,80.57188,39.65194,-26.39382,-100.2951,-160.1726,-188.3954,-178.1409,-134.9989,-73.55164,-11.1207,38.31009,67.7188,77.53055,73.69003,64.64954,58.33987,59.70267,69.03883,81.53332,88.42297,79.99215,49.81074,-1.370813,-64.02308,-121.8712,-157.317,-158.2392,-123.1746,-62.40325,5.789523,62.13931,93.66593,98.05563,83.4238,63.83189,52.68732,56.89587,74.07143,93.7317,101.8484,86.94404,45.44877,-15.72093,-80.52541,-128.9422,-144.2838,-119.9803,-62.93278,8.43724,71.15542,107.0308,110.2235,89.32507,62.59508,48.37224,55.30022,77.43473,97.03098,93.9044,56.70386,-9.773589,-85.25273,-142.5684,-160.0083,-131.2661,-68.09239,5.491449,64.3161,92.92196,90.99976,71.29046,51.64467,45.60128,56.07428,74.74817,86.82483,78.40189,43.02111,-15.21286,-82.77706,-141.3107,-173.794,-170.2591,-131.2746,-68.07742,0.9148982,56.33762,84.84541,84.10296,63.44188,39.40317,27.74223,35.44337,56.74323,75.53379,73.42907,39.73509,-21.73081,-92.7107,-147.8497,-165.9445,-139.6456,-78.83083,-6.030014,53.77611,83.96402,82.55703,61.31089,38.51863,29.37906,38.63456,58.73878,74.01389,68.50464,33.81145,-26.51161,-97.68459,-159.0559,-191.7832,-185.7885,-143.3333,-77.9238,-9.046988,45.13754,74.22118,78.47794,67.19234,53.2912,46.91146,51.02232,61.17477,69.29503,69.25975,61.01221,50.7585,47.01066,54.68448,70.73203,84.12853,80.69295,50.54129,-5.679978,-75.1776,-137.1887,-171.2209,-165.5754,-122.2266,-55.8885,12.20905,62.91831,86.34309,84.60065,69.26685,54.91152,51.73604,60.59098,72.57543,73.44629,50.96507,1.928989,-64.46319,-128.8346,-168.9512,-169.1838,-127.81,-58.53445,14.96815,69.24457,91.27458,83.65135,62.01109,45.87588,47.59218,65.23981,83.46279,82.01997,47.65605,-17.08788,-93.06726,-152.5204,-171.9789,-143.5354,-78.6873,-2.803077,56.90117,83.72874,78.04203,54.98149,34.9752,32.2385,47.25843,66.93866,72.04012,47.87629,-7.232507,-79.90449,-146.9228,-185.0981,-181.0805,-136.6928,-67.65233,3.392547,56.15965,80.25927,77.94228,61.33183,45.79713,42.5942,53.94579,72.45953,84.84776,78.15198,45.79178,-9.027291,-73.80612,-130.8751,-163.5062,-161.7462,-125.8744,-66.31812,-0.08479019,55.02697,86.42997,90.83514,74.91852,52.20463,37.22672,39.15342,57.48756,81.82137,96.08414,85.77998,45.21108,-18.61271,-87.47382,-138.625,-153.9955,-127.8923,-69.61824,0.3782394,59.22089,91.21629,93.88615,77.58547,58.97489,51.65352,58.70119,70.98392,72.17748,48.04,-4.791547,-75.11089,-140.7108,-177.7603,-171.5383,-123.3309,-50.04953,23.25321,74.38861,93.2216,84.72115,64.65028,50.32177,51.24377,64.37878,76.27183,70.80105,38.48248,-17.41577,-81.04031,-130.3475,-146.6638,-122.9101,-66.72218,2.844727,63.41562,98.48447,103.6553,87.31983,65.66788,54.39926,60.90475,80.4817,98.39056,96.97662,64.73363,3.113186,-72.32528,-137.3943,-169.2484,-156.3827,-103.8984,-31.30298,36.28757,79.37264,92.15585,83.45893,70.11852,66.49715,75.87511,88.47358,87.23445,58.17571,-0.4204914,-75.10647,-142.352,-178.9692,-172.4591,-126.1269,-56.75594,13.39683,65.90492,92.34686,95.15706,83.94479,70.02808,61.95734,63.37757,72.92628,85.15489,91.8717,84.11766,55.18773,4.291803,-60.80342,-124.3006,-167.1476,-174.7726,-144.2231,-86.65643,-23.09909,24.97202,45.51637,40.88508,24.95428,13.93667,16.11537,26.52375,29.8218,9.853055,-39.60472,-109.1766,-176.7517,-217.4734,-215.515,-171.4289,-101.4518,-29.57949,23.14724,46.74237,44.33623,28.2221,12.7668,7.914694,15.84636,31.29264,44.40647,44.6387,24.49031,-17.48232,-74.98546,-134.4478,-178.3274,-191.0007,-165.3732,-107.1659,-34.12906,30.45344,67.5442,70.7985,49.15851,21.83604,7.937309,16.06492,39.48889,59.63946,56.20384,18.52813,-47.71945,-122.1193,-178.4645,-196.5127,-170.7019,-111.863,-41.62778,17.2868,50.16051,54.8459,40.49123,21.78002,11.68689,15.84979,30.52984,44.56556,44.34225,19.90683,-29.97857,-95.83726,-159.6619,-200.9723,-204.7454,-167.9978,-101.8737,-27.71924,31.5981,61.35382,60.94119,42.98513,25.79748,22.92948,35.34824,50.62234,49.86051,18.91127,-42.2126,-116.9991,-178.882,-203.4475,-180.1947,-117.78,-39.98133,25.50449,59.69821,60.03436,39.53235,18.36256,12.56742,25.85641,48.41822,62.825,53.50997,14.82963,-46.08893,-112.5322,-165.265,-189.8367,-181.04,-143.3127,-87.88329,-28.49314,22.56726,57.22914,73.06873,73.43612,66.17888,60.8548,64.83353,79.57748,98.95597,111.0159,103.1172,68.4173,10.52293,-56.36398,-112.3783,-139.9213,-130.8152,-89.24159,-29.22167,31.77807,79.70513,108.0204,117.7447,114.514,105.0424,94.94869,88.3001,87.74802,93.91311,103.882,110.2255,102.4739,71.72926,16.71383,-52.31703,-115.1256,-149.133,-140.0213,-89.72115,-16.84926,51.48439,92.65714,99.3552,82.09767,61.85968,56.88269,71.31909,92.43694,98.23911,71.23236,10.34868,-66.04359,-128.0851,-149.1371,-119.2451,-50.10012,30.99992,94.67303,123.1344,117.0614,92.72124,71.69168,69.07738,86.26709,111.3031,125.8288,114.5655,72.66304,7.949057,-62.23262,-117.6432,-142.3467,-129.9065,-85.10833,-21.92716,41.4157,88.6935,111.0927,109.8246,94.78959,79.68966,75.5577,85.56931,103.5536,116.9352,112.7364,83.79389,32.34652,-30.47258,-88.71509,-127.2454,-136.5577,-115.2277,-69.66918,-11.81528,44.33931,86.51884,107.5562,107.5609,93.89548,78.36064,72.04445,79.72649,96.59094,109.4963,103.0035,67.73767,6.888951,-62.936,-117.7005,-136.3486,-110.6339,-49.35133,25.37671,88.02084,120.8779,121.0997,100.274,77.19505,67.78553,77.27033,98.20325,114.786,110.9454,78.14788,19.55495,-50.90429,-113.6796,-150.6112,-151.1175,-115.5415,-54.74806,13.69769,71.46154,105.525,112.3115,98.29581,76.72671,61.65429,61.67878,76.12181,95.36464,105.2436,93.55922,55.7913,-2.442918,-67.10903,-120.7198,-148.3818,-142.5816,-105.2257,-46.58767,18.11725,73.34601,107.7332,117.3168,106.5125,86.30469,69.89222,67.08111,79.58784,99.53571,112.3392,103.2566,64.89481,2.099415,-68.47569,-124.4123,-146.712,-127.9124,-75.29217,-7.576949,53.27044,91.26077,102.2721,94.04115,80.63591,74.41165,79.50592,89.96182,93.15981,76.67855,35.16492,-26.02506,-92.04601,-143.9998,-166.1553,-151.8602,-105.8294,-42.05513,21.55007,69.52171,93.75655,95.28942,82.59318,67.35215,59.47198,63.16018,75.36252,86.97612,86.3533,63.92765,16.45821,-50.59959,-123.6274,-184.4797,-216.316,-209.7158,-166.6804,-100.6164,-31.83535,19.96515,43.23038,38.74543,18.45709,-0.7366159,-5.4371,7.553408,29.56217,44.31343,36.15571,-1.690203,-62.82576,-129.4065,-179.1361,-194.3535,-169.1971,-111.8102,-40.85938,21.95714,60.19046,68.36267,53.01681,28.89677,11.98734,12.29773,29.37049,52.42362,65.18042,53.44935,12.2198,-50.96007,-118.0541,-167.4064,-182.4899,-158.6503,-104.8186,-39.47759,17.11998,50.88147,58.47594,46.95221,29.13596,17.33128,18.18446,30.54618,46.59987,55.26842,46.47084,14.97495,-37.05463,-99.53413,-156.5047,-190.7641,-190.0569,-152.5589,-88.93962,-19.20602,35.08505,60.02084,55.36669,33.96024,14.29817,9.967323,21.67962,36.58577,35.6357,5.149903,-53.86226,-124.0885,-179.2695,-196.7801,-168.7578,-105.8853,-32.00356,27.36277,56.4473,54.97024,35.86796,16.99836,11.56721,22.0142,39.76779,50.1921,39.87426,2.954288,-55.83179,-122.1906,-176.8324,-202.0867,-188.498,-139.056,-69.05149,-0.8417984,44.96358,58.29261,43.98648,18.97108,2.975575,7.313917,27.89385,46.83474,42.44506,2.367213,-67.56341,-144.1773,-197.6052,-206.0835,-166.7908,-96.76311,-23.59807,28.55994,49.87642,46.92668,35.89477,31.8459,40.77286,58.58852,76.38245,87.36665,90.46543,88.5073,83.19583,71.41715,46.37647,3.350174,-53.90419,-111.0485,-147.8789,-147.9108,-107.4669,-38.76104,35.17538,91.12568,116.0911,111.9635,92.44553,74.5537,69.72973,79.12369,94.69743,104.4466,98.30615,71.86621,27.05948,-29.17994,-86.78207,-134.2376,-160.5023,-157.6832,-124.2008,-66.91207,-0.3120979,57.87974,93.37348,101.1195,87.17387,65.40582,50.55365,51.13453,65.69798,84.0405,92.40062,79.83319,42.87181,-13.11819,-75.77589,-129.5455,-160.0872,-158.3176,-123.3749,-63.68715,4.732787,63.09244,96.62009,100.7046,83.14062,60.56518,50.03605,59.6942,83.58527,104.0056,100.7792,62.84219,-4.183831,-78.90342,-133.501,-146.8396,-114.4869,-50.46086,19.99986,72.63137,94.87713,89.90334,72.47618,59.54946,60.81894,73.95736,86.47254,82.69719,52.2168,-4.257461,-74.02805,-136.7712,-172.225,-168.1551,-125.4421,-58.15205,11.73702,63.09554,84.30653,77.84595,58.28168,44.20969,47.87747,67.88113,89.19736,91.12502,59.30263,-4.661712,-81.57684,-142.5644,-162.7224,-133.4301,-66.70062,10.81433,70.9303,97.14516,91.08063,69.1749,51.99364,52.3461,68.58782,86.28517,86.77445,57.70893,0.1051924,-71.32683,-134.2536,-167.9615,-161.54,-117.7457,-51.3969,16.67978,67.63373,91.45611,90.10338,75.56688,63.46233,64.77025,79.56861,96.19225,96.93466,68.01517,8.81209,-64.94052,-126.6016,-150.7118,-125.7456,-60.59951,19.10204,83.35835,112.3594,105.4116,79.4036,57.84258,56.78995,75.67863,98.06012,101.574,71.25573,8.654117,-68.08648,-132.8002,-163.4984,-151.7057,-104.6264,-40.09228,22.11138,67.84335,91.99649,97.43305,91.42165,81.99361,75.55881,75.70872,82.50249,92.00768,96.68474,87.45953,57.51909,6.470879,-57.38237,-118.4785,-159.2122,-166.9014,-139.2754,-85.7682,-23.87109,27.8546,56.9482,61.30812,48.86486,33.04759,26.12247,33.25442,49.79216,63.04188,58.0666,25.31121,-33.2438,-102.5805,-159.3065,-181.2025,-157.626,-95.58356,-17.74928,47.43487,79.12163,73.98415,47.07577,22.66315,19.7529,40.43839,68.03577,76.60806,46.80136,-21.09939,-104.7839,-170.136,-188.675,-152.4781,-78.15541,2.308095,58.49614,76.59928,64.23405,42.93362,33.38886,42.48229,59.59814,63.87745,37.59596,-22.42229,-101.7979,-175.2158,-218.4438,-219.005,-180.2704,-117.9753,-52.13166,0.9440764,33.06544,44.35345,40.6986,30.58329,22.40434,22.24476,31.78037,46.75704,57.33186,51.3798,20.30192,-35.14492,-102.4525,-160.6721,-188.7625,-175.2075,-123.9218,-53.05077,13.04018,54.62422,64.82685,51.19243,30.20969,18.02917,22.27672,38.85874,54.77978,55.02231,29.95011,-19.99977,-83.94203,-144.2175,-182.5255,-186.3719,-153.7419,-94.32559,-26.50962,29.26768,58.52588,58.70608,39.96708,19.76738,13.38173,25.07155,44.90587,53.58969,33.29277,-21.20543,-97.40509,-169.3385,-209.3526,-201.2531,-147.7621,-68.41173,10.58733,68.63771,98.48095,105.8686,102.6442,98.40969,96.06593,93.27361,87.60571,80.74586,78.15099,84.26009,96.92546,105.7751,96.73222,60.67077,0.9194454,-65.52609,-114.6851,-126.9408,-96.82752,-35.74751,33.81778,89.21009,117.516,119.4344,105.8893,90.36558,81.89901,82.38791,88.56464,96.02509,101.9109,104.6165,101.5997,88.03542,58.40611,10.71495,-49.41393,-108.065,-147.3052,-152.8265,-121.026,-61.51424,6.575522,62.75123,93.68231,97.92472,84.86638,68.92914,62.21605,69.0899,84.76648,97.97955,96.15,70.91833,22.13834,-40.92313,-101.7164,-141.539,-146.3062,-112.5599,-49.97145,21.51319,79.44673,108.4688,107.058,87.61987,69.28798,66.85684,81.83233,100.8981,103.2168,72.93846,9.966893,-67.40496,-130.0439,-152.049,-123.8361,-57.08049,21.19171,82.11598,108.7327,102.7022,80.83583,64.01014,64.97926,81.75254,99.64469,100.16,71.39377,14.38941,-57.32731,-123.9522,-167.5658,-178.2467,-156.0012,-108.8894,-49.28692,9.77406,57.28253,86.10458,94.35938,86.07794,70.32205,58.12393,57.76879,70.34333,88.06955,97.01957,83.62231,42.12367,-20.82912,-87.2357,-134.4897,-144.9478,-113.8361,-51.65376,20.18878,78.49804,107.9516,106.8483,86.4584,64.52404,56.15058,66.40733,88.03719,105.1999,101.3795,67.72357,7.951413,-62.39035,-121.9485,-152.1039,-144.2291,-102.5723,-41.78464,19.45373,65.6306,89.31825,92.11018,81.91921,68.54373,59.75333,59.28482,66.80055,78.88496,90.11858,93.96758,83.9358,55.54951,8.975646,-48.93338,-104.8383,-142.3381,-147.9263,-117.0579,-57.24818,13.82709,74.92913,109.781,113.5756,94.34299,68.5116,52.81097,56.36883,76.65113,100.9374,112.4213,98.041,54.61383,-9.187078,-75.64011,-124.3259,-139.5699,-116.2424,-61.79172,6.349468,67.19283,104.1582,111.4102,95.74927,72.90166,59.5525,64.68796,84.5253,103.9032,103.8838,72.02956,10.11009,-64.98701,-128.0143,-156.6259,-141.5323,-90.39699,-23.59938,35.73983,72.15,83.30993,78.20538,69.5891,65.37457,63.88245,55.4413,29.16022,-19.16153,-82.52256,-144.1771,-184.4077,-189.2204,-156.6841,-97.93546,-32.48811,19.88649,46.99699,48.38329,34.11564,18.94939,14.5612,23.43503,37.30281,41.0783,20.70448,-28.6651,-98.2292,-167.469,-212.1527,-215.0079,-173.9995,-103.9016,-30.00006,23.28989,43.32372,34.11394,12.67276,-1.253494,3.451346,22.96134,40.7169,36.99399,0.6378029,-63.46075,-135.298,-188.7464,-203.9523,-176.7602,-120.4058,-58.81242,-15.11694,-1.263004,-13.69463,-36.86832,-52.35843,-48.74997,-27.43605,-1.720719,10.04524,-6.190178,-52.79725,-118.3987,-181.9731,-221.2574,-221.7803,-182.6954,-116.9854,-46.04314,9.025673,35.65856,34.13565,16.15353,-1.586084,-5.813581,6.732014,27.64986,40.9616,31.10277,-8.860477,-72.64826,-142.0913,-193.9765,-209.5273,-182.3659,-121.4258,-47.4256,15.63381,50.28069,52.37325,31.84906,7.071657,-4.628904,4.215106,27.2855,47.49757,45.67387,10.72177,-53.74043,-129.7589,-192.4343,-220.7877,-206.7776,-158.0789,-93.52677,-33.89696,6.997767,26.4648,30.83628,29.24055,27.50856,25.91762,21.64939,13.58438,5.490642,4.805442,17.36511,41.52691,66.07179,74.28706,52.80482,0.4415452,-68.35641,-128.2436,-154.1447,-133.3191,-71.94637,7.422597,76.38409,113.8029,114.8653,91.64841,65.32956,54.4053,65.10561,88.70076,106.6473,100.5679,61.91007,-3.357194,-76.93953,-135.8974,-162.0282,-148.7328,-102.6545,-39.88668,21.09601,66.43884,90.90686,97.61058,94.28835,88.51438,84.41327,82.30362,80.83649,79.62337,80.17562,84.22872,90.57947,93.03076,81.79234,48.65026,-6.543155,-72.15129,-127.0944,-149.3719,-126.9954,-65.40827,13.37882,80.441,113.815,109.1615,81.0955,54.07679,47.77615,65.2347,90.80811,99.34682,71.51928,6.440531,-75.83632,-143.6374,-169.6765,-144.7954,-81.88794,-8.147608,49.56242,77.75721,80.68253,74.2515,73.93624,84.24778,96.00887,92.71037,61.79192,3.967039,-64.89591,-120.4012,-141.0392,-118.2659,-60.18516,12.59085,76.32643,113.9809,121.0372,105.3438,81.89883,65.48627,64.41668,77.62691,95.77744,105.5171,95.16222,59.72643,3.544831,-60.52894,-115.1909,-144.6416,-140.2079,-103.4358,-45.38247,17.54862,69.48388,100.2801,108.1448,98.98899,83.17793,71.16207,69.55865,78.81063,92.98367,101.7433,94.12662,63.18115,9.939279,-55.06689,-114.079,-148.0666,-144.3575,-102.6022,-35.91029,34.01669,85.95351,108.2129,103.1598,84.75489,70.31027,70.77492,84.70648,99.16015,96.97169,66.50178,8.676764,-62.28357,-124.648,-158.3805,-153.2428,-112.2333,-49.39513,16.31149,68.02774,96.1282,100.0898,87.2093,69.1476,57.49595,59.48417,74.95982,95.78941,108.4594,99.58141,62.49949,2.036486,-65.40969,-117.3648,-134.534,-109.6372,-51.34539,19.08172,77.21669,106.4355,104.9297,85.16058,66.07262,62.20028,75.46338,94.0049,98.70122,73.91438,16.86566,-59.26336,-130.1691,-170.8846,-166.797,-120.0028,-48.10893,23.76188,73.87432,92.60511,85.09583,66.89915,54.98533,58.59574,74.42538,88.49349,83.79247,49.95405,-9.955415,-79.07883,-133.3497,-152.0445,-127.2652,-67.70964,5.156734,66.69709,99.78382,101.4389,82.44159,60.4971,50.70287,58.1457,76.04953,89.88516,84.92712,53.36522,-2.193915,-69.89175,-133.2707,-177.0052,-191.4813,-175.0182,-133.6558,-79.05658,-25.13412,15.90813,37.26051,39.65141,30.72395,21.26929,19.50113,26.04148,32.5801,25.70566,-5.35327,-60.92443,-127.6166,-182.2651,-201.9926,-175.6241,-110.3367,-29.50348,37.7691,70.30683,64.61565,35.47483,7.017181,-0.8821468,16.49101,46.37912,65.94522,55.15715,8.073447,-63.45521,-135.3233,-182.5824,-190.5177,-159.9,-104.5567,-43.61473,6.878732,38.81035,51.99654,50.95841,41.43504,28.70745,17.66507,12.94924,17.63895,30.6519,44.9089,48.69402,30.94177,-11.69176,-70.12885,-124.2522,-150.9637,-135.4313,-79.5277,-2.336562,68.29276,109.0964,112.5345,89.55447,62.38015,51.37387,63.39029,88.16412,104.6257,93.33389,47.83747,-21.35009,-92.03979,-141.4433,-156.5708,-138.4138,-98.45786,-50.64776,-4.15901,38.91842,80.55607,121.5456,158.3004,184.0972,193.677,187.6036,172.7746,158.199,148.6005,140.2274,122.1785,83.14259,19.79346,-58.30745,-130.7412,-174.691,-175.5515,-134.0419,-66.04177,4.688466,57.00711,80.77263,79.26938,65.20501,53.04786,51.86136,61.86778,75.60402,82.22294,72.4611,42.20348,-6.187995,-64.52464,-120.757,-161.7698,-176.6957,-160.2808,-115.2926,-52.72789,11.02199,59.60024,82.78218,80.51328,62.71233,44.48303,38.69253,49.36383,69.22852,82.91746,74.55186,36.23851,-26.66154,-96.26529,-148.9163,-165.089,-137.9815,-76.77363,-2.915497,58.98572,91.54298,91.44808,69.64773,44.86938,33.72606,42.28777,63.23602,79.89564,74.99539,39.70953,-21.47564,-92.25494,-151.3338,-181.0668,-173.8879,-134.0363,-74.62359,-12.13205,38.99023,69.82563,78.19228,68.12817,48.29335,29.43729,20.91273,26.76662,42.94499,57.60444,55.6288,26.20727,-29.98088,-98.22384,-154.3645,-175.2734,-150.2926,-87.42341,-10.36123,52.70057,82.76581,78.76754,56.40742,37.72566,37.40076,53.76174,69.80412,63.65576,22.3962,-48.83421,-127.7319,-185.2507,-199.7054,-166.8737,-101.0224,-27.01858,31.59007,62.10638,65.56866,52.89486,37.66053,29.80722,32.87066,44.61641,59.21465,69.19814,66.85965,45.94312,4.311152,-53.12832,-113.3494,-158.0217,-170.2655,-142.6626,-82.17704,-8.593342,53.66331,86.55875,86.59705,65.58365,43.47167,37.155,51.31163,76.18233,93.22464,85.27963,45.67646,-18.28979,-88.7289,-144.9784,-171.6468,-163.3362,-124.8251,-67.88532,-6.917173,44.85779,78.0863,89.04475,80.51182,61.21559,43.12273,36.70168,45.75796,64.50217,79.0935,73.83297,39.49438,-20.43151,-89.23802,-143.1969,-161.8341,-137.3257,-78.27432,-5.908325,55.44964,88.91289,91.51668,73.79655,53.12809,44.44898,52.95464,72.04972,87.11876,82.96717,51.34034,-4.795612,-71.85643,-130.6272,-163.4181,-160.4957,-123.3582,-63.78568,0.7668046,53.52234,84.00583,90.87538,81.09466,66.06338,56.45808,57.88935,68.94817,82.13632,87.06976,74.64633,40.76661,-11.51994,-72.05708,-125.9437,-157.7906,-156.8277,-121.2397,-59.89399,9.823194,67.8968,99.34113,100.3578,79.8615,55.10503,43.00978,51.26062,73.78598,93.35719,90.45045,54.10058,-10.9026,-84.51157,-139.7923,-155.2087,-124.7198,-60.58832,12.5058,69.02692,93.99154,88.62293,67.73377,50.564,50.00294,65.70803,84.4302,87.13957,59.23439,-1.248113,-81.3399,-157.7967,-206.48,-212.228,-174.8765,-108.97,-37.47049,17.66676,43.9476,42.28775,24.94999,8.614559,5.835328,18.81285,38.33965,48.414,34.40933,-9.005097,-73.94817,-141.4105,-188.5989,-198.377,-166.613,-104.1003,-32.15363,26.24155,55.80724,54.7447,34.35783,12.76266,5.612563,18.16841,42.48208,61.14807,56.00742,17.75878,-48.15233,-122.4242,-179.471,-198.3642,-172.0918,-110.7119,-36.86273,24.28172,55.83196,55.66266,35.65245,14.37957,7.150467,18.35983,39.77888,55.25084,49.12287,14.14705,-44.8016,-112.5425,-169.64,-199.709,-194.9354,-157.994,-100.29,-37.69064,14.53684,46.09013,54.22788,44.00031,25.99906,12.14105,10.75387,22.80014,40.98812,52.52785,44.69578,10.89655,-45.54993,-111.7752,-169.8549,-203.4538,-203.709,-171.9405,-118.3926,-58.0038,-5.229322,30.08807,44.73812,41.95821,29.56835,17.05781,12.20186,17.94875,30.62093,40.54611,35.60366,6.829462,-46.20982,-113.0906,-175.0695,-211.998,-210.6799,-170.6234,-104.2228,-31.17955,29.96279,68.84691,85.54063,87.49425,83.70995,79.90858,77.33324,75.08622,73.43279,74.9834,82.47395,94.70154,104.0497,98.47943,67.97483,12.13196,-56.037,-113.4437,-136.7853,-114.1823,-52.16945,26.31387,92.47996,125.4613,121.9402,96.3905,71.83269,66.28578,82.4752,106.4869,116.0095,93.44544,36.58297,-38.99052,-106.8944,-142.4302,-133.8591,-86.84904,-20.41181,42.79489,86.38246,105.5166,105.8383,97.8736,90.8025,88.95159,92.0526,97.75932,103.8703,108.5654,108.9851,100.093,75.80315,32.64298,-25.94261,-87.75453,-134.6745,-149.7797,-125.5009,-68.36279,2.817251,64.99466,101.3681,108.7725,97.90051,86.10639,86.68772,100.6748,115.8703,113.9071,81.53651,19.8451,-53.92796,-113.3181,-134.9017,-109.5545,-46.88608,29.35184,92.38314,124.3239,123.0608,101.1271,77.7822,68.71223,78.50078,99.1636,114.8373,109.892,76.5481,18.78402,-48.77418,-106.1742,-135.4292,-127.0563,-83.54942,-18.52016,48.29323,98.44404,121.765,119.9097,104.6071,91.09203,89.66663,99.66989,109.3393,102.1834,66.89459,5.532723,-64.86678,-118.8382,-134.304,-103.6312,-37.92728,37.9914,97.49365,124.6429,120.6771,101.1341,85.49945,85.33962,97.63439,106.9619,95.14671,52.84264,-13.49316,-83.12662,-130.2922,-136.2901,-98.23856,-30.22542,43.37475,98.82642,122.8535,116.964,94.83145,74.54286,69.60462,82.75224,105.0571,120.4187,113.345,76.65133,15.81658,-51.99744,-104.117,-121.3937,-96.37072,-36.91978,36.59313,99.69016,134.1368,135.4884,114.163,89.38886,78.9388,89.76041,114.2717,134.278,130.5366,93.12234,27.34664,-47.72495,-107.3169,-131.5423,-113.507,-61.37742,5.992812,67.33414,107.1379,120.3779,112.4364,95.09679,80.84102,77.80628,86.98244,102.1928,112.5692,106.7186,77.41982,25.3947,-39.36399,-99.74399,-136.9981,-137.8648,-100.4367,-35.89761,35.21229,91.06991,117.5538,113.936,92.39289,71.37564,65.94376,79.82027,103.1899,117.466,104.8152,57.81716,-15.43744,-93.35857,-149.1839,-161.967,-125.5122,-51.57747,33.78089,99.09817,118.1679,78.69115,-13.82866,-137.9167,-262.8035,-357.6971,-400.8042,-385.3073,-320.4964,-227.7222,-132.5617,-56.09291,-8.56833,12.10728,16.75038,18.11115,24.38348,36.20792,48.40406,54.99173,54.16504,49.92852,49.17246,55.922,66.55668,69.60381,51.15828,3.471861,-68.1478,-144.6414,-200.1097,-213.4467,-178.8169,-109.2396,-30.98301,28.64362,53.85549,46.77455,24.38972,7.949713,10.68644,30.53262,51.60361,53.35936,22.28283,-40.20156,-117.5383,-185.2955,-221.8258,-216.9685,-175.0253,-111.4497,-45.73744,5.820505,34.64409,40.72286,30.65547,14.37757,1.745588,-0.4893269,8.981781,24.96436,36.84268,32.27817,2.771537,-51.11872,-117.7241,-177.2285,-209.1242,-201.0821,-154.9029,-86.31519,-18.30209,28.96206,46.61978,39.8589,23.62812,13.73787,18.07879,32.47472,43.14067,34.26942,-3.233914,-66.21655,-139.4987,-201.5653,-232.9948,-223.9275,-177.6061,-108.8349,-38.25933,15.17604,40.75272,39.1134,20.8825,1.287308,-7.111618,-0.5274071,13.97343,21.74852,8.128304,-33.12266,-94.69099,-157.0033,-196.0083,-194.118,-149.016,-75.66022,-0.05243544,52.47169,68.68018,52.82223,23.19702,1.738352,2.105418,22.52257,47.03532,54.35961,29.54389,-27.66476,-101.9143,-168.963,-206.2968,-202.3172,-159.9312,-93.61104,-22.26548,38.13865,78.93858,99.06565,102.5132,95.25938,83.34305,72.29456,66.92159,70.32972,82.0937,96.78101,104.4917,94.27367,59.48068,2.536527,-63.73892,-119.7149,-146.4354,-133.7658,-85.2483,-17.11241,48.38584,92.26378,106.4078,95.94308,75.4236,60.89389,61.77842,76.47742,93.58125,97.84892,77.89241,31.91809,-30.98149,-94.27935,-140.3815,-157.0164,-141.0832,-98.81319,-42.73162,12.94744,56.63188,82.07825,89.11528,82.65899,70.61042,61.19343,60.2227,68.8484,82.51519,91.86628,85.88798,56.65016,3.934178,-62.48627,-124.6414,-162.3333,-161.2556,-119.7197,-50.52694,23.57711,79.31284,102.9438,96.03197,73.7043,55.99222,56.5186,74.55173,94.94798,96.43411,64.08997,-0.7275909,-78.71253,-140.6423,-161.271,-131.8557,-64.6189,13.34291,73.47111,99.29466,92.92201,71.2641,54.54044,53.8191,64.71043,70.62919,53.50802,5.634999,-64.20404,-133.7293,-177.5804,-179.4005,-139.2177,-72.62335,-2.823211,49.84077,75.55603,76.74917,64.18053,50.44423,44.42395,48.80166,60.56165,73.06475,78.3011,68.87961,40.10673,-7.669919,-67.21243,-124.5909,-162.6423,-167.2508,-133.9644,-71.41824,0.9098995,60.36196,90.81741,89.63174,68.08163,44.90746,36.22845,47.07063,68.89951,84.31818,76.35843,37.52046,-25.89878,-96.06201,-151.0019,-173.495,-157.4769,-109.6078,-45.94427,14.45415,56.3203,72.99733,67.81799,51.74271,38.11493,36.39447,47.35115,62.01365,65.39973,43.94159,-6.585647,-76.68166,-145.1472,-187.3863,-186.452,-141.3915,-68.37724,6.41554,58.84713,77.65635,68.49593,49.11377,38.44762,45.67313,65.19485,80.1849,72.52884,33.58978,-30.04854,-98.78898,-148.7694,-162.4659,-135.8966,-79.35574,-12.08602,45.95621,81.31329,90.52533,79.39841,59.29092,42.33824,37.19762,46.24325,64.70071,82.02963,85.56744,65.7116,20.90278,-39.90123,-99.05628,-136.3734,-137.3175,-99.54245,-34.42862,37.45043,94.94656,124.9095,126.5949,110.0126,89.53604,76.44225,74.29396,79.14468,83.70135,82.48817,74.91263,64.77613,57.10787,54.71161,56.66308,59.48713,59.90216,57.11612,53.14936,51.12479,52.84847,57.41405,61.77199,62.82843,59.61229,54.04608,49.82584,50.16352,55.8656,64.94451,73.92971,79.97848,82.42238,82.83324,83.66511,86.40578,90.41231,93.10995,91.38091,83.28615,69.17036,51.61826,34.40583,21.05503,13.67195,12.45272,15.87561,21.34237,25.99625,27.52383,24.80841,18.2966,9.919852,2.491662,-1.296244,0.07846612,6.335495,15.4906,24.66731,31.25057,33.85199,32.68065,29.2387,25.57948,23.51099,24.03909,27.14603,31.84431,36.4183,38.83356,37.32292,31.07476,20.78088,8.715395,-1.872404,-7.931174,-7.8659,-2.241409,6.489875,15.15436,21.32373,24.29463,25.06708,25.39471,26.53205,28.46363,30.06658,30.04404,27.96316,24.6821,21.86443,20.90871,22.02158,24.08135,25.40916,24.9498,23.06281,21.35317,21.59796,24.43961,28.72391,32.0049,32.01805,28.28029,22.79304,19.25484,20.99283,28.58481,38.4442,43.30359,34.71505,6.726647,-40.75718,-100.4693,-159.0718,-201.1058,-214.3069,-194.259,-146.3702,-84.11916,-24.05214,20.43878,43.79834,49.22399,45.33947,40.3162,36.60987,29.3443,9.517278,-29.50566,-85.83354,-147.0339,-194.0326,-209.4369,-186.09,-131.155,-63.23145,-3.727071,32.98832,45.32947,43.03341,39.47646,42.37289,48.47103,45.55109,20.69649,-30.03514,-96.46314,-157.1257,-188.9842,-178.8082,-129.9273,-60.5677,5.285498,49.3784,66.68492,65.03934,57.67514,53.53649,51.34842,41.00827,11.31155,-40.84848,-105.6193,-162.9324,-191.6341,-179.971,-131.5922,-63.72062,1.36516,46.70608,67.20673,69.06941,63.09119,56.31264,47.27194,27.7481,-10.21041,-66.49129,-129.4643,-179.4737,-197.7657,-175.9843,-120.8653,-51.31599,10.64624,50.1357,65.21779,65.26192,63.10983,65.9197,70.26955,64.52791,37.11417,-14.35403,-78.72318,-134.7797,-160.9838,-146.175,-95.24245,-26.59188,37.13447,79.77259,97.82069,98.94957,94.34555,90.02151,82.67742,62.68484,22.18731,-37.01792,-101.1219,-149.4283,-164.2819,-140.0447,-85.90246,-20.84428,36.0607,74.33561,94.74523,104.8591,110.9181,111.6588,98.36222,61.31447,-1.436883,-78.84605,-149.062,-188.5216,-183.177,-135.6219,-64.06483,6.358559,55.2291,75.27292,73.40478,64.42805,61.36233,67.86594,76.6562,74.30807,49.41914,-0.3739654,-66.03296,-130.3118,-174.6479,-186.4029,-163.3314,-113.7147,-52.56,4.2807,45.58703,67.78767,74.51801,73.1269,69.82829,65.83331,56.51325,34.25594,-6.194893,-62.67384,-123.7998,-172.0448,-190.7282,-171.712,-119.8006,-51.30046,12.8715,56.19964,73.18901,70.31117,61.03277,57.79593,65.27956,78.33987,85.32185,74.60303,40.79583,-12.34633,-73.24651,-126.8532,-159.744,-164.0119,-139.0261,-91.18433,-32.11314,24.29361,65.67735,85.09815,83.60704,69.94101,56.65867,53.84038,63.26167,76.397,78.07328,54.59887,2.379463,-67.81704,-133.879,-171.7474,-166.6476,-120.3071,-50.22099,18.72017,65.86085,83.5526,78.63322,66.26341,59.9344,63.34984,68.62857,61.57018,30.85388,-24.00428,-90.27541,-146.5296,-171.7819,-154.8071,-99.22984,-22.13959,52.98287,105.7708,126.7281,119.9725,99.94419,83.68739,82.22791,95.04468,110.29,110.8643,83.61043,27.20735,-45.31639,-111.089,-147.0941,-140.4839,-94.40092,-26.33794,40.15105,86.14722,105.0233,103.3453,94.99047,92.07413,97.79792,104.9891,100.7891,74.5828,24.72729,-39.38806,-100.7216,-141.3773,-149.4408,-122.978,-70.05224,-5.433856,54.35476,95.98479,113.0305,107.6209,89.45274,72.02571,66.88541,77.8951,98.31438,112.8487,104.6764,64.62754,-2.153703,-76.14212,-130.9587,-145.3122,-113.3714,-47.90525,25.75551,81.94801,106.549,102.1221,83.77686,68.49314,64.35723,66.05133,59.08736,30.05761,-23.37396,-88.77824,-143.8389,-167.0961,-148.5795,-94.59758,-24.38791,39.18314,79.76701,93.45371,88.12615,77.44856,73.13711,79.35979,91.45199,98.81705,90.18861,58.91811,6.440053,-57.12787,-115.4628,-151.0659,-151.4915,-114.6483,-50.7539,20.58127,77.71603,105.9427,103.821,83.3437,63.27306,58.68349,72.19282,91.90926,97.71867,72.87222,14.62175,-62.20101,-131.0452,-166.1132,-154.8331,-103.6107,-33.86893,29.22289,68.91172,83.23411,82.48117,79.90705,81.71271,82.54221,69.23999,30.5159,-33.46655,-107.6482,-167.3094,-189.4807,-164.4048,-100.7999,-22.00743,44.92472,81.5018,85.11806,68.06481,49.27762,43.57963,54.08366,71.36449,79.26328,63.86194,20.91794,-41.67965,-107.1194,-156.4929,-175.888,-160.8355,-116.8717,-56.73515,4.20007,52.5603,80.44341,87.08004,78.4232,64.65986,56.1213,58.73924,70.82108,82.91234,81.49148,55.47694,2.762494,-66.57264,-132.5977,-173.048,-172.8918,-131.4043,-63.0505,8.589913,61.13055,82.94341,77.28524,59.03241,45.85562,48.476,65.0243,82.28217,82.98699,55.31681,-0.2756186,-70.19847,-133.068,-168.5445,-165.4967,-125.9751,-63.65435,2.100148,53.71667,81.36486,85.29465,74.12189,60.13603,53.63349,58.439,70.26994,78.57854,71.25788,40.47715,-12.7401,-77.29852,-135.1116,-167.6064,-163.1304,-122.0616,-57.15827,11.30213,63.66347,88.73021,87.71761,72.4343,58.52902,57.03776,68.39057,81.93681,81.4147,53.82611,-2.641067,-75.75019,-143.1977,-181.9119,-178.3759,-134.9915,-69.20253,-5.589484,35.29578,45.85524,33.63248,15.678,8.108494,16.49871,32.40152,38.04961,16.82154,-36.21547,-109.5839,-179.3417,-219.8578,-215.8432,-169.3624,-98.31687,-27.47176,23.00415,45.50348,45.78324,37.08952,31.62821,34.36856,42.20013,47.99425,46.32375,37.07088,25.00555,16.19771,14.04317,17.56373,22.80709,25.9934,26.02759,24.70544,24.74971,27.36246,31.19268,33.4313,32.09642,27.68612,22.89822,20.61489,21.69558,24.30406,25.35956,23.07362,18.63929,15.66159,17.54571,24.63319,33.2331,37.50477,33.17897,20.70247,5.586977,-4.545336,-4.582689,4.570648,15.77413,18.91328,5.791625,-26.03165,-72.31096,-124.1173,-171.2329,-205.0509,-219.9751,-213.6171,-186.7168,-143.3381,-90.90838,-39.12558,2.708358,29.05052,40.22184,41.50105,39.16643,35.63799,26.99383,5.104915,-36.19671,-94.449,-155.9416,-199.7982,-207.4827,-172.7869,-106.4332,-32.04768,24.88556,49.26509,43.01655,22.40341,7.611263,10.68292,28.80872,46.76233,46.86381,20.46769,-25.80355,-72.65468,-97.93584,-88.03371,-44.53695,17.14246,75.88702,114.9101,128.3628,121.6568,106.3736,93.36086,87.91988,89.10119,92.43764,93.71568,91.3916,86.68216,82.00015,79.23407,79.00501,81.01225,84.7674,89.92181,95.9773,101.8471,105.8896,106.6408,103.796,98.66531,93.62874,90.80676,90.78913,92.28632,92.97251,90.99617,86.15598,79.97862,74.66162,71.61964,70.60557,69.98228,67.93031,63.75925,58.44858,54.07508,52.51722,54.27186,58.10942,61.73328,62.99241,60.91517,56.0278,49.89639,44.28263,40.41766,38.7098,38.87263,40.23417,42.00556,43.44314,43.97886,43.39185,41.97484,40.5355,40.11525,41.47642,44.61905,48.63203,52.02715,53.42366,52.21854,48.88039,44.70991,41.22352,39.49034,39.75006,41.42406,43.4298,44.59711,44.05083,41.50673,37.48027,33.32017,30.89628,31.806,36.22316,41.86833,43.81064,35.64293,11.98004,-28.5692,-81.34994,-135.8163,-178.3397,-196.8409,-185.3961,-146.6935,-91.09978,-32.60873,16.49511,49.75755,67.52572,74.46962,75.19244,70.52248,56.74751,28.38793,-16.9739,-74.66353,-132.341,-173.7912,-185.5343,-162.9929,-112.9063,-50.55445,6.905463,47.53671,68.4549,74.52547,73.01982,67.65634,55.81812,30.76967,-12.40527,-70.89216,-132.2359,-178.2128,-192.8217,-170.1348,-117.5542,-52.48529,5.838518,44.89069,63.06222,67.45169,66.94648,65.0797,57.19793,33.79455,-12.00433,-77.46509,-148.328,-203.6085,-224.8501,-204.8925,-151.365,-83.02312,-20.94079,20.68323,39.36864,42.68304,41.56252,42.73678,44.57676,38.49574,14.83512,-30.26398,-90.86992,-152.3271,-196.8243,-210.6641,-189.7474,-140.8635,-78.47232,-18.71181,26.5842,53.3665,65.15218,69.58742,73.57554,79.25523,82.64478,75.60053,50.26313,4.017308,-57.40286,-120.3763,-167.6425,-184.7886,-166.1993,-117.7019,-54.45325,5.178542,47.03354,66.39494,68.52727,64.29817,63.18557,67.39682,70.34035,60.44171,28.41012,-25.9279,-91.10555,-147.554,-175.7772,-165.2002,-119.1739,-53.49873,10.83897,57.02565,79.06046,82.38597,78.47495,76.66478,77.96717,74.44588,54.52925,11.20916,-51.64043,-118.6573,-168.778,-184.5797,-160.3386,-104.6496,-36.32875,24.14662,63.25153,78.88939,78.93873,75.20271,76.24941,82.81419,87.76754,80.23304,51.55059,0.2406016,-66.12015,-132.714,-182.2021,-200.6257,-182.4698,-133.0503,-67.13864,-3.895433,40.27405,58.09609,53.99331,41.13882,33.91652,39.38214,52.42615,57.88042,39.16789,-10.84774,-83.03489,-153.7627,-195.2347,-189.2994,-137.1602,-59.27004,14.91293,61.74509,74.42735,63.98555,49.90393,46.359,52.70535,54.25024,32.92385,-18.86192,-90.10222,-154.4444,-183.4398,-162.2001,-98.1194,-17.34063,49.08148,81.24157,79.36109,60.76049,47.161,50.33905,64.8763,72.18241,53.03276,0.8261483,-72.47128,-141.1703,-178.5849,-170.3218,-120.8731,-50.37854,15.99241,59.86145,76.52859,74.0959,66.40354,64.29007,69.84242,76.07321,71.42921,46.39223,-1.049761,-63.30695,-125.1074,-168.5979,-179.7823,-153.9956,-98.26608,-29.25537,32.88985,72.54337,84.92924,77.51418,65.31625,62.15984,72.37934,87.69962,91.49306,68.51971,14.92607,-57.2754,-124.2041,-160.8815,-153.1736,-104.5256,-33.93911,33.56302,78.69749,95.68562,92.33154,83.15339,79.96523,85.2609,91.64651,86.94989,61.66307,14.60219,-45.8257,-104.7844,-146.5755,-159.9935,-141.5884,-96.23428,-35.33804,26.58237,76.14925,105.1889,113.2948,107.5924,99.20464,97.49893,104.6916,113.8445,111.9352,87.04145,36.13618,-30.89749,-93.77204,-130.1809,-126.064,-82.45322,-15.19519,52.42674,100.3728,120.3071,117.6177,106.3132,99.91445,103.4386,110.7314,108.3619,83.77936,33.29153,-34.31841,-100.3621,-143.7569,-149.8924,-116.7564,-55.64852,13.72085,71.41322,105.0663,113.9047,107.316,98.82732,98.44915,107.1482,116.2251,112.0207,83.69294,30.16089,-37.43481,-99.24009,-134.6848,-131.2041,-89.54549,-23.26561,47.13078,102.4449,131.627,134.4938,119.8047,100.3086,87.25217,86.44638,96.81864,111.2863,119.3299,110.6039,78.92365,25.61808,-39.12197,-98.18274,-132.9353,-130.5173,-89.88657,-23.37963,47.65969,101.7141,126.3007,122.9066,104.9837,89.9745,89.55966,103.3416,119.2841,120.5532,94.9649,42.03461,-25.90488,-88.7622,-127.0975,-129.7454,-97.40652,-41.29845,21.81934,75.76174,109.9023,121.7019,116.4136,104.2876,96.04714,97.97627,108.4795,117.9733,112.9267,82.88602,27.31133,-41.61024,-102.4981,-133.7352,-123.6581,-76.53298,-10.77752,49.95153,88.0323,99.23646,92.10392,80.0443,71.32295,63.41058,45.42513,7.168907,-51.12891,-115.0221,-161.1461,-169.0642,-132.825,-65.18365,8.332056,62.34288,84.14751,78.70545,63.43176,56.18666,63.77103,77.72646,79.74503,53.28933,-5.481274,-83.76367,-157.2215,-201.1382,-201.5246,-160.5994,-94.48918,-25.16847,28.82874,58.5862,65.83006,59.54737,50.65589,47.25062,51.90842,61.30619,67.75533,62.10714,37.4381,-7.385784,-65.60577,-123.2879,-163.3689,-171.9629,-144.3712,-87.83716,-19.27949,41.36691,79.28388,90.51582,82.5517,69.50995,64.41119,72.41126,88.27534,99.17767,91.29804,56.97883,-0.8652574,-68.95739,-128.2726,-161.0255,-157.2043,-118.1897,-56.17146,10.31731,63.08033,90.66187,92.04581,76.17352,57.39425,48.6602,55.35701,72.55433,87.08887,83.74771,52.87086,-4.101802,-73.82798,-135.5906,-169.3391,-163.7817,-121.0074,-55.61245,11.29004,60.57684,82.46646,79.55937,64.29699,52.03332,52.91409,66.40025,81.18831,80.8407,52.65911,-4.478983,-77.43156,-143.1014,-178.1433,-169.566,-120.9231,-50.7662,16.08151,60.03959,75.08462,69.49885,58.83225,55.24446,59.51156,60.5122,42.65876,-3.000518,-70.67355,-139.8687,-184.1765,-184.3075,-138.2709,-63.03057,13.41115,65.29768,80.72645,65.64132,38.56802,19.44854,18.82103,32.93906,46.85846,43.21252,11.73774,-45.21202,-113.3799,-172.5419,-204.4755,-199.5044,-159.3789,-96.09362,-27.55314,28.31206,59.2649,62.65435,46.05721,23.991,11.39804,16.30873,35.12112,53.38529,52.59267,20.23683,-41.90344,-116.0831,-175.2771,-195.5175,-167.7186,-102.6279,-25.89495,34.42039,61.3126,56.01805,35.08634,19.18814,20.18503,33.95697,43.13386,28.12502,-19.98909,-92.23138,-164.487,-208.8945,-207.6503,-161.7558,-90.11243,-19.74989,27.30446,43.48878,36.85151,23.97379,19.15808,26.03335,35.97754,33.77913,7.061252,-45.76875,-113.1862,-174.853,-210.2115,-207.1397,-166.7306,-102.377,-33.99167,19.82689,48.3607,51.63787,38.86144,23.4275,16.71595,23.13127,38.28429,50.995,48.33902,21.75109,-28.33004,-91.33545,-149.6741,-185.0361,-185.3953,-149.8037,-88.90742,-20.89806,35.38739,67.33412,72.56131,58.61271,38.73642,25.79585,26.9186,40.95197,59.44918,70.47915,63.60243,34.16033,-14.53161,-71.7084,-122.2023,-151.1261,-148.8055,-114.3802,-56.6638,8.391172,63.10011,94.49543,99.22738,84.61777,65.01819,54.79425,61.03323,79.54742,96.41769,94.70795,63.30955,3.590303,-69.62263,-133.4949,-166.6423,-158.1311,-111.7706,-43.84817,24.32026,75.18246,100.9417,104.3808,94.9969,83.19336,75.7615,74.56335,78.10882,84.09161,90.78522,96.50352,98.06635,90.13843,66.81835,25.1815,-31.17509,-91.05925,-138.4766,-158.5314,-143.7948,-97.91574,-34.53648,28.10577,74.36776,96.83566,97.98972,87.53672,77.0585,74.62538,81.64168,92.86339,99.08333,91.09161,63.42442,16.80239,-41.30373,-98.1544,-139.0683,-151.9142,-131.4992,-82.15453,-17.11884,45.66516,90.04044,107.7896,101.5756,83.03004,66.62514,62.16512,69.60352,78.92881,75.37771,47.51702,-5.809799,-73.22627,-134.5723,-169.0641,-164.1329,-120.8905,-53.74531,15.62997,67.21903,90.5063,87.82018,71.81735,58.36529,58.17289,71.1121,86.04058,86.42703,59.30759,3.273932,-68.64671,-133.1736,-166.5334,-155.3594,-103.3265,-29.9024,38.52232,80.88054,90.80006,78.15786,61.9517,58.38627,70.85822,87.62949,88.75951,58.57428,-3.408011,-79.55011,-141.3103,-163.0208,-134.8721,-68.02059,10.98298,73.38539,101.9084,97.66843,77.05045,60.82802,61.91642,78.50291,95.92366,95.65441,66.05546,9.009055,-60.68018,-122.1433,-157.474,-158.3426,-127.583,-76.13079,-17.81672,35.16741,74.66137,96.97415,102.4786,95.16714,82.01776,71.4304,70.34515,80.81847,97.85813,110.2869,105.1022,73.77107,17.50877,-51.37478,-113.2104,-148.4439,-145.5338,-105.6596,-42.09568,25.35653,78.25959,106.2375,109.7373,98.0724,84.06109,77.86207,82.66277,93.7897,101.2658,94.48209,66.98648,19.56125,-39.43929,-96.48532,-137.0651,-150.238,-132.0847,-86.99252,-26.40925,34.5941,81.94736,106.9823,109.1316,95.81211,79.22466,70.97197,76.49635,91.84666,104.6939,99.82527,67.09502,8.162295,-61.73904,-118.7391,-140.43,-116.5588,-54.81803,21.78184,85.28273,115.9518,111.4146,86.69819,64.90054,63.44582,83.59056,109.2751,116.284,86.74114,20.74052,-61.70415,-129.8159,-157.4268,-136.0812,-78.66384,-11.74168,38.78854,60.49003,58.55517,49.5376,48.97343,60.63544,73.89709,70.64329,37.40177,-24.67143,-97.97147,-155.989,-176.0651,-150.3835,-89.42385,-16.40497,43.93842,76.23869,79.74049,66.00912,51.13592,46.91681,55.32624,68.44421,73.15131,57.90749,18.47927,-39.62265,-102.6439,-153.2331,-176.4642,-165.1518,-122.5975,-61.68507,-0.4538185,44.37949,63.48853,58.06999,38.59518,19.60669,12.82537,21.67477,39.72204,53.72104,49.82512,20.16303,-33.08331,-97.73637,-155.6772,-189.2234,-187.4103,-149.9554,-87.53831,-18.24361,38.73158,69.96764,72.71401,55.60765,34.49203,24.73997,33.37418,54.86898,73.19227,69.69997,33.33849,-32.02788,-107.3468,-165.9184,-185.3945,-158.2854,-95.56789,-21.43532,38.12646,67.07165,65.40549,46.88084,30.01748,27.5563,39.9408,55.8917,59.18783,37.65688,-10.32894,-74.765,-138.2384,-182.8849,-196.7572,-177.2101,-130.7195,-70.00146,-9.891231,36.79523,62.55952,67.05784,56.87377,42.89447,35.74542,40.8148,55.11319,67.86658,65.17573,36.97691,-16.95742,-85.1196,-147.8133,-184.8018,-183.6213,-144.712,-81.07101,-12.71706,41.35086,70.11916,73.64374,61.40438,47.14072,42.6142,52.79489,74.09259,95.97854,105.196,91.02734,49.82728,-12.7551,-82.77991,-142.1227,-174.418,-170.7496,-132.8861,-72.70899,-7.937699,44.21688,72.98421,77.27785,65.10544,49.54906,43.00399,51.89767,73.85945,98.38919,110.8918,98.76564,57.38238,-6.487075,-75.5917,-127.7854,-144.5421,-118.9806,-59.59786,12.60146,72.88343,103.678,102.2477,80.9972,59.90883,54.87271,68.22458,86.96329,90.07976,61.27203,-0.01118997,-75.72008,-136.7184,-157.0272,-127.1912,-59.37902,18.69574,77.7859,101.3727,92.42089,69.18382,52.8461,54.32888,67.90085,75.13862,56.7632,5.394086,-68.1875,-138.8888,-179.2005,-172.6534,-121.728,-46.26793,26.3192,73.68573,87.55197,75.08517,52.86581,37.29509,36.54984,47.69166,59.50502,58.84646,37.0881,-6.109087,-62.69942,-119.1557,-160.8272,-176.2507,-160.4124,-116.3549,-54.73143,8.932893,58.91212,84.65323,84.79805,67.78807,48.13937,39.52522,47.68762,66.82129,81.75304,75.43835,38.38418,-24.82083,-95.59743,-148.6471,-163.215,-132.866,-68.79008,5.196953,63.57515,90.54118,86.22269,64.72226,45.28115,41.37922,53.52401,69.38844,70.99443,44.98199,-9.462102,-79.03632,-141.736,-176.3671,-171.445,-129.4474,-64.90137,2.19663,54.26927,81.93049,85.72356,73.93637,58.11781,48.34022,49.77313,61.28344,76.08363,84.09637,75.49099,44.57423,-7.122946,-69.90007,-127.9504,-164.2657,-166.8151,-133.5324,-73.74168,-5.053568,53.24809,87.56207,94.82564,82.69947,65.07295,55.04745,58.70973,72.52108,85.37363,84.1558,60.14577,13.33742,-47.06106,-105.9077,-147.5718,-161.2344,-144.1033,-101.6899,-45.47945,10.8793,55.5466,81.55405,88.28475,81.10006,69.1415,61.76571,64.5788,76.49574,89.3086,90.55377,69.10013,21.34085,-44.98449,-111.7703,-156.7683,-162.8319,-126.0198,-58.35858,16.66817,74.25911,99.32779,92.85464,70.13892,51.67257,51.37348,68.54176,88.05906,88.95985,56.84996,-6.607702,-82.49998,-142.7087,-163.1511,-135.3547,-70.40742,6.622698,68.70789,99.052,97.41317,77.84627,59.66973,56.68826,70.18089,88.82811,95.12991,74.81657,24.65473,-44.87609,-113.0862,-157.1395,-161.2645,-123.3357,-56.039,18.01345,75.44239,101.7605,97.20039,75.7202,57.23166,56.54377,74.64637,97.31458,102.4925,73.09537,8.404035,-72.68044,-139.2126,-163.27,-134.5773,-66.42979,10.7951,65.31992,80.18148,60.82039,29.75308,11.58956,17.3899,37.80019,49.16239,28.96481,-28.70546,-107.1669,-174.4839,-200.1052,-171.2647,-99.7917,-15.62964,48.9674,75.46658,66.54861,41.60926,23.7305,26.05663,45.12694,64.14994,63.44639,31.73396,-27.73713,-98.68903,-159.2185,-190.816,-184.8712,-144.6239,-82.87757,-17.18416,35.7112,64.79567,68.03895,52.90656,33.38208,23.83412,31.83284,53.34579,73.43781,73.19269,40.06853,-23.62002,-99.18056,-158.7152,-177.9465,-148.1827,-80.93806,-2.500823,58.80475,85.91346,79.88214,57.00474,38.26582,37.27003,53.20098,72.19802,75.74204,51.0643,-1.951645,-70.48964,-134.5308,-175.1837,-181.5827,-153.7903,-101.4261,-39.47076,16.75323,55.86167,73.09954,71.04945,58.18728,45.46126,41.73336,49.70452,64.20335,74.00285,66.76131,35.03556,-19.45176,-85.4124,-145.7646,-183.8856,-189.568,-162.2749,-110.6677,-49.07885,7.377052,47.28471,65.76608,65.16998,53.61398,41.74927,38.51176,47.15771,63.20885,75.61779,71.27692,41.33236,-13.50061,-81.41399,-143.0013,-178.5938,-176.2321,-136.6121,-72.73946,-4.543883,48.99622,76.73569,78.54337,63.92196,47.1305,40.99626,51.70758,76.26441,103.378,117.6504,105.8836,63.40573,-2.215951,-72.27022,-123.2645,-136.4744,-106.4989,-44.39562,26.80256,82.54126,108.0532,104.5329,86.67791,72.86903,73.56281,84.69535,90.13322,71.91189,22.32192,-49.35471,-119.6265,-161.7549,-158.8556,-111.972,-38.98684,34.52458,87.12905,109.7868,106.9652,91.35925,76.21421,69.57947,72.67947,81.65169,90.31247,92.08324,80.92297,52.42476,5.958714,-52.80465,-111.0848,-151.819,-160.045,-130.1124,-69.66281,2.470899,64.04498,99.10819,104.5438,90.05202,71.85444,63.82431,70.86575,87.63461,102.437,103.4288,83.68649,43.21239,-11.85376,-71.25549,-122.6631,-153.7212,-154.8269,-122.7481,-63.65457,6.838825,68.22312,103.2635,106.001,84.92119,58.68728,46.03064,55.13783,78.68906,97.71961,92.36237,53.38544,-12.08129,-83.77635,-138.3282,-160.1123,-146.9903,-108.5612,-59.25183,-11.18638,29.05611,59.17009,78.03845,84.3458,78.25064,64.22427,51.5148,50.15928,64.11734,86.19492,99.34752,85.238,35.83057,-39.12407,-114.2192,-160.0877,-158.463,-111.82,-41.6851,23.5041,63.66018,76.19218,73.7656,72.74061,80.33131,89.21723,83.2528,50.41745,-5.878268,-65.15405,-99.72034,-90.32005,-37.87405,36.14053,101.1361,133.848,129.9177,103.9542,78.5802,69.63367,76.66117,84.17711,72.34145,30.1272,-37.01292,-109.1638,-161.8791,-177.9213,-154.3749,-102.1267,-39.25462,17.19878,56.82979,77.13897,81.5226,76.28181,68.24676,63.14529,64.0384,69.66534,73.68999,66.31912,38.76154,-11.08822,-74.922,-135.1533,-171.3909,-169.5223,-128.7395,-62.54374,7.061715,59.28892,83.16508,80.82023,64.33698,48.5074,43.61993,51.6948,67.15582,80.49369,82.46082,67.03363,32.79686,-16.63791,-72.72731,-122.9615,-153.4951,-153.5523,-120.2557,-61.36033,6.300863,62.86412,93.55909,94.92477,75.77634,52.27549,39.6282,44.74145,63.47691,83.48981,90.66457,75.59518,37.17134,-17.63235,-76.64288,-126.167,-154.192,-152.9176,-120.9023,-64.56154,2.153204,61.1147,96.31917,100.8554,80.79372,52.9941,36.78909,43.31626,68.36487,93.41769,95.23431,59.27599,-10.48467,-91.33052,-151.9383,-167.7549,-133.2835,-64.49854,9.872033,63.19513,83.56078,77.34175,62.27025,54.70028,58.89421,64.64754,54.41259,15.42132,-50.53466,-125.5044,-182.9983,-200.6715,-171.2219,-105.8572,-28.82247,33.86067,65.6266,65.24828,45.13036,23.57662,15.23835,24.27857,43.07368,56.53912,49.75772,15.41163,-42.15015,-107.8665,-161.5357,-185.7537,-172.9523,-128.5474,-68.73499,-13.73062,20.65397,29.31311,19.0884,4.340685,-1.006651,8.982555,28.91121,44.63168,40.50431,7.714777,-50.46797,-119.0615,-177.1427,-206.2374,-197.4698,-154.4673,-91.13992,-25.80512,25.56425,54.22124,60.16931,50.40752,35.17326,23.85319,21.89958,29.44012,41.6366,50.46063,47.37539,26.28037,-13.99583,-68.41502,-126.2551,-173.6091,-197.3886,-189.6933,-151.0211,-90.91477,-25.3974,28.29039,57.87281,60.67897,44.54377,24.14047,13.94793,20.87468,40.14477,56.91322,53.44204,18.74822,-44.0622,-116.9144,-173.5224,-191.0541,-161.1159,-94.38681,-16.15121,45.34706,71.99519,63.6293,36.52819,13.4494,10.60588,28.64613,52.49435,60.04904,34.90281,-23.87166,-100.1114,-167.8179,-203.2217,-195.2457,-149.2344,-82.74019,-16.43299,34.67114,65.38515,78.8606,81.69296,79.33401,74.47269,68.43752,63.42096,62.93203,69.55013,81.47783,90.8241,85.84002,56.81544,2.655394,-65.88736,-128.9024,-165.258,-161.997,-120.3398,-55.09016,12.19859,62.67044,87.39101,89.03197,77.95164,65.58503,59.06613,59.63121,64.65575,70.96369,76.70245,80.62766,79.95378,69.23286,42.14958,-4.086417,-64.31838,-124.3275,-164.8551,-169.6175,-133.4749,-66.22617,10.52719,72.42992,103.0231,100.6543,78.10493,55.15625,47.95716,60.65915,83.52502,98.31227,88.05166,46.23395,-19.08846,-88.14325,-137.6981,-150.784,-123.5014,-66.11168,1.698059,59.02368,91.79079,97.3784,84.17739,66.59817,57.84723,63.61101,79.34564,92.36559,87.91117,56.61149,0.02624094,-68.41802,-127.8628,-158.1878,-148.4604,-101.8114,-34.36841,31.49439,76.6142,92.86005,85.63024,69.85609,61.49453,68.75751,87.51673,103.2911,98.94907,64.31644,2.826037,-68.2989,-124.713,-145.4504,-122.3059,-63.61384,9.404652,71.98429,106.4295,109.0308,90.19075,67.98443,58.48162,67.60414,88.37441,104.6928,99.62565,64.13898,2.14804,-70.35291,-131.5274,-162.3686,-154.0032,-110.6472,-47.31254,16.42359,63.81509,86.55533,86.62429,74.01881,61.58029,59.09867,69.01025,85.32735,96.19223,89.09428,56.70127,0.9282995,-66.55339,-127.8078,-164.9068,-166.5349,-132.2225,-72.46384,-4.685455,53.20302,88.99117,99.67189,91.13333,74.5779,61.42378,58.80895,67.22048,80.78935,89.79749,84.41541,58.49128,12.34679,-46.30914,-103.8593,-144.5805,-155.8327,-132.8932,-81.38255,-15.89479,45.09325,86.15516,100.7221,93.07447,75.47946,61.79604,60.60585,71.18748,84.20544,86.61293,68.24325,26.90271,-30.25959,-89.3843,-135.0046,-155.2819,-145.4203,-108.5042,-54.04088,4.92874,55.30796,87.36835,97.46291,89.20177,72.27516,58.71917,57.60288,70.29198,88.81647,98.77254,86.07651,44.66164,-18.80538,-85.98471,-133.8137,-144.3681,-112.9632,-50.47859,21.33367,79.3455,108.7804,108.6034,90.26849,70.82895,64.0265,73.68524,92.31944,105.2323,97.86633,62.94123,4.315333,-63.86874,-122.1881,-152.987,-146.7509,-105.4939,-41.96312,25.00734,77.29774,103.909,104.4843,88.48425,70.30537,62.37388,69.24125,85.37985,97.77135,92.18591,60.30696,4.415267,-62.54357,-121.5822,-154.9513,-152.9339,-117.341,-60.44178,0.01071768,47.46061,72.26072,74.31232,61.85051,47.07491,40.46661,46.06802,59.61545,70.32684,65.70631,37.44427,-14.07898,-78.73325,-139.6719,-179.351,-186.0568,-158.2101,-104.7037,-41.28102,15.35762,53.20972,68.26909,64.55402,51.35505,39.07798,35.2296,41.72123,54.11794,63.05064,57.5696,29.71625,-21.10692,-85.86142,-147.3243,-185.5981,-186.023,-146.1092,-77.88737,-3.77081,52.77843,77.56084,71.68709,49.96507,32.15833,31.61893,47.5029,65.05556,64.10051,31.20473,-31.22209,-104.1705,-160.3386,-177.2322,-148.1308,-85.12143,-12.80171,43.80362,70.60715,69.35992,54.09968,41.77037,42.44499,54.30161,65.5114,61.36785,32.50258,-20.0014,-84.71812,-144.5253,-183.1508,-190.7048,-166.3062,-117.5069,-57.34325,-0.2710542,41.90302,63.17429,64.78783,54.37105,42.68468,38.8633,45.97519,59.01749,66.68842,56.57196,21.56596,-35.52251,-101.6368,-157.8656,-186.7459,-179.2046,-138.0563,-76.61612,-13.2601,35.52826,60.69185,62.70212,49.86775,34.00429,25.39057,28.86206,42.22524,57.29722,63.10352,50.18525,14.62238,-39.63615,-101.1394,-154.1352,-183.6539,-180.6627,-145.2738,-86.70012,-19.9631,39.28571,79.74518,97.41364,95.68864,83.00674,69.26559,62.37017,65.86824,78.03034,92.38968,99.62106,90.53307,59.6492,8.336447,-53.93567,-111.338,-146.5228,-147.1104,-111.1775,-49.00597,20.22383,75.81136,103.8651,102.736,82.88078,61.13076,52.08959,60.84394,80.54028,95.95177,91.21777,57.94268,-0.2041459,-68.41292,-126.5456,-157.0114,-151.2229,-112.1245,-52.22751,11.49236,63.52173,94.37152,102.521,93.61848,77.61182,64.86507,62.35532,70.98976,84.93376,93.43681,84.95491,52.33788,-2.915772,-69.42857,-128.8809,-162.4807,-158.5112,-117.6111,-53.11757,14.08298,64.12153,86.24689,82.62021,65.94716,52.10701,51.48049,63.36859,76.35792,74.48369,46.07028,-9.227895,-78.76372,-141.4913,-176.6391,-172.3769,-130.5353,-65.45887,2.189234,53.67393,78.89923,78.99936,64.21417,48.39799,42.62638,50.44353,66.42594,78.49442,73.10381,41.44057,-15.70895,-86.53262,-151.2552,-189.0289,-186.1903,-142.4121,-71.66962,2.94997,58.73884,82.92747,77.67149,57.79641,42.20154,43.23359,59.63554,77.01881,75.89188,43.1448,-19.18609,-92.80658,-150.6756,-169.5222,-140.9934,-75.73495,1.638085,64.03018,93.94738,90.23801,66.54872,42.85532,34.75949,45.95208,67.20892,81.79609,74.142,37.4565,-22.98922,-91.88299,-149.7837,-180.1909,-175.0387,-136.9361,-77.75768,-14.38793,36.90545,65.65656,70.28194,57.92678,41.00272,31.5848,35.88348,51.20836,66.95071,69.36811,48.14217,1.744847,-60.90483,-123.3059,-167.4922,-180.7094,-159.8423,-111.9954,-51.35685,6.034967,47.48889,67.09602,66.59997,53.81339,39.28918,32.23621,36.83403,50.16096,62.75108,62.098,38.23265,-10.73096,-75.74227,-138.5978,-178.353,-179.9825,-141.3662,-75.0273,-3.277526,51.27328,75.45341,70.6977,51.00812,34.68718,34.08455,48.71631,65.43159,65.65656,36.00593,-23.27387,-96.54019,-158.7988,-186.7296,-169.3183,-112.9256,-38.35799,28.53494,68.15188,74.9497,58.26873,36.14436,25.44722,33.28356,53.74192,71.31001,69.02303,37.25795,-21.01646,-90.82995,-151.1039,-182.9664,-176.7538,-134.9463,-70.29205,-0.4918045,58.06641,95.12,108.5708,103.6824,90.24451,78.8069,76.98092,86.6527,102.9017,115.2728,111.5341,83.0304,29.67864,-37.85078,-100.4938,-137.5055,-135.033,-92.64272,-24.33961,46.93972,99.14195,120.5703,114.2837,95.12695,80.88831,82.20827,96.57976,109.6481,103.1308,65.17764,-2.251231,-82.80776,-152.2197,-188.519,-181.0916,-134.4587,-65.54342,3.791155,55.25206,80.09523,80.6019,67.20796,53.0337,48.13776,55.49735,69.92252,80.19005,73.76128,42.57715,-12.23281,-78.90982,-138.1353,-170.012,-162.3405,-116.4435,-47.44429,21.69804,69.96108,87.24713,78.0877,58.09484,44.92939,48.48372,65.46731,81.2571,78.01329,44.74418,-15.98431,-88.11388,-148.7832,-178.1389,-167.4411,-121.8586,-57.20718,7.160775,55.72417,81.32822,85.67406,76.55307,63.72628,55.25343,55.23589,63.07381,73.93047,80.17317,73.67249,48.69812,4.685807,-52.24124,-110.0164,-153.8802,-171.2256,-156.2158,-112.2247,-50.94798,11.5688,60.45158,86.911,90.69695,79.26175,64.09151,55.66933,58.99638,71.37769,83.37339,82.7055,59.75187,12.51322,-51.11043,-115.0064,-160.2165,-172.0497,-146.0133,-89.91576,-21.04278,40.52358,79.59103,91.2133,81.47784,63.59911,51.31121,52.62283,66.59294,84.23048,92.76762,81.27721,45.36285,-10.68811,-74.81509,-130.6959,-162.7509,-161.1888,-125.574,-65.59135,1.67254,57.44536,88.14806,90.66396,73.40956,52.21173,42.42599,50.87165,71.71368,88.80949,83.87212,46.61783,-18.32543,-91.66296,-147.2194,-163.71,-134.6831,-71.58811,1.647473,59.79789,87.62654,85.65533,67.76769,52.27384,51.36897,64.53654,79.17908,77.88939,48.38874,-9.040691,-80.32877,-143.0962,-176.0764,-168.0209,-122.1305,-54.3017,13.67741,62.82085,83.82131,79.45851,61.8844,46.22672,43.32111,54.65541,71.66488,79.76326,65.49629,23.77656,-38.12478,-101.9686,-145.194,-150.2343,-112.4161,-42.67384,36.51466,100.425,132.47,130.826,108.1094,84.25692,76.08758,88.71402,113.0441,130.5839,123.1157,82.42358,15.30383,-58.53566,-114.6057,-133.9095,-110.6603,-54.15934,15.64938,76.63275,113.1142,121.133,108.4703,89.84024,79.5491,84.75779,102.1214,119.1965,120.1333,93.38905,38.1786,-33.36563,-99.78146,-138.55,-135.6802,-92.17819,-24.06573,44.51404,92.06538,109.1471,101.566,85.5756,77.57198,83.94354,96.89644,98.93353,73.7776,17.656,-55.7201,-119.9016,-148.167,-127.1973,-64.43021,15.14276,81.26804,113.2392,109.2396,85.2674,64.47942,63.13697,81.11054,102.2222,104.0925,71.82388,7.793168,-67.90424,-126.6126,-144.9071,-115.7565,-51.42691,22.96331,81.49368,108.8217,105.4751,85.12729,66.04951,61.44916,73.37852,92.60744,103.8369,93.31237,55.33702,-4.902688,-72.93397,-130.0643,-159.8786,-153.8881,-114.4691,-54.10056,8.91103,56.86723,78.98456,75.10473,55.1308,34.18663,25.40916,33.53979,52.36795,67.42759,62.91197,29.65469,-29.61817,-100.3672,-161.7406,-194.9897,-190.9231,-153.0729,-95.35833,-35.70597,11.1686,38.48986,47.91478,46.31404,41.13037,36.96009,34.86761,34.08811,34.33254,36.72345,42.53858,50.65681,55.78098,49.32665,23.32652,-24.34355,-86.38168,-146.6923,-185.7989,-188.9623,-153.1651,-89.31406,-18.16749,38.32583,66.24764,65.04906,46.48923,27.83966,22.83994,34.88257,55.62799,69.46535,61.41638,24.62389,-35.95699,-105.066,-162.8628,-192.2665,-184.9485,-143.914,-82.03598,-17.35648,33.11688,59.00623,59.68216,43.75875,25.01474,16.12654,22.69152,40.19704,55.61166,53.28938,22.76554,-35.15398,-107.1004,-171.6135,-207.5945,-202.959,-159.5552,-92.15958,-22.16278,31.02831,57.03573,57.15651,41.97654,25.5219,18.74999,25.03901,39.19016,49.97474,45.05381,16.44861,-35.3636,-100.2738,-161.0209,-198.8505,-200.5466,-164.0769,-100.2422,-29.05871,28.00384,56.72303,55.7215,36.16693,15.5647,8.628088,19.7686,40.97404,56.07926,49.16435,12.80012,-47.874,-116.9647,-174.2825,-203.1758,-196.2574,-157.0594,-97.6946,-34.1696,18.64503,50.90877,59.89865,50.1229,31.48058,15.67302,11.62891,21.44043,38.70524,50.59224,43.36881,9.218426,-48.89861,-117.0136,-175.0777,-204.9523,-197.712,-156.8585,-96.14122,-33.41484,16.2625,45.1815,53.73056,48.01313,36.28035,25.99235,22.19549,26.81496,38.19308,50.84106,56.14525,44.83123,11.01687,-43.72379,-108.6637,-166.2986,-198.515,-194.0367,-153.561,-89.87264,-22.67776,29.42015,55.98401,57.69061,44.23766,28.7671,21.75375,27.0301,41.12149,55.40384,59.68079,45.79921,10.48344,-43.01844,-104.8218,-160.2579,-193.8053,-194.3388,-159.8323,-99.25459,-30.14251,27.70363,59.91364,63.09026,45.49263,22.4788,8.934128,12.38566,29.99295,50.52242,59.93217,47.69349,11.08827,-43.89347,-104.7479,-156.4012,-185.4621,-183.7972,-150.8806,-94.43508,-28.83882,28.85954,64.56667,72.46834,57.56068,33.65001,17.09139,18.84865,38.72524,64.89158,79.32001,66.68754,22.4163,-44.13872,-112.9461,-161.4176,-173.5541,-146.0602,-89.01695,-21.32983,36.73868,70.8045,76.78754,61.31261,38.30178,23.1018,26.1269,48.23191,79.70217,103.7192,103.4641,70.22838,8.863474,-62.43965,-118.7129,-138.6463,-114.141,-54.21805,18.92684,80.00244,111.899,112.5412,94.01793,74.75985,69.13116,79.95934,97.67544,106.072,91.25536,49.04515,-12.68018,-77.30391,-126.2946,-146.0996,-132.3147,-90.08417,-31.42879,28.91896,77.72218,106.5445,113.6475,104.1098,87.88351,76.00532,75.99014,88.21151,105.1052,114.035,102.9287,66.27378,8.626618,-56.15786,-109.7933,-136.3902,-128.2824,-88.46531,-28.95505,33.90605,85.08083,115.3126,123.1437,114.2408,98.60577,86.69594,85.62278,96.53053,114.0152,127.9475,127.2659,104.4857,59.22696,-0.7284831,-61.41954,-107.0687,-125.226,-110.8237,-67.78267,-7.725757,53.6941,101.6827,126.946,128.6055,114.2496,96.70289,88.30621,94.80633,111.705,125.3985,119.4508,83.57893,20.92866,-50.70202,-105.3411,-120.5773,-88.78435,-21.66988,54.84567,113.195,137.5787,130.8147,110.725,98.11079,103.3929,119.9122,128.0494,107.8887,52.86652,-23.8957,-94.69969,-131.1607,-118.9828,-65.18642,6.233323,67.41831,100.7902,106.1894,97.45616,91.28683,95.59729,104.4999,102.6287,75.77035,21.09978,-49.14021,-112.56,-147.1291,-141.3105,-98.56852,-34.53215,30.81284,81.38232,109.7964,117.4415,111.2082,99.49876,89.45553,85.76237,90.20267,101.1794,113.3263,118.1757,106.7149,73.47822,20.39937,-41.87561,-96.60298,-126.8903,-122.4671,-84.11362,-23.5771,41.02194,92.17852,119.3008,121.7418,107.6784,89.71593,79.31396,82.23608,96.55067,113.6571,121.784,110.7118,76.12516,22.07078,-39.5005,-92.18329,-120.5346,-115.5449,-78.05419,-18.66812,45.88917,98.63177,128.1003,131.8828,116.6334,94.72794,78.98366,77.45629,90.23594,109.3904,122.1065,115.956,84.39425,30.34675,-33.71524,-89.57745,-119.7422,-114.0623,-73.77605,-11.13376,55.32158,107.8195,135.7452,138.6956,125.2053,108.0724,98.58439,102.0606,116.2165,132.5072,139.5838,127.5984,92.12624,36.70082,-26.94917,-81.55832,-109.7067,-100.4836,-54.80765,13.47226,82.15937,129.7479,144.9846,132.0147,107.8959,93.12465,99.88787,124.4941,148.64,149.3854,112.703,43.03422,-36.81352,-95.88605,-110.1482,-74.31499,-4.102743,72.14785,127.6815,149.5925,142.8417,124.6103,112.963,116.5003,130.4759,140.7238,132.3374,97.90878,41.1834,-24.93239,-83.95374,-121.6908,-129.9537,-107.5888,-59.82667,2.882146,66.21057,113.9962,131.4684,109.1799,46.19172,-49.12744,-161.2834,-271.8879,-364.0525,-425.3556,-449.0575,-434.427,-387.1167,-319.468,-249.3748,-196.2437,-174.2399,-185.4916,-217.4306,-247.3507,-253.5133,-227.817,-182.8293,-148.0123,-155.5212,-222.1899,-337.3701,-464.0001,-553.4426,-567.1594,-494.3019,-356.3987,-197.2617,-63.9249,11.48953,20.72042,-23.11114,-95.3334,-170.0132,-225.776,-246.97,-223.7379,-154.4967,-50.70849,60.38617,140.4351,153.6514,84.59318,-49.69043,-202.0499,-313.9323,-342.5031,-282.0157,-166.9908,-54.16621,7.701434,3.496601,-41.82804,-79.96088,-69.43654,-1.518212,93.76563,165.2371,171.4476,106.2419,3.392324,-82.89887,-110.2758,-74.06132,-11.03483,21.51361,-20.51195,-141.0594,-299.2913,-429.8554,-476.4169,-419.6414,-284.6686,-125.3793,4.294404,75.32458,91.86874,80.69693,70.56979,75.08717,88.63358,95.76723,85.87685,62.45544,40.98885,37.64536,57.20641,88.89085,113.1179,114.6949,93.49317,65.25831,51.65875,65.74365,102.1174,138.3291,147.0786,112.1872,38.98846,-46.91693,-111.8095,-130.0877,-95.87834,-24.36498,56.90075,121.3141,154.1235,156.1719,140.0577,122.0304,114.1552,119.9832,134.5267,147.3675,147.0947,125.6304,81.53693,21.57011,-40.29396,-86.75532,-103.2335,-83.8604,-34.52995,28.98804,87.48682,126.3677,141.2236,138.1105,128.6375,122.9918,125.04,132.104,138.8387,141.9734,142.3645,142.9087,144.1367,141.1727,125.0032,87.96691,30.09638,-38.15707,-99.3727,-137.4048,-145.7444,-130.8656,-108.3224,-93.81467,-94.61251,-106.5356,-118.1366,-119.1682,-107.7172,-91.34454,-81.54384,-85.23344,-98.97482,-109.8748,-102.8284,-69.68403,-14.65635,47.3502,98.47002,126.9922,132.5599,124.7619,116.5024,116.4959,125.3293,136.9208,143.754,142.1519,134.3073,126.2011,123.2509,126.763,133.4002,137.7305,135.9758,128.4951,119.5673,114.778,117.6181,127.1357,137.7246,140.9993,128.9356,97.20454,47.66396,-10.8524,-64.08581,-96.34948,-96.07891,-60.94425,-0.03737043,68.57382,124.5874,153.7777,153.8593,134.7148,112.6018,101.227,104.4821,114.7897,117.8739,101.1173,60.66034,3.306998,-57.49746,-108.847,-144.3126,-165.3774,-178.1909,-188.3525,-197.3678,-202.8333,-201.6378,-193.401,-181.4675,-170.7823,-164.4228,-161.5665,-158.589,-152.5072,-144.0691,-137.8433,-138.7484,-147.2398,-156.7148,-155.5654,-133.3107,-87.3159,-25.79618,35.18455,79.35835,98.24096,94.83627,80.99046,70.1742,70.13968,79.73858,91.38208,97.05206,93.72066,84.77032,76.89601,74.97408,78.59859,82.59943,81.01891,71.65387,57.96156,47.02668,44.99123,53.04912,66.64014,78.29563,82.16397,77.25227,67.43398,58.48937,54.36724,55.1662,57.95071,59.49947,58.83823,57.74169,58.99844,63.87646,70.76807,76.07262,76.69976,72.37267,66.03284,61.96966,62.93752,68.22574,74.04467,76.02175,72.18916,64.51122,57.95583,57.63598,65.70612,79.7244,93.24891,98.17858,87.63734,58.27203,11.47267,-46.44479,-104.9748,-151.2013,-172.8119,-162.0457,-119.3442,-54.83002,13.92713,67.8153,93.66351,89.83816,66.86951,42.30299,31.93048,41.71136,64.57328,83.88982,81.97186,49.28617,-10.24746,-80.41891,-139.5691,-169.5694,-162.6685,-123.3886,-65.34245,-5.171105,43.35588,72.81872,82.62897,77.3779,64.40651,51.53124,45.13679,48.50087,60.45076,74.96404,82.47588,73.12361,41.07645,-11.8366,-75.14249,-132.3605,-166.5906,-166.882,-132.6441,-74.11941,-8.632152,45.83545,77.07012,82.48946,69.04175,49.41752,36.28888,36.9387,50.34641,67.75007,76.37453,64.85197,28.27714,-29.02729,-94.15099,-149.5363,-178.8857,-172.914,-132.8086,-70.0109,-2.323472,52.29669,81.92812,84.51891,67.87809,45.8306,32.05607,34.07604,49.86794,68.58642,75.24306,57.53614,12.03894,-52.99213,-119.6414,-166.6982,-177.927,-148.8196,-88.80612,-17.74258,42.04614,74.78446,77.32968,59.50429,38.46733,29.72942,39.1135,59.61996,74.86536,67.56471,28.97263,-35.39901,-106.7871,-160.663,-177.3057,-150.5092,-90.31177,-18.51574,40.86327,71.68584,71.6893,51.83695,29.68057,20.15862,28.27974,47.02169,61.17368,55.07877,20.56733,-38.51751,-107.1101,-164.545,-192.5199,-182.087,-136.922,-71.69732,-6.371868,41.30422,62.11535,58.10294,40.64362,24.70575,21.67476,33.85078,53.12872,64.65308,54.01315,14.81578,-46.92904,-113.9018,-163.8872,-178.8383,-152.5572,-93.49178,-21.31016,41.18388,77.1841,82.0262,63.82397,38.63551,22.59896,24.62203,42.71365,65.26842,76.49596,63.58093,22.65092,-38.78047,-103.8601,-152.2487,-167.6874,-144.4281,-89.87382,-22.08728,37.20448,71.36814,75.5554,58.05336,35.33535,22.95039,26.76224,39.26501,43.35308,22.02477,-30.925,-105.1401,-176.5063,-217.6892,-211.2599,-158.5665,-79.50424,-3.114331,46.18276,59.52279,46.09591,26.19386,18.90522,31.28894,54.81659,70.68913,60.79052,18.167,-48.49105,-118.399,-168.0147,-181.1932,-155.3035,-100.9963,-36.65445,19.23338,54.25772,64.81839,55.35981,35.41059,15.94277,6.033557,10.24134,27.00747,48.63393,63.41863,59.91349,32.11995,-16.5878,-73.04523,-118.3429,-135.138,-115.1626,-63.34418,3.681967,64.31104,100.9912,107.374,90.25819,65.44559,49.53458,51.57292,68.53329,86.75456,88.704,61.93528,6.077629,-65.49563,-130.3042,-165.8551,-159.2368,-112.8523,-43.5524,24.6495,71.02493,86.87325,78.32676,61.79094,54.27271,63.58632,83.67531,97.77436,88.00195,46.38195,-18.78191,-85.01616,-125.6794,-122.9117,-76.77509,-5.615957,62.73618,104.4344,110.7027,90.7511,65.13599,53.31944,62.328,82.70271,93.95307,76.49628,23.58242,-53.29432,-128.4937,-173.7951,-171.5464,-122.784,-46.41401,29.85237,82.09667,100.1011,90.02448,69.08974,55.45496,58.55037,74.59705,89.21713,85.525,53.52813,-3.773012,-70.49905,-124.1503,-145.1253,-125.1696,-70.96767,-1.292294,60.99086,98.47025,106.005,91.75891,72.03535,62.40438,69.39628,86.88969,99.1228,89.06171,48.08911,-17.88647,-89.27272,-140.6174,-151.9177,-117.9834,-51.17443,24.0447,82.17825,108.0083,102.5546,80.79822,62.50362,61.02711,76.01451,93.78754,95.14458,66.37662,7.639273,-65.72669,-129.5929,-161.8304,-152.0118,-105.364,-39.42783,24.36526,69.70525,90.72585,91.75515,82.66176,72.97749,67.96288,68.06747,70.98525,74.20499,76.14516,75.43706,69.45539,53.84014,24.0467,-21.55201,-78.80499,-137.1709,-182.3085,-201.0941,-186.8864,-142.5711,-79.9064,-15.39471,35.5625,63.80302,68.87364,58.0843,42.78444,33.46614,35.56985,47.46544,61.2321,65.90051,51.96976,15.58887,-39.16953,-100.8749,-154.0844,-184.3631,-183.1741,-150.8546,-96.55006,-35.13132,17.78534,50.9361,60.83928,52.38636,36.38733,24.90622,26.03096,40.05694,58.76757,68.49439,56.14802,15.92816,-46.32717,-113.6168,-163.6178,-177.8312,-150.0115,-89.6448,-18.33304,39.64561,68.17989,66.12996,46.50884,28.38655,25.80282,39.70958,57.39938,59.80064,32.65728,-24.56006,-96.90807,-160.3295,-192.6626,-183.5053,-138.0446,-73.47291,-10.53748,35.07975,57.50526,60.19191,51.80186,41.42665,35.47943,36.75586,44.64981,55.37112,62.07497,55.943,29.22509,-20.17364,-84.83427,-147.7068,-187.3532,-187.1266,-143.9412,-71.56757,4.274402,57.36194,73.32877,56.27476,25.73734,5.381461,9.476782,34.67648,61.78867,66.6897,34.40135,-31.44667,-108.9987,-168.2298,-185.3089,-153.7704,-86.93205,-10.81709,48.33113,75.44994,71.6234,50.97286,31.91509,27.60894,40.12177,60.47175,73.74021,66.37434,32.37255,-23.95523,-89.31197,-145.9522,-177.663,-175.1514,-139.1284,-80.05666,-14.60424,40.07006,72.16783,79.03357,67.34187,49.60804,38.47137,41.17038,56.51164,75.52025,85.37432,74.92838,39.60664,-16.1389,-79.6459,-133.8287,-162.6931,-156.8278,-117.0004,-54.42576,12.74407,65.81887,92.57528,91.93954,73.98205,54.7757,48.15077,58.22678,76.66873,86.52626,71.18841,24.08534,-46.00713,-117.2428,-163.8972,-168.1118,-128.3006,-59.88771,11.99503,64.14316,85.30266,79.6965,62.65589,51.0977,54.07406,68.24663,80.28582,74.51809,41.62791,-15.96363,-84.42339,-143.9915,-176.7845,-173.4294,-135.9773,-76.45743,-12.13634,40.47411,70.76907,76.83139,65.16139,47.54598,36.09893,38.15229,52.94174,71.58766,80.69317,68.32533,29.8985,-28.7321,-92.58003,-142.8775,-164.2009,-150.2691,-105.943,-44.78848,16.44048,63.82916,90.39896,97.04959,90.63112,80.46164,74.76183,78.01476,89.64583,104.0962,112.3456,104.837,75.35425,24.66689,-37.78369,-95.5808,-130.585,-130.0463,-92.47889,-29.25242,39.45359,92.89586,118.4879,116.7197,99.71727,84.09583,81.72317,93.21365,107.5747,108.2359,82.34854,28.54424,-40.86348,-104.3838,-140.3665,-136.2094,-93.51653,-27.04869,41.70261,93.22613,117.1413,114.9985,97.98275,80.90884,75.20559,83.77853,99.76331,109.6484,99.58544,62.37383,2.148789,-65.54737,-118.8788,-138.3114,-115.1468,-56.02415,19.10144,85.07128,122.251,124.8376,102.6074,75.10204,61.08282,68.61191,90.89155,110.0317,106.7589,70.96877,7.633559,-64.87456,-122.9687,-148.176,-134.4578,-89.32391,-28.99531,29.21075,73.24554,98.83508,108.092,106.2309,98.77814,90.46113,85.26806,86.26627,94.31446,106.2218,114.0991,107.4536,78.00441,25.12995,-41.23003,-102.5701,-138.6105,-136.005,-94.68939,-28.48799,40.58394,91.66595,113.5421,108.2938,88.6567,70.78926,66.19944,76.64733,94.0264,104.7431,96.19672,62.44676,6.948704,-58.30322,-116.5776,-151.7172,-153.3236,-120.3031,-61.59507,6.40361,65.23441,100.8873,108.8967,95.64014,74.86662,60.69058,60.25312,69.78239,76.35013,64.80853,26.55401,-34.42475,-101.6067,-152.4315,-168.2191,-142.6583,-84.72213,-14.64277,44.9317,78.28299,82.16869,65.42749,43.45065,30.5702,33.90376,51.00658,71.68479,82.63032,72.78931,37.6269,-18.83163,-84.60163,-142.8387,-176.8157,-175.5209,-138.0702,-74.95721,-5.033201,51.23622,79.76222,78.51149,57.94819,35.6016,27.07342,37.83998,60.10917,76.58244,69.45448,30.18958,-34.93969,-106.4661,-159.8169,-175.9557,-149.474,-90.45905,-19.59319,40.83602,75.70586,81.85925,67.40597,46.57535,32.88008,33.54115,47.09103,64.54403,73.27044,62.03727,25.59572,-32.59119,-100.4439,-160.4498,-195.2291,-193.7223,-155.643,-92.12963,-21.92221,35.64463,67.92829,73.30973,60.59795,43.85865,35.22709,39.17189,50.8445,59.02285,51.91822,22.93544,-26.18202,-85.84896,-142.0663,-181.0331,-193.1728,-175.5537,-132.4417,-74.17905,-14.61428,32.60555,58.17911,60.42547,46.0804,27.59681,17.44788,21.735,36.34702,48.17588,41.51081,6.837927,-52.46878,-119.4847,-170.1281,-183.8965,-153.6812,-89.58354,-14.58255,45.9003,75.31327,72.54984,50.70531,29.0305,22.50806,34.40894,55.32483,68.65897,59.36591,21.47817,-38.96937,-106.4286,-162.0148,-190.3555,-184.415,-146.9757,-88.96224,-25.69975,27.61461,60.11684,68.23316,56.55846,36.08272,19.89641,17.60199,30.62274,50.74873,63.16219,53.15486,13.72464,-49.61167,-119.4849,-173.0419,-191.3903,-167.811,-110.8157,-40.51394,20.06325,54.60694,59.65531,44.51377,25.31917,16.381,23.07176,39.56803,52.23533,46.73212,15.27345,-39.31577,-104.3906,-162.4142,-197.5696,-201.1671,-173.8837,-124.4993,-66.22436,-12.3792,27.10072,47.61002,50.24569,40.88347,28.18805,20.76276,23.89463,36.89085,52.33714,58.2959,43.28396,2.289296,-59.0084,-124.4094,-172.5498,-185.6165,-157.5167,-97.35275,-26.06933,32.53344,62.20571,60.9538,40.68805,20.05873,14.25992,27.1029,49.35406,63.95319,55.13718,16.67861,-44.78847,-112.5651,-166.9164,-192.6701,-184.0653,-145.418,-88.33427,-27.38207,23.99519,56.47603,66.68127,57.84793,39.00007,22.12366,17.51032,28.72786,49.70417,66.16523,61.78863,26.75974,-35.51149,-107.5066,-163.9036,-182.5998,-155.1642,-91.27695,-14.60575,48.00217,78.62489,75.57747,52.43593,29.63793,23.31877,37.17873,61.26847,77.78698,70.49402,32.89995,-28.49305,-96.8632,-151.8437,-177.1105,-165.7573,-121.8644,-58.33049,7.805381,60.88416,91.34756,98.31754,89.16725,76.01797,70.21882,76.91209,92.14792,104.2385,99.18001,67.89056,11.81162,-56.07655,-115.6619,-147.695,-141.675,-99.98202,-36.45129,29.66897,81.37418,109.6972,115.4371,106.7702,94.48598,87.25508,88.72278,97.00977,106.1182,108.3211,96.74712,67.68991,22.30133,-32.78099,-86.37431,-125.4481,-139.069,-122.303,-78.46616,-18.55605,42.20169,89.48421,114.6915,117.5504,105.5013,90.16366,82.29271,87.17636,102.2397,117.8277,121.0432,101.3639,55.95844,-7.562698,-72.49123,-118.5078,-129.4867,-100.452,-40.418,30.61464,89.65612,120.3247,119.5921,98.32138,75.15942,66.66881,78.60699,102.7959,121.2667,115.6652,77.21307,12.20435,-59.73684,-113.8199,-130.7471,-104.8707,-46.21122,24.31345,83.95892,117.3271,121.6767,106.4039,87.33633,78.66329,86.09811,104.2033,118.9716,114.5261,81.07586,20.61774,-52.29075,-115.3976,-147.4555,-137.1182,-88.02158,-17.55346,50.38277,95.43638,109.0614,97.05521,75.21217,60.32878,61.13631,73.77068,84.08363,75.58379,38.90249,-22.05528,-90.45483,-143.2673,-161.1842,-137.0274,-78.83688,-6.379873,57.11991,94.2577,99.74269,81.27786,55.00785,37.76175,39.46422,58.84689,84.13699,98.36847,87.11758,45.44984,-18.87972,-87.50917,-138.206,-153.6162,-128.3752,-71.45201,-2.582548,55.79745,87.60851,89.18325,69.64724,45.55656,32.38502,36.88791,53.91549,69.09542,66.05632,34.75991,-22.93057,-92.98591,-154.353,-187.2094,-180.7602,-137.3022,-71.01914,-2.203397,50.52874,76.79118,77.21467,61.62063,43.69268,34.6012,38.29887,50.30936,60.24748,56.75296,32.64368,-11.78727,-68.47522,-124.1587,-164.6578,-179.2822,-163.9659,-122.3479,-64.64643,-4.721244,43.90568,72.03613,77.59988,66.202,48.89688,37.64453,40.01026,55.33102,74.31338,82.71195,67.86444,25.28906,-37.79585,-104.0196,-152.1643,-165.6479,-139.4292,-82.20337,-12.86387,47.16877,82.33706,88.42159,72.92856,50.55051,35.99318,37.39576,53.0722,72.6966,82.13187,69.72113,31.4563,-26.94375,-91.70521,-145.6459,-173.9981,-169.2578,-133.4061,-76.87048,-14.78426,37.96443,71.13268,81.59695,73.34161,55.28992,37.88357,29.49776,33.63747,47.61461,63.13608,68.91808,54.88449,16.79443,-40.49929,-102.962,-151.3362,-168.2502,-145.757,-89.74281,-18.56673,44.14454,79.61957,82.17764,61.29386,36.13292,25.09634,35.73014,60.38661,80.13369,75.01745,35.33592,-32.0674,-105.8557,-159.592,-173.6684,-143.817,-82.26199,-11.44095,46.10892,76.67465,79.26141,63.53431,43.75343,32.0282,33.74671,46.40098,61.40103,67.62714,55.4656,20.42288,-34.45853,-98.20826,-154.2705,-185.5474,-180.7682,-139.6444,-74.12154,-4.446178,48.75438,72.94386,68.60447,48.05345,28.63903,23.70304,35.89003,56.11406,68.5162,58.69451,21.02538,-38.34842,-103.8828,-156.783,-181.9138,-172.6685,-132.3998,-72.57091,-8.84046,43.59649,74.25105,80.24448,67.01913,46.25899,31.20149,30.75781,44.91438,63.90752,72.23838,56.18855,11.4003,-53.43399,-119.0469,-163.4207,-171.2884,-140.6456,-83.14677,-18.4213,34.55288,64.68985,71.46539,62.57812,48.74973,38.81293,37.27735,44.57032,58.52116,75.43401,90.16857,96.05836,86.00672,55.29243,5.045133,-55.78836,-111.8834,-146.5602,-148.3993,-116.2505,-60.01783,3.318668,56.50393,88.39413,97.09808,88.94364,74.40051,63.31147,61.45896,69.35561,82.86992,94.81418,96.89854,81.9754,46.5834,-6.694687,-68.2234,-122.8872,-154.5658,-152.22,-114.9733,-53.49371,13.52022,66.56075,93.04967,91.97809,73.29684,52.47041,42.95136,50.13834,69.43791,88.90626,94.86031,77.80742,36.32483,-22.24517,-84.10236,-133.2203,-156.1362,-146.0466,-105.101,-44.15882,20.28662,71.36397,97.62412,97.1394,77.97783,54.51505,40.93641,44.75612,63.35106,85.17567,95.11732,81.48198,41.3983,-17.67391,-80.73276,-130.7984,-154.738,-147.1593,-111.2949,-57.18872,1.727149,52.43807,85.58691,97.58026,91.19145,74.43969,57.81471,50.46582,56.55311,73.21838,91.2404,98.43189,84.6408,46.41242,-10.63943,-72.85445,-122.734,-144.8832,-131.5715,-85.85293,-20.99775,43.78262,89.99396,106.5512,93.86956,63.45577,32.77956,17.28641,22.99804,43.25649,61.53971,59.41978,26.03875,-35.57355,-108.686,-169.7057,-198.3961,-186.4553,-140.3204,-77.19107,-16.76733,26.82166,49.052,53.84555,49.02916,41.70412,36.03368,33.71197,35.39222,41.01213,48.43691,51.87818,42.44612,12.03284,-40.87252,-107.0062,-167.329,-200.1015,-191.1012,-141.5044,-68.57642,1.915018,47.84392,60.83989,48.76728,29.37538,19.12992,24.02015,37.73045,47.81987,45.46593,32.13288,18.63854,17.16768,31.55215,52.48799,61.38375,41.03923,-13.14102,-88.33073,-159.1306,-199.6136,-195.8566,-152.0544,-87.17946,-24.66848,18.68002,38.56857,41.48142,37.74284,34.45137,32.65372,29.68859,23.9741,18.05676,17.33727,25.28691,38.75781,47.26247,37.60482,1.665881,-57.22274,-123.4342,-174.8391,-192.5535,-169.6735,-114.5103,-46.76497,11.25715,43.97822,48.05073,31.90128,10.19653,-3.645704,-3.270044,8.87051,24.12356,32.91518,29.99745,17.17789,2.284836,-5.15047,0.5492768,17.18749,34.49075,38.33307,17.77772,-28.3814,-89.10249,-144.4572,-173.8288,-165.2406,-121.1591,-57.6725,2.76666,41.44757,51.25707,38.40984,17.53552,3.169042,2.446688,12.79618,25.3056,31.17754,27.14536,16.7643,7.279871,4.515624,9.214206,17.03137,21.86173,20.05201,12.6794,4.54274,0.7685993,3.432617,10.41597,17.08982,19.50556,16.867,11.70022,7.794185,7.477514,10.13641,12.90036,12.8759,9.279874,3.983303,0.1619803,0.06673653,3.492681,7.968399,10.46306,9.377376,5.471239,1.177909,-1.113622,-0.570886,1.76844,3.967302,4.631447,3.757785,2.446713,1.815409,2.02355,2.181399,1.195872,-1.134615,-3.674737,-4.573995,-2.568025,1.977544,7.074639,10.24501,10.04746,6.973244,3.095986,0.7143298,0.9033012,2.938688,4.942496,5.259232,3.590521,1.124088,-0.3910038,0.06356874,2.029081,3.875311,3.91252,1.524967,-2.443146,-6.272772,-8.474838,-8.642914,-7.508836,-6.247176,-5.587098,-5.373627,-4.841202,-3.326791,-0.8526981,1.8526,3.868318,4.705367,4.557966,4.022409,3.54946,3.103511,2.312318,0.9671545,-0.5828546,-1.545772,-1.306297,-0.09208819,0.8978289,0.1494144,-3.066921,-7.9149,-12.17849,-13.46327,-10.72677,-5.140958,0.3752028,2.773155,0.6849287,-4.723675,-10.44444,-13.46359,-12.59068,-9.105005,-5.792009,-4.988023,-6.906946,-9.359067,-9.07658,-3.823426,6.047422,17.58725,26.81388,30.88991,29.59409,25.24368,21.18512,19.8452,21.51558,24.52818,26.5755,26.25505,23.87366,21.08604,19.72099,20.60246,23.10195,25.62828,26.65623,25.61717,23.13371,20.54684,19.11184,19.3691,21.00799,23.18821,25.03306,25.98549,25.89012,24.87227,23.18266,21.11715,19.00536,17.18932,15.9418,15.36325,15.3473,15.66681,16.12912,16.68088,17.36971,18.18393,18.90896,19.15122,18.55279,17.07587,15.13666,13.45359,12.66387,12.94517,13.90315,14.82563,15.15128,14.84603,14.41939,14.55396,15.59404,17.24261,18.69551,19.1433,18.31442,16.69443,15.25062,14.83035,15.61612,16.99605,17.94081,17.65181,16.06769,13.91011,12.24374,11.83391,12.70267,14.1472,15.19324,15.18621,14.16901,12.83603,12.12564,12.71043,14.67494,17.52565,20.47403,22.80266,24.11975,24.41368,23.94483,23.0784,22.14999,21.39908,20.95178,20.83353,20.9912,21.3237,21.70622,21.9884,21.95119,21.25742,19.46022,16.13123,11.09377,4.658026,-2.302148,-8.546566,-12.90639,-14.77311,-14.37764,-12.68763,-10.95285,-10.13521,-10.53205,-11.7859,-13.2433,-14.40984,-15.21072,-15.90372,-16.73351,-17.59712,-17.97551,-17.20772,-14.94238,-11.46651,-7.677615,-4.685937,-3.270123,-3.504744,-4.772349,-6.1408,-6.867854,-6.740959,-6.074133,-5.40438,-5.104855,-5.154464,-5.186485,-4.755516,-3.644397,-2.022875,-0.3815065,0.7055669,0.8532321,0.04009747,-1.379798,-2.816806,-3.673724,-3.582121,-2.568449,-1.083588,0.1417589,0.3951674,-0.6661335,-2.776232,-5.083178,-6.486443,-6.167675,-4.060341,-0.9844035,1.672373,2.608323,1.273611,-1.816599,-5.311531,-7.697661,-8.064206,-6.551026,-4.238382,-2.544914,-2.468869,-4.082561,-6.542799,-8.588556,-9.239627,-8.321085,-6.549705,-5.163828,-5.306164,-7.47335,-11.2881,-15.66966,-19.29809,-21.14767,-20.86424,-18.84412,-16.0085,-13.38152,-11.66033,-10.95363,-10.79967,-10.45421,-9.307842,-7.235375,-4.691743,-2.500243,-1.433054,-1.801752,-3.280603,-5.059506,-6.249461,-6.313676,-5.2936,-3.71614,-2.257347,-1.373142,-1.109364,-1.181665,-1.242508,-1.142906,-1.018072,-1.156759,-1.755779,-2.74349,-3.791758,-4.511236,-4.692061,-4.434246,-4.077827,-3.983045,-4.304087,-4.89964,-5.431064,-5.580677,-5.252145,-4.636537,-4.112875,-4.051604,-4.633463,-5.770941,-7.157571,-8.40175,-9.178616,-9.340849,-8.965903,-8.332194,-7.830798,-7.833026,-8.545732,-9.910133,-11.5995,-13.13534,-14.08393,-14.24054,-13.70063,-12.77695,-11.807,-10.97116,-10.23107,-9.429598,-8.482349,-7.521621,-6.881986,-6.913242,-7.733648,-9.083148,-10.38994,-11.0373,-10.68948,-9.48921,-8.008231,-6.966453,-6.868318,-7.744729,-9.13433,-10.30497,-10.60189,-9.748083,-7.967274,-5.884921,-4.263535,-3.691409,-4.351817,-5.962679,-7.905447,-9.491084,-10.25323,-10.13659,-9.49067,-8.864516,-8.702389,-9.107296,-9.809242,-10.36703,-10.48725,-10.25247,-10.09656,-10.51585,-11.68531,-13.24201,-14.41193,-14.45383,-13.16093,-11.09646,-9.3716,-9.052449,-10.53146,-13.25035,-15.96421,-17.4088,-16.98068,-15.02257,-12.56016,-10.67317,-9.917517,-10.15484,-10.85648,-11.60965,-12.4223,-13.5682,-15.07374,-16.25056,-15.70161,-11.94073,-4.322622,6.29453,17.65624,27.05513,32.65705,34.46349,34.32353,34.93475,38.35692,44.87199,52.82698,59.54485,62.77833,61.89194,58.13471,53.90145,51.44458,51.7698,54.28356,57.31343,59.12578,58.85174,56.84256,54.33807,52.69968,52.64423,53.84392,55.03171,54.50357,50.77495,43.14215,31.97563,18.67989,5.335252,-5.885269,-13.35816,-16.50455,-15.93964,-13.19428,-10.0988,-8.088686,-7.740148,-8.735679,-10.24391,-11.47567,-12.10799,-12.35882,-12.71865,-13.54453,-14.78411,-15.99412,-16.62271,-16.36284,-15.35994,-14.16552,-13.48531,-13.88302,-15.5877,-18.46085,-22.07938,-25.84761,-29.09882,-31.19929,-31.69876,-30.51254,-28.049,-25.16637,-22.90116,-22.05012,-22.80284,-24.63772,-26.56821,-27.63404,-27.37981,-26.06022,-24.46211,-23.45223,-23.50914,-24.49929,-25.79835,-26.65865,-26.59686,-25.59147,-24.0195,-22.41694,-21.2325,-20.69969,-20.8516,-21.59908,-22.77897,-24.14133,-25.32718,-25.91483,-25.56856,-24.22573,-22.19818,-20.09073,-18.54365,-17.92802,-18.17106,-18.82802,-19.37279,-19.54358,-19.53375,-19.89986,-21.2211,-23.695,-26.90154,-29.88432,-31.52945,-31.06077,-28.40408,-24.23689,-19.70089,-15.91769,-13.54388,-12.57438,-12.471,-12.53178,-12.29861,-11.79036,-11.45075,-11.84994,-13.31619,-15.70033,-18.40537,-20.659,-21.87861,-21.92065,-21.08992,-19.91674,-18.85201,-18.06055,-17.42999,-16.75869,-15.98067,-15.26347,-14.90987,-15.14072,-15.91747,-16.94186,-17.84197,-18.41843,-18.77117,-19.20631,-19.968,-20.98461,-21.81532,-21.8653,-20.74922,-18.57427,-15.94283,-13.655,-12.27678,-11.83959,-11.85626,-11.64561,-10.76309,-9.278696,-7.741691,-6.872481,-7.181765,-8.734681,-11.17106,-13.91792,-16.43362,-18.34087,-19.42066,-19.55188,-18.69698,-16.9618,-14.66404,-12.30267,-10.39294,-9.245704,-8.839758,-8.895191,-9.111827,-9.405728,-9.960574,-11.03327,-12.64787,-14.42377,-15.71235,-16.00819,-15.3614,-14.4727,-14.32821,-15.55282,-17.89907,-20.26494,-21.31902,-20.39456,-18.06776,-15.96271,-15.77685,-18.04415,-21.40169,-22.91302,-19.41214,-9.216814,6.735564,25.00673,41.05263,51.21269,54.28151,51.8778,47.47196,44.63419,45.42209,49.68595,55.52039,60.48777,62.90001,62.51953,60.42564,58.25832,57.31422,57.96492,59.61159,61.10338,61.34598,59.79856,56.66714,52.7531,49.07619,46.43555,45.1022,44.76723,44.76953,44.48979,43.72063,42.79282,42.37475,43.02613,44.76157,46.89542,48.30774,48.01492,45.73412,42.10033,38.38829,35.87509,35.21129,36.15516,37.81691,39.23954,39.94498,40.11677,40.3367,41.07781,42.31887,43.53268,44.04814,43.53183,42.25327,40.96006,40.44292,41.07452,42.61174,44.36133,45.5859,45.88302,45.32294,44.31075,43.30741,42.60929,42.29153,42.2905,42.50587,42.83533,43.14249,43.24654,42.99648,42.39733,41.69228,41.28164,41.49489,42.35446,43.50723,44.40543,44.63565,44.16743,43.32735,42.50747,41.81134,40.93397,39.40681,37.06828,34.40478,32.4537,32.23538,34.0391,37.06315,39.72013,40.50583,38.90954,35.76207,32.7448,31.32196,31.7925,33.10572,33.62162,32.33899,29.74712,27.65101,27.96298,31.18637,35.59671,37.77586,34.3302,23.84675,7.923985,-9.393029,-23.51365,-31.48552,-33.24265,-31.26972,-28.96788,-28.74543,-30.93782,-34.07545,-36.17304,-36.12986,-34.36254,-32.37442,-31.6636,-32.76041,-35.00008,-37.10052,-38.0599,-37.73698,-36.75965,-35.9087,-35.48628,-35.13843,-34.23452,-32.48044,-30.27613,-28.52462,-28.01703,-28.83621,-30.21758,-30.98817,-30.29947,-28.16345,-25.44021,-23.30346,-22.5507,-23.21494,-24.69423,-26.25071,-27.4893,-28.47619,-29.459,-30.44645,-31.01624,-30.53555,-28.65406,-25.70277,-22.67347,-20.73753,-20.5897,-22.03957,-24.12593,-25.68224,-25.99738,-25.16187,-23.91209,-23.11541,-23.25496,-24.23106,-25.55206,-26.71103,-27.45702,-27.79062,-27.75929,-27.28717,-26.23126,-24.64429,-23.01179,-22.19735,-23.02179,-25.68742,-29.44025,-32.76875,-34.11924,-32.75922,-29.26641,-25.30922,-22.79712,-22.85776,-25.22814,-28.4076,-30.48538,-30.16318,-27.401,-23.35307,-19.67647,-17.64451,-17.56225,-18.76143,-20.10682,-20.66192,-20.13282,-18.88803,-17.61493,-16.87416,-16.81045,-17.14815,-17.41581,-17.22924,-16.47038,-15.29096,-13.9795,-12.79078,-11.83421,-11.06295,-10.35721,-9.645005,-9.003869,-8.683896,-9.025972,-10.29465,-12.49113,-15.25436,-17.92582,-19.78677,-20.37302,-19.70602,-18.29818,-16.90462,-16.13773,-16.15765,-16.61916,-16.91715,-16.59283,-15.6546,-14.6142,-14.20584,-14.94541,-16.78909,-19.09601,-20.9237,-21.49013,-20.55139,-18.49583,-16.12758,-14.2741,-13.43027,-13.60322,-14.3952,-15.24033,-15.65739,-15.41428,-14.56835,-13.40672,-12.33055,-11.72394,-11.82645,-12.64225,-13.92061,-15.23715,-16.16396,-16.4599,-16.1852,-15.66603,-15.315,-15.40202,-15.90346,-16.51826,-16.84124,-16.59054,-15.75304,-14.57186,-13.39481,-12.48773,-11.93019,-11.63948,-11.48425,-11.39816,-11.41371,-11.6062,-12.00186,-12.52524,-13.02157,-13.33678,-13.39355,-13.21851,-12.91596,-12.62112,-12.47285,-12.61205,-13.18002,-14.28716,-15.95002,-18.04419,-20.31653,-22.47149,-24.28528,-25.66595,-26.61801,-27.13436,-27.1196,-26.43121,-25.05017,-23.2613,-21.68077,-21.02336,-21.68785,-23.39572,-25.15975,-25.70119,-24.16196,-20.72827,-16.75856,-14.2459,-14.82824,-18.86288,-25.10476,-31.2304,-34.97904,-35.30016,-32.86512,-29.61274,-27.55701,-27.50369,-28.40315,-27.74243,-22.80453,-12.14149,3.517733,21.41817,37.91228,50.00028,56.50636,58.33539,57.75545,57.14213,57.8541,59.78423,61.72195,62.23846,60.5599,56.97163,52.60141,48.7728,46.33758,45.34161,45.1557,44.92904,44.0715,42.50877,40.63707,39.07162,38.37436,38.89115,40.6943,43.56991,46.98468,50.09219,51.88074,51.53304,48.8932,44.77316,40.81234,38.80693,39.76411,43.19881,47.17187,49.19547,47.60947,42.65907,36.56812,32.44321,32.54326,36.90607,43.20106,47.98143,48.66195,45.05162,39.49472,35.49927,35.67635,40.26056,47.12718,53.27265,56.76521,57.88187,58.68055,61.32958,66.36364,72.1118,75.73352,75.16053,70.55732,64.19885,58.74088,55.06066,51.25293,43.67277,29.50367,9.167411,-13.19392,-31.75093,-42.4171,-45.46077,-45.42963,-48.18773,-56.82909,-69.17342,-78.71147,-78.69989,-66.93405,-48.0342,-31.4358,-25.95857,-34.14445,-49.99292,-61.84037,-59.01086,-38.41727,-7.103421,21.01335,32.49974,21.69114,-6.281614,-38.41747,-60.92167,-66.28115,-56.34627,-39.95634,-26.92348,-22.19794,-23.63487,-24.33862,-17.70068,-1.763756,19.73759,39.99258,53.38232,58.52556,58.27715,56.98928,57.13822,57.66109,55.046,46.26089,31.4059,14.22588,0.1472476,-6.832985,-6.353034,-1.602316,2.880268,3.999857,1.689725,-1.601008,-2.968794,-1.157197,2.699445,6.053744,6.814373,4.743338,1.455807,-0.859846,-1.000556,0.5358042,2.125749,2.376642,1.222506,-0.04888348,0.1673048,2.483978,5.922493,8.485494,8.51458,5.877476,2.140444,-0.4118679,-0.25103,2.416663,5.814437,7.764405,7.065722,4.173248,0.7751408,-1.388807,-1.64475,-0.7144582,-0.09852505,-0.9940357,-3.491295,-6.551512,-8.704615,-8.945862,-7.235305,-4.343748,-1.251886,1.421027,3.581001,5.389255,6.857784,7.67206,7.383698,5.804218,3.270296,0.5569367,-1.510275,-2.466437,-2.366053,-1.619562,-0.6867945,0.1054269,0.5001494,0.1219312,-1.573193,-5.041912,-10.19862,-16.10329,-21.12323,-23.61594,-22.79351,-19.23513,-14.66674,-11.07703,-9.669068,-10.28914,-11.68394,-12.41247,-11.80809,-10.36184,-9.285167,-9.567726,-11.19171,-13.06224,-13.72779,-12.42153,-9.716268,-7.318133,-7.081092,-9.83495,-14.76088,-19.7189,-22.35963,-21.37938,-17.20932,-11.77613,-7.511387,-6.183298,-8.163016,-12.43868,-17.25655,-20.97232,-22.67765,-22.36922,-20.71004,-18.60793,-16.84285,-15.87118,-15.80185,-16.48246,-17.62554,-18.93077,-20.17426,-21.23874,-22.07189,-22.60725,-22.70876,-22.20826,-21.03606,-19.36036,-17.60931,-16.30539,-15.77587,-15.92355,-16.23825,-16.09861,-15.19761,-13.8106,-12.68637,-12.58379,-13.73285,-15.59656,-17.13613,-17.45511,-16.41607,-14.79425,-13.81997,-14.36131,-16.27802,-18.40426,-19.22287,-17.83808,-14.62074,-11.08566,-9.037024,-9.502231,-12.12504,-15.41136,-17.67253,-18.06425,-17.05841,-16.05517,-16.40035,-18.45641,-21.32843,-23.41202,-23.39901,-21.08595,-17.48518,-14.19222,-12.44208,-12.45265,-13.44026,-14.23482,-14.05935,-12.96579,-11.69367,-11.10761,-11.62342,-12.99148,-14.53107,-15.60062,-15.96515,-15.83638,-15.61952,-15.58554,-15.71924,-15.81313,-15.69679,-15.3967,-15.10421,-14.99437,-15.05998,-15.10014,-14.87767,-14.31462,-13.57173,-12.94629,-12.67093,-12.7753,-13.1145,-13.53589,-14.03407,-14.75427,-15.82536,-17.15396,-18.3615,-18.95582,-18.64589,-17.59194,-16.39133,-15.77662,-16.20243,-17.57671,-19.31642,-20.6911,-21.23827,-21.00367,-20.4816,-20.32405,-21.01176,-22.65456,-24.95491,-27.26494,-28.65448,-27.99603,-24.17395,-16.48054,-5.1135,8.502029,21.87446,32.20551,37.50449,37.526,33.97887,29.80186,27.80726,29.38472,33.95683,39.4669,43.59795,45.01366,43.92794,41.75658,40.13713,39.97743,41.08529,42.52142,43.34504,43.21415,42.4662,41.70546,41.2678,40.97146,40.32517,38.99523,37.15443,35.42914,34.47969,34.52545,35.17441,35.67937,35.44123,34.38256,32.93538,31.66781,30.86204,30.38248,29.94765,29.58723,29.89049,31.77972,35.88322,41.91531,48.52522,53.81016,56.24077,55.46315,52.4742,49.0462,46.74438,46.11761,46.53013,46.68477,45.47667,42.6468,38.88301,35.38786,33.24137,32.94024,34.31973,36.77381,39.55098,41.94409,43.36435,43.40881,42.00613,39.57053,36.99001,35.32203,35.27745,36.78321,38.94831,40.52313,40.62444,39.25897,37.28495,35.80779,35.41233,35.77691,35.96787,35.23352,33.7257,32.57218,33.16653,36.09766,40.47889,44.22417,45.21086,42.63456,37.65736,32.85351,30.72979,32.22882,36.17633,40.05073,41.58985,40.19268,37.20541,34.91874,34.97226,37.25787,40.06893,41.38433,40.37385,38.03576,36.45902,37.15999,39.62945,41.16018,38.21779,28.58716,12.97085,-5.014082,-20.51922,-29.8729,-32.31469,-30.07804,-26.85909,-25.66447,-27.33121,-30.50891,-32.93963,-33.0997,-31.14158,-28.62734,-27.36576,-28.20485,-30.56824,-32.96078,-34.01421,-33.33729,-31.64759,-30.18738,-29.90061,-30.9278,-32.6914,-34.40105,-35.55534,-36.09526,-36.18398,-35.87994,-35.01737,-33.39655,-31.10468,-28.6532,-26.76482,-25.92545,-26.03225,-26.42215,-26.30235,-25.29004,-23.67801,-22.2217,-21.59447,-21.90542,-22.64588,-23.1162,-23.02916,-22.83109,-23.46514,-25.69428,-29.44142,-33.61718,-36.61523,-37.19561,-35.21118,-31.71563,-28.38002,-26.58806,-26.75978,-28.28489,-30.04096,-31.10423,-31.19275,-30.60743,-29.81486,-29.03433,-28.14677,-26.95785,-25.56187,-24.47094,-24.36339,-25.59876,-27.85332,-30.16856,-31.42358,-30.95436,-28.92603,-26.23367,-24.00116,-23.00162,-23.33991,-24.53611,-25.88229,-26.80249,-27.00243,-26.40782,-25.04203,-23.00688,-20.58699,-18.32531,-16.91292,-16.86408,-18.1678,-20.19145,-21.98868,-22.87616,-22.90801,-22.88059,-23.7856,-26.0226,-28.90895,-30.8947,-30.45683,-27.17386,-22.29204,-18.34621,-17.96309,-22.49381,-31.26612,-41.9057,-51.53959,-58.18042,-61.50162,-62.61263,-63.07706,-63.846,-64.78832,-65.04677,-63.9017,-61.4897,-58.85888,-57.32146,-57.54475,-59.00696,-60.2039,-59.49636,-56.06679,-50.3916,-43.94741,-38.35733,-34.51848,-32.22115,-30.45032,-28.11348,-24.71989,-20.61274,-16.67551,-13.77044,-12.28886,-12.06372,-12.61362,-13.4822,-14.41162,-15.26338,-15.81206,-15.63452,-14.23423,-11.33967,-7.162478,-2.404649,2.031261,5.465483,7.732288,9.152613,10.21041,11.15812,11.8223,11.74829,10.58095,8.417624,5.861457,3.70796,2.440678,1.872939,1.203374,-0.486444,-3.556162,-7.35809,-10.33669,-10.69654,-7.331517,-0.5232424,7.992491,15.67518,20.24777,20.6591,17.46131,12.42706,7.63291,4.493752,3.235625,3.026482,2.620097,1.107239,-1.647445,-5.069316,-8.315442,-10.76934,-12.284,-13.08439,-13.4854,-13.68411,-13.7861,-13.99747,-14.74772,-16.53848,-19.53805,-23.19482,-26.23773,-27.23187,-25.47902,-21.74088,-18.24341,-17.7959,-22.39035,-32.04299,-44.58448,-56.59977,-65.03872,-68.5918,-68.03848,-65.39846,-62.44728,-59.57355,-55.72762,-49.48324,-40.47663,-30.18732,-21.41178,-16.631,-16.25536,-17.91253,-17.3683,-10.68824,3.558128,23.33793,44.03463,60.69311,70.36337,73.25211,72.11794,70.40919,70.31239,71.85326,73.44332,73.35297,71.07358,67.69555,65.14846,64.90173,67.02659,70.21804,72.68769,73.28156,72.06985,70.07647,68.41776,67.50769,66.86431,65.61808,63.27917,60.18346,57.29206,55.50348,55.0058,55.15735,54.99425,53.99564,52.54622,51.73756,52.62508,55.45762,59.41966,63.08964,65.30032,65.82746,65.43012,65.2352,65.91506,67.23741,68.32045,68.38549,67.46146,66.49111,66.71539,68.73846,71.93729,74.67795,75.28432,73.15062,69.27328,65.78307,64.7244,66.796,70.85043,74.49335,75.42992,72.78091,67.56966,62.11929,58.73117,58.44923,60.61417,63.41741,65.05103,64.73335,63.01218,61.22812,60.5481,61.20035,62.37399,62.80194,61.61593,58.91355,55.69765,53.24581,52.33294,52.80116,53.73882,54.14511,53.64748,52.80047,52.74544,54.39164,57.59036,60.80995,61.57173,57.5097,47.55988,32.67689,15.69263,0.3191235,-10.26387,-14.60289,-13.40753,-9.057487,-4.461034,-1.828193,-1.930407,-4.129377,-7.050438,-9.464239,-10.88825,-11.63688,-12.38951,-13.61534,-15.2291,-16.66676,-17.28674,-16.80683,-15.49014,-13.98332,-12.93844,-12.67046,-13.05232,-13.66835,-14.08859,-14.0743,-13.61735,-12.86363,-12.04058,-11.46753,-11.6007,-12.98133,-15.99778,-20.53324,-25.72758,-30.10098,-32.11182,-30.9341,-27.03624,-22.17763,-18.7234,-18.57596,-22.26472,-28.69337,-35.68214,-41.00729,-43.37205,-42.81379,-40.39193,-37.43464,-34.82538,-32.73149,-30.83566,-28.81833,-26.70878,-24.87497,-23.71608,-23.33355,-23.45823,-23.68884,-23.8511,-24.18517,-25.19027,-27.21956,-30.12177,-33.20935,-35.61737,-36.8223,-36.96624,-36.74326,-36.90609,-37.717,-38.72845,-39.05574,-37.98223,-35.49297,-32.38125,-29.836,-28.778,-29.36065,-30.95391,-32.59767,-33.61016,-33.94698,-34.09579,-34.6094,-35.62865,-36.73343,-37.21711,-36.58706,-34.93684,-32.93392,-31.44003,-31.03004,-31.72521,-33.09803,-34.62956,-36.0458,-37.38492,-38.78569,-40.19739,-41.2751,-41.5792,-40.94781,-39.75548,-38.82369,-38.97966,-40.53566,-43.02768,-45.41847,-46.65862,-46.26623,-44.5694,-42.46566,-40.87949,-40.26962,-40.48526,-41.01832,-41.41953,-41.56979,-41.62186,-41.70845,-41.68685,-41.16465,-39.81837,-37.76983,-35.69797,-34.53405,-34.89005,-36.59499,-38.68333,-39.9039,-39.45253,-37.45978,-34.90409,-32.99005,-32.38879,-32.84501,-33.41643,-33.17931,-31.91974,-30.32458,-29.52249,-30.27865,-32.38806,-34.71012,-35.84832,-35.05474,-32.75202,-30.32448,-29.28001,-30.32104,-32.91249,-35.61851,-36.98099,-36.37036,-34.27503,-31.88769,-30.29974,-29.86372,-30.12557,-30.3225,-30.03985,-29.5322,-29.47636,-30.34911,-31.91471,-33.24238,-33.29358,-31.69747,-29.1607,-27.16776,-27.10886,-29.37402,-33.01111,-36.20584,-37.30914,-35.78214,-32.46454,-29.00991,-26.86,-26.42017,-26.94606,-27.17648,-26.25516,-24.30999,-22.31086,-21.32666,-21.71027,-22.79128,-23.29509,-22.21945,-19.57375,-16.4756,-14.51975,-14.81783,-17.31844,-20.83772,-23.75987,-24.95114,-24.31899,-22.70664,-21.26525,-20.75867,-21.25388,-22.33366,-23.57595,-24.87367,-26.31085,-27.68925,-28.10721,-26.02239,-19.92021,-9.270179,4.815836,19.70305,32.18935,39.84853,42.0618,40.18745,36.79687,34.41444,34.42632,36.69305,39.95643,42.70834,43.99883,43.78778,42.77565,41.93301,42.05396,43.5313,46.35185,50.17857,54.41489,58.25581,60.82113,61.43089,59.94247,56.94772,53.63581,51.30803,50.75613,51.85262,53.61122,54.715,54.22769,52.07795,49.04408,46.2679,44.61198,44.24797,44.70747,45.3079,45.64104,45.79266,46.16735,47.07262,48.381,49.5217,49.8217,48.95884,47.21646,45.35354,44.16742,44.02987,44.69624,45.49698,45.7838,45.33451,44.47203,43.83955,44.00011,45.11315,46.87867,48.73479,50.1609,50.88301,50.89909,50.36433,49.47189,48.41615,47.42778,46.79088,46.76408,47.42085,48.52358,49.55827,49.9595,49.42099,48.09319,46.53406,45.41948,45.19207,45.85995,47.06656,48.36435,49.49261,50.46349,51.42161,52.40224,53.20867,53.52335,53.18975,52.43987,51.86014,52.06092,53.2483,55.00066,56.44951,56.79658,55.84589,54.18576,52.85262,52.66803,53.67067,55.05257,55.68627,54.92847,53.15769,51.62714,51.63993,53.51497,56.01011,56.66227,52.96127,43.75667,30.09176,14.9439,1.948761,-6.235276,-9.058767,-8.126569,-6.185232,-5.650559,-7.488391,-10.99934,-14.51609,-16.50935,-16.43294,-14.86604,-12.9768,-11.73835,-11.40821,-11.563,-11.58317,-11.20244,-10.72913,-10.79822,-11.8469,-13.69453,-15.53541,-16.37777,-15.66105,-13.66,-11.40624,-10.15187,-10.68279,-12.87866,-15.77345,-18.07638,-18.85024,-17.96984,-16.1168,-14.34624,-13.49425,-13.76972,-14.73955,-15.6809,-16.05893,-15.83672,-15.44403,-15.45026,-16.16896,-17.45371,-18.8225,-19.82621,-20.42603,-21.11983,-22.70543,-25.79308,-30.3445,-35.52559,-39.99023,-42.47754,-42.40965,-40.17152,-36.91375,-33.97831,-32.26202,-31.83818,-32.03699,-31.90338,-30.76463,-28.59592,-25.99918,-23.84332,-22.7887,-22.97015,-23.98729,-25.16907,-25.93228,-26.02606,-25.55465,-24.81147,-24.06103,-23.40943,-22.81715,-22.21641,-21.62539,-21.18171,-21.08019,-21.46,-22.31489,-23.46679,-24.60778,-25.38087,-25.47385,-24.71226,-23.14117,-21.06525,-19.0094,-17.57138,-17.19672,-17.96915,-19.53386,-21.23305,-22.40589,-22.71051,-22.27969,-21.60432,-21.19923,-21.24954,-21.46607,-21.26453,-20.17601,-18.23762,-16.09996,-14.74875,-14.97284,-16.88904,-19.81667,-22.5967,-24.1885,-24.1968,-23.02239,-21.55317,-20.58393,-20.33099,-20.33203,-19.79337,-18.16285,-15.57292,-12.87274,-11.21841,-11.45961,-13.67556,-17.12734,-20.64481,-23.22519,-24.50507,-24.86152,-25.11119,-26.00088,-27.77514,-30.04681,-32.01513,-32.89098,-32.30145,-30.47177,-28.1177,-26.11509,-25.11392,-25.27044,-26.21051,-27.22905,-27.63762,-27.10486,-25.83785,-24.50989,-23.95312,-24.74453,-26.87784,-29.70241,-32.17762,-33.3469,-32.80045,-30.88521,-28.5422,-26.84,-26.45517,-27.37058,-28.95628,-30.37416,-31.06175,-31.00838,-30.66172,-30.53468,-30.77485,-30.98535,-30.43682,-28.55653,-25.39642,-21.76527,-18.9029,-17.85204,-18.87898,-21.29333,-23.79587,-25.17908,-24.99045,-23.77057,-22.72132,-22.98289,-24.93689,-27.93475,-30.62173,-31.67114,-30.5166,-27.66675,-24.43157,-22.23142,-21.88929,-23.29953,-25.63117,-27.89509,-29.50436,-30.48773,-31.25998,-32.16296,-33.12519,-33.70786,-33.51362,-32.6563,-31.89882,-32.26119,-34.2519,-37.18517,-39.07915,-37.34659,-30.02276,-16.91421,-0.01625033,17.10101,30.69069,38.33479,39.80611,36.88745,32.311,28.42774,26.31348,25.70469,25.65217,25.38651,24.8391,24.54957,25.12318,26.67772,28.69348,30.35727,31.13906,31.17428,31.16629,31.86992,33.51172,35.57122,37.09319,37.34158,36.35473,35.00199,34.47699,35.52866,37.93333,40.5663,42.0565,41.62127,39.56363,37.1032,35.64179,35.91642,37.56802,39.39238,40.12338,39.26646,37.48611,36.30932,37.32939,41.36319,48.01814,55.86641,63.07388,68.12395,70.27389,69.60962,66.78321,62.66537,58.09787,53.79103,50.29319,47.93919,46.75945,46.43108,46.36689,45.96052,44.88127,43.25065,41.57141,40.43519,40.1681,40.62646,41.2715,41.47789,40.89586,39.65775,38.31038,37.52249,37.74267,38.98685,40.8586,42.75582,44.14217,44.7409,44.58432,43.93784,43.16459,42.60766,42.51173,42.9897,44.00704,45.3812,46.80023,47.87675,48.24133,47.65971,46.14048,43.99606,41.8148,40.32609,40.16079,41.58098,44.28251,47.40817,49.82822,50.6416,49.66672,47.66013,46.04528,46.18603,48.51457,51.97713,54.18925,52.35532,44.59075,31.00123,13.93165,-2.833283,-15.58121,-22.18219,-22.85623,-19.8421,-16.18039,-14.27196,-14.94681,-17.44575,-20.19932,-21.86537,-22.02518,-21.21248,-20.38287,-20.24614,-20.89584,-21.91504,-22.80043,-23.35013,-23.74291,-24.27919,-25.01734,-25.59995,-25.42143,-24.03166,-21.49289,-18.43205,-15.73722,-14.0849,-13.60092,-13.85868,-14.20296,-14.17314,-13.75597,-13.32339,-13.32698,-13.97353,-15.08889,-16.23897,-16.99837,-17.17739,-16.87148,-16.33748,-15.81345,-15.41618,-15.16167,-15.05136,-15.12178,-15.40738,-15.86002,-16.32301,-16.62458,-16.74463,-16.92647,-17.60635,-19.16238,-21.61383,-24.48038,-26.93098,-28.17029,-27.84824,-26.2407,-24.08355,-22.15782,-20.88668,-20.19557,-19.70497,-19.10349,-18.42508,-18.02515,-18.27054,-19.17216,-20.24983,-20.76454,-20.19997,-18.67587,-16.99055,-16.20905,-17.01701,-19.2338,-21.81008,-23.3566,-22.91368,-20.51748,-17.21545,-14.51118,-13.54292,-14.47087,-16.41639,-17.98078,-18.04249,-16.38234,-13.79911,-11.67473,-11.24299,-12.96426,-16.32498,-20.13276,-23.12185,-24.54106,-24.44191,-23.55876,-22.88187,-23.15573,-24.5436,-26.59441,-28.49681,-29.48235,-29.18462,-27.79665,-25.96613,-24.48592,-23.93088,-24.40892,-25.54301,-26.69039,-27.28435,-27.12537,-26.4676,-25.85699,-25.80968,-26.50951,-27.69621,-28.8072,-29.29855,-28.95757,-28.03143,-27.09316,-26.71808,-27.15294,-28.16647,-29.1766,-29.58339,-29.12967,-28.08427,-27.13763,-27.05168,-28.2429,-30.51891,-33.1157,-35.03728,-35.53707,-34.49852,-32.51617,-30.61675,-29.74822,-30.28517,-31.81736,-33.34309,-33.7888,-32.58849,-30.02407,-27.11896,-25.12876,-24.88454,-26.33853,-28.56412,-30.21972,-30.23436,-28.3482,-25.22992,-22.11996,-20.21704,-20.143,-21.74886,-24.31772,-26.98587,-29.11283,-30.41555,-30.86052,-30.47449,-29.25688,-27.26345,-24.76394,-22.29486,-20.49358,-19.77058,-20.03046,-20.66266,-20.86412,-20.1282,-18.59375,-17.00671,-16.28185,-16.91854,-18.64317,-20.52971,-21.55176,-21.2301,-19.96087,-18.79133,-18.76511,-20.23867,-22.61108,-24.65231,-25.24751,-24.08839,-21.87905,-19.91579,-19.2979,-20.26668,-22.08972,-23.5666,-23.82852,-22.91138,-21.71258,-21.3332,-22.19865,-23.51694,-23.45535,-19.99178,-12.00335,0.008094134,13.96315,27.017,36.72413,41.97424,43.25984,42.20901,40.6881,39.95996,40.29827,41.16709,41.77979,41.67673,41.00765,40.40807,40.59077,41.90834,44.13511,46.56679,48.36307,48.94047,48.21548,46.60193,44.7854,43.41548,42.85865,43.1144,43.88932,44.76383,45.3565,45.42458,44.89829,43.8811,42.6364,41.55823,41.08414,41.54309,42.97326,45.00956,46.94217,47.98019,47.62578,45.96638,43.7023,41.84432,41.20881,41.98011,43.60741,45.11541,45.6791,45.12499,44.04977,43.46427,44.16417,46.20729,48.83339,50.89145,51.52583,50.69408,49.19518,48.17604,48.42702,49.90753,51.79982,53.05218,53.06049,52.04215,50.87135,50.48555,51.26287,52.77882,54.10211,54.42699,53.62558,52.35266,51.6415,52.2575,54.23262,56.86847,59.1849,60.50138,60.77042,60.47895,60.22871,60.32146,60.63443,60.84204,60.76905,60.58067,60.63953,61.14725,61.86588,62.18366,61.53399,59.88171,57.88628,56.53898,56.42405,57.07317,56.89682,53.856,46.56838,35.23455,21.80576,9.234633,0.1795902,-4.146526,-4.370086,-2.42724,-0.4662777,0.1727175,-0.6365537,-2.137589,-3.434086,-4.126557,-4.465232,-5.014021,-6.139995,-7.71637,-9.226483,-10.14717,-10.2984,-9.904563,-9.346986,-8.835513,-8.282625,-7.49417,-6.529222,-5.917957,-6.504264,-8.94437,-13.1678,-18.18316,-22.42032,-24.46625,-23.77335,-20.92301,-17.28631,-14.28727,-12.71414,-12.47276,-12.87365,-13.20953,-13.2166,-13.13447,-13.38366,-14.15125,-15.23053,-16.25134,-17.13144,-18.38181,-20.9727,-25.75442,-32.76608,-40.88407,-48.10801,-52.397,-52.62788,-49.14899,-43.60758,-38.14634,-34.40951,-32.88779,-32.92035,-33.27855,-32.9547,-31.69446,-30.01392,-28.76698,-28.56939,-29.43834,-30.82889,-31.99656,-32.43584,-32.12682,-31.47885,-31.04175,-31.18013,-31.89758,-32.87873,-33.68897,-33.9952,-33.68454,-32.84974,-31.68045,-30.35093,-28.96516,-27.57899,-26.26297,-25.15034,-24.43179,-24.28955,-24.79582,-25.8275,-27.03895,-27.92823,-27.98307,-26.86298,-24.54708,-21.37458,-17.95299,-14.95777,-12.91297,-12.04047,-12.23867,-13.18052,-14.46718,-15.75502,-16.80922,-17.49468,-17.75412,-17.6153,-17.22888,-16.88362,-16.94861,-17.72435,-19.26805,-21.29719,-23.25471,-24.53191,-24.75113,-23.95457,-22.59056,-21.29825,-20.60137,-20.67944,-21.3272,-22.10966,-22.60434,-22.59117,-22.09822,-21.31358,-20.44906,-19.65007,-18.99019,-18.51412,-18.26467,-18.25529,-18.41826,-18.5989,-18.63612,-18.49952,-18.38341,-18.65452,-19.6432,-21.38255,-23.47636,-25.23187,-26.03349,-25.77225,-25.05499,-25.01189,-26.7424,-30.66375,-36.12837,-41.55969,-45.09594,-45.43764,-42.47293,-37.34681,-31.93447,-27.98028,-26.34174,-26.70855,-27.9095,-28.61787,-28.06864,-26.42827,-24.6519,-23.93185,-25.04066,-27.89677,-31.55429,-34.60528,-35.79084,-34.55146,-31.26937,-27.12001,-23.59908,-21.92802,-22.58081,-25.12219,-28.42008,-31.13631,-32.28635,-31.62175,-29.67256,-27.44489,-25.92848,-25.66238,-26.56513,-28.09291,-29.61204,-30.76636,-31.63785,-32.63483,-34.20294,-36.54802,-39.53982,-42.8223,-46.03101,-48.94272,-51.46726,-53.50394,-54.81567,-55.06376,-54.02796,-51.88086,-49.29255,-47.21172,-46.35526,-46.65732,-47.01191,-45.53508,-40.31083,-30.30163,-15.98077,0.6606745,16.77248,29.6876,37.87436,41.37788,41.58664,40.48775,39.79742,40.36822,42.08954,44.23986,46.03983,47.09225,47.5169,47.76619,48.27523,49.16328,50.14537,50.6882,50.31057,48.86556,46.6581,44.33961,42.63485,42.03165,42.5827,43.9143,45.43239,46.61995,47.27847,47.58586,47.94686,48.71902,49.96669,51.38147,52.4201,52.57875,51.65583,49.85488,47.67328,45.64626,44.09148,43.00027,42.12127,41.18201,40.10796,39.11932,38.65371,39.16097,40.88503,43.72074,47.20562,50.63369,53.2434,54.43098,53.93299,51.92814,49.01085,46.01233,43.70146,42.47696,42.20064,42.28733,42.0372,41.05754,39.53036,38.14325,37.69423,38.57936,40.48849,42.52166,43.70248,43.58279,42.56038,41.6654,41.91204,43.60128,46.03553,47.86515,47.90007,45.89337,42.78454,40.20506,39.51913,40.98737,43.60183,45.72811,46.17435,44.99916,43.49905,43.31967,45.20505,48.17659,49.72386,47.00168,38.40193,24.61787,8.562337,-5.85213,-15.42835,-18.99297,-17.65165,-13.94992,-10.49163,-8.789501,-8.899903,-9.883063,-10.66093,-10.70788,-10.21329,-9.75096,-9.788728,-10.39767,-11.31588,-12.22936,-13.00712,-13.70248,-14.35761,-14.81224,-14.72071,-13.79988,-12.13239,-10.27374,-9.030097,-9.013718,-10.2503,-12.11285,-13.6485,-14.11131,-13.37287,-11.96687,-10.75079,-10.41118,-11.11884,-12.51863,-14.01132,-15.10788,-15.62625,-15.64695,-15.32833,-14.76562,-14.01184,-13.21236,-12.69346,-12.86749,-13.96377,-15.76383,-17.56311,-18.45361,-17.81094,-15.69259,-12.88806,-10.54871,-9.596528,-10.25062,-11.94927,-13.70532,-14.67088,-14.57251,-13.77238,-12.9556,-12.66541,-12.9819,-13.52419,-13.73938,-13.27148,-12.17943,-10.88881,-9.937643,-9.677788,-10.09654,-10.82738,-11.31819,-11.06152,-9.802728,-7.664289,-5.153844,-3.034143,-2.059207,-2.644761,-4.611167,-7.1632,-9.187084,-9.782591,-8.772108,-6.881622,-5.43044,-5.638765,-7.920827,-11.57843,-15.1129,-17.01167,-16.56587,-14.23779,-11.34973,-9.284137,-8.67982,-9.114013,-9.447697,-8.595073,-6.215701,-2.895849,0.2681915,2.385311,3.29802,3.588899,4.093415,5.276062,6.903157,8.219231,8.48468,7.48526,5.663923,3.801628,2.492977,1.792214,1.26655,0.3928872,-1.008705,-2.620132,-3.84689,-4.234378,-3.759514,-2.79523,-1.802946,-1.01862,-0.3936936,0.1721582,0.5235843,0.1867284,-1.306537,-3.881087,-6.572665,-7.722672,-5.722404,0.08086224,8.882694,18.68856,27.24239,33.07493,36.03578,36.99809,36.97739,36.28446,34.31906,30.14754,23.45872,15.1937,7.338303,1.939506,-0.04913997,0.6726809,2.191502,2.573549,1.058618,-1.513837,-3.323332,-2.826512,0.1698685,4.316965,7.534657,8.283895,6.475758,3.445633,1.045194,0.4760072,1.620432,3.271055,4.044581,3.329303,1.636244,0.1606605,-0.09613829,0.9815103,2.578266,3.54347,3.182409,1.695379,-0.01078608,-0.9601285,-0.728812,0.371162,1.625054,2.474477,2.881557,3.252085,4.026875,5.287508,6.68872,7.754723,8.280495,8.495271,8.837551,9.516075,10.22062,10.26262,9.09267,6.832287,4.388194,2.988161,3.394969,5.325985,7.511775,8.421885,7.217586,4.308814,1.127313,-0.7598747,-0.6284271,0.9766193,2.647154,3.079952,1.96138,0.1814908,-0.7631157,0.2258964,3.090568,6.586385,8.969981,8.936852,6.221804,1.54421,-3.953975,-9.322802,-14.05507,-17.89859,-20.51112,-21.35746,-20.0138,-16.6704,-12.38605,-8.769934,-7.173381,-7.883865,-9.902763,-11.56234,-11.67895,-10.53082,-9.985685,-12.60158,-20.17313,-32.57795,-47.63139,-62.06557,-73.07389,-79.5391,-82.2766,-83.24371,-84.26318,-86.05889,-88.1258,-89.39146,-89.15331,-87.6556,-85.96908,-85.32043,-86.34376,-88.73106,-91.44437,-93.30047,-93.53442,-92.03568,-89.20947,-85.64257,-81.8318,-78.10989,-74.72065,-71.92254,-69.99912,-69.186,-69.5866,-71.12881,-73.55556,-76.3847,-78.8591,-79.94961,-78.57117,-74.03187,-66.55013,-57.51366,-49.17633,-43.77584,-42.42968,-44.4043,-47.25406,-47.88841,-44.08681,-35.66884,-24.66025,-14.33326,-7.612613,-5.699413,-7.625923,-10.91832,-12.93657,-12.12715,-8.552946,-3.523936,1.340109,5.030634,7.580536,9.873392,13.04524,17.84328,24.23198,31.35248,37.78817,42.03247,43.05081,40.79924,36.51143,32.53121,31.59217,35.70995,45.14999,58.03759,70.94949,80.34879,84.20594,82.97573,79.37215,77.02599,