Bandpass,0,0.14891,-679.2428,6026.8018,8854.8125,7315.2378,2953.696,-1287.6252,-2908.7776,-1445.3655,1384.9108,3066.4231,2153.1563,-744.06567,-3519.7402,-4199.9521,-2396.2195,466.94061,2262.1118,1736.662,-614.89618,-2990.1892,-3652.1477,-2193.2737,226.4782,1796.3767,1406.1984,-573.27356,-2625.1667,-3243.5713,-2032.3574,53.532616,1462.9036,1205.027,-453.05066,-2236.9719,-2838.8884,-1872.5359,-113.86598,1116.6912,941.88397,-451.44095,-1994.8082,-2555.4595,-1764.5886,-252.21269,856.11584,780.96112,-359.5834,-1677.5623,-2198.1704,-1574.9716,-314.20056,633.39185,586.93842,-378.97998,-1521.8225,-2002.3295,-1501.1542,-428.85287,406.00644,404.43478,-395.25375,-1373.7129,-1808.3163,-1405.1003,-494.33911,238.06439,266.82272,-396.50671,-1235.6387,-1628.5377,-1305.9539,-532.37683,110.27822,160.83784,-390.54239,-1115.6401,-1480.1748,-1238.0663,-597.5293,-48.093262,9.9417496,-445.77478,-1059.9309,-1375.7925,-1173.4174,-620.07996,-131.31845,-56.833191,-428.35648,-950.92786,-1233.2599,-1078.4064,-619.67145,-209.07739,-150.47513,-478.91107,-945.45697,-1209.9116,-1091.9944,-695.41144,-319.90411,-234.62622,-484.02969,-866.16815,-1091.4501,-997.99347,-664.02142,-339.96814,-257.92374,-462.95642,-788.45074,-987.07928,-914.93207,-632.06384,-349.7511,-269.69437,-437.26044,-715.23743,-891.94952,-838.9295,-600.92493,-355.55133,-277.77829,-412.32132,-646.7019,-800.20276,-758.71771,-555.09399,-338.75568,-261.64325,-367.35843,-564.22479,-698.19385,-667.98779,-496.61438,-309.02249,-236.37285,-320.03479,-485.38223,-601.42767,-578.97864,-433.9678,-271.25061,-204.17175,-271.41235,-411.92633,-513.73376,-497.76456,-374.07367,-230.64005,-165.86812,-216.46774,-333.47748,-421.76672,-411.4006,-307.43689,-182.83279,-122.19223,-159.57416,-255.96951,-331.07791,-323.75912,-235.77505,-127.67019,-71.956635,-99.687149,-179.70036,-244.21014,-239.96884,-166.49562,-74.033173,-24.53116,-45.81889,-112.76661,-168.01526,-165.37502,-103.15635,-23.480356,20.4702,3.9340229,-52.386589,-99.258553,-96.038986,-40.023472,33.087971,76.740982,67.817825,22.383698,-17.784798,-16.792149,29.491962,91.880028,130.69955,125.26562,88.175797,54.645882,55.763241,95.904907,150.65646,185.88562,183.12859,152.45393,123.91116,124.70251,159.36777,207.36696,239.14211,238.17934,212.69211,188.76561,190.65753,223.10918,268.49057,300.31091,302.66202,281.25964,258.41711,256.24683,280.73743,318.18982,346.06366,349.78012,333.099,314.88708,315.23889,341.43036,383.76794,423.7276,447.77036,456.47791,462.62567,480.23676,513.18207,551.84088,580.04858,586.90375,574.62994,556.87708,548.99219,557.53876,576.57068,592.96777,596.51501,587.22791,574.81464,571.11694,581.39679,600.84363,618.54071,625.59753,621.32599,613.11346,610.48633,618.0542,632.55231,645.87054,651.43506,648.98853,644.2998,644.32037,651.70868,662.93604,671.29279,672.32184,667.42206,662.85846,664.98193,675.34662,689.45203,700.05499,702.52911,698.22461,693.31531,694.0365,701.93585,712.74976,719.79736,719.38849,714.18695,711.92065,720.2077,741.11914,769.33875,795.25647,810.86646,814.42383,810.77698,807.38605,809.02289,814.90656,820.11115,819.93683,813.86243,806.14124,802.66644,806.50391,815.45538,823.50427,825.14325,819.46027,810.98932,806.61176,810.59125,821.16895,831.11334,831.94812,819.12848,794.85223,766.80798,743.81293,731.18347,728.61981,731.55322,734.64667,734.96704,732.9165,730.75995,730.20642,730.92212,730.91748,728.27405,722.75031,716.03748,710.54138,707.67493,706.94531,706.45801,704.38708,700.28564,695.30035,691.21179,689.08447,688.54272,688.16406,686.62415,683.68579,680.284,677.66882,676.28644,675.26917,672.94897,668.04407,660.66589,652.40808,645.4201,641.07745,639.13507,637.91626,635.38873,630.40302,623.2984,615.53955,608.69727,603.48621,599.47046,595.55066,590.81311,585.11462,579.01166,573.13269,567.48828,561.24939,553.19067,542.52917,529.60455,515.93359,503.55997,494.06137,487.79034,483.78046,480.34985,476.02774,470.25958,463.50565,456.72733,450.61795,445.07025,439.20862,431.96201,422.82654,412.35721,402.08572,393.88815,389.1236,387.97565,389.3071,391.07419,391.09479,387.84473,380.9903,371.4978,361.30286,352.63385,347.17084,345.29971,345.7706,346.01483,343.15927,335.43115,323.33691,309.94012,299.88702,297.44336,304.40402,318.94565,336.11633,349.8374,355.46765,351.64047,340.46155,326.05557,312.35028,301.349,292.75708,284.95599,276.51675,267.21494,257.96161,249.86005,243.18094,237.03932,229.99051,221.07108,210.49393,199.48196,189.37752,180.70468,172.88857,164.8264,155.84233,146.23961,136.9469,128.44954,119.79708,108.52489,91.748337,67.863884,37.799164,4.9606075,-26.180738,-52.067406,-71.453217,-85.468353,-96.458199,-106.44462,-116.19804,-125.38776,-133.49234,-140.6609,-147.84454,-156.13322,-165.8656,-176.25824,-185.90501,-193.82964,-200.33226,-206.98383,-215.71208,-227.56767,-241.99557,-257.1011,-270.72906,-281.64236,-290.05228,-297.22391,-304.50711,-312.49142,-320.8313,-328.77469,-335.93683,-342.73199,-350.16739,-359.17932,-369.99811,-381.96924,-393.90955,-404.71759,-413.84116,-421.37711,-427.86703,-434.01984,-440.52988,-447.96634,-456.59244,-466.06299,-475.17197,-481.96484,-484.40491,-481.41476,-473.75031,-464.10443,-456.19971,-453.22839,-456.44836,-464.72021,-475.24615,-485.06705,-492.44135,-497.35345,-500.99081,-504.68536,-509.09683,-514.14844,-519.62427,-525.84076,-533.77063,-544.43713,-557.98755,-573.15204,-587.57404,-598.90479,-606.00739,-609.50269,-611.30353,-613.4397,-616.93127,-621.41046,-625.6723,-628.71576,-630.53668,-632.14734,-634.84979,-639.302,-645.03284,-650.73334,-655.11456,-657.75598,-659.39777,-661.51666,-665.48175,-671.81647,-679.97229,-688.66986,-696.53412,-702.64514,-706.76398,-709.22961,-710.68738,-711.81824,-713.14539,-714.91614,-717.05261,-719.20673,-720.95178,-722.06256,-722.72272,-723.48224,-724.91785,-727.17584,-729.72107,-731.53967,-731.75055,-730.25726,-727.9679,-726.3446,-726.49493,-728.38318,-730.73132,-731.76147,-730.35309,-726.85254,-722.94421,-720.59454,-720.72876,-722.53802,-723.94958,-723.03326,-719.46344,-715.05188,-712.9184,-715.72296,-723.99933,-735.60016,-746.60437,-753.17438,-753.31958,-747.63855,-738.75171,-729.87439,-723.36517,-719.9455,-718.79492,-718.25122,-716.64752,-712.93945,-707.00519,-699.64954,-692.3374,-686.65497,-683.57983,-682.84705,-682.83173,-681.22711,-676.34149,-668.32147,-659.43463,-652.95642,-651.06641,-652.94189,-654.37201,-649.47162,-633.81592,-607.30408,-574.99786,-545.2146,-525.72894,-520.09875,-526.13513,-537.33539,-546.40356,-548.82672,-544.54889,-537.0144,-530.43793,-527.11542,-526.36823,-525.53223,-522.08374,-515.37854,-506.90436,-499.04514,-493.3512,-489.54715,-485.90097,-480.59207,-473.05502,-464.36163,-456.42715,-450.64923,-446.94354,-443.81467,-439.3631,-432.50589,-423.59467,-414.07297,-405.47781,-398.49237,-392.65585,-386.84235,-380.10364,-372.27875,-363.99881,-356.16336,-349.3035,-343.26642,-337.38086,-330.92133,-323.52292,-315.29559,-306.6366,-297.94159,-289.43219,-281.17029,-273.16199,-265.40308,-257.81323,-250.14748,-242.02757,-233.14801,-223.54655,-213.7309,-204.51254,-196.59311,-190.13731,-184.60844,-178.99171,-172.28673,-163.97728,-154.20737,-143.58865,-132.80183,-122.26655,-112.0749,-102.17654,-92.624237,-83.663139,-75.586052,-68.469978,-62.011776,-55.616222,-48.70636,-41.058319,-32.932354,-24.902441,-17.486288,-10.80934,-4.5113111,2.0553095,9.4685431,17.941629,27.25053,36.894073,46.359886,55.332546,63.75169,71.740906,79.498543,87.228432,95.119453,103.32581,111.90414,120.72469,129.4333,137.54208,144.65201,150.70822,156.13338,161.72585,168.33398,176.45421,185.96202,196.13089,205.94762,214.57791,221.75446,227.89819,233.91542,240.77165,249.04646,258.67636,268.99789,279.06036,288.05341,295.64691,302.08841,308.0264,314.16287,320.92172,328.30313,335.98532,343.59213,350.94986,358.17017,365.51154,373.1225,380.85547,388.29825,395.0235,400.89545,406.21396,411.56824,417.46698,423.97928,430.64035,436.71927,441.70346,445.69064,449.41113,453.82956,459.55392,466.42709,473.58118,479.94867,484.92459,488.76129,492.43472,497.05072,503.15607,510.38297,517.64685,523.76929,528.1355,530.98828,533.20593,535.73987,539.08984,543.13617,547.39001,551.44061,555.26831,559.21326,563.64966,568.62561,573.74335,578.37512,582.06317,584.823,587.1355,589.63336,592.69678,596.23199,599.77557,602.8429,605.27985,607.38324,609.72021,612.77649,616.66595,621.07703,625.46777,629.36456,632.57593,635.21112,637.53021,639.74615,641.90314,643.87854,645.47473,646.53027,647.00104,646.99939,646.79584,646.77618,647.33295,648.69763,650.77448,653.0838,654.89612,655.53918,654.73383,652.76202,650.34375,648.27191,647.01581,646.53674,646.42773,646.27124,645.95715,645.72888,645.92346,646.60071,647.35547,647.48523,646.43005,644.18384,641.37152,638.9054,637.43378,636.95563,636.87225,636.44141,635.30469,633.69708,632.17493,631.05798,630.01978,628.17737,624.67938,619.40607,613.26251,607.78925,604.27991,602.96674,602.83215,602.21216,599.82355,595.5423,590.40991,585.85907,582.68512,580.47491,577.89661,573.66345,567.5061,560.46643,554.28021,550.23969,548.29877,547.03455,544.51227,539.49835,532.23132,524.25635,517.44946,512.87665,510.21826,508.0863,504.96802,500.1416,493.98181,487.5235,481.65698,476.53986,471.60455,466.09213,459.67746,452.72424,446.01022,440.1608,435.22543,430.69983,425.94818,420.68204,415.1257,409.74918,404.78632,399.9223,394.4097,387.55133,379.21082,369.97961,360.86765,352.71793,345.73505,339.43332,333.01721,325.91843,318.12863,310.13248,302.53195,295.65051,289.38583,283.37204,277.28577,271.04678,264.77429,258.56653,252.30795,245.67799,238.3651,230.32272,221.8651,213.52234,205.7547,198.72801,192.29572,186.16905,180.11351,174.00508,167.71262,160.93993,153.21877,144.13898,133.70073,122.53482,111.77554,102.58311,95.558136,90.396797,86.014496,81.087296,74.704208,66.757477,57.866398,48.918266,40.530895,32.757347,25.171036,17.222013,8.6076536,-0.5646069,-9.8766508,-18.844843,-27.135134,-34.643372,-41.458263,-47.795612,-53.965252,-60.350742,-67.334122,-75.138428,-83.660202,-92.429451,-100.78951,-108.24341,-114.76785,-120.87154,-127.31555,-134.63985,-142.79471,-151.13667,-158.82132,-165.3553,-170.94621,-176.40697,-182.66359,-190.18465,-198.70808,-207.44127,-215.58636,-222.82361,-229.42319,-235.93031,-242.67946,-249.51813,-255.96138,-261.66708,-266.86041,-272.34372,-279.01666,-287.20251,-296.26093,-304.81583,-311.52139,-315.90488,-318.73077,-321.61417,-326.09222,-332.72534,-340.79337,-348.77451,-355.29315,-359.93018,-363.39758,-367.00885,-371.83456,-378.11081,-385.25818,-392.43069,-399.15475,-405.58783,-412.23096,-419.34378,-426.53549,-432.87781,-437.50287,-440.28064,-442.08463,-444.41583,-448.58636,-454.96799,-462.78073,-470.55182,-476.94965,-481.47495,-484.60867,-487.38239,-490.69708,-494.83908,-499.46173,-503.96762,-507.97308,-511.52551,-514.96271,-518.57245,-522.3399,-525.97772,-529.20081,-532.01782,-534.79675,-538.03418,-541.98193,-546.39844,-550.61664,-553.90704,-555.914,-556.89227,-557.59406,-558.875,-561.25043,-564.64838,-568.47705,-571.94055,-574.41656,-575.70477,-576.05353,-575.99408,-576.08978,-576.71649,-577.94788,-579.56555,-581.17401,-582.37744,-582.95837,-582.99207,-582.8429,-583.03064,-584.01569,-585.9986,-588.83136,-592.08142,-595.21033,-597.7688,-599.5141,-600.41309,-600.56586,-600.12622,-599.27106,-598.21851,-597.2453,-596.65521,-596.6936,-597.45367,-598.83478,-600.5799,-602.36456,-603.88049,-604.87262,-605.14038,-604.54901,-603.08313,-600.91693,-598.42365,-596.05487,-594.10492,-592.48059,-590.64764,-587.85468,-583.57098,-577.91022,-571.76318,-566.49243,-563.28802,-562.50781,-563.38135,-564.28674,-563.4978,-560.0257,-554.10553,-547.0611,-540.62115,-536.06085,-533.63037,-532.55927,-531.59235,-529.71936,-526.67291,-522.92993,-519.2627,-516.1521,-513.44489,-510.47269,-506.55545,-501.56216,-496.15115,-491.49023,-488.56522,-487.44812,-486.96075,-484.9873,-479.35526,-468.88828,-454.11099,-437.22794,-421.3403,-409.23868,-402.3226,-400.14191,-400.7522,-401.68314,-401.02997,-398.14545,-393.63608,-388.73633,-384.44339,-380.89136,-377.27887,-372.3493,-365.12448,-355.48145,-344.27478,-332.9715,-323.0213,-315.29352,-309.83389,-305.99457,-302.79938,-299.32813,-294.95871,-289.43158,-282.80347,-275.37357,-267.61295,-260.06842,-253.20786,-247.23515,-241.97133,-236.90854,-231.45934,-225.29214,-218.55557,-211.82776,-205.78149,-200.7437,-196.42255,-192.00044,-186.57405,-179.6964,-171.6852,-163.48248,-156.11745,-150.08022,-144.99001,-139.78065,-133.31645,-125.08035,-115.51488,-105.79129,-97.121307,-90.007507,-83.878441,-77.342323,-68.939034,-57.983841,-45.04092,-31.768419,-20.216839,-11.943581,-7.3798733,-5.7266145,-5.3713408,-4.5718942,-2.0687728,2.61601,9.240799,17.141712,25.573887,33.950626,41.935047,49.420597,56.462135,63.197475,69.771172,76.266319,82.665367,88.869164,94.781799,100.42272,105.99097,111.81711,118.20247,125.22773,132.65433,140.00461,146.80141,152.83931,158.32156,163.76431,169.70871,176.40561,183.66446,190.96294,197.75401,203.78279,209.22078,214.54358,220.24338,226.56912,233.45625,240.66676,248.00699,255.43698,262.97226,270.44855,277.35056,282.89334,286.38287,287.67242,287.42148,286.94366,287.66772,290.48709,295.36908,301.46124,307.63742,313.15759,318.04172,322.93958,328.6008,335.30569,342.63989,349.76248,355.98145,361.2334,366.11844,371.43832,377.53427,383.88495,389.28253,392.53656,393.29059,392.42395,391.73553,393.04218,397.20016,403.63199,410.65265,416.41458,419.91806,421.49869,422.52771,424.54022,428.34067,433.62119,439.28259,444.19958,447.91058,450.79514,453.66531,457.09024,460.936,464.4361,466.73178,467.4968,467.20856,466.8782,467.4285,469.15091,471.61255,474.0661,476.0596,477.80267,480.01773,483.37219,487.89532,492.81183,496.94556,499.45206,500.39597,500.77255,501.93243,504.7626,509.14163,514.01031,518.00079,520.21326,520.65613,520.10742,519.5434,519.54749,520.08588,520.75037,521.23755,521.68286,522.60101,524.48572,527.37823,530.73553,533.71283,535.67352,536.57104,536.9267,537.39697,538.20203,538.78442,537.93274,534.32892,527.23578,516.97253,504.94464,493.21381,483.79343,477.94858,475.76367,476.14294,477.26749,477.36603,475.50549,472.03549,468.40762,466.35907,466.80734,469.05194,470.82718,469.34738,462.90991,452.20419,440.51349,432.53464,432.31393,441.3457,457.85257,477.63672,496.01889,509.78818,518.13727,522.21198,523.74701,523.75415,522.08203,518.00201,511.26263,502.76761,494.34872,487.78159,483.74341,481.45529,479.26712,475.77817,470.71844,464.99585,459.91385,456.15036,453.24805,449.98407,445.34286,439.36737,433.23907,428.48621,425.85779,424.67114,423.1413,419.52628,413.33676,405.77069,399.02292,394.8624,393.37717,392.71069,390.00021,382.9736,371.24991,356.57861,341.90945,329.87897,321.60611,316.43402,312.64291,308.58798,303.53854,297.77713,292.03787,286.76834,281.74478,276.27039,269.76846,262.33011,254.83298,248.54715,244.47095,242.78865,242.7424,242.95512,242.00041,238.92339,233.49648,226.1617,217.7587,209.19405,201.17821,194.08896,187.96297,182.58479,177.62834,172.79738,167.91406,162.92871,157.86566,152.75717,147.61655,142.46114,137.34041,132.30847,127.32504,122.15089,116.35191,109.483,101.39594,92.485916,83.668175,76.008476,70.158142,65.91806,62.237434,57.720554,51.394398,43.291199,34.472179,26.442045,20.284241,16.037342,12.696903,8.8413963,3.4911075,-3.3306923,-10.663945,-17.229538,-22.184851,-25.552408,-28.110762,-30.903048,-34.737778,-39.986858,-46.704868,-54.833176,-64.221161,-74.416565,-84.464233,-93.053993,-99.153069,-102.86458,-105.9605,-111.59723,-123.15414,-142.68823,-169.80621,-201.59163,-233.66454,-261.83463,-283.51648,-298.27377,-307.39758,-312.94156,-316.8194,-320.35886,-324.30579,-328.99622,-334.43488,-340.25864,-345.77722,-350.26627,-353.44595,-355.82822,-358.60129,-363.00549,-369.54968,-377.60602,-385.72159,-392.49591,-397.44391,-401.23099,-405.09262,-409.85522,-415.30331,-420.41959,-424.36844,-427.47116,-431.31113,-437.6629,-446.81479,-456.44107,-462.004,-458.7634,-444.39432,-420.68338,-393.19354,-368.94302,-353.32449,-347.94479,-350.50421,-356.61212,-362.33612,-365.97397,-368.17062,-370.61017,-374.35599,-378.98035,-382.94968,-384.8291,-384.36594,-382.69714,-381.60684,-382.41818,-385.28934,-389.31985,-393.27719,-396.3689,-398.561,-400.36334,-402.40665,-405.2178,-409.32239,-415.43597,-424.37119,-436.52185,-451.20804,-466.42526,-479.38434,-487.71637,-490.69785,-489.71387,-487.57559,-487.00934,-489.19104,-493.21832,-496.86264,-498.15356,-496.823,-494.70609,-494.819,-499.61874,-509.4252,-521.88147,-532.74011,-537.55511,-533.43683,-520.07788,-499.69641,-476.07239,-453.20258,-434.13669,-420.35403,-411.75433,-407.11874,-404.79694,-403.3707,-402.09204,-400.97464,-400.53226,-401.29584,-403.34695,-406.11404,-408.5556,-409.64697,-408.90845,-406.67172,-403.91821,-401.76392,-400.87277,-401.12772,-401.74576,-401.77518,-400.70026,-398.82169,-397.20511,-397.22156,-399.91013,-405.47604,-413.15662,-421.50024,-428.90793,-434.17715,-436.81259,-437.00314,-435.33832,-432.45517,-428.81433,-424.69473,-420.3443,-416.11942,-412.46078,-409.68347,-407.71808,-406.01602,-403.75388,-400.27356,-395.50754,-390.09726,-385.07776,-381.28067,-378.82053,-377.01346,-374.8154,-371.51685,-367.22958,-362.80823,-359.21835,-356.76013,-354.69971,-351.62689,-346.37662,-338.94049,-330.7446,-324.04892,-320.79306,-321.60178,-325.58453,-331.05316,-336.66602,-342.20428,-348.42166,-356.04318,-364.60388,-371.98987,-375.13028,-371.54224,-360.83109,-345.2041,-328.61029,-314.93851,-306.27075,-302.14987,-300.20932,-297.71649,-293.09045,-286.54779,-279.6116,-273.90265,-270.00266,-267.04907,-263.22314,-256.76563,-246.90723,-234.23198,-220.36285,-207.21918,-196.2525,-187.99173,-182.02184,-177.32343,-172.78838,-167.70183,-162.00816,-156.24768,-151.16841,-147.17755,-143.92809,-140.33659,-135.1346,-127.73251,-118.90707,-110.81433,-106.15144,-106.79678,-112.64387,-121.33743,-129.16803,-132.72372,-130.43018,-123.14111,-113.47253,-104.29591,-97.272629,-92.239777,-87.702789,-82.014923,-74.453659,-65.554642,-56.601349,-48.717636,-42.210892,-36.564102,-30.983284,-25.032322,-18.880529,-13.025651,-7.766304,-2.8760242,2.2463677,8.0624695,14.425983,20.551859,25.490988,28.79278,30.878363,32.838894,35.78096,40.168163,45.614323,51.260647,56.450214,61.202477,66.143341,71.952644,78.753235,85.916618,92.455513,97.733421,101.96704,106.12583,111.26094,117.72195,124.82942,131.27245,135.99118,138.94441,141.21431,144.34441,149.34082,156.01561,163.13156,169.26018,173.76515,177.22504,180.99071,186.17867,192.81255,199.74321,205.44626,209.16942,211.61888,214.64598,220.06227,228.33188,238.03714,246.56552,251.69215,253.12955,253.0793,255.39056,263.7533,279.92383,302.94531,329.72519,356.547,380.61224,400.7944,417.35297,431.00641,442.09369,450.3829,455.56815,457.995,458.99899,460.5119,464.09286,469.94278,476.51019,480.97974,480.44968,473.24228,459.73407,442.34528,424.72531,410.50479,402.11975,400.13226,403.24951,408.9852,414.69131,418.5675,420.25848,420.79196,421.86737,424.79794,429.60486,434.74146,437.6553,435.98181,428.80826,417.35654,404.68234,394.47104,389.47766,390.36063,395.47803,401.74225,406.11081,406.99121,404.90372,402.1275,401.54825,405.28638,413.74677,425.49289,437.9389,448.48114,455.51865,458.91089,459.72156,459.45197,459.20145,459.19604,458.90039,457.59625,455.0473,451.82901,449.10684,447.98792,448.84613,451.05643,453.33447,454.49933,454.1915,453.0788,452.38467,453.004,454.75861,456.29367,455.73904,451.78152,444.5134,435.5289,427.17844,421.39679,418.77917,418.42767,418.62137,417.87292,415.72684,412.84946,410.42429,409.29437,409.41647,409.94687,409.84143,408.52078,406.13892,403.2963,400.44077,397.42136,393.54959,388.15829,381.2771,373.92709,367.76208,364.2103,363.62015,364.95087,366.24066,365.61502,362.26529,356.83603,351.01047,346.55319,344.37509,344.14352,344.61139,344.40826,342.78961,339.91574,336.56198,333.5173,331.09177,329.02808,326.81229,324.10953,320.99512,317.8299,314.90341,312.13922,309.10242,305.31558,300.64871,295.4812,290.4938,286.22449,282.71024,279.49228,276.00201,272.0509,268.03766,264.65958,262.271,260.32687,257.35803,251.61391,242.0605,229.13832,214.77422,201.57349,191.62549,185.60939,182.70844,181.33784,180.1862,178.89545,177.97284,178.06024,179.12138,180.15395,179.65985,176.57246,171.00844,164.31378,158.33856,154.38776,152.50777,151.54289,149.89021,146.44244,141.12457,134.74124,128.32568,122.48652,117.18711,112.03501,106.7786,101.58384,96.871231,92.862465,89.229538,85.170349,79.904663,73.244896,65.809013,58.683693,52.744675,48.103657,44.076756,39.703392,34.447544,28.576551,22.941698,18.319235,14.796155,11.660223,7.8890753,2.8878357,-3.0754766,-9.0875835,-14.342095,-18.900671,-23.889259,-30.917709,-41.04348,-53.939053,-67.826454,-80.266747,-89.348686,-94.569489,-96.903397,-98.070221,-99.504021,-101.66801,-104.09109,-106.0127,-107.14402,-108.02309,-109.74905,-113.30334,-118.91964,-125.90297,-132.98875,-138.99646,-143.38104,-146.3909,-148.80371,-151.45013,-154.81349,-158.8956,-163.35742,-167.80074,-172.01811,-176.09436,-180.33426,-185.06781,-190.42563,-196.18884,-201.80043,-206.56985,-210.01093,-212.15776,-213.66833,-215.60193,-218.92961,-224.01703,-230.38031,-236.8934,-242.36777,-246.18788,-248.6273,-250.65025,-253.31693,-257.15985,-261.9147,-266.75604,-270.8598,-273.91119,-276.23355,-278.4874,-281.18408,-284.36954,-287.68735,-290.74191,-293.46344,-296.18588,-299.37653,-303.22537,-307.41556,-311.26474,-314.15399,-315.94568,-317.099,-318.40945,-320.56396,-323.81873,-327.98947,-332.6954,-337.61514,-342.53903,-347.21201,-351.17657,-353.85764,-354.93298,-354.75394,-354.4491,-355.50131,-358.95526,-364.72836,-371.51117,-377.40225,-380.93338,-381.84943,-381.1358,-380.2782,-380.26584,-381.03726,-381.76501,-381.77249,-381.39288,-382.06958,-385.50156,-392.3262,-401.23273,-409.20563,-412.90741,-410.4581,-402.5575,-392.24734,-383.41205,-378.8699,-379.12918,-382.45459,-386.09085,-387.83698,-387.0477,-384.58868,-381.95956,-380.26605,-379.70273,-379.76569,-379.89417,-379.99435,-380.4649,-381.75827,-383.86111,-386.11694,-387.53961,-387.39801,-385.65866,-382.98392,-380.3017,-378.25513,-376.8992,-375.81366,-374.5025,-372.76617,-370.78738,-368.90598,-367.293,-365.7952,-364.07581,-361.93869,-359.57367,-357.51141,-356.28983,-356.0542,-356.38217,-356.48422,-355.67874,-353.8432,-351.5415,-349.72293,-349.15793,-349.9462,-351.39624,-352.35242,-351.78177,-349.28348,-345.24185,-340.56119,-336.1651,-332.56219,-329.71268,-327.22607,-324.71524,-322.05243,-319.36545,-316.80743,-314.29892,-311.46216,-307.82938,-303.19968,-297.88815,-292.65778,-288.32849,-285.29285,-283.26334,-281.45523,-279.12408,-276.11658,-273.04025,-270.87604,-270.23022,-270.70737,-270.87671,-268.97015,-263.97565,-256.47763,-248.67021,-243.41811,-242.81276,-247.0136,-254.04758,-260.71542,-264.12369,-263.00772,-258.1452,-251.69582,-245.9128,-241.98935,-239.65576,-237.65005,-234.66916,-230.17824,-224.62575,-219.02901,-214.27861,-210.62492,-207.62485,-204.50169,-200.63101,-195.84843,-190.4481,-184.95268,-179.84077,-175.37425,-171.55173,-168.13724,-164.72577,-160.86641,-156.27806,-151.11746,-146.14592,-142.6031,-141.71294,-143.98128,-148.6488,-153.673,-156.37573,-154.5219,-147.31361,-135.7804,-122.34386,-109.7703,-100.04029,-93.679512,-89.814606,-86.822418,-83.166458,-78,-71.325211,-63.769604,-56.201435,-49.39183,-43.806423,-39.500965,-36.082325,-32.758446,-28.542732,-22.62604,-14.797161,-5.6843762,3.38153,10.896496,15.873601,18.325548,19.250956,20.109529,22.074648,25.489918,29.83297,34.177414,37.840607,40.805424,43.669361,47.192348,51.772751,57.211418,62.910877,68.35006,73.483734,78.769669,84.789024,91.717628,99.027946,105.66609,110.63802,113.65572,115.42587,117.36279,120.8554,126.50066,133.7536,141.21129,147.3786,151.4828,153.87389,155.78951,158.62997,163.16628,169.13344,175.42992,180.79111,184.53635,186.95573,189.12082,192.23863,196.93234,202.86903,208.95291,213.97314,217.33173,219.42502,221.44609,224.70407,229.83859,236.38068,242.93013,247.87874,250.29515,250.47881,249.85522,250.2399,252.85272,257.62,263.16165,267.49515,269.09271,267.72375,264.62131,261.87671,261.39163,263.95898,268.96857,274.87561,280.13824,284.07028,287.12021,290.43826,295.01968,300.96384,307.31128,312.56488,315.57953,316.27713,315.74619,315.65686,317.33798,321.06433,325.97037,330.62399,333.89456,335.58432,336.45383,337.66074,339.99399,343.40012,347.09332,350.15231,352.18839,353.62518,355.39157,358.22385,362.0462,365.86401,368.2803,368.33585,366.14374,362.89737,360.21609,359.216,359.88318,361.15143,361.65027,360.66107,358.67453,357.18088,357.80115,361.28845,367.02066,373.30804,378.33289,381.13806,382.0499,382.27444,382.93372,384.17157,384.92596,383.55179,378.93781,371.43372,362.99304,356.39453,353.94864,356.39676,362.59381,370.11075,376.38458,379.78268,380.06418,378.11761,375.26144,372.57489,370.59988,369.44781,369.0802,369.4805,370.59402,372.14468,373.55389,374.10809,373.31281,371.19943,368.35022,365.58597,363.49429,362.09546,360.85999,359.06265,356.24048,352.46484,348.2767,344.36462,341.22318,339.00778,337.6275,336.9285,336.76227,336.85355,336.58701,334.95648,330.85196,323.62378,313.61807,302.3096,291.84366,284.14557,280.04929,278.93433,279.09854,278.67685,276.59348,273.01483,269.06561,266.00995,264.41141,263.78186,262.91516,260.67554,256.73413,251.79021,247.14267,243.88281,242.21147,241.30037,239.77806,236.53784,231.37579,225.08249,218.95232,214.02744,210.53922,207.86938,205.02087,201.27751,196.63417,191.7457,187.45897,184.25111,181.93716,179.81589,177.12933,173.51497,169.15457,164.54678,160.09087,155.79166,151.29704,146.23203,140.57397,134.77724,129.53052,125.29643,121.95139,118.79299,114.93783,109.86335,103.73838,97.320671,91.487976,86.715973,82.849678,79.310616,75.579338,71.60334,67.836372,64.879028,62.976749,61.738747,60.29129,57.775864,53.859016,48.908516,43.718624,38.976116,34.830616,30.849386,26.361174,20.924618,14.586581,7.7697921,0.91515243,-5.8128996,-12.506978,-19.189957,-25.451523,-30.385359,-32.967224,-32.685638,-30.012119,-26.353416,-23.445267,-22.519987,-23.751125,-26.320208,-29.058178,-31.245493,-33.056736,-35.374886,-39.11758,-44.53484,-50.947056,-57.093552,-61.860355,-64.917755,-66.873558,-68.872475,-71.921852,-76.369904,-81.826096,-87.506363,-92.726242,-97.218018,-101.12115,-104.74278,-108.32404,-111.99017,-115.87243,-120.22578,-125.36487,-131.4015,-137.96698,-144.17606,-148.96066,-151.64392,-152.41676,-152.38118,-153.05864,-155.59625,-160.12065,-165.64005,-170.59123,-173.74821,-174.9823,-175.43472,-176.99052,-181.33688,-189.116,-199.61548,-211.12657,-221.7327,-230.08171,-235.75461,-239.1143,-240.82614,-241.40115,-241.04306,-239.84204,-238.1161,-236.60516,-236.32951,-238.1554,-242.3167,-248.19151,-254.496,-259.82065,-263.23801,-264.67148,-264.849,-264.88953,-265.75388,-267.83826,-270.88477,-274.20331,-277.04706,-278.93979,-279.81699,-279.96573,-279.84509,-279.90021,-280.44278,-281.60895,-283.36322,-285.51599,-287.75156,-289.68561,-290.96658,-291.40408,-291.0726,-290.33014,-289.72104,-289.78665,-290.85965,-292.93414,-295.67523,-298.5675,-301.13547,-303.13129,-304.60117,-305.80371,-307.03113,-308.43842,-309.97882,-311.48059,-312.80933,-314.00073,-315.26093,-316.81604,-318.70267,-320.6489,-322.1579,-322.78027,-322.42328,-321.49225,-320.73785,-320.86203,-322.10223,-324.05536,-325.87573,-326.75269,-326.38736,-325.17175,-323.94965,-323.50339,-324.0892,-325.31778,-326.45166,-326.91684,-326.68253,-326.2554,-326.29785,-327.14026,-328.53018,-329.79584,-330.30798,-329.91058,-329.00784,-328.24014,-327.97922,-328.01398,-327.67334,-326.32077,-323.87766,-320.98816,-318.67645,-317.70279,-318.05569,-318.94623,-319.33356,-318.63519,-317.12503,-315.71646,-315.24979,-315.76721,-316.30746,-315.43143,-312.19702,-306.96472,-301.4675,-298.01172,-298.22037,-302.04309,-307.63187,-312.18661,-313.31311,-310.14774,-303.6557,-295.99686,-289.37207,-285.00977,-282.8035,-281.69254,-280.45844,-278.43271,-275.74576,-273.07019,-271.10373,-270.13599,-269.92398,-269.87906,-269.39383,-268.10394,-265.9715,-263.20627,-260.1181,-256.99066,-254.01268,-251.25476,-248.66989,-246.11079,-243.37131,-240.24884,-236.60626,-232.40485,-227.70061,-222.62579,-217.3855,-212.2724,-207.66118,-203.93147,-201.31161,-199.71512,-198.69347,-197.59431,-195.88959,-193.4955,-190.85541,-188.66074,-187.30971,-186.41293,-184.69833,-180.48106,-172.53127,-160.88951,-147.13712,-133.88417,-123.66669,-117.7994,-115.79253,-115.65535,-114.92961,-111.89697,-106.31821,-99.338524,-92.667969,-87.542488,-84.062103,-81.250488,-77.744072,-72.662849,-66.139992,-59.220982,-53.22942,-49.001797,-46.443436,-44.641186,-42.428699,-39.045254,-34.500771,-29.4597,-24.751329,-20.825016,-17.478685,-14.005532,-9.6483564,-4.0769911,2.3918443,8.9464417,14.697114,19.109598,22.218552,24.531677,26.717669,29.279001,32.387249,35.933743,39.710598,43.575066,47.494041,51.473404,55.466103,59.360031,63.070847,66.666107,70.4039,74.61879,79.500069,84.902031,90.329399,95.140869,98.871155,101.48292,103.38997,105.23022,107.5238,110.42566,113.72118,117.05421,120.22491,123.3495,126.76802,130.75766,135.24557,139.72517,143.4572,145.85724,146.85306,147.00581,147.32346,148.86168,152.31114,157.7562,164.68248,172.18629,179.26665,185.08678,189.14674,191.36061,192.05106,191.86761,191.6322,192.13754,193.95676,197.3333,202.18568,208.19527,214.89595,221.69676,227.84364,232.41222,234.44601,233.27417,228.89827,222.22539,214.94139,208.98566,205.82225,205.85983,208.33667,211.75572,214.65321,216.29074,216.90233,217.38599,218.65361,221.0446,224.15137,227.1376,229.32059,230.63266,231.66725,233.28824,236.06049,239.86539,243.93951,247.30124,249.29137,249.89682,249.67964,249.38893,249.52304,250.11705,250.86296,251.44652,251.85196,252.42558,253.66228,255.86592,258.91241,262.2699,265.26144,267.40814,268.65146,269.34277,270.02966,271.17587,272.9617,275.24014,277.62958,279.66986,280.97461,281.34781,280.85596,279.84103,278.8436,278.42133,278.90665,280.21765,281.85269,283.12497,283.54993,283.17233,282.61023,282.73334,284.11633,286.57837,289.11456,290.32236,289.13358,285.45807,280.36417,275.6665,273.12341,273.66519,277.04797,282.07782,287.22894,291.29074,293.7168,294.5752,294.24808,293.13919,291.56866,289.84247,288.3382,287.45197,287.39462,287.98837,288.66,288.70883,287.72293,285.88025,283.91101,282.70389,282.77618,283.93243,285.33023,285.91827,284.98059,282.46252,278.90558,275.07278,271.53015,268.44611,265.6926,263.11636,260.7471,258.78677,257.41162,256.56995,255.95901,255.21742,254.18887,253.0426,252.13455,251.69269,251.56003,251.21007,250.06224,247.89854,245.08228,242.39052,240.52876,239.62817,239.06592,237.76021,234.78864,229.96211,224.00078,218.19835,213.77203,211.27783,210.41286,210.27637,209.88658,208.62788,206.39465,203.42413,200.00755,196.30882,192.39404,188.39149,184.60001,181.41356,179.08688,177.50697,176.15192,174.29961,171.37808,167.25352,162.29106,157.17096,152.58736,149.00458,146.5741,145.19066,144.58588,144.37654,144.07164,143.11363,141.01639,137.56918,132.98271,127.84563,122.86649,118.52721,114.85836,111.48772,107.93895,103.98423,99.811409,95.891884,92.647728,90.163292,88.15519,86.221733,84.175575,82.187706,80.603928,79.54966,78.627953,76.985519,73.773605,68.72934,62.472004,56.260952,51.316265,48.118248,46.150173,44.273514,41.501709,37.656219,33.454971,29.966255,27.804499,26.635092,25.349964,22.805893,18.611446,13.399646,8.3798409,4.4803028,1.7015886,-0.83476621,-4.1588311,-8.5784187,-13.3402,-17.154062,-19.277145,-20.388758,-22.543802,-28.079548,-38.09222,-51.485367,-65.31559,-76.361008,-83.016586,-86.331917,-89.47406,-95.855034,-107.01078,-121.50906,-135.56354,-145.00943,-147.4897,-143.6058,-136.44049,-129.83565,-126.49187,-126.95407,-129.91269,-133.42862,-136.20473,-138.14235,-139.99251,-142.51953,-145.84062,-149.37537,-152.3472,-154.39328,-155.81264,-157.29681,-159.38263,-162.05554,-164.79193,-166.98788,-168.43857,-169.5092,-170.87831,-173.04938,-175.98915,-179.15054,-181.85912,-183.7885,-185.19785,-186.77731,-189.21555,-192.77785,-197.15616,-201.65907,-205.59351,-208.59325,-210.7193,-212.32292,-213.80334,-215.42163,-217.25459,-219.263,-221.38606,-223.59056,-225.86244,-228.17639,-230.48055,-232.70413,-234.77074,-236.60536,-238.14694,-239.38678,-240.42989,-241.53403,-243.06567,-245.34979,-248.47005,-252.13849,-255.74448,-258.59872,-260.26315,-260.78503,-260.69165,-260.73441,-261.51791,-263.21695,-265.52753,-267.85938,-269.64255,-270.57678,-270.71127,-270.35522,-269.90628,-269.69528,-269.897,-270.50095,-271.31876,-272.03064,-272.29483,-271.92322,-271.0614,-270.25351,-270.28845,-271.83154,-274.99588,-279.09521,-282.77203,-284.50851,-283.30807,-279.20999,-273.35962,-267.57492,-263.60742,-262.44632,-263.97861,-267.12573,-270.34579,-272.24377,-272.03156,-269.69327,-265.86121,-261.50818,-257.59256,-254.76802,-253.23164,-252.74358,-252.80669,-252.93671,-252.901,-252.79887,-252.92506,-253.48441,-254.33522,-254.94986,-254.66194,-253.08069,-250.4147,-247.4684,-245.26207,-244.47339,-245.0378,-246.17242,-246.83067,-246.31459,-244.65891,-242.54028,-240.77505,-239.74562,-239.1459,-238.22136,-236.33681,-233.4725,-230.29021,-227.70653,-226.2599,-225.71567,-225.2029,-223.81067,-221.2419,-218.06219,-215.34412,-213.92348,-213.76961,-213.92291,-213.08841,-210.53006,-206.68471,-203.06525,-201.46268,-202.90509,-206.99776,-212.0463,-215.8947,-216.98883,-215.06331,-211.09946,-206.64505,-202.94221,-200.37018,-198.46774,-196.42966,-193.71005,-190.35634,-186.91319,-184.0174,-181.97263,-180.56656,-179.21519,-177.31944,-174.61319,-171.312,-167.99591,-165.29784,-163.55489,-162.58902,-161.72556,-160.06117,-156.88455,-152.07004,-146.24553,-140.61142,-136.44504,-134.50177,-134.61588,-135.73892,-136.43546,-135.5959,-132.97906,-129.27002,-125.60953,-122.86805,-121.10237,-119.53255,-117.06041,-113.01034,-107.62491,-101.9928,-97.438667,-94.744377,-93.680946,-93.140106,-91.78363,-88.81208,-84.390137,-79.488373,-75.264351,-72.379097,-70.662491,-69.304672,-67.420151,-64.616234,-61.220928,-58.057125,-55.929192,-55.142727,-55.325726,-55.61599,-55.066113,-53.024227,-49.312832,-44.18169,-38.139767,-31.795797,-25.765739,-20.611376,-16.742628,-14.269355,-12.879957,-11.867366,-10.366996,-7.7379436,-3.897212,0.59896165,4.8122964,7.9091759,9.6189766,10.40407,11.238574,13.118937,16.584881,21.515102,27.286478,33.160133,38.629875,43.519249,47.807812,51.368752,53.867294,54.948631,54.615318,53.517002,52.885235,54.055035,57.795742,63.838776,70.914993,77.330185,81.784271,83.983398,84.709534,85.329834,87.050911,90.348335,94.861504,99.739555,104.16112,107.69362,110.32434,112.24712,113.64155,114.63301,115.42761,116.43974,118.21899,121.15195,125.13183,129.47311,133.21259,135.66066,136.85143,137.55983,138.82559,141.26913,144.65833,148.04321,150.39592,151.33148,151.40407,151.74962,153.3019,156.12761,159.36722,161.85315,162.98322,163.21059,163.74864,165.64354,168.85994,172.09517,173.59224,172.52982,170.08998,169.39285,174.13371,186.57983,206.05756,228.86086,249.73413,264.18399,270.40158,269.8092,266.03067,262.94604,262.92023,266.07944,270.82907,275.1091,277.57031,278.06097,277.33167,276.33691,275.65701,275.35373,275.21487,275.09653,275.0813,275.37744,276.09897,277.13516,278.20892,279.05563,279.56531,279.78409,279.80655,279.68164,279.42856,279.14157,279.06052,279.49634,280.62219,282.27621,283.95251,285.04037,285.18735,284.548,283.73166,283.45712,284.12463,285.57877,287.2124,288.33289,288.543,287.89429,286.74252,285.44537,284.13733,282.73392,281.1308,279.41107,277.87967,276.8869,276.57767,276.76511,277.03445,277.00571,276.56113,275.8728,275.22006,274.74792,274.35959,273.82367,273.00327,272.01276,271.16467,270.7373,270.74338,270.88724,270.75513,270.09753,268.98328,267.69998,266.47638,265.24921,263.67474,261.39383,258.35379,254.9269,251.71312,249.16315,247.31535,245.86823,244.54541,243.44876,243.05438,243.74928,245.18277,245.93567,243.89133,237.25667,225.70396,210.91872,196.11317,184.66096,178.55806,177.55981,179.47104,181.3997,181.23738,178.54005,174.39069,170.45522,167.89328,166.78664,166.34224,165.60783,164.1505,162.25293,160.56519,159.52563,158.98174,158.25261,156.54521,153.411,148.94986,143.68619,138.27316,133.25723,129.0229,125.8549,123.96208,123.375,123.78997,124.53492,124.77489,123.88928,121.7864,118.91937,115.95654,113.31048,110.85497,108.04749,104.3906,99.907516,95.26902,91.436172,89.02636,87.829727,86.831818,84.772324,80.904594,75.469521,69.57032,64.52224,61.093227,59.118393,57.71804,55.949409,53.444763,50.615345,48.305294,47.149517,47.077023,47.288509,46.713367,44.640419,41.121548,36.915565,33.041016,30.235836,28.639145,27.831263,27.135124,25.95462,23.966978,21.133892,17.621599,13.734581,9.884654,6.5318232,4.0348353,2.4446266,1.3783375,0.1185076,-2.0441151,-5.3895497,-9.5378714,-13.600407,-16.674273,-18.402168,-19.242298,-20.248936,-22.468056,-26.30789,-31.277344,-36.263321,-40.179855,-42.588066,-43.909756,-45.122814,-47.156132,-50.378811,-54.491295,-58.842789,-62.917488,-66.640915,-70.310745,-74.236687,-78.382065,-82.290878,-85.36972,-87.329918,-88.469292,-89.575386,-91.49086,-94.617188,-98.681694,-102.92065,-106.55672,-109.25726,-111.28051,-113.23083,-115.60538,-118.44693,-121.33539,-123.7148,-125.32342,-126.42615,-127.68346,-129.73605,-132.77728,-136.39813,-139.81706,-142.36021,-143.89595,-144.95074,-146.42604,-149.07646,-153.05251,-157.77269,-162.19777,-165.3504,-166.79073,-166.79312,-166.14584,-165.70523,-165.9628,-166.8576,-167.91487,-168.60362,-168.69246,-168.40025,-168.27107,-168.86526,-170.45587,-172.89967,-175.73528,-178.42407,-180.58014,-182.06638,-182.94016,-183.33171,-183.36726,-183.1902,-183.03638,-183.26265,-184.25508,-186.24048,-189.11667,-192.43115,-195.5522,-197.94817,-199.40906,-200.07591,-200.27173,-200.2635,-200.13101,-199.83241,-199.40196,-199.10219,-199.37488,-200.5836,-202.71207,-205.24608,-207.36395,-208.35085,-207.98576,-206.64919,-205.07849,-203.93564,-203.47751,-203.53918,-203.80775,-204.14906,-204.71661,-205.7514,-207.24176,-208.75017,-209.60664,-209.38022,-208.28398,-207.15913,-206.96086,-208.05705,-209.85822,-211.13725,-210.93452,-209.48274,-208.46855,-210.30739,-216.74973,-227.63986,-240.65028,-252.26414,-259.50354,-261.40305,-259.35239,-256.12045,-254.19072,-254.45026,-256.01126,-257.18039,-256.84222,-255.28787,-253.9462,-254.26027,-256.54507,-259.65961,-261.73672,-261.45865,-258.97955,-255.84674,-253.97737,-254.4055,-256.66165,-259.18402,-260.42731,-259.85684,-258.13229,-256.40198,-255.28995,-254.3746,-252.57079,-249.12143,-244.40984,-239.90384,-237.18555,-236.74545,-237.47829,-237.38136,-235.09671,-231.25609,-228.59842,-230.57867,-239.20525,-253.44,-269.24002,-281.34177,-285.80603,-281.85986,-272.00296,-260.40866,-250.6553,-244.1385,-239.97681,-236.22786,-231.45319,-225.58899,-219.68707,-214.91136,-211.63277,-209.27818,-206.94966,-204.23807,-201.54543,-199.65633,-198.91553,-198.69785,-197.6454,-194.55676,-189.29002,-182.99017,-177.42224,-173.84634,-172.22525,-171.33612,-169.71257,-166.73637,-163.07712,-160.14566,-158.95251,-159.21858,-159.42679,-157.82721,-153.6945,-147.91197,-142.40843,-138.80016,-137.20259,-136.11203,-133.52357,-128.54318,-122.31594,-117.47952,-116.34389,-118.938,-122.28867,-121.60217,-112.8148,-95.043533,-71.429901,-47.790119,-29.796865,-20.297852,-18.269846,-19.894287,-20.972147,-19.168236,-14.812225,-9.9816504,-6.6744409,-5.355022,-4.7727261,-3.0206523,1.0200371,6.8884912,12.911204,17.398138,19.784595,20.924952,22.376558,25.224108,29.292034,33.289959,35.76894,36.207249,35.472755,35.352089,37.472881,42.335617,49.066456,55.999725,61.657692,65.479622,67.880722,69.707321,71.546844,73.391876,74.846695,75.648941,76.058632,76.790375,78.523743,81.355316,84.613304,87.206749,88.302879,87.88829,86.835052,86.416695,87.577957,90.417061,94.192978,97.828224,100.57001,102.39417,103.92431,105.9562,108.91393,112.57812,116.22829,119.07482,120.69468,121.21706,121.18765,121.24022,121.79582,122.95203,124.57713,126.49696,128.63097,131.00339,133.65868,136.57167,139.62679,142.67313,145.60062,148.37402,151.00449,153.49269,155.79977,157.87321,159.70428,161.36066,162.95522,164.56352,166.15138,167.57706,168.68419,169.43303,169.98001,170.63853,171.72879,173.39932,175.5304,177.78464,179.78188,181.29865,182.3777,183.28816,184.36662,185.83722,187.7112,189.80971,191.87404,193.68262,195.10548,196.08516,196.59077,196.60966,196.20393,195.59737,195.21472,195.6066,197.25598,200.34201,204.58034,209.23984,213.35631,216.06743,216.92992,216.08214,214.18361,212.16087,210.87236,210.83292,212.10405,214.37469,217.17023,220.07484,222.85779,225.4548,227.83981,229.88533,231.31583,231.8015,231.1481,229.46855,227.21532,225.02568,223.44307,222.66299,222.45407,222.31235,221.77034,220.68407,219.3242,218.209,217.77194,218.06258,218.66635,218.90262,218.19392,216.39543,213.89424,211.42163,209.68669,209.03633,209.3232,210.03731,210.60931,210.70819,210.37593,209.94366,209.79355,210.10362,210.70879,211.14462,210.85248,209.4521,206.959,203.84116,200.86993,198.80623,198.04755,198.40408,199.13841,199.28815,198.14078,195.6236,192.38594,189.49808,187.90314,187.91237,189.0266,190.18994,190.3326,188.89272,186.02924,182.43628,178.91599,175.99686,173.81786,172.28658,171.3217,170.94913,171.16631,171.70663,171.95177,171.15195,168.8739,165.38153,161.63997,158.85834,157.80943,158.35461,159.50671,160.0231,159.1604,157.09554,154.72984,153.01013,152.23788,151.85324,150.85043,148.53165,145.05392,141.35764,138.50304,136.87912,135.86978,134.2639,131.17393,126.84179,122.7432,120.84708,122.45198,127.32463,133.69342,139.11313,141.6731,140.8282,137.40651,132.89026,128.50407,124.6953,121.25008,117.82256,114.39674,111.31847,108.91372,107.05246,105.06405,102.13304,97.917206,92.928314,88.357597,85.412384,84.58168,85.310982,86.297195,86.204407,84.339638,80.887016,76.62162,72.367241,68.589218,65.352364,62.573025,60.285252,58.675045,57.864174,57.653278,57.47739,56.654411,54.762939,51.869167,48.431656,44.961559,41.705818,38.596809,35.488796,32.457218,29.872211,28.137005,27.270525,26.681744,25.379045,22.54073,18.074787,12.756123,7.8006692,4.1368227,1.8694854,0.31351301,-1.4293838,-3.7758207,-6.3696609,-8.4236336,-9.4435673,-9.7741528,-10.50711,-12.754888,-16.788322,-21.693277,-25.878002,-28.163992,-28.738909,-29.278791,-32.06884,-38.625813,-48.68977,-60.245892,-70.586731,-77.761566,-81.52655,-83.253021,-84.931396,-87.960587,-92.483635,-97.599632,-102.17781,-105.63976,-108.18793,-110.41972,-112.72147,-114.95578,-116.67793,-117.67335,-118.34571,-119.59818,-122.24683,-126.38084,-131.1523,-135.18723,-137.37158,-137.50119,-136.3808,-135.33659,-135.49141,-137.27058,-140.39491,-144.25342,-148.30898,-152.24174,-155.80887,-158.65935,-160.37096,-160.75322,-160.17393,-159.56982,-160.00264,-161.98805,-165.0713,-168.03072,-169.6804,-169.79056,-169.4821,-170.73502,-175.21974,-183.14143,-192.84047,-201.45769,-206.31886,-206.24438,-202.04074,-195.94209,-190.40286,-186.98645,-185.94943,-186.61435,-188.12221,-189.98785,-192.12874,-194.48323,-196.64116,-197.86168,-197.50906,-195.57307,-192.83952,-190.51814,-189.53957,-189.99748,-191.13298,-191.88615,-191.63976,-190.64014,-189.80501,-190.05762,-191.65799,-193.99995,-196.01225,-196.87726,-196.56435,-195.81209,-195.58461,-196.39175,-197.94661,-199.38638,-199.88501,-199.22159,-197.91559,-196.85597,-196.70204,-197.47621,-198.61028,-199.3761,-199.37036,-198.714,-197.86157,-197.21054,-196.83475,-196.5452,-196.20503,-196.00812,-196.44469,-197.91922,-200.27863,-202.62933,-203.66328,-202.36804,-198.70215,-193.78337,-189.41086,-187.15355,-187.52431,-189.72794,-192.13699,-193.21555,-192.34906,-190.10612,-187.80556,-186.67397,-187.10289,-188.43202,-189.35835,-188.70863,-186.12234,-182.27019,-178.51093,-176.19763,-176.01236,-177.66397,-180.0724,-181.91219,-182.22566,-180.81027,-178.2182,-175.40292,-173.21022,-171.9711,-171.38924,-170.76263,-169.40984,-167.06906,-164.05576,-161.09561,-158.92888,-157.91182,-157.84337,-158.1145,-158.08586,-157.46054,-156.4225,-155.4576,-154.97745,-154.99423,-155.06389,-154.53992,-152.97385,-150.39572,-147.28401,-144.24063,-141.58868,-139.17194,-136.5056,-133.19118,-129.31795,-125.56259,-122.88295,-121.96735,-122.77511,-124.46839,-125.8045,-125.77367,-124.11004,-121.37507,-118.56964,-116.51543,-115.37954,-114.61972,-113.36439,-110.97823,-107.46243,-103.45487,-99.848816,-97.278625,-95.786781,-94.857552,-93.769463,-92.029762,-89.623116,-86.940948,-84.464615,-82.422157,-80.639282,-78.670586,-76.116768,-72.921387,-69.458427,-66.351669,-64.125992,-62.886803,-62.207424,-61.292236,-59.341206,-55.942844,-51.311623,-46.259575,-41.910816,-39.277195,-38.870041,-40.506149,-43.38538,-46.404346,-48.571552,-49.34729,-48.767365,-47.311527,-45.597519,-44.062008,-42.786018,-41.536896,-39.977081,-37.901382,-35.359791,-32.601978,-29.894249,-27.336813,-24.803627,-22.043362,-18.874825,-15.349742,-11.777551,-8.5930281,-6.1419706,-4.5040445,-3.4443002,-2.5092807,-1.2113682,0.78499258,3.5429492,6.8260822,10.160142,12.968524,14.762288,15.347802,14.982741,14.390609,14.571559,16.433968,20.38187,26.059019,32.411861,38.089287,42.015907,43.8633,44.177601,44.094242,44.78894,46.949863,50.530067,54.869305,59.068417,62.383221,64.441475,65.235855,64.995567,64.084724,62.995113,62.368824,62.917767,65.169792,69.130043,74.079597,78.722878,81.713028,82.332077,80.948311,78.943367,78.081505,79.626656,83.688225,89.170425,94.361046,97.824776,99.093079,98.775444,98.073761,98.035698,99.013351,100.62571,102.17857,103.20639,103.7564,104.25301,105.09904,106.35895,107.79562,109.24756,111.04642,114.09992,119.47308,127.66101,138.01086,148.72227,157.52939,162.73901,164.04935,162.6705,160.66681,159.89473,161.13878,163.90997,166.96109,169.15015,170.10963,170.34685,170.78279,172.08379,174.2327,176.59099,178.36522,179.14023,179.13,179.00992,179.47466,180.82515,182.83647,184.95256,186.64381,187.68558,188.20335,188.5022,188.8302,189.23784,189.60081,189.75529,189.6364,189.33842,189.08655,189.16228,189.82301,191.22415,193.33563,195.87033,198.28426,199.91345,200.2448,199.20847,197.31021,195.46744,194.57677,195.02914,196.46907,197.98526,198.66406,198.189,197.10129,196.51764,197.43771,200.0563,203.52806,206.37431,207.31961,206.05528,203.44547,201.02393,200.07442,200.86143,202.49602,203.52638,202.8817,200.56659,197.65863,195.60667,195.28085,196.39117,197.65941,197.64388,195.69194,192.40506,189.30852,187.92613,188.84198,191.34198,193.85838,194.93118,194.07614,192.0177,190.15753,189.63643,190.59651,192.1068,192.77789,191.65079,188.78239,185.16531,182.06122,180.20351,179.39265,178.73221,177.32312,174.93704,172.21255,170.24303,169.82732,170.87425,172.34961,172.80605,171.17326,167.33568,162.1732,157.07452,153.23526,151.14107,150.48012,150.45248,150.23308,149.31497,147.59879,145.27632,142.6571,140.05583,137.75325,135.96638,134.77614,134.04097,133.38742,132.34386,130.57857,128.09964,125.26505,122.56508,120.30217,118.38715,116.41087,113.96408,110.9913,107.91462,105.40329,103.91042,103.28187,102.7279,101.22729,98.143883,93.671005,88.799942,84.79512,82.471725,81.708794,81.499321,80.51767,77.87455,73.622643,68.732384,64.572792,62.209114,61.905613,63.070309,64.61132,65.461464,64.98513,63.104385,60.167728,56.709625,53.2523,50.213299,47.886143,46.427719,45.821667,45.846668,46.102352,46.115215,45.488884,44.028294,41.781921,38.997124,36.027317,33.236916,30.922798,29.245319,28.165312,27.414049,26.54351,25.079479,22.731398,19.548866,15.914489,12.348411,9.2252388,6.5809512,4.1466546,1.5990794,-1.14222,-3.7947307,-5.8871083,-7.13554,-7.7622747,-8.4991512,-10.213661,-13.361942,-17.627497,-22.020731,-25.426537,-27.276798,-27.908541,-28.345793,-29.617414,-32.051956,-35.042873,-37.494999,-38.71027,-39.141731,-40.470093,-44.847088,-53.676086,-66.630615,-81.525291,-95.183281,-104.86734,-109.50525,-110.05173,-108.82092,-108.20175,-109.49081,-112.46416,-115.84599,-118.30814,-119.36059,-119.61411,-120.31441,-122.49287,-126.28651,-130.8398,-134.823,-137.2252,-137.93167,-137.74849,-137.88251,-139.20731,-141.75549,-144.72412,-146.96774,-147.67441,-146.83307,-145.24384,-144.09563,-144.37413,-146.43063,-149.9176,-154.06921,-158.11919,-161.60667,-164.43205,-166.70027,-168.51106,-169.85417,-170.66003,-170.93178,-170.83063,-170.63789,-170.62238,-170.91817,-171.50612,-172.3044,-173.28365,-174.50386,-176.0397,-177.86229,-179.7935,-181.59489,-183.13695,-184.50746,-185.94283,-187.59987,-189.33173,-190.66908,-191.08495,-190.40668,-189.09023,-188.11401,-188.48576,-190.63487,-194.08621,-197.6667,-200.15915,-201.00801,-200.62189,-200.06804,-200.3588,-201.81126,-203.91624,-205.79749,-206.92166,-207.53224,-208.47256,-210.5107,-213.66205,-217.03902,-219.39189,-219.98802,-219.18089,-218.18448,-218.11313,-218.90657,-218.93187,-215.67664,-207.23761,-193.72707,-177.67606,-163.07051,-153.48714,-150.36876,-152.42488,-156.48193,-159.25488,-158.99771,-156.12251,-152.54872,-150.31041,-150.33362,-152.08539,-154.17606,-155.39229,-155.43521,-154.92455,-154.77003,-155.42325,-156.54462,-157.27766,-156.88196,-155.24966,-152.95387,-150.83405,-149.44556,-148.76604,-148.33418,-147.675,-146.67383,-145.62828,-144.96539,-144.86162,-145.06436,-145.05086,-144.40352,-143.12083,-141.63358,-140.51332,-140.08063,-140.18744,-140.3185,-139.9299,-138.7852,-137.06569,-135.20323,-133.57806,-132.30367,-131.23592,-130.16815,-129.03963,-127.99008,-127.22322,-126.79507,-126.5006,-125.95584,-124.82263,-123.01696,-120.75613,-118.42234,-116.35203,-114.70175,-113.46438,-112.57899,-112.00335,-111.66164,-111.30983,-110.46723,-108.54848,-105.18629,-100.56206,-95.495728,-91.161896,-88.536415,-87.881432,-88.59343,-89.536095,-89.677658,-88.648483,-86.873924,-85.204498,-84.289032,-84.10376,-83.945587,-82.891304,-80.416916,-76.77066,-72.859657,-69.73127,-67.986679,-67.490746,-67.531578,-67.287407,-66.279778,-64.539505,-62.434753,-60.340107,-58.403347,-56.553062,-54.687206,-52.848316,-51.223106,-49.965595,-49.000999,-47.993961,-46.538525,-44.445877,-41.914295,-39.438435,-37.503078,-36.268085,-35.464512,-34.572842,-33.152927,-31.090818,-28.597599,-25.985083,-23.408026,-20.777937,-17.908154,-14.759346,-11.56805,-8.7313118,-6.5193214,-4.8410425,-3.2672882,-1.3267344,1.1292652,3.7754319,6.019999,7.4519682,8.2103643,8.9822617,10.58402,13.385458,16.977543,20.346626,22.481859,23.03591,22.599342,22.389025,23.534567,26.414318,30.460711,34.543957,37.666294,39.509663,40.502506,41.410297,42.771393,44.577221,46.392708,47.784008,48.705647,49.546658,50.803616,52.635307,54.650883,56.118027,56.471848,55.776714,54.807789,54.667542,56.163578,59.335613,63.423279,67.284706,69.998222,71.28672,71.54287,71.495918,71.768379,72.597733,73.850082,75.248528,76.619171,77.987312,79.490448,81.207245,83.042862,84.750328,86.064392,86.854744,87.208015,87.402405,87.797577,88.691338,90.194839,92.169006,94.257309,96.030403,97.210167,97.873894,98.502533,99.782967,102.21048,105.69514,109.43914,112.24314,113.14732,112.06416,109.99262,108.6023,109.35113,112.6239,117.42561,121.86761,124.20697,123.83698,121.62746,119.39642,118.83148,120.52436,123.70768,126.83068,128.57381,128.63412,127.78867,127.24057,127.73325,129.05725,130.28128,130.52039,129.67216,128.57205,128.42903,129.92087,132.59131,135.01457,135.6855,134.09639,131.30688,129.60715,131.42543,138.08714,149.1091,162.3831,175.09218,184.83275,190.38866,191.88484,190.41974,187.49849,184.56401,182.73563,182.69064,184.5905,188.0432,192.18898,195.98055,198.59619,199.7831,199.91383,199.69307,199.68066,199.93488,200.01199,199.32091,197.58485,195.08794,192.53595,190.63541,189.6915,189.50241,189.60193,189.64413,189.62523,189.77455,190.21503,190.68779,190.6019,189.42354,187.14088,184.44337,182.42606,181.96034,183.12875,185.11089,186.62488,186.66115,185.04591,182.48189,180.05853,178.56718,178.06651,177.9532,177.44385,176.1118,174.12077,172.03813,170.40955,169.41879,168.85516,168.35979,167.72072,166.97929,166.28987,165.68604,164.97958,163.8969,162.3443,160.56693,159.03645,158.12167,157.79074,157.59834,157.00647,155.81873,154.38857,153.40144,153.34552,154.04726,154.64653,154.097,151.89027,148.5002,145.19173,143.26115,143.18463,144.25458,144.98296,144.03409,141.06888,136.91125,132.88809,129.76175,126.98289,122.81963,115.36064,103.80717,89.243584,74.366661,62.280762,55.031979,52.707111,53.57523,55.131702,55.403831,53.787426,51.025383,48.469418,47.149254,47.200668,47.907452,48.217556,47.351513,45.148746,42.024567,38.657593,35.639591,33.265465,31.503689,30.083687,28.622952,26.761206,24.299713,21.320156,18.211241,15.53054,13.713631,12.769365,12.169056,11.065701,8.7807579,5.2900977,1.3803704,-1.6942363,-2.9196525,-2.1959875,-0.54385716,0.34654668,-0.97970241,-4.8888192,-10.369777,-15.516139,-18.532883,-18.704817,-16.774933,-14.521936,-13.78998,-15.531554,-19.394438,-24.044853,-27.985518,-30.363552,-31.315735,-31.713863,-32.539639,-34.309128,-36.880653,-39.696766,-42.230064,-44.303577,-46.087585,-47.827969,-49.553829,-51.013573,-51.904545,-52.227249,-52.479401,-53.494247,-55.968067,-59.952641,-64.651955,-68.703163,-70.832733,-70.5355,-68.384666,-65.775177,-64.223351,-64.601723,-66.729965,-69.542862,-71.732452,-72.498878,-71.992447,-71.212349,-71.435181,-73.503105,-77.364578,-82.104973,-86.426193,-89.294884,-90.407364,-90.245087,-89.732346,-89.71965,-90.585243,-92.149529,-93.901787,-95.366753,-96.383698,-97.152359,-98.054161,-99.38694,-101.18188,-103.19891,-105.07669,-106.52722,-107.45886,-107.97914,-108.31264,-108.71174,-109.4146,-110.64407,-112.59434,-115.36166,-118.83463,-122.62215,-126.10812,-128.65912,-129.90787,-129.95889,-129.37614,-128.92111,-129.15921,-130.14935,-131.40804,-132.19446,-131.97427,-130.79825,-129.36038,-128.67197,-129.51292,-131.96706,-135.31979,-138.40202,-140.20607,-140.43109,-139.64049,-138.92783,-139.2726,-140.95462,-143.37152,-145.3734,-145.92551,-144.71284,-142.33295,-139.96628,-138.72551,-139.07251,-140.64307,-142.56108,-144.02026,-144.75162,-145.08109,-145.55695,-146.41493,-147.26224,-147.22427,-145.49516,-141.95799,-137.47168,-133.60728,-131.94408,-133.30383,-137.34596,-142.74113,-147.81506,-151.30241,-152.81595,-152.82433,-152.21764,-151.75092,-151.68134,-151.76237,-151.53654,-150.71312,-149.40283,-148.09377,-147.40855,-147.79004,-149.27809,-151.47406,-153.69347,-155.22896,-155.61237,-154.77458,-153.04611,-151.0024,-149.2209,-148.05663,-147.53951,-147.43909,-147.45436,-147.41295,-147.35558,-147.45113,-147.80006,-148.26675,-148.47595,-148.00661,-146.68005,-144.75761,-142.89786,-141.8632,-142.12466,-143.58958,-145.61685,-147.31894,-147.98349,-147.38057,-145.79634,-143.79984,-141.90114,-140.30618,-138.89532,-137.40622,-135.68407,-133.83817,-132.21761,-131.23192,-131.1232,-131.80569,-132.83833,-133.52892,-133.12386,-131.02542,-126.98158,-121.19721,-114.31837,-107.26541,-100.94526,-95.942558,-92.328598,-89.693924,-87.404839,-84.956795,-82.230804,-79.504753,-77.215889,-75.626869,-74.614441,-73.724815,-72.46508,-70.638077,-68.490288,-66.560715,-65.32029,-64.839905,-64.716515,-64.317871,-63.189308,-61.347057,-59.251297,-57.467239,-56.2421,-55.295052,-53.982475,-51.744316,-48.534088,-44.927788,-41.811932,-39.835876,-38.986084,-38.576031,-37.677792,-35.725197,-32.893375,-29.997223,-27.966257,-27.237385,-27.467249,-27.756208,-27.233686,-25.609594,-23.317795,-21.155249,-19.668964,-18.723467,-17.565891,-15.365265,-11.866369,-7.6983919,-4.0928679,-2.1570246,-2.159302,-3.2984788,-4.1295691,-3.3973727,-0.76132798,3.0404308,6.6825113,9.0779085,10.012715,10.203465,10.773699,12.517012,15.429245,18.786196,21.666229,23.530167,24.464754,24.962013,25.447868,25.94433,26.131489,25.757597,25.063858,24.855234,26.096336,29.269062,33.938393,38.86853,42.670132,44.58255,44.872395,44.562592,44.652962,45.353432,45.869556,44.926552,41.71674,36.642956,31.328287,27.822927,27.467524,30.118576,34.234581,37.785976,39.432858,39.248169,38.55933,39.042175,41.66304,46.130806,51.161568,55.322197,57.865376,59.020878,59.612885,60.340137,61.264343,61.868484,61.613708,60.552219,59.508598,59.651257,61.721226,65.449593,69.590675,72.591827,73.491753,72.479034,70.761307,69.840446,70.661743,73.159569,76.436829,79.396751,81.379555,82.409355,82.96701,83.535469,84.283829,85.096046,85.8526,86.672462,87.872398,89.655273,91.793922,93.622246,94.427643,94.013657,93.015602,92.66938,94.097321,97.540001,102.06101,105.9854,107.86,107.35649,105.5348,104.26698,105.15115,108.57498,113.49995,118.08498,120.74541,120.99085,119.55579,117.80931,116.88036,117.0748,117.91357,118.67766,119.0163,119.17596,119.71903,120.98544,122.73074,124.22864,124.76948,124.18193,122.97855,121.99573,121.77232,122.11782,122.20535,121.16186,118.7679,115.7761,113.59136,113.47469,115.75642,119.55603,123.19614,125.06998,124.45226,121.79723,118.39632,115.64902,114.39518,114.66063,115.87544,117.33869,118.60496,119.58838,120.40517,121.13947,121.72058,121.97178,121.74918,121.04102,119.96208,118.6833,117.38394,116.26902,115.60419,115.67759,116.65266,118.3908,120.39819,122.00335,122.71518,122.55215,122.10204,122.21776,123.49638,125.85973,128.52339,130.40683,130.74687,129.53044,127.46749,125.52419,124.3281,123.84203,123.51672,122.79886,121.62106,120.51097,120.22544,121.15903,122.95346,124.61292,125.08785,123.95562,121.73621,119.60471,118.65738,119.19294,120.47729,121.159,120.08775,117.02994,112.83936,108.98422,106.72802,106.46146,107.56557,108.84351,109.21639,108.25199,106.24452,103.87187,101.71181,99.944321,98.395157,96.82415,95.205765,93.786598,92.890434,92.634109,92.780205,92.847473,92.409492,91.373611,90.04216,88.905403,88.297714,88.140762,87.942261,87.056824,85.055138,81.988098,78.402893,75.113182,72.853271,71.986015,72.381821,73.488785,74.536018,74.783516,73.745239,71.335083,67.900497,64.122467,60.792679,58.532822,57.569214,57.675045,58.321301,58.962868,59.29797,59.343987,59.283253,59.186687,58.818356,57.685226,55.33535,51.723461,47.385128,43.255573,40.192032,38.46793,37.56031,36.396717,33.950962,29.850752,24.634094,19.491154,15.634352,13.660554,13.267226,13.463058,13.117447,11.509471,8.5742378,4.7628484,0.67743963,-3.2475927,-6.8309026,-10.009481,-12.660356,-14.566015,-15.570422,-15.796668,-15.724847,-16.019859,-17.188126,-19.287657,-21.90287,-24.423956,-26.457466,-28.093237,-29.839745,-32.261303,-35.554207,-39.34536,-42.851849,-45.304688,-46.371952,-46.327213,-45.880783,-45.802357,-46.571747,-48.240261,-50.525536,-53.020073,-55.363548,-57.310196,-58.730854,-59.628181,-60.187893,-60.799492,-61.953392,-64.000992,-66.897263,-70.117615,-72.8694,-74.526649,-75.034966,-75.005127,-75.387703,-76.896317,-79.536942,-82.560204,-84.890404,-85.769936,-85.206924,-83.939583,-82.953255,-82.884636,-83.713341,-84.927086,-86.006805,-86.856056,-87.855499,-89.51458,-92.001991,-94.931625,-97.586433,-99.421844,-100.46207,-101.26731,-102.47245,-104.23962,-106.06269,-107.11794,-106.93539,-105.87934,-105.01187,-105.34003,-106.92927,-108.54401,-108.18557,-104.29936,-96.917435,-87.95636,-80.376541,-76.634102,-77.344093,-80.984108,-84.835197,-86.583183,-85.591881,-83.083023,-81.168999,-81.414848,-83.877068,-87.210648,-89.705101,-90.500893,-90.15258,-90.183601,-91.979073,-95.803078,-100.61574,-104.79411,-107.23531,-108.07063,-108.50707,-109.92683,-112.88353,-116.69099,-119.8765,-121.17044,-120.34338,-118.32335,-116.53156,-115.91122,-116.3199,-116.69078,-115.83301,-113.31121,-109.8049,-106.71536,-105.2968,-105.89427,-107.77704,-109.64542,-110.44939,-109.98137,-108.8895,-108.15634,-108.42204,-109.59196,-110.94171,-111.59866,-111.06305,-109.45923,-107.42064,-105.74434,-105.04709,-105.58458,-107.24638,-109.6404,-112.18981,-114.24038,-115.21993,-114.8493,-113.31059,-111.23278,-109.42857,-108.48119,-108.41949,-108.70755,-108.59287,-107.61156,-105.91857,-104.20472,-103.23564,-103.31832,-104.07069,-104.67434,-104.45289,-103.37552,-102.11622,-101.59938,-102.32855,-103.96732,-105.48727,-105.81136,-104.52743,-102.17973,-99.922462,-98.758324,-98.879753,-99.570747,-99.744644,-98.748833,-96.872353,-95.188049,-94.819519,-96.127541,-98.378716,-100.1376,-100.13225,-98.019615,-94.546898,-91.019012,-88.454086,-87.010933,-86.066658,-84.85553,-83.181892,-81.669128,-81.341682,-82.820473,-85.705292,-88.610184,-89.879509,-88.544273,-84.901581,-80.33857,-76.514282,-74.425797,-73.943108,-74.070671,-73.709389,-72.382339,-70.449295,-68.714149,-67.751839,-67.458389,-67.144394,-66.090378,-64.146492,-61.925087,-60.421928,-60.308472,-61.381184,-62.565575,-62.510803,-60.416836,-56.571609,-52.248062,-49.007477,-47.822609,-48.542229,-50.007668,-50.740383,-49.788738,-47.245388,-44.155231,-41.89167,-41.373234,-42.562916,-44.514221,-45.915573,-45.813919,-44.112782,-41.574574,-39.333668,-38.19643,-38.125366,-38.211315,-37.17284,-34.121971,-29.163973,-23.462452,-18.685686,-16.109451,-15.882555,-16.908091,-17.461428,-16.226273,-13.146662,-9.5554972,-7.4442449,-8.2601891,-11.938818,-16.782125,-20.309153,-20.613852,-17.432585,-12.272909,-7.5118403,-5.0006194,-5.0187569,-6.205173,-6.486167,-4.4022098,0.00084148854,5.2563038,9.4465971,11.409595,11.405203,10.84205,11.28757,13.440581,16.740023,19.833567,21.548393,21.685205,21.103409,21.067324,22.3298,24.596403,26.734791,27.572096,26.721031,24.867172,23.331987,23.226316,24.779209,27.284918,29.665665,31.218092,32.001366,32.607548,33.525032,34.61948,35.18272,34.577812,33.036251,31.98152,33.51823,39.278141,49.291729,61.620033,73.067833,80.650116,83.010796,80.999825,77.105339,74.104141,73.723564,76.044121,79.876236,83.746513,86.807823,89.125008,91.2603,93.559334,95.704422,96.868256,96.348679,94.214531,91.479797,89.647324,89.894241,92.41494,96.334435,100.23418,102.94638,104.12554,104.28014,104.30975,104.8959,106.1451,107.66998,108.98383,109.89159,110.60571,111.5419,112.98257,114.86993,116.86786,118.61813,119.97736,121.05574,122.0477,123.01327,123.80207,124.18832,124.10333,123.7602,123.54074,123.70575,124.15002,124.41924,124.02721,122.8784,121.48801,120.79673,121.64362,124.21049,127.80542,131.15993,133.09213,133.14671,131.82538,130.26956,129.59193,130.25925,131.88086,133.49594,134.15393,133.43321,131.6194,129.4935,127.90279,127.37047,127.92332,129.16174,130.47839,131.30656,131.32269,130.57048,129.47694,128.71863,128.92496,130.30025,132.35342,133.94455,133.72469,130.80573,125.29945,118.3697,111.69317,106.59124,103.34165,101.11284,98.594116,94.94014,90.413506,86.274857,83.952477,84.017311,85.655655,87.037605,86.39817,83.158569,78.353821,74.057541,72.14019,73.138222,75.952774,78.566803,79.315422,77.894417,75.475067,73.883041,74.401054,76.974747,80.305054,82.711761,83.160347,81.778862,79.5783,77.645477,76.416328,75.537048,74.36837,72.712601,71.179451,70.867218,72.534019,75.823128,79.113541,80.18483,77.362381,70.489342,61.154613,52.034084,45.700565,43.528252,45.221069,49.123108,53.064548,55.282875,55.014404,52.586472,49.090397,45.852352,43.922924,43.735374,45.007149,46.900295,48.394421,48.744255,47.825542,46.181362,44.707649,44.118732,44.492687,45.18895,45.227875,43.929668,41.416382,38.631107,36.81583,36.741566,38.169342,39.901962,40.424999,38.759823,35.008282,30.259424,25.931684,22.977322,21.446671,20.655827,19.796772,18.54673,17.259649,16.630413,17.093756,18.399162,19.671209,19.920544,18.656487,16.184706,13.394017,11.185893,9.9353905,9.3346806,8.6951571,7.469655,5.6207285,3.5910685,1.9255316,0.83890069,0.048996761,-1.0087421,-2.7487519,-5.1031914,-7.5311651,-9.3629332,-10.235536,-10.317269,-10.174741,-10.389336,-11.198742,-12.405795,-13.594697,-14.473543,-15.0831,-15.725835,-16.686417,-17.971869,-19.280441,-20.22994,-20.672987,-20.852554,-21.263496,-22.305126,-23.973917,-25.830187,-27.282322,-28.000227,-28.164417,-28.360426,-29.174316,-30.763184,-32.707409,-34.267929,-34.892178,-34.629005,-34.156952,-34.381054,-35.846012,-38.350395,-41.029663,-42.876415,-43.378082,-42.866169,-42.346256,-42.904167,-45.051342,-48.410839,-51.932186,-54.496727,-55.542965,-55.344707,-54.802204,-54.904934,-56.205486,-58.603683,-61.521179,-64.303581,-66.573326,-68.332321,-69.805862,-71.189636,-72.496399,-73.592316,-74.356697,-74.812561,-75.118484,-75.440277,-75.828262,-76.223412,-76.602158,-77.136475,-78.203239,-80.173897,-83.090485,-86.458847,-89.355957,-90.858055,-90.566956,-88.905815,-86.962852,-85.932312,-86.465752,-88.32682,-90.57106,-92.149384,-92.564255,-92.169693,-91.930824,-92.804306,-95.142517,-98.503761,-101.97928,-104.80424,-106.83099,-108.53353,-110.52617,-112.90936,-114.88779,-114.94955,-111.5514,-103.93796,-92.633049,-79.327278,-66.230019,-55.241955,-47.372715,-42.650326,-40.473644,-40.127064,-41.138348,-43.311974,-46.498802,-50.320133,-54.066196,-56.853531,-57.953594,-57.102257,-54.620193,-51.288013,-48.050735,-45.697666,-44.647926,-44.895153,-46.082966,-47.641991,-48.931129,-49.365612,-48.542366,-46.365334,-43.135715,-39.540157,-36.481281,-34.764435,-34.75132,-36.15556,-38.127934,-39.648136,-40.061451,-39.475861,-38.762474,-39.095142,-41.236099,-44.964077,-49.014568,-51.640427,-51.535095,-48.609631,-44.14962,-40.210918,-38.560078,-39.757355,-42.91835,-46.295578,-48.323917,-48.489426,-47.495724,-46.653816,-46.921169,-48.237175,-49.594677,-49.784687,-48.290401,-45.70121,-43.346478,-42.392479,-43.030895,-44.34042,-44.943378,-44.017101,-41.945946,-40.120667,-39.972538,-41.880402,-44.721657,-46.44009,-45.323551,-41.177727,-35.602661,-31.135923,-29.764116,-31.735744,-35.436085,-38.4104,-38.881599,-36.789474,-33.69355,-31.625807,-31.665939,-33.189888,-34.298542,-33.160381,-29.40423,-24.660326,-21.884287,-23.855484,-31.73415,-44.493828,-59.48753,-73.734009,-85.146088,-93.061684,-97.941536,-100.6099,-101.61334,-101.0732,-98.996689,-95.692734,-91.916443,-88.618027,-86.486259,-85.621819,-85.563583,-85.626755,-85.301117,-84.447479,-83.209435,-81.773514,-80.199821,-78.450294,-76.554199,-74.726967,-73.299232,-72.482422,-72.155518,-71.871506,-71.1297,-69.752884,-68.103775,-66.962601,-67.110619,-68.868668,-71.877396,-75.250099,-77.989876,-79.407707,-79.308113,-77.891533,-75.514557,-72.513374,-69.195099,-65.93087,-63.185169,-61.372257,-60.596966,-60.477581,-60.237263,-59.079144,-56.644627,-53.2593,-49.779438,-47.10564,-45.6562,-45.132248,-44.723541,-43.619034,-41.491444,-38.652184,-35.799847,-33.553757,-32.09119,-31.112446,-30.118185,-28.772352,-27.086456,-25.314384,-23.670048,-22.108353,-20.35161,-18.14739,-15.557567,-13.041615,-11.238723,-10.572333,-10.940021,-11.709311,-12.04313,-11.360395,-9.645999,-7.419405,-5.3868289,-3.9955969,-3.1592908,-2.3063831,-0.7070933,2.1198051,6.1418753,10.809529,15.286202,18.779585,20.825567,21.429998,21.045719,20.4121,20.307768,21.28145,23.443388,26.405005,29.420593,31.701675,32.777073,32.720787,32.116016,31.757912,32.248768,33.710461,35.776569,37.860275,39.525692,40.728531,41.780354,43.073509,44.76162,46.61747,48.168198,49.016697,49.12862,48.882824,48.841,49.382996,50.450924,51.579697,52.205414,52.057167,51.374779,50.799191,50.988468,52.191181,54.045391,55.74184,56.471382,55.903442,54.417675,52.949188,52.526237,53.750301,56.496784,59.988354,63.189384,65.304085,66.120575,66.041634,65.817101,66.143822,67.348511,69.299675,71.557098,73.642517,75.269958,76.424789,77.285622,78.075066,78.949509,79.987183,81.249008,82.829292,84.824799,87.223,89.791626,92.078629,93.575165,93.983803,93.44059,92.535118,92.07428,92.690308,94.506119,97.06015,99.553093,101.28674,102.04053,102.15854,102.29173,102.95446,104.1755,105.46969,106.15433,105.81089,104.59164,103.16244,102.3035,102.41344,103.23322,103.97631,103.79883,102.32871,99.932213,97.553596,96.220589,96.502731,98.226173,100.58681,102.57212,103.44467,103.03893,101.75892,100.33343,99.487122,99.677231,100.96722,103.03269,105.26757,106.96912,107.58145,106.93922,105.40172,103.76408,102.92158,103.4155,105.10739,107.20773,108.70047,108.95149,108.13158,107.15245,107.09418,108.43476,110.55701,111.87961,110.59415,105.61228,97.179031,86.796089,76.50882,67.984589,61.908733,57.993011,55.490463,53.810257,52.818001,52.67738,53.433945,54.714085,55.797932,56.019833,55.187889,53.691204,52.197243,51.156635,50.488979,49.697315,48.335098,46.466698,44.736305,43.927624,44.276535,45.019531,44.551048,41.180244,34.074692,23.828905,12.307083,1.8450787,-5.7283673,-9.7165413,-10.548628,-9.2661438,-6.8981366,-4.1018543,-1.1838468,1.6743066,4.2675982,6.4419284,8.2893553,10.216781,12.723877,15.977624,19.489864,22.200045,23.011219,21.490429,18.272186,14.843803,12.773829,12.822602,14.484043,16.262264,16.533089,14.474373,10.508139,6.0093021,2.4924102,0.79442549,0.73727638,1.4201016,1.889075,1.7257301,1.1992118,0.94806075,1.4629474,2.7334526,4.2638474,5.3898778,5.6420164,4.9163685,3.3947875,1.3452716,-1.0104297,-3.4807179,-5.8204532,-7.7337346,-9.0320377,-9.8409681,-10.636086,-11.958408,-13.894052,-15.641523,-15.541018,-11.719731,-3.120435,9.6312733,24.077389,36.712166,44.400356,45.737247,41.640919,34.85421,28.613451,25.180445,24.982664,26.744524,28.439819,28.474911,26.452154,23.169466,19.975834,17.942677,17.343988,17.682484,18.142639,18.120794,17.500217,16.557552,15.641505,14.886502,14.154262,13.207184,11.951881,10.559097,9.3735113,8.6844769,8.5214558,8.6089106,8.4986334,7.7834072,6.2632952,3.993506,1.2340704,-1.6291349,-4.1457281,-5.8602934,-6.4193306,-5.7378945,-4.1534591,-2.4370334,-1.5688221,-2.3199549,-4.8336124,-8.4585419,-11.989647,-14.250711,-14.737811,-13.967217,-13.301042,-14.297154,-17.896112,-23.863213,-30.785076,-36.640392,-39.675049,-39.164238,-35.708786,-30.945267,-26.826941,-24.818655,-25.366032,-27.851383,-31.015865,-33.616882,-34.995796,-35.291237,-35.220341,-35.573795,-36.720539,-38.409679,-39.985531,-40.882828,-41.086132,-41.239479,-42.296741,-44.899422,-48.870998,-53.182026,-56.464607,-57.798695,-57.285969,-56.023277,-55.449795,-56.449295,-58.773354,-61.172855,-62.181496,-61.065849,-58.33033,-55.438366,-53.916672,-54.417877,-56.351795,-58.326836,-59.108604,-58.459934,-57.30542,-57.114826,-58.919827,-62.61842,-67.020996,-70.590179,-72.366875,-72.466934,-71.844154,-71.523148,-71.8601,-72.347328,-72.079681,-70.52813,-68.052383,-65.772545,-64.875824,-65.834373,-68.076706,-70.344215,-71.494606,-71.212616,-70.158684,-69.474388,-69.995979,-71.710625,-73.804459,-75.239349,-75.442627,-74.64032,-73.632347,-73.198837,-73.568314,-74.31076,-74.704529,-74.294121,-73.2369,-72.202721,-71.912399,-72.647957,-74.072372,-75.467239,-76.205521,-76.127083,-75.574211,-75.09462,-75.049225,-75.409096,-75.870972,-76.181564,-76.413223,-76.97628,-78.348915,-80.709335,-83.725662,-86.652138,-88.677673,-89.314545,-88.602043,-87.028297,-85.246208,-83.763168,-82.765053,-82.128647,-81.565918,-80.79921,-79.692009,-78.312546,-76.93528,-75.978485,-75.866493,-76.830597,-78.721817,-80.953873,-82.667068,-83.090805,-81.942123,-79.631035,-77.117516,-75.457779,-75.275192,-76.459366,-78.275604,-79.820679,-80.544258,-80.514442,-80.272148,-80.388802,-81.033775,-81.844948,-82.184753,-81.600319,-80.169525,-78.497185,-77.368034,-77.293983,-78.254028,-79.777328,-81.275116,-82.363724,-82.954956,-83.091278,-82.715691,-81.622452,-79.684059,-77.197548,-75.035339,-74.360863,-75.955841,-79.518288,-83.403793,-85.087509,-82.214767,-73.731125,-60.484207,-44.948509,-30.198935,-18.666553,-11.308975,-7.5660653,-6.0164394,-5.2799368,-4.6372957,-4.0800486,-3.8859069,-4.091856,-4.2490244,-3.6106486,-1.5981609,1.7869461,5.8856559,9.6899691,12.345371,13.549994,13.638783,13.343647,13.402912,14.247969,15.907701,18.118805,20.517902,22.781624,24.660107,25.945829,26.463272,26.129486,25.057592,23.616232,22.366037,21.86602,22.432749,23.982121,26.054121,28.02656,29.417885,30.122562,30.451487,30.951302,32.0975,34.028324,36.46703,38.875523,40.750088,41.88665,42.460442,42.876945,43.491859,44.37989,45.300774,45.882275,45.896317,45.441353,44.907398,44.750271,45.234718,46.327557,47.810234,49.514175,51.482121,53.908459,56.883057,60.136147,63.017311,64.794823,65.11998,64.338974,63.388145,63.270767,64.418098,66.366653,68.017311,68.362061,67.21579,65.426575,64.338005,64.773582,66.184975,66.582436,63.42395,55.033978,41.738373,26.005417,11.437336,1.1339071,-3.6706696,-3.9544141,-2.0970042,-0.44352749,-0.10491255,-0.65385664,-0.78756487,0.56233829,3.4180293,6.7326736,9.1043234,9.7085886,8.8320875,7.6902585,7.6904325,9.6343937,13.344169,17.880878,22.14209,25.42259,27.613684,29.000723,29.88419,30.322409,30.152437,29.218596,27.596857,25.636881,23.804878,22.463898,21.75959,21.6759,22.180548,23.311058,25.112221,27.472975,30.013327,32.155052,33.37989,33.530693,32.954502,32.369709,32.509304,33.736717,35.853573,38.206501,40.027718,40.818569,40.577812,39.777046,39.122845,39.237556,40.398838,42.421913,44.697876,46.356762,46.510006,44.523178,40.257153,34.199749,27.415581,21.291592,17.138758,15.787707,17.337286,21.159889,26.157351,31.153261,35.25724,38.066174,39.654453,40.400295,40.752331,41.041023,41.395966,41.77248,42.046635,42.119987,41.984371,41.723568,41.462124,41.298183,41.264465,41.343369,41.524071,41.85482,42.436832,43.341488,44.492081,45.597103,46.213295,45.94569,44.694992,42.80394,40.984341,40.021877,40.394081,42.009338,44.226234,46.160141,47.116524,46.911011,45.900574,44.720985,43.90015,43.584442,43.535374,43.377354,42.919006,42.328762,42.045918,42.481651,43.700867,45.288948,46.49551,46.582348,45.187542,42.51503,39.261185,36.328526,34.472889,34.040768,34.890602,36.501678,38.204449,39.436981,39.938683,39.818737,39.475044,39.388615,39.871098,40.878643,41.993664,42.605984,42.219151,40.724979,38.486427,36.1642,34.369766,33.340168,32.83139,32.304306,31.299147,29.770067,28.164667,27.183634,27.353964,28.672615,30.544222,32.064663,32.494186,31.648867,29.985899,28.338017,27.453661,27.603092,28.460056,29.302982,29.403788,28.387037,26.385756,23.949545,21.790604,20.51025,20.418793,21.483891,23.378403,25.580931,27.502867,28.635756,28.703701,27.77298,26.250689,24.732689,23.737549,23.446049,23.592505,23.591913,22.858606,21.151299,18.746309,16.325603,14.628802,14.060153,14.476088,15.277133,15.749732,15.455012,14.436087,13.128964,12.04475,11.429059,11.112414,10.640153,9.592309,7.8863401,5.8709927,4.1545749,3.2770154,3.4255774,4.3559337,5.5437512,6.4509711,6.7368269,6.3060474,5.2145271,3.5519767,1.4209194,-0.96536058,-3.1636534,-4.5069609,-4.3151226,-2.2412965,1.4405968,5.8135009,9.6359119,11.877908,12.203108,11.130042,9.7708788,9.2786341,10.296728,12.699805,15.74383,18.510708,20.376387,21.241856,21.428778,21.350145,21.19175,20.810808,19.90143,18.298193,16.202421,14.171293,12.86627,12.711073,13.665305,15.245749,16.777124,17.721149,17.898825,17.496857,16.882799,16.358603,16.000828,15.665651,15.130233,14.266282,13.137218,11.96954,11.027966,10.4738,10.283824,10.263769,10.138217,9.6669731,8.7367477,7.3969359,5.834043,4.2987905,3.0126066,2.0860102,1.4813215,1.0390918,0.56299406,-0.072814733,-0.84675556,-1.5879221,-2.0569839,-2.0735223,-1.6258292,-0.90786535,-0.26591399,-0.082116626,-0.64560431,-2.0560164,-4.1803694,-6.6658058,-9.0082455,-10.680916,-11.314182,-10.879837,-9.7889214,-8.806468,-8.7524605,-10.082781,-12.55865,-15.228677,-16.818663,-16.394131,-13.958427,-10.615693,-8.1227303,-7.9950619,-10.628708,-14.955091,-18.894747,-20.43247,-18.755653,-14.815161,-10.958945,-9.7999659,-12.918125,-20.096609,-29.490614,-38.59734,-45.456158,-49.416138,-51.107754,-51.748379,-52.287102,-52.92939,-53.277287,-52.893749,-51.835056,-50.756153,-50.521248,-51.609642,-53.749557,-56.049034,-57.544743,-57.800972,-57.159832,-56.485924,-56.592464,-57.743042,-59.555511,-61.345745,-62.644249,-63.508858,-64.413864,-65.804794,-67.65065,-69.33268,-69.977142,-69.029343,-66.690437,-63.916229,-61.953606,-61.683449,-63.156494,-65.585533,-67.780106,-68.760262,-68.210548,-66.559563,-64.695496,-63.509457,-63.503819,-64.61895,-66.30069,-67.73494,-68.147827,-67.083069,-64.583878,-61.21431,-57.881824,-55.493294,-54.575058,-55.047516,-56.299702,-57.55315,-58.319405,-58.668903,-59.122307,-60.212818,-62.002773,-63.900902,-64.953842,-64.468681,-62.572498,-60.309505,-59.146606,-60.140629,-63.265881,-67.333931,-70.586578,-71.626274,-70.135246,-66.966599,-63.582649,-61.212994,-60.252632,-60.232349,-60.30769,-59.890202,-58.993324,-58.100067,-57.703629,-57.883827,-58.226837,-58.129589,-57.253132,-55.794888,-54.393208,-53.74184,-54.184227,-55.548485,-57.296959,-58.847794,-59.83567,-60.166321,-59.897453,-59.10199,-57.84586,-56.275627,-54.686272,-53.440132,-52.741154,-52.424698,-51.963394,-50.7584,-48.565952,-45.767574,-43.253696,-41.936073,-42.172207,-43.479595,-44.75473,-44.886711,-43.387039,-40.635281,-37.589394,-35.164158,-33.698147,-32.857151,-32.010399,-30.782328,-29.364481,-28.352131,-28.223976,-28.85586,-29.454685,-29.009449,-26.982676,-23.768904,-20.574249,-18.745064,-18.946941,-20.713768,-22.666615,-23.283493,-21.75684,-18.42577,-14.542127,-11.540959,-10.273465,-10.650516,-11.861404,-12.971487,-13.49307,-13.584147,-13.796656,-14.585067,-15.915754,-17.223349,-17.72406,-16.875751,-14.701852,-11.79621,-9.0206785,-7.0745406,-6.1668501,-5.9492297,-5.7227945,-4.7999964,-2.8387661,0.0080582518,3.1913092,6.0557075,8.1715612,9.5331774,10.51326,11.593461,13.025686,14.635957,15.913664,16.35652,15.863897,14.908013,14.326998,14.824171,16.475954,18.589603,20.059013,20.044168,18.556576,16.546984,15.384295,16.013575,18.323751,21.160517,23.022646,23.026583,21.51791,19.906399,19.79488,21.945137,25.755915,29.614014,31.911791,32.074726,30.918989,30.089922,30.942421,33.605648,36.865929,38.962914,38.779728,36.629013,34.089355,32.971432,34.079021,36.585155,38.457729,37.690384,33.566582,27.154898,20.720753,16.427265,15.138939,16.058214,17.380228,17.50742,16.036119,13.911878,12.708667,13.54632,16.361778,19.982325,22.908422,24.262453,24.283033,24.071463,24.794712,26.88875,29.777733,32.267273,33.330994,32.772034,31.344318,30.276077,30.512016,32.14719,34.384151,36.013046,36.106407,34.518101,31.921175,29.403252,27.88323,27.68362,28.469652,29.541687,30.278536,30.47349,30.394569,30.567022,31.422983,33.017097,34.954643,36.559216,37.187321,36.533043,34.781212,32.545837,30.631165,29.727055,30.168432,31.846786,34.287533,36.838272,38.881596,39.999027,40.052048,39.182816,37.752735,36.233959,35.066429,34.506863,34.521713,34.78756,34.833134,34.286232,33.111568,31.697533,30.70738,30.738026,31.958122,33.940853,35.821281,36.72802,36.265484,34.767494,33.153183,32.438385,33.162838,35.05685,37.147221,38.256035,37.623451,35.314548,32.193146,29.4856,28.175957,28.549192,30.101767,31.836435,32.770542,32.406769,30.964268,29.296066,28.550703,29.718365,33.223267,38.701084,45.048679,50.756954,54.438602,55.365883,53.789707,50.86898,48.200756,47.141441,48.23666,51.042255,54.422642,57.15546,58.508018,58.48148,57.631226,56.629097,55.872803,55.380062,54.983685,54.625736,54.48885,54.842426,55.717453,56.680435,56.931278,55.72451,52.86475,48.938732,45.093605,42.464546,41.594128,42.202591,43.442883,44.458115,44.868111,44.877548,44.972492,45.46014,46.204159,46.747219,46.712463,46.156731,45.575932,45.522285,46.0998,46.728836,46.410343,44.371861,40.683449,36.405018,33.106056,32.007244,33.260807,35.825436,38.033047,38.515724,36.938766,34.111504,31.436991,30.062414,30.252573,31.340187,32.231663,32.113136,30.91177,29.258644,28.027437,27.772882,28.418213,29.351856,29.830587,29.419008,28.209852,26.730198,25.626337,25.322414,25.825306,26.743044,27.473511,27.461063,26.417707,24.436922,21.965202,19.634546,18.003824,17.304976,17.313652,17.431095,16.969091,15.51424,13.181946,10.608505,8.664032,8.0268383,8.8437557,10.655148,12.613017,13.858934,13.854599,12.511658,10.103849,7.0685091,3.8375199,0.77285743,-1.8199685,-3.6832385,-4.6587391,-4.7750759,-4.2867184,-3.5972626,-3.0845718,-2.9314249,-3.0796545,-3.346673,-3.6239862,-4.0072961,-4.7468057,-6.0356936,-7.7840133,-9.5578651,-10.76477,-10.996957,-10.318936,-9.2978296,-8.7254925,-9.1784058,-10.674913,-12.642805,-14.228189,-14.772207,-14.18244,-12.989727,-12.066354,-12.172338,-13.582479,-15.98529,-18.684072,-20.969091,-22.455597,-23.223671,-23.713877,-24.457636,-25.78982,-27.682537,-29.768318,-31.529442,-32.555603,-32.744747,-32.349926,-31.848877,-31.702295,-32.128139,-33.017128,-34.039429,-34.880901,-35.46246,-35.997478,-36.838467,-38.203213,-39.96196,-41.643353,-42.682209,-42.76841,-42.074196,-41.199898,-40.854061,-41.459709,-42.933765,-44.777946,-46.415073,-47.542057,-48.263783,-48.928345,-49.796524,-50.797527,-51.561089,-51.713654,-51.224888,-50.538033,-50.356571,-51.201424,-53.026512,-55.163036,-56.655853,-56.798088,-55.535179,-53.490406,-51.605755,-50.631523,-50.777245,-51.710709,-52.856201,-53.762581,-54.30262,-54.616505,-54.90213,-55.243088,-55.598736,-55.926308,-56.29277,-56.853722,-57.707714,-58.762093,-59.756107,-60.457996,-60.882595,-61.31094,-62.009819,-62.78664,-62.701328,-60.234989,-53.958424,-43.399784,-29.609232,-15.019141,-2.5709846,5.4904003,8.5339298,7.6873822,5.1482534,3.0547299,2.5303254,3.3787477,4.5085244,4.760643,3.6314275,1.510406,-0.62216592,-1.7847182,-1.5011004,0.032157537,2.1402295,4.0496993,5.2225022,5.497808,5.0351033,4.1500649,3.1506486,2.2374125,1.4800894,0.85426223,0.31390294,-0.13194871,-0.38167244,-0.28252879,0.24811138,1.0862412,1.8580112,2.0710421,1.3944517,-0.063582629,-1.6813502,-2.5644748,-2.0209713,-0.010198905,2.7264416,4.9820442,5.7041626,4.5661135,2.1419864,-0.43058169,-2.0978172,-2.449333,-1.8523875,-1.1043779,-0.86105573,-1.2322019,-1.8017578,-2.022202,-1.6712028,-1.0260464,-0.62830061,-0.81961232,-1.404263,-1.708457,-1.0181971,0.90286136,3.5853612,6.0909204,7.5662975,7.7462974,7.0739279,6.3739901,6.320837,7.0671186,8.2625675,9.4004488,10.200137,10.736055,11.244234,11.804381,12.19593,12.079823,11.372704,10.482637,10.134319,10.808468,12.146745,12.781563,10.828308,4.8515515,-5.2337575,-17.887783,-30.517664,-40.612556,-46.818546,-49.370724,-49.694904,-49.482769,-49.820385,-50.849552,-52.05555,-52.873959,-53.155102,-53.194687,-53.38707,-53.82663,-54.190758,-53.997742,-53.033752,-51.607105,-50.411415,-50.068211,-50.663181,-51.612091,-51.975784,-51.038174,-48.777443,-45.923073,-43.555992,-42.499107,-42.871021,-44.063263,-45.131325,-45.341557,-44.541164,-43.152267,-41.8335,-41.047611,-40.805866,-40.726089,-40.337124,-39.417801,-38.153709,-37.020596,-36.474735,-36.644165,-37.210583,-37.557159,-37.103226,-35.637459,-33.457531,-31.227402,-29.620041,-28.938801,-28.934324,-28.935173,-28.236343,-26.535116,-24.159788,-21.94054,-20.772957,-21.110954,-22.681866,-24.59918,-25.81876,-25.678097,-24.205187,-22.021898,-19.916397,-18.362499,-17.291302,-16.250164,-14.825806,-13.030333,-11.37153,-10.540752,-10.915394,-12.212934,-13.55206,-13.919979,-12.777479,-10.427887,-7.905879,-6.4284534,-6.7165456,-8.5767002,-10.980601,-12.591979,-12.440935,-10.379975,-7.1003289,-3.7428737,-1.3486003,-0.44467166,-0.94393152,-2.3388731,-4.0194826,-5.5181065,-6.5768695,-7.068068,-6.8853803,-5.9165831,-4.1256423,-1.6777661,1.0011224,3.3041892,4.6502542,4.7214541,3.6072011,1.7713586,-0.15051946,-1.6278765,-2.4487395,-2.7637248,-2.9407451,-3.3108075,-3.9440134,-4.5813575,-4.7636151,-4.0898838,-2.4623795,-0.17761829,2.1932676,4.074327,5.1583657,5.5355258,5.6106491,5.8633099,6.5905395,7.7746835,9.1383486,10.336348,11.159136,11.626587,11.927367,12.256709,12.663337,13.002934,13.024067,12.530742,11.522133,10.22784,9.0193787,8.2479162,8.0946064,8.5085983,9.2578726,10.059893,10.720565,11.210279,11.641742,12.168954,12.870938,13.694158,14.493889,15.152979,15.700324,16.33968,17.346989,18.880392,20.817915,22.742165,24.112717,24.546709,24.043001,23.000828,22.003067,21.48855,21.522549,21.823378,22.035566,22.064112,22.223421,23.064911,24.967663,27.761055,30.661499,32.619743,32.902092,31.549904,29.409613,27.684284,27.266361,28.262508,30.00662,31.542618,32.251495,32.205246,32.020153,32.328236,33.250664,34.256992,34.522892,33.544453,31.573948,29.552986,28.561272,29.139818,30.946699,32.986359,34.264973,34.430714,33.964424,33.792614,34.591068,36.26157,37.945839,38.572258,37.564762,35.23349,32.58559,30.690535,30.031321,30.269901,30.560007,30.164455,28.940025,27.369865,26.159552,25.722553,25.943714,26.385763,26.762173,27.292509,28.637697,31.42556,35.694538,40.671829,45.088348,47.862514,48.716995,48.319977,47.851692,48.276958,49.794899,51.808331,53.400562,53.972713,53.608086,52.942089,52.667549,53.04837,53.782314,54.284325,54.154644,53.475613,52.724636,52.386425,52.57132,52.934971,52.959553,52.377155,51.40345,50.591419,50.406227,50.845188,51.407661,51.464252,50.766376,49.707756,49.107273,49.626492,51.221443,53.040257,53.890106,52.997738,50.55891,47.685387,45.752098,45.557526,46.851799,48.550861,49.49369,49.226631,48.274857,47.710873,48.318913,49.944904,51.507011,51.691139,49.87352,46.633835,43.478931,41.926311,42.540142,44.565739,46.423019,46.748486,45.299831,43.116188,41.813755,42.471966,44.845234,47.431202,48.369965,46.606041,42.572361,37.963943,34.752007,34.065315,35.628067,38.06625,39.834419,40.141968,39.303009,38.345554,38.205212,39.070415,40.297836,40.900208,40.221024,38.309978,35.7528,33.107533,30.375557,26.905777,21.823229,14.70806,6.0731034,-2.6867085,-9.8664341,-14.218305,-15.483937,-14.422429,-12.369366,-10.610147,-9.9027185,-10.341113,-11.531724,-12.90584,-13.98389,-14.504981,-14.441609,-13.960841,-13.364812,-13.001876,-13.139855,-13.838269,-14.897011,-15.939667,-16.606333,-16.74143,-16.445621,-15.947364,-15.386658,-14.686787,-13.641457,-12.182496,-10.629024,-9.6859455,-10.106918,-12.183632,-15.39648,-18.52001,-20.212786,-19.792379,-17.722738,-15.463942,-14.703629,-16.383745,-20.098846,-24.249895,-26.89455,-26.811169,-24.158493,-20.35495,-17.27186,-16.237432,-17.433868,-19.994865,-22.663893,-24.546797,-25.487267,-25.893227,-26.227179,-26.579954,-26.643501,-26.073824,-24.929386,-23.80538,-23.507521,-24.460653,-26.274511,-27.81974,-27.837547,-25.733892,-22.051367,-18.28549,-16.114988,-16.488377,-19.109877,-22.627846,-25.402021,-26.38262,-25.587627,-23.934465,-22.585995,-22.251768,-22.872215,-23.83466,-24.516806,-24.758204,-24.937969,-25.6241,-27.057442,-28.847034,-30.11245,-30.010429,-28.321638,-25.716631,-23.503683,-22.971481,-24.688271,-28.155828,-32.021984,-34.742878,-35.337379,-33.830208,-31.160013,-28.627497,-27.207037,-27.104589,-27.787176,-28.429092,-28.481674,-28.013823,-27.623766,-27.993944,-29.386538,-31.415297,-33.254116,-34.158497,-33.962978,-33.216343,-32.839058,-33.499195,-35.105122,-36.764454,-37.276878,-35.88319,-32.807922,-29.236338,-26.707352,-26.270393,-27.912458,-30.602455,-32.919662,-33.872303,-33.402679,-32.287186,-31.532354,-31.685066,-32.509457,-33.220306,-33.083389,-31.954941,-30.390879,-29.26469,-29.173876,-30.053719,-31.262163,-32.063557,-32.159138,-31.883209,-31.923962,-32.766861,-34.258564,-35.610733,-35.860985,-34.492085,-31.798033,-28.752142,-26.461517,-25.558931,-25.911446,-26.803408,-27.439177,-27.419142,-26.892166,-26.328644,-26.116089,-26.277876,-26.500841,-26.42407,-25.95899,-25.401562,-25.255302,-25.887829,-27.252542,-28.854729,-29.979061,-30.039352,-28.859438,-26.759184,-24.436605,-22.723137,-22.305878,-23.485441,-26.018723,-29.104433,-31.571045,-32.274689,-30.596886,-26.815474,-22.106049,-18.078753,-16.014553,-16.187265,-17.678255,-18.854496,-18.299122,-15.683446,-12.055904,-9.3337421,-9.2507181,-12.354553,-17.643068,-23.065147,-26.605345,-27.327263,-25.781574,-23.569468,-22.352139,-22.907299,-24.773281,-26.64299,-27.217386,-25.978533,-23.432386,-20.723494,-18.905869,-18.334629,-18.53009,-18.554934,-17.63916,-15.66888,-13.272025,-11.492496,-11.274148,-13.049659,-16.624542,-21.353456,-26.448505,-31.226257,-35.188118,-37.965137,-39.248005,-38.814274,-36.670475,-33.215611,-29.280087,-25.942158,-24.149733,-24.309967,-26.067242,-28.425383,-30.200232,-30.599804,-29.6299,-28.086573,-27.108107,-27.511494,-29.284365,-31.541529,-33.000076,-32.717064,-30.65634,-27.730406,-25.269394,-24.226213,-24.607838,-25.500227,-25.687202,-24.477737,-22.202934,-20.03821,-19.237698,-20.263565,-22.38731,-24.056635,-23.829668,-21.296457,-17.39127,-13.87425,-12.290179,-13.054569,-15.242897,-17.212187,-17.652193,-16.393944,-14.469609,-13.406846,-14.229533,-16.806597,-19.941938,-22.10766,-22.322416,-20.622192,-17.878304,-15.158257,-13.097164,-11.68061,-10.5094,-9.2735529,-8.0496645,-7.2139077,-7.0789361,-7.5724173,-8.2250376,-8.4781199,-8.0626526,-7.1466789,-6.1373277,-5.3068209,-4.5607119,-3.5573308,-2.0969579,-0.4565101,0.64855093,0.51949912,-0.95235848,-3.0403781,-4.5202069,-4.4295006,-2.7420878,-0.44476783,1.1174765,1.2414935,0.53015417,0.70375198,3.5887477,9.8871899,18.532183,27.101669,33.092487,35.288582,34.375042,32.421612,31.578756,32.823841,35.536972,38.121845,39.199619,38.552746,37.206039,36.642525,37.737686,40.158791,42.622868,43.798157,43.200859,41.472366,39.882702,39.451107,40.320313,41.800911,42.993793,43.476551,43.514206,43.636406,43.928905,43.635067,41.460949,36.458576,28.898874,20.48365,13.651946,10.345569,10.990304,14.343008,18.306902,21.191139,22.608608,23.459061,25.062275,28.068825,31.905083,35.123062,36.394268,35.445129,33.278645,31.52597,31.374107,32.807644,34.683578,35.583252,34.849232,33.087185,31.778788,32.262794,34.778397,38.231907,40.864902,41.395283,39.879189,37.718304,36.794754,38.284786,41.909264,46.093262,48.921928,49.279766,47.463112,44.911026,43.264309,43.368752,44.837723,46.40271,46.776455,45.455433,42.972641,40.494217,39.071476,39.044029,39.944973,40.906631,41.250298,40.864185,40.158249,39.685825,39.731903,40.155087,40.56646,40.685135,40.597206,40.725998,41.531361,43.142967,45.176334,46.85923,47.399384,46.381355,43.973988,40.851101,37.890091,35.817448,34.967686,35.234314,36.186657,37.263359,37.954372,37.922298,37.055363,35.462559,33.42226,31.294621,29.417721,28.019936,27.18075,26.851563,26.915962,27.249102,27.74218,28.288656,28.759153,29.000229,28.871264,28.300985,27.326242,26.08593,24.773159,23.575693,22.63542,22.03587,21.800001,21.877403,22.121651,22.288937,22.094368,21.330395,19.997618,18.363586,16.884748,16.000633,15.896205,16.369049,16.896578,16.889708,16.005852,14.347324,12.4254,10.899107,10.226235,10.416624,11.022173,11.367473,10.894415,9.4371796,7.2889309,5.0382648,3.2748308,2.3238134,2.1415608,2.4097004,2.7582376,2.9841835,3.1429219,3.4650137,4.1512179,5.1699643,6.186079,6.6815653,6.2207737,4.7210312,2.5690064,0.49331048,-0.76597333,-0.82860661,0.11436688,1.3759154,2.1072297,1.7163066,0.14386238,-2.1498914,-4.4667311,-6.2443056,-7.3012748,-7.8249216,-8.1428041,-8.4560413,-8.7236338,-8.7681913,-8.5069265,-8.1163216,-7.9841967,-8.4624147,-9.5928602,-11.022852,-12.208217,-12.798639,-12.946822,-13.300563,-14.62738,-17.273157,-20.798485,-24.063482,-25.770544,-25.181959,-22.59255,-19.254864,-16.767385,-16.257469,-17.823219,-20.553696,-23.10927,-24.512949,-24.682005,-24.387016,-24.670153,-26.075712,-28.157137,-29.560781,-28.652895,-24.347992,-16.692204,-6.9021678,3.1366079,11.628662,17.498339,20.616392,21.592625,21.326841,20.593004,19.848309,19.284967,18.995699,19.088537,19.666122,20.709429,21.984406,23.073606,23.541292,23.141392,21.941521,20.286879,18.627399,17.312325,16.466356,15.999891,15.718974,15.448974,15.098886,14.653154,14.133459,13.582409,13.080806,12.759825,12.756546,13.10513,13.625676,13.910028,13.466076,11.980395,9.5588665,6.7821016,4.49968,3.4419334,3.8537002,5.36344,7.1745887,8.4768381,8.8405476,8.3677311,7.5250945,6.7835698,6.3059359,5.8834491,5.1505637,3.9181776,2.3851473,1.0696126,0.49185202,0.81398702,1.6836185,2.4090071,2.3866839,1.5361872,0.47412756,0.2939696,2.0328243,6.0812454,11.836749,17.795969,22.080692,23.192619,20.67738,15.397082,9.258441,4.4692855,2.6136816,3.9496644,7.2734857,10.459244,11.460518,9.3072882,4.5948176,-0.8064391,-4.689116,-5.6070862,-3.5455062,0.18955064,3.7663903,5.8172364,6.0356851,5.0653729,3.8287554,2.8033826,1.7626162,0.14801608,-2.2327461,-4.7529869,-6.1863699,-5.5521302,-3.0535548,-0.42444104,-0.31612816,-4.963551,-14.872508,-28.327068,-42.064362,-52.774887,-58.594013,-59.766918,-58.180172,-56.128746,-55.099869,-55.261749,-55.837044,-55.971786,-55.449711,-54.792526,-54.762066,-55.696224,-57.18964,-58.34428,-58.390419,-57.221355,-55.465611,-54.061657,-53.647404,-54.18684,-55.066711,-55.559219,-55.306877,-54.503006,-53.682526,-53.314415,-53.501579,-53.979782,-54.370335,-54.46476,-54.328434,-54.177826,-54.16927,-54.291126,-54.441341,-54.599094,-54.908619,-55.565399,-56.572231,-57.570488,-57.928692,-57.089317,-54.966633,-52.114059,-49.510635,-48.068455,-48.161346,-49.470638,-51.236176,-52.729874,-53.629604,-54.057896,-54.300934,-54.4533,-54.277481,-53.393566,-51.6534,-49.399933,-47.382549,-46.346588,-46.560787,-47.61039,-48.613811,-48.734776,-47.659409,-45.733063,-43.683701,-42.1357,-41.24493,-40.682487,-39.940884,-38.718838,-37.109104,-35.480469,-34.176647,-33.279148,-32.610859,-31.9561,-31.300198,-30.88151,-31.006279,-31.775761,-32.955666,-34.111187,-34.916073,-35.390266,-35.857475,-36.626595,-37.632999,-38.342594,-38.051678,-36.417191,-33.84161,-31.387587,-30.199472,-30.766184,-32.516102,-34.05785,-33.968754,-31.656279,-27.740587,-23.697708,-20.979288,-20.16984,-20.717882,-21.395748,-21.157814,-19.809141,-18.04006,-16.828819,-16.65374,-17.085392,-17.057539,-15.633827,-12.730467,-9.2757015,-6.6713467,-5.906137,-6.917069,-8.6323671,-9.6677132,-9.205245,-7.4657979,-5.4703517,-4.276207,-4.2298579,-4.7559633,-4.8208351,-3.7346103,-1.7189914,0.17069219,0.73186767,-0.55210155,-3.1024435,-5.5486465,-6.5562644,-5.6385131,-3.4229386,-1.2068962,-0.10312511,-0.33740765,-1.1476847,-1.3314328,-0.067368716,2.5269504,5.452446,7.4466805,7.7573137,6.5862989,4.9497457,4.0703454,4.6938877,6.7343235,9.4204264,11.803841,13.29389,13.910865,14.15529,14.627872,15.659211,17.162201,18.757744,20.058157,20.919767,21.521069,22.240454,23.420578,25.157967,27.230465,29.197979,30.623646,31.30419,31.390226,31.326792,31.63097,32.612587,34.186268,35.888996,37.111275,37.426102,36.831234,35.758812,34.838577,34.5518,34.983807,35.823338,36.599125,36.991711,37.014923,36.95842,37.15266,37.738899,38.611504,39.558823,40.469604,41.417927,42.539101,43.789833,44.80619,45.026314,44.049351,41.99575,39.583061,37.796612,37.320847,38.098869,39.345226,40.048763,39.657154,38.475128,37.471825,37.587097,38.99247,40.831886,41.672413,40.413307,37.063972,32.848061,29.517057,28.283396,29.057787,30.497553,30.851826,29.066778,25.442881,21.432335,18.729942,18.264326,19.735973,21.958399,23.713287,24.507244,24.727764,25.148798,26.200483,27.567924,28.41959,28.088245,26.682457,25.145714,24.673895,25.869661,28.219763,30.278961,30.472162,28.010805,23.345636,17.888151,13.20878,10.235525,8.9320211,8.5813046,8.4012823,8.0422888,7.6639924,7.6238542,8.0786514,8.8193521,9.4404039,9.6720324,9.5892887,9.5291395,9.7917309,10.374535,10.956102,11.140944,10.766914,10.029611,9.330142,8.9800119,9.0133724,9.2659302,9.6492357,10.367505,11.846225,14.368134,17.672798,20.860615,22.760366,22.584736,20.453793,17.407988,14.855625,13.788643,14.27644,15.569775,16.727629,17.311562,17.643541,18.440207,20.100288,22.197527,23.605953,23.231239,20.855583,17.468212,14.769011,14.103034,15.517106,17.609837,18.35803,16.452682,12.302357,8.0232792,6.3513513,9.0897303,16.013628,24.889391,32.598549,36.70779,36.594131,33.541924,29.858166,27.600052,27.652445,29.588707,32.232567,34.45377,35.693443,35.994034,35.672928,34.97501,33.964657,32.670105,31.279099,30.161995,29.664526,29.82408,30.248814,30.292074,29.435097,27.625759,25.334391,23.275043,21.970037,21.446014,21.263102,20.854374,19.944357,18.762733,17.906427,17.935699,18.964628,20.511227,21.709568,21.763325,20.377506,17.924858,15.263988,13.323048,12.680091,13.350127,14.85806,16.521183,17.772924,18.368505,18.400246,18.15501,17.91251,17.78801,17.680435,17.329613,16.44323,14.835046,12.519945,9.7291536,6.8372669,4.2252984,2.1340652,0.57396513,-0.66037935,-1.8694204,-3.2766299,-4.8935294,-6.4962997,-7.7295694,-8.279273,-8.0146875,-7.0181189,-5.4934497,-3.6246631,-1.4906248,0.89736748,3.4594474,5.9191751,7.8024583,8.6073246,8.0692053,6.3620958,4.0910029,2.0467293,0.84216183,0.63302308,1.0846862,1.6003838,1.6666404,1.1044854,0.085811578,-1.0642707,-2.116992,-3.0570517,-3.9944727,-4.9626536,-5.787951,-6.1658368,-5.914124,-5.2162852,-4.641222,-4.8662109,-6.2479258,-8.5262203,-10.892105,-12.422357,-12.625967,-11.745118,-10.592775,-10.012087,-10.308537,-11.044949,-11.359467,-10.611627,-8.9212599,-7.2136974,-6.7026281,-8.1244059,-11.222328,-14.834298,-17.54768,-18.51066,-17.881762,-16.636263,-15.872092,-16.084103,-16.883873,-17.331179,-16.627018,-14.683105,-12.184371,-10.122879,-9.1465902,-9.1807899,-9.5706644,-9.6154699,-9.0911894,-8.3814764,-8.1360779,-8.7296047,-9.9436607,-11.129686,-11.747953,-11.882221,-12.320559,-14.086855,-17.703529,-22.683165,-27.625351,-30.907726,-31.566442,-29.827318,-26.964878,-24.587254,-23.790684,-24.679026,-26.48226,-28.124889,-28.8447,-28.494692,-27.421167,-26.100103,-24.832561,-23.69112,-22.681742,-21.92206,-21.654049,-22.073647,-23.129986,-24.48077,-25.665758,-26.378199,-26.626083,-26.653378,-26.679523,-26.664299,-26.295744,-25.23086,-23.418539,-21.255913,-19.438868,-18.588152,-18.90098,-20.066156,-21.494457,-22.692501,-23.5145,-24.131102,-24.776829,-25.504507,-26.155897,-26.566116,-26.807497,-27.222639,-28.156643,-29.56414,-30.826733,-31.022663,-29.574291,-26.875015,-24.411987,-24.160362,-27.491302,-34.210232,-42.352917,-48.968182,-51.531532,-49.225906,-43.364281,-36.705826,-32.051144,-30.904896,-32.927387,-36.409077,-39.40469,-40.817974,-40.827187,-40.492336,-40.888161,-42.352242,-44.299866,-45.658566,-45.586658,-44.000153,-41.599915,-39.428383,-38.26548,-38.231335,-38.793846,-39.116135,-38.496883,-36.651211,-33.724369,-30.107656,-26.220331,-22.391335,-18.866541,-15.869715,-13.622514,-12.28324,-11.84354,-12.06592,-12.525146,-12.751665,-12.411053,-11.429984,-10.006539,-8.5011358,-7.2607274,-6.4577136,-6.016242,-5.6594176,-5.0575538,-4.0102568,-2.5737689,-1.0626136,0.089888185,0.55508327,0.30571249,-0.32580847,-0.77709091,-0.52417284,0.64408129,2.4949923,4.4468942,5.8528485,6.3295288,5.9563775,5.234817,4.8254952,5.201673,6.4029398,8.0188065,9.4080467,10.034406,9.7404118,8.8177414,7.8436756,7.377255,7.6805882,8.6130619,9.7501888,10.655162,11.14651,11.405765,11.857422,12.884209,14.542161,16.452059,17.952135,18.447008,17.763073,16.297939,14.85494,14.23157,14.783572,16.217113,17.744164,18.527452,18.16535,16.930298,15.610728,15.039711,15.586946,16.92293,18.207815,18.602459,17.797249,16.233761,14.871956,14.630231,15.829844,17.982918,20.063259,21.108637,20.79645,19.639454,18.666779,18.761606,20.039774,21.64456,22.102783,20.06736,15.045918,7.7146211,-0.35764745,-7.4263182,-12.343366,-14.980471,-16.103889,-16.810163,-17.8647,-19.315584,-20.573055,-20.866325,-19.778572,-17.536991,-14.90112,-12.740335,-11.569353,-11.316078,-11.4381,-11.287871,-10.48901,-9.104414,-7.5281196,-6.2101021,-5.4122839,-5.1449552,-5.2901225,-5.7855415,-6.7107038,-8.2002277,-10.246766,-12.545438,-14.513309,-15.503099,-15.10087,-13.337878,-10.695616,-7.9016805,-5.6263604,-4.2282572,-3.6528749,-3.5020702,-3.2228072,-2.3400629,-0.66759908,1.5582054,3.6770747,4.7818489,4.0685,1.2557597,-3.1215024,-7.7495589,-10.982288,-11.553206,-9.2146902,-4.9377489,-0.50227469,2.3581433,2.8130007,1.3125396,-0.7396462,-1.8337793,-1.218675,0.73273695,2.8648131,4.0481358,3.9199924,3.0688541,2.5466034,3.0432608,4.2944498,5.1470456,4.2765474,1.1093665,-3.6496499,-8.2482872,-10.763854,-10.108152,-6.5672765,-1.5809231,3.0654495,6.1258717,7.3495984,7.3159118,6.8593593,6.517519,6.3471274,6.148488,5.8449826,5.6852345,6.108192,7.3899503,9.36413,11.451385,12.997531,13.685489,13.725912,13.688853,14.094319,15.049007,16.178043,16.88908,16.775352,15.879001,14.647323,13.634684,13.169034,13.20277,13.415864,13.458967,13.14751,12.491194,11.592341,10.546886,9.4526491,8.5044546,8.0458527,8.4581079,9.9008684,12.075848,14.226528,15.459437,15.244499,13.788676,12.007841,11.054204,11.646219,13.602104,15.880444,17.132582,16.457037,13.916796,10.519382,7.6773758,6.4650655,7.0863953,8.8248205,10.46266,10.912567,9.730011,7.283525,4.5563068,2.7143834,2.6359518,4.5643516,7.9806294,11.732857,14.406027,14.845617,12.660376,8.4770813,3.7698243,0.26290154,-0.85917181,0.4540782,3.0625858,5.1983881,5.3842716,3.2204726,-0.40111145,-3.7852261,-5.3550591,-4.4907708,-1.8232355,1.1548638,2.9059391,2.6143959,0.49497029,-2.4658864,-5.1135521,-6.6924458,-7.0829067,-6.6598654,-5.9527435,-5.3548651,-5.0256276,-4.956038,-5.0637355,-5.2130742,-5.1726346,-4.6142359,-3.2399364,-1.0062474,1.7044067,4.1297002,5.4347711,5.1429133,3.4381189,1.1337315,-0.70999604,-1.3217585,-0.61000597,0.8102991,1.9624017,2.0223317,0.71964234,-1.5724396,-4.0662808,-5.9486465,-6.7149582,-6.3066673,-5.0404749,-3.4203639,-1.9444901,-0.97415227,-0.67244637,-0.99420273,-1.7188513,-2.5349736,-3.1744847,-3.5549583,-3.8532863,-4.443253,-5.6958017,-7.7285399,-10.243381,-12.563839,-13.884696,-13.629257,-11.742679,-8.7726851,-5.6892338,-3.5172672,-2.9403975,-4.0421815,-6.2908649,-8.7735109,-10.58813,-11.237087,-10.853059,-10.137645,-9.9992847,-11.013336,-12.939599,-14.557297,-13.973512,-9.3511333,0.22565816,14.150527,30.288279,45.632858,57.376469,63.916592,65.34211,63.192608,59.646107,56.563099,54.850895,54.399651,54.511551,54.492882,54.044178,53.268642,52.389713,51.447857,50.224827,48.449837,46.117813,43.653423,41.754757,40.978935,41.332542,42.158806,42.443039,41.390118,38.937786,35.883198,33.518982,32.965351,34.569748,37.709114,41.097843,43.417629,43.918171,42.68013,40.447582,38.182941,36.62793,36.101379,36.584393,37.95974,40.200806,43.376537,47.488632,52.279621,57.1675,61.374352,64.189842,65.22879,64.550529,62.588634,59.937481,57.102383,54.321831,51.529076,48.463341,44.88744,40.825077,36.705063,33.310051,31.493832,31.749123,33.826427,36.644722,38.634937,38.435787,35.626434,31.084232,26.694544,24.475237,25.533815,29.427959,34.325775,37.927925,38.66383,36.486137,32.799633,29.565941,28.123688,28.44281,29.265734,29.032482,26.985662,23.728046,20.847696,19.825375,20.915249,22.734411,22.870781,19.186052,11.047874,-0.24479157,-12.096144,-21.926338,-28.390808,-31.822355,-33.709641,-35.609539,-38.196728,-41.008827,-42.965996,-43.252594,-41.953819,-40.046677,-38.791317,-38.954468,-40.376446,-42.138176,-43.181412,-42.956409,-41.687344,-40.125523,-39.001625,-38.56374,-38.496571,-38.238846,-37.449253,-36.290859,-35.349167,-35.256218,-36.283726,-38.170803,-40.280155,-41.957481,-42.852421,-43.012138,-42.729786,-42.292419,-41.817345,-41.27343,-40.633827,-40.010468,-39.64613,-39.759621,-40.361679,-41.189907,-41.829193,-41.94828,-41.495014,-40.715641,-39.984852,-39.564739,-39.460445,-39.469944,-39.385788,-39.196186,-39.132042,-39.517136,-40.523441,-42.008099,-43.557407,-44.719204,-45.268902,-45.325195,-45.232948,-45.295364,-45.548199,-45.743511,-45.561897,-44.9025,-44.032524,-43.466991,-43.639683,-44.585423,-45.864594,-46.804848,-46.914577,-46.190811,-45.102062,-44.244095,-43.899132,-43.811882,-43.359188,-42.018791,-39.818497,-37.434753,-35.830902,-35.641571,-36.705589,-38.080292,-38.566944,-37.433533,-34.871227,-31.875744,-29.615103,-28.689133,-28.77165,-28.884354,-28.135132,-26.432669,-24.68528,-24.313179,-26.350704,-30.693838,-35.977966,-40.188866,-41.661987,-39.892742,-35.707153,-30.736538,-26.546671,-23.938122,-22.775871,-22.348063,-21.941393,-21.244923,-20.377182,-19.618021,-19.111731,-18.774776,-18.442062,-18.084593,-17.884306,-18.085037,-18.740595,-19.585054,-20.169844,-20.200668,-19.828508,-19.645926,-20.334476,-22.167837,-24.712788,-26.971361,-27.925112,-27.161047,-25.175648,-23.136499,-22.220263,-22.921181,-24.753832,-26.533964,-27.065861,-25.820091,-23.204453,-20.291826,-18.199509,-17.504927,-18.026022,-19.044615,-19.781727,-19.812187,-19.191553,-18.280245,-17.437542,-16.804834,-16.294506,-15.739953,-15.060036,-14.309548,-13.594096,-12.935242,-12.20146,-11.160316,-9.6124296,-7.5105705,-4.9867988,-2.2818902,0.36188695,2.7719553,4.8505425,6.5415273,7.8107581,8.6667643,9.2003593,9.5937366,10.067253,10.782225,11.75881,12.865944,13.893608,14.662326,15.100726,15.248021,15.192295,14.997846,14.674431,14.203341,13.591018,12.905681,12.273409,11.845893,11.77011,12.176252,13.17031,14.803639,17.012482,19.562031,22.053871,24.032883,25.163927,25.386259,24.94418,24.257982,23.700823,23.418079,23.307314,23.174379,22.957876,22.857744,23.259726,24.485603,26.528484,28.961119,31.106754,32.393894,32.688763,32.397194,32.259323,32.943611,34.669456,37.072163,39.384262,40.828186,41.004658,40.076244,38.667343,37.551899,37.295334,38.018147,39.371864,40.716808,41.413124,41.104996,39.887318,38.28307,37.018799,36.660763,37.247379,38.091461,37.890633,35.166565,28.89229,19.041502,6.7857685,-5.7985392,-16.42495,-23.401764,-26.190174,-25.474041,-22.739113,-19.594673,-17.174248,-15.874144,-15.482402,-15.54118,-15.690804,-15.806676,-15.905927,-15.956287,-15.767471,-15.063866,-13.690541,-11.796738,-9.8460855,-8.4170666,-7.9019923,-8.2895756,-9.1706247,-9.9677706,-10.248729,-9.933197,-9.2778034,-8.6713591,-8.3927441,-8.4946175,-8.8719931,-9.4314823,-10.200276,-11.263956,-12.567021,-13.743479,-14.159547,-13.218139,-10.775639,-7.3958669,-4.2202682,-2.4554386,-2.7365384,-4.7428699,-7.3241138,-9.0976725,-9.183486,-7.6455512,-5.3843741,-3.5649076,-2.9514647,-3.5621722,-4.8245525,-6.0678968,-6.9679174,-7.6194196,-8.2109041,-8.5952902,-8.1524754,-6.1340594,-2.3021424,2.6022789,6.9805245,9.136117,8.265173,5.0448661,1.3815627,-0.60591447,0.21597391,3.3546677,7.0224843,9.244379,9.0479488,6.9848595,4.6685739,3.6566694,4.4319615,6.1569071,7.3443189,6.960093,5.1791477,3.2555251,2.5855641,3.6178906,5.4015594,6.1555114,4.5514455,0.8846857,-2.6825805,-3.0731328,2.0382142,12.796994,26.834099,40.258297,49.450882,52.692848,50.776451,46.347321,42.422691,40.931942,42.026012,44.404385,46.331841,46.691116,45.493572,43.65546,42.286999,41.982658,42.532696,43.175663,43.174667,42.323971,41.063786,40.141937,40.050842,40.615337,41.024097,40.327557,38.123215,34.995663,32.382294,31.857445,34.193104,38.741467,43.556808,46.276188,45.325897,40.78915,34.419506,28.754086,25.801577,26.038589,28.274282,30.434147,30.776535,28.821157,25.477274,22.369741,20.842066,21.264719,23.018011,25.048126,26.539894,27.24128,27.291765,26.798321,25.57691,23.309546,19.996716,16.301607,13.41955,12.450459,13.65773,16.150023,18.284603,18.605181,16.732103,13.610921,10.92865,10.06183,11.242908,13.490299,15.32973,15.795889,15.018926,14.002268,13.775412,14.5508,15.509381,15.384425,13.429164,10.059495,6.6768146,4.7555547,4.8179612,6.0275412,6.7214141,5.5483265,2.4389794,-1.2740475,-3.6980455,-3.630641,-1.3704584,1.4741571,3.0605114,2.543273,0.61784303,-1.0057451,-0.84720707,1.2336754,3.8363371,4.895174,3.0662453,-1.2997075,-6.2636032,-9.4413815,-9.4579639,-6.7781935,-3.3871031,-1.5368564,-2.3707383,-5.2914777,-8.4399719,-9.9323816,-9.0405893,-6.5800934,-4.3138509,-3.8144283,-5.5374498,-8.6666136,-11.754262,-13.672497,-14.237273,-14.141759,-14.321514,-15.234859,-16.550774,-17.419104,-17.093891,-15.467214,-13.170711,-11.217197,-10.451609,-11.164816,-13.066098,-15.551565,-18.037117,-20.147411,-21.714499,-22.693983,-23.130972,-23.202688,-23.239767,-23.610674,-24.471827,-25.546373,-26.147196,-25.529751,-23.415167,-20.343582,-17.559208,-16.402832,-17.528708,-20.432669,-23.634054,-25.461199,-24.995535,-22.599661,-19.694183,-17.913652,-18.164345,-20.163961,-22.726284,-24.570625,-25.110216,-24.717663,-24.341311,-24.788113,-26.192575,-28.022781,-29.566229,-30.488901,-31.024494,-31.650669,-32.521008,-33.134708,-32.568382,-30.168839,-26.219175,-22.042324,-19.359718,-19.2523,-21.4023,-24.172178,-25.551704,-24.415243,-21.283899,-18.069702,-16.925844,-18.914986,-23.341663,-28.174408,-31.281191,-31.681187,-30.022018,-28.015709,-27.253302,-28.205969,-30.057892,-31.42679,-31.423681,-30.296032,-29.218472,-29.407339,-31.206722,-33.800175,-35.749466,-35.976345,-34.498623,-32.415684,-31.171867,-31.625845,-33.56889,-35.993721,-37.871857,-38.846588,-39.338631,-40.019569,-41.092678,-41.972298,-41.654987,-39.541569,-36.092686,-32.768017,-31.184931,-32.001266,-34.275616,-35.792233,-34.221668,-28.43059,-19.136141,-8.5046072,1.0439,8.0804071,12.72286,16.235977,20.019567,24.67606,29.724384,34.050613,36.701538,37.454567,36.823833,35.589653,34.256077,32.834564,31.062891,28.829029,26.436085,24.496075,23.545633,23.692665,24.571283,25.635832,26.561419,27.440023,28.62495,30.352215,32.44191,34.322845,35.375687,35.343494,34.501072,33.450607,32.689056,32.264687,31.777679,30.729334,28.97069,26.929642,25.454718,25.383049,27.122791,30.508411,34.97699,39.888275,44.739025,49.146679,52.689991,54.821735,55.007458,53.043156,49.324146,44.827358,40.749844,37.990063,36.783878,36.715557,37.077156,37.322166,37.314857,37.241806,37.301502,37.437107,37.322014,36.59848,35.171021,33.319397,31.543917,30.266945,29.621056,29.473305,29.634775,30.050497,30.787882,31.828331,32.865261,33.345882,32.812786,31.326777,29.608709,28.669155,29.051821,30.15621,30.165506,26.789764,18.513695,5.6490703,-9.4816198,-23.436405,-33.18951,-37.475658,-37.202908,-34.741653,-32.556686,-32.005772,-32.965702,-34.386696,-35.292889,-35.515808,-35.699444,-36.654526,-38.590408,-40.81295,-42.123417,-41.643547,-39.483978,-36.775387,-35.016735,-35.160805,-37.034927,-39.470726,-41.047062,-40.955013,-39.431934,-37.513184,-36.303925,-36.273571,-37.03294,-37.710476,-37.640297,-36.878048,-36.191868,-36.535225,-38.351948,-41.170918,-43.758404,-44.745045,-43.356575,-39.828766,-35.288166,-31.194323,-28.669357,-28.064543,-28.941671,-30.405434,-31.558283,-31.839859,-31.132454,-29.665232,-27.838184,-26.076689,-24.754274,-24.152189,-24.409348,-25.454348,-26.962955,-28.400671,-29.174965,-28.85405,-27.356436,-25.012068,-22.450514,-20.354548,-19.186325,-19.01091,-19.499397,-20.111113,-20.369593,-20.101034,-19.517904,-19.102591,-19.342804,-20.448954,-22.200661,-24.013319,-25.205818,-25.342087,-24.469131,-23.115715,-22.034851,-21.810301,-22.529814,-23.704273,-24.489832,-24.110048,-22.263348,-19.301733,-16.082008,-13.562827,-12.354509,-12.453334,-13.291523,-14.065824,-14.161489,-13.445168,-12.279977,-11.272593,-10.906469,-11.268603,-12.013083,-12.56447,-12.429389,-11.432812,-9.7511787,-7.7417994,-5.6886516,-3.6285698,-1.3653867,1.3402833,4.5276418,7.8952789,10.860201,12.795794,13.324279,12.507607,10.838003,9.037426,7.7727389,7.4252234,8.0100183,9.2530375,10.755102,12.1465,13.166389,13.663668,13.564571,12.86052,11.635785,10.107678,8.6260567,7.5942693,7.3235011,7.884891,9.0450573,10.340542,11.277393,11.567945,11.282216,10.821713,10.710512,11.300039,12.543096,13.97084,14.905646,14.813139,13.609746,11.752718,10.049771,9.2784252,9.8143654,11.46632,13.60018,15.471037,16.568434,16.784605,16.336498,15.53013,14.549401,13.418228,12.148401,10.938962,10.240731,10.584813,12.245572,14.95169,17.867645,19.922968,20.347502,19.118845,17.045219,15.399754,15.278711,17.026052,20.041525,23.081696,24.891314,24.824881,23.134239,20.79134,18.969912,18.478563,19.436359,21.324453,23.338625,24.823317,25.558912,25.783104,25.979725,26.577137,27.717707,29.198776,30.589771,31.450975,31.545076,30.946732,30.003119,29.162271,28.745714,28.776108,28.958626,28.849146,28.14307,26.934254,25.779152,25.485474,26.695757,29.475571,33.150311,36.525818,38.418625,38.230068,36.244659,33.467232,31.071543,29.766552,29.450365,29.363443,28.656054,27.025028,25.013809,23.75701,24.282154,26.763874,30.183687,32.641037,32.199368,27.844315,20.053713,10.676538,2.1762369,-3.3861027,-5.1420956,-3.6361971,-0.43439516,2.6302078,4.1943736,3.7743309,1.7413739,-1.0297782,-3.6172497,-5.4017386,-6.1998124,-6.1881499,-5.7046876,-5.0352893,-4.2754259,-3.3177109,-1.9678713,-0.13943487,1.9687622,3.822017,4.6943135,3.9797494,1.5344063,-2.1418386,-6.0222211,-8.9593525,-10.200932,-9.7474136,-8.3452253,-7.0991712,-6.9015899,-7.9847693,-9.8359346,-11.506399,-12.123489,-11.31086,-9.2995949,-6.7132292,-4.2024083,-2.1678267,-0.71404874,0.20031436,0.57984424,0.33633301,-0.60581803,-2.1505175,-3.9751878,-5.6559772,-6.9001446,-7.7136092,-8.3662138,-9.1647081,-10.196001,-11.23995,-11.934035,-12.080049,-11.858592,-11.763517,-12.266369,-13.433418,-14.785389,-15.546206,-15.157344,-13.724468,-12.070412,-11.308981,-12.174953,-14.531331,-17.386091,-19.435328,-19.80892,-18.558041,-16.585844,-15.07894,-14.81245,-15.766336,-17.268721,-18.526947,-19.163534,-19.399382,-19.793922,-20.764133,-22.244949,-23.729456,-24.640211,-24.742661,-24.293219,-23.8223,-23.730846,-24.016333,-24.340792,-24.383926,-24.193235,-24.227051,-25.007727,-26.60531,-28.333694,-28.932007,-27.186142,-22.633923,-15.91175,-8.5087099,-2.0631459,2.3801689,4.7242017,5.622117,5.9196029,6.1328979,6.2837386,6.1279039,5.5327668,4.6809182,3.9470599,3.574559,3.4484003,3.1888039,2.526129,1.6651399,1.3089045,2.2395074,4.6951885,7.9883561,10.705748,11.45912,9.7561016,6.4176178,3.2084486,1.8404403,2.936378,5.6143255,7.9918733,8.3349104,6.1491423,2.5243645,-0.5040614,-1.1926615,0.84316897,4.4028969,7.4572639,8.4082851,7.0578017,4.68155,3.1808565,3.8698521,6.6753988,10.243273,12.848243,13.490367,12.459002,11.018802,10.464108,11.203539,12.501338,13.043704,11.929214,9.3868284,6.7058463,5.3993464,6.1565571,8.3055763,10.186131,10.22705,8.0358801,4.7676477,2.4876702,2.8948312,6.2049837,10.918216,14.649144,15.527308,13.306929,9.4984283,6.4414587,5.8958807,8.0187845,11.343105,13.741933,13.756036,11.457688,8.3391647,6.3351054,6.6178956,8.9167242,11.753241,13.402779,12.954708,10.819198,8.4050732,7.2150898,7.941771,10.103699,12.395863,13.488205,12.767733,10.606635,8.0629063,6.2586379,5.8272123,6.7151523,8.3688822,10.112917,11.46428,12.234745,12.444413,12.180248,11.522707,10.567177,9.475975,8.4797878,7.8058701,7.5839777,7.8047304,8.3616953,9.1382875,10.065683,11.10819,12.201392,13.215163,13.994476,14.458861,14.675892,14.826891,15.062095,15.342157,15.400524,14.89359,13.668587,11.969627,10.410141,9.6785107,10.129977,11.522604,13.093222,13.964323,13.652576,12.361934,10.8604,9.9957561,10.141724,10.925566,11.424935,10.731956,8.5489092,5.4499063,2.6402049,1.3445319,2.175801,4.840281,8.3308096,11.474487,13.510755,14.384505,14.626938,14.938709,15.740664,16.942343,18.026833,18.368,17.586401,15.76057,13.408979,11.277051,10.038982,10.038296,11.157222,12.854834,14.361265,14.967398,14.308693,12.527244,10.227718,8.2251949,7.1857452,7.3274312,8.3329916,9.5214348,10.188716,9.9364147,8.8205605,7.2620449,5.7971835,4.8257284,4.4886956,4.705565,5.2954659,6.0734129,6.8649015,7.4721603,7.6757774,7.3246636,6.4768844,5.4800839,4.8885379,5.2138247,6.6310158,8.8225985,11.082184,12.649485,13.099678,12.564509,11.65263,11.110148,11.410761,12.499264,13.817037,14.579233,14.148151,12.321696,9.4254255,6.2024779,3.5711069,2.3382151,2.9379566,5.2468896,8.5267048,11.54476,12.886636,11.39575,6.5887747,-1.1350746,-10.605152,-20.279856,-28.759304,-35.178543,-39.323036,-41.468075,-42.08807,-41.622662,-40.405838,-38.728905,-36.917328,-35.317066,-34.18528,-33.578777,-33.348255,-33.264393,-33.189808,-33.164063,-33.334702,-33.79966,-34.519123,-35.418205,-36.645725,-38.786636,-42.788895,-49.518017,-59.119476,-70.568802,-81.7621,-90.222565,-94.122849,-93.088966,-88.328262,-81.990448,-76.112434,-71.738953,-68.693413,-66.067009,-63.056461,-59.590359,-56.358994,-54.278152,-53.794605,-54.528759,-55.49847,-55.75676,-54.990944,-53.666126,-52.621887,-52.417793,-52.89856,-53.292953,-52.780991,-51.129208,-48.937817,-47.307724,-47.136688,-48.514961,-50.630192,-52.251129,-52.473351,-51.240276,-49.311684,-47.7248,-47.123703,-47.39999,-47.856659,-47.746414,-46.795124,-45.357342,-44.124352,-43.615845,-43.820309,-44.225246,-44.197323,-43.437462,-42.202946,-41.164612,-41.014317,-42.082241,-44.181301,-46.720909,-48.966908,-50.280689,-50.255592,-48.783466,-46.120956,-42.952183,-40.340061,-39.440434,-40.9785,-44.690861,-49.066895,-51.652882,-49.910431,-42.29454,-29.0389,-12.235856,4.865087,19.029303,28.148849,31.824125,31.232746,28.442289,25.53414,23.908409,23.981527,25.288511,26.86191,27.711607,27.242989,25.488062,23.074102,20.933008,19.861563,20.133545,21.37122,22.766098,23.543592,23.406281,22.685053,22.099079,22.277514,23.357922,24.929586,26.353378,27.2237,27.633286,28.042425,28.848475,29.987364,30.895777,30.907219,29.822098,28.225981,27.269674,27.990959,30.601297,34.229893,37.344479,38.621948,37.72636,35.489178,33.365479,32.511307,33.075386,34.155525,34.431961,33.051655,30.188475,26.934549,24.621174,24.02352,24.943993,26.391928,27.18825,26.588497,24.57049,21.701988,18.775749,16.488855,15.319332,15.548038,17.265629,20.273207,23.955904,27.315554,29.279625,29.19186,27.201042,24.261976,21.68169,20.444521,20.718138,21.845057,22.814005,22.892994,22.010077,20.657755,19.436787,18.601692,17.946962,17.10022,15.970274,14.972334,14.817711,15.991532,18.300568,20.854221,22.546932,22.744741,21.7087,20.445711,20.062325,21.04335,22.938152,24.666203,25.233664,24.37672,22.704838,21.266117,20.851486,21.520132,22.655445,23.478222,23.625923,23.376675,23.36804,24.034651,25.194233,26.104166,25.968102,24.542147,22.406528,20.692335,20.42532,21.911306,24.560354,27.253784,29.004,29.481417,29.093668,28.610476,28.615255,29.14563,29.723627,29.705053,28.686897,26.717968,24.228239,21.785149,19.86475,18.756062,18.58119,19.330248,20.840887,22.753742,24.543322,25.686571,25.909599,25.352036,24.504927,23.922485,23.879612,24.212555,24.47138,24.294857,23.744415,23.340662,23.742832,25.26926,27.58927,29.82165,31.006258,30.658339,29.049875,27.040327,25.576849,25.195812,25.835325,27.035503,28.329847,29.517513,30.628664,31.656643,32.326523,32.146969,30.761047,28.34754,25.735226,24.065388,24.162052,26.011419,28.722111,31.035061,32.075695,31.857466,31.196043,31.088381,31.981358,33.439049,34.447529,34.15057,32.499672,30.348408,28.903162,28.897066,30.063643,31.294353,31.39477,29.928984,27.561419,25.63603,25.256201,26.485903,28.231958,28.918905,27.53056,24.33036,20.769255,18.6192,18.88098,21.166422,23.946522,25.496212,24.925077,22.648794,20.039566,18.529808,18.774237,20.392025,22.389484,23.903282,24.716583,25.199959,25.760839,26.242666,25.750856,23.080259,17.492462,9.3353872,0.083793789,-8.2564793,-14.040922,-16.666321,-16.682045,-15.335799,-13.878822,-13.04318,-12.929392,-13.251739,-13.68572,-14.065936,-14.357236,-14.51531,-14.4206,-13.974146,-13.277583,-12.720899,-12.853251,-14.07583,-16.347713,-19.116678,-21.554981,-22.981644,-23.225283,-22.710312,-22.216753,-22.456936,-23.711149,-25.712511,-27.816427,-29.334084,-29.844498,-29.345032,-28.206881,-26.995005,-26.246143,-26.281115,-27.095078,-28.351059,-29.492104,-29.961864,-29.470196,-28.185467,-26.729439,-25.926651,-26.396519,-28.193678,-30.71447,-32.961483,-34.053638,-33.706963,-32.403172,-31.129965,-30.828571,-31.866322,-33.846149,-35.866379,-37.070824,-37.151886,-36.5005,-35.91927,-36.089066,-37.131302,-38.541504,-39.528706,-39.534851,-38.596695,-37.320499,-36.495911,-36.611042,-37.591457,-38.930035,-40.106136,-40.989056,-41.92411,-43.414555,-45.603291,-47.928959,-49.255569,-48.481987,-45.303658,-40.642269,-36.401512,-34.58778,-36.236042,-40.752728,-46.102997,-49.810505,-50.260689,-47.586887,-43.614891,-40.85334,-41.060127,-44.176517,-48.238598,-50.34417,-48.167217,-41.204815,-31.087029,-20.794439,-13.219222,-9.840889,-10.191122,-12.323161,-13.955034,-13.627481,-11.274659,-7.9845643,-5.1881738,-3.7959752,-3.7614369,-4.2511802,-4.2402635,-3.1396999,-1.0999496,1.1356272,2.6880941,3.0225527,2.1932001,0.75939983,-0.53796744,-1.146165,-0.93286538,-0.19231795,0.54679072,0.80042076,0.35808432,-0.64433539,-1.8410736,-2.8851664,-3.6977692,-4.5668612,-6.0064616,-8.4175444,-11.728694,-15.248277,-17.875605,-18.617317,-17.14864,-14.083625,-10.748714,-8.536665,-8.1874084,-9.4199257,-11.152438,-12.194556,-11.993589,-10.968241,-10.214347,-10.766502,-12.889431,-15.857626,-18.365023,-19.294395,-18.344501,-16.118599,-13.648677,-11.710338,-10.410675,-9.3181925,-8.0024376,-6.5489001,-5.6316438,-6.055069,-8.0833149,-11.063745,-13.671731,-14.671552,-13.704213,-11.557455,-9.7009687,-9.3661861,-10.770544,-13.002761,-14.64407,-14.70214,-13.222681,-11.170397,-9.6805334,-9.2217073,-9.2715454,-8.7428112,-6.8618422,-3.8680773,-1.0116611,0.19396199,-1.0159148,-4.063518,-7.2742043,-8.8290586,-7.823205,-4.7586665,-1.1758559,1.3113079,1.9403355,1.1102216,-0.063406795,-0.5841648,-0.20793411,0.53632027,0.89430273,0.56200039,-0.020220295,0.029545965,1.3590189,3.8283665,6.4915404,8.1502142,8.1175051,6.6780286,4.9311447,4.1150746,4.8508883,6.7914619,8.887435,10.079596,9.9611244,8.9913588,8.1471605,8.2609806,9.4818687,11.197158,12.446918,12.55305,11.563987,10.24606,9.6393242,10.454663,12.669255,15.54492,18.041975,19.383156,19.455622,18.847071,18.517822,19.297195,21.465458,24.618664,27.861002,30.21154,31.024929,30.238747,28.35523,26.189137,24.509016,23.730585,23.783855,24.195332,24.338049,23.740294,22.32498,20.479799,18.921331,18.397243,19.342161,21.637392,24.598392,27.224852,28.623743,28.414539,26.908779,24.951504,23.485607,23.062103,23.569126,24.343813,24.611221,23.990183,22.749191,21.638712,21.393,22.220394,23.630367,24.742355,24.902321,24.205219,23.548033,24.122807,26.6325,30.728767,35.072968,38.048866,38.733948,37.537106,36.076897,36.319344,39.448032,45.119377,51.544979,56.36578,57.828609,55.616341,50.903248,45.660931,41.647682,39.643307,39.292492,39.543507,39.352505,38.238995,36.435707,34.640617,33.579006,33.619785,34.590378,35.799534,36.203728,34.657589,30.220867,22.488689,11.857064,-0.41491324,-12.457361,-22.338928,-28.723883,-31.344717,-31.049219,-29.380449,-27.889622,-27.522396,-28.371235,-29.875586,-31.30431,-32.216553,-32.644695,-32.936531,-33.407028,-34.05315,-34.522907,-34.352348,-33.30817,-31.608118,-29.870049,-28.809792,-28.860344,-29.932251,-31.451761,-32.654728,-32.972458,-32.30138,-31.022068,-29.777571,-29.153498,-29.445955,-30.638357,-32.572861,-35.180088,-38.594028,-43.053734,-48.635544,-54.983593,-61.232372,-66.218605,-68.912437,-68.857437,-66.38385,-62.471813,-58.328598,-54.898254,-52.550091,-51.080944,-49.983509,-48.793186,