Bandpass,0,0.14891,314.12854,-3001.5674,-4400.4727,-3639.5723,-1481.9049,618.89429,1426.5842,709.49414,-686.03821,-1517.8939,-1069.8979,359.62137,1733.1464,2074.9126,1188.4867,-228.79971,-1130.5261,-897.41217,232.22766,1376.8583,1685.8544,960.8092,-227.36172,-988.90436,-779.49884,216.05983,1248.7423,1574.6749,996.17407,-18.759998,-706.95325,-578.74609,238.43961,1121.8748,1430.7408,974.57513,131.46277,-454.61465,-357.50723,327.67719,1075.3081,1330.8833,917.05182,147.63411,-420.82297,-403.09967,143.83763,783.81689,1037.105,731.66998,113.41822,-353.69809,-337.38229,125.83175,674.14203,900.24988,652.1142,133.62991,-259.82495,-239.28624,170.08684,659.64337,873.86554,671.50439,219.54198,-141.51172,-152.98834,177.28957,592.62439,785.66626,624.83435,242.61737,-72.582382,-93.604485,182.41724,541.61761,718.60858,592.03271,266.65448,-12.787882,-45.755306,180.37521,489.84531,655.1167,564.79169,299.10397,62.236904,27.414902,211.76878,470.93054,611.8623,536.18707,307.95721,99.712112,61.618683,212.68677,432.57248,555.57349,493.71756,297.78586,114.39252,74.941429,200.44211,390.9425,503.6088,458.6496,294.64206,135.16167,94.965714,196.79378,358.94742,459.526,427.04388,290.17215,152.17737,112.10817,192.64691,327.00238,411.78354,384.30725,266.77689,146.48662,109.27646,176.86031,293.63422,370.48041,351.15549,251.85434,146.24669,109.26205,162.41254,260.46451,327.38031,313.16867,229.26077,137.5256,102.92925,145.93164,229.36229,287.89636,276.85507,203.96225,121.64248,87.114227,120.63979,192.32549,245.8188,240.12852,178.52042,104.23641,67.73909,90.519005,151.69826,205.79427,217.00124,184.17772,138.92062,119.70805,142.44945,189.37225,223.60442,217.52759,173.33571,120.87417,95.160545,110.82751,152.30762,186.30893,186.58174,152.43983,107.8654,82.767845,90.898796,120.68421,145.03668,142.05188,110.90734,71.523857,48.986694,54.874393,79.386749,99.620026,97.212425,71.927948,41.23455,26.609114,37.062237,62.103077,79.093842,69.317673,30.967501,-20.083138,-61.73267,-80.613091,-79.819611,-74.468018,-79.173111,-97.098846,-118.46825,-129.0172,-121.53079,-101.68268,-84.030777,-81.485657,-96.241844,-118.75099,-135.1412,-137.30362,-128.20792,-118.87113,-119.68192,-132.75339,-150.84236,-163.23256,-163.8287,-155.35191,-146.77051,-146.30011,-155.4863,-168.7599,-178.46968,-181.20239,-180.37381,-183.13811,-194.16913,-211.3268,-226.77306,-232.8773,-228.48753,-220.70781,-220.56696,-235.48178,-263.85995,-295.74536,-319.13412,-327.59006,-323.93594,-317.64572,-318.00403,-327.94318,-342.75391,-354.24295,-357.05783,-352.55563,-347.58813,-349.32742,-360.01175,-375.34937,-387.53574,-390.54605,-383.92191,-372.58438,-363.15588,-359.64926,-361.53787,-365.22266,-367.37973,-367.48224,-367.70294,-370.56885,-376.44131,-382.88382,-386.37811,-384.97723,-379.79636,-374.211,-371.44025,-372.40149,-375.42786,-377.91849,-378.48621,-377.8544,-377.85873,-379.5094,-381.86786,-382.81604,-381.17368,-378.35114,-377.89664,-382.87683,-392.86069,-402.90842,-405.78009,-396.30643,-375.1243,-349.10959,-327.88675,-318.42291,-321.10522,-329.83447,-336.07858,-334.2435,-324.89288,-313.82657,-307.79962,-309.83987,-317.26691,-323.59543,-322.88727,-313.57678,-299.31363,-286.47891,-280.22412,-281.68387,-287.98444,-294.65817,-298.52988,-299.08868,-297.69162,-295.59778,-292.58078,-287.23676,-278.65128,-267.95786,-258.36459,-253.40112,-254.54031,-259.92386,-265.21609,-266.12955,-260.9722,-251.52547,-241.70601,-234.98244,-232.34158,-232.15953,-231.95874,-230.70491,-229.94173,-232.91142,-242.24513,-257.82202,-276.29318,-292.638,-302.76593,-305.51501,-302.85474,-298.31427,-294.78104,-293.10229,-292.24301,-290.63837,-287.6214,-283.89688,-280.83652,-279.26535,-278.74033,-277.88846,-275.52441,-271.65765,-267.5752,-264.88864,-264.23669,-264.64023,-264.0726,-260.93323,-255.41655,-249.76274,-247.09245,-249.49158,-256.56671,-265.44415,-272.28232,-274.39413,-271.67563,-266.46991,-261.983,-260.27002,-261.05051,-262.05286,-260.60263,-255.39751,-247.33359,-238.89012,-232.50929,-229.02911,-227.16023,-224.31378,-218.23828,-208.44624,-196.57846,-185.53156,-177.91505,-174.75804,-175.16603,-177.01727,-178.18585,-177.54691,-175.25349,-172.2757,-169.6212,-167.75703,-166.51384,-165.38326,-163.88303,-161.7067,-158.62303,-154.33295,-148.53322,-141.2455,-133.1937,-125.8779,-121.12476,-120.23343,-123.15743,-128.23683,-132.73663,-133.99521,-130.61116,-123.04093,-113.28895,-103.87135,-96.626732,-92.003639,-89.150307,-86.662498,-83.492294,-79.485397,-75.290985,-71.785896,-69.424568,-67.91964,-66.409241,-63.955544,-60.042221,-54.787128,-48.798107,-42.818863,-37.400429,-32.760105,-28.834171,-25.413671,-22.246719,-19.073355,-15.644443,-11.787228,-7.5125418,-3.0785758,1.084715,4.6019826,7.4167466,9.9153547,12.791529,16.691975,21.839577,27.869623,33.997105,39.428013,43.769714,47.193588,50.263229,53.557629,57.345871,61.521915,65.818954,70.124596,74.648384,79.801697,85.86042,92.646698,99.469482,105.39956,109.73187,112.35877,113.82731,115.05019,116.85114,119.61389,123.21904,127.25854,131.34883,135.32832,139.23471,143.12468,146.90343,150.3051,153.03876,154.98593,156.29912,157.32924,158.43907,159.8409,161.57068,163.59953,165.97285,168.84438,172.35596,176.4437,180.72797,184.60652,187.53468,189.3376,190.3557,191.31381,192.97299,195.76173,199.59848,203.99879,208.38507,212.39848,216.02647,219.48956,222.9912,226.5153,229.81099,232.56683,234.64514,236.20753,237.6404,239.3273,241.42003,243.76038,246.0045,247.86736,249.32718,250.65755,252.2681,254.45624,257.22559,260.27841,263.17703,265.5661,267.32089,268.54468,269.44159,270.16522,270.7449,271.12585,271.27673,271.27631,271.3165,271.62616,272.37881,273.65265,275.46121,277.81158,280.71765,284.13354,287.84283,291.39645,294.18369,295.64441,295.53226,294.08722,292.00638,290.20825,289.49615,290.27966,292.47287,295.5878,298.94464,301.88611,303.92307,304.80817,304.5787,303.59314,302.53253,302.30157,303.79163,307.55585,313.53561,320.99734,328.75269,335.58511,340.68024,343.84259,345.39755,345.86078,345.59067,344.64175,342.89676,340.366,337.42377,334.78619,333.20279,333.03241,333.97122,335.13101,335.46219,334.30576,331.76477,328.67648,326.18646,325.15179,325.69592,327.15335,328.42282,328.52524,327.05875,324.31592,321.02771,317.90689,315.26526,312.91739,310.40549,307.38773,303.94131,300.58759,298.0152,296.6608,296.39566,296.51434,296.05502,294.29431,291.15668,287.31339,283.90378,282.00406,282.10019,283.82336,286.07983,287.51962,287.12686,284.66116,280.74866,276.58472,273.38647,271.84616,271.83307,272.47656,272.58502,271.19788,268.00565,263.43958,258.39941,253.77324,250.01054,246.97563,244.14592,241.01761,237.45515,233.75308,230.3575,227.41753,224.46719,220.48357,214.34952,205.49344,194.34171,182.29758,171.21577,162.62854,157.12485,154.19893,152.61984,151.08833,148.81027,145.70142,142.17976,138.74149,135.61057,132.6559,129.56647,126.10879,122.26609,118.17751,113.95821,109.56757,104.84391,99.684212,94.225143,88.870239,84.116394,80.281921,77.318428,74.839592,72.354973,69.557678,66.477791,63.404388,60.633865,58.214455,55.853924,53.04681,49.338528,44.568272,38.961456,33.043385,27.443258,22.691809,19.082094,16.606228,14.952051,13.556561,11.735263,8.893754,4.76964,-0.40995386,-5.9728503,-11.077455,-15.107594,-17.974566,-20.139532,-22.325861,-25.088053,-28.508423,-32.220272,-35.740868,-38.878731,-41.913593,-45.394054,-49.671017,-54.49786,-59.021862,-62.247311,-63.719002,-63.980717,-64.45668,-66.748428,-71.723953,-78.946045,-86.815262,-93.38047,-97.357941,-98.762146,-98.783249,-99.007713,-100.47798,-103.17323,-106.21147,-108.60746,-110.06868,-111.2978,-113.59669,-118.02219,-124.63371,-132.31747,-139.31168,-144.12453,-146.30338,-146.6154,-146.56334,-147.55005,-150.18683,-154.11632,-158.38861,-162.10466,-164.9187,-167.125,-169.33861,-172.02545,-175.19818,-178.45148,-181.27443,-183.40588,-184.99292,-186.46356,-188.22055,-190.37529,-192.70132,-194.83092,-196.55222,-197.99939,-199.60123,-201.81592,-204.8233,-208.37747,-211.92326,-214.91211,-217.12492,-218.80174,-220.49623,-222.74231,-225.73515,-229.21588,-232.62184,-235.40079,-237.29468,-238.43021,-239.18495,-239.93915,-240.8837,-241.99765,-243.18115,-244.42224,-245.86215,-247.70877,-250.06654,-252.81465,-255.62991,-258.14343,-260.12189,-261.55038,-262.5715,-263.34552,-263.95337,-264.42044,-264.82986,-265.4054,-266.45294,-268.15829,-270.36966,-272.54263,-273.94049,-274.01144,-272.7244,-270.64355,-268.67325,-267.6138,-267.79401,-268.99603,-270.69568,-272.4343,-274.06506,-275.72198,-277.56964,-279.55005,-281.33612,-282.53571,-282.98972,-282.92715,-282.8389,-283.14514,-283.89401,-284.71921,-285.09921,-284.7355,-283.77167,-282.68277,-281.91016,-281.51111,-281.09738,-280.12827,-278.35901,-276.11157,-274.14478,-273.18253,-273.4151,-274.32816,-275.00162,-274.69534,-273.33209,-271.54916,-270.28085,-270.15292,-271.09369,-272.41068,-273.2569,-273.1514,-272.20114,-270.90411,-269.71637,-268.72089,-267.63446,-266.11578,-264.10483,-261.90741,-259.94916,-258.39572,-256.95731,-255.06404,-252.31084,-248.84244,-245.36812,-242.75533,-241.46948,-241.26028,-241.33134,-240.88,-239.61253,-237.84688,-236.11957,-234.60211,-232.81111,-229.91142,-225.47289,-220.15518,-215.76004,-214.46367,-217.60008,-224.72504,-233.58929,-241.12224,-244.90378,-244.28767,-240.54425,-235.98546,-232.63835,-231.26157,-231.22525,-231.20097,-230.12032,-227.76695,-224.69159,-221.62955,-218.91089,-216.28891,-213.25656,-209.55017,-205.42525,-201.49413,-198.26767,-195.7695,-193.52574,-190.93517,-187.72778,-184.15192,-180.74292,-177.85501,-175.33069,-172.58524,-169.06752,-164.7565,-160.30064,-156.6526,-154.42508,-153.41812,-152.67322,-151.04921,-147.94327,-143.66513,-139.20284,-135.53839,-132.98457,-130.99922,-128.59792,-125.06797,-120.47977,-115.64143,-111.53917,-108.66615,-106.71203,-104.81986,-102.21076,-98.722359,-94.882172,-91.480721,-88.968605,-87.118271,-85.186211,-82.442398,-78.67189,-74.28759,-69.990082,-66.245132,-62.972992,-59.670223,-55.849808,-51.445824,-46.86565,-42.654949,-39.049297,-35.780621,-32.308762,-28.307499,-24.015057,-20.141233,-17.357487,-15.733941,-14.563703,-12.752308,-9.5301371,-4.9806023,0.018546844,4.4251032,7.7839689,10.531683,13.594042,17.549963,22.00375,25.717932,27.535568,27.514032,27.442884,30.242317,38.457386,52.704716,71.044884,89.73484,104.97731,114.66916,119.16063,120.66347,121.77372,124.06554,127.56823,131.29105,134.27179,136.35527,138.20395,140.65271,143.98759,147.73,151.07159,153.58226,155.60143,157.97861,161.35078,165.52765,169.50214,172.14056,173.0748,173.12425,173.87892,176.67606,181.66699,187.6492,192.82516,195.99532,197.36449,198.38483,200.72072,205.04185,210.49237,215.23146,217.69974,217.74759,216.83304,217.11887,220.05084,225.36536,231.19984,235.2464,236.19342,234.51204,232.08774,230.96808,232.07454,234.72528,237.24991,238.23729,237.54614,236.3924,236.47081,238.72708,242.6277,246.43181,248.29388,247.47359,244.86169,242.48239,242.29129,245.02666,249.81352,254.7285,257.93793,258.70151,257.66769,256.35611,256.21109,257.81738,260.70245,263.75116,265.9039,266.69858,266.38608,265.6438,265.13586,265.19965,265.79626,266.6745,267.58792,268.423,269.19537,269.96542,270.75458,271.51093,272.1236,272.46179,272.42224,271.98148,271.24429,270.45782,269.95331,270.00919,270.68848,271.74866,272.70654,273.05701,272.5405,271.30222,269.83176,268.69855,268.22739,268.30463,268.43497,268.02036,266.70212,264.57346,262.15094,260.13455,259.09604,259.25467,260.42859,262.14578,263.8295,264.96823,265.22507,264.48746,262.87604,260.71735,258.47214,256.6178,255.51306,255.29486,255.85133,256.87488,257.95941,258.69318,258.72507,257.81866,255.9187,253.22096,250.18895,247.4464,245.53137,244.60141,244.25827,243.64188,241.80887,238.23077,233.13812,227.48743,222.52975,219.19685,217.64507,217.21735,216.8425,215.63293,213.33151,210.36246,207.4911,205.32985,203.99809,203.11681,202.09271,200.47554,198.1613,195.35219,192.35741,189.40549,186.58722,183.91959,181.42488,179.12958,176.98619,174.81673,172.37578,169.53058,166.43135,163.51192,161.26151,159.8831,159.07033,158.09064,156.1687,152.94801,148.72926,144.31075,140.51578,137.70688,135.60307,133.51469,130.82703,127.39523,123.5815,119.92121,116.67024,113.56836,109.99698,105.42518,99.830032,93.794518,88.213364,83.808655,80.777992,78.787651,77.269867,75.778809,74.151115,72.399742,70.492729,68.253159,65.49485,62.281872,59.057095,56.456699,54.874645,54.075932,53.182884,51.125042,47.302883,42.019562,36.350868,31.495869,28.026525,25.55509,23.068253,19.708008,15.442355,11.121317,7.8429542,6.0701671,5.1663847,3.7662065,0.81025624,-3.4475534,-7.2239351,-8.0739021,-4.4072313,3.2806344,12.305549,19.000881,20.589653,16.628386,9.157692,1.4744478,-3.7224269,-5.6983109,-5.7860804,-6.261795,-8.7830286,-13.398903,-18.707205,-22.957119,-25.296635,-26.323059,-27.610506,-30.59025,-35.572971,-41.566124,-46.973225,-50.665836,-52.694393,-54.183483,-56.526493,-60.456696,-65.619713,-70.897583,-75.212639,-78.233681,-80.51252,-83.000473,-86.324478,-90.344231,-94.282669,-97.301804,-99.088348,-100.02995,-100.87723,-102.16349,-103.82079,-105.27515,-105.94476,-105.76627,-105.3516,-105.64538,-107.31619,-110.31314,-113.9071,-117.1948,-119.71394,-121.7348,-124.02025,-127.2206,-131.33356,-135.61992,-139.05254,-141.00194,-141.68965,-142.09076,-143.33824,-146.02023,-149.83383,-153.81888,-157.00487,-159.0325,-160.33936,-161.8033,-164.10587,-167.25836,-170.6082,-173.30385,-174.88286,-175.57326,-176.11017,-177.21553,-179.12456,-181.5049,-183.83051,-185.9402,-188.36327,-192.13696,-198.18306,-206.62064,-216.46416,-225.93443,-233.23772,-237.38202,-238.57962,-238.03772,-237.29698,-237.51888,-239.10393,-241.77974,-244.99828,-248.32254,-251.55093,-254.55812,-257.05267,-258.5112,-258.40756,-256.61771,-253.71494,-250.89986,-249.52385,-250.43385,-253.50883,-257.67865,-261.44766,-263.64954,-264.01642,-263.24557,-262.53574,-262.87158,-264.474,-266.72537,-268.58957,-269.25153,-268.5831,-267.1633,-265.86728,-265.30301,-265.45767,-265.76593,-265.53421,-264.42786,-262.69769,-261.00577,-259.98001,-259.80487,-260.12396,-260.31146,-259.91705,-258.97101,-257.93732,-257.34888,-257.38394,-257.68683,-257.5708,-256.47464,-254.36502,-251.80727,-249.64932,-248.52513,-248.50426,-249.10983,-249.67232,-249.75909,-249.38043,-248.84647,-248.41061,-247.9939,-247.22069,-245.75549,-243.68378,-241.61592,-240.37183,-240.41043,-241.38748,-242.18777,-241.48856,-238.55147,-233.75357,-228.4953,-224.4958,-222.87245,-223.54776,-225.33374,-226.63112,-226.30986,-224.24455,-221.21475,-218.28595,-216.09874,-214.5164,-212.81767,-210.25882,-206.60771,-202.30681,-198.1946,-195.00885,-193.01292,-191.96431,-191.3882,-190.91611,-190.43898,-189.99551,-189.53116,-188.75877,-187.26114,-184.77345,-181.42874,-177.75906,-174.41821,-171.79831,-169.80049,-167.92007,-165.58868,-162.53743,-158.93419,-155.21399,-151.74207,-148.56526,-145.43335,-142.06357,-138.43326,-134.85851,-131.77541,-129.37138,-127.34607,-125.01043,-121.69939,-117.23893,-112.14291,-107.37412,-103.78979,-101.61159,-100.26241,-98.689743,-95.988586,-91.947601,-87.188187,-82.817856,-79.810127,-78.47438,-78.30439,-78.257896,-77.276337,-74.749229,-70.703262,-65.679649,-60.428097,-55.601631,-51.578659,-48.434223,-46.008785,-44.012627,-42.132401,-40.128311,-37.904236,-35.517391,-33.105183,-30.755522,-28.400949,-25.824007,-22.796047,-19.268826,-15.474581,-11.829534,-8.6687746,-5.9809856,-3.3487418,-0.18559673,3.8455408,8.505846,13.001756,16.402296,18.226772,18.823559,19.253603,20.695433,23.715519,27.87439,31.960039,34.748459,35.834385,35.993584,36.805401,39.726036,45.167366,52.161964,58.850758,63.524677,65.6017,65.950981,66.369812,68.531883,73.036644,79.110794,85.10379,89.442917,91.466263,91.670418,91.297623,91.582932,93.141624,95.823845,99.028732,102.18812,105.07673,107.78854,110.48225,113.15071,115.61064,117.70522,119.52705,121.4468,123.88839,127.00247,130.49236,133.75392,136.26448,137.95876,139.31314,141.04553,143.60689,146.80281,149.82011,151.67677,151.83134,150.56989,148.9173,148.11444,148.97147,151.47876,154.88936,158.19406,160.68356,162.26834,163.40512,164.73099,166.66507,169.21635,172.07013,174.84145,177.30363,179.45831,181.44687,183.4073,185.38686,187.34575,189.205,190.87114,192.21983,193.08672,193.32623,192.94043,192.19511,191.60887,191.76506,193.0238,195.30791,198.11978,200.81012,202.94731,204.55244,206.03693,207.87236,210.20755,212.6955,214.6629,215.52676,215.19087,214.15773,213.27197,213.25011,214.28995,215.99782,217.66357,218.69218,218.91353,218.59198,218.16727,217.93332,217.88356,217.81517,217.59099,217.34604,217.46939,218.3571,220.09998,222.3241,224.30901,225.33051,225.03395,223.62483,221.77415,220.2984,219.78909,220.37372,221.70171,223.12883,223.99112,223.8463,222.60205,220.50925,218.04558,215.74103,214.00726,213.03111,212.77046,213.04752,213.68263,214.58347,215.72691,217.04492,218.30605,219.11311,219.07846,218.11433,216.66469,215.69023,216.33228,219.3709,224.744,231.40561,237.64621,241.75565,242.71794,240.5997,236.45145,231.79152,227.94627,225.56645,224.51573,224.11752,223.57492,222.3318,220.22682,217.4341,214.29347,211.15514,208.30582,205.96379,204.28429,203.32999,203.01208,203.05194,203.0188,202.46007,201.0833,198.90742,196.30063,193.86473,192.19525,191.61023,191.97166,192.69925,192.99881,192.22368,190.20438,187.37044,184.57051,182.64809,181.97504,182.19708,182.35774,181.36974,178.59853,174.2361,169.23779,164.83403,161.87724,160.39325,159.59856,158.37691,155.93607,152.25703,148.07361,144.4059,141.94174,140.64575,139.82474,138.58772,136.39523,133.35031,130.06404,127.20928,125.07146,123.38875,121.56492,119.08257,115.81899,112.05259,108.18196,104.3915,100.53541,96.344078,91.801834,87.387032,83.929855,82.101898,81.833794,82.065491,81.072716,77.267929,70.057861,60.260632,49.80957,40.871296,34.84375,31.768703,30.453455,29.195005,26.678291,22.561113,17.478392,12.546154,8.706933,6.2910213,4.9833798,4.1238899,3.0969954,1.5728446,-0.49087778,-3.0079966,-5.9260006,-9.2758236,-13.103371,-17.364119,-21.871702,-26.3344,-30.446444,-33.975742,-36.8125,-38.981461,-40.635429,-42.032696,-43.482334,-45.251259,-47.465157,-50.067352,-52.882725,-55.76461,-58.726982,-61.950706,-65.630669,-69.75679,-74.001358,-77.83828,-80.860435,-83.091866,-85.051201,-87.465263,-90.782494,-94.81691,-98.813416,-101.95746,-104.02126,-105.68478,-108.23165,-112.72733,-119.17576,-126.24133,-131.81317,-134.15234,-132.94615,-129.59538,-126.50814,-125.79676,-128.16418,-132.65356,-137.38417,-140.76614,-142.39803,-143.09743,-144.12221,-146.18889,-149.0029,-151.6138,-153.28757,-154.19907,-155.37833,-157.91066,-161.98128,-166.52873,-169.86844,-170.92793,-170.21072,-169.68274,-171.45885,-176.02907,-181.21202,-182.7079,-176.18317,-159.82637,-135.90572,-110.32922,-90.304703,-81.270729,-84.680077,-97.726791,-115.02573,-131.22649,-143.15573,-150.50256,-154.97459,-158.68449,-162.80878,-167.20607,-170.98833,-173.46881,-174.78741,-175.84261,-177.66711,-180.72896,-184.62852,-188.3558,-190.90279,-191.83258,-191.47983,-190.71387,-190.45163,-191.21616,-192.96127,-195.20381,-197.33995,-198.9558,-199.98404,-200.66121,-201.34082,-202.27499,-203.47824,-204.73888,-205.76929,-206.4128,-206.78658,-207.26402,-208.28467,-210.08563,-212.51186,-215.03444,-216.98991,-217.91505,-217.78146,-216.98653,-216.1068,-215.5719,-215.46739,-215.58493,-215.66643,-215.65338,-215.75156,-216.25862,-217.28105,-218.55934,-219.55241,-219.74895,-219.00319,-217.65968,-216.36623,-215.68608,-215.76082,-216.24391,-216.54317,-216.20271,-215.16974,-213.78264,-212.51682,-211.68681,-211.31334,-211.22212,-211.26089,-211.43951,-211.8765,-212.6067,-213.43163,-213.96809,-213.88962,-213.18159,-212.19218,-211.40155,-211.05527,-210.94191,-210.51952,-209.34421,-207.5052,-205.71794,-204.93813,-205.7048,-207.65651,-209.60046,-210.16473,-208.65242,-205.5343,-202.21402,-200.16933,-200.00471,-201.04292,-201.7498,-200.73941,-197.70638,-193.66389,-190.31564,-188.96643,-189.68701,-191.28131,-192.06772,-190.94621,-188.04416,-184.53615,-181.80115,-180.51997,-180.32632,-180.20827,-179.31795,-177.57115,-175.5977,-174.10513,-173.17039,-172.04396,-169.6756,-165.61632,-160.62076,-156.42419,-154.71812,-155.92876,-158.60611,-159.89941,-156.92711,-148.28064,-134.80008,-119.19205,-104.74091,-93.863464,-87.275215,-84.103096,-82.704002,-81.602127,-80.023384,-77.873604,-75.387299,-72.807663,-70.302299,-68.045593,-66.247192,-64.992088,-63.989769,-62.492889,-59.578014,-54.710499,-48.24538,-41.472694,-36.068531,-33.210918,-32.885487,-33.836399,-34.234917,-32.684158,-28.956648,-24.024574,-19.388315,-16.144318,-14.376678,-13.222258,-11.513863,-8.5472755,-4.4748778,-0.10901089,3.6809382,6.544661,8.8216906,11.228389,14.31091,18.05044,21.876661,25.055521,27.173601,28.400188,29.37919,30.8531,33.279144,36.668636,40.705151,45.008072,49.334419,53.59024,57.68412,61.377991,64.289894,66.084335,66.735558,66.673744,66.678513,67.538406,69.652359,72.809769,76.302551,79.33651,81.522583,83.154907,85.078102,88.174469,92.742531,98.147255,103.01248,105.93101,106.33807,105.029,103.93017,105.12365,109.58063,116.30763,122.47225,124.58214,120.19606,109.29039,94.520889,80.175003,70.310036,67.019432,69.701118,75.651657,81.5942,85.278137,86.321175,85.955849,85.978302,87.598679,90.848061,94.778603,98.194382,100.38087,101.39613,101.83648,102.33586,103.17936,104.26063,105.33428,106.31525,107.38709,108.86248,110.93707,113.54418,116.41547,119.27927,122.02341,124.6931,127.34153,129.8781,132.06221,133.66733,134.69127,135.43596,136.37076,137.8591,139.94125,142.33249,144.63867,146.62648,148.34245,149.99043,151.66791,153.18112,154.11086,154.11256,153.24408,152.06569,151.4003,151.87801,153.55513,155.86623,157.95517,159.18015,159.47261,159.33029,159.46942,160.38123,162.08311,164.20195,166.29041,168.12581,169.77565,171.40184,172.97472,174.13608,174.34175,173.21233,170.86703,168.01598,165.73273,165.01901,166.38499,169.64345,173.99089,178.3109,181.56137,183.10968,182.9232,181.56731,180.00005,179.20473,179.77649,181.64211,184.08012,186.08292,186.90527,186.49521,185.5233,184.94601,185.34219,186.45198,187.26939,186.70563,184.44577,181.43291,179.58543,180.81215,185.85594,193.6638,201.71281,207.16776,208.24219,205.0043,199.19717,193.22545,188.93097,186.85031,186.29445,186.06247,185.24783,183.62683,181.48094,179.12067,176.55515,173.58221,170.20164,166.9679,164.91579,165.00595,167.42061,171.20898,174.59827,175.85896,174.23112,170.34306,165.85234,162.5193,161.27602,161.84612,163.1113,163.94418,163.94412,163.60054,163.80327,165.05557,166.94067,168.22235,167.54271,164.28571,159.05852,153.47287,149.33693,147.72453,148.45514,150.26482,151.53891,151.16539,149.03207,145.93465,143.01851,141.12552,140.41948,140.44705,140.51137,140.07394,138.9425,137.19382,134.97144,132.35855,129.42484,126.37444,123.61914,121.6479,120.73099,120.65527,120.70975,119.99403,117.89901,114.46691,110.38759,106.61187,103.81482,102.04896,100.80748,99.444374,97.655968,95.686302,94.112022,93.360588,93.311462,93.281319,92.429169,90.31678,87.23761,84.072998,81.754166,80.679085,80.466568,80.199921,78.981674,76.421509,72.750298,68.536537,64.265968,60.120384,56.10384,52.360916,49.353161,47.658257,47.472031,48.188465,48.461582,46.853512,42.733192,36.828823,30.979273,27.125147,26.116247,27.109613,28.015976,26.790239,22.777452,17.224237,12.551362,10.772326,12.02945,14.20683,13.946619,8.5260353,-2.505775,-16.917549,-30.876272,-40.897224,-45.543243,-45.934917,-44.864979,-45.124027,-48.04678,-53.064777,-58.387409,-62.26688,-64.035667,-64.352592,-64.642548,-66.191208,-69.478386,-74.083542,-79.089577,-83.63282,-87.247574,-89.878548,-91.683716,-92.849709,-93.551842,-94.021423,-94.583595,-95.572906,-97.166473,-99.27243,-101.58547,-103.7916,-105.77888,-107.69569,-109.81049,-112.28061,-115.00876,-117.69846,-120.0627,-122.01894,-123.71552,-125.37147,-127.06754,-128.67281,-129.9861,-130.99039,-132.00571,-133.57797,-136.13387,-139.62459,-143.42551,-146.60635,-148.4348,-148.80348,-148.30373,-147.8951,-148.38231,-150.02991,-152.53658,-155.3387,-157.99545,-160.38042,-162.57663,-164.60881,-166.26711,-167.19333,-167.17815,-166.43279,-165.59549,-165.42252,-166.35454,-168.25836,-170.53302,-172.5126,-173.88533,-174.83777,-175.83714,-177.2318,-178.98186,-180.72572,-182.12306,-183.19188,-184.35246,-186.11569,-188.64252,-191.52852,-194.01993,-195.53856,-196.12436,-196.41437,-197.08864,-198.12418,-198.40973,-196.10429,-189.65126,-178.88661,-165.53465,-152.6947,-143.51561,-139.76158,-141.06503,-145.27078,-149.64333,-152.22583,-152.60059,-151.70728,-150.95529,-151.25043,-152.5247,-153.97005,-154.71115,-154.4137,-153.43852,-152.50525,-152.16022,-152.43614,-152.91013,-153.06778,-152.68155,-151.93864,-151.26199,-150.99127,-151.16772,-151.56032,-151.8766,-151.9725,-151.90218,-151.79474,-151.68846,-151.47995,-151.03981,-150.39619,-149.81667,-149.68808,-150.25272,-151.38635,-152.59607,-153.27054,-153.03358,-151.96683,-150.54498,-149.32144,-148.57367,-148.15015,-147.62317,-146.64075,-145.23045,-143.83754,-143.05861,-143.24136,-144.21582,-145.33958,-145.83591,-145.21431,-143.51466,-141.23622,-139.01649,-137.27742,-136.05722,-135.10602,-134.14182,-133.06564,-131.98436,-131.04239,-130.21089,-129.21535,-127.68004,-125.40147,-122.55342,-119.6562,-117.29891,-115.78147,-114.91901,-114.16241,-112.98454,-111.29282,-109.58447,-108.70403,-109.31271,-111.38097,-114.0344,-115.89275,-115.75012,-113.22546,-109.0075,-104.53773,-101.2936,-100.06359,-100.60639,-101.86105,-102.55854,-101.86948,-99.731041,-96.713478,-93.569115,-90.778236,-88.367859,-86.07135,-83.664345,-81.210663,-79.038765,-77.477066,-76.555031,-75.903526,-74.945549,-73.258835,-70.862854,-68.22477,-65.966171,-64.457039,-63.565254,-62.732487,-61.333817,-59.090935,-56.272213,-53.549355,-51.599808,-50.701717,-50.56625,-50.496853,-49.764301,-47.968018,-45.186729,-41.869587,-38.576481,-35.741779,-33.579395,-32.125389,-31.320864,-31.037739,-31.031227,-30.893986,-30.11043,-28.242075,-25.164007,-21.202686,-17.056057,-13.497882,-11.005413,-9.5121393,-8.4312925,-6.9498277,-4.4433904,-0.79680818,3.5321629,7.7304602,11.010863,12.966722,13.738402,13.93143,14.342519,15.624887,18.032785,21.337784,24.935101,28.089001,30.22118,31.134312,31.085363,30.676086,30.598412,31.336908,32.960209,35.105942,37.181843,38.69976,39.581207,40.268604,41.559311,44.21825,48.550568,54.158974,60.035797,64.975365,68.118217,69.351997,69.351639,69.22583,69.951988,71.907059,74.754028,77.741241,80.224358,82.081238,83.750992,85.867058,88.726067,91.963264,94.691856,96.063019,95.901726,94.977432,94.665916,96.14653,99.614883,104.03958,107.69089,109.18161,108.39429,106.67632,106.09724,108.1461,112.63869,117.54082,119.90214,117.43368,109.84998,99.198219,88.961502,82.418205,81.150757,84.485481,90.093208,95.327187,98.510071,99.494911,99.312187,99.253777,100.01376,101.37538,102.53229,102.73527,101.80662,100.21777,98.746086,97.988663,98.059174,98.628532,99.228088,99.580261,99.74057,99.989799,100.58539,101.5582,102.68735,103.655,104.26563,104.58026,104.87745,105.46358,106.4493,107.63445,108.58821,108.90046,108.47266,107.66936,107.2048,107.77985,109.64659,112.36337,114.93719,116.34003,116.13663,114.83308,113.66026,113.82515,115.62167,117.9607,118.70754,115.76332,108.34626,97.728111,86.922104,79.396111,77.464005,81.229263,88.659927,96.727631,102.93603,106.37041,107.73611,108.49599,109.75139,111.60015,113.31508,114.10001,113.8035,113.05193,112.72671,113.21436,114.03355,114.16517,112.87656,110.43162,108.11495,107.46603,109.19836,112.55594,115.61584,116.42267,114.25206,110.15963,106.39857,105.02445,106.56545,109.64111,111.83397,111.31815,108.23684,104.93588,104.84032,110.5853,122.47326,138.14372,153.6353,165.22763,171.04564,171.6077,169.14497,166.20352,164.3645,163.73434,163.33183,161.9826,159.12119,155.0712,150.76237,147.17596,144.89832,143.99918,144.19194,145.06798,146.21811,147.21053,147.54344,146.71629,144.45103,140.94032,136.92639,133.48804,131.59082,131.62001,133.15546,135.1302,136.30817,135.8419,133.63011,130.30476,126.87441,124.22232,122.71752,122.1206,121.80318,121.13952,119.85113,118.12395,116.44808,115.28086,114.72898,114.43378,113.73208,112.01055,109.05882,105.22011,101.2464,97.93148,95.723206,94.530281,93.825775,92.975288,91.587799,89.682877,87.590881,85.674759,84.070641,82.620941,81.034996,79.153946,77.125801,75.36097,74.290627,74.086159,74.523338,75.077087,75.181473,74.491028,72.995697,70.952309,68.713333,66.57692,64.728882,63.25528,62.152855,61.297302,60.40929,59.105515,57.077785,54.32827,51.295128,48.72337,47.286594,47.154503,47.788513,48.14547,47.220383,44.621349,40.814167,36.859661,33.786472,31.986677,31.019188,29.946594,27.982176,25.019598,21.69887,18.975103,17.488008,17.154247,17.240334,16.840984,15.421597,13.065479,10.298258,7.6665778,5.4031558,3.4093072,1.5165099,-0.23726296,-1.5867409,-2.3238842,-2.6620557,-3.3440604,-5.3163795,-9.1169786,-14.379278,-19.837402,-23.914694,-25.583118,-24.970366,-23.320936,-22.315498,-23.157822,-25.981607,-29.915262,-33.717655,-36.546181,-38.367935,-39.794315,-41.513248,-43.742981,-46.079952,-47.815796,-48.472805,-48.174728,-47.606293,-47.607075,-48.684822,-50.763062,-53.297607,-55.64658,-57.432922,-58.680367,-59.681824,-60.736088,-61.947727,-63.205578,-64.315132,-65.164627,-65.809166,-66.436684,-67.262238,-68.425514,-69.937889,-71.680923,-73.439209,-74.96067,-76.047371,-76.662476,-77.001778,-77.462494,-78.48246,-80.310532,-82.841423,-85.639175,-88.166702,-90.095573,-91.494469,-92.755211,-94.286682,-96.176758,-98.064766,-99.338051,-99.544312,-98.749191,-97.587151,-96.950905,-97.508453,-99.357742,-102.03619,-104.85886,-107.33484,-109.36893,-111.12662,-112.70145,-113.88133,-114.2403,-113.52682,-112.06248,-110.80236,-110.91042,-113.04556,-116.80566,-120.74586,-123.06741,-122.65148,-119.8572,-116.58978,-115.53484,-118.92299,-127.45676,-139.94585,-153.81366,-166.18669,-175.00999,-179.67764,-180.96597,-180.42188,-179.58511,-179.42221,-180.16302,-181.4959,-182.92355,-184.06589,-184.78705,-185.14682,-185.26009,-185.16832,-184.79401,-183.99417,-182.67758,-180.91994,-179.00822,-177.37617,-176.44583,-176.44522,-177.29581,-178.6355,-179.97256,-180.8913,-181.201,-180.95645,-180.35893,-179.6181,-178.86591,-178.16167,-177.55061,-177.10112,-176.87413,-176.8511,-176.89922,-176.83525,-176.56807,-176.21597,-176.08493,-176.47932,-177.44748,-178.64006,-179.41246,-179.14697,-177.61147,-175.12326,-172.39934,-170.17639,-168.83855,-168.28389,-168.09322,-167.85347,-167.39009,-166.75037,-165.98799,-164.9671,-163.39359,-161.09131,-158.31281,-155.79578,-154.43301,-154.71768,-156.34142,-158.27444,-159.34581,-158.97301,-157.53699,-156.10286,-155.6362,-156.24927,-157.03955,-156.6967,-154.49812,-150.98438,-147.76578,-146.4949,-147.659,-150.05499,-151.41531,-149.87793,-145.35744,-139.83536,-136.23318,-136.46947,-139.91718,-143.32646,-142.41106,-134.24489,-119.05647,-100.32105,-83.059097,-71.322731,-66.31913,-66.195335,-67.481064,-67.213425,-64.449669,-60.367149,-57.086956,-56.116638,-57.425922,-59.636238,-61.031036,-60.609245,-58.493324,-55.538898,-52.558765,-49.77639,-46.864571,-43.44054,-39.55624,-35.773708,-32.779415,-30.868277,-29.724676,-28.680882,-27.245077,-25.471056,-23.862347,-22.874031,-22.407909,-21.728682,-19.923262,-16.603792,-12.335287,-8.4278097,-6.1718693,-6.0038638,-7.1685476,-8.128499,-7.4709563,-4.7270942,-0.5820967,3.6293454,6.7701087,8.5110006,9.3245392,9.9364176,10.690033,11.317317,11.28494,10.437983,9.4215689,9.5023928,11.841564,16.683226,23.024561,29.040752,33.045143,34.402695,33.828949,32.890598,33.02457,34.685955,37.137913,38.983643,39.08363,37.287491,34.555351,32.434254,32.233276,34.381355,38.295776,42.765236,46.571896,48.997921,49.994854,50.021873,49.728889,49.686298,50.265614,51.647709,53.868244,56.831493,60.294323,63.874374,67.130142,69.704697,71.466858,72.56778,73.369965,74.274483,75.52787,77.102486,78.708534,79.933578,80.447098,80.178391,79.387199,78.590897,78.373604,79.154633,81.01458,83.655258,86.512093,88.971291,90.599304,91.292068,91.291771,91.077904,91.185951,92.023209,93.739532,96.185127,98.963173,101.5635,103.54132,104.68192,105.08226,105.10139,105.1895,105.67497,106.62644,107.8759,109.19423,110.50598,111.98926,113.96989,116.65822,119.90128,123.1403,125.64526,126.91053,126.96662,126.39035,125.9791,126.27953,127.27348,128.43538,129.13232,129.10054,128.66528,128.53444,129.28648,130.89752,132.64713,133.50259,132.75806,130.51939,127.70834,125.56428,124.94853,125.88685,127.63069,129.18132,129.92488,129.96895,129.98195,130.67145,132.26729,134.35426,136.14931,137.01797,136.87694,136.22366,135.79497,136.09914,137.13017,138.42944,139.41963,139.76823,139.5464,139.11127,138.83032,138.85396,139.07927,139.29712,139.38953,139.42955,139.62589,140.17163,141.11502,142.33585,143.6252,144.79649,145.75237,146.48093,147.00983,147.36304,147.53975,147.50383,147.16957,146.39644,145.02933,143.00267,140.46861,137.85551,135.77155,134.75421,134.98381,136.13831,137.51073,138.35547,138.27519,137.41534,136.34106,135.66875,135.68076,136.15785,136.51607,136.13518,134.65611,132.07642,128.63968,124.66496,120.47831,116.4826,113.24097,111.39633,111.36578,112.95898,115.20663,116.61769,115.82397,112.28565,106.62758,100.35819,95.092522,91.722343,90.027077,88.949707,87.343163,84.69986,81.406998,78.399017,76.481171,75.798477,75.794983,75.649094,74.843529,73.459587,72.013313,70.996429,70.492012,70.154953,69.550331,68.559647,67.512909,66.923927,67.028267,67.496918,67.582878,66.629738,64.577278,62.068375,60.034672,59.024506,58.751682,58.216145,56.354008,52.789764,48.16806,43.81538,40.939659,39.897144,40.012577,40.05933,39.057892,36.84816,34.07056,31.616838,29.973942,28.929342,27.813625,26.054026,23.599535,20.9053,18.522217,16.646559,15.005284,13.171525,11.043959,9.0711298,7.9875832,8.2201967,9.4174252,10.50967,10.334148,8.4211073,5.3723698,2.5163157,1.0326908,1.1414582,1.9360967,2.0018823,0.39673936,-2.7034082,-6.1672587,-8.7696724,-10.122804,-10.975425,-12.628583,-15.874793,-20.255392,-24.241962,-26.289217,-26.038761,-24.770004,-24.665344,-27.285769,-32.266262,-37.185196,-38.83147,-35.157112,-26.692574,-16.484783,-8.5307131,-5.633399,-7.9741139,-13.234777,-18.12418,-20.305618,-19.539656,-17.433575,-16.114479,-16.792316,-19.146179,-21.824409,-23.572807,-24.131229,-24.290287,-25.154793,-27.229248,-30.025896,-32.465637,-33.735989,-33.937477,-34.023838,-35.078545,-37.467358,-40.500504,-42.866268,-43.53751,-42.511688,-40.86467,-40.08522,-41.156185,-44.006462,-47.674648,-51.017933,-53.436855,-55.118629,-56.685326,-58.574032,-60.649197,-62.338692,-63.163662,-63.223152,-63.228504,-64.031868,-65.989906,-68.646935,-70.998604,-72.170418,-72.031082,-71.295349,-71.03511,-71.946091,-73.897484,-76.086578,-77.678246,-78.451736,-78.969406,-80.133774,-82.456352,-85.589134,-88.492119,-90.149277,-90.330231,-89.83197,-89.983185,-91.715355,-94.832848,-98.008095,-99.550644,-98.472961,-95.163528,-91.226364,-88.586975,-88.431839,-90.632599,-93.964874,-96.912338,-98.503517,-98.677727,-98.049927,-97.356903,-97.02729,-97.140343,-97.687691,-98.814507,-100.77054,-103.59116,-106.8068,-109.50636,-110.81581,-110.49436,-109.18861,-108.07813,-108.08121,-109.15391,-110.21696,-109.84323,-107.29257,-103.18304,-99.27874,-97.457748,-98.508369,-101.57078,-104.64475,-105.8697,-104.7336,-102.37766,-100.7523,-101.16564,-103.21026,-104.84051,-103.62097,-98.37442,-90.157944,-81.901375,-76.891563,-77.021225,-81.859489,-89.062744,-95.794907,-100.23033,-102.2416,-102.97572,-103.75944,-105.15213,-106.75597,-107.7907,-107.89242,-107.48627,-107.45924,-108.41911,-110.14472,-111.68143,-112.0357,-110.95443,-109.19001,-108.01832,-108.32776,-109.92898,-111.59863,-111.85886,-109.96841,-106.44051,-102.72263,-100.25331,-99.541534,-99.895462,-99.973473,-98.763107,-96.305916,-93.67485,-92.234268,-92.703522,-94.665268,-96.837791,-97.900948,-97.30027,-95.495331,-93.523567,-92.223572,-91.675652,-91.235191,-90.102257,-87.997398,-85.45607,-83.535927,-83.144104,-84.444397,-86.733681,-88.848938,-89.818047,-89.335045,-87.794106,-85.927727,-84.338715,-83.235191,-82.486664,-81.8769,-81.314072,-80.838852,-80.464287,-80.026962,-79.215904,-77.78936,-75.82058,-73.766037,-72.266289,-71.782982,-72.303223,-73.307106,-74.021828,-73.800278,-72.394592,-69.986229,-67.009125,-63.927296,-61.118153,-58.886711,-57.507236,-57.166656,-57.79137,-58.886673,-59.576042,-58.924438,-56.422489,-52.344181,-47.709145,-43.799545,-41.473228,-40.68187,-40.514713,-39.779091,-37.786484,-34.862034,-32.244884,-31.414049,-33.230145,-37.401291,-42.585018,-47.052845,-49.515137,-49.63443,-47.978481,-45.522079,-43.064537,-40.928185,-39.06501,-37.401314,-36.101257,-35.524368,-35.908531,-37.037422,-38.182209,-38.417686,-37.138046,-34.434422,-31.065876,-28.01697,-25.911196,-24.652435,-23.522646,-21.669006,-18.663818,-14.781341,-10.828503,-7.6584997,-5.6913886,-4.7400188,-4.2201643,-3.5681374,-2.5698478,-1.3950058,-0.35342467,0.41554251,1.0794865,1.9806029,3.3484268,5.0876741,6.8121629,8.1076031,8.830327,9.2164812,9.7129202,10.647241,11.978402,13.317024,14.209905,14.486024,14.407106,14.499565,15.175647,16.414631,17.747805,18.58403,18.666162,18.337072,18.403557,19.651693,22.310976,25.818783,29.058132,30.942947,31.002853,29.61861,27.780405,26.536385,26.477198,27.553503,29.290943,31.212362,33.16655,35.358967,38.101631,41.489429,45.241608,48.812656,51.68145,53.612457,54.721272,55.328735,55.735634,56.086376,56.39819,56.690849,57.074287,57.697144,58.590015,59.546806,60.182274,60.178005,59.57095,58.870701,58.877804,60.269276,63.190266,67.116966,71.10511,74.299904,76.411819,77.873482,79.583611,82.394485,86.648643,92.026825,97.764313,103.06538,107.44281,110.78999,113.19517,114.68452,115.11579,114.31512,112.35419,109.74264,107.35237,106.06905,106.36221,108.03982,110.3521,112.39378,113.56667,113.82771,113.58858,113.35709,113.37048,113.46284,113.24078,112.42864,111.13157,109.82544,109.07391,109.16334,109.90454,110.73837,111.07662,110.65217,109.65034,108.54659,107.77692,107.47764,107.47253,107.50311,107.51794,107.79053,108.75636,110.66462,113.28645,115.90041,117.59966,117.74844,116.30869,113.83487,111.14593,108.88842,107.26431,106.07613,105.02393,104.02267,103.30675,103.24693,104.01273,105.32682,106.50236,106.76807,105.69528,103.47117,100.85266,98.823883,98.143791,99.01622,101.02791,103.35002,105.07863,105.55701,104.56975,102.37364,99.586266,96.974678,95.196999,94.565735,94.919243,95.675713,96.07946,95.549797,93.96582,91.728233,89.547417,88.062378,87.501694,87.58213,87.701912,87.308929,86.219643,84.702042,83.288086,82.449371,82.343376,82.775871,83.375,83.840508,84.10112,84.294724,84.61248,85.128784,85.72673,86.146446,86.101357,85.383339,83.916313,81.77153,79.174759,76.502914,74.227562,72.767761,72.282516,72.515732,72.827324,72.458702,70.925079,68.309105,65.248314,62.581589,60.845669,59.939564,59.195393,57.841057,55.571541,52.848129,50.702522,50.144955,51.55098,54.434834,57.770786,60.653893,62.848579,64.83551,67.304832,70.437241,73.488487,75.016159,73.661484,69.007034,61.943054,54.267845,47.738251,43.15303,40.044544,37.167927,33.460388,28.837212,24.299833,21.286842,20.699453,22.248806,24.560034,25.969501,25.497652,23.369274,20.755894,18.926565,18.375717,18.500261,18.028259,15.905913,12.05514,7.5059099,3.817112,2.1539967,2.5979743,4.1042976,5.1122475,4.4213624,1.8153008,-1.896631,-5.385232,-7.5163622,-7.8698869,-6.8333788,-5.3148479,-4.3077922,-4.548996,-6.3750229,-9.7332897,-14.247266,-19.287115,-24.07876,-27.901833,-30.351469,-31.535826,-32.053417,-32.698231,-34.022915,-36.022846,-38.167919,-39.799683,-40.651619,-41.123219,-42.05587,-44.075161,-46.886669,-49.019062,-48.297745,-42.903996,-32.481411,-18.648277,-4.5516872,6.3834295,11.896705,11.785355,7.7968974,2.6151714,-1.4830749,-3.5780766,-4.2074771,-4.6695576,-6.0243444,-8.4095793,-11.039032,-12.804104,-13.040146,-11.958664,-10.500617,-9.7522507,-10.330095,-12.125,-14.527077,-16.925156,-19.107573,-21.288908,-23.772097,-26.523954,-29.007864,-30.434286,-30.284224,-28.745209,-26.727337,-25.389917,-25.437471,-26.620159,-27.774637,-27.422577,-24.603022,-19.466116,-13.291012,-7.9238596,-4.9551725,-5.0777512,-7.9280629,-12.419882,-17.318872,-21.729467,-25.287725,-28.066475,-30.351151,-32.453888,-34.628437,-37.03833,-39.706673,-42.446102,-44.851147,-46.439243,-46.923828,-46.467487,-45.713844,-45.50341,-46.392208,-48.266953,-50.342827,-51.611565,-51.503296,-50.342094,-49.259464,-49.556423,-51.874359,-55.69862,-59.547215,-61.778343,-61.547508,-59.324947,-56.640781,-55.203651,-55.93288,-58.494396,-61.601318,-63.846401,-64.502487,-63.779209,-62.420139,-60.993034,-59.440578,-57.267273,-54.264099,-51.242802,-50.17292,-53.465115,-62.709568,-77.589378,-95.661583,-113.22785,-126.88224,-134.91942,-137.86212,-137.87601,-137.46638,-138.21858,-140.24585,-142.53572,-143.84979,-143.56001,-141.93579,-139.80566,-137.92023,-136.48621,-135.16286,-133.46504,-131.24573,-128.907,-127.20303,-126.7837,-127.78918,-129.74823,-131.81883,-133.19681,-133.44492,-132.58728,-130.98387,-129.12015,-127.44592,-126.30587,-125.91258,-126.30011,-127.25977,-128.3317,-128.9258,-128.5607,-127.10062,-124.83403,-122.31965,-120.07912,-118.33061,-116.94049,-115.62007,-114.21494,-112.85941,-111.86539,-111.42159,-111.34456,-111.11269,-110.21463,-108.58883,-106.81077,-105.81377,-106.24673,-107.86972,-109.44281,-109.29887,-106.34891,-100.93092,-94.924141,-90.942505,-90.977669,-95.238785,-101.88101,-107.83451,-110.31448,-108.19044,-102.46622,-95.630356,-90.278419,-87.799309,-87.837723,-88.759018,-88.756981,-86.91053,-83.591164,-80.061546,-77.596893,-76.709457,-76.932251,-77.232063,-76.729721,-75.247833,-73.35672,-71.930008,-71.526031,-71.99807,-72.568893,-72.304932,-70.683937,-67.908012,-64.78289,-62.250072,-60.859112,-60.48946,-60.472961,-60.030399,-58.757687,-56.878632,-55.123302,-54.308102,-54.859142,-56.544781,-58.557491,-59.888325,-59.782913,-58.041798,-55.035267,-51.470856,-48.075844,-45.367805,-43.591904,-42.779823,-42.820923,-43.471329,-44.321907,-44.818405,-44.407619,-42.780003,-40.069187,-36.849289,-33.877174,-31.699577,-30.362015,-29.420221,-28.269415,-26.588268,-24.596985,-22.934656,-22.214233,-22.546213,-23.368162,-23.728897,-22.869997,-20.729702,-18.02265,-15.817369,-14.867858,-15.129644,-15.779085,-15.727299,-14.294579,-11.60913,-8.4838037,-5.8765216,-4.3111119,-3.6422529,-3.2916818,-2.7482126,-1.9483563,-1.2589085,-1.0885179,-1.4378632,-1.751495,-1.2168665,0.6770643,3.717129,7.0016742,9.4476042,10.449201,10.250035,9.7718315,10.007837,11.382742,13.503381,15.457391,16.444796,16.305937,15.590261,15.135235,15.466707,16.452572,17.457666,17.887363,17.723614,17.65086,18.651178,21.326012,25.41371,29.862293,33.44838,35.54961,36.542835,37.521034,39.468117,42.415768,45.167393,45.849384,43.026176,36.719826,28.670895,21.593523,17.780411,17.83996,20.327013,22.548918,22.156046,18.650152,13.950114,11.65145,15.327083,26.741259,44.893356,66.357941,86.705437,102.25784,111.33375,114.48485,113.78928,111.71251,110.14877,110.01363,111.37324,113.82051,116.78673,119.66174,121.81224,122.66517,121.92175,119.79117,117.04163,114.74962,113.83276,114.62527,116.75766,119.41866,121.83112,123.63647,124.95586,126.1264,127.33472,128.42706,129.02943,128.87297,128.06773,127.11133,126.62218,126.9939,128.22011,130.0018,132.02867,134.19701,136.58957,139.24866,141.95653,144.2448,145.67102,146.16475,146.15167,146.30554,147.06438,148.26286,149.19302,149.11151,147.86336,146.15509,145.21526,146.00783,148.51768,151.6319,153.7625,153.83821,152.00175,149.5139,147.89752,147.8938,148.96204,149.69759,148.90062,146.54813,143.9554,142.96123,144.66269,148.57306,152.81618,155.26665,154.8811,152.31534,149.40683,147.8932,148.27731,149.6454,150.55357,150.30379,149.60789,150.0459,152.60367,156.31424,158.08157,154.04649,141.81474,122.20293,99.344009,78.949745,65.652718,60.925117,62.722507,66.957092,69.833763,69.653748,67.137932,64.309532,62.842419,62.988846,63.676323,63.518944,61.910847,59.417545,57.261333,56.361286,56.666798,57.252045,57.050682,55.648727,53.54335,51.700504,50.774345,50.594589,50.314262,49.107239,46.886673,44.488422,43.147549,43.613331,45.527344,47.527561,48.049164,46.309685,42.827053,39.119278,36.771351,36.46764,37.605373,38.722794,38.451668,36.380764,33.293423,30.654037,29.6891,30.641384,32.639355,34.226101,34.194542,32.219849,28.940208,25.490776,22.814104,21.169607,20.107248,18.874916,16.979078,14.552555,12.31952,11.189592,11.717967,13.730589,16.315207,18.184872,18.236246,16.036938,12.018166,7.2909675,3.1762965,0.66344196,0.03536386,0.81732827,2.0554593,2.7831714,2.4527225,1.1332039,-0.60650331,-2.0569148,-2.7786562,-2.8517969,-2.8350351,-3.4567065,-5.2001109,-8.0044937,-11.246353,-14.020784,-15.58214,-15.713902,-14.829771,-13.749913,-13.272899,-13.778369,-15.078822,-16.596928,-17.755215,-18.340446,-18.621462,-19.152578,-20.391771,-22.382019,-24.705643,-26.745825,-28.08671,-28.7862,-29.332565,-30.301714,-31.934483,-33.916618,-35.521374,-36.042366,-35.253094,-33.606853,-32.051208,-31.569799,-32.72398,-35.447201,-39.168701,-43.137096,-46.718521,-49.512787,-51.298302,-51.947468,-51.449448,-50.045853,-48.340221,-47.210583,-47.479382,-49.49157,-52.86956,-56.645248,-59.740788,-61.53054,-62.14006,-62.292408,-62.804214,-64.067078,-65.857307,-67.588203,-68.807877,-69.572807,-70.417931,-71.939423,-74.297012,-77.015839,-79.262474,-80.423981,-80.580994,-80.513824,-81.19664,-83.103256,-85.806427,-88.176559,-89.082436,-88.140427,-86.002365,-83.967751,-83.161804,-83.825294,-85.199867,-86.0951,-85.756866,-84.439888,-83.277817,-83.519821,-85.642799,-88.950111,-91.952118,-93.298431,-92.650414,-90.907684,-89.62606,-90.004318,-92.110855,-94.86602,-96.79174,-97.024185,-95.906357,-94.758698,-94.9813,-97.094894,-100.37223,-103.31293,-104.64082,-104.14403,-102.78195,-101.98447,-102.62826,-104.40793,-106.05703,-106.28552,-104.7844,-102.56881,-101.36121,-102.3829,-105.3733,-108.56709,-109.75356,-107.80015,-103.63659,-99.952034,-99.635078,-103.81221,-110.68592,-115.98926,-114.95692,-104.80513,-86.361565,-63.919483,-43.359634,-29.529053,-24.241735,-25.874723,-30.626734,-34.624062,-35.695202,-33.952518,-31.077175,-28.926352,-28.362909,-28.936975,-29.45266,-28.922308,-27.25115,-25.253668,-24.069538,-24.411482,-26.131672,-28.342373,-29.962889,-30.32226,-29.458464,-27.978886,-26.622198,-25.816523,-25.488911,-25.198652,-24.46973,-23.102352,-21.28821,-19.490072,-18.182417,-17.610409,-17.69138,-18.090107,-18.406519,-18.367701,-17.929892,-17.252481,-16.57152,-16.045025,-15.64956,-15.179169,-14.347595,-12.94605,-10.981088,-8.7237492,-6.638659,-5.2159228,-4.7742882,-5.3216219,-6.53794,-7.895256,-8.8676968,-9.1416521,-8.7303543,-7.9364681,-7.1768742,-6.7540946,-6.6927338,-6.7326951,-6.4897323,-5.6976447,-4.3901606,-2.9059465,-1.7009301,-1.0746824,-0.98211491,-1.0589993,-0.85495627,-0.12440657,1.0255309,2.2431164,3.2282751,3.9990723,4.9069734,6.348527,8.3581057,10.40104,11.593013,11.280043,9.6062384,7.6078401,6.6146388,7.2061572,8.3656044,7.4998732,1.5562806,-11.220881,-29.86586,-50.542423,-67.975891,-77.853004,-78.925323,-73.606834,-66.649361,-62.577831,-63.319115,-67.381676,-71.052063,-70.881737,-65.964928,-58.632858,-53.146614,-53.178886,-59.598316,-69.870079,-79.40004,-83.991714,-81.966148,-74.768097,-65.842346,-58.588459,-54.662598,-53.549023,-53.450275,-52.734642,-50.938667,-48.752754,-47.174179,-46.562683,-46.322708,-45.415272,-43.268005,-40.360756,-38.009918,-37.46833,-38.968227,-41.399197,-42.887146,-41.921745,-38.298744,-33.259804,-28.742754,-26.235611,-25.968277,-26.927143,-27.622698,-27.060972,-25.280373,-23.153091,-21.662592,-21.199177,-21.352703,-21.295116,-20.424522,-18.783569,-16.963434,-15.60002,-14.866106,-14.351207,-13.417664,-11.7569,-9.7130909,-8.1076145,-7.6658759,-8.4498749,-9.7148027,-10.319304,-9.4297228,-7.0436282,-3.9733543,-1.2994568,0.32794181,1.0529549,1.5854456,2.537298,3.7962031,4.4070077,3.1031899,-0.80883175,-6.7712283,-12.968258,-17.06325,-17.300583,-13.366578,-6.5356536,0.96692467,7.0228562,10.529185,11.708581,11.72949,11.918156,13.026849,14.935777,16.886976,18.051775,18.078142,17.315279,16.616594,16.856304,18.436974,21.05471,23.843674,25.822126,26.407309,25.730091,24.580519,24.004419,24.755978,26.89427,29.742979,32.241085,33.498493,33.255386,31.997768,30.678066,30.214193,31.058374,33.066525,35.701206,38.395142,40.821407,42.910397,44.651276,45.876736,46.237957,45.425713,43.491398,41.016941,38.95961,38.212181,39.126896,41.304729,43.804123,45.663944,46.433975,46.394634,46.337067,47.043159,48.783089,51.127323,53.172947,54.039837,53.349659,51.433281,49.180706,47.638817,47.568848,49.15913,51.987324,55.212059,57.899368,59.363907,59.411922,58.399136,57.067974,56.210419,56.294868,57.243725,58.499981,59.373009,59.478611,59.000927,58.584091,58.8857,60.060513,61.527912,62.229137,61.271832,58.581764,55.129433,52.530529,52.206043,54.584068,58.829887,63.28373,66.353363,67.327667,66.631462,65.399841,64.678581,64.778351,65.182945,65.028122,63.789021,61.692581,59.581245,58.343597,58.324104,59.126644,59.939095,60.135441,59.71891,59.288296,59.554111,60.756294,62.410297,63.578148,63.487011,62.063511,60.000038,58.290695,57.547775,57.572536,57.488045,56.356564,53.864071,50.59808,47.716141,46.219162,46.318943,47.330662,48.163612,48.070835,47.135891,46.153702,45.984001,46.831688,47.974548,48.160896,46.435291,42.838276,38.489182,34.968353,33.396912,33.836163,35.429825,37.208733,39.004349,41.801498,47.20274,56.268864,68.458672,81.401215,91.763275,96.804527,95.761841,90.264557,83.528015,78.77462,77.762863,80.209717,84.341064,88.146576,90.548576,91.822517,93.118141,95.487167,99.081367,103.0104,105.88828,106.6629,105.1861,102.19946,98.811935,95.853409,93.51638,91.456306,89.199799,86.529671,83.585114,80.658493,77.899689,75.18998,72.294357,69.167244,66.151253,63.873959,62.869431,63.168392,64.153343,64.816185,64.289886,62.331875,59.452648,56.602303,54.608665,53.717251,53.512207,53.246414,52.344807,50.742184,48.840824,47.137951,45.799854,44.495895,42.627415,39.813477,36.309509,33.06123,31.319441,32.017185,35.262756,40.235161,45.530666,49.75375,52.030754,52.207813,50.705387,48.193005,45.302299,42.501415,40.101631,38.279942,37.037868,36.132099,35.094749,33.425674,30.89852,27.78635,24.805485,22.736217,21.913868,21.923885,21.75444,20.380323,17.445168,13.592706,10.180042,8.4954796,8.9507446,10.777924,12.465239,12.686418,11.128742,8.6547956,6.6487565,5.9436684,6.0395665,5.177372,1.3008176,-6.6465797,-17.895336,-30.040625,-40.177631,-46.324387,-48.301125,-47.582012,-46.276093,-45.910912,-46.760132,-48.050064,-48.789761,-48.59206,-47.92659,-47.691338,-48.478317,-50.10043,-51.721848,-52.474483,-52.088608,-51.069744,-50.302452,-50.390106,-51.23074,-52.143654,-52.44141,-52.002022,-51.392426,-51.432945,-52.523796,-54.254322,-55.625584,-55.765667,-54.633068,-53.176064,-52.782101,-54.359409,-57.678837,-61.450874,-64.115883,-64.827591,-63.965282,-62.82716,-62.720612,-64.080109,-66.217865,-67.863708,-68.09507,-66.989349,-65.538269,-64.898315,-65.530022,-66.857826,-67.704765,-67.191208,-65.442017,-63.572651,-62.937119,-64.155815,-66.614708,-68.809174,-69.315941,-67.730019,-64.920113,-62.427521,-61.432446,-62.014969,-63.230518,-63.942451,-63.811195,-63.712582,-65.242035,-69.595322,-76.565559,-84.349907,-90.34597,-92.481178,-90.279976,-85.04847,-79.11422,-74.623207,-72.607376,-72.788208,-74.077789,-75.332687,-75.860809,-75.466095,-74.192673,-72.113945,-69.38501,-66.471146,-64.244347,-63.69997,-65.3535,-68.699669,-72.18457,-73.863869,-72.459,-68.19426,-62.852718,-58.927219,-58.303455,-61.231182,-66.198906,-70.798523,-73.075081,-72.570572,-70.466576,-68.780754,-69.131691,-71.814316,-75.701241,-78.965706,-80.14164,-78.882462,-76.018822,-72.967705,-70.916862,-70.282036,-70.699638,-71.454819,-71.996826,-72.200363,-72.256836,-72.347931,-72.38353,-72.006172,-70.851082,-68.862625,-66.432411,-64.25296,-62.975853,-62.887379,-63.791924,-65.150986,-66.367294,-67.03524,-67.03138,-66.442726,-65.430656,-64.141258,-62.703342,-61.269238,-60.018963,-59.090549,-58.477337,-57.981148,-57.284924,-56.125038,-54.464066,-52.550137,-50.814598,-49.661674,-49.272427,-49.533417,-50.119144,-50.663773,-50.915005,-50.793659,-50.355896,-49.714275,-48.979237,-48.241325,-47.568836,-46.988182,-46.447926,-45.807827,-44.895092,-43.620804,-42.084755,-40.576736,-39.43729,-38.844349,-38.667591,-38.512566,-37.957329,-36.84103,-35.402096,-34.143486,-33.48494,-33.425343,-33.460896,-32.852676,-31.102449,-28.335735,-25.326942,-23.120865,-22.468821,-23.425406,-25.351915,-27.307522,-28.55986,-28.883963,-28.484703,-27.651827,-26.440414,-24.630302,-21.987282,-18.600536,-14.996403,-11.891261,-9.7312546,-8.3575335,-7.0777559,-5.142055,-2.3137162,0.87774491,3.4160316,4.4529929,3.8973153,2.5142529,1.4408321,1.4362615,2.3918588,3.4586089,3.7142518,2.8907475,1.6124572,0.9273833,1.430155,2.6105409,2.9576709,0.85089344,-4.2973208,-11.414857,-18.143747,-22.059866,-22.012936,-18.748251,-14.411428,-11.249287,-10.334477,-11.112467,-12.015869,-11.684109,-9.9415216,-7.8787966,-7.0136662,-8.1410866,-10.687773,-13.026275,-13.534066,-11.667946,-8.3163347,-5.1914563,-3.6804404,-3.9365141,-4.8156409,-4.6809931,-2.5149171,1.4076507,5.7058959,8.7680416,9.6969843,8.7099228,6.7968178,4.9669566,3.6634767,2.7399952,1.9305929,1.3611469,1.633755,3.3729308,6.5766611,10.31359,13.086865,13.694779,12.019778,9.1753931,6.8591905,6.3120456,7.575593,9.5516539,10.820169,10.646794,9.4803038,8.6002636,9.175313,11.40737,14.372302,16.668636,17.408209,16.838737,16.151825,16.612827,18.633671,21.450277,23.634342,24.075197,22.736309,20.657427,19.214975,19.179098,20.240038,21.327379,21.470026,20.559483,19.458809,19.381546,20.995205,23.899588,26.853849,28.585634,28.604988,27.459778,26.286741,26.019266,26.835981,28.218065,29.503239,30.450703,31.35046,32.604202,34.164776,35.376888,35.46909,34.408047,33.450871,34.836514,40.617146,51.274113,65.023674,78.370712,87.705383,91.055107,88.966232,84.008377,79.238983,76.587288,76.112465,76.481285,76.214722,74.802719,72.96006,71.943474,72.504829,74.27079,75.990425,76.449394,75.375191,73.677979,72.853073,73.961998,76.892952,80.39399,82.835548,83.176704,81.507782,78.865898,76.521118,75.25251,75.072586,75.491226,76.025528,76.533432,77.147049,77.928886,78.596893,78.595665,77.495598,75.41581,73.115471,71.627342,71.646324,73.082497,75.091125,76.569527,76.793106,75.776993,74.15284,72.689079,71.813736,71.461113,71.299194,71.107033,70.976341,71.173004,71.78257,72.454506,72.502014,71.345367,69.005127,66.272453,64.376801,64.310204,66.215744,69.229424,71.88765,72.863129,71.602371,68.524094,64.725426,61.427811,59.493183,59.216679,60.377937,62.388371,64.40184,65.403519,64.401779,60.797718,54.817875,47.722416,41.519875,38.174988,38.648933,42.313656,47.153877,50.742947,51.498615,49.506111,46.407387,44.395824,44.899033,47.734402,51.242081,53.304905,52.623081,49.465195,45.455116,42.559925,41.930393,43.310398,45.345165,46.540569,46.229668,44.933624,43.923599,44.313004,46.293858,49.005768,51.090931,51.541733,50.278797,48.103764,46.097942,44.895733,44.318893,43.592999,41.97047,39.323204,36.30661,33.994549,33.232632,34.12674,35.975433,37.659054,38.218765,37.274063,35.071301,32.211208,29.289017,26.683823,24.576618,23.091003,22.375158,22.523474,23.3976,24.517818,25.166718,24.696844,22.872833,20.028116,16.918516,14.344052,12.757159,12.08261,11.838085,11.459608,10.622807,9.3767767,8.0425406,6.9750528,6.3522367,6.107018,6.0084271,5.8071251,5.3455215,4.5856142,3.5757761,2.4072416,1.189918,0.037348669,-0.96499896,-1.8099108,-2.6014707,-3.5257664,-4.7516003,-6.3134651,-8.0605497,-9.7241993,-11.075627,-12.073737,-12.897327,-13.829657,-15.067717,-16.587488,-18.162287,-19.523911,-20.552071,-21.353992,-22.173904,-23.196827,-24.39126,-25.510382,-26.25716,-26.498014,-26.371519,-26.212212,-26.341869,-26.874796,-27.67108,-28.462317,-29.049875,-29.427786,-29.74539,-30.148806,-30.63205,-31.018433,-31.091326,-30.777273,-30.243509,-29.8347,-29.892208,-30.582144,-31.844904,-33.482735,-35.300053,-37.183144,-39.069885,-40.86142,-42.380337,-43.439899,-43.986313,-44.198105,-44.441395,-45.084679,-46.29063,-47.932247,-49.693954,-51.276028,-52.535286,-53.442001,-53.887402,-53.521324,-51.812649,-48.37521,-43.383175,-37.775558,-33.030075,-30.544935,-30.939766,-33.684597,-37.304245,-40.073975,-40.829266,-39.447266,-36.762222,-34.01619,-32.201393,-31.665962,-32.143661,-33.088612,-34.038616,-34.781475,-35.291058,-35.573658,-35.594425,-35.337078,-34.902679,-34.506645,-34.328671,-34.323387,-34.17207,-33.468884,-32.045643,-30.195406,-28.590031,-27.89571,-28.330103,-29.485527,-30.582556,-31.011835,-30.789223,-30.57563,-31.203718,-33.017063,-35.497913,-37.494625,-37.950439,-36.661316,-34.525177,-33.05835,-33.450352,-35.76667,-38.844921,-40.987186,-41.020519,-39.039165,-36.340355,-34.594048,-34.792557,-36.66605,-38.930962,-40.17857,-39.791763,-38.280125,-36.83667,-36.453529,-37.220852,-38.284695,-38.469692,-37.114048,-34.532707,-31.799791,-30.021212,-29.61375,-30.084581,-30.442368,-29.931047,-28.566572,-27.111914,-26.525562,-27.27836,-29.008142,-30.734545,-31.473032,-30.836212,-29.251251,-27.703768,-27.227716,-28.483797,-31.642969,-36.536339,-42.85141,-50.176376,-57.883766,-65.035233,-70.516411,-73.441223,-73.623894,-71.795639,-69.352875,-67.710426,-67.604721,-68.756653,-70.103889,-70.469627,-69.269737,-66.84343,-64.231453,-62.562759,-62.431309,-63.620628,-65.297737,-66.514084,-66.696358,-65.862343,-64.495361,-63.212795,-62.447021,-62.296043,-62.56567,-62.919243,-63.030716,-62.68737,-61.844639,-60.649506,-59.422878,-58.5709,-58.420044,-59.034081,-60.120224,-61.111412,-61.415707,-60.709553,-59.103027,-57.069576,-55.177223,-53.788364,-52.916851,-52.323727,-51.766487,-51.209278,-50.831715,-50.825993,-51.137672,-51.36414,-50.924988,-49.424194,-46.969303,-44.213264,-42.050945,-41.129967,-41.471432,-42.443626,-43.117645,-42.795113,-41.388912,-39.43071,-37.713085,-36.799313,-36.706905,-36.951149,-36.903439,-36.22607,-35.10759,-34.15604,-34.019955,-34.966408,-36.66246,-38.282764,-38.885406,-37.862129,-35.243187,-31.716835,-28.356716,-26.172867,-25.670589,-26.600473,-28.017078,-28.649614,-27.455589,-24.127203,-19.304945,-14.358117,-10.790873,-9.5376844,-10.503655,-12.61037,-14.351165,-14.574832,-13.070548,-10.622627,-8.501277,-7.6864791,-8.2840786,-9.4798279,-10.050161,-9.1079721,-6.6203098,-3.3842497,-0.49242285,1.3582804,2.2691386,3.0021131,4.4055448,6.7892017,9.6644678,12.025085,12.99163,12.407248,11.002289,10.018106,10.517447,12.797645,16.249849,19.729002,22.194618,23.239187,23.214346,22.922789,23.097687,23.992254,25.304111,26.441532,26.940422,26.774836,26.390688,26.463606,27.531998,29.707912,32.609802,35.538845,37.803181,39.032902,39.34132,39.25948,39.47068,40.462006,42.255512,44.358719,45.98085,46.431313,45.510414,43.682934,41.918438,41.252438,42.280693,44.851215,48.123795,50.970104,52.50066,52.438438,51.155731,49.390995,47.842697,46.885845,46.54911,46.703598,47.276878,48.310322,49.817299,51.571007,53.027077,53.504814,52.563019,50.341564,47.622715,45.521389,44.949306,46.157246,48.630974,51.407894,53.623451,54.956196,55.711342,56.518768,57.867638,59.792408,61.905743,63.725922,65.042892,66.048088,67.131638,68.50045,69.912285,70.750061,70.419266,68.807953,66.478523,64.424957,63.523373,64.027946,65.453705,66.936775,67.832863,68.132622,68.375534,69.078995,70.051498,70.08654,67.334824,60.234673,48.505016,33.614468,18.404318,6.0106187,-1.3784924,-3.3106151,-1.0462633,3.1878533,7.2268872,9.756918,10.554961,10.206638,9.578949,9.3655024,9.8767166,11.055752,12.596028,14.060508,14.990357,15.040313,14.14098,12.607533,11.082294,10.273086,10.59481,11.927971,13.674762,15.117302,15.872815,16.14897,16.610664,17.921812,20.254654,23.101549,25.5373,26.780657,26.693251,25.880659,25.31464,25.710407,27.058451,28.614086,29.354256,28.613903,26.507055,23.882933,21.860418,21.231762,22.077538,23.778419,25.365578,25.980585,25.206524,23.154921,20.341761,17.463282,15.169459,13.881418,13.672566,14.245494,15.045894,15.511032,15.358653,14.750802,14.198188,14.218301,14.940803,15.929762,16.381985,15.612803,13.521273,10.70536,8.1160583,6.4614935,5.768332,5.418664,4.6486382,3.1497319,1.3164499,-0.069812275,-0.50146198,-0.2336545,-0.16710433,-1.1291927,-3.0535753,-4.7306581,-4.4698162,-1.3606541,3.7081461,8.102005,8.7735977,4.2124557,-4.1886797,-12.340271,-15.32698,-9.9859028,3.2882903,20.611509,36.565983,46.929924,50.609398,49.707737,47.819073,47.696392,49.752823,52.237942,52.815472,50.392365,45.964298,41.967796,40.648514,42.586273,46.359756,49.531956,50.252411,48.397678,45.529591,43.766659,44.370823,46.986343,49.975651,51.54488,50.858841,48.421738,45.553516,43.412167,42.274208,41.536907,40.35807,38.404846,36.147533,34.505779,34.143661,34.959362,36.153759,36.822968,36.628494,36.040485,35.961693,36.994415,38.881939,40.546051,40.730145,38.830444,35.354565,31.685389,29.286467,28.851456,29.93158,31.25762,31.52636,30.141293,27.459841,24.443403,21.99287,20.424648,19.405285,18.329571,16.834461,15.08063,13.626204,13.012021,13.365932,14.29574,15.121482,15.264447,14.525426,13.093126,11.330095,9.5294962,7.8208947,6.2535176,4.929534,4.0246034,3.6455214,3.6412196,3.5609844,2.8653607,1.2939227,-0.86641759,-2.8505421,-3.8465023,-3.5429237,-2.4146657,-1.497671,-1.7334552,-3.2832613,-5.2908802,-6.3278828,-5.3180437,-2.3883114,0.92493123,2.3313251,-0.0032780191,-6.3664417,-15.172665,-23.620056,-28.984587,-29.845638,-26.597855,-21.038603,-15.350166,-11.095565,-8.753006,-7.9201093,-7.9016786,-8.2206812,-8.7452154,-9.4604692,-10.1794,-10.494929,-10.044207,-8.8725147,-7.5727777,-7.0255713,-7.8653274,-10.026242,-12.700152,-14.771843,-15.468522,-14.803027,-13.520933,-12.593499,-12.60238,-13.426756,-14.426405,-14.967999,-14.910679,-14.708079,-15.064763,-16.401554,-18.514624,-20.668816,-22.055454,-22.291864,-21.620825,-20.690403,-20.092012,-19.994446,-20.123653,-20.075626,-19.70677,-19.299721,-19.379204,-20.317982,-22.028698,-23.972309,-25.479273,-26.15204,-26.06419,-25.627918,-25.248318,-25.033932,-24.779043,-24.217175,-23.333168,-22.473806,-22.150709,-22.669098,-23.86001,-25.131121,-25.823738,-25.637238,-24.824221,-24.015484,-23.793253,-24.307095,-25.19463,-25.852057,-25.855715,-25.237654,-24.432009,-23.946972,-24.006855,-24.417612,-24.739178,-24.627586,-24.09836,-23.531765,-23.430531,-24.108158,-25.515291,-27.294888,-28.991985,-30.256149,-30.916876,-30.936588,-30.341698,-29.224861,-27.814129,-26.509838,-25.787348,-25.966909,-26.982023,-28.324743,-29.257011,-29.20195,-28.090504,-26.441854,-25.109446,-24.830294,-25.837135,-27.751799,-29.804827,-31.237387,-31.654688,-31.156521,-30.215841,-29.409302,-29.151266,-29.541601,-30.360323,-31.183483,-31.571953,-31.276014,-30.384684,-29.338552,-28.756672,-29.117638,-30.446455,-32.2075,-33.523037,-33.643574,-32.405533,-30.369715,-28.504526,-27.577803,-27.651329,-28.052435,-27.90346,-26.897308,-25.786566,-26.184927,-29.709896,-36.953621,-46.936634,-57.437386,-66.047935,-71.335976,-73.417046,-73.619453,-73.510933,-73.952621,-74.786278,-75.289177,-74.986649,-74.178162,-73.773735,-74.571785,-76.544121,-78.704491,-79.709091,-78.782135,-76.28965,-73.514526,-71.761726,-71.43074,-71.749191,-71.403748,-69.645592,-67.06337,-65.404053,-66.475708,-70.836037,-77.177795,-82.89537,-85.531418,-84.192558,-80.016678,-75.388138,-72.420212,-71.698189,-72.081642,-71.642044,-69.058411,-64.520851,-59.568329,-56.032188,-54.849422,-55.549141,-56.705215,-56.967834,-55.919914,-54.188465,-52.81292,-52.402554,-52.724106,-52.99427,-52.602058,-51.669868,-51.005386,-51.478062,-53.301182,-55.776066,-57.706196,-58.183479,-57.170036,-55.454388,-54.031647,-53.384857,-53.207466,-52.759041,-51.55497,-49.831894,-48.404831,-48.010071,-48.64455,-49.442867,-49.239967,-47.438282,-44.534294,-41.874119,-40.76115,-41.529297,-43.254135,-44.341248,-43.606159,-41.095387,-38.063675,-36.111126,-36.077362,-37.463478,-38.778992,-38.559208,-36.333988,-32.883404,-29.640837,-27.713673,-27.241152,-27.524012,-27.760609,-27.762005,-28.041237,-29.16733,-30.873327,-31.65707,-29.309124,-22.147169,-10.194479,4.491159,18.615168,29.130867,34.544369,35.318459,33.254929,30.365543,27.977713,26.537849,26.019392,26.436712,27.990496,30.765284,34.327301,37.68161,39.753452,40.096474,39.278435,38.576088,39.112316,41.018372,43.246532,44.231018,42.987118,39.892025,36.573582,34.937874,35.971909,39.131809,42.734081,45.078762,45.530369,44.822601,44.40572,45.329704,47.472443,49.660347,50.579201,49.803123,48.184456,47.305958,48.368687,51.295734,54.686954,56.670174,56.077774,53.165264,49.416752,46.609524,45.790585,46.8288,48.763454,50.609135,51.998844,53.230572,54.766731,56.648064,58.322147,59.037048,58.48909,57.196156,56.260632,56.647198,58.482658,60.897778,62.554489,62.50671,60.79055,58.321281,56.165951,54.713154,53.347347,50.887173,46.506115,40.500336,34.353161,30.012953,28.830219,30.827951,34.756218,38.866489,41.887249,43.588547,44.634895,45.910393,47.824066,50.060162,51.886574,52.73872,52.63295,52.127216,51.89677,52.265827,53.041782,53.749928,54.059978,54.060425,54.165997,54.733952,55.695255,56.505642,56.488419,55.345753,53.473461,51.830936,51.416073,52.668106,55.182377,57.926044,59.825306,60.361565,59.817146,59.038704,58.886467,59.716679,61.200573,62.559036,63.040028,62.340672,60.739712,58.898777,57.483532,56.834736,56.857365,57.149696,57.26329,56.936951,56.194286,55.286285,54.539787,54.200054,54.335075,54.825569,55.427132,55.87154,55.970058,55.685646,55.148952,54.608902,54.330677,54.478176,55.029644,55.767033,56.350231,56.450642,55.890682,54.730392,53.261391,51.90313,51.035084,50.826309,51.133247,51.519402,51.409561,50.334225,48.169491,45.258682,42.335754,40.25227,39.609768,40.465343,42.267956,44.084801,45.032032,44.704033,43.373726,41.837864,40.965347,41.177704,42.149643,42.91824,42.373055,39.879944,35.695313,30.921091,26.994257,24.967865,24.9715,26.15399,27.148893,26.809288,24.803583,21.743683,18.787813,16.964333,16.618238,17.295338,18.10508,18.311052,17.770353,16.955252,16.568611,17.026453,18.158789,19.324984,19.857836,19.529179,18.716709,18.154539,18.432716,19.582718,21.031067,21.957529,21.822252,20.710701,19.264559,18.241545,17.994413,18.214563,18.112259,16.919983,14.396008,11.008928,7.6930747,5.3386965,4.3395209,4.4653444,5.104588,5.6838536,5.9758744,6.1074319,6.2985702,6.5493336,6.5181813,5.6940322,3.7530739,0.85621297,-2.3284581,-4.9213519,-6.2859807,-6.3779263,-5.779213,-5.3869867,-5.9188085,-7.4961715,-9.5250721,-10.938692,-10.687993,-8.2481585,-3.9031131,1.3292193,6.107039,9.3340235,10.630037,10.476315,9.9480076,10.144572,11.592772,13.936193,16.09868,16.862368,15.561767,12.504703,8.8625984,6.0685506,5.0567145,5.7859015,7.3325834,8.4954329,8.5343475,7.5775495,6.4395995,5.9758577,6.4096751,7.0976682,6.9166484,5.0392919,1.5898019,-2.2754865,-4.9574533,-5.3329544,-3.4362466,-0.47336122,1.8460715,2.2502592,0.55064613,-2.3759947,-5.2104945,-6.9939394,-7.6083112,-7.6805649,-8.0440578,-9.1574087,-10.859587,-12.571156,-13.738684,-14.180816,-14.108942,-13.858661,-13.577345,-13.121176,-12.230994,-10.831497,-9.204957,-7.8937087,-7.3978601,-7.8898578,-9.1488714,-10.746623,-12.329147,-13.781955,-15.177043,-16.584768,-17.938736,-19.082212,-19.950741,-20.706104,-21.657684,-22.985224,-24.473087,-25.509945,-25.436628,-24.048561,-21.888615,-20.057783,-19.593344,-20.801353,-23.025898,-25.086445,-26.158085,-26.517229,-27.593636,-31.185955,-38.25964,-48.07782,-58.273224,-65.914169,-68.99395,-67.482361,-63.318844,-59.352173,-57.851303,-59.438766,-63.005779,-66.558884,-68.415634,-68.030457,-66.040581,-63.640167,-61.774616,-60.674313,-59.947754,-59.064098,-57.836529,-56.585228,-55.921658,-56.350227,-57.964508,-60.402996,-63.03854,-65.249153,-66.622993,-67.042747,-66.677612,-65.9244,-65.301765,-65.281532,-66.082504,-67.523674,-69.057365,-70.022713,-70.009911,-69.114151,-67.889816,-66.99752,-66.75563,-66.903114,-66.762749,-65.724426,-63.730953,-61.418026,-59.777962,-59.542446,-60.688454,-62.408115,-63.579754,-63.438316,-62.004536,-59.994617,-58.285397,-57.311317,-56.808029,-56.069889,-54.528282,-52.237244,-49.921955,-48.550762,-48.717022,-50.239586,-52.236259,-53.609642,-53.630962,-52.276451,-50.161488,-48.17807,-47.089725,-47.29528,-48.805527,-51.332325,-54.372128,-57.260841,-59.273849,-59.837227,-58.800014,-56.59549,-54.119606,-52.313492,-51.657207,-51.893284,-52.192039,-51.691231,-50.076626,-47.813797,-45.856544,-45.010666,-45.379822,-46.280872,-46.701828,-45.998699,-44.350651,-42.649426,-41.886852,-42.45697,-43.856831,-45.000351,-44.93544,-43.472202,-41.288132,-39.438652,-38.615955,-38.677105,-38.776947,-38.019554,-36.175076,-33.952465,-32.613689,-33.162144,-35.633305,-38.96011,-41.517456,-42.015949,-40.199429,-36.936539,-33.683594,-31.674416,-31.326136,-32.171928,-33.283051,-33.858322,-33.610783,-32.768856,-31.780771,-30.978231,-30.425055,-30.00074,-29.591841,-29.211063,-28.955042,-28.859713,-28.796648,-28.514978,-27.809166,-26.686201,-25.398365,-24.305475,-23.65564,-23.433405,-23.375736,-23.139397,-22.504726,-21.489075,-20.318171,-19.302233,-18.711222,-18.712658,-19.362827,-20.596872,-22.18593,-23.698723,-24.552294,-24.205143,-22.44108,-19.58777,-16.499723,-14.247394,-13.63437,-14.796717,-17.120693,-19.543026,-21.07095,-21.225506,-20.162056,-18.429453,-16.557531,-14.759673,-12.937812,-10.951519,-8.9189167,-7.2935429,-6.6270261,-7.1678228,-8.588439,-10.070128,-10.738626,-10.195049,-8.7967558,-7.4838014,-7.2320743,-8.4575272,-10.735713,-13.00875,-14.152999,-13.567819,-11.450447,-8.6296768,-6.0974712,-4.531599,-4.0614815,-4.3459983,-4.8455286,-5.0997038,-4.886538,-4.2551575,-3.4888453,-3.0269506,-3.3098927,-4.5064011,-6.1812181,-7.0998611,-5.4116025,0.69434655,12.06031,27.825682,45.377586,61.17881,72.175026,77.094154,76.931442,74.323715,72.136383,72.045235,73.895668,76.151825,77.09153,75.971992,73.455078,71.088608,70.252441,71.294739,73.408722,75.270302,75.944832,75.423019,74.449333,73.829475,73.769341,73.749672,73.0214,71.330032,69.293083,68.102669,68.726913,71.173553,74.365784,76.762039,77.320961,76.152061,74.396645,73.416885,73.858589,75.246231,76.39444,76.339088,75.115654,73.812393,73.837067,75.899384,79.427216,82.846519,84.559059,83.966454,81.85054,79.857986,79.442528,80.97438,83.591522,85.848579,86.683784,86.041382,84.766548,83.914352,84.006302,84.759575,85.435532,85.496696,85.058601,84.807266,85.467857,87.239723,89.617249,91.709381,92.797272,92.713432,91.794113,90.503365,89.074318,87.468109,85.656898,83.939613,82.94706,83.242828,84.786842,86.706352,87.647934,86.565613,83.44104,79.416504,76.191208,75.038185,76.079231,78.295349,80.252045,81.033775,80.754913,80.331673,80.724556,82.208817,84.15892,85.416763,84.887581,81.90007,76.145958,67.428902,55.639606,41.149815,25.352562,10.769422,0.31778067,-4.0667973,-2.6492858,1.9574738,6.0496202,6.8816886,4.2450347,0.47952822,-1.2057651,0.93676472,5.79003,9.944953,9.9833088,4.9782596,-2.5432312,-7.9767733,-7.5747738,-1.0196496,8.1541262,14.704164,15.07308,9.8016939,3.3037376,1.0575105,5.9979191,16.464069,27.067007,31.935432,28.246405,17.787828,5.6252227,-3.1491416,-6.4030528,-5.7887535,-5.0380645,-7.0657001,-11.935663,-17.029367,-19.154867,-16.992573,-12.106417,-7.8324294,-6.8895268,-9.4490452,-13.042033,-14.358199,-11.652164,-6.058733,-0.89990258,0.52826601,-2.8399935,-9.1402664,-14.822802,-16.959108,-15.046128,-11.142606,-8.3349209,-8.6359634,-11.730773,-15.333528,-16.806967,-14.891343,-10.410443,-5.5895872,-2.5618937,-2.1119692,-3.4376063,-4.952477,-5.46312,-4.8888144,-4.106926,-4.1527214,-5.4146667,-7.3879747,-9.0931664,-9.7916222,-9.4683657,-8.7768173,-8.5467548,-9.2387142,-10.70682,-12.367357,-13.585794,-13.994376,-13.573484,-12.539722,-11.203806,-9.9139013,-9.0579758,-9.0094767,-9.9535265,-11.679597,-13.5297,-14.633865,-14.364936,-12.748019,-10.533064,-8.8299789,-8.499156,-9.675622,-11.73834,-13.745207,-15.03731,-15.597119,-15.918668,-16.497967,-17.333422,-17.831617,-17.228704,-15.253348,-12.547265,-10.484524,-10.425014,-12.84106,-16.890728,-20.767744,-22.677437,-21.876429,-19.142212,-16.36557,-15.487113,-17.399706,-21.461111,-25.891119,-28.797234,-29.209394,-27.526379,-25.156248,-23.624956,-23.722271,-25.18343,-27.032799,-28.296078,-28.587616,-28.213459,-27.787493,-27.688509,-27.768753,-27.517138,-26.537577,-24.970301,-23.523451,-23.063828,-24.038803,-26.135202,-28.428478,-29.938728,-30.225901,-29.624321,-28.963894,-28.979494,-29.823524,-31.017006,-31.858017,-31.977671,-31.629549,-31.495569,-32.14978,-33.581398,-35.146454,-36.009613,-35.772827,-34.832359,-34.181622,-34.767059,-36.831219,-39.70282,-42.191463,-43.32629,-42.940311,-41.71656,-40.694439,-40.606998,-41.512962,-42.939819,-44.359386,-45.578445,-46.727715,-47.891937,-48.753021,-48.640079,-47.05267,-44.287663,-41.613079,-40.688023,-42.488049,-46.456371,-50.581394,-52.536526,-51.252022,-47.861969,-45.243717,-46.238884,-51.572956,-58.833927,-63.333519,-60.534954,-48.69894,-30.156013,-10.363705,4.7870841,11.895999,11.547829,7.582418,4.6699033,5.6819043,10.372085,15.995082,19.296017,18.546747,14.418021,9.3122015,5.7546072,4.9364634,6.2657948,8.0493879,8.7198114,7.7778854,5.9280348,4.4656405,4.4189963,5.9995828,8.6133623,11.296811,13.230574,14.042124,13.823756,12.972411,11.992261,11.323828,11.193558,11.492332,11.758154,11.352854,9.8210182,7.2548847,4.4040976,2.3746626,2.0254135,3.4156239,5.6863656,7.5099669,7.8636861,6.6388869,4.6784329,3.2076738,3.0383213,4.0829678,5.499414,6.3364506,6.1986842,5.4466376,4.8049188,4.7017865,4.8709116,4.5468116,3.1235135,0.76737767,-1.522758,-2.5173516,-1.6206058,0.63596499,2.8722482,3.7623725,2.9439812,1.2799153,0.26197964,0.96048892,3.2625155,5.9483037,7.5577989,7.4260836,6.138721,5.0764837,5.3840432,7.1217937,9.2276621,10.317371,9.7270603,8.0163498,6.5497131,6.4667788,7.8221602,9.5597115,10.359013,9.7155743,8.4086704,7.9500885,9.3860941,12.360406,15.210444,16.121206,14.531845,11.706706,9.9079561,10.613825,13.007654,13.919433,9.4938498,-2.3356042,-20.144527,-39.291931,-54.162891,-61.099178,-60.252792,-55.241787,-50.855797,-50.261002,-53.415188,-57.571842,-59.397263,-57.240364,-52.101486,-46.788597,-43.960396,-44.42886,-46.821121,-48.724464,-48.448898,-46.193329,-43.875751,-43.812065,-47.160545,-53.129982,-59.387367,-63.322834,-63.355846,-59.555828,-53.363678,-46.745506,-41.340645,-38.006489,-36.811119,-37.263718,-38.553654,-39.724903,-39.855915,-38.310562,-34.999447,-30.486382,-25.816322,-22.113638,-20.164621,-20.209751,-22.013048,-25.075397,-28.786922,-32.430759,-35.15078,-36.085716,-34.742943,-31.419714,-27.308268,-24.036434,-22.776392,-23.443394,-24.582439,-24.172071,-20.955915,-15.4653,-9.9791842,-7.2973228,-9.0006981,-14.296782,-20.264473,-23.456774,-21.929028,-16.433676,-10.006297,-6.1711349,-6.8704653,-11.394456,-16.941099,-20.395802,-20.170082,-16.958746,-13.026536,-10.597828,-10.456663,-11.641193,-12.328019,-11.20684,-8.3754978,-5.1865883,-3.2328403,-3.2321336,-4.5867524,-5.8745861,-5.8744631,-4.3916407,-2.340008,-1.082357,-1.5276574,-3.5977073,-6.3636203,-8.6728945,-9.7894526,-9.638546,-8.5905514,-7.0527945,-5.2217908,-3.1498778,-0.98715734,0.88375825,1.9891499,2.0874398,1.3936707,0.47833255,-0.12898345,-0.34355837,-0.60802293,-1.5471363,-3.4183421,-5.7642388,-7.5571017,-7.7801399,-6.0640817,-2.9353671,0.50824553,3.2773819,5.0547056,6.2537251,7.5487165,9.2374296,10.922849,11.768847,11.159478,9.2802935,7.1719413,6.1674333,7.0626907,9.5745029,12.462621,14.252969,14.100317,12.244166,9.7924747,8.013258,7.6160855,8.4679098,9.857461,11.047142,11.694716,11.881354,11.810878,11.492229,10.700931,9.2601004,7.3939629,5.8165259,5.4039931,6.6266193,9.1371326,11.848923,13.517237,13.479079,12.069796,10.424965,9.775321,10.680818,12.695817,14.677303,15.529516,14.900657,13.391273,12.161378,12.211123,13.801797,16.366888,18.929487,20.723095,21.611219,22.065992,22.76749,24.118122,25.987812,27.824734,29.021057,29.277452,28.743786,27.881605,27.171373,26.861902,26.900534,27.049892,27.084738,26.935225,26.700266,26.545052,26.561991,26.683887,26.700373,26.370874,25.577562,24.437401,23.302179,22.621622,22.715584,23.567341,24.766901,25.673006,25.739162,24.830208,23.326231,21.914394,21.163382,21.140175,21.340643,21.026377,19.7854,17.944483,16.506954,16.575762,18.581856,21.828072,24.721664,25.654352,24.046696,20.900335,18.443228,18.989769,23.642475,31.60393,40.53334,47.762016,51.661469,52.368641,51.476727,50.939819,51.906685,54.197453,56.681305,58.214241,58.452766,57.992069,57.779888,58.276962,59.010162,58.878639,57.026096,53.667736,50.256088,48.797501,50.703739,55.893288,62.719608,68.787178,72.162376,72.25634,69.892799,66.60582,63.682274,61.570004,59.966965,58.418407,56.9174,56.044724,56.549019,58.687748,61.829437,64.638367,65.758537,64.567574,61.520462,57.87278,54.974186,53.582085,53.600407,54.346333,55.105545,55.581795,55.965374,56.633446,57.74345,59.026112,59.915848,59.910187,58.901642,57.265972,55.670124,54.742214,54.80455,55.789795,57.323284,58.871624,59.875851,59.86356,58.578415,56.12746,53.061188,50.263321,48.605499,48.489567,49.538071,50.674892,50.633564,48.651714,44.946182,40.650322,37.20887,35.575367,35.708302,36.692585,37.415096,37.349483,36.91272,37.121658,38.743992,41.499226,43.874908,43.75634,39.550514,31.148535,20.138426,9.1174812,0.48796329,-4.5824237,-6.4751234,-6.6036015,-6.4510007,-6.7743025,-7.420495,-7.7712483,-7.431181,-6.6552672,-6.2309279,-6.9237905,-8.8928089,-11.490736,-13.596817,-14.271941,-13.319569,-11.406657,-9.6860199,-9.16887,-10.226506,-12.486163,-15.121672,-17.308741,-18.559685,-18.786394,-18.148088,-16.869284,-15.182801,-13.403845,-12.002247,-11.524549,-12.342262,-14.371478,-16.9862,-19.256325,-20.428217,-20.374353,-19.712801,-19.477264,-20.501829,-22.888186,-25.899843,-28.376301,-29.429218,-28.988949,-27.847437,-27.157236,-27.698133,-29.382278,-31.322414,-32.422398,-32.102676,-30.677916,-29.132843,-28.44739,-28.933676,-30.045938,-30.803076,-30.533388,-29.411245,-28.382467,-28.49679,-30.097618,-32.454372,-34.146622,-33.992783,-31.910202,-29.093119,-27.328009,-27.85618,-30.537569,-33.910427,-36.158607,-36.369556,-35.225918,-34.610493,-36.321053,-40.717579,-46.227383,-50.115204,-50.103722,-45.841999,-39.266418,-33.573257,-31.400684,-33.331787,-37.640369,-41.423416,-42.397297,-40.235302,-36.640934,-34.168579,-34.585155,-37.81591,-42.095341,-45.15065,-45.606346,-43.716728,-41.02668,-39.27483,-39.308346,-40.698055,-42.219772,-42.782982,-42.135353,-40.893776,-39.9599,-39.802078,-40.137844,-40.22263,-39.494953,-38.07719,-36.751617,-36.42411,-37.4618,-39.382843,-41.126728,-41.726528,-40.927353,-39.336163,-38.010849,-37.772297,-38.696854,-40.109962,-41.059471,-40.936985,-39.839642,-38.458424,-37.597786,-37.659626,-38.421558,-39.226765,-39.43388,-38.826355,-37.732655,-36.807652,-36.632969,-37.383453,-38.741348,-40.080448,-40.794342,-40.585503,-39.577431,-38.216709,-37.032661,-36.377129,-36.26413,-36.380249,-36.261932,-35.557873,-34.245327,-32.675541,-31.400665,-30.854481,-31.061241,-31.558901,-31.618422,-30.664042,-28.656031,-26.18858,-24.20771,-23.487202,-24.16913,-25.660748,-26.97378,-27.315119,-26.567667,-25.353834,-24.63035,-25.061501,-26.567669,-28.342979,-29.342476,-28.939604,-27.343178,-25.510235,-24.604118,-25.325277,-27.512768,-30.239077,-32.319038,-32.91732,-31.908665,-29.822964,-27.465332,-25.474447,-24.074476,-23.116182,-22.312082,-21.473585,-20.601051,-19.808933,-19.184732,-18.705765,-18.26915,-17.792507,-17.291605,-16.868893,-16.623684,-16.55764,-16.551949,-16.437819,-16.113911,-15.632648,-15.200109,-15.088942,-15.510029,-16.500616,-17.867599,-19.20026,-19.953564,-19.599827,-17.831112,-14.759505,-11.022616,-7.6979489,-5.9907999,-6.7748647,-10.173411,-15.397352,-20.965513,-25.252769,-27.13607,-26.439095,-23.961569,-21.079956,-19.115925,-18.774647,-19.904402,-21.657215,-22.935444,-22.892897,-21.267717,-18.434366,-15.200438,-12.471063,-10.925882,-10.81478,-11.915269,-13.639042,-15.239874,-16.055632,-15.710293,-14.210838,-11.906141,-9.3265877,-6.9743824,-5.1564689,-3.9280739,-3.1549187,-2.6404712,-2.2388752,-1.8985269,-1.636722,-1.4918793,-1.50465,-1.7418296,-2.3287084,-3.4371727,-5.2060843,-7.6287246,-10.48412,-13.378425,-15.897651,-17.794569,-19.095621,-20.050766,-20.943636,-21.873493,-22.650852,-22.888971,-22.254635,-20.734941,-18.750681,-17.02327,-16.241703,-16.698601,-18.096992,-19.649151,-20.436007,-19.853344,-17.91754,-15.270104,-12.873507,-11.549916,-11.596576,-12.671206,-13.999768,-14.789475,-14.623748,-13.629678,-12.337902,-11.32881,-10.880455,-10.83001,-10.730073,-10.196182,-9.2144423,-8.1910572,-7.6821861,-7.9529166,-8.6486912,-8.8245707,-7.3756227,-3.6579733,2.0563762,8.5842257,14.336312,18.067217,19.45644,19.193577,18.527803,18.556955,19.677671,21.503056,23.251074,24.313313,24.619324,24.576317,24.670076,25.049002,25.413654,25.299379,24.536781,23.524792,23.071032,23.867723,25.957575,28.587261,30.59807,31.124821,30.133982,28.415775,27.01506,26.49304,26.560049,26.38018,25.364048,23.871641,23.241407,24.989862,29.624353,35.869678,40.945435,41.903049,37.322144,28.346331,18.353415,11.344984,9.9241962,14.009915,21.018223,27.377216,30.463707,29.840366,27.146776,24.839312,24.645226,26.686045,29.715044,32.168671,33.247093,33.309334,33.402958,34.356091,36.123962,37.847767,38.544064,37.891861,36.533302,35.670452,36.24971,38.313046,40.966698,42.977024,43.568951,42.877907,41.76688,41.170166,41.443821,42.173733,42.550262,42.016098,40.714306,39.423134,39.035995,39.960926,41.855511,43.864975,45.179382,45.520374,45.241989,45.014904,45.347183,46.279842,47.438618,48.354183,48.783928,48.80011,48.613541,48.312538,47.754509,46.712494,45.161533,43.460407,42.246002,42.068897,43.00349,44.510822,45.676781,45.698418,44.319962,41.948536,39.386848,37.36562,36.175518,35.615372,35.253544,34.797436,34.31358,34.163208,34.719986,36.077587,37.946125,39.796459,41.145866,41.79805,41.899719,41.80545,41.858727,42.225559,42.856522,43.558895,44.104511,44.308289,44.063286,43.358173,42.29974,41.127201,40.177536,39.776985,40.088203,40.994274,42.1035,42.899994,42.977848,42.238937,40.946758,39.606052,38.732136,38.627831,39.271774,40.355373,41.431103,42.093861,42.120949,41.530075,40.550663,39.528297,38.794979,38.547699,38.781803,39.313332,39.887676,40.322624,40.603027,40.862347,41.253613,41.791538,42.28091,42.40097,41.910183,40.840897,39.539589,38.499279,38.071808,38.242973,38.627853,38.704231,38.138077,36.983879,35.620663,34.467163,33.678917,33.05072,32.205147,30.937943,29.463739,28.360628,28.220337,29.229441,30.976313,32.639042,33.449272,33.128368,32.000717,30.708422,29.731583,29.059624,28.253395,26.853922,24.832684,22.734488,21.379456,21.318733,22.440138,24.036064,25.318659,26.022045,26.625235,27.96229,30.421083,33.271015,34.651154,32.364067,25.090425,13.31337,-0.64615554,-13.578456,-22.825159,-27.414761,-28.277712,-27.474335,-26.942867,-27.517784,-28.744932,-29.493818,-28.885941,-26.919924,-24.438278,-22.542923,-21.909826,-22.464392,-23.583353,-24.614611,-25.315273,-25.914791,-26.811249,-28.17503,-29.775316,-31.149094,-31.958456,-32.241009,-32.350365,-32.634308,-33.110729,-33.413334,-33.075733,-31.956553,-30.478806,-29.469673,-29.668167,-31.219051,-33.507458,-35.474861,-36.23531,-35.602169,-34.18565,-32.999035,-32.829464,-33.775364,-35.233208,-36.318619,-36.433105,-35.615215,-34.477997,-33.809933,-34.116249,-35.380367,-37.152649,-38.859184,-40.112885,-40.855782,-41.304012,-41.788635,-42.607475,-43.93895,-45.796322,-47.99115,-50.125366,-51.676094,-52.20628,-51.62981,-50.363506,-49.210442,-48.968971,-49.962788,-51.79134,-53.502666,-54.130672,-53.281895,-51.393234,-49.477654,-48.513153,-48.878223,-50.210339,-51.768101,-53.016029,-53.98827,-55.153545,-56.888538,-58.987816,-60.642117,-60.976246,-59.788383,-57.9161,-56.863697,-57.848732,-60.896332,-64.665443,-67.239143,-67.429169,-65.708832,-64.043457,-64.586693,-68.012131,-72.599899,-74.811241,-71.163162,-60.34304,-44.263515,-27.345739,-14.382854,-8.2077322,-8.505085,-12.395703,-16.336409,-18.117744,-17.770502,-16.960762,-17.43302,-19.614279,-22.287912,-23.4687,-21.804882,-17.530491,-12.353755,-8.4083319,-6.9958797,-7.9260764,-9.8080978,-11.011162,-10.626847,-8.8554735,-6.6859312,-5.1995378,-4.9959946,-6.0490746,-7.9442406,-10.211383,-12.493664,-14.516488,-16.020338,-16.828064,-17.038099,-17.146746,-17.890055,-19.799259,-22.729836,-25.728472,-27.426373,-26.790077,-23.775394,-19.441231,-15.408085,-12.978873,-12.474644,-13.20177,-14.044615,-14.259477,-13.922976,-13.746583,-14.423631,-16.003685,-17.75942,-18.649031,-18.043594,-16.194973,-14.102585,-12.863735,-12.957485,-13.957198,-14.864401,-14.823003,-13.715375,-12.235469,-11.404843,-11.878838,-13.517378,-15.491939,-16.823158,-16.963865,-16.046474,-14.678851,-13.491647,-12.782688,-12.482931,-12.396112,-12.457916,-12.774509,-13.412904,-14.148375,-14.436393,-13.709146,-11.825809,-9.3419666,-7.3480582,-6.9137177,-8.4648495,-11.498204,-14.836205,-17.273802,-18.210642,-17.876192,-17.032562,-16.387417,-16.127411,-15.874566,-15.058414,-13.40882,-11.208196,-9.1331577,-7.8176231,-7.4615679,-7.7599444,-8.1811771,-8.3706646,-8.377183,-8.5479383,-9.1934843,-10.29215,-11.462819,-12.220945,-12.313841,-11.874168,-11.278354,-10.832336,-10.546115,-10.188564,-9.5844126,-8.9038639,-8.6735258,-9.4386101,-11.28933,-13.614423,-15.328848,-15.50156,-14.000672,-11.707725,-10.099367,-10.406372,-12.859562,-16.507381,-19.739708,-21.201612,-20.528408,-18.451324,-16.236099,-14.848561,-14.404157,-14.245811,-13.556685,-12.051995,-10.253499,-9.1538553,-9.5117798,-11.280206,-13.578574,-15.241037,-15.569615,-14.774416,-13.794996,-13.62235,-14.587017,-16.10726,-17.080019,-16.658169,-14.887772,-12.763312,-11.642242,-12.386975,-14.789412,-17.655888,-19.507395,-19.457565,-17.722548,-15.457242,-14.039432,-14.260588,-15.918751,-18.033653,-19.505035,-19.770504,-19.050968,-18.064722,-17.444725,-17.276613,-17.074842,-16.206367,-14.461518,-12.365085,-10.984697,-11.323313,-13.663192,-17.279989,-20.729937,-22.564407,-22.061985,-19.554916,-16.174387,-13.192156,-11.373517,-10.727703,-10.767696,-11.050112,-11.583728,-12.795968,-15.068939,-18.184954,-21.12575,-22.460117,-21.153278,-17.302185,-12.280894,-8.1142302,-6.391984,-7.3705554,-9.8435297,-11.908321,-12.181714,-10.695625,-8.8633413,-8.4754419,-10.316403,-13.28255,-14.624407,-11.270344,-1.519675,13.861476,31.782782,48.145149,59.604954,64.849617,64.784691,61.687523,57.937855,55.067524,53.546986,53.202656,53.794128,55.289818,57.705429,60.745224,63.634964,65.367493,65.241112,63.321392,60.482449,57.964725,56.715691,56.924644,58.025341,59.126083,59.5583,59.191437,58.356297,57.49831,56.846676,56.33131,55.767159,55.121479,54.632248,54.677628,55.496975,56.97998,58.689575,60.111237,60.957775,61.322388,61.582863,62.13129,63.112633,64.334602,65.386482,65.872131,65.609291,64.695305,63.435658,62.204025,61.310085,60.91304,60.98098,61.290886,61.480099,61.161659,60.082321,58.253624,55.971493,53.689117,51.801556,50.471306,49.611431,49.040092,48.695503,48.744995,49.48785,51.100693,53.40202,55.821487,57.632614,58.32716,57.901833,56.871967,55.996742,55.880707,56.686008,58.10601,59.580067,60.591106,60.870968,60.43528,59.493866,58.338268,57.269272,56.54887,56.329304,56.560181,56.95504,57.116295,56.820641,56.307362,56.32032,57.743385,60.927605,65.082069,68.181335,67.620262,61.412609,49.340183,33.384758,17.106659,4.2082872,-3.0026217,-4.4550276,-2.0487323,1.511674,4.0895553,4.9404383,4.6167068,4.1560593,4.158885,4.3538513,3.8722486,1.9694157,-1.3387109,-5.1578169,-8.1774302,-9.3915215,-8.6121407,-6.479507,-4.015552,-2.0473485,-0.866781,-0.29251373,-0.016472528,0.054126307,-0.29391998,-1.3767722,-3.2872326,-5.6938057,-7.9175463,-9.2481232,-9.3066854,-8.2407684,-6.6458664,-5.2694321,-4.6663413,-4.9837894,-5.9696617,-7.1786475,-8.2580462,-9.1651611,-10.204384,-11.854251,-14.454331,-17.901388,-21.526804,-24.265673,-25.091143,-23.531427,-19.99964,-15.719488,-12.222826,-10.637663,-11.135721,-12.858221,-14.391185,-14.546623,-13.01277,-10.495049,-8.2612524,-7.3615723,-7.9959393,-9.4158487,-10.418926,-10.124623,-8.5405598,-6.5592294,-5.3841996,-5.7478986,-7.4179697,-9.3087206,-10.132771,-9.1870527,-6.7840462,-4.0635018,-2.3082681,-2.1926973,-3.4236341,-4.9783893,-5.7685781,-5.3028293,-3.9409122,-2.6052895,-2.1613722,-2.8749139,-4.2854772,-5.5537181,-6.0353789,-5.7003016,-5.1305108,-5.1121783,-6.0975032,-7.8867025,-9.7288752,-10.768024,-10.546258,-9.2533083,-7.5851474,-6.3239603,-5.9142413,-6.287621,-7.0092692,-7.6088481,-7.85882,-7.8287988,-7.7199063,-7.6379771,-7.4929581,-7.0995331,-6.3901625,-5.5583405,-4.998158,-5.0608325,-5.7967105,-6.8793325,-7.7889996,-8.1464796,-7.9668527,-7.6431289,-7.6511612,-8.1705685,-8.8954144,-9.197154,-8.5647316,-7.0403161,-5.3404441,-4.535111,-5.4418988,-8.0953856,-11.63273,-14.697199,-16.145153,-15.649651,-13.847467,-11.946959,-11.033464,-11.481283,-12.804191,-14.00496,-14.190418,-13.079893,-11.12549,-9.2114754,-8.1464434,-8.2585144,-9.3079996,-10.720932,-11.959742,-12.793568,-13.326067,-13.806665,-14.380753,-14.951118,-15.231643,-14.943004,-14.014801,-12.664007,-11.304532,-10.346729,-10.007385,-10.236882,-10.795732,-11.423875,-11.994861,-12.561514,-13.269627,-14.200865,-15.253847,-16.152199,-16.588331,-16.418707,-15.781053,-15.042377,-14.592894,-14.609972,-14.95133,-15.262967,-15.242472,-14.878001,-14.478537,-14.442903,-14.906123,-15.518944,-15.561378,-14.376857,-11.873755,-8.7459478,-6.2056503,-5.3316479,-6.4169817,-8.7495022,-11.013786,-12.101592,-11.822688,-11.033591,-11.060479,-12.765392,-15.875987,-19.065048,-20.788248,-20.36854,-18.605097,-17.447916,-18.868841,-23.600485,-30.543688,-37.257359,-41.274601,-41.462666,-38.60508,-34.863029,-32.466606,-32.451187,-34.198143,-36.00951,-36.29361,-34.583073,-31.760363,-29.406963,-28.75242,-29.919415,-31.921038,-33.353104,-33.28788,-31.791977,-29.784382,-28.397295,-28.297754,-29.395119,-31.055075,-32.596169,-33.69371,-34.437939,-35.072376,-35.665314,-35.988369,-35.697117,-34.672554,-33.259499,-32.206821,-32.314846,-33.988308,-36.954487,-40.31197,-42.894104,-43.774109,-42.679115,-40.130116,-37.242661,-35.258347,-34.987667,-36.400597,-38.572529,-40.065483,-39.621929,-36.857765,-32.577854,-28.481705,-26.341085,-27.055311,-30.117329,-33.837975,-36.250443,-36.196564,-33.95443,-31.02037,-29.171717,-29.390224,-31.318735,-33.581364,-34.735443,-34.21315,-32.630386,-31.279627,-31.183575,-32.381004,-33.940147,-34.673069,-34.024311,-32.486332,-31.239208,-31.278084,-32.669117,-34.487427,-35.49501,-35.069347,-33.696293,-32.64629,-33.050175,-35.045048,-37.632915,-39.386578,-39.507278,-38.447514,-37.591145,-38.155334,-40.071899,-41.684334,-40.574535,-35.05394,-25.355768,-13.711404,-3.2062569,3.8833086,7.2202835,8.3019342,9.2341509,11.233029,13.85733,15.456065,14.482169,10.74529,5.7381897,1.815647,0.78063577,2.8147032,6.434608,9.4612904,10.334658,8.9304762,6.4228792,4.3914571,3.8372006,4.7504649,6.4221644,8.1562471,9.80371,11.738401,14.352969,17.518944,20.465885,22.200424,22.169035,20.678118,18.756374,17.542492,17.613995,18.703867,19.969692,20.597179,20.309549,19.454065,18.656549,18.334955,18.431759,18.531902,18.235529,17.478041,16.553787,15.843186,15.472984,15.185351,14.52486,13.20653,11.387984,9.6368084,8.6043081,8.625701,9.513998,10.675115,11.453102,11.475078,10.793725,9.7831669,8.9051485,8.5127163,8.7813673,9.7345209,11.269797,13.137392,14.918914,16.103052,16.294525,15.463673,14.056874,12.835146,12.481576,13.200462,14.57887,15.835077,16.321529,15.958348,15.294637,15.132392,15.950195,17.519428,18.99552,19.451818,18.514456,16.668688,15.01143,14.5911,15.758036,17.951643,20.066141,21.153837,21.000921,20.198603,19.672779,19.999784,20.977947,21.75036,21.4016,19.630312,17.044844,14.873585,14.262493,15.597663,18.27212,21.031672,22.674753,22.675709,21.37171,19.640366,18.307274,17.664516,17.379627,16.811298,15.499804,13.515228,11.460791,10.15128,10.173047,11.577209,13.854998,16.175045,17.73313,18.039589,17.038616,15.056204,12.644171,10.399599,8.8091049,8.1342049,8.3444481,9.1154766,9.9155884,10.183943,9.5571308,8.0551252,6.1277361,4.5085196,3.9115076,4.6951299,6.6565042,9.0767927,11.024553,11.789657,11.236216,9.882514,8.6428499,8.3439302,9.2630329,10.944167,12.412886,12.693187,11.351493,8.7612791,5.9291201,3.9713328,3.5365925,4.5045276,6.1259441,7.5019517,8.0943012,7.94981,7.5170155,7.2078447,7.0280795,6.549933,5.2567663,3.0178049,0.33975744,-1.8211266,-2.6022658,-1.787442,0.011874008,1.6974186,2.3485913,1.7796794,0.61268628,-0.19487557,-0.054804128,0.79949099,1.4423735,0.904158,-1.0903215,-3.807487,-5.8638997,-6.0595055,-4.1553006,-1.0820577,1.5725515,2.4812751,1.3190008,-1.1306292,-3.5400553,-4.873796,-4.9395347,-4.3242173,-3.8252873,-3.8301933,-4.1015453,-4.0974727,-3.540482,-2.7551291,-2.4712231,-3.2108603,-4.7289057,-5.9840074,-5.7510304,-3.4981823,0.096787766,3.4187992,4.8670106,3.8700731,1.248168,-1.3813211,-2.7851779,-3.0483141,-3.5232122,-5.7017484,-9.6996231,-13.426223,-13.185992,-5.5766306,10.340685,31.930721,53.742718,69.875412,76.713669,74.537392,67.129005,59.647163,56.002472,57.186096,61.362274,65.463264,67.189407,66.205124,63.945572,62.362411,62.549232,64.142517,65.784485,66.205864,65.123688,63.356312,62.145866,62.222557,63.28178,64.214958,63.895317,61.953815,59.023071,56.320843,54.895596,55.054535,56.323597,57.896255,59.201572,60.182808,61.130009,62.252537,63.35886,63.90926,63.410572,61.854065,59.853565,58.348328,58.043049,58.94672,60.314392,61.035202,60.227829,57.686958,53.937553,49.907562,46.450665,44.003593,42.536274,41.752911,41.364635,41.254864,41.467228,42.071869,43.024052,44.102882,44.950333,45.179722,44.511169,42.899895,40.621151,38.260632,36.563408,36.150177,37.205433,39.31282,41.582985,43.070133,43.279636,42.463596,41.484241,41.277031,42.218246,43.805946,44.900768,44.421585,42.072739,38.618496,35.484303,33.902176,34.141968,35.349827,36.135925,35.549568,33.785892,32.101685,31.917519,33.639462,35.976852,36.282238,31.82902,21.345825,5.9232507,-11.262385,-26.294163,-36.210678,-40.157146,-39.438469,-36.558758,-33.872185,-32.602425,-32.672878,-33.261368,-33.593437,-33.444431,-33.110352,-33.000851,-33.234291,-33.54686,-33.549084,-33.092323,-32.437752,-32.085426,-32.387505,-33.237812,-34.081425,-34.260242,-33.470139,-32.019321,-30.705383,-30.378469,-31.460552,-33.713242,-36.381725,-38.606827,-39.845001,-40.058754,-39.605961,-38.947414,-38.381821,-37.962391,-37.602695,-37.251446,-36.989956,-36.98682,-37.361641,-38.075413,-38.935989,-39.714039,-40.280804,-40.667892,-41.013622,-41.448509,-42.013954,-42.673855,-43.396412,-44.221191,-45.235573,-46.462208,-47.745155,-48.745766,-49.09185,-48.606823,-47.464874,-46.142811,-45.165779,-44.793301,-44.855927,-44.873451,-44.401928,-43.387779,-42.275394,-41.758987,-42.309559,-43.785496,-45.419983,-46.256733,-45.806168,-44.510765,-43.677483,-44.837528,-48.854568,-55.295029,-62.46175,-68.125961,-70.58387,-69.463249,-65.839172,-61.6115,-58.513546,-57.312347,-57.617306,-58.335007,-58.432671,-57.528851,-55.988995,-54.544518,-53.748878,-53.648865,-53.861683,-53.9524,-53.807236,-53.724983,-54.168243,-55.367008,-57.072247,-58.648361,-59.451767,-59.240063,-58.331936,-57.406307,-57.071415,-57.48539,-58.270176,-58.763477,-58.435635,-57.203712,-55.458794,-53.816273,-52.769512,-52.464264,-52.7066,-53.154537,-53.538841,-53.772713,-53.915123,-54.059895,-54.2547,-54.499928,-54.793926,-55.152977,-55.570595,-55.954975,-56.123512,-55.896824,-55.244217,-54.365177,-53.613094,-53.277637,-53.364151,-53.542133,-53.337208,-52.467003,-51.094322,-49.795975,-49.224834,-49.663757,-50.773922,-51.739269,-51.751743,-50.539265,-48.581413,-46.843719,-46.177505,-46.768887,-48.007984,-48.883728,-48.658951,-47.382191,-45.885891,-45.253586,-46.091953,-48.08144,-50.105427,-50.886303,-49.732178,-46.933369,-43.579647,-40.937214,-39.783913,-40.091354,-41.189262,-42.237251,-42.670914,-42.369713,-41.527111,-40.405174,-39.185711,-37.991379,-36.975452,-36.320942,-36.093307,-36.063129,-35.696198,-34.410885,-31.984589,-28.82617,-25.869488,-24.088099,-23.918074,-24.985462,-26.359627,-27.193584,-27.318176,-27.355501,-28.234852,-30.424942,-33.430103,-35.949329,-36.645432,-35.0256,-31.819006,-28.557261,-26.614723,-26.363125,-27.041195,-27.447521,-26.963049,-26.129002,-26.272875,-28.339422,-31.700474,-33.844193,-31.349718,-21.726694,-5.0728173,15.493132,34.99905,48.829067,54.791168,53.930729,49.700802,46.026657,45.375854,47.847649,51.63097,54.385777,54.653965,52.52536,49.3283,46.704288,45.706703,46.420433,48.193008,50.193462,51.893105,53.214607,54.365471,55.56126,56.850597,58.12014,59.210636,60.020168,60.522842,60.722523,60.611313,60.181118,59.477325,58.644138,57.920708,57.587765,57.89513,58.997871,60.906925,63.451324,66.267036,68.8507,70.705498,71.548615,71.478966,70.98452,70.738365,71.264381,72.65834,74.543076,76.301903,77.453178,77.926788,78.061607,78.330528,78.989113,79.897942,80.643272,80.861832,80.524086,79.959587,79.601509,79.643333,79.874619,79.834396,79.179367,77.991211,76.778328,76.147964,76.376213,77.194664,77.967232,78.14653,77.684456,77.089828,77.073685,78.02314,79.678009,81.246887,81.887756,81.219688,79.51783,77.483772,75.795799,74.789444,74.484436,74.863754,76.074608,78.264374,81.080162,83.217857,82.508171,76.741356,64.910194,48.149925,29.69186,13.666002,3.2931705,-0.55669892,0.39100769,2.9249716,4.1689906,3.052191,0.59654266,-1.0710297,-0.29539934,2.9554009,7.0606713,9.794775,9.730999,7.094944,3.5610635,1.1831181,1.1806594,3.3385322,6.327774,8.647934,9.5290928,9.229517,8.619956,8.4261818,8.6892376,8.7979412,8.022727,6.1379166,3.6845427,1.6969154,1.0869094,2.0956719,4.1541228,6.2116237,7.3013477,6.997592,5.5340075,3.5855274,1.9038205,1.0261916,1.1670541,2.2562754,4.020658,6.0419259,7.8091655,8.8245592,8.7784939,7.7201738,6.0993333,4.6011739,3.8230824,3.9608464,4.6924834,5.3434153,5.2485628,4.1054263,2.1176407,-0.14106408,-2.0431502,-3.2047942,-3.5955637,-3.4242852,-2.9095848,-2.1069438,-0.91104621,0.77438575,2.8220832,4.7760482,5.9435,5.6538591,3.5583379,-0.17908469,-4.8914757,-9.6137209,-13.390415,-15.560522,-15.916689,-14.699887,-12.458383,-9.8452339,-7.4365125,-5.6255531,-4.6036539,-4.3973007,-4.9161682,-5.9805565,-7.3305287,-8.6461868,-9.6078815,-9.992733,-9.7620525,-9.0767069,-8.2069607,-7.3691425,-6.5822444,-5.6452532,-4.2733788,-2.3285379,-0.0028730538,2.1785069,3.570116,3.7327046,2.6878178,0.94144881,-0.75069976,-1.7485774,-1.8157892,-1.1717036,-0.29684648,0.36941358,0.64640123,0.62648082,0.51469958,0.43613026,0.35811099,0.17065312,-0.16021968,-0.50854671,-0.65636146,-0.46813267,-0.029728943,0.37412956,0.44848523,0.1099513,-0.43394893,-0.8289209,-0.85166943,-0.61289483,-0.50991005,-0.92961788,-1.9010828,-2.966434,-3.410285,-2.7345638,-1.0644743,0.82281983,1.9212406,1.6306794,0.18626156,-1.4338242,-2.1057234,-1.2971871,0.54211372,2.2183824,2.529269,1.023399,-1.7241312,-4.5147734,-6.3421121,-7.0609503,-7.4351611,-8.5106888,-10.738082,-13.472736,-15.252411,-14.725984,-11.633428,-7.1457691,-3.2545238,-1.5225458,-1.9692289,-2.843322,-1.5213629,3.9320405,13.453816,24.73122,34.216381,38.867008,37.6423,31.924509,24.664164,18.776421,15.71512,14.996011,14.848441,13.516208,10.393391,6.3451848,3.0953052,2.1209598,3.7514572,6.9905019,10.113828,11.633717,11.0429,8.9336672,6.4949536,4.7563429,4.0584579,4.0373883,4.0606604,3.7717934,3.3612239,3.3923876,4.3251052,6.0857553,8.0019522,9.1716175,9.0369053,7.7798095,6.2547832,5.4665613,5.9031925,7.1477909,8.0362177,7.2932267,4.2749729,-0.63142049,-6.1966105,-11.010505,-14.211936,-15.849619,-16.681976,-17.585049,-18.978659,-20.645441,-22.032001,-22.783543,-23.103472,-23.659227,-25.085569,-27.437809,-30.005766,-31.665676,-31.575008,-29.759949,-27.188679,-25.248423,-24.937632,-26.283154,-28.356558,-29.880232,-30.033484,-28.944607,-27.565918,-27.033279,-27.938744,-29.983223,-32.208782,-33.626705,-33.81469,-33.108856,-32.309807,-32.146095,-32.871288,-34.237038,-35.796867,-37.268089,-38.670677,-40.16399,-41.752876,-43.140343,-43.885075,-43.769188,-43.089241,-42.604816,-43.112255,-44.893658,-47.418148,-49.539429,-50.119278,-48.718193,-45.928654,-43.132984,-41.814369,-42.813389,-45.939968,-50.122601,-53.961613,-56.350521,-56.849953,-55.69516,-53.540325,-51.14484,-49.153267,-47.989567,-47.800442,-48.402912,-49.276939,-49.692162,-48.998478,-46.972767,-44.011517,-40.999676,-38.874466,-38.122646,-38.534607,-39.400928,-40.044651,-40.329838,-40.763786,-42.061958,-44.422176,-47.004078,-48.039928,-45.629623,-38.820187,-28.335405,-16.475698,-6.1754899,0.29675022,2.2942605,0.90294433,-1.8000983,-3.8716822,-4.3700747,-3.5415113,-2.3464489,-1.7234384,-2.0712309,-3.2014298,-4.6622605,-6.1094136,-7.4390306,-8.6397438,-9.5632668,-9.8708038,-9.2491102,-7.7421045,-5.9114637,-4.6358562,-4.6208253,-5.9276109,-7.8570328,-9.3080187,-9.4113016,-8.0395842,-5.8617868,-3.9032929,-2.900126,-2.8702004,-3.1768034,-3.0278263,-2.0649323,-0.64306617,0.38458276,0.22772111,-1.3086665,-3.6677897,-5.8523445,-6.9917331,-6.8020859,-5.6682844,-4.3362842,-3.4478474,-3.2206771,-3.4437969,-3.7310889,-3.817152,-3.6896665,-3.504277,-3.3964517,-3.3656385,-3.3234518,-3.2463892,-3.2774093,-3.6576233,-4.5115128,-5.6455002,-6.540566,-6.5970602,-5.5063467,-3.5095558,-1.3499501,0.089670144,0.26593405,-0.71650308,-2.1602454,-3.1673374,-3.1348431,-2.0592942,-0.47821525,0.89669269,1.6150523,1.722818,1.6669145,1.9523813,2.7852032,3.9300539,4.8651776,5.1256194,4.6134586,3.6842525,2.9651017,3.0226052,4.0787411,5.9268398,8.0702238,9.9789028,11.312943,12.009211,12.227361,12.228067,12.267895,12.547241,13.190544,14.219326,15.509943,16.77553,17.625689,17.715536,16.921995,15.438868,13.709061,12.20821,11.198481,10.60787,10.121831,9.4361477,8.5033741,7.5962758,7.1274042,7.3348503,8.0524549,8.7460051,8.82617,8.0532446,6.762846,5.7363815,5.7645035,7.1622734,9.5463686,12.03243,13.745244,14.328499,14.133809,13.971326,14.586549,16.203138,18.421911,20.524261,21.957443,22.663406,23.031214,23.523304,24.259947,24.87888,24.791939,23.670452,21.809261,20.078726,19.444252,20.335791,22.27861,24.056139,24.348265,22.483475,18.85734,14.761539,11.716106,10.687092,11.626243,13.567101,15.186461,15.492949,14.27051,12.081553,9.8931217,8.5730629,8.5215998,9.5805054,11.197027,12.711867,13.628628,13.775425,13.331703,12.730689,12.467692,12.87007,13.918476,15.221026,16.193687,16.391169,15.818965,15.024289,14.861696,16.021427,18.580561,21.863575,24.738411,26.20838,25.957201,24.507671,22.880844,21.958879,21.954733,22.334707,22.249157,21.186779,19.406443,17.834686,17.470299,18.679058,20.859987,22.739994,23.143484,21.754242,19.363928,17.413771,17.092512,18.557638,20.79423,22.235167,21.78001,19.576706,17.052843,16.134794,18.097912,22.734669,28.354635,32.641178,33.880798,31.859484,27.918581,24.157524,22.263626,22.648478,24.365797,25.810823,25.745239,24.023357,21.603418,19.87532,19.747313,21.065533,22.720339,23.364433,22.290552,19.918787,17.579777,16.707785,17.918716,20.528782,22.819317,22.92053,19.824484,13.958852,7.0016637,1.0481935,-2.3995996,-3.0681803,-1.8568435,-0.18369335,0.84022421,0.91807288,0.49617609,0.23032275,0.38569599,0.5840745,0.063101858,-1.7346725,-4.6471367,-7.7114668,-9.5978956,-9.3099804,-6.7331281,-2.7075374,1.4055705,4.3950701,5.7185354,5.602634,4.733767,3.7871923,3.0994654,2.6454084,2.2533357,1.843794,1.5012628,1.3498064,1.3705721,1.3434141,0.98692471,0.19787587,-0.80880016,-1.6016002,-1.8383652,-1.5693183,-1.3005898,-1.7285917,-3.2847674,-5.7826281,-8.4200449,-10.174012,-10.370065,-9.083765,-7.1237655,-5.5988984,-5.3236237,-6.4085698,-8.2607117,-9.9666767,-10.812341,-10.635777,-9.8367643,-9.0819473,-8.9103909,-9.4696503,-10.503464,-11.554819,-12.240777,-12.446461,-12.355981,-12.329572,-12.700359,-13.584385,-14.786326,-15.851665,-16.266535,-15.737407,-14.418246,-12.936342,-12.141531,-12.655998,-14.455995,-16.761406,-18.376839,-18.363148,-16.671579,-14.320623,-12.913462,-13.686842,-16.616457,-20.150391,-21.829212,-19.536507,-12.713354,-2.8318346,7.1903892,14.353851,16.984034,15.416497,11.614953,7.992672,6.1470785,6.2204571,7.1810026,7.7502661,7.3404646,6.4172926,6.1125002,7.397028,10.380882,14.185825,17.443758,19.075016,18.848804,17.400017,15.739717,14.607045,14.078423,13.652707,12.714932,11.051912,9.0849905,7.6820679,7.6750054,9.3745441,12.356357,15.620123,18.015274,18.703278,17.440811,14.590271,10.908214,7.2492723,4.3204336,2.5529945,2.0809288,2.7723818,4.2701697,6.0371156,7.4354105,7.8666258,6.9581666,4.728951,1.6417866,-1.5201936,-3.935241,-5.073669,-4.9222679,-3.9827142,-3.0333204,-2.7683809,-3.4973893,-5.0519915,-6.9289885,-8.5655336,-9.5802708,-9.8600616,-9.4894123,-8.6244087,-7.4283714,-6.1057153,-4.9598775,-4.3563499,-4.5396614,-5.3917332,-6.3186374,-6.4184361,-4.9114447,-1.6134815,2.8488076,7.2600164,10.387928,11.577134,10.997659,9.3928108,7.5042434,5.5799828,3.3210809,0.30951005,-3.4079318,-7.0580554,-9.4839039,-9.9329777,-8.7492228,-7.3921947,-7.5973873,-10.085809,-13.636152,-15.240323,-11.469393,-0.41664869,16.86562,36.340637,52.532196,60.907787,59.863258,51.26915,39.331223,28.440569,21.202576,17.652473,15.925318,13.811357,10.190846,5.5320606,1.289978,-1.2709724,-2.006079,-1.9833061,-2.733927,-5.1951194,-9.0453005,-12.850159,-14.911473,-14.282315,-11.335577,-7.5688081,-4.7925344,-4.1930275,-5.7941861,-8.5744772,-11.108963,-12.333693,-12.012107,-10.698818,-9.2966261,-8.50949,-8.5060501,-8.9452677,-9.2923861,-9.2011576,-8.7318621,-8.2980957,-8.4034348,-9.342186,-11.039689,-13.108439,-15.063717,-16.556282,-17.48633,-17.95126,-18.089493,-17.944817,-17.451162,-16.546595,-15.327085,-14.114913,-13.367604,-13.46233,-14.483258,-16.152065,-17.959023,-19.424957,-20.336025,-20.805668,-21.128613,-21.52973,-21.98391,-22.238188,-22.029375,-21.348778,-20.55814,-20.246101,-20.883852,-22.483341,-24.48362,-25.967583,-26.113979,-24.639111,-21.975676,-19.079906,-16.968451,-16.237066,-16.817158,-18.084715,-19.238178,-19.723078,-19.476873,-18.887487,-18.523787,-18.808563,-19.810114,-21.239389,-22.621136,-23.526825,-23.749865,-23.355074,-22.605295,-21.819138,-21.230448,-20.907757,-20.764112,-20.652262,-20.502661,-20.431749,-20.745268,-21.801851,-23.781282,-26.480131,-29.279945,-31.363029,-32.108036,-31.460615,-30.040384,-28.86338,-28.783157,-29.954426,-31.661449,-32.674351,-31.98258,-29.4914,-26.23395,-23.90111,-23.898149,-26.458279,-30.364422,-33.508621,-34.024693,-31.359293,-26.638931,-22.074492,-19.706697,-20.201632,-22.402004,-23.916519,-22.430204,-16.99881,-8.5992088,0.36091745,7.2771373,10.622894,10.574308,8.6997252,6.9703374,6.7033448,8.0252066,10.083252,11.77855,12.517203,12.526637,12.596466,13.467822,15.288235,17.473255,19.04204,19.2038,17.835999,15.578542,13.500977,12.539044,13.010592,14.462138,15.913723,16.365988,15.310783,12.995414,10.317248,8.404665,8.0891752,9.5242367,12.134264,14.914165,16.922846,17.714582,17.487307,16.883675,16.575569,16.881592,17.636728,18.368683,18.6399,18.315617,17.584103,16.741737,15.93126,15.056266,13.955214,12.699626,11.749688,11.771917,13.171604,15.648373,18.147083,19.36167,18.567678,16.262356,14.112514,14.089596,17.202904,22.583822,27.568624,28.886871,24.387354,14.343573,1.5465131,-9.9476147,-16.771629,-17.837738,-14.695642,-10.498071,-8.2085171,-9.0908346,-12.299831,-15.700438,-17.31575,-16.486511,-14.083418,-11.755258,-10.792265,-11.366977,-12.5966,-13.295733,-12.845666,-11.578506,-10.449735,-10.275994,-11.099918,-12.129952,-12.287967,-10.97569,-8.5298719,-6.0591812,-4.7780128,-5.2815661,-7.2261133,-9.5910854,-11.312807,-11.858206,-11.386824,-10.457626,-9.5467625,-8.7426863,-7.8192034,-6.5901704,-5.2389278,-4.3405871,-4.5295696,-6.0352588,-8.4193239,-10.720452,-11.93789,-11.555797,-9.7847099,-7.3861246,-5.2170043,-3.7967994,-3.155205,-3.0086155,-3.0914209,-3.3880351,-4.1153598,-5.503562,-7.5653071,-10.030803,-12.48193,-14.562019,-16.092489,-17.022472,-17.290686,-16.759731,-15.319963,-13.099058,-10.586274,-8.5043707,-7.4400139,-7.4525352,-7.9544563,-8.0140162,-6.945097,-4.8179431,-2.5243495,-1.2933846,-1.921265,-4.2026396,-6.9602613,-8.700736,-8.5078335,-6.6027374,-4.1909003,-2.6711285,-2.7095962,-3.7916405,-4.5679049,-3.7903008,-1.2252487,2.0859559,4.448524,4.6721363,3.0400152,1.4317579,2.4308217,7.8660135,17.605007,29.311899,39.355896,44.424435,43.013428,36.047791,26.361391,17.357191,11.550651,9.6897573,10.787784,12.92312,14.313532,14.115567,12.618143,10.843607,9.8520708,10.141008,11.425508,12.85846,13.526757,12.943233,11.284455,9.2726183,7.7845802,7.4023414,8.1356764,9.4473057,10.548946,10.800282,10.002181,8.4480858,6.735662,5.4643221,4.9852676,5.3157816,6.2232852,7.3956585,8.5920763,9.7097845,10.767236,11.843895,13.015945,14.303348,15.630226,16.810541,17.586073,17.733068,17.207232,16.243174,15.315985,14.938125,15.378457,16.474169,17.6859,18.409735,18.381733,17.914494,17.774487,18.723698,20.980165,23.94301,26.398525,27.13797,25.64975,22.474554,18.992512,16.742645,16.653854,18.617821,21.627853,24.374123,25.933483,26.168882,25.657297,25.253569,25.58806,26.785845,28.517426,30.279484,31.693369,32.648445,33.251614,33.668896,33.983521,34.147503,34.026001,33.48819,32.499138,31.188686,29.878746,29.038586,29.139391,30.425581,32.698544,35.258564,37.109367,37.389751,35.833382,32.987438,30.018137,28.161699,28.10552,29.652399,31.868406,33.627598,34.225964,33.703621,32.711014,32.049488,32.208385,33.183662,34.633274,36.175766,37.554775,38.533092,38.633904,37.013397,32.687393,25.073622,14.536553,2.5433486,-8.761363,-17.394871,-22.342947,-23.882595,-23.255629,-21.917881,-20.827711,-20.171867,-19.612595,-18.798155,-17.740412,-16.807602,-16.387671,-16.519737,-16.798994,-16.63991,-15.705787,-14.184884,-12.704527,-11.937413,-12.173254,-13.147118,-14.227054,-14.812677,-14.665594,-13.968175,-13.119076,-12.456431,-12.118945,-12.111327,-12.459116,-13.270195,-14.618688,-16.347826,-17.993837,-18.964424,-18.902103,-17.98403,-16.907183,-16.508871,-17.240461,-18.848871,-20.506063,-21.327,-20.937828,-19.70573,-18.467865,-17.947813,-18.272406,-18.933004,-19.213848,-18.766769,-17.898136,-17.342741,-17.683903,-18.85804,-20.139729,-20.656092,-20.07276,-18.931133,-18.336885,-19.164709,-21.32485,-23.646004,-24.531687,-23.003641,-19.43725,-15.456193,-13.000218,-13.147091,-15.462788,-18.321957,-19.994553,-19.771196,-18.364311,-17.313049,-17.809038,-19.774799,-21.868927,-22.454979,-20.881199,-18.153849,-16.450109,-17.685585,-22.02334,-27.32765,-30.026947,-26.981195,-17.300068,-3.0421269,11.639493,22.445251,26.900633,25.309029,20.265633,15.126487,12.34776,12.563909,14.748963,17.163694,18.420242,18.069107,16.513954,14.491532,12.550513,10.850717,9.3150415,7.9219856,6.8769908,6.5404358,7.1881332,8.7914734,10.969512,13.135801,14.742748,15.491219,15.420574,14.869355,14.342068,14.32397,15.081956,16.505686,18.068136,18.975893,18.503586,16.386387,13.059042,9.5620766,7.1020193,6.4672699,7.6253467,9.7562056,11.729533,12.753661,12.796764,12.505874,12.664804,13.540304,14.560429,14.57284,12.557077,8.3532572,2.9290426,-2.022691,-4.9462972,-5.238821,-3.5279527,-1.248576,0.21482131,0.29039448,-0.57035369,-1.3312507,-1.1462693,0.043668222,1.4721131,2.0729332,1.2089413,-0.88183874,-3.2128675,-4.660553,-4.6589112,-3.5302291,-2.2491777,-1.8075777,-2.5987298,-4.2141299,-5.7658615,-6.503037,-6.30655,-5.7384515,-5.6243076,-6.456584,-8.0224953,-9.508523,-10.019103,-9.1754122,-7.4068117,-5.7439475,-5.2379127,-6.3624549,-8.7589521,-11.464228,-13.462453,-14.217207,-13.875673,-13.060987,-12.426188,-12.270535,-12.444731,-12.560436,-12.320448,-11.728799,-11.051533,-10.58801,-10.442951,-10.472206,-10.433,-10.210649,-9.9376307,-9.9056444,-10.333247,-11.167325,-12.079128,-12.673933,-12.771282,-12.550505,-12.444324,-12.842588,-13.809764,-15.019479,-15.961195,-16.281712,-16.023895,-15.592182,-15.464475,-15.849888,-16.533428,-17.019949,-16.881168,-16.067093,-14.968395,-14.189301,-14.1889,-15.031732,-16.40167,-17.843462,-19.04339,-19.952375,-20.689783,-21.337294,-21.80794,-21.901377,-21.494486,-20.697233,-19.824825,-19.185858,-18.846354,-18.569407,-18.007494,-17.024302,-15.898946,-15.224583,-15.527756,-16.855032,-18.631472,-19.933474,-20.036434,-18.892342,-17.214706,-16.095152,-16.382574,-18.212563,-20.97171,-23.691542,-25.591637,-26.419863,-26.409946,-25.958618,-25.308611,-24.480505,-23.470171,-22.500076,-22.062243,-22.65934,-24.408962,-26.820202,-28.959166,-29.946682,-29.476217,-27.997608,-26.426405,-25.563932,-25.616055,-26.129812,-26.371786,-25.862816,-24.683722,-23.347317,-22.358202,-21.81101,-21.340086,-20.458359,-19.019142,-17.432981,-16.452953,-16.671377,-18.098532,-20.142225,-22.008438,-23.221794,-23.867994,-24.372557,-24.997211,-25.476473,-25.132843,-23.443514,-20.649786,-17.901604,-16.719694,-18.053328,-21.558376,-25.642513,-28.339609,-28.497454,-26.49999,-24.005972,-22.824087,-23.638031,-25.432892,-26.04134,-23.496452,-17.332447,-8.9850025,-1.0133777,4.3760948,6.5774341,6.8313818,7.3472619,9.8897429,14.731497,20.59808,25.56986,28.304407,28.784704,28.160685,27.86495,28.634893,30.081825,31.041998,30.420961,27.950298,24.382999,21.052547,19.125832,19.029701,20.361498,22.253763,23.895672,24.878298,25.212923,25.113205,24.760578,24.222118,23.53005,22.799889,22.253738,22.11722,22.477076,23.22489,24.144022,25.081907,26.080141,27.362808,29.1849,31.63953,34.546772,37.486488,39.944344,41.480721,41.842457,40.994793,39.104298,36.51125,33.696518,31.212732,29.552828,28.976809,29.373751,30.252981,30.910284,30.723759,29.452267,27.388775,25.277569,24.011105,24.226923,25.97826,28.630953,31.052446,32.039616,30.8241,27.441948,22.787542,18.292902,15.341814,14.671167,16.048267,18.403896,20.380503,21.030951,20.301651,19.028065,18.424507,19.331507,21.631214,24.163591,25.20998,23.303236,17.949507,9.8990278,0.84747589,-7.2598739,-12.969456,-15.772411,-16.115705,-15.044994,-13.701948,-12.911957,-12.999489,-13.83591,-15.030421,-16.149164,-16.876314,-17.079805,-16.788345,-16.115932,-15.184216,-14.087661,-12.917904,-11.819473,-11.015182,-10.745806,-11.125722,-11.992887,-12.872179,-13.129182,-12.276299,-10.272315,-7.6205621,-5.1650386,-3.6651399,-3.385766,-3.9562306,-4.6014452,-4.6151991,-3.7823162,-2.4786303,-1.3837861,-0.99933147,-1.3009531,-1.7680368,-1.7774229,-1.0912623,-0.090794876,0.43026561,-0.2002174,-2.0200968,-4.2970362,-5.8907208,-5.9085994,-4.250083,-1.6933852,0.53680032,1.4578276,0.85557157,-0.65967888,-2.0765612,-2.6019833,-2.0909233,-1.0440273,-0.21254466,-0.086717248,-0.59064132,-1.1509206,-1.0640296,0.084634379,2.2001235,4.7595439,7.1109128,8.7936611,9.7050858,10.054369,10.172625,10.309528,10.522789,10.692296,10.620483,10.151016,9.2491455,8.0178528,6.6518779,5.3516078,4.2324791,3.2736175,2.3417006,1.2947183,0.12205707,-0.96059823,-1.538715,-1.1683127,0.37872034,2.9213829,5.8497338,8.3183002,9.5784283,9.2944078,7.6901937,5.45681,3.4682326,2.4392905,2.6731937,3.9904077,5.845047,7.5632944,8.6060066,8.7627687,8.2135592,7.4362478,6.9893761,7.2530985,8.2450066,9.6134491,10.835191,11.531817,11.732159,11.91023,12.740447,14.68128,17.624096,20.834291,23.255615,24.030041,22.941412,20.521175,17.750736,15.539702,14.294774,13.830953,13.65185,13.387749,13.084721,13.151044,14.009367,15.710936,17.797409,19.527067,20.32905,20.186445,19.68742,19.698721,20.861656,23.22316,26.221064,29.01145,30.914785,31.704208,31.589233,30.960514,30.106695,29.098555,27.884762,26.47731,25.047356,23.840153,22.977364,22.319004,21.522511,20.285772,18.608547,16.871077,15.645711,15.348007,15.960246,17.025778,17.932318,18.300541,18.213093,18.123096,18.50168,19.469999,20.678598,21.529654,21.596699,20.950645,20.154791,19.914957,20.612043,22.036268,23.515533,24.365171,24.36092,23.907442,23.76885,24.521181,26.085238,27.664909,28.165091,26.853182,23.858877,20.191492,17.242426,16.053783,16.77684,18.629761,20.365864,20.967428,20.163153,18.491625,16.912027,16.221342,16.625011,17.687025,18.647091,18.885998,18.263256,17.155678,16.211735,15.984932,16.645945,17.899321,19.112886,19.578703,18.798264,16.704042,13.757304,10.877612,9.178381,9.5348701,12.102772,15.993895,19.328058,19.764122,15.3898,5.6234341,-8.3096809,-23.630953,-36.971943,-45.663754,-48.765846,-47.33733,-43.812847,-40.794727,-39.870724,-41.043427,-43.020012,-44.143726,-43.413666,-41.023041,-38.152004,-36.194679,-35.918854,-37.066914,-38.611538,-39.467686,-39.188663,-38.204441,-37.468086,-37.761665,-39.129528,-40.818001,-41.766037,-41.328266,-39.755093,-38.105812,-37.6325,-39.01244,-41.906944,-45.121632,-47.270035,-47.536545,-46.087543,-43.911095,-42.219051,-41.793369,-42.652794,-44.181488,-45.566269,-46.229137,-46.00407,-45.022472,-43.474686,-41.46381,-39.048294,-36.389645,-33.829906,-31.78854,-30.533546,-30.007841,-29.870348,-29.750319,-29.536173,-29.471058,-29.958189,-31.201443,-32.952789,-34.585495,-35.483044,-35.489006,-35.087681,-35.151505,-36.392788,-38.881618,-41.966877,-44.668377,-46.27758,-46.751976,-46.632061,-46.555801,-46.744026,-46.857777,-46.351387,-45.057854,-43.534374,-42.838955,-43.822952,-46.418537,-49.474281,-51.357033,-51.000168,-48.708324,-46.112091,-45.186321,-46.880562,-50.231743,-52.596127,-50.968678,-43.668728,-31.406401,-17.085306,-4.4374695,3.7337277,6.7276182,5.9482732,3.8561208,2.5719202,2.9469631,4.5279703,6.2537351,7.3128867,7.601387,7.5822406,7.7817163,8.359972,9.0615578,9.5211468,9.6307802,9.6570921,10.018909,10.912715,12.092368,12.987951,13.087128,12.301139,11.045415,9.9721823,9.5435448,9.7458458,10.141498,10.213369,9.7529364,9.0190859,8.5605898,8.8292627,9.8501797,11.16928,12.108846,12.161084,11.271918,9.8508968,8.5215349,7.7778516,7.7484336,8.1832237,8.6406012,8.7499256,8.4075975,7.820334,7.3927383,7.5198607,8.374815,9.7784977,11.214506,12.006001,11.606344,9.8886461,7.2895517,4.7038364,3.138974,3.2716002,5.1226091,8.0262938,10.922415,12.826246,13.236017,12.278851,10.55075,8.7757854,7.4901619,6.9061122,6.9734769,7.5336323,8.4307613,9.517787,10.600942,11.421515,11.734667,11.448688,10.715796,9.8814716,9.2975416,9.1127901,9.1867657,9.1972075,8.8764935,8.2161169,7.4926267,7.0895801,7.2334843,7.8257022,8.4887152,8.7978582,8.5418453,7.8382077,7.0334163,6.4685292,6.2801347,6.3725801,6.5661912,6.7964826,7.2040491,8.0406647,9.4582176,11.340293,13.310052,14.921703,15.907247,16.306328,16.38855,16.427464,16.494761,16.430002,16.011686,15.200973,14.26379,13.653449,13.707451,14.359502,15.0827,15.140989,14.020141,11.774029,9.0551596,6.7872086,5.6649523,5.7839727,6.6290774,7.427494,7.6429038,7.2964253,6.9126148,7.1303554,8.2364044,9.9298162,11.476162,12.155831,11.717374,10.540379,9.3999777,8.9838762,9.4752598,10.471933,11.291677,11.457771,11.037041,10.597019,10.800569,11.90169,13.482517,14.625689,14.437819,12.609529,9.6631708,6.7267756,4.9613047,4.9759355,6.5629506,8.8783722,10.924256,12.026534,12.044171,11.248028,10.025618,8.6528454,7.279664,6.0833325,5.4005141,5.6644158,7.1366677,9.6115551,12.337878,14.286357,14.658857,13.347506,11.046681,8.9170113,7.9785013,8.5870199,10.303918,12.224865,13.548356,14.021909,13.997687,14.093246,14.71074,15.747974,16.688673,16.991102,16.489767,15.522629,14.694541,14.44586,14.733349,15.052475,14.790847,13.669514,11.964553,10.352125,9.4808893,9.5656672,10.28161,11.028623,11.376684,11.375157,11.504081,12.297532,13.903859,15.898068,17.491253,18.005367,17.293329,15.816422,14.325929,13.370458,12.972537,12.698171,12.061543,10.96105,9.8092813,9.2317562,9.5247889,10.262055,10.371862,8.7042246,4.764462,-0.8578319,-6.6759768,-11.044695,-13.029951,-12.890667,-11.879543,-11.484995,-12.57566,-14.959234,-17.598793,-19.318102,-19.534889,-18.568619,-17.360134,-16.819515,-17.241003,-18.156986,-18.7033,-18.238771,-16.812502,-15.186883,-14.414103,-15.235931,-17.664948,-20.971489,-24.049442,-25.928473,-26.157087,-24.898457,-22.760311,-20.502909,-18.776951,-17.967014,-18.134274,-19.025934,-20.145411,-20.904562,-20.856634,-19.937765,-18.583042,-17.600397,-17.80081,-19.540556,-22.425814,-25.383291,-27.116446,-26.744484,-24.293539,-20.763149,-17.705595,-16.514463,-17.775776,-21.002922,-24.875992,-27.85075,-28.829536,-27.579197,-24.729628,-21.400148,-18.667328,-17.132753,-16.767954,-17.062407,-17.358822,-17.191578,-16.469397,-15.439226,-14.483507,-13.88108,-13.668466,-13.670666,-13.66743,-13.577709,-13.533011,-13.779845,-14.465651,-15.45048,-16.28694,-16.412701,-15.458021,-13.476756,-10.934196,-8.426919,-6.287447,-4.3235083,-1.8837252,1.7499058,6.8547001,12.952934,18.906713,23.403303,25.575403,25.409355,23.711929,21.662861,20.220057,19.7187,19.872116,20.128605,20.125769,19.943958,20.009701,20.736433,22.157887,23.807089,24.928509,24.896425,23.5847,21.468206,19.402031,18.212231,18.327808,19.63925,21.626007,23.647167,25.221554,26.160633,26.522083,26.453669,26.042055,25.255966,24.005215,22.267893,20.201323,18.16054,16.594679,15.856385,16.01519,16.78306,17.620197,17.998264,17.697308,16.963783,16.406157,16.646049,17.903833,19.774353,21.369995,21.798409,20.717245,18.619545,16.630171,15.883986,16.835337,18.93017,20.879036,21.403318,20.01358,17.330015,14.721114,13.463621,13.942128,15.39944,16.409288,15.783355,13.34044,10.047353,7.4395056,6.6882048,7.9026213,10.096046,11.815972,12.020131,10.645523,8.5414963,6.8598871,6.3300481,6.8817654,7.8118176,8.3197222,8.0191288,7.0974851,6.076139,5.4031167,5.1945686,5.2870917,5.5046253,5.8813739,6.6348286,7.9010587,9.4547901,10.673205,10.833033,9.5775442,7.2416391,4.7918167,3.3809316,3.7675531,5.9364324,9.1269093,12.224846,14.272332,14.819541,13.98187,12.254926,10.25026,8.491272,7.307045,6.7829537,6.7335677,6.7271562,6.2265592,4.8565812,2.6890211,0.3538869,-1.1656696,-1.0152978,1.015259,4.2613053,7.4206939,9.1668882,8.8009701,6.5652328,3.4411824,0.57186544,-1.3275779,-2.2226565,-2.5673847,-2.8547552,-3.2465484,-3.5283904,-3.3818619,-2.736845,-1.9238796,-1.5096756,-1.9386474,-3.2420368,-5.0173249,