Bandpass,0,0.49933,13.11006,252.922,356.5919,307.2386,159.0565,15.01222,-37.56666,17.22571,118.8441,178.9321,146.8751,44.44493,-53.92001,-78.18836,-13.84566,89.87955,158.6128,147.8839,73.69814,-2.508694,-21.35663,30.82437,113.9678,166.1322,150.095,79.83216,8.29875,-12.9073,28.75724,99.25313,144.877,132.4801,72.96062,11.47364,-7.145013,28.57376,89.38478,128.1128,114.8014,58.1109,-2.122722,-24.66821,3.454146,58.91372,100.4887,99.45657,59.43528,11.84192,-8.533422,10.87712,52.33189,82.26116,76.7091,38.67211,-4.968585,-23.81199,-6.040391,33.86691,66.75169,70.40739,45.07815,11.91028,-3.647727,9.340522,40.08618,65.14994,66.38232,44.18128,16.56142,5.321136,19.95549,51.13787,78.10275,83.96188,67.50376,43.12397,29.54656,36.08569,56.52251,74.60807,76.53356,60.88499,38.94501,25.648,28.33826,41.74133,52.57909,49.98483,33.75319,14.37915,5.130126,12.25281,30.5641,47.46643,52.16512,43.20837,28.97577,21.08609,25.81854,39.8305,53.03309,56.16546,47.34866,32.96247,22.57158,21.95911,29.44865,37.96352,40.89955,37.18008,31.73343,31.26101,38.72518,50.82756,60.35397,61.53447,54.33525,44.47856,39.23305,42.15252,50.64873,58.10936,58.89693,52.50129,43.83805,39.57673,43.26719,52.81729,62.06143,65.16134,60.60514,52.00124,45.27972,44.48391,49.20463,55.34433,58.40725,56.75771,52.49797,49.51851,50.37761,54.41928,58.46185,59.38523,56.55108,52.21928,49.72867,50.92189,54.8165,58.49938,59.47546,57.58294,54.94419,53.96581,54.9481,55.23101,50.69729,38.68718,20.26095,0.1143612,-15.93996,-24.31145,-25.59327,-23.88877,-24.02991,-28.59142,-36.63784,-44.86423,-50.14508,-51.64102,-51.07657,-51.18549,-53.59798,-57.72876,-61.38671,-62.53642,-60.84906,-57.92001,-56.0658,-56.65036,-59.18137,-61.79456,-62.70646,-61.53781,-59.55936,-58.73709,-60.32162,-64.00869,-68.22413,-71.24624,-72.30128,-71.85845,-71.0007,-70.44401,-70.00027,-68.88512,-66.58556,-63.55655,-61.14467,-60.73629,-62.73758,-66.1535,-69.11942,-70.0555,-68.66022,-66.06432,-64.05119,-63.89165,-65.58636,-67.99581,-69.70631,-69.98684,-69.17542,-68.28267,-68.17019,-68.93822,-69.95724,-70.47005,-70.2612,-69.85528,-70.07892,-71.32018,-73.06586,-74.10963,-73.33482,-70.54228,-66.73089,-63.59827,-62.56138,-63.92967,-66.76662,-69.51754,-70.97809,-70.97071,-70.31341,-70.14976,-71.12423,-72.96104,-74.70456,-75.42419,-74.88734,-73.75082,-73.16122,-74.04734,-76.5691,-80.05622,-83.43423,-85.83111,-86.97954,-87.20609,-87.08757,-87.05511,-87.21394,-87.45512,-87.71392,-88.13685,-89.00986,-90.49796,-92.40258,-94.14609,-95.03935,-94.68615,-93.26566,-91.49259,-90.2488,-90.08887,-90.91247,-92.00744,-92.45078,-91.63911,-89.63721,-87.13453,-85.02918,-83.88279,-83.57246,-83.356,-82.32166,-79.95811,-76.49458,-72.78635,-69.78768,-67.91055,-66.65472,-64.75471,-60.79455,-53.96601,-44.55351,-33.87759,-23.73294,-15.63233,-10.25515,-7.35277,-6.084166,-5.522555,-5.024882,-4.303335,-3.26444,-1.82577,0.1094167,2.50701,5.042699,7.1217,8.142313,7.867742,6.651491,5.324212,4.765073,5.404199,6.974466,8.6889,9.748921,9.867254,9.468891,9.433935,10.5396,12.95349,16.09927,18.97999,20.75752,21.23208,20.93668,20.80331,21.61429,23.56334,26.165,28.53363,29.84872,29.74507,28.44077,26.57622,24.88125,23.8462,23.53963,23.63192,23.59835,23.01233,21.80614,20.37545,19.45002,19.75123,21.58072,24.567,27.76357,30.12278,31.1354,31.26837,31.88019,34.56126,40.20277,48.32159,57.09068,64.14855,67.79161,67.87851,65.89513,64.09992,64.22424,66.49447,69.57296,71.46627,70.85026,67.9875,64.64539,63.03175,64.37669,68.02586,71.61861,72.28213,68.17049,59.47797,48.371,37.91064,30.59432,27.31254,27.22156,28.48499,29.3738,29.09137,27.93679,26.84428,26.66986,27.66465,29.38445,30.99816,31.75528,31.34901,30.02974,28.47416,27.50612,27.7768,29.48966,32.24535,35.08417,36.77607,36.31304,33.42398,28.84475,24.12862,20.9929,20.46945,22.29513,24.9121,26.15046,24.28701,18.93775,11.29967,3.596256,-1.986104,-4.305894,-3.691745,-1.591111,0.3207852,1.053131,0.73636,0.3850757,1.178185,3.701642,7.584468,11.70261,14.79319,16.10584,15.73156,14.46174,13.30536,12.96771,13.58139,14.80404,16.17245,17.46329,18.82964,20.63875,23.1301,26.12788,29.01086,30.98579,31.52112,30.68834,29.19726,28.0796,28.1788,29.72292,32.2198,34.73573,36.40121,36.85792,36.39619,35.7152,35.45975,35.81698,36.41537,36.58159,35.79259,34.04187,31.89261,30.18143,29.54837,30.0722,31.22612,32.17686,32.2498,31.2905,29.7214,28.27426,27.56503,27.76051,28.52248,29.24953,29.46535,29.1228,28.64344,28.66252,29.61304,31.37593,33.1973,33.94295,32.59154,28.74096,22.88377,16.30508,10.62905,7.206214,6.613016,8.485813,11.75422,15.14952,17.73726,19.22443,19.91975,20.4108,21.16422,22.27584,23.49229,24.45589,24.99483,25.26486,25.65359,26.51565,27.91706,29.5616,30.95482,31.70696,31.78365,31.54112,31.51561,32.09089,33.24732,34.54958,35.38562,35.31677,34.33057,32.84748,31.48093,30.69648,30.57063,30.78248,30.82732,30.31146,29.1515,27.57474,25.94924,24.57268,23.55831,22.87296,22.46977,22.39483,22.77519,23.69169,25.03404,26.4579,27.49866,27.78738,27.23978,26.09893,24.80365,23.76133,23.15745,22.89939,22.70194,22.24032,21.27928,19.73432,17.6845,15.37912,13.2449,11.84491,11.7283,13.17443,15.94141,19.19352,21.73186,22.48968,21.06931,18.02024,14.65993,12.48354,12.45123,14.5299,17.733,20.62432,21.9977,21.36951,19.06151,15.90641,12.80769,10.41234,9.017415,8.650373,9.17367,10.31668,11.66526,12.71647,13.05777,12.5936,11.64283,10.7748,10.43482,10.60045,10.74524,10.20264,8.724436,6.829331,5.614287,6.041768,8.112419,10.49886,10.99938,7.668653,0.01001644,-10.50503,-20.97563,-28.4309,-31.26152,-29.91122,-26.45224,-23.33665,-22.0933,-22.72843,-24.10771,-24.96755,-24.83527,-24.25508,-24.22204,-25.26895,-26.87229,-27.61007,-25.98846,-21.40611,-14.63568,-7.514248,-2.029201,0.6565144,0.6917736,-0.6891473,-1.909088,-1.847584,-0.2735752,2.2443,4.797114,6.648882,7.532713,7.638762,7.38189,7.116245,6.93354,6.600813,5.628019,3.429779,-0.4604416,-6.179296,-13.40166,-21.36265,-29.0582,-35.56236,-40.32586,-43.31597,-44.93615,-45.78165,-46.36983,-46.97921,-47.64772,-48.27962,-48.7622,-49.02194,-49.02181,-48.75262,-48.26196,-47.70669,-47.36655,-47.56562,-48.51644,-50.17727,-52.22978,-54.22016,-55.79729,-56.90627,-57.81143,-58.92644,-60.55166,-62.67826,-64.97494,-66.95746,-68.23236,-68.6731,-68.44363,-67.88395,-67.34456,-67.06232,-67.11867,-67.46259,-67.95676,-68.42294,-68.69249,-68.67396,-68.42415,-68.17844,-68.29422,-69.1046,-70.74084,-73.01886,-75.46319,-77.47243,-78.5532,-78.51367,-77.53083,-76.06831,-74.68613,-73.81941,-73.60724,-73.83493,-74.02337,-73.65316,-72.44995,-70.59871,-68.74514,-67.71991,-68.07623,-69.68388,-71.66011,-72.77032,-72.14825,-69.92723,-67.33405,-66.05415,-67.12434,-69.97775,-72.29363,-70.90942,-63.42855,-49.67334,-32.11863,-14.95688,-2.218627,4.05777,4.606998,2.256065,0.2091634,0.3106172,2.272232,4.236587,4.231415,1.560776,-2.72133,-6.486262,-7.855853,-6.30386,-2.860294,0.6420049,2.729572,3.09495,2.574792,2.400437,3.285193,4.969341,6.486981,6.91408,6.050916,4.574013,3.581253,3.867126,5.425174,7.491899,9.067467,9.540353,9.005034,8.097971,7.507635,7.512718,7.84924,7.961432,7.433811,6.303455,5.059739,4.359593,4.662702,6.014222,8.078608,10.35851,12.43362,14.07757,15.22015,15.82969,15.82764,15.10308,13.61366,11.50055,9.137808,7.07522,5.88586,5.970978,7.394445,9.817164,12.57691,14.90833,16.23071,16.37861,15.65254,14.64499,13.92081,13.72924,13.92203,14.13225,14.09584,13.88907,13.89755,14.5147,15.77357,17.1948,18.00986,17.65727,16.22694,14.51336,13.57095,14.00725,15.46857,16.69931,16.20873,13.17331,8.01163,2.240557,-2.335737,-4.619548,-4.779206,-4.024822,-3.752011,-4.613483,-6.120295,-7.019852,-6.18164,-3.38881,0.4930697,4.072886,6.329635,7.239476,7.719432,8.942574,11.50207,14.99142,18.27137,20.22178,20.45598,19.52046,18.47192,18.15248,18.67481,19.45726,19.74716,19.22723,18.25642,17.57572,17.70667,18.49853,19.1765,18.88228,17.336,15.14477,13.51257,13.51455,15.40306,18.40358,21.14175,22.43191,21.92878,20.2448,18.49096,17.5661,17.65817,18.25106,18.58131,18.20089,17.26142,16.35207,16.03614,16.42498,17.08001,17.29469,16.55045,14.83805,12.64624,10.65013,9.322071,8.712857,8.513289,8.313625,7.866578,7.192353,6.498774,6.017677,5.89016,6.160707,6.834473,7.903814,9.295296,10.78429,11.98408,12.48064,12.07108,10.95654,9.730908,9.118164,9.57893,11.01643,12.77874,13.98633,14.01252,12.83919,11.07437,9.616405,9.159791,9.829741,11.14947,12.34096,12.76462,12.23506,11.04521,9.720421,8.686136,8.065582,7.717446,7.453511,7.2581,7.339959,7.972417,9.23252,10.82946,12.16284,12.60352,11.8397,10.07672,7.958476,6.24437,5.424526,5.495361,6.020523,6.429497,6.364379,5.862836,5.275093,4.984417,5.12434,5.48273,5.655265,5.342338,4.584468,3.768785,3.389904,3.715189,4.575763,5.431402,5.683722,5.050045,3.765711,2.485801,1.942124,2.559317,4.251945,6.505378,8.669204,10.27573,11.20714,11.65188,11.9261,12.29686,12.90144,13.75877,14.80119,15.86877,16.68418,16.88719,16.18573,14.57849,12.49902,10.72334,10.00969,10.63325,12.10447,13.30509,13.04363,10.75553,6.937004,3.018776,0.7051057,1.134606,4.345576,9.356183,14.79673,19.69167,23.90373,27.9794,32.52933,37.58053,42.3513,45.61565,46.42937,44.74672,41.52264,38.2258,36.06339,35.39401,35.67342,35.93118,35.44696,34.19167,32.77709,31.98785,32.23082,33.26682,34.38284,34.86865,34.47403,33.55365,32.82146,32.88573,33.86092,35.28773,36.39276,36.51901,35.4752,33.62057,31.66409,30.3087,29.93234,30.45159,31.40452,32.18417,32.30212,31.57203,30.15617,28.47947,27.06127,26.33393,26.50979,27.53262,29.11724,30.8533,32.3342,33.27255,33.57335,33.34818,32.86552,32.44588,32.33065,32.57354,33.00978,33.33281,33.25437,32.66732,31.71229,30.6946,29.89132,29.37021,28.95139,28.35535,27.44746,26.40142,25.63866,25.55094,26.18458,27.12586,27.71453,27.48155,26.5166,25.47327,25.14549,25.86354,27.13893,27.8758,27.09858,24.75008,21.97643,20.57642,21.82647,25.36666,28.90964,29.11292,23.25588,10.81783,-5.973835,-23.01142,-36.16814,-43.1503,-44.34518,-42.26308,-39.98362,-39.54889,-41.18855,-43.68389,-45.47142,-45.69844,-44.59083,-43.02776,-41.75635,-40.86079,-39.84055,-38.16743,-35.84405,-33.5128,-32.02655,-31.80908,-32.49756,-33.15408,-32.91375,-31.60988,-29.92091,-28.91716,-29.31171,-30.93563,-32.81045,-33.78186,-33.29142,-31.76533,-30.35534,-30.20022,-31.69198,-34.22041,-36.54736,-37.55241,-36.8653,-35.00005,-32.94781,-31.53404,-30.97139,-30.87484,-30.67725,-30.12069,-29.47055,-29.31195,-30.08338,-31.68075,-33.41233,-34.34695,-33.83987,-31.90936,-29.23763,-26.80628,-25.3923,-25.21615,-25.91994,-26.84739,-27.43137,-27.46159,-27.10877,-26.73871,-26.66207,-26.97229,-27.5425,-28.14697,-28.61139,-28.90539,-29.14536,-29.53029,-30.25377,-31.42321,-32.99869,-34.76052,-36.32685,-37.24576,-37.15926,-35.98349,-34.00813,-31.82986,-30.11393,-29.28667,-29.32877,-29.80596,-30.14321,-29.99141,-29.45805,-29.0388,-29.27069,-30.31837,-31.77168,-32.81629,-32.70007,-31.20846,-28.8302,-26.47913,-24.92939,-24.32865,-24.12471,-23.47735,-21.89325,-19.6463,-17.66348,-16.90976,-17.66661,-19.21421,-20.1967,-19.50162,-17.10979,-14.3328,-13.2048,-15.32885,-20.85311,-28.2151,-34.84753,-38.45803,-38.1448,-34.71471,-30.06296,-26.03788,-23.49462,-22.0705,-20.72367,-18.59667,-15.60809,-12.41953,-9.882631,-8.417744,-7.782751,-7.372672,-6.789378,-6.226017,-6.356331,-7.792449,-10.50329,-13.63143,-15.87661,-16.21837,-14.50853,-11.5437,-8.573233,-6.568574,-5.724102,-5.486527,-5.048351,-3.942622,-2.339012,-0.8738987,-0.174679,-0.4301577,-1.294127,-2.152012,-2.526775,-2.327704,-1.792334,-1.212685,-0.6885651,-0.1045388,0.6697795,1.545375,2.166609,2.12168,1.265784,-0.09899252,-1.355603,-1.955732,-1.79312,-1.285931,-1.079284,-1.552536,-2.474952,-3.075425,-2.517979,-0.4887355,2.49905,5.310067,6.803771,6.492132,4.830963,2.963811,2.077505,2.762545,4.751172,7.155087,9.01396,9.797259,9.571915,8.792413,7.913367,7.108637,6.265756,5.209451,3.950745,2.763531,2.03869,2.038084,2.738563,3.877042,5.149298,6.401429,7.668324,9.041725,10.48896,11.78344,12.61805,12.82202,12.50982,12.03269,11.75264,11.80293,12.02328,12.13439,12.03062,11.96148,12.43358,13.8629,16.20531,18.84135,20.84004,21.46892,20.63272,18.94692,17.38177,16.69587,17.02079,17.85651,18.45942,18.34204,17.5415,16.49408,15.645,15.1116,14.66455,14.03487,13.28677,12.92616,13.60723,15.62042,18.55236,21.42622,23.29512,23.90121,23.90335,24.42863,26.17218,28.63617,30.08619,28.37951,22.24192,12.22215,0.6875926,-9.215383,-15.0761,-16.34432,-14.43088,-11.77125,-10.45335,-11.22983,-13.436,-15.73447,-17.10776,-17.43705,-17.3577,-17.60201,-18.36181,-19.12821,-19.0781,-17.67678,-15.03824,-11.80143,-8.659202,-5.926724,-3.476965,-1.061126,1.28129,3.091056,3.779693,3.135998,1.640909,0.2939525,0.008679711,0.9742278,2.447498,3.169019,2.166253,-0.5771509,-4.040138,-6.741539,-7.607501,-6.567859,-4.506878,-2.628676,-1.6822,-1.563629,-1.534922,-0.866992,0.566166,2.161731,3.008922,2.550678,1.018783,-0.6613929,-1.434457,-0.7717451,1.006149,2.93726,4.005414,3.725795,2.376449,0.770223,-0.2494892,-0.262365,0.5786461,1.735827,2.645008,3.007864,2.870256,2.496813,2.167301,2.031119,2.081488,2.221598,2.352169,2.426599,2.462607,2.527549,2.713094,3.100919,3.718244,4.496893,5.263837,5.783547,5.840743,5.320465,4.239572,2.716998,0.9135993,-1.010229,-2.897385,-4.582055,-5.910282,-6.809921,-7.36245,-7.788507,-8.293794,-8.827888,-8.914268,-7.723453,-4.440445,1.221606,8.657085,16.42444,22.77989,26.45371,27.25063,26.11579,24.59776,23.99465,24.66742,25.91456,26.47016,25.31637,22.32124,18.33342,14.70567,12.56107,12.24801,13.28136,14.74752,15.87451,16.40343,16.56874,16.76898,17.19904,17.70394,17.92916,17.62573,16.87006,16.03754,15.55545,15.61824,16.06716,16.51257,16.6054,16.26562,15.71535,15.30533,15.26488,15.54894,15.87929,15.93964,15.58368,14.9156,14.19703,13.6528,13.30997,12.97486,12.35775,11.26167,9.717547,7.988747,6.449107,5.408481,4.979397,5.046407,5.340838,5.573888,5.560914,5.282682,4.86271,4.478445,4.253422,4.186967,4.161513,4.028125,3.724351,3.350521,3.143503,3.341937,4.00745,4.908308,5.552654,5.379476,4.020473,1.493883,-1.779192,-5.148017,-7.998926,-9.969524,-11.00436,-11.25017,-10.88721,-10.0219,-8.707013,-7.053624,-5.325852,-3.918556,-3.202964,-3.326014,-4.09451,-5.030916,-5.582646,-5.370679,-4.340211,-2.739154,-0.9553438,0.6789218,2.003122,3.018861,3.791694,4.34787,4.634177,4.553498,4.038334,3.112165,1.912527,0.6801902,-0.2726799,-0.617774,-0.1049724,1.305246,3.319147,5.285803,6.348906,5.768806,3.292719,-0.622696,-4.897191,-8.234406,-9.678492,-9.037645,-6.93896,-4.471233,-2.604269,-1.705331,-1.419415,-0.9664866,0.3368811,2.651406,5.53488,8.23645,10.16107,11.20265,11.74233,12.33362,13.30114,14.529,15.57959,16.05452,15.94059,15.68869,15.95185,17.14243,19.10206,21.11961,22.314,22.15921,20.82459,19.10508,17.96513,17.96168,18.89353,19.89469,19.92462,18.37194,15.42211,11.9814,9.209824,7.936365,8.282114,9.679298,11.23794,12.22249,12.3652,11.86894,11.14969,10.51444,9.981656,9.336274,8.353762,7.027896,5.65059,4.698177,4.601713,5.541465,7.376606,9.729016,12.15049,14.26918,15.84765,16.75539,16.91414,16.27847,14.87177,12.84388,10.49105,8.198871,6.319983,5.045836,4.343105,3.993963,3.723072,3.346364,2.864225,2.450455,2.342392,2.688315,3.431193,4.291992,4.869404,4.816684,4.016255,2.66705,1.233889,0.2688642,0.17641,1.025903,2.500608,4.011983,4.93118,4.832945,3.641909,1.621447,-0.7745627,-3.100536,-5.065719,-6.56679,-7.617279,-8.243165,-8.424383,-8.119505,-7.346134,-6.246391,-5.07484,-4.100006,-3.473955,-3.153481,-2.930028,-2.55874,-1.913131,-1.07268,-0.2897622,0.1451005,0.06015436,-0.5082914,-1.339734,-2.142988,-2.686839,-2.875382,-2.740104,-2.376827,-1.884756,-1.350399,-0.8752675,-0.6072756,-0.7307451,-1.40183,-2.661509,-4.382562,-6.29184,-8.062756,-9.427982,-10.24939,-10.51194,-10.26026,-9.535142,-8.36433,-6.818054,-5.083677,-3.486477,-2.408259,-2.122008,-2.628396,-3.601866,-4.506921,-4.849639,-4.43874,-3.504736,-2.589604,-2.246815,-2.710529,-3.729095,-4.678369,-4.911053,-4.148657,-2.678088,-1.213859,-0.4831374,-0.7699139,-1.70202,-2.437028,-2.164713,-0.6362283,1.611569,3.502939,4.023323,2.823125,0.4478511,-1.974303,-3.428363,-3.684618,-3.53212,-4.407841,-7.616711,-13.58909,-21.60633,-30.14698,-37.63743,-43.15787,-46.70205,-48.88085,-50.30843,-51.09461,-50.77608,-48.71894,-44.71263,-39.35199,-33.94048,-29.95101,-28.35302,-29.18863,-31.62053,-34.39415,-36.4328,-37.24641,-36.98276,-36.17191,-35.36798,-34.89777,-34.80925,-34.97272,-35.21676,-35.40782,-35.46194,-35.33525,-35.03693,-34.66003,-34.38523,-34.42117,-34.89787,-35.77901,-36.85954,-37.86028,-38.56134,-38.88783,-38.89834,-38.70185,-38.38126,-37.9884,-37.60438,-37.39021,-37.54632,-38.17214,-39.11516,-39.94322,-40.11386,-39.27871,-37.54225,-35.48661,-33.90245,-33.35575,-33.84615,-34.77833,-35.28426,-34.71367,-32.99911,-30.6779,-28.57002,-27.32628,-27.1306,-27.72045,-28.66528,-29.67258,-30.69283,-31.7655,-32.76006,-33.26126,-32.74764,-30.98135,-28.33151,-25.74502,-24.28664,-24.46787,-25.77301,-26.72571,-25.54175,-21.05547,-13.41459,-4.139723,4.510674,10.5432,13.07554,12.60206,10.58838,8.666323,7.884132,8.383634,9.598291,10.77402,11.47264,11.78581,12.1939,13.21067,15.0455,17.46231,19.87821,21.61753,22.18372,21.43639,19.62537,17.29244,15.08578,13.54668,12.93581,13.16288,13.85621,14.55184,14.91652,14.8864,14.63869,14.40819,14.26311,13.99426,13.2111,11.60615,9.227301,6.57197,4.414017,3.440759,3.906119,5.509193,7.575907,9.43525,10.7607,11.67145,12.54396,13.67056,14.99791,16.12113,16.53794,15.99456,14.69399,13.22669,12.2625,12.19469,12.95344,14.09494,15.09688,15.66722,15.87586,16.04113,16.46212,17.18088,17.93022,18.29732,17.99349,17.0559,15.85249,14.88612,14.51655,14.76715,15.3298,15.76375,15.77155,15.39292,15.00537,15.12971,16.14546,18.06907,20.51253,22.84295,24.45803,25.03534,24.63241,23.59969,22.36943,21.24659,20.3159,19.50241,18.72597,18.03331,17.60949,17.65346,18.19845,19.00405,19.61112,19.55083,18.59806,16.92099,15.03143,13.55384,12.93576,13.25428,14.21415,15.32184,16.12683,16.40112,16.18407,15.70813,15.27945,15.18412,15.63959,16.76197,18.5157,20.65372,22.70599,24.07829,24.2653,23.09307,20.85274,18.22078,15.97449,14.64054,14.27082,14.4788,14.71782,14.63391,14.27543,14.02924,14.32528,15.30255,16.65814,17.78891,18.14859,17.60193,16.55149,15.74718,15.88095,17.19907,19.35493,21.5829,23.08918,23.43854,22.73183,21.50014,20.40262,19.91069,20.14391,20.91446,21.91137,22.88867,23.74425,24.46431,25.00029,25.18485,24.76122,23.52012,21.46348,18.88754,16.31758,14.30857,13.20579,12.99101,13.30333,13.63381,13.59628,13.12679,12.49415,12.10529,12.20962,12.67796,13.00354,12.55268,10.94172,8.325775,5.413995,3.171125,2.345686,3.075884,4.793091,6.482645,7.164388,6.337748,4.166529,1.334745,-1.312962,-3.133945,-3.876764,-3.652314,-2.774158,-1.602338,-0.4707691,0.3190423,0.5124592,-0.02778422,-1.228055,-2.779515,-4.250811,-5.306053,-5.89594,-6.276741,-6.812956,-7.67464,-8.637056,-9.146399,-8.645713,-6.968953,-4.541956,-2.234998,-0.9325426,-1.074232,-2.447435,-4.352679,-6.024646,-7.034446,-7.428575,-7.551236,-7.712508,-7.954512,-8.074159,-7.85919,-7.33568,-6.823973,-6.753261,-7.372618,-8.577588,-9.984241,-11.19576,-12.0609,-12.73124,-13.47862,-14.41886,-15.36122,-15.9093,-15.74713,-14.90009,-13.77449,-12.94066,-12.81311,-13.45149,-14.6084,-15.95827,-17.30859,-18.62336,-19.85876,-20.78409,-20.99389,-20.16859,-18.41936,-16.43365,-15.23342,-15.62234,-17.64734,-20.44425,-22.61913,-22.97038,-21.11651,-17.63572,-13.63196,-10.01497,-6.966057,-3.930424,-0.1180145,4.844595,10.55931,16.03121,20.23947,22.70985,23.71311,23.98778,24.21373,24.61522,24.95039,24.8507,24.22415,23.40794,22.95751,23.23499,24.10708,24.97942,25.15003,24.23939,22.40961,20.2418,18.37791,17.17829,16.60641,16.3717,16.18374,15.92246,15.62882,15.3751,15.15775,14.90923,14.601,14.31868,14.21333,14.34947,14.57971,14.57846,14.04992,12.97667,11.71751,10.85361,10.86113,11.82418,13.3849,14.9644,16.09752,16.64852,16.77342,16.69171,16.47298,16.02105,15.26425,14.37609,13.80565,14.0391,15.23907,17.03825,18.68242,19.47031,19.20294,18.31853,17.59566,17.61646,18.36657,19.26191,19.5864,19.02,17.86514,16.80324,16.37243,16.57894,16.95892,17.05268,16.90626,17.15461,18.54415,21.21088,24.29408,26.29508,26.06023,23.74041,20.96421,19.90911,21.71494,25.24628,27.14401,23.3785,11.54954,-7.399006,-29.15393,-47.85424,-58.81736,-60.66383,-55.67244,-48.23893,-42.4106,-39.94894,-39.95851,-40.10464,-38.48693,-34.92929,-30.94111,-28.52482,-28.73581,-30.98185,-33.47943,-34.48353,-33.42039,-31.1781,-29.42077,-29.4481,-31.38383,-34.19807,-36.47536,-37.35196,-36.98232,-36.2658,-36.08878,-36.64864,-37.32908,-37.18489,-35.66831,-33.07907,-30.42939,-28.82195,-28.75955,-29.83362,-30.97541,-31.09108,-29.67878,-27.07094,-24.20194,-22.08768,-21.33923,-21.95928,-23.46518,-25.19533,-26.59516,-27.35307,-27.38544,-26.75477,-25.60407,-24.12966,-22.56126,-21.1155,-19.93048,-19.02662,-18.33325,-17.77118,-17.33097,-17.08139,-17.09417,-17.34246,-17.66378,-17.84055,-17.76252,-17.55956,-17.59073,-18.25895,-19.74109,-21.79766,-23.7998,-24.9904,-24.85344,-23.39162,-21.15527,-19.00276,-17.71984,-17.69582,-18.8097,-20.55285,-22.28995,-23.50683,-23.93693,-23.55313,-22.49031,-20.97644,-19.30175,-17.79423,-16.7512,-16.31846,-16.37609,-16.52582,-16.23678,-15.11034,-13.13023,-10.74328,-8.694331,-7.678334,-7.988227,-9.352984,-11.06002,-12.29698,-12.52567,-11.68989,-10.1634,-8.497639,-7.135084,-6.252376,-5.796093,-5.645573,-5.765548,-6.237788,-7.160179,-8.500628,-10.02491,-11.3629,-12.17853,-12.33472,-11.94552,-11.28229,-10.59605,-9.971994,-9.308732,-8.432328,-7.26703,-5.947368,-4.791955,-4.144772,-4.172759,-4.740262,-5.443258,-5.8002,-5.508016,-4.628561,-3.596549,-3.025262,-3.391431,-4.753235,-6.654779,-8.288069,-8.8539,-7.950315,-5.786724,-3.100052,-0.8043041,0.446236,0.545037,-0.08182596,-0.7732777,-1.024896,-0.7330762,-0.1496172,0.4014193,0.8310629,1.385015,2.448658,4.186122,6.279608,7.989993,8.549037,7.65332,5.728078,3.750701,2.702635,2.975213,4.111262,5.068177,4.857452,3.165319,0.5608563,-1.841716,-3.047339,-2.74122,-1.390613,0.1581842,1.294286,2.037907,2.945679,4.600241,7.05419,9.638327,11.29736,11.25009,9.536365,7.073313,5.16101,4.740604,5.871637,7.752069,9.252064,9.608687,8.844402,7.674551,7.009912,7.408333,8.824787,10.77432,12.73281,14.46043,16.0274,17.56797,18.99689,19.94259,19.97339,18.956,17.26902,15.68639,14.98105,15.50569,17.0321,18.95361,20.70219,22.08435,23.30574,24.68516,26.28856,27.77435,28.58686,28.37348,27.32217,26.15275,25.72916,26.52993,28.32909,30.31258,31.56759,31.62881,30.72393,29.5618,28.8173,28.67375,28.74307,28.42073,27.42475,26.12829,25.42492,26.18174,28.62899,32.10153,35.33697,37.17686,37.24603,36.18215,35.26151,35.64557,37.71264,40.8848,44.04403,46.25716,47.33665,47.87808,48.7632,50.47266,52.68422,54.44837,54.84948,53.72026,51.90881,50.85487,51.66888,54.2514,57.02177,57.50392,53.52462,44.40226,31.47089,17.62416,6.088602,-0.9519932,-3.188984,-2.09256,-0.001760791,1.071255,0.2936193,-1.864462,-4.190402,-5.570399,-5.60962,-4.724281,-3.741778,-3.324288,-3.59046,-4.140187,-4.414685,-4.124393,-3.462611,-2.983174,-3.239663,-4.422904,-6.216492,-7.943777,-8.905332,-8.709678,-7.427251,-5.515263,-3.587489,-2.166009,-1.529101,-1.693357,-2.494316,-3.698098,-5.090823,-6.526737,-7.941741,-9.343648,-10.78394,-12.31302,-13.92967,-15.54668,-16.99554,-18.07726,-18.64112,-18.65626,-18.24182,-17.64043,-17.14378,-16.99586,-17.30519,-17.99547,-18.81772,-19.43403,-19.55852,-19.10698,-18.28158,-17.52569,-17.33847,-18.02157,-19.49122,-21.27989,-22.75763,-23.47101,-23.40749,-23.01653,-22.95584,-23.70511,-25.28459,-27.26013,-29.03267,-30.21796,-30.85453,-31.29291,-31.84704,-32.47117,-32.72532,-32.0921,-30.43956,-28.28238,-26.59935,-26.26791,-27.47551,-29.53863,-31.3223,-32.03965,-31.89995,-32.10155,-34.0564,-38.25718,-43.50927,-47.11266,-46.03796,-38.51476,-25.1378,-8.81707,6.459067,17.39641,22.74838,23.55549,22.23475,21.13059,21.38497,22.7039,23.99799,24.35317,23.66251,22.56366,21.83501,21.75419,21.89573,21.49014,20.05302,17.81005,15.60565,14.35898,14.4489,15.4518,16.40665,16.4229,15.22838,13.31401,11.61156,10.93861,11.56421,13.12923,14.90439,16.1684,16.46544,15.64124,13.73488,10.88214,7.32271,3.468291,-0.09479968,-2.754933,-4.130661,-4.272992,-3.657805,-2.940007,-2.604234,-2.725158,-2.982722,-2.910738,-2.208498,-0.918036,0.6236892,1.990979,2.874964,3.1614,2.873197,2.076229,0.8559213,-0.6173308,-2.022425,-2.936463,-3.027701,-2.28669,-1.117451,-0.1747339,-0.00445997,-0.7032488,-1.833786,-2.682253,-2.712976,-1.92465,-0.8576391,-0.2269627,-0.4142019,-1.164022,-1.709761,-1.269359,0.4043011,2.787881,4.840882,5.602369,4.754138,2.787798,0.6678231,-0.7886342,-1.409762,-1.721335,-2.524343,-4.281538,-6.721629,-8.926976,-9.856191,-8.973119,-6.587824,-3.701077,-1.455381,-0.532733,-0.8553019,-1.742037,-2.389758,-2.363238,-1.801633,-1.248225,-1.249399,-1.995293,-3.221307,-4.405847,-5.112365,-5.24919,-5.094103,-5.091382,-5.568235,-6.55131,-7.782186,-8.896991,-9.63794,-9.960992,-9.986315,-9.84668,-9.551867,-8.968339,-7.929924,-6.40419,-4.598765,-2.926687,-1.83686,-1.600527,-2.175032,-3.223681,-4.280422,-4.96501,-5.128076,-4.851963,-4.323685,-3.674403,-2.896474,-1.89266,-0.6189995,0.7867899,1.996943,2.634693,2.490885,1.680722,0.6295734,-0.122886,-0.1961634,0.4394834,1.469328,2.436695,3.020068,3.218076,3.332642,3.764897,4.750084,6.18953,7.672979,8.66987,8.776056,7.886172,6.220318,4.220503,2.390062,1.151536,0.7602813,1.272025,2.550318,4.311212,6.209765,7.95556,9.410635,10.60751,11.65719,12.58998,13.23727,13.26169,12.35743,10.51677,8.180804,6.131741,5.136171,5.523094,6.956501,8.571838,9.429497,9.030435,7.581105,5.838475,4.628121,4.340143,4.724707,5.113347,4.909235,4.010047,2.874242,2.187864,2.366698,3.246437,4.185886,4.519715,4.046645,3.202389,2.776555,3.347936,4.818224,6.373328,6.924305,5.759176,2.990465,-0.4896934,-3.517782,-5.305665,-5.821323,-5.68326,-5.667959,-6.171116,-6.971621,-7.429485,-6.959365,-5.454497,-3.390896,-1.566595,-0.6636543,-0.9109722,-2.029994,-3.44894,-4.615065,-5.214145,-5.210798,-4.756723,-4.077252,-3.408967,-2.976794,-2.951557,-3.361307,-4.007474,-4.481171,-4.330602,-3.31823,-1.611826,0.2381902,1.559151,1.916521,1.353529,0.3529771,-0.4589533,-0.6771585,-0.3166025,0.2715167,0.6882702,0.7650051,0.6348082,0.5609914,0.6690793,0.8001485,0.6106015,-0.1461529,-1.36623,-2.572806,-3.167646,-2.801659,-1.615631,-0.1829376,0.8143961,0.9660293,0.3265688,-0.6886865,-1.613752,-2.226761,-2.638783,-3.144482,-3.970344,-5.112724,-6.370799,-7.522242,-8.484361,-9.327246,-10.13405,-10.83352,-11.15833,-10.78744,-9.583953,-7.75623,-5.813802,-4.331576,-3.670425,-3.830716,-4.518863,-5.358598,-6.089231,-6.624297,-6.9657,-7.081811,-6.87488,-6.273709,-5.367816,-4.449509,-3.895931,-3.954683,-4.588923,-5.509572,-6.386737,-7.088865,-7.761957,-8.670415,-9.903995,-11.17555,-11.89371,-11.50896,-9.926836,-7.7068,-5.882539,-5.477527,-6.988396,-10.13356,-13.99911,-17.47377,-19.71019,-20.37629,-19.62905,-17.92221,-15.82126,-13.91753,-12.7968,-12.9523,-14.59667,-17.46673,-20.79754,-23.57681,-25.00037,-24.87359,-23.68996,-22.30499,-21.39795,-21.07701,-20.90368,-20.32373,-19.19275,-17.99419,-17.55092,-18.39859,-20.26159,-22.04102,-22.38902,-20.52675,-16.76177,-12.33352,-8.662053,-6.491627,-5.509282,-4.701536,-3.198178,-0.998699,0.9573258,1.460302,-0.009696854,-2.721159,-4.972407,-5.089094,-2.499886,1.837773,5.979255,8.1755,7.930933,6.241513,4.860985,5.094556,6.935476,9.123615,10.07543,9.041029,6.691507,4.731351,4.796621,7.383011,11.52064,15.39915,17.50411,17.49578,16.26258,15.16526,15.04115,15.67936,16.11726,15.50877,13.90436,12.34858,12.19604,14.11704,17.50536,20.73817,22.15219,21.09776,18.36418,15.68406,14.63901,15.68333,17.91258,19.69912,19.74664,17.86519,14.99108,12.50231,11.33732,11.50928,12.28574,12.82413,12.76214,12.34977,12.08799,12.21368,12.46544,12.3202,11.50459,10.35453,9.701031,10.32097,12.3372,15.01874,17.16026,17.80576,16.82718,14.96517,13.31812,12.65199,13.01413,13.89137,14.73925,15.43799,16.30658,17.67298,19.37396,20.64493,20.57426,18.84056,16.17254,14.10675,14.10265,16.57094,20.5057,24.04814,25.67176,25.20602,23.96205,23.79621,25.67933,28.72964,30.42489,27.96555,19.99496,7.606655,-6.020517,-17.17641,-23.44866,-24.76102,-23.07001,-21.00283,-20.33174,-21.19573,-22.42821,-22.62609,-21.17728,-18.59482,-16.04475,-14.50469,-14.18012,-14.54445,-14.88353,-14.87718,-14.77459,-15.06756,-15.95805,-17.06253,-17.60046,-16.93717,-15.07932,-12.75112,-10.98276,-10.49128,-11.27652,-12.69464,-13.93351,-14.54385,-14.66387,-14.8119,-15.43061,-16.52658,-17.65726,-18.25355,-18.02815,-17.17352,-16.21879,-15.66253,-15.64735,-15.89615,-15.93475,-15.42816,-14.39577,-13.1739,-12.17703,-11.63749,-11.49679,-11.49962,-11.40043,-11.13105,-10.82382,-10.69311,-10.86692,-11.27754,-11.66989,-11.71512,-11.16908,-10.00601,-8.473125,-7.034651,-6.20432,-6.309553,-7.283441,-8.60768,-9.489737,-9.242145,-7.692326,-5.381277,-3.382101,-2.773491,-4.028345,-6.674425,-9.464382,-11.00441,-10.50301,-8.20245,-5.225802,-2.920106,-2.086344,-2.559108,-3.381078,-3.446389,-2.199816,0.04103241,2.319339,3.650693,3.60916,2.528461,1.228555,0.4835938,0.5874563,1.270683,1.967841,2.211554,1.883904,1.196061,0.4723803,-0.06804538,-0.3826039,-0.5275194,-0.5528213,-0.490916,-0.4456384,-0.66596,-1.472587,-3.022233,-5.056716,-6.853693,-7.496222,-6.359484,-3.528404,0.1447565,3.430748,5.361146,5.734628,5.174856,4.698468,5.062829,6.303872,7.748104,8.473189,7.904918,6.164028,3.958189,2.122246,1.132837,0.9152434,1.037834,1.1163,1.117649,1.348639,2.157748,3.593477,5.290966,6.685549,7.404642,7.548599,7.641173,8.262937,9.612736,11.307,12.57512,12.74269,11.69396,10.00931,8.679183,8.567331,9.952037,12.41609,15.12809,17.31445,18.62094,19.16206,19.27742,19.20398,18.9064,18.1741,16.89306,15.27467,13.85624,13.25066,13.80021,15.36068,17.36026,19.1011,20.11852,20.38187,20.22863,20.09294,20.21237,20.49643,20.6258,20.30164,19.47549,18.41316,17.55812,17.28471,17.69341,18.56594,19.49873,20.13088,20.33871,20.29734,20.38786,21.00579,22.36553,24.385,26.6914,28.73908,29.99325,30.11679,29.0974,27.26948,25.21514,23.57107,22.80816,23.07005,24.14038,25.55475,26.80716,27.5556,27.73374,27.52713,27.24311,27.15398,27.39409,27.94753,28.70468,29.53218,30.31051,30.93331,31.29914,31.32971,31.01733,30.46512,29.87244,29.4502,29.30577,29.3736,29.45021,29.3263,28.93582,28.41795,28.03787,28.00816,28.32989,28.77074,29.00952,28.85741,28.40068,27.95184,27.82626,28.09289,28.48396,28.55279,27.99628,26.9275,25.8926,25.58444,26.41308,28.20993,30.27585,31.76614,32.17716,31.61896,30.69036,30.03946,29.91384,30.02188,29.81661,29.00754,27.91863,27.3818,28.15982,30.23535,32.45074,32.81612,29.40682,21.38888,9.590652,-3.729833,-15.82127,-24.58206,-29.31164,-30.72126,-30.29246,-29.42243,-28.8537,-28.64091,-28.54002,-28.46118,-28.64947,-29.50476,-31.23178,-33.62453,-36.16799,-38.38436,-40.15681,-41.77311,-43.6392,-45.86579,-48.04395,-49.40985,-49.32905,-47.79315,-45.58374,-43.95517,-43.99289,-46.0191,-49.39936,-52.86593,-55.16806,-55.67739,-54.62579,-52.88554,-51.46506,-51.02431,-51.65227,-52.95915,-54.35542,-55.32576,-55.57428,-55.03939,-53.85392,-52.31262,-50.83909,-49.89725,-49.82096,-50.62151,-51.89947,-52.96389,-53.14335,-52.13518,-50.18452,-47.96767,-46.23175,-45.40085,-45.38614,-45.70967,-45.85061,-45.58257,-45.08697,-44.78598,-45.02874,-45.85413,-46.98406,-48.02971,-48.74446,-49.13968,-49.39747,-49.67513,-49.97342,-50.17781,-50.22971,-50.26698,-50.58837,-51.43935,-52.77673,-54.21405,-55.22941,-55.51234,-55.19436,-54.765,-54.70124,-55.07294,-55.4463,-55.21699,-54.17815,-52.89761,-52.53692,-54.09528,-57.49055,-61.0989,-62.18231,-58.11864,-47.81974,-32.5281,-15.47706,-0.5303312,9.493386,13.92093,14.19928,12.84573,12.03887,12.65594,14.21593,15.60304,15.99887,15.41003,14.52606,14.1169,14.45736,15.18318,15.63387,15.38514,14.5648,13.73575,13.46039,13.88607,14.65608,15.19556,15.14457,14.61306,14.07873,14.02027,14.57173,15.45801,16.25215,16.7482,17.1543,17.94288,19.45339,21.5358,23.51051,24.5062,23.97315,22.0394,19.47258,17.26493,16.09936,16.02192,16.5016,16.80846,16.45261,15.41737,14.07886,12.91189,12.19846,11.91545,11.83161,11.70269,11.41463,10.99696,10.54254,10.13209,9.832108,9.747308,10.04452,10.88168,12.26257,13.92405,15.37042,16.08155,15.79213,14.66514,13.22671,12.0737,11.51901,11.39674,11.16308,10.24836,8.452537,6.138792,4.094546,3.12801,3.629263,5.34791,7.513018,9.222871,9.88297,9.455849,8.407084,7.409179,6.99041,7.321939,8.230625,9.383074,10.49668,11.44509,12.219,12.80934,13.1279,13.04163,12.50348,11.6807,10.96981,10.85538,11.67432,13.41978,15.70845,17.94506,19.60039,20.44833,20.62809,20.50012,20.3873,20.36189,20.20998,19.59592,18.32488,16.53835,14.71416,13.45744,13.19403,13.93777,15.26402,16.50683,17.07511,16.72243,15.63634,14.314,13.30118,12.93204,13.19291,13.76008,14.1757,14.06813,13.31671,12.09544,10.78591,9.801204,9.395144,9.538128,9.918385,10.07935,9.642039,8.511546,6.958621,5.516875,4.729081,4.865745,5.77113,6.935081,7.766007,7.91814,7.482222,6.918917,6.765214,7.286987,8.293838,9.240917,9.56676,9.063482,8.045007,7.195774,7.177933,8.229071,9.99512,11.70535,12.5901,12.29767,11.0706,9.591427,8.604787,8.545796,9.380126,10.71475,12.06972,13.11951,13.76318,14.02064,13.87757,13.22676,11.96688,10.18558,8.272883,6.842768,6.468497,7.373302,9.267903,11.45127,13.13568,13.82018,13.50625,12.64413,11.85767,11.61796,12.04892,12.9506,13.98715,14.89746,15.59801,16.14085,16.59285,16.94449,17.11422,17.0284,16.69515,16.20087,15.63022,14.98423,14.18496,13.19036,12.14478,11.43518,11.56313,12.86448,15.23264,18.03731,20.33804,21.31596,20.6973,18.9188,16.91789,15.64512,15.56532,16.42951,17.44717,17.75734,16.9257,15.18514,13.29306,12.10239,12.10161,13.18213,14.74571,16.06603,16.68288,16.60901,16.25331,16.12927,16.52868,17.34351,18.12473,18.33645,17.66576,16.22665,14.55212,13.37053,13.26559,14.38088,16.32127,18.32169,19.62452,19.8866,19.39243,18.92172,19.29363,20.80322,22.86794,24.13134,23.04261,18.65444,11.22083,2.24095,-6.126832,-12.01092,-14.64736,-14.64181,-13.538,-12.93946,-13.67336,-15.4473,-17.15612,-17.62285,-16.32502,-13.69523,-10.85649,-8.986665,-8.702058,-9.804319,-11.4943,-12.88056,-13.46322,-13.32823,-12.98697,-13.0062,-13.66999,-14.85849,-16.17391,-17.19938,-17.72163,-17.80112,-17.68065,-17.61466,-17.72703,-17.96741,-18.17019,-18.16941,-17.9072,-17.48908,-17.16736,-17.25897,-18.02346,-19.54088,-21.63728,-23.89995,-25.79691,-26.8712,-26.9361,-26.17997,-25.1158,-24.37615,-24.43139,-25.3576,-26.77206,-27.98326,-28.30107,-27.36789,-25.35038,-22.89136,-20.83721,-19.87213,-20.24108,-21.69769,-23.69011,-25.66539,-27.31089,-28.60028,-29.64495,-30.48322,-30.98033,-30.92576,-30.25655,-29.218,-28.2922,-27.88684,-27.97825,-27.99295,-27.09837,-24.80025,-21.48358,-18.48169,-17.4927,-19.57327,-24.27207,-29.48074,-32.2218,-30.04596,-22.30719,-10.59233,1.97108,12.17137,18.13894,19.97886,19.32971,18.2021,17.84009,18.26142,18.6463,18.19119,16.78669,15.06838,13.87183,13.55105,13.69617,13.46985,12.30842,10.44823,8.848935,8.51851,9.693308,11.46814,12.1946,10.45069,5.980813,-0.008015012,-5.413674,-8.345266,-8.104797,-5.466338,-2.120509,0.3369898,1.244619,1.067098,0.8993508,1.661072,3.50618,5.777722,7.465141,7.821789,6.754492,4.795791,2.750275,1.277405,0.6476976,0.7447952,1.224188,1.687767,1.797654,1.345891,0.3279452,-0.9847836,-2.04943,-2.213046,-1.016023,1.507426,4.733512,7.67271,9.434568,9.680228,8.785691,7.59975,6.933493,7.094454,7.755702,8.233706,7.981358,6.961957,5.654091,4.690156,4.382429,4.469503,4.267961,3.139527,0.9671595,-1.678849,-3.80439,-4.52627,-3.54752,-1.28677,1.398481,3.699014,5.2381,6.129511,6.715771,7.202945,7.461557,7.130483,5.940334,4.015997,1.930233,0.4487186,0.1164736,0.9447685,2.396685,3.680415,4.168954,3.694436,2.556463,1.269835,0.2346978,-0.4585774,-0.9872153,-1.581403,-2.312627,-3.041824,-3.556266,-3.77955,-3.881439,-4.184688,-4.916151,-5.974242,-6.89339,-7.066134,-6.11001,-4.155667,-1.86308,-0.1320217,0.3372236,-0.6213985,-2.604366,-4.914884,-6.971705,-8.593552,-9.987747,-11.46658,-13.09349,-14.50859,-15.06777,-14.22512,-11.92495,-8.752572,-5.732999,-3.876905,-3.723234,-5.126797,-7.392165,-9.65573,-11.28775,-12.09836,-12.26877,-12.09793,-11.75285,-11.18249,-10.23153,-8.854192,-7.266745,-5.922487,-5.310165,-5.689966,-6.922035,-8.490878,-9.719272,-10.06337,-9.34128,-7.787964,-5.921821,-4.301648,-3.298414,-2.986277,-3.186624,-3.617775,-4.054166,-4.405575,-4.683975,-4.897574,-4.957798,-4.675251,-3.860927,-2.473537,-0.7126832,1.019303,2.285238,2.822111,2.665325,2.105117,1.49463,1.027427,0.6299142,0.04550117,-0.9384813,-2.272855,-3.595681,-4.40498,-4.361421,-3.527839,-2.374749,-1.521443,-1.355443,-1.767222,-2.183624,-1.906959,-0.5727065,1.549685,3.610379,4.581262,3.793046,1.307822,-2.082844,-5.232244,-7.174913,-7.533014,-6.588656,-5.018596,-3.476931,-2.279294,-1.355435,-0.4579059,0.5429234,1.4886,2.002875,1.752991,0.7223897,-0.696575,-1.869642,-2.260994,-1.744835,-0.6934267,0.2244043,0.4264219,-0.239458,-1.395659,-2.343387,-2.46142,-1.563356,-0.004256819,1.524184,2.386007,2.346578,1.669309,0.9159721,0.5847815,0.8161472,1.345933,1.723198,1.638096,1.137313,0.5832998,0.3881515,0.707481,1.30968,1.719272,1.545118,0.7719062,-0.1913571,-0.7542915,-0.5300041,0.3918445,1.473328,2.051778,1.753265,0.7228863,-0.4867963,-1.302151,-1.534139,-1.525388,-1.925427,-3.228535,-5.376039,-7.697205,-9.252465,-9.382407,-8.125772,-6.242675,-4.821369,-4.703245,-6.067811,-8.410862,-10.89898,-12.85556,-14.07277,-14.78097,-15.3433,-15.91722,-16.3245,-16.2058,-15.32673,-13.79753,-12.03666,-10.50067,-9.376628,-8.467249,-7.364204,-5.797535,-3.914026,-2.273683,-1.540677,-2.057501,-3.582431,-5.374713,-6.589563,-6.742997,-5.959161,-4.851674,-4.123642,-4.144834,-4.767915,-5.480877,-5.774027,-5.470389,-4.809069,-4.245473,-4.119392,-4.417987,-4.783496,-4.746221,-4.019908,-2.670928,-1.070965,0.3117021,1.135287,1.290799,0.8587461,-0.01396262,-1.211995,-2.665507,-4.300816,-5.995869,-7.589969,-8.936889,-9.94556,-10.56447,-10.7251,-10.31172,-9.217986,-7.478769,-5.382565,-3.448246,-2.223665,-1.993872,-2.580353,-3.390322,-3.731021,-3.224899,-2.069494,-0.957536,-0.6764416,-1.616263,-3.490746,-5.457268,-6.577006,-6.340984,-4.943438,-3.142205,-1.805859,-1.438603,-1.972812,-2.929763,-3.802718,-4.380258,-4.791966,-5.273612,-5.860524,-6.272977,-6.113163,-5.248561,-4.08634,-3.479655,-4.24102,-6.523509,-9.471772,-11.43145,-10.68771,-6.370389,0.9759562,9.505422,16.84873,21.16707,21.93737,20.07312,17.35114,15.48386,15.34264,16.71445,18.64968,20.12973,20.63628,20.31268,19.68541,19.18645,18.81975,18.19713,16.91182,14.98924,13.09328,12.3129,13.6154,17.27121,22.59406,28.17425,32.50478,34.6745,34.75999,33.71558,32.83836,33.11241,34.78344,37.36177,39.9977,41.97302,43.02111,43.32929,43.28968,43.20741,43.16281,43.0822,42.90939,42.70743,42.59613,42.58346,42.45463,41.85447,40.54917,38.69295,36.88152,35.89681,36.2636,37.89615,40.08783,41.88796,42.64925,42.39745,41.7744,41.58245,42.22908,43.4464,44.48032,44.62463,43.73379,42.35758,41.39893,41.52857,42.76217,44.49198,45.94251,46.71452,47.01815,47.42423,48.32627,49.53638,50.35775,50.1242,48.81941,47.26953,46.6571,47.58587,49.30608,49.70447,46.23056,37.32599,23.53687,7.596184,-6.669453,-16.06247,-19.43078,-18.00622,-14.51544,-11.61598,-10.56815,-10.86076,-10.90591,-9.285654,-5.754771,-1.420556,1.935314,2.911904,1.261314,-2.048267,-5.442821,-7.603033,-8.063064,-7.259781,-6.102783,-5.393857,-5.444345,-6.05256,-6.762656,-7.188268,-7.208014,-6.969766,-6.765688,-6.88305,-7.498117,-8.622033,-10.08502,-11.56444,-12.68182,-13.17017,-13.04966,-12.69788,-12.72432,-13.66496,-15.64497,-18.21676,-20.50791,-21.63561,-21.17026,-19.37971,-17.10311,-15.3225,-14.68195,-15.22863,-16.50151,-17.87236,-18.89755,-19.4646,-19.68577,-19.67818,-19.43643,-18.9062,-18.18182,-17.62559,-17.74612,-18.85997,-20.75888,-22.65679,-23.53471,-22.72768,-20.39561,-17.5447,-15.5285,-15.29599,-16.8427,-19.21834,-21.10275,-21.59749,-20.73652,-19.39846,-18.69124,-19.22191,-20.72989,-22.30834,-23.03957,-22.59862,-21.41962,-20.33746,-19.98671,-20.398,-21.07073,-21.43955,-21.35738,-21.20815,-21.54975,-22.5615,-23.74848,-24.18958,-23.21048,-21.00859,-18.72798,-17.83139,-19.12142,-22.06785,-24.96404,-25.91574,-24.09236,-20.43584,-17.31016,-17.22522,-21.3689,-28.83522,-37.03135,-43.03176,-45.07747,-43.35174,-39.63319,-36.11997,-34.19031,-33.83093,-33.97974,-33.43625,-31.68099,-29.09252,-26.51676,-24.58755,-23.31941,-22.23793,-20.89118,-19.30981,-18.04518,-17.75071,-18.62578,-20.15148,-21.33852,-21.33505,-19.97832,-17.90768,-16.15926,-15.51824,-16.06182,-17.18134,-18.03666,-18.10858,-17.47319,-16.64147,-16.12028,-16.03341,-16.07165,-15.78373,-14.96981,-13.87492,-13.03969,-12.92239,-13.5708,-14.57848,-15.34913,-15.47443,-14.96273,-14.17854,-13.5659,-13.37118,-13.55391,-13.9105,-14.27055,-14.58725,-14.85629,-14.96295,-14.6339,-13.58901,-11.80786,-9.694189,-7.956435,-7.220276,-7.608453,-8.593266,-9.27224,-8.927843,-7.509955,-5.696444,-4.454707,-4.37425,-5.224885,-6.072331,-5.916329,-4.446458,-2.395067,-1.202279,-2.153789,-5.517236,-10.23757,-14.41984,-16.33573,-15.35527,-12.24587,-8.672107,-6.219298,-5.540314,-6.119373,-6.741017,-6.316698,-4.53264,-1.943227,0.4825886,2.011513,2.555548,2.60705,2.798614,3.421444,4.226254,4.609614,4.02427,2.325539,-0.1554513,-2.815223,-5.085149,-6.63777,-7.400237,-7.4362,-6.83297,-5.683914,-4.143846,-2.459882,-0.9065664,0.3453688,1.314232,2.149382,2.944625,3.55899,3.607269,2.67537,0.6433773,-2.109633,-4.795468,-6.58807,-7.059617,-6.396598,-5.240585,-4.246533,-3.65037,-3.14136,-2.132856,-0.2491789,2.310077,4.792194,6.301786,6.333168,5.069533,3.250698,1.705096,0.8686101,0.6123192,0.474487,0.1003309,-0.4536812,-0.7886853,-0.5582836,0.1160571,0.5541845,-0.1225537,-2.384189,-5.849598,-9.347539,-11.50122,-11.50118,-9.582934,-6.895784,-4.832094,-4.232728,-4.961839,-6.10186,-6.616896,-6.038075,-4.728858,-3.582186,-3.380938,-4.263515,-5.643569,-6.611296,-6.520444,-5.358941,-3.674572,-2.147722,-1.141217,-0.5494458,-0.03005991,0.5890495,1.065216,0.8718457,-0.3712824,-2.487369,-4.687493,-5.976331,-5.799541,-4.519469,-3.380613,-3.928519,-7.181629,-13.01073,-20.06224,-26.25406,-29.57344,-28.78978,-23.80263,-15.5731,-5.774222,3.656642,10.95152,14.90445,15.20121,12.59351,8.770877,5.847686,5.576049,8.606811,14.18726,20.51293,25.60672,28.28274,28.67393,28.03636,27.95992,29.46019,32.48022,36.05985,39.0102,40.63448,41.04854,40.95196,41.07092,41.68592,42.55246,43.21431,43.42614,43.34718,43.36717,43.72228,44.22499,44.3437,43.59327,41.94555,39.93579,38.35712,37.74572,38.02982,38.61109,38.83405,38.50478,38.06654,38.27777,39.60581,41.778,43.84582,44.76357,44.10642,42.42655,40.97246,40.92848,42.66814,45.51682,48.1779,49.52806,49.24485,47.86451,46.28041,45.08499,44.24843,43.34997,42.14162,40.95537,40.5759,41.61974,43.88285,46.21279,47.12621,45.83953,43.00467,40.54072,40.50919,43.64651,48.4897,51.7565,49.90575,41.05771,26.17819,8.817324,-6.481401,-16.22806,-19.38458,-17.4308,-13.20753,-9.313301,-6.983333,-5.970944,-5.285507,-4.156892,-2.570431,-1.110432,-0.3548922,-0.3366507,-0.4713468,0.02584884,1.567552,3.885679,6.19168,7.669208,7.945215,7.232622,6.091967,5.024339,4.19514,3.454498,2.582907,1.534106,0.4794305,-0.3607166,-0.9333237,-1.41624,-2.060174,-2.933741,-3.793115,-4.216392,-3.937039,-3.136488,-2.45172,-2.63824,-4.07884,-6.464781,-8.890078,-10.33721,-10.26597,-8.931228,-7.216559,-6.080462,-5.966503,-6.557694,-7.034753,-6.669755,-5.365464,-3.782,-2.957403,-3.65586,-5.855533,-8.703543,-10.9737,-11.75082,-10.92946,-9.236094,-7.779037,-7.411715,-8.289614,-9.861942,-11.26381,-11.84138,-11.48962,-10.62813,-9.876784,-9.666132,-10.02554,-10.64854,-11.14658,-11.29682,-11.12473,-10.79902,-10.45155,-10.07303,-9.561228,-8.871501,-8.138167,-7.656492,-7.721401,-8.430448,-9.592723,-10.81699,-11.7295,-12.1826,-12.32127,-12.47208,-12.93695,-13.83093,-15.06079,-16.43475,-17.80184,-19.10888,-20.33895,-21.39684,-22.05582,-22.03555,-21.17527,-19.57956,-17.61589,-15.74046,-14.2542,-13.15319,-12.18445,-11.08014,-9.814775,-8.703407,-8.25928,-8.891335,-10.63485,-13.09208,-15.62312,-17.6626,-18.95974,-19.59955,-19.81886,-19.77054,-19.41467,-18.61012,-17.32305,-15.77598,-14.40179,-13.61285,-13.54071,-13.93732,-14.3248,-14.30768,-13.84148,-13.27332,-13.11993,-13.72612,-15.02684,-16.56577,-17.75143,-18.17858,-17.81058,-16.925,-15.88773,-14.92669,-14.05443,-13.16652,-12.21298,-11.29937,-10.64245,-10.42483,-10.66823,-11.22196,-11.86557,-12.4342,-12.86484,-13.13712,-13.17958,-12.84684,-12.01317,-10.71793,-9.232332,-7.957362,-7.191064,-6.924209,-6.834395,-6.52399,-5.864014,-5.199065,-5.229154,-6.591632,-9.38534,-12.95511,-16.11791,-17.73895,-17.3315,-15.31864,-12.79104,-10.90203,-10.26214,-10.68781,-11.42897,-11.70119,-11.17124,-10.10055,-9.089802,-8.626468,-8.74646,-9.020843,-8.849574,-7.846525,-6.060901,-3.911565,-1.910038,-0.3758565,0.6733258,1.415615,2.013218,2.463689,2.615894,2.321785,1.597965,0.6738197,-0.1066523,-0.455644,-0.2668094,0.3811487,1.327311,2.452683,3.737916,5.226448,6.935433,8.787358,10.60882,12.1884,13.3477,13.98394,14.07785,13.68987,12.96486,12.13471,11.48331,11.25055,11.50189,12.04145,12.45133,12.2799,11.30373,9.71799,8.122654,7.274555,7.713024,9.456243,11.94456,14.27985,15.64582,15.68867,14.65512,13.21689,12.08439,11.62706,11.70964,11.82742,11.45255,10.38418,8.895663,7.590706,7.050017,7.473976,8.533467,9.524714,9.749251,8.906777,7.275327,5.570937,4.56229,4.658334,5.703094,7.090487,8.123615,8.401916,8.010505,7.413889,7.138345,7.448782,8.21183,9.003228,9.358618,8.990576,7.847476,6.024741,3.650225,0.8673213,-2.068453,-4.692642,-6.386781,-6.638277,-5.38339,-3.193854,-1.115219,-0.1735481,-0.8059619,-2.56867,-4.341204,-4.944618,-3.815481,-1.319516,1.49646,3.557612,4.398182,4.373624,4.325919,4.950491,6.311701,7.841017,8.803879,8.883566,8.444633,8.272232,8.972904,10.48647,12.09643,12.96824,12.83924,12.32861,12.56387,14.29679,17.08314,19.13581,18.0745,12.21967,1.68763,-11.39573,-23.75141,-32.43579,-36.151,-35.67644,-33.23626,-31.21735,-30.97765,-32.36456,-34.10592,-34.74008,-33.50524,-30.71893,-27.52844,-25.2655,-24.79748,-26.18712,-28.75434,-31.42996,-33.20097,-33.47256,-32.24923,-30.10786,-27.98211,-26.81924,-27.21919,-29.19663,-32.18049,-35.26645,-37.60875,-38.75753,-38.77693,-38.10815,-37.28763,-36.69738,-36.47123,-36.55501,-36.81913,-37.12116,-37.30248,-37.19098,-36.68512,-35.90121,-35.25768,-35.35645,-36.64679,-39.0454,-41.78966,-43.70793,-43.82891,-41.99037,-39.04324,-36.46116,-35.54181,-36.67618,-39.15239,-41.63273,-43.00317,-43.04185,-42.46993,-42.36606,-43.36072,-45.17427,-46.81542,-47.28605,-46.27874,-44.3644,-42.54576,-41.52266,-41.23201,-41.01875,-40.30592,-39.22226,-38.63161,-39.43081,-41.55611,-43.44357,-42.47239,-36.2892,-24.27655,-8.238276,8.211071,21.28419,28.77313,30.91783,29.93424,28.56138,28.55453,30.01243,31.83003,32.82856,32.72159,32.27118,32.60537,34.26479,36.71193,38.67429,39.07411,37.86515,36.15313,35.47681,36.71929,39.39158,41.79642,42.00061,39.01077,33.41537,27.10232,22.24712,20.20455,20.95342,23.35603,25.97542,27.88674,28.99817,29.77459,30.65635,31.62395,32.19798,31.82539,30.33469,28.12054,25.93386,24.43837,23.84514,23.86247,23.96755,23.79066,23.34666,22.97595,23.06491,23.75495,24.83505,25.87044,26.46056,26.45121,25.98133,25.36814,24.93236,24.87539,25.25447,26.02204,27.06548,28.21541,29.24582,29.91289,30.047,29.65375,28.94706,28.26729,27.91393,27.98989,28.35881,28.74718,28.92724,28.86038,28.70844,28.71191,29.02571,29.62848,30.36272,31.0645,31.67544,32.24709,32.83528,33.37455,33.64824,33.40377,32.55023,31.29709,30.11371,29.50193,29.70656,30.54874,31.50505,32.00579,31.78242,31.05314,30.42708,30.57712,31.87139,34.17667,36.9392,39.48175,41.33394,42.41021,42.95754,43.33887,43.80341,44.37737,44.91037,45.21164,45.17031,44.79397,44.1746,43.43933,42.73079,42.20839,42.02195,42.22641,42.67163,42.96078,42.56189,41.06651,38.47064,35.29441,32.4193,30.68493,30.45293,31.39799,32.67365,33.37858,33.05462,31.91128,30.62877,29.85218,29.68985,29.53851,28.36293,25.27937,20.10363,13.54454,6.935938,1.668674,-1.359685,-2.003195,-0.7598804,1.560853,4.162102,6.415007,7.852458,8.133034,7.099812,4.932248,2.251239,0.008491644,-0.8880427,-0.06301725,2.006266,4.081168,4.693441,2.881322,-1.256844,-6.510073,-11.06253,-13.31635,-12.6113,-9.480547,-5.334685,-1.766849,0.1472978,0.2112303,-1.002819,-2.610167,-3.925031,-4.746479,-5.299968,-5.923947,-6.726729,-7.434104,-7.518,-6.523438,-4.394412,-1.600721,1.018517,2.62001,2.739435,1.491432,-0.5156257,-2.499699,-3.887024,-4.556759,-4.830823,-5.23304,-6.163424,-7.668851,-9.426069,-10.9292,-11.76486,-11.82226,-11.33553,-10.75357,-10.5196,-10.87419,-11.76677,-12.89801,-13.8591,-14.30437,-14.09321,-13.35237,-12.43365,-11.77391,-11.70518,-12.29736,-13.32067,-14.36739,-15.08514,-15.39284,-15.53606,-15.91983,-16.79903,-18.02154,-19.0195,-19.10577,-17.92917,-15.80536,-13.67658,-12.66427,-13.44356,-15.8141,-18.75635,-20.97925,-21.65372,-20.8905,-19.65938,-19.18708,-20.1986,-22.47169,-24.98059,-26.53496,-26.50956,-25.20967,-23.65723,-22.95324,-23.63136,-25.40104,-27.4083,-28.80543,-29.24084,-28.96683,-28.54086,-28.36813,-28.41552,-28.27888,-27.52381,-26.03553,-24.12788,-22.35142,-21.15783,-20.66555,-20.67545,-20.88879,-21.13573,-21.43634,-21.86858,-22.3834,-22.75252,-22.72176,-22.26046,-21.69258,-21.55988,-22.26553,-23.73236,-25.33649,-26.20872,-25.74009,-23.96722,-21.57105,-19.47301,-18.28652,-17.9881,-18.02703,-17.7918,-17.09973,-16.35475,-16.24767,-17.19988,-18.94657,-20.57761,-21.04784,-19.83966,-17.3377,-14.64954,-12.96648,-12.86491,-13.99274,-15.33553,-15.87847,-15.2272,-13.79004,-12.42652,-11.82447,-12.03899,-12.49973,-12.46037,-11.55913,-10.08959,-8.792371,-8.318871,-8.749564,-9.510644,-9.752396,-8.927701,-7.168261,-5.19743,-3.843795,-3.499215,-3.901799,-4.390282,-4.435865,-4.053376,-3.775266,-4.189452,-5.373444,-6.66388,-6.992072,-5.622903,-2.822325,0.02775178,1.025007,-1.243634,-6.863277,-14.43604,-21.72428,-26.73162,-28.60812,-27.89084,-26.00562,-24.39079,-23.78744,-24.07531,-24.65114,-25.0084,-25.10025,-25.27539,-25.90254,-27.00878,-28.21361,-28.99535,-29.07028,-28.58697,-27.9883,-27.65218,-27.59264,-27.45731,-26.83139,-25.62066,-24.21686,-23.3018,-23.41309,-24.57635,-26.27184,-27.76789,-28.58995,-28.7941,-28.85406,-29.25112,-30.07418,-30.93057,-31.23841,-30.68372,-29.49213,-28.29097,-27.63878,-27.55963,-27.44408,-26.4353,-24.0702,-20.73805,-17.60926,-16.02776,-16.72619,-19.36252,-22.68676,-25.24688,-26.19742,-25.71148,-24.75836,-24.41728,-25.18367,-26.7046,-28.07957,-28.49166,-27.73941,-26.33796,-25.16546,-24.92749,-25.80117,-27.45915,-29.39326,-31.26284,-33.01349,-34.71663,-36.30684,-37.47224,-37.82627,-37.25544,-36.17135,-35.42614,-35.86627,-37.75731,-40.4345,-42.4331,-42.08405,-38.28988,-31.08456,-21.69333,-12.06872,-4.138122,0.8831826,2.825433,2.449604,0.9976324,-0.3567019,-0.9203993,-0.6188605,0.1464928,0.8136663,0.9887942,0.6429116,0.1032434,-0.1365437,0.3219759,1.587683,3.450595,5.519693,7.434173,9.017164,10.28725,11.34478,12.2364,12.91136,13.30558,13.48045,13.68625,14.2649,15.43004,17.07436,18.76523,19.97588,20.43057,20.33749,20.32871,21.1071,23.00179,25.71564,28.44432,30.31377,30.87267,30.33176,29.39923,28.82158,28.92985,29.48541,29.91817,29.78826,29.15348,28.58875,28.83636,30.31225,32.79127,35.48125,37.44808,38.13362,37.65413,36.7071,36.15437,36.53654,37.79959,39.37342,40.53118,40.80531,40.22304,39.24448,38.45943,38.22616,38.4541,38.64511,38.16772,36.61953,34.08801,31.16966,28.7262,27.49054,27.71938,29.07687,30.82088,32.20197,32.86015,32.99384,33.19699,34.05401,35.73283,37.82749,39.55557,40.19599,39.4998,37.82096,35.89268,34.40261,33.64446,33.46051,33.48147,33.46294,33.45853,33.7015,34.29588,34.9752,35.15256,34.27411,32.25018,29.64875,27.47333,26.6255,27.38036,29.21537,31.1115,32.13834,31.95212,30.90498,29.73473,29.08387,29.18739,29.91108,31.03943,32.51967,34.41638,36.5877,38.36403,38.57564,36.06134,30.4284,22.5834,14.61403,8.969305,7.332616,9.81422,14.93555,20.42148,24.34245,25.95776,25.82063,25.17313,25.07703,25.83528,27.00903,27.91747,28.20836,28.09467,28.13465,28.76949,29.98707,31.35429,32.36688,32.82705,32.9509,33.12626,33.51849,33.84686,33.53273,32.14044,29.79983,27.28664,25.66208,25.67857,27.33175,29.85419,32.16045,33.45882,33.6427,33.22887,32.91379,33.06466,33.48829,33.61778,32.96919,31.54224,29.88576,28.77999,28.744,29.68949,30.94361,31.62709,31.15627,29.57194,27.51524,25.8835,25.3736,26.1594,27.84876,29.70303,30.97653,31.20601,30.34057,28.69722,26.79804,25.16831,24.16152,23.85462,24.03793,24.3064,24.23039,23.54807,22.29683,20.81375,19.59026,19.04185,19.3056,20.17248,21.19309,21.90287,22.04738,21.68981,21.15002,20.81802,20.94993,21.55654,22.43442,23.3067,23.98158,24.4354,24.77826,25.13378,25.51508,25.78047,25.70266,25.11564,24.05205,22.78212,21.71603,21.20904,21.36974,21.97983,22.58075,22.69255,22.05468,20.75996,19.20775,17.90092,17.19905,17.16343,17.57409,18.09685,18.49077,18.72808,18.95904,19.3552,19.94065,20.52439,20.77828,20.41046,19.32599,17.68089,15.80747,14.06772,12.72354,11.88437,11.52974,11.55868,11.82009,12.11917,12.23398,11.97427,11.27067,10.23316,9.113547,8.163622,7.464902,6.851053,6.002297,4.676855,2.932046,1.165765,-0.0885224,-0.5079877,-0.2377907,0.1466258,-0.001263309,-0.9231708,-2.192303,-2.902748,-2.280742,-0.390165,1.51975,1.324367,-3.071767,-12.6641,-26.68118,-42.7089,-57.57972,-68.59383,-74.47451,-75.6277,-73.66649,-70.539,-67.7478,-66.00935,-65.38928,-65.67493,-66.67208,-68.25518,-70.22995,-72.21322,-73.701,-74.32272,-74.10748,-73.54887,-73.38088,-74.17719,-76.01789,-78.43519,-80.6756,-82.11672,-82.58655,-82.40554,-82.15252,-82.32011,-83.07137,-84.21941,-85.39952,-86.29575,-86.78165,-86.92111,-86.87582,-86.8081,-86.83662,-87.03889,-87.45742,-88.08243,-88.82896,-89.54932,-90.09711,-90.40586,-90.51556,-90.51229,-90.42121,-90.15061,-89.56404,-88.65809,-87.71416,-87.26817,-87.84531,-89.58509,-92.0069,-94.12959,-94.95109,-94.04018,-91.8679,-89.62244,-88.56183,-89.27029,-91.28302,-93.34094,-94.14262,-93.12898,-90.79657,-88.33086,-86.80112,-86.46176,-86.6469,-86.34695,-85.0742,-83.38879,-82.64595,-84.03771,-87.51046,-91.29706,-92.48003,-88.37929,-78.02097,-62.83876,-46.16854,-31.78161,-22.24715,-17.99314,-17.50858,-18.4675,-19.06078,-18.77805,-18.28375,-18.6047,-20.23066,-22.70963,-24.94344,-25.923,-25.38398,-23.95577,-22.7328,-22.57007,-23.56095,-25.01266,-25.90742,-25.53974,-23.9341,-21.80581,-20.11576,-19.50469,-19.94155,-20.77255,-21.11675,-20.36526,-18.50393,-16.09816,-13.97245,-12.77509,-12.66262,-13.25639,-13.87195,-13.88259,-13.02199,-11.4779,-9.749238,-8.363747,-7.618896,-7.480847,-7.676805,-7.902474,-8.006449,-8.039764,-8.153683,-8.429686,-8.768312,-8.919845,-8.639987,-7.864823,-6.782549,-5.746999,-5.084315,-4.916671,-5.115254,-5.407078,-5.557192,-5.501277,-5.344702,-5.242421,-5.258435,-5.313542,-5.259449,-5.018757,-4.677059,-4.4463,-4.51466,-4.888129,-5.344182,-5.544778,-5.242192,-4.439085,-3.386095,-2.406614,-1.657552,-0.9859859,0.01304365,1.758752,4.405015,7.688948,11.00441,13.66544,15.2163,15.62322,15.25573,14.68346,14.40768,14.66599,15.39368,16.33486,17.22402,17.93681,18.53929,19.22374,20.17469,21.43804,22.861,24.13695,24.93983,25.08903,24.66439,24.00775,23.59742,23.84569,24.91307,26.63105,28.57375,30.24341,31.27736,31.57628,31.29977,30.74669,30.19349,29.77373,29.44872,29.06595,28.4633,27.56778,26.45316,25.34287,24.5604,24.43815,25.20592,26.89516,29.30384,32.05349,34.72899,37.04036,38.91856,40.48181,41.88169,43.11823,43.94738,43.96014,42.81035,40.46777,37.34261,34.19156,31.84041,30.86659,31.40905,33.19664,35.75834,38.67826,41.74668,44.93622,48.24544,51.5299,54.43817,56.49887,57.31376,56.75674,55.0818,52.89271,50.98693,50.12909,50.82521,53.16564,56.78926,60.99166,64.95501,68.024,69.91879,70.7894,71.08463,71.30325,71.76035,72.49328,73.34574,74.15754,74.92157,75.79665,76.96827,78.46069,80.04531,81.32877,81.98068,81.95737,81.56866,81.32896,81.67051,82.68763,84.06606,85.24193,85.7021,85.26119,84.17183,83.02063,82.47102,82.97752,84.59309,86.94054,89.35355,91.13602,91.84832,91.50809,90.60591,89.89687,90.03327,91.20753,93.00938,94.61756,95.26507,94.73306,93.56879,92.85173,93.59813,96.13879,99.86063,103.5066,105.886,106.5695,106.1302,105.7601,106.4948,108.5422,111.1565,113.1513,113.7184,113.0133,112.109,112.3384,114.4464,118.1041,122.0929,125.0322,126.1741,125.7709,124.8254,124.4409,125.2253,127.1067,129.5941,132.2053,134.7123,137.0584,139.1016,140.4926,140.8713,140.2666,139.3546,139.2719,140.9968,144.6734,149.3717,153.5371,155.9083,156.3221,155.8416,156.0715,158.0791,161.6377,165.3167,167.3753,166.8521,164.0785,160.2198,156.1151,151.2006,143.3007,129.5369,107.8952,78.55553,44.22001,9.26977,-21.76438,-45.61776,-60.98929,-68.42207,-69.71587,-67.32317,-63.94272,-62.20037,-64.19337,-70.86367,-81.48443,-93.68746,-104.2495,-110.3913,-110.9515,-106.7848,-100.1604,-93.53631,-88.45108,-85.16093,-83.11938,-81.83105,-81.40012,-82.38064,-85.10171,-89.06311,-92.96321,-95.4455,-96.08319,-95.88222,-96.8656,-100.9217,-108.6234,-118.7791,-129.0147,-137.0163,-141.6529,-143.3097,-143.3156,-142.9406,-142.6704,-142.2017,-141.0462,-139.2112,-137.4156,-136.6881,-137.6767,-140.2044,-143.4043,-146.3129,-148.4604,-150.0151,-151.4025,-152.7439,-153.6033,-153.2913,-151.5141,-148.8463,-146.5898,-146.0234,-147.5305,-150.2398,-152.5026,-152.9424,-151.383,-148.9996,-147.5479,-148.1681,-150.5804,-153.2401,-154.3724,-153.1854,-150.4224,-147.8495,-147.0155,-148.1373,-149.9022,-150.362,-148.3353,-144.3606,-140.5133,-139.1523,-141.3896,-146.2832,-151.3084,-153.8288,-152.6485,-148.6691,-144.2595,-141.7651,-142.1126,-144.3663,-146.4537,-146.5295,-144.0815,-140.1085,-136.345,-134.1152,-133.588,-133.87,-133.7795,-132.7053,-130.9536,-129.3915,-128.7071,-128.8546,-129.0864,-128.5293,-126.8598,-124.5711,-122.6273,-121.7507,-121.8632,-122.1006,-121.4116,-119.3278,-116.3478,-113.6189,-112.0819,-111.6279,-110.8543,-107.6551,-100.3558,-88.75152,-74.42908,-60.16011,-48.67411,-41.4621,-38.22167,-37.18425,-36.08964,-33.26689,-28.28956,-21.95608,-15.71273,-10.88405,-8.097388,-7.11802,-7.077388,-6.908856,-5.767238,-3.2776,0.4299431,4.853994,9.338041,13.28413,16.30246,18.26719,19.28383,19.60407,19.53828,19.40335,19.50832,20.14464,21.54125,23.77601,26.68695,29.85604,32.71493,34.74985,35.70831,35.68962,35.06068,34.24675,33.53186,33.00084,32.65578,32.60783,33.17379,34.7584,37.55456,41.24746,44.95163,47.4957,47.95503,46.15245,42.82705,39.33955,37.04681,36.67699,38.04208,40.22849,42.12899,42.99309,42.69078,41.58838,40.18524,38.79231,37.46721,36.21072,35.22824,35.00977,36.11841,38.80296,42.70235,46.87738,50.19963,51.88809,51.8723,50.75961,49.43157,48.5277,48.14165,47.90644,47.38638,46.49149,45.62301,45.4446,46.42981,48.48883,50.92843,52.78328,53.31969,52.40766,50.54849,48.56457,47.15977,46.6159,46.77762,47.28295,47.85082,48.43139,49.14705,50.10686,51.25618,52.37924,53.24821,53.80054,54.20765,54.77814,55.75713,57.15512,58.71726,60.04889,60.81319,60.87912,60.34146,59.42353,58.34327,57.23283,56.15027,55.15298,54.36136,53.95414,54.08683,54.77882,55.83976,56.88981,57.48422,57.30074,56.31154,54.85318,53.53701,53.00623,53.62457,55.24117,57.17337,58.46426,58.32927,56.57843,53.77283,50.98791,49.2703,49.07239,49.99886,51.04642,51.23119,50.24254,48.71007,47.8745,48.81386,51.67408,55.39365,58.14684,58.30423,55.37839,50.3989,45.47106,42.74036,43.3285,46.81961,51.55247,55.51361,57.30782,56.68484,54.40515,51.62547,49.23191,47.50838,46.25848,45.19508,44.27185,43.72599,43.84031,44.63876,45.76184,46.62261,46.73446,45.9827,44.65982,43.25425,42.14789,41.4233,40.88649,40.25454,39.35558,38.20796,36.95811,35.76646,34.75367,34.04199,33.82121,34.32677,35.68463,37.70434,39.78926,41.09599,40.92269,39.13132,36.3399,33.72048,32.46071,33.15755,35.47517,38.26756,40.11249,39.97803,37.67691,33.89235,29.79866,26.50719,24.63089,24.15753,24.63082,25.47934,26.28994,26.90081,27.32274,27.59677,27.70889,27.61394,27.32901,27.00333,26.88887,27.20779,27.99044,28.99062,29.75051,29.80416,28.9217,27.25885,25.31392,23.6947,22.8077,22.63931,22.76144,22.57503,21.66449,20.06034,18.24796,16.90474,16.51374,17.08555,18.16164,19.10052,19.46729,19.27739,18.93717,18.92345,19.42035,20.1643,20.60954,20.30657,19.23557,17.86091,16.86044,16.70517,17.36833,18.3528,19.00664,18.90214,18.02339,16.65953,15.1212,13.52099,11.79149,9.909398,8.11015,6.867254,6.593244,7.263094,8.272248,8.711286,7.94032,6.087858,4.090421,3.166884,4.018233,6.277523,8.621643,9.538503,8.290879,5.444712,2.579153,1.323259,2.324227,4.82507,7.147207,7.776977,6.341663,3.81726,1.8121,1.390571,2.224095,2.65916,0.6978225,-4.716039,-12.92285,-21.78555,-28.8007,-32.40172,-32.67577,-31.1089,-29.58861,-29.3245,-30.33489,-31.72929,-32.49486,-32.21481,-31.26625,-30.44682,-30.366,-31.05203,-32.01867,-32.68523,-32.80694,-32.60644,-32.54932,-32.97433,-33.87435,-34.9782,-36.03456,-37.04173,-38.22179,-39.75307,-41.48236,-42.87172,-43.26725,-42.32951,-40.32499,-38.05385,-36.43148,-35.98177,-36.56725,-37.5274,-38.12988,-38.03967,-37.51268,-37.2104,-37.77646,-39.45088,-41.94536,-44.61855,-46.80658,-48.10081,-48.44122,-48.03383,-47.1981,-46.24863,-45.4436,-44.96505,-44.89029,-45.16175,-45.60374,-46.01814,-46.32009,-46.6133,-47.11913,-47.9745,-49.03217,-49.83489,-49.84047,-48.79567,-47.01719,-45.35307,-44.78173,-45.85229,-48.30844,-51.16077,-53.20758,-53.71546,-52.84876,-51.57339,-51.0786,-52.06143,-54.30844,-56.82866,-58.45302,-58.53222,-57.31337,-55.77991,-55.06573,-55.79801,-57.74386,-59.93707,-61.18042,-60.6273,-58.14245,-54.30022,-50.08258,-46.46778,-44.10064,-43.14337,-43.30024,-43.95366,-44.35044,-43.80078,-41.86137,-38.46252,-33.93212,-28.89338,-24.06744,-20.061,-17.22598,-15.63212,-15.12682,-15.4179,-16.13194,-16.85422,-17.19477,-16.90845,-16.03064,-14.9304,-14.19278,-14.33634,-15.49861,-17.28622,-18.92264,-19.65316,-19.18794,-17.90421,-16.64924,-16.22684,-16.86529,-18.00605,-18.57772,-17.62275,-14.91158,-11.16175,-7.703471,-5.766671,-5.802162,-7.240059,-8.831632,-9.372218,-8.37663,-6.313249,-4.276011,-3.313656,-3.83339,-5.432818,-7.235219,-8.487457,-9.024288,-9.301629,-9.987465,-11.38925,-13.1078,-14.16891,-13.58233,-10.99945,-7.060766,-3.193351,-0.9389992,-1.173918,-3.653615,-7.138077,-10.02726,-11.15482,-10.31088,-8.231736,-6.102788,-4.887373,-4.86718,-5.627314,-6.441261,-6.779832,-6.618414,-6.369084,-6.514131,-7.206068,-8.110946,-8.604712,-8.197436,-6.907553,-5.334666,-4.365884,-4.680267,-6.34423,-8.740736,-10.87795,-11.90182,-11.52326,-10.12862,-8.530196,-7.515361,-7.452916,-8.162864,-9.094383,-9.686511,-9.701236,-9.355875,-9.20345,-9.841339,-11.60087,-14.36021,-17.55162,-20.34723,-21.94307,-21.8352,-19.99227,-16.86474,-13.22509,-9.893749,-7.454484,-6.075716,-5.515297,-5.303179,-5.007912,-4.447638,-3.737278,-3.157248,-2.93397,-3.072496,-3.345288,-3.438401,-3.154292,-2.534683,-1.822721,-1.292678,-1.06523,-1.034813,-0.9574136,-0.6346288,-0.06148265,0.5719225,1.0341,1.260004,1.466424,2.081379,3.51228,5.885509,8.917322,12.00443,14.49515,15.99662,16.55149,16.59,16.68575,17.24624,18.29935,19.48301,20.24058,20.12291,19.04759,17.38563,15.82496,15.06427,15.4752,16.89734,18.68102,19.98152,20.18068,19.23159,17.73851,16.70414,17.04642,19.1205,22.49682,26.12446,28.80756,29.75203,28.8992,26.87998,24.63266,22.90915,21.9423,21.43859,20.86339,19.82318,18.31271,16.69906,15.48271,15.00301,15.26631,15.97866,16.73263,17.21684,17.32978,17.16149,16.89281,16.69499,16.68141,16.90598,17.36932,18.00677,18.67239,19.15851,19.27204,18.93956,18.27324,17.53931,17.03093,16.91678,17.1631,17.58346,17.98327,18.29695,18.61627,19.08455,19.73067,20.36822,20.64743,20.24234,19.05577,17.30223,15.40423,13.76294,12.55294,11.67867,10.9214,10.17144,9.574715,9.474317,10.16653,11.62662,13.39763,14.74495,15.01229,13.97792,11.99395,9.812195,8.187044,7.483469,7.519904,7.736597,7.583632,6.888905,5.977721,5.468043,5.866789,7.219894,9.041721,10.58072,11.26801,11.07282,10.53306,10.42096,11.23053,12.79772,14.30236,14.68335,13.24813,10.12765,6.302028,3.163772,1.853843,2.740527,5.327635,8.625489,11.74818,14.37754,16.83159,19.72853,23.48612,27.98509,32.60258,36.57371,39.42936,41.2216,42.40272,43.46032,44.57016,45.50492,45.85242,45.38119,44.29037,43.16418,42.65484,43.10456,44.35711,45.88073,47.11635,47.81986,48.18072,48.65398,49.63184,51.17487,52.96757,54.50383,55.36123,55.38442,54.68392,53.49486,52.02906,50.43348,48.86342,47.57491,46.91861,47.19389,48.43995,50.3121,52.15791,53.2893,53.31787,52.36849,51.04449,50.1514,50.31459,51.67755,53.81971,55.92078,57.08655,56.69146,54.60211,51.20594,47.2479,43.5456,40.69398,38.87434,37.84472,37.11697,36.2408,35.05714,33.7876,32.90361,32.83611,33.68172,35.07479,36.31155,36.67504,35.79502,33.85367,31.52871,29.70341,29.088,29.92963,31.92924,34.37907,36.44313,37.46395,37.19091,35.86179,34.10735,32.68803,32.12491,32.35073,32.55009,31.32927,27.23265,19.43786,8.315236,-4.468494,-16.44216,-25.26121,-29.66398,-29.98026,-27.91711,-25.71298,-25.08631,-26.5151,-29.19914,-31.67881,-32.7297,-32.02582,-30.22976,-28.51932,-27.87955,-28.59234,-30.19504,-31.87244,-32.99137,-33.43493,-33.55906,-33.85372,-34.57021,-35.56816,-36.46125,-36.92881,-36.95562,-36.82738,-36.89029,-37.25188,-37.64112,-37.53721,-36.49406,-34.45537,-31.85825,-29.45541,-27.95843,-27.70777,-28.54928,-29.96672,-31.3714,-32.37512,-32.90624,-33.13997,-33.3245,-33.62917,-34.10059,-34.72414,-35.51503,-36.54998,-37.90211,-39.51899,-41.13454,-42.2967,-42.52727,-41.5484,-39.4596,-36.76213,-34.20015,-32.48238,-32.01354,-32.76308,-34.33027,-36.16226,-37.80493,-39.05473,-39.94372,-40.59009,-41.02454,-41.11154,-40.61878,-39.38965,-37.50501,-35.32491,-33.37568,-32.14201,-31.8785,-32.53503,-33.81536,-35.31055,-36.62207,-37.42414,-37.47888,-36.65562,-34.98816,-32.74381,-30.43234,-28.69258,-28.06883,-28.77444,-30.57559,-32.87471,-34.96166,-36.29986,-36.69634,-36.28146,-35.34454,-34.15267,-32.86831,-31.58991,-30.4412,-29.60367,-29.24624,-29.40485,-29.9236,-30.53242,-31.02853,-31.43093,-31.97342,-32.90681,-34.22869,-35.53823,-36.15619,-35.47987,-33.37241,-30.33443,-27.32217,-25.29115,-24.72097,-25.39512,-26.55726,-27.33787,-27.19214,-26.10322,-24.47024,-22.79807,-21.40866,-20.34199,-19.46196,-18.64127,-17.86957,-17.21551,-16.70287,-16.2292,-15.61478,-14.75612,-13.76367,-12.96217,-12.72741,-13.25314,-14.39814,-15.71397,-16.63704,-16.72754,-15.82309,-14.04782,-11.71737,-9.23051,-7.008318,-5.466758,-4.960628,-5.66161,-7.414919,-9.685678,-11.69129,-12.71031,-12.42845,-11.12268,-9.551717,-8.584553,-8.758491,-10.00824,-11.71239,-13.02076,-13.2708,-12.26722,-10.29947,-7.933228,-5.728634,-4.045606,-3.006822,-2.578359,-2.671374,-3.192668,-4.040064,-5.088069,-6.203238,-7.282094,-8.268146,-9.116353,-9.727609,-9.921793,-9.508108,-8.438824,-6.948256,-5.553508,-4.862236,-5.262368,-6.670799,-8.51386,-9.987106,-10.4689,-9.8531,-8.600303,-7.47071,-7.095335,-7.641551,-8.768679,-9.887068,-10.54621,-10.70385,-10.71218,-11.04242,-11.9337,-13.1937,-14.27611,-14.58429,-13.81472,-12.13874,-10.1264,-8.469759,-7.667694,-7.836455,-8.720366,-9.862281,-10.82142,-11.32975,-11.33693,-10.96178,-10.40405,-9.864573,-9.49455,-9.37022,-9.484318,-9.751244,-10.02883,-10.15523,-9.992515,-9.465794,-8.593038,-7.506408,-6.462113,-5.821241,-5.97563,-7.208301,-9.522624,-12.52268,-15.4408,-17.357,-17.55282,-15.84347,-12.70708,-9.112191,-6.102667,-4.343309,-3.86684,-4.157817,-4.516272,-4.479509,-4.049885,-3.603884,-3.563657,-4.06314,-4.835955,-5.394336,-5.364563,-4.735595,-3.841407,-3.090692,-2.644553,-2.286601,-1.594587,-0.2988749,1.436788,3.038496,3.86413,3.640474,2.680142,1.698022,1.326469,1.659641,2.166537,2.074492,0.9914367,-0.6615425,-1.74403,-1.014343,2.095955,7.05787,12.47818,16.87545,19.51779,20.78223,21.7982,23.60946,26.41615,29.41465,31.35787,31.47053,30.10111,28.65029,28.78557,31.42549,36.13789,41.33898,45.17189,46.5204,45.54673,43.46528,41.75102,41.31123,42.11759,43.45098,44.5038,44.89117,44.75193,44.45312,44.19521,43.85106,43.15374,42.05482,40.93308,40.44755,41.10754,42.86375,45.03135,46.63166,46.94478,45.9164,44.16186,42.5843,41.87237,42.19438,43.23764,44.49178,45.53157,46.11315,46.09114,45.32422,43.72833,41.47028,39.11601,37.52368,37.44724,39.06726,41.78842,44.50988,46.25454,46.75836,46.60191,46.75657,47.83516,49.57803,50.97451,50.97776,49.32281,46.83493,44.94163,44.67395,45.85847,47.13636,46.89826,44.54707,41.17607,39.05185,40.07378,44.14227,48.57271,49.1414,42.3433,27.607,8.10914,-10.42563,-22.38622,-24.96527,-19.39966,-10.10955,-2.282105,0.707541,-1.357608,-6.016317,-9.943539,-10.9069,-8.742451,-4.953999,-1.417548,0.855929,2.127992,3.387969,5.378823,7.940796,10.11666,10.88626,9.961503,8.061878,6.482459,6.266768,7.557726,9.557615,11.09999,11.42755,10.65319,9.619631,9.286958,10.08144,11.63798,13.08114,13.62428,13.06963,11.88475,10.83252,10.43094,10.6165,10.82843,10.43848,9.222586,7.554249,6.19363,5.814163,6.572732,7.990932,9.210742,9.457859,8.435063,6.433782,4.136539,2.259468,1.247212,1.160177,1.755229,2.654087,3.482462,3.932148,3.780389,2.926503,1.461713,-0.2813953,-1.779376,-2.498662,-2.139937,-0.8097044,0.9998116,2.633923,3.583778,3.699532,3.183299,2.378895,1.510021,0.5521073,-0.6728626,-2.251,-3.969411,-5.320481,-5.74821,-4.991723,-3.295611,-1.327627,0.1695799,0.7856952,0.6531865,0.3245403,0.3939333,1.106803,2.207852,3.119704,3.326596,2.706043,1.593019,0.5451873,-0.02316445,-0.09088255,-0.005561203,-0.2193993,-0.9788528,-2.179295,-3.466753,-4.489975,-5.107853,-5.405828,-5.530059,-5.489767,-5.101114,-4.131775,-2.542154,-0.6305926,1.0515,1.983043,1.970308,1.249378,0.3145162,-0.413782,-0.8506012,-1.255228,-1.985451,-3.182916,-4.628385,-5.883248,-6.619892,-6.894674,-7.146701,-7.899296,-9.363119,-11.22737,-12.80785,-13.47312,-13.06685,-12.03302,-11.14757,-11.03085,-11.77039,-12.91178,-13.82208,-14.17337,-14.21192,-14.62869,-16.12243,-18.95119,-22.76264,-26.78708,-30.22737,-32.56687,-33.6165,-33.34682,-31.72098,-28.72339,-24.58298,-19.9794,-15.97558,-13.60065,-13.29205,-14.57644,-16.27103,-17.1559,-16.72528,-15.52182,-14.79659,-15.67664,-18.36863,-21.92967,-24.77535,-25.60415,-24.13354,-21.16924,-17.98689,-15.48047,-13.69019,-12.0464,-10.14152,-8.438663,-8.335493,-11.43457,-18.43627,-28.3786,-38.77477,-46.64836,-49.89766,-48.21017,-43.03034,-36.66529,-31.11045,-27.27841,-24.98315,-23.52082,-22.34648,-21.38232,-20.83728,-20.79669,-20.97919,-20.8792,-20.17759,-19.07535,-18.25794,-18.48062,-20.05986,-22.63489,-25.37226,-27.46764,-28.59261,-28.98732,-29.16687,-29.48628,-29.89169,-30.02216,-29.55039,-28.47607,-27.14082,-25.96843,-25.15742,-24.58778,-24.02145,-23.42293,-23.10929,-23.56128,-25.00521,-27.09195,-28.97251,-29.79429,-29.30938,-28.15046,-27.51432,-28.39535,-30.85182,-33.81766,-35.64145,-35.05422,-31.96084,-27.53679,-23.54949,-21.32425,-21.00726,-21.58294,-21.61215,-20.19636,-17.54652,-14.81486,-13.3392,-13.81674,-15.93445,-18.64779,-20.86301,-22.03932,-22.33176,-22.24889,-22.13909,-21.91036,-21.18125,-19.72052,-17.81006,-16.21968,-15.76789,-16.75373,-18.65635,-20.33529,-20.63667,-19.04375,-15.97999,-12.59209,-10.15696,-9.465249,-10.51368,-12.62523,-14.8628,-16.4691,-17.11053,-16.86587,-16.05332,-15.04071,-14.12957,-13.51482,-13.27607,-13.3751,-13.67706,-14.0226,-14.33498,-14.69037,-15.27414,-16.21602,-17.40149,-18.40985,-18.6717,-17.7917,-15.84402,-13.42832,-11.40706,-10.45473,-10.69246,-11.64786,-12.57611,-12.93673,-12.70685,-12.31752,-12.25945,-12.64419,-13.0519,-12.80527,-11.50185,-9.429178,-7.532061,-6.888059,-7.989972,-10.29975,-12.39989,-12.70141,-10.30527,-5.496474,0.4369809,5.953781,10.11946,13.05553,15.72086,19.1891,23.8933,29.30961,34.25694,37.59571,38.87242,38.51817,37.51442,36.77785,36.67009,36.92192,36.97003,36.44047,35.44537,34.51603,34.25286,34.95208,36.45755,38.30934,40.05303,41.48104,42.6516,43.70676,44.65558,45.3007,45.36723,44.73492,43.5954,42.40901,41.67927,41.6905,42.3778,43.40533,44.38932,45.11522,45.61767,46.09655,46.75159,47.65646,48.74423,49.88472,50.97376,51.96436,52.83306,53.53319,53.99197,54.15916,54.05724,53.77156,53.36697,52.7892,51.84067,50.27929,47.99528,45.1487,42.15717,39.51714,37.55953,36.2956,35.45664,34.70133,33.85018,32.98882,32.37794,32.24636,32.62406,33.33418,34.13559,34.89033,35.61469,36.37392,37.11879,37.62442,37.61841,37.02491,36.13023,35.5012,35.66186,36.73573,38.32948,39.79092,40.69839,41.22451,42.0435,43.73973,46.05334,47.50257,45.77237,38.80782,26.06534,9.181424,-8.423145,-22.89725,-31.59656,-34.13653,-32.31194,-28.97666,-26.55518,-26.01992,-26.83045,-27.72199,-27.74105,-26.85246,-25.79947,-25.4235,-25.98808,-26.99308,-27.57878,-27.19081,-26.00353,-24.79044,-24.33591,-24.81258,-25.57403,-25.52185,-23.80846,-20.40664,-16.16924,-12.34475,-9.871038,-8.900327,-8.837271,-8.825247,-8.332947,-7.455171,-6.758436,-6.812855,-7.746189,-9.115336,-10.16085,-10.25785,-9.267818,-7.586222,-5.891167,-4.778062,-4.504614,-4.964594,-5.849208,-6.854263,-7.80299,-8.647025,-9.398625,-10.07307,-10.67717,-11.22109,-11.71024,-12.10749,-12.30519,-12.16008,-11.60028,-10.74421,-9.934985,-9.630252,-10.18083,-11.61755,-13.57973,-15.44324,-16.58781,-16.65988,-15.69502,-14.05377,-12.23425,-10.6805,-9.67814,-9.348356,-9.684656,-10.5706,-11.76731,-12.91638,-13.61191,-13.54478,-12.65099,-11.16694,-9.53863,-8.223776,-7.498581,-7.378591,-7.683259,-8.176326,-8.671117,-9.036398,-9.135111,-8.79565,-7.891273,-6.49879,-5.005092,-4.021413,-4.081399,-5.270322,-7.03406,-8.352299,-8.246439,-6.358016,-3.241614,-0.1517482,1.599418,1.359315,-0.4984013,-2.788613,-4.192409,-3.995018,-2.44547,-0.5376374,0.6282383,0.4944815,-0.6867261,-2.096519,-2.90257,-2.744207,-1.852268,-0.7760106,0.04622685,0.5559252,1.012411,1.684665,2.556973,3.282361,3.418278,2.760521,1.516624,0.1827484,-0.7866425,-1.268298,-1.500154,-1.828163,-2.364458,-2.826156,-2.697316,-1.615381,0.2947979,2.39762,3.882401,4.250827,3.630249,2.694098,2.232789,2.65565,3.750728,4.854371,5.306577,4.882786,3.92034,3.073706,2.881071,3.437074,4.372936,5.124973,5.284893,4.797572,3.907801,2.944482,2.128107,1.532488,1.182053,1.148968,1.525088,2.271489,3.083923,3.436734,2.846236,1.212691,-1.000577,-2.91899,-3.695139,-2.982116,-1.140476,0.9653344,2.461028,2.934303,2.588616,2.000292,1.66997,1.692284,1.770666,1.547051,0.9821804,0.4817627,0.6475472,1.812786,3.696025,5.446612,6.094176,5.130702,2.846684,0.1906314,-1.770929,-2.456024,-2.057613,-1.356037,-1.199633,-2.004557,-3.588711,-5.410688,-7.006196,-8.292903,-9.529424,-10.97772,-12.54284,-13.6887,-13.7352,-12.36176,-9.971594,-7.631865,-6.566716,-7.476016,-10.08757,-13.23331,-15.43496,-15.68023,-13.9506,-11.2024,-8.816834,-7.837378,-8.425997,-9.833641,-10.88025,-10.65311,-9.022087,-6.691232,-4.77966,-4.188427,-5.116574,-6.986133,-8.79306,-9.663138,-9.293704,-8.050002,-6.696953,-5.95242,-6.128912,-7.04964,-8.244195,-9.265277,-9.919332,-10.28869,-10.57416,-10.89952,-11.22308,-11.40301,-11.34194,-11.08111,-10.76305,-10.4944,-10.22764,-9.773656,-8.95626,-7.8008,-6.603747,-5.802042,-5.704906,-6.264761,-7.058662,-7.52009,-7.288405,-6.449855,-5.502808,-5.056956,-5.455494,-6.564892,-7.86851,-8.797671,-9.076033,-8.847971,-8.513732,-8.397028,-8.48455,-8.422963,-7.776764,-6.367436,-4.457221,-2.647365,-1.553272,-1.465504,-2.20717,-3.262987,-4.079958,-4.345946,-4.092733,-3.603682,-3.228438,-3.237015,-3.776502,-4.895262,-6.555303,-8.594527,-10.68282,-12.35852,-13.1879,-12.98622,-11.9598,-10.64791,-9.663539,-9.372833,-9.709827,-10.24469,-10.45778,-10.03356,-8.978598,-7.49807,-5.741923,-3.628415,-0.8942415,2.651826,6.856601,11.14653,14.73531,17.00442,17.81865,17.57504,16.95763,16.5616,16.62397,17.00906,17.41484,17.62494,17.62715,17.54523,17.48097,17.42254,17.30102,17.13614,17.12346,17.5536,18.59524,20.10242,21.61575,22.59571,22.7478,22.21105,21.45998,20.97005,20.87361,20.85464,20.3705,19.05687,17.03565,14.90624,13.41828,13.04482,13.73817,15.01441,16.27881,17.14637,17.54406,17.57116,17.28838,16.64979,15.64874,14.53611,13.86752,14.24576,15.8785,18.27272,20.35855,21.06052,19.9933,17.80682,15.88538,15.52484,17.09272,19.73598,21.87004,22.16272,20.37475,17.49067,15.04374,14.09202,14.55313,15.36321,15.34543,14.1581,12.61517,12.10802,13.51477,16.39454,19.11458,19.91916,18.2482,15.35178,13.64619,15.08908,19.57091,24.4234,25.5196,19.45479,5.577624,-13.33936,-32.23212,-46.07468,-52.11845,-50.84872,-45.25488,-38.98559,-34.52324,-32.35682,-31.41905,-30.27394,-28.18345,-25.41702,-22.77021,-20.79059,-19.32813,-17.7058,-15.31675,-12.15768,-8.893683,-6.422927,-5.278376,-5.303769,-5.817842,-6.117048,-5.933615,-5.524856,-5.360797,-5.67687,-6.245502,-6.541107,-6.167655,-5.217285,-4.277485,-4.064356,-4.936794,-6.63913,-8.461159,-9.709733,-10.16588,-10.21147,-10.53997,-11.65468,-13.50136,-15.48604,-16.86082,-17.21033,-16.70723,-15.96893,-15.621,-15.87,-16.37766,-16.52108,-15.8628,-14.51283,-13.13402,-12.57277,-13.33858,-15.25405,-17.49411,-18.99834,-19.02002,-17.50117,-15.07212,-12.6933,-11.15387,-10.70603,-11.01769,-11.43648,-11.38744,-10.66942,-9.494244,-8.273687,-7.306125,-6.56462,-5.718213,-4.371933,-2.376019,-0.008126144,2.097776,3.255067,3.099146,1.818943,0.1007473,-1.203662,-1.514933,-0.8319001,0.2695147,0.9549824,0.6021496,-0.8321263,-2.753135,-4.218572,-4.428016,-3.150647,-0.860407,1.496115,2.976959,3.113786,2.125727,0.7697705,-0.08416015,0.08031379,1.169903,2.568389,3.509118,3.520109,2.691663,1.618895,1.055304,1.476578,2.803233,4.439465,5.604446,5.765785,4.928231,3.617193,2.574494,2.348454,3.014942,4.180298,5.245266,5.757237,5.637053,5.157523,4.711273,4.533492,4.560484,4.504909,4.082277,3.228609,2.16442,1.269538,0.8596788,1.013608,1.55568,2.187875,2.668136,2.91273,2.967443,2.892609,2.666241,2.187919,1.38182,0.3156534,-0.7671802,-1.545846,-1.800352,-1.556518,-1.097998,-0.8271968,-1.051722,-1.819206,-2.892617,-3.874422,-4.404728,-4.3255,-3.731772,-2.897425,-2.124403,-1.592015,-1.272105,-0.9427315,-0.2945789,0.9089163,2.681154,4.743815,6.592538,7.695881,7.752961,6.881635,5.616873,4.684754,4.64436,5.585253,7.06182,8.325091,8.738285,8.141497,6.946394,5.896525,5.632153,6.323112,7.594104,8.784837,9.376222,9.310369,9.004285,9.057831,9.853966,11.31362,12.95945,14.23632,14.87053,15.03184,15.1997,15.8312,17.05247,18.57065,19.85363,20.45539,20.28318,19.65371,19.12279,19.20203,20.12153,21.74671,23.66072,25.34679,26.38255,26.5815,26.04913,25.14184,24.33125,24.0039,24.26844,24.87122,25.29568,25.03095,23.8838,22.15055,20.52147,19.74238,20.21741,21.79135,23.84972,25.67393,26.82239,27.2941,27.38809,27.39187,27.35482,27.13146,26.65768,26.21534,26.41308,27.80831,30.3891,33.30706,35.14833,34.68575,31.6888,27.24556,23.29293,21.53697,22.36928,24.45619,25.31794,22.62749,15.50702,5.075821,-6.067898,-15.12807,-20.42156,-22.00462,-21.33966,-20.29697,-20.13225,-21.01146,-22.25221,-23.00038,-22.8482,-22.0276,-21.15129,-20.77101,-21.08661,-21.96353,-23.16029,-24.53022,-26.02826,-27.55055,-28.79127,-29.29264,-28.70022,-27.05037,-24.86159,-22.92458,-21.90026,-21.98015,-22.82919,-23.84123,-24.52662,-24.77221,-24.81835,-25.00459,-25.49336,-26.17651,-26.8149,-27.27623,-27.66282,-28.21154,-29.03466,-29.90873,-30.30306,-29.67356,-27.84876,-25.24632,-22.74787,-21.27504,-21.30622,-22.62381,-24.44959,-25.8948,-26.46535,-26.33178,-26.21124,-26.92999,-28.91064,-31.86694,-34.87633,-36.80334,-36.86629,-35.06256,-32.22871,-29.6837,-28.60947,-29.4678,-31.75697,-34.25898,-35.67719,-35.34017,-33.58162,-31.55898,-30.58464,-31.34214,-33.46108,-35.7377,-36.90155,-36.46592,-35.10116,-34.22711,-35.00461,-37.32369,-39.46067,-38.72624,-32.83858,-21.28248,-5.86107,9.931067,22.42238,29.36715,30.78906,28.65966,25.66757,23.81887,23.63821,24.32125,24.60328,23.72051,21.86764,19.94364,18.85022,18.86041,19.4684,19.77214,19.08413,17.34787,15.11032,13.12212,11.87613,11.39851,11.39361,11.58198,11.94848,12.70969,14.03884,15.77699,17.37537,18.14537,17.66523,16.06784,14.00204,12.27341,11.38431,11.26211,11.34473,10.96597,9.796268,8.066985,6.44645,5.650648,6.023895,7.329475,8.856591,9.768592,9.496511,7.980017,5.658631,3.248674,1.433396,0.6086715,0.7771547,1.607783,2.61341,3.364609,3.655024,3.556903,3.349273,3.354229,3.760824,4.526066,5.40638,6.101679,6.427346,6.408854,6.239421,6.127987,6.138854,6.133643,5.861311,5.142688,4.02973,2.832135,1.988572,1.859032,2.561552,3.940839,5.666379,7.379912,8.7991,9.739484,10.09019,9.809534,8.969976,7.811676,6.72496,6.117617,6.214967,6.918595,7.841366,8.530478,8.752605,8.648256,8.629627,9.066607,9.966218,10.8809,11.14318,10.2996,8.458869,6.298674,4.689252,4.154781,4.525045,5.027503,4.788191,3.431326,1.383201,-0.3368536,-0.7256373,0.5741259,3.02569,5.493389,6.894485,6.79584,5.588959,4.158869,3.289936,3.206217,3.529028,3.638051,3.152265,2.186841,1.222572,0.7105204,0.7199115,0.8947453,0.7503098,0.08734252,-0.788293,-1.215599,-0.608382,1.127188,3.47717,5.590499,6.757434,6.781362,6.012544,5.049932,4.339904,3.953276,3.674156,3.298957,2.892879,2.792467,3.342011,4.561476,6.008283,6.965549,6.855734,5.608191,3.725911,1.99292,1.006109,0.8357828,1.034888,0.9841676,0.3381378,-0.7262146,-1.619502,-1.729554,-0.8287666,0.7675474,2.388603,3.411557,3.618572,3.288657,2.98668,3.205606,4.097022,5.446672,6.878532,8.124144,9.167915,10.18194,11.3175,12.51799,13.49613,13.89881,13.54897,12.59823,11.4798,10.68176,10.47759,10.78071,11.21308,11.3452,10.95908,10.17143,9.340641,8.814763,8.678099,8.660569,8.280565,7.152008,5.281015,3.17006,1.646642,1.48637,3.021405,5.94402,9.417315,12.44267,14.29652,14.81443,14.38811,13.69871,13.34877,13.59522,14.31125,15.16305,15.86758,16.36625,16.81958,17.44729,18.3318,19.31536,20.0542,20.19421,19.56537,18.28978,16.75314,15.46154,14.85319,15.14209,16.24623,17.81893,19.37093,20.44597,20.79191,20.45936,19.77606,19.19329,19.06696,19.48113,20.21107,20.84874,21.01726,20.54474,19.49675,18.06804,16.43786,14.71999,13.05718,11.77226,11.39996,12.46949,15.08333,18.53269,21.25734,21.31451,17.22429,8.783549,-2.622252,-14.45538,-24.05178,-29.72942,-31.40148,-30.38383,-28.54075,-27.28058,-26.96924,-27.04293,-26.65866,-25.40538,-23.60543,-22.04734,-21.38836,-21.67954,-22.35797,-22.70342,-22.41695,-21.88552,-21.91765,-23.11646,-25.33227,-27.60773,-28.70585,-27.9083,-25.56363,-23.00126,-21.82547,-23.00531,-26.31659,-30.4766,-33.88081,-35.48304,-35.28995,-34.20457,-33.36947,-33.45697,-34.34745,-35.35039,-35.76079,-35.34753,-34.4569,-33.70552,-33.5202,-33.86676,-34.34942,-34.58371,-34.55014,-34.65732,-35.45794,-37.21394,-39.6183,-41.87896,-43.12922,-42.91516,-41.46472,-39.58526,-38.26388,-38.20711,-39.562,-41.92697,-44.59215,-46.85091,-48.23758,-48.62804,-48.21741,-47.416,-46.69481,-46.4079,-46.64371,-47.18558,-47.63998,-47.7008,-47.40294,-47.1742,-47.5868,-48.91174,-50.76191,-52.12452,-51.87449,-49.52986,-45.77555,-42.33184,-41.10026,-42.98923,-47.10398,-50.864,-51.11378,-45.69915,-34.65675,-20.33402,-6.340608,4.108742,9.565058,10.72451,9.704123,8.727813,9.018826,10.48182,12.21689,13.39971,13.9023,14.28627,15.26804,17.10506,19.3602,21.19248,21.93421,21.52434,20.49578,19.55083,19.05444,18.8195,18.33114,17.23116,15.69579,14.42152,14.21888,15.49509,17.98338,20.90087,23.41775,25.11274,26.11447,26.86081,27.67614,28.48183,28.84206,28.29682,26.72791,24.48938,22.21153,20.42592,19.28225,18.55233,17.90157,17.21216,16.70881,16.78754,17.67284,19.16194,20.66226,21.52255,21.44629,20.70695,20.00891,20.07137,21.19615,23.09032,25.04686,26.35612,26.68247,26.18044,25.30868,24.49696,23.90056,23.3921,22.76201,21.95426,21.15283,20.65637,20.64095,20.99582,21.36331,21.36463,20.85436,20.02106,19.25686,18.88343,18.92605,19.09815,19.01183,18.46734,17.61184,16.84196,16.50475,16.60221,16.72151,16.27235,14.90493,12.84089,10.87763,10.0159,10.89785,13.3797,16.50671,18.93567,19.59171,18.20665,15.44898,12.5828,10.85025,10.90997,12.61055,15.17573,17.65251,19.35537,20.08316,20.04689,19.61584,19.06884,18.49209,17.84494,17.10475,16.36906,15.84453,15.74009,16.14227,16.95084,17.90383,18.66643,18.93454,18.51698,17.38697,15.7051,13.80572,12.12581,11.06766,10.82787,11.27193,11.94106,12.22511,11.6407,10.07601,7.860497,5.606235,3.899322,3.015144,2.822131,2.925436,2.951775,2.78817,2.619796,2.748232,3.320724,4.164124,4.847533,4.941255,4.300474,3.177909,2.079402,1.449974,1.396869,1.637935,1.715573,1.336183,0.6041391,-0.01711179,-0.004281416,0.8571513,2.282725,3.618035,4.223116,3.877637,2.947989,2.198663,2.348978,3.635613,5.641167,7.491273,8.306083,7.649485,5.732956,3.283369,1.175987,0.04891631,0.09467766,1.096161,2.629204,4.281271,5.767334,6.92217,7.636369,7.824543,7.463107,6.660556,5.683629,4.888444,4.57527,4.846801,5.557158,6.385989,6.995848,7.182435,6.938154,6.408463,5.786108,5.216334,4.762639,4.429725,4.199934,4.040267,3.875745,3.567121,2.940492,1.880135,0.4387303,-1.115421,-2.373578,-2.971899,-2.795582,-2.078703,-1.322065,-1.053272,-1.552398,-2.698107,-4.027316,-4.978711,-5.18048,-4.616021,-3.577051,-2.44737,-1.466163,-0.6286995,0.2150271,1.143211,1.995241,2.396321,1.983966,0.6960683,-1.084999,-2.663077,-3.389042,-3.042048,-1.982787,-0.9562014,-0.6414738,-1.22103,-2.246895,-2.905408,-2.524998,-1.004391,1.123541,3.045779,4.216254,4.729983,5.258631,6.568428,8.930461,11.82775,14.1876,15.02487,14.09451,12.1174,10.39912,10.05151,11.29852,13.31509,14.72121,14.43634,12.36256,9.466409,7.207569,6.675706,7.976223,10.23789,12.21188,13.05887,12.81912,12.28877,12.42212,13.6792,15.74662,17.78627,19.00776,19.16199,18.63859,18.14384,18.22117,18.95642,20.04122,21.08969,21.92694,22.62062,23.2603,23.71465,23.63021,22.73977,21.26509,20.05291,20.21179,22.36181,25.93782,29.05527,29.16815,24.27161,14.02421,0.1422969,-14.2095,-25.75343,-32.4741,-34.33479,-33.01487,-30.88937,-29.85184,-30.59474,-32.63323,-34.9133,-36.55477,-37.29049,-37.42505,-37.45345,-37.65453,-37.924,-37.90832,-37.29819,-36.06425,-34.49283,-33.02847,-32.04533,-31.68655,-31.84118,-32.23794,-32.583,-32.67476,-32.46505,-32.067,-31.71695,-31.69486,-32.21434,-33.31602,-34.81664,-36.35523,-37.53186,-38.07629,-37.95707,-37.3689,-36.6082,-35.91555,-35.38356,-34.98309,-34.67855,-34.5415,-34.77079,-35.59186,-37.09211,-39.10011,-41.19767,-42.87771,-43.77281,-43.83408,-43.36204,-42.86834,-42.83451,-43.48515,-44.68292,-45.99076,-46.86555,-46.8893,-45.93353,-44.19275,-42.08966,-40.11269,-38.66705,-37.99592,-38.17772,-39.1622,-40.79989,-42.84854,-44.98071,-46.83223,-48.10331,-48.66957,-48.62477,-48.20062,-47.59025,-46.78981,-45.5936,-43.79358,-41.48155,-39.23158,-37.95669,-38.4132,-40.57893,-43.29306,-44.4793,-41.97573,-34.61802,-23.00163,-9.449179,2.889415,11.38999,15.06626,14.85711,12.95764,11.5958,11.95032,13.78617,15.9289,17.19866,17.18599,16.41104,15.84201,16.16401,17.31827,18.60639,19.24626,18.95937,18.16869,17.67702,18.06696,19.25391,20.50696,20.91906,19.99598,17.95953,15.57002,13.61155,12.41206,11.73112,11.07637,10.20072,9.405033,9.411317,10.877,13.87671,17.70742,21.16078,23.10112,22.99899,21.11552,18.2701,15.38096,13.07562,11.57005,10.80378,10.65331,11.03895,11.87531,12.97062,14.02773,14.80242,15.31597,15.93351,17.18975,19.42845,22.48723,25.6696,28.07609,29.11982,28.90084,28.17301,27.8837,28.54542,29.82658,30.63518,29.67957,26.2031,20.48086,13.79937,7.928428,4.363929,3.721117,5.550272,8.614161,11.44899,12.93551,12.65497,10.93641,8.635623,6.764359,6.109514,6.962477,9.041605,11.63389,13.90648,15.26254,15.5797,15.21134,14.74672,14.66105,15.05546,15.63853,15.95346,15.6993,14.93342,14.02214,13.37706,13.16297,13.18421,13.03361,12.40308,11.33656,10.24054,9.632391,9.791543,10.55182,11.38362,11.71977,11.31388,10.39679,9.531783,9.26833,9.822169,10.98145,12.27965,13.29935,13.89774,14.2188,14.51716,14.94749,15.47934,15.9855,16.40915,16.85264,17.49413,18.38125,19.2637,19.62084,18.91275,16.91993,13.95446,10.78694,8.30481,7.08714,7.137717,7.924483,8.690788,8.848932,8.234778,7.10436,5.916519,5.061813,4.7014,4.780817,5.160626,5.741425,6.49131,7.375117,8.265693,8.929454,9.11785,8.711115,7.81497,6.737764,5.855271,5.446022,5.598505,6.240327,7.254361,8.587428,10.2645,12.29225,14.52196,16.584,17.9722,18.26239,17.35289,15.57901,13.60748,12.13677,11.5478,11.69569,11.97221,11.62721,10.19059,7.76942,5.049605,2.986678,2.340311,3.298386,5.391933,7.744981,9.519768,10.31336,10.29642,10.0379,10.13892,10.89938,12.20348,13.66489,14.91045,15.80696,16.48954,17.19415,18.0308,18.86986,19.42863,19.49868,19.14801,18.74051,18.73645,19.39106,20.55011,21.69241,22.2155,21.80011,20.62658,19.29684,18.49338,18.57177,19.33319,20.12271,20.20751,19.22058,17.41173,15.55512,14.55919,14.99477,16.80307,19.34103,21.73024,23.30625,23.91525,23.90023,23.80174,23.96344,24.2834,24.26213,23.31902,21.18768,18.15177,14.97642,12.57147,11.58123,12.13669,13.90033,16.34856,19.0855,21.96604,24.93983,27.73025,29.60193,29.44655,26.22991,19.59969,10.30641,0.1441045,-8.64183,-14.23532,-15.99402,-14.6816,-12.06933,-10.11234,-10.11554,-12.28661,-15.8472,-19.57525,-22.44969,-24.06439,-24.65213,-24.79263,-25.03167,-25.63737,-26.58856,-27.72997,-28.941,-30.19214,-31.47038,-32.65868,-33.48578,-33.6067,-32.77761,-31.01808,-28.65692,-26.22626,-24.25753,-23.08477,-22.74828,-23.03015,-23.5838,-24.08364,-24.33146,-24.29565,-24.09579,-23.95729,-24.14928,-24.90523,-26.32892,-28.31205,-30.51148,-32.4292,-33.59281,-33.76947,-33.10227,-32.07489,-31.29288,-31.1788,-31.74667,-32.597,-33.1563,-33.03682,-32.3047,-31.4818,-31.25937,-32.08163,-33.85245,-35.95629,-37.59627,-38.24974,-37.95974,-37.27856,-36.90234,-37.23864,-38.19319,-39.31139,-40.16115,-40.66917,-41.15042,-41.99355,-43.23206,-44.34723,-44.51299,-43.1776,-40.59532,-37.88521,-36.4625,-37.10971,-39.25389,-40.96987,-39.83093,-34.20434,-24.27096,-12.15467,-1.036052,6.291248,8.641967,6.797673,2.872483,-0.8793746,-3.104689,-3.697645,-3.382412,-2.928702,-2.563191,-1.929346,-0.5332525,1.713845,4.274747,6.244041,6.891865,6.111582,4.47679,2.895536,2.114939,2.396528,3.524314,5.060559,6.615184,7.941488,8.854617,9.129834,8.542984,7.065174,5.048216,3.192899,2.233845,2.504596,3.684184,4.944578,5.452169,4.907115,3.737393,2.772694,2.582664,2.928073,2.742484,0.7318661,-3.743265,-10.06788,-16.48375,-20.90984,-22.01359,-19.89469,-15.96473,-12.0968,-9.566284,-8.423985,-7.659571,-6.013,-2.894525,1.171749,4.842612,6.776311,6.44567,4.439138,2.087128,0.6763099,0.7513753,1.916999,3.217179,3.811279,3.508778,2.84887,2.715722,3.762253,6.004189,8.808985,11.24793,12.57418,12.54949,11.46968,9.931241,8.515153,7.570189,7.178068,7.258963,7.707211,8.463129,9.495895,10.73808,12.03413,13.14163,13.78463,13.73315,12.88114,11.30503,9.289535,7.302999,5.905967,5.596414,6.633167,8.911558,11.96299,15.10175,17.66799,19.25809,19.83291,19.65557,19.10188,18.45323,17.78449,16.99673,15.95679,14.64724,13.23367,12.01554,11.29946,11.27379,11.94989,13.1832,14.73749,16.34128,17.71247,18.56962,18.66916,17.88852,16.3259,14.34762,12.51831,11.40549,11.33074,12.19208,13.46801,14.42975,14.47625,13.42981,11.63749,9.817081,8.719673,8.779664,9.930868,11.67706,13.36662,14.51207,14.97944,14.95658,14.74479,14.52063,14.2245,13.64354,12.62571,11.27283,9.970942,9.220311,9.360476,10.36043,11.81176,13.14008,13.91486,14.07399,13.93003,13.95654,14.48553,15.49725,16.62395,17.3589,17.34317,16.56484,15.36576,14.26572,13.71181,13.88905,14.67957,15.77108,16.84101,17.71656,18.43413,19.17488,20.10941,21.22697,22.2401,22.63702,21.89539,19.78579,16.61683,13.25932,10.86769,10.37574,12.00064,15.03955,18.12657,19.87184,19.56333,17.53391,14.95664,13.15958,12.85372,13.74438,14.77631,14.86604,13.65063,11.75214,10.36111,10.39667,11.80705,13.51295,14.08518,12.74404,10.00891,7.506054,6.970065,9.019133,12.48592,14.79078,13.21988,6.402655,-4.865318,-17.93717,-29.58543,-37.5004,-41.18997,-41.84909,-41.39045,-41.28709,-41.90735,-42.64338,-42.6178,-41.43637,-39.50729,-37.79242,-37.23096,-38.23953,-40.57027,-43.53026,-46.34478,-48.42285,-49.43132,-49.25663,-47.98711,-45.95959,-43.78258,-42.21025,-41.84748,-42.83338,-44.73053,-46.7475,-48.19422,-48.88102,-49.18082,-49.69808,-50.77829,-52.22864,-53.48215,-54.10304,-54.24051,-54.62302,-55.99179,-58.3072,-60.31017,-59.87156,-55.07064,-45.41978,-32.46159,-19.27557,-9.07889,-3.68687,-2.724397,-4.048109,-5.108224,-4.412592,-2.216434,-0.07384014,0.3849255,-1.384515,-4.488859,-7.236353,-8.284069,-7.493571,-5.925056,-5.004572,-5.460837,-6.769456,-7.480027,-6.194241,-2.52843,2.579384,7.403162,10.4262,11.13976,10.15201,8.608202,7.383953,6.627307,5.930425,4.931804,3.835507,3.406355,4.404841,6.867719,9.798885,11.58636,10.96605,7.948726,4.093,1.880742,3.496646,9.685238,19.32409,29.9395,38.8615,44.38551,46.35598,45.94946,44.87456,44.46937,45.14867,46.39961,47.22336,46.73543,44.62851,41.32222,37.7802,35.09755,34.02975,34.65252,36.30789,37.89444,38.40513,37.4651,35.56908,33.83441,33.34517,34.43062,36.31765,37.426,36.20343,32.04418,25.73303,19.10593,14.08511,11.64657,11.34411,11.68537,11.12722,9.066064,6.201215,4.051581,3.949349,6.166116,9.72996,13.03354,14.81867,14.89116,14.11779,13.74341,14.5104,16.17173,17.70159,18.03029,16.78924,14.56923,12.54234,11.72574,12.38295,13.93249,15.37237,15.89377,15.27404,13.84147,12.12535,10.50359,9.104601,7.974206,7.287325,7.354273,8.364794,10.07259,11.73051,12.43398,11.7115,9.953506,8.303776,7.968449,9.321187,11.40025,12.22073,9.835329,3.571291,-5.31298,-14.02057,-19.51962,-20.06027,-16.04981,-9.785347,-4.202344,-1.36049,-1.517259,-3.263958,-4.560741,-3.999196,-1.542001,1.638152,4.028491,4.754122,4.053003,2.998705,2.706061,3.552644,4.896288,5.428195,3.909676,-0.1600687,-6.306926,-13.34658,-19.93257,-25.05481,-28.25568,-29.54521,-29.17134,-27.4344,-24.63819,-21.13763,-17.37674,-13.84368,-10.9574,-8.962715,-7.901773,-7.665646,-8.071079,-8.903501,-9.91675,-10.83375,-11.39848,-11.47839,-11.15168,-10.69591,-10.45082,-10.6225,-11.15652,-11.7774,-12.18262,-12.26462,-12.20132,-12.33771,-12.92644,-13.90394,-14.86716,-15.28678,-14.83127,-13.594,-12.07315,-10.91205,-10.56007,-11.05714,-12.05597,-13.04037,-13.58709,-13.51869,-12.89434,-11.89829,-10.73098,-9.56254,-8.52843,-7.707741,-7.062724,-6.393364,-5.394288,-3.842606,-1.826093,0.1616458,1.390657,1.293972,-0.1238566,-2.152226,-3.662358,-3.699539,-2.036648,0.6696683,3.250042,4.712145,4.81822,4.174726,3.769787,4.261464,5.49334,6.568881,6.44236,4.632827,1.579657,-1.602815,-3.808901,-4.606051,-4.440676,-4.262209,-4.838194,-6.235329,-7.813319,-8.714492,-8.488265,-7.40549,-6.246585,-5.724417,-5.960798,-6.394671,-6.192808,-4.877564,-2.731174,-0.687335,0.2281865,-0.459815,-2.372319,-4.504251,-5.827293,-5.875963,-4.95729,-3.886364,-3.455582,-3.991663,-5.258602,-6.71249,-7.887357,-8.638417,-9.106793,-9.483344,-9.782923,-9.808781,-9.327569,-8.312509,-7.061962,-6.091977,-5.862175,-6.509969,-7.762582,-9.080965,-9.946526,-10.12269,-9.749992,-9.237614,-9.02565,-9.348941,-10.11571,-10.94696,-11.34752,-10.93011,-9.599972,-7.626351,-5.568668,-4.080142,-3.663843,-4.483443,-6.313354,-8.649575,-10.92194,-12.69631,-13.76652,-14.1079,-13.75194,-12.68731,-10.86318,-8.286674,-5.127654,-1.730043,1.507515,4.319399,6.705048,8.904228,11.21237,13.74101,16.27288,18.31099,19.30637,18.94481,17.33956,15.03142,12.79789,11.36061,11.11279,11.96684,13.37295,14.50823,14.59016,13.2222,10.64087,7.730354,5.736252,5.744684,8.140034,12.32144,16.87367,20.16621,21.10713,19.65771,16.81661,14.06874,12.60365,12.74682,13.91968,15.12089,15.60431,15.32031,14.85692,14.95262,15.93033,17.4405,18.67936,18.92243,18.00552,16.43288,15.05378,14.5381,15.00071,16.00208,16.88555,17.19531,16.89734,16.29701,15.77112,15.54087,15.63726,16.02662,16.72975,17.79104,19.1124,20.32059,20.84694,20.23833,18.50854,16.25286,14.3802,13.58841,13.92404,14.74857,15.16828,14.65056,13.39345,12.1707,11.75034,12.31261,13.31982,13.96961,13.90842,13.63085,14.15888,16.10623,18.74365,19.81012,16.41485,6.665389,-8.904788,-27.04601,-42.97506,-52.4958,-53.92576,-48.76226,-40.73054,-33.78006,-30.1702,-29.67348,-30.21586,-29.42828,-26.11794,-20.83205,-15.32294,-11.3958,-9.913142,-10.51078,-12.05462,-13.41105,-13.99681,-13.83013,-13.19412,-12.26072,-10.96993,-9.200755,-7.028755,-4.818663,-3.061538,-2.085766,-1.871161,-2.104517,-2.418052,-2.612873,-2.696967,-2.733055,-2.655216,-2.239468,-1.278855,0.1721946,1.703026,2.724311,2.831176,2.101286,1.093803,0.5131926,0.7448393,1.578349,2.322212,2.250695,1.092539,-0.7650746,-2.496556,-3.338979,-3.047557,-2.017263,-1.01048,-0.6887795,-1.259595,-2.448882,-3.778287,-4.925494,-5.911295,-6.997541,-8.388463,-9.95821,-11.20031,-11.44221,-10.20086,-7.480356,-3.860317,-0.3456304,1.943196,2.115955,-0.2092062,-4.760198,-10.63438,-16.50682,-20.99984,-23.12126,-22.6121,-20.03855,-16.55366,-13.4135,-11.47127,-10.8971,-11.25162,-11.8423,-12.13607,-11.98977,-11.59649,-11.23589,-11.03113,-10.8802,-10.58102,-10.02185,-9.271158,-8.496716,-7.793272,-7.079054,-6.167861,-4.973677,-3.678167,-2.695938,-2.417387,-2.892825,-3.700034,-4.136604,-3.653628,-2.255462,-0.5778188,0.4492933,0.1672487,-1.376351,-3.420175,-4.935576,-5.252484,-4.462574,-3.335868,-2.804299,-3.350849,-4.703987,-6.032064,-6.500162,-5.815586,-4.405583,-3.124507,-2.702224,-3.30746,-4.505209,-5.609402,-6.166811,-6.235633,-6.28399,-6.807289,-7.954291,-9.429223,-10.72577,-11.50554,-11.83352,-12.09577,-12.66403,-13.56316,-14.39964,-14.61954,-13.91838,-12.50172,-10.98763,-9.992276,-9.673451,-9.558449,-8.806434,-6.765208,-3.471624,0.2402253,3.12131,4.169527,3.178887,0.8480727,-1.611474,-3.126668,-3.286721,-2.44906,-1.403189,-0.8328903,-0.9166743,-1.29072,-1.355515,-0.6981992,0.6453807,2.236092,3.523436,4.17451,4.230206,4.012127,3.871174,3.959131,4.166811,4.245014,4.00086,3.424639,2.66746,1.903849,1.192994,0.4446682,-0.4878864,-1.662037,-2.960172,-4.134146,-4.954937,-5.365335,-5.52729,-5.725635,-6.187826,-6.938278,-7.785412,-8.452263,-8.765848,-8.779365,-8.743082,-8.937314,-9.471897,-10.18192,-10.69355,-10.63084,-9.850041,-8.570514,-7.330837,-6.792979,-7.491236,-9.635633,-13.0361,-17.14993,-21.21403,-24.4197,-26.10487,-25.94306,-24.08631,-21.18884,-18.24411,-16.2362,-15.72008,-16.53477,-17.84151,-18.53668,-17.87376,-15.9629,-13.82271,-12.86903,-14.04673,-17.06177,-20.18434,-20.82935,-16.70086,-6.94599,7.291314,23.24093,37.64504,48.09772,53.91518,56.13032,56.68571,57.31974,58.7634,60.63357,61.97652,62.04764,60.8234,58.9626,57.30804,56.30481,55.73427,54.92797,53.29796,50.81627,48.12114,46.18074,45.73324,46.85834,48.9399,51.02453,52.33759,52.64008,52.23518,51.66679,51.33794,51.29817,51.30803,51.09304,50.58309,49.96786,49.54721,49.50496,49.78001,50.12445,50.29256,50.20753,49.97507,49.73733,49.49059,49.02797,48.07928,46.5659,44.78172,43.33802,42.86164,43.61444,45.27968,47.07593,48.15505,48.05291,46.91596,45.36458,44.08747,43.4372,43.29302,43.2701,43.10912,42.94567,43.23667,44.36876,46.22427,48.05404,48.8298,47.91938,45.65913,43.38518,42.77166,44.75808,48.66536,52.08328,51.73478,44.97909,31.21506,12.43388,-7.425268,-24.04993,-34.50672,-38.32519,-37.41788,-34.93996,-33.71474,-35.02427,-38.31566,-41.85957,-43.90855,-43.69279,-41.74807,-39.47845,-38.27583,-38.72467,-40.3231,-41.83049,-42.00039,-40.26722,-37.01666,-33.32761,-30.37272,-28.83705,-28.67302,-29.29231,-30.03502,-30.605,-31.20255,-32.28819,-34.14931,-36.56819,-38.82723,-40.07216,-39.82092,-38.29985,-36.38322,-35.15079,-35.31583,-36.86089,-39.09408,-41.08064,-42.17594,-42.33366,-42.01927,-41.8205,-42.03883,-42.54138,-42.95549,-43.03786,-42.92133,-43.03179,-43.71562,-44.85064,-45.75901,-45.55045,-43.71783,-40.59502,-37.32835,-35.30323,-35.32952,-37.08217,-39.17947,-39.9108,-38.22547,-34.41298,-30.06418,-27.30902,-27.73801,-31.5875,-37.60984,-43.66637,-47.70346,-48.60871,-46.56127,-42.78648,-38.91771,-36.30651,-35.57119,-36.50661,-38.30669,-39.95379,-40.61425,-39.91399,-38.01846,-35.50024,-33.04866,-31.14632,-29.86834,-28.91106,-27.835,-26.37344,-24.6064,-22.88087,-21.53142,-20.60619,-19.81419,-18.7574,-17.29213,-15.73952,-14.74547,-14.83732,-15.97306,-17.43382,-18.20679,-17.65834,-16.05011,-14.49689,-14.31022,-16.09908,-19.21567,-21.96291,-22.50612,-19.95416,-14.92338,-9.193292,-4.63467,-2.067604,-0.7712092,1.038703,5.062179,11.82185,20.3044,28.53742,34.70389,38.07308,39.18124,39.21111,39.0424,38.63277,37.12938,33.59972,27.85818,20.82136,14.15866,9.473923,7.539674,8.03416,9.877502,11.88526,13.30572,13.95592,13.98419,13.53021,12.56659,11.01025,8.955512,6.787679,5.04398,4.10403,3.938866,4.114831,4.062723,3.427833,2.259502,0.9193161,-0.2073994,-0.9766308,-1.537218,-2.148047,-2.916354,-3.667022,-4.047397,-3.791753,-2.948973,-1.904037,-1.173489,-1.114228,-1.738346,-2.742337,-3.706664,-4.31605,-4.463346,-4.208056,-3.671887,-2.980206,-2.28793,-1.828091,-1.884225,-2.650462,-4.058148,-5.71472,-7.051048,-7.628633,-7.421729,-6.871589,-6.642205,-7.208088,-8.535368,-10.07582,-11.09649,-11.1424,-10.33183,-9.28547,-8.728861,-9.024051,-9.934177,-10.77264,-10.83765,-9.852156,-8.134709,-6.4086,-5.386974,-5.398168,-6.264132,-7.464837,-8.444558,-8.857371,-8.631989,-7.881771,-6.781151,-5.513122,-4.294079,-3.395319,-3.080903,-3.468499,-4.415647,-5.548205,-6.454827,-6.935229,-7.121792,-7.361457,-7.915714,-8.688865,-9.206406,-8.906054,-7.572443,-5.608084,-3.9043,-3.331854,-4.148843,-5.726765,-6.830063,-6.336844,-3.978587,-0.6191714,2.152462,2.920032,1.307993,-1.712666,-4.291629,-4.6873,-2.205413,2.45444,7.631357,11.63891,13.64457,13.99558,13.85125,14.40035,16.16417,18.78699,21.38158,23.15184,23.87474,23.95732,24.0847,24.73385,25.88596,27.10646,27.90448,28.10614,27.98867,28.0992,28.8947,30.44557,32.38681,34.12913,35.18021,35.37559,34.90068,34.13025,33.41912,32.98101,32.90321,33.23634,34.04925,35.38099,37.11848,38.90704,40.20008,40.47008,39.4884,37.51323,35.25368,33.59379,33.19875,34.20432,36.15823,38.25217,39.72569,40.22766,39.94435,39.43413,39.27456,39.73027,40.63139,41.52061,41.96402,41.82558,41.3359,40.92306,40.92697,41.38942,42.05397,42.56297,42.70458,42.53322,42.28344,42.15036,42.11008,41.92465,41.3372,40.31241,39.13098,38.24502,37.98064,38.30249,38.82998,39.11942,39.01924,38.82042,39.04093,39.93877,41.07328,41.25874,39.03798,33.46721,24.76572,14.41487,4.590562,-2.791994,-6.90137,-8.229469,-8.13858,-8.011195,-8.515512,-9.399559,-9.882235,-9.342399,-7.846219,-6.185998,-5.430941,-6.295022,-8.722122,-11.92947,-14.85628,-16.72671,-17.39614,-17.31105,-17.15636,-17.43405,-18.22072,-19.21113,-19.97373,-20.23644,-20.03461,-19.65955,-19.4652,-19.65573,-20.16568,-20.68191,-20.78764,-20.16167,-18.75155,-16.84893,-15.02613,-13.93952,-14.06202,-15.45257,-17.67552,-19.93155,-21.36626,-21.4297,-20.12189,-18.00466,-15.97003,-14.87191,-15.18851,-16.85851,-19.34316,-21.86316,-23.69498,-24.40965,-23.98083,-22.74866,-21.27005,-20.11204,-19.65478,-19.97018,-20.82492,-21.81395,-22.57117,-22.9544,-23.10126,-23.31396,-23.83162,-24.62703,-25.3647,-25.56601,-24.89473,-23.3874,-21.47388,-19.75874,-18.68903,-18.31443,-18.29296,-18.13837,-17.54616,-16.58174,-15.60751,-15.00325,-14.87818,-14.97982,-14.86922,-14.24403,-13.18184,-12.12514,-11.60426,-11.8779,-12.73396,-13.59017,-13.83438,-13.1839,-11.83255,-10.29897,-9.088954,-8.401652,-8.06601,-7.72667,-7.128858,-6.297395,-5.498738,-5.039465,-5.067747,-5.523208,-6.250556,-7.157177,-8.264627,-9.601584,-11.03414,-12.20425,-12.67914,-12.24486,-11.13577,-9.998715,-9.561522,-10.19743,-11.68428,-13.35301,-14.55754,-15.1559,-15.65149,-16.85436,-19.25697,-22.54544,-25.61535,-27.14219,-26.37583,-23.64675,-20.22901,-17.61357,-16.63853,-17.0332,-17.67442,-17.3894,-15.77662,-13.5003,-11.86106,-11.9261,-13.79653,-16.49989,-18.58265,-19.01677,-17.83222,-16.07299,-15.11867,-15.81827,-17.98547,-20.55074,-22.23644,-22.30457,-20.91871,-18.94433,-17.37699,-16.79355,-17.14971,-17.97966,-18.79005,-19.35604,-19.75285,-20.17281,-20.71889,-21.34105,-21.93484,-22.48332,-23.10074,-23.93628,-25.02375,-26.21,-27.22423,-27.82973,-27.93293,-27.57265,-26.82814,-25.7639,-24.48978,-23.2843,-22.62052,-22.96657,-24.41225,-26.37485,-27.68196,-27.12956,-24.26579,-19.89508,-15.85595,-14.02989,-15.06635,-17.60962,-18.63585,-14.89716,-4.769083,10.54607,27.23383,40.50074,46.79835,45.43503,38.6976,30.45213,24.05743,20.7863,19.59707,18.26162,15.05494,9.931728,4.503595,0.9166532,0.4088269,2.484298,5.208371,6.399835,4.947602,1.435266,-2.27879,-4.223285,-3.482787,-0.6790857,2.471704,4.19666,3.644388,1.244172,-1.694829,-3.822745,-4.481826,-3.916497,-2.909967,-2.153811,-1.786349,-1.380489,-0.3442504,1.568836,3.994319,6.111034,7.107224,6.65072,5.061574,3.085005,1.422377,0.3300183,-0.4542464,-1.415489,-2.800444,-4.308497,-5.160099,-4.524678,-2.049047,1.855091,6.170333,9.809593,12.21441,13.64555,14.97342,17.08415,20.26468,23.95856,27.06465,28.61552,28.42545,27.30113,26.663,27.78224,31.07522,35.8681,40.76424,44.38957,46.07466,46.08812,45.32225,44.667,44.48189,44.48682,44.10522,42.99679,41.40065,40.04425,39.66766,40.47608,41.89453,42.81769,42.23557,39.86816,36.41472,33.23929,31.64628,32.15164,34.1734,36.33522,37.22688,36.19905,33.74069,31.21679,30.10498,31.15582,33.94998,37.10495,39.0173,38.72396,36.39992,33.22171,30.6908,29.81754,30.63347,32.29073,33.65084,33.97918,33.31989,32.3488,31.84333,32.14695,32.98938,33.76561,34.05372,33.98158,34.15523,35.17137,37.04251,38.95427,39.57577,37.78077,33.34908,27.20261,21.00761,16.36696,14.07878,13.88355,14.80054,15.78149,16.23294,16.0905,15.46744,14.20755,11.73177,7.340846,0.7845213,-7.317244,-15.5485,-22.29328,-26.52051,-28.27611,-28.56902,-28.7181,-29.56776,-31.05739,-32.39324,-32.67999,-31.58072,-29.57297,-27.64739,-26.66421,-26.79855,-27.43515,-27.57245,-26.46849,-24.11551,-21.25164,-18.91516,-17.82599,-17.96939,-18.6166,-18.74889,-17.62274,-15.15629,-11.94324,-8.920422,-6.894785,-6.184225,-6.53757,-7.338973,-7.962141,-8.084031,-7.8087,-7.557536,-7.797847,-8.757289,-10.27581,-11.87733,-13.02936,-13.45276,-13.30432,-13.11143,-13.47319,-14.68505,-16.50833,-18.2413,-19.07902,-18.56985,-16.90023,-14.82401,-13.25839,-12.77367,-13.27873,-14.09446,-14.37486,-13.62293,-11.98917,-10.17465,-9.003539,-8.930556,-9.781627,-10.87471,-11.43209,-11.02425,-9.782197,-8.271697,-7.132453,-6.71509,-6.925925,-7.342917,-7.498819,-7.144392,-6.345387,-5.388499,-4.58669,-4.112616,-3.942701,-3.910075,-3.805808,-3.465259,-2.815024,-1.892904,-0.8576998,0.01843315,0.4027609,0.01469841,-1.231528,-3.127438,-5.188584,-6.811092,-7.506848,-7.10296,-5.802976,-4.081445,-2.475733,-1.389739,-1.003693,-1.308526,-2.205749,-3.584867,-5.32587,-7.244232,-9.047823,-10.37189,-10.90198,-10.52572,-9.420778,-8.013606,-6.814915,-6.209637,-6.307122,-6.925337,-7.710698,-8.32488,-8.599808,-8.585155,-8.474133,-8.457823,-8.593942,-8.764728,-8.749195,-8.370882,-7.637504,-6.786567,-6.196952,-6.199463,-6.883428,-8.012381,-9.114613,-9.721573,-9.637374,-9.08934,-8.659406,-9.009939,-10.53361,-13.10917,-16.09744,-18.58937,-19.78605,-19.32623,-17.41189,-14.69373,-11.99715,-10.02964,-9.1875,-9.502846,-10.69743,-12.28393,-13.67859,-14.3266,-13.85068,-12.20114,-9.741194,-7.19051,-5.400809,-5.030076,-6.258814,-8.695552,-11.53433,-13.89699,-15.19405,-15.33013,-14.66793,-13.7956,-13.23645,-13.24847,-13.78733,-14.60718,-15.4091,-15.95101,-16.08501,-15.74461,-14.92491,-13.67947,-12.12533,-10.43355,-8.797548,-7.396657,-6.380535,-5.878632,-6.007777,-6.840648,-8.327413,-10.21508,-12.04113,-13.25356,-13.43179,-12.50004,-10.80032,-8.95618,-7.581512,-6.992237,-7.089185,-7.481486,-7.769551,-7.804156,-7.754786,-7.949334,-8.603422,-9.633833,-10.69237,-11.40049,-11.61991,-11.56153,-11.64375,-12.18684,-13.15343,-14.1253,-14.55194,-14.12003,-13.00117,-11.80532,-11.25557,-11.78168,-13.28488,-15.21653,-16.91212,-17.96348,-18.39743,-18.56508,-18.83747,-19.32181,-19.78501,-19.82161,-19.13872,-17.75978,-16.01543,-14.33926,-13.01634,-12.05566,-11.26523,-10.46843,-9.706437,-9.2836,-9.616233,-10.9707,-13.24577,-15.93065,-18.27478,-19.59601,-19.58525,-18.46579,-16.92357,-15.81701,-15.76699,-16.79341,-18.17437,-18.63971,-16.87563,-12.15637,-4.811027,3.742666,11.48883,16.65398,18.50926,17.71748,16.01283,15.34734,16.93789,20.71711,25.47664,29.60305,31.97427,32.50608,32.06361,31.84212,32.63134,34.41846,36.53874,38.21939,39.11911,39.49985,39.94267,40.84262,42.06487,43.0192,43.10326,42.19524,40.83165,39.92059,40.16486,41.57944,43.43597,44.68782,44.61052,43.25098,41.40518,40.15114,40.2416,41.72882,44.01773,46.25681,47.77694,48.30425,47.87346,46.59439,44.51041,41.67819,38.3872,35.29255,33.27418,33.03621,34.6758,37.51785,40.36758,42.06899,42.0522,40.55044,38.37371,36.40258,35.12839,34.50924,34.18357,33.84475,33.49416,33.40607,33.86082,34.87024,36.11283,37.12943,37.63049,37.68398,37.64444,37.8793,38.49899,39.28959,39.88612,40.0325,39.69981,38.94102,37.57712,34.9762,30.16917,22.33499,11.41789,-1.50469,-14.38765,-24.90751,-31.35234,-33.25631,-31.45763,-27.58278,-23.27122,-19.56808,-16.76681,-14.68639,-13.11336,-12.08266,-11.83113,-12.50996,-13.91187,-15.44624,-16.40771,-16.36889,-15.43447,-14.18337,-13.3315,-13.32844,-14.13621,-15.31128,-16.31244,-16.82174,-16.87814,-16.76455,-16.75584,-16.91542,-17.07473,-16.99139,-16.55796,-15.9088,-15.35302,-15.18568,-15.50554,-16.15257,-16.78982,-17.0636,-16.74315,-15.77911,-14.28683,-12.50127,-10.73795,-9.352261,-8.664755,-8.842994,-9.785593,-11.09129,-12.17193,-12.4863,-11.78515,-10.23133,-8.321317,-6.648921,-5.644049,-5.424823,-5.820407,-6.512727,-7.186847,-7.60682,-7.616186,-7.126209,-6.147767,-4.853014,-3.588386,-2.768495,-2.67029,-3.250926,-4.138654,-4.849222,-5.115041,-5.101645,-5.328063,-6.299554,-8.079574,-10.10917,-11.44496,-11.30388,-9.567102,-6.886047,-4.283372,-2.49334,-1.492983,-0.5721756,1.074834,3.638489,6.389486,8.056301,7.683363,5.390665,2.458913,0.5821209,0.7035551,2.191811,2.964937,0.5955885,-6.212504,-16.67188,-28.10036,-37.18857,-41.62606,-41.153,-37.46724,-33.11848,-30.10958,-29.03597,-29.18489,-29.37995,-28.91969,-27.98531,-27.3269,-27.55293,-28.58864,-29.69364,-29.99291,-29.10421,-27.39956,-25.73031,-24.84439,-24.93522,-25.63641,-26.42293,-27.06658,-27.75953,-28.7879,-30.0082,-30.57136,-29.19744,-24.91735,-17.83272,-9.368787,-1.775491,2.901955,3.815941,1.706213,-1.529943,-3.82781,-3.9403,-1.895574,1.253053,4.15147,5.879073,6.295805,5.892091,5.335464,5.043234,5.024249,5.017272,4.766392,4.226123,3.581737,3.113954,3.027758,3.356349,3.974365,4.679326,5.277799,5.641078,5.733971,5.631146,5.516502,5.641042,6.225972,7.340006,8.819848,10.30001,11.36142,11.73167,11.42618,10.74675,10.1359,9.970842,10.41046,11.36608,12.58461,13.77106,14.67608,15.12515,15.02164,14.36755,13.30586,12.13523,11.23577,10.89816,11.13481,11.60237,11.72742,11.00764,9.333188,7.128898,5.201489,4.348226,4.937335,6.703388,8.882481,10.6114,11.35793,11.13616,10.39942,9.70412,9.370478,9.348915,9.351916,9.133815,8.713244,8.387314,8.537897,9.37106,10.76695,12.33213,13.60647,14.28158,14.29886,13.79309,12.95511,11.92581,10.78349,9.596491,8.459409,7.456835,6.579076,5.678349,4.539605,3.050671,1.357844,-0.1286763,-0.9285644,-0.7881905,0.1142463,1.218797,1.896082,1.844992,1.317556,1.002142,1.610299,3.412617,6.018047,8.547013,10.10073,10.23975,9.181192,7.609817,6.247524,5.471813,5.219599,5.201727,5.235918,5.434983,6.108999,7.463502,9.335829,11.19015,12.40153,12.63827,12.06342,11.19132,10.47906,9.932737,9.018527,6.971381,3.32061,-1.710605,-7.208518,-11.99664,-15.23396,-16.81825,-17.3551,-17.73162,-18.57711,-19.94504,-21.38601,-22.32051,-22.44104,-21.88614,-21.10901,-20.57318,-20.50199,-20.83535,-21.37706,-21.98184,-22.62854,-23.34305,-24.06874,-24.62494,-24.81231,-24.58751,-24.15372,-23.86517,-23.989,-24.49345,-25.03229,-25.16052,-24.64011,-23.61382,-22.50923,-21.73243,-21.3765,-21.17358,-20.74476,-19.96963,-19.18249,-19.00375,-19.87863,-21.63599,-23.41364,-24.07599,-22.90844,-20.14755,-16.9677,-14.87535,-14.85317,-16.78173,-19.51073,-21.5432,-21.90319,-20.64203,-18.68219,-17.13783,-16.58993,-16.80198,-17.03881,-16.72243,-15.92649,-15.33677,-15.69992,-17.16447,-19.01369,-20.02389,-19.23851,-16.63862,-13.2393,-10.52092,-9.556249,-10.40338,-12.15409,-13.58202,-13.93435,-13.33254,-12.54162,-12.32031,-12.8515,-13.67099,-14.12367,-13.96816,-13.62504,-13.82339,-14.8639,-16.04849,-15.77065,-12.3313,-5.027906,5.1813,15.91995,24.47322,29.10123,29.82265,28.22593,26.46018,26.04208,27.18349,28.97242,30.18839,30.16505,29.15172,28.01147,27.54529,27.94597,28.74123,29.21406,28.96142,28.18853,27.5548,27.71115,28.86543,30.65973,32.40359,33.46802,33.57187,32.81396,31.50432,29.97041,28.47647,27.25439,26.53109,26.45265,26.9291,27.5439,27.66854,26.7802,24.80129,22.21461,19.82923,18.31257,17.79047,17.80144,17.66198,17.00677,16.12044,15.7959,16.77376,19.12387,22.00569,24.02041,23.98255,21.64618,17.92321,14.43443,12.64713,13.10673,15.20547,17.59438,18.95949,18.69198,17.09088,15.05278,13.50756,12.96283,13.38405,14.38456,15.51637,16.44919,16.9738,16.9274,16.1853,14.76721,12.96222,11.31445,10.39667,10.47268,11.27313,12.0734,12.07238,10.85524,8.641281,6.142552,4.115531,2.902273,2.272813,1.677712,0.7322069,-0.4178351,-1.126796,-0.6828342,1.140461,3.802384,6.208055,7.312497,6.739823,5.013169,3.233495,2.401832,2.813532,3.907282,4.655445,4.231954,2.521135,0.1475183,-1.97035,-3.226483,-3.685619,-3.964509,-4.736766,-6.212665,-7.954481,-9.153049,-9.177178,-8.025044,-6.375348,-5.203683,-5.213639,-6.4453,-8.2976,-9.927628,-10.75389,-10.7434,-10.32441,-10.01921,-10.06488,-10.27499,-10.215,-9.547598,-8.298574,-6.860841,-5.740922,-5.226269,-5.199596,-5.221687,-4.824261,-3.820009,-2.433103,-1.175157,-0.5544052,-0.8033309,-1.785582,-3.119856,-4.421821,-5.501258,-6.396429,-7.244548,-8.097674,-8.825317,-9.181154,-8.994304,-8.352915,-7.640591,-7.372758,-7.909425,-9.212245,-10.80612,-11.99514,-12.22984,-11.4188,-9.992827,-8.664538,-8.00864,-8.107856,-8.487175,-8.395417,-7.280249,-5.170105,-2.715411,-0.8399252,-0.1970613,-0.7631688,-1.834692,-2.456887,-2.039768,-0.7835669,0.3663595,0.2367969,-1.874206,-5.729241,-10.19942,-13.80882,-15.46211,-14.93886,-12.88803,-10.36174,-8.196404,-6.617121,-5.275246,-3.644552,-1.484424,0.9388872,3.000152,4.10901,4.072794,3.189138,2.021273,1.021443,0.2597418,-0.5659214,-1.85553,-3.757691,-5.977239,-7.865448,-8.739392,-8.241747,-6.538217,-4.254435,-2.201822,-1.043903,-1.061084,-2.09845,-3.683796,-5.237828,-6.286088,-6.607297,-6.285974,-5.661741,-5.187246,-5.232277,-5.902213,-6.954628,-7.874031,-8.096369,-7.290383,-5.552641,-3.398103,-1.52789,-0.4816407,-0.3596337,-0.7771534,-1.092191,-0.7922164,0.1752123,1.324925,1.872565,1.172512,-0.8830678,-3.733203,-6.373403,-7.828528,-7.623075,-5.995525,-3.744203,-1.797544,-0.7538461,-0.6453841,-1.043695,-1.419311,-1.521913,-1.544704,-1.978154,-3.254874,-5.415635,-8.009415,-10.2908,-11.59484,-11.66709,-10.76684,-9.508221,-8.558305,-8.373041,-9.093412,-10.59905,-12.62157,-14.81838,-16.78815,-18.09289,-18.36261,-17.47838,-15.72541,-13.77155,-12.41158,-12.17879,-13.05027,-14.45415,-15.6149,-16.04731,-15.8873,-15.82605,-16.66104,-18.73575,-21.63454,-24.35099,-25.84564,-25.64651,-24.10372,-22.12577,-20.56185,-19.63257,-18.7877,-17.09478,-13.91422,-9.422713,-4.635699,-0.8954174,0.8709325,0.6727591,-0.5558053,-1.48777,-1.132657,0.6618335,3.206897,5.436298,6.542556,6.419536,5.685948,5.314052,6.095158,8.231603,11.2464,14.22316,16.23309,16.74048,15.81337,14.06545,12.37062,11.48002,11.70861,12.83015,14.23107,15.25302,15.55377,15.29428,15.04195,15.43453,16.79232,18.9081,21.14808,22.81185,23.53677,23.49838,23.2811,23.50005,24.41311,25.76855,26.98262,27.52871,27.28628,26.62688,26.18718,26.47852,27.58059,29.10335,30.42497,31.04315,30.82072,29.99293,28.96553,28.06085,27.38176,26.86436,26.45168,26.23898,26.46652,27.34632,28.83118,30.48704,31.58177,31.38096,29.51638,26.23411,22.37282,19.04974,17.18093,17.05948,18.20587,19.58361,20.09289,19.10453,16.76101,13.88316,11.53068,10.45971,10.78359,12.02617,13.51779,14.86728,16.18735,17.90516,20.26646,22.86529,24.55004,23.84165,19.67758,12.06846,2.275095,-7.623894,-15.55699,-20.24584,-21.56511,-20.35455,-17.87014,-15.223,-13.08434,-11.71166,-11.14165,-11.33919,-12.20119,-13.48022,-14.77352,-15.65902,-15.91162,-15.63357,-15.1742,-14.87363,-14.81693,-14.79908,-14.55021,-14.05954,-13.7282,-14.17708,-15.78296,-18.24492,-20.51468,-21.21669,-19.35964,-14.92316,-8.947377,-3.0459,1.383309,3.791197,4.603585,4.810994,5.31724,6.4582,7.950225,9.226476,9.879227,9.899364,9.586462,9.248162,8.939948,8.436951,7.439127,5.840638,3.86146,1.954905,0.568181,-0.07672037,-0.05384535,0.3520906,0.7947675,0.9783907,0.7032882,-0.1112693,-1.379387,-2.794662,-3.855111,-4.038186,-3.089372,-1.261408,0.6909991,1.837217,1.579895,0.04711396,-1.912774,-3.19221,-3.105722,-1.881841,-0.6352111,-0.7891882,-3.260224,-7.878106,-13.39048,-18.05977,-20.51551,-20.38764,-18.39227,-15.86972,-14.07636,-13.63149,-14.38027,-15.66609,-16.78561,-17.34873,-17.38246,-17.19877,-17.16795,-17.54333,-18.39976,-19.65833,-21.13664,-22.59094,-23.7594,-24.4272,-24.50562,-24.0823,-23.39885,-22.75408,-22.38482,-22.39453,-22.76449,-23.41889,-24.2761,-25.23848,-26.1379,-26.7088,-26.65416,-25.79767,-24.23015,-22.33138,-20.61341,-19.45289,-18.8724,-18.52164,-17.89135,-16.64151,-14.84241,-12.97497,-11.6869,-11.45462,-12.35493,-14.07033,-16.09632,-17.99663,-19.54472,-20.69316,-21.44547,-21.7666,-21.61621,-21.06845,-20.39115,-19.97276,-20.10198,-20.73773,-21.45033,-21.6242,-20.83809,-19.20038,-17.41337,-16.48854,-17.24553,-19.86695,-23.75993,-27.80294,-30.84036,-32.15862,-31.70755,-29.99109,-27.73544,-25.54181,-23.69735,-22.19367,-20.87662,-19.60066,-18.30185,-16.98656,-15.6936,-14.48366,-13.45992,-12.7751,-12.57989,-12.91761,-13.63104,-14.36671,-14.71419,-14.42897,-13.61349,-12.73136,-12.41108,-13.11996,-14.878,-17.17969,-19.18905,-20.12488,-19.64169,-18.00352,-15.95261,-14.33652,-13.68852,-13.98077,-14.67651,-15.04517,-14.56494,-13.19749,-11.39698,-9.864589,-9.193125,-9.591718,-10.82001,-12.33829,-13.5701,-14.13618,-13.96184,-13.24403,-12.33139,-11.58707,-11.27718,-11.49507,-12.12379,-12.85406,-13.28386,-13.09697,-12.25559,-11.09138,-10.19317,-10.08841,-10.85325,-11.87431,-11.94816,-9.737559,-4.393469,3.9735,14.2384,24.67849,33.66002,40.24683,44.43387,46.92701,48.64209,50.2283,51.86331,53.37084,54.51121,55.21761,55.63153,55.95594,56.2744,56.48979,56.42948,56.02938,55.45023,55.03126,55.10683,55.8079,56.9768,58.24285,59.20206,59.59084,59.368,58.69103,57.83057,57.07541,56.65049,56.64464,56.95421,57.28014,57.22462,56.48735,55.07836,53.40983,52.16474,51.96842,53.03231,54.99224,57.06765,58.46984,58.81613,58.28803,57.43281,56.74722,56.33361,55.86953,54.90908,53.29303,51.35976,49.78831,49.17099,49.61474,50.65617,51.55198,51.73689,51.12546,50.06097,48.98657,48.12276,47.41368,46.76666,46.34243,46.58234,47.86479,50.02206,52.14935,53.00019,51.83745,49.18583,46.85162,46.96965,50.49972,56.08675,60.13896,58.32504,47.80978,28.9987,5.734846,-16.26915,-31.96581,-39.11143,-38.88633,-34.77276,-30.46261,-28.05035,-27.46805,-27.27294,-26.07181,-23.57708,-20.67277,-18.60977,-18.02641,-18.52866,-19.08845,-18.9007,-18.02586,-17.33755,-17.82822,-19.79969,-22.54206,-24.74244,-25.33814,-24.21597,-22.27583,-20.82587,-20.73341,-21.90429,-23.4147,-24.16739,-23.60744,-22.03224,-20.33916,-19.43557,-19.72454,-20.96978,-22.5482,-23.84658,-24.52178,-24.51231,-23.904,-22.83696,-21.5432,-20.42912,-20.032,-20.77193,-22.6223,-24.95848,-26.77851,-27.24041,-26.20086,-24.37773,-22.96953,-22.92632,-24.32915,-26.29925,-27.52646,-27.09189,-25.04927,-22.37638,-20.32527,-19.60681,-19.9604,-20.39973,-19.96288,-18.44606,-16.60627,-15.67874,-16.52552,-18.99131,-21.91319,-23.79795,-23.73637,-21.96554,-19.72072,-18.48028,-19.09124,-21.32055,-24.08226,-26.1508,-26.8786,-26.47328,-25.71007,-25.32862,-25.54135,-25.96126,-25.9456,-25.07437,-23.42345,-21.47174,-19.75367,-18.53413,-17.73433,-17.12667,-16.61022,-16.32969,-16.53754,-17.3121,-18.36883,-19.14244,-19.11739,-18.19047,-16.80646,-15.75092,-15.71358,-16.89209,-18.88,-20.89672,-22.20054,-22.42775,-21.67699,-20.34411,-18.86912,-17.57696,-16.67865,-16.3506,-16.74962,-17.89695,-19.51163,-20.96665,-21.48971,-20.55653,-18.25186,-15.33976,-12.93824,-11.94634,-12.55433,-14.14456,-15.66019,-16.22408,-15.6252,-14.37081,-13.2824,-12.91017,-13.15787,-13.36708,-12.80219,-11.20791,-9.061035,-7.338935,-6.9457,-8.160645,-10.45715,-12.79851,-14.2137,-14.2911,-13.30117,-11.91345,-10.72947,-9.946692,-9.346888,-8.56534,-7.412729,-6.013013,-4.679384,-3.651949,-2.916201,-2.245885,-1.429992,-0.4933846,0.2810822,0.5695304,0.3110172,-0.1425461,-0.1813343,0.6657047,2.34565,4.187277,5.208435,4.676018,2.589148,-0.2203349,-2.456231,-3.001105,-1.475313,1.595256,5.07824,7.812218,9.136588,9.109202,8.349989,7.657883,7.638471,8.51803,10.17132,12.26655,14.40469,16.19592,17.30053,17.49245,16.75814,15.37069,13.84901,12.76498,12.46764,12.87679,13.48713,13.61317,12.75743,10.89789,8.52552,6.404747,5.191801,5.127847,5.97486,7.213604,8.368096,9.253778,10.0056,10.88584,12.01034,13.17985,13.93622,13.82163,12.6912,10.88892,9.168154,8.379022,9.077288,11.25792,14.35451,17.50627,19.95284,21.35134,21.85638,21.93712,22.05201,22.37705,22.74402,22.81314,22.3586,21.47609,20.5724,20.13959,20.45811,21.42331,22.61111,23.54114,23.96328,23.97822,23.91612,24.06633,24.45625,24.84357,24.93162,24.65056,24.28743,24.34701,25.21734,26.86663,28.7944,30.295,30.87294,30.53344,29.74659,29.10648,28.92243,29.03394,28.98453,28.42818,27.46064,26.60586,26.43084,27.04501,27.85846,27.82437,26.06277,22.47375,17.91055,13.74127,11.02807,9.829092,9.086046,7.210376,3.040024,-3.408452,-10.85669,-17.41072,-21.55625,-22.92151,-22.38483,-21.51089,-21.69114,-23.49922,-26.58791,-30.09279,-33.21275,-35.58709,-37.28634,-38.51882,-39.32911,-39.52309,-38.85306,-37.29445,-35.18683,-33.12479,-31.67296,-31.10148,-31.31129,-31.97405,-32.76413,-33.51532,-34.21659,-34.89409,-35.5074,-35.95635,-36.18595,-36.2826,-36.45372,-36.87868,-37.5339,-38.13747,-38.28507,-37.71087,-36.50219,-35.10897,-34.11563,-33.90166,-34.39912,-35.10228,-35.33205,-34.60413,-32.893,-30.65372,-28.60782,-27.42372,-27.45698,-28.6544,-30.62568,-32.81148,-34.66364,-35.78483,-36.01136,-35.43589,-34.36174,-33.18482,-32.22972,-31.60751,-31.17668,-30.64728,-29.78342,-28.58562,-27.3285,-26.40979,-26.0892,