Bandpass,0,0.49933,-64.97965,-130.4549,-166.9817,-171.4703,-153.4978,-129.3274,-113.3049,-111.4077,-120.1398,-130.689,-135.2619,-131.6529,-123.6397,-117.5784,-117.8694,-124.29,-132.667,-138.0292,-137.8987,-133.5565,-128.6703,-126.5288,-127.8742,-130.7598,-132.2925,-130.8781,-127.3188,-124.103,-123.4975,-125.9011,-129.6078,-132.0591,-131.6258,-128.6211,-124.8999,-122.4227,-121.8936,-122.4271,-122.4104,-120.8184,-117.9548,-115.0675,-113.1837,-112.1049,-110.3986,-106.4527,-99.84223,-91.9622,-85.37627,-82.25043,-82.92764,-85.64616,-87.63836,-86.89175,-83.38202,-78.96282,-75.99023,-75.65409,-77.16257,-78.32104,-77.09453,-73.06046,-67.76292,-63.75684,-63.01209,-65.76744,-70.55247,-75.2785,-78.56538,-80.38663,-81.66096,-83.20169,-84.89352,-85.73466,-84.7009,-81.73529,-78.05515,-75.46626,-75.13461,-76.71614,-78.5218,-78.67094,-76.45155,-72.89569,-70.1069,-69.73072,-71.61665,-73.62909,-72.82679,-67.2914,-57.42704,-45.85522,-35.96849,-30.04929,-28.15957,-28.4523,-28.61092,-27.38684,-25.19654,-23.43432,-23.08245,-23.68699,-23.51111,-20.82146,-15.42383,-9.324584,-5.917099,-8.061898,-16.19823,-27.67189,-37.76986,-41.93185,-37.92355,-26.79296,-12.1659,1.621492,11.48135,16.61741,18.28419,18.62992,19.41153,21.2748,23.82662,26.24133,27.91668,28.79993,29.299,29.9418,31.02344,32.40215,33.48383,33.37468,31.17478,26.37248,19.22405,10.92281,3.359207,-1.554911,-2.75361,-0.6191303,3.090748,6.072882,6.678406,4.808625,1.927309,0.1048678,0.612783,2.920847,4.773348,3.39414,-2.826771,-13.15844,-24.60476,-33.25811,-36.20817,-32.94728,-25.50931,-17.30117,-11.32471,-8.782908,-8.780093,-9.155843,-7.86187,-4.061785,1.603799,7.592597,12.41118,15.34611,16.62677,17.06887,17.54283,18.61173,20.47587,23.09676,26.28327,29.62497,32.36028,33.39398,31.60371,26.36662,18.02892,8.00135,-1.645541,-8.938123,-12.73378,-13.06654,-10.94797,-7.772801,-4.674086,-2.161002,-0.1718001,1.584898,3.272654,4.79126,5.918975,6.590796,7.084879,7.95893,9.75439,12.64781,16.27291,19.84033,22.50712,23.79432,23.81955,23.21974,22.80146,23.12813,24.26808,25.84716,27.3617,28.55603,29.62476,31.10176,33.48772,36.84095,40.60591,43.83684,45.75426,46.34743,46.67756,48.64845,54.27327,64.74715,79.75484,97.36327,114.5915,128.4333,136.9254,139.8122,138.5769,135.8149,134.2147,135.5069,139.7534,145.2332,149.0004,147.9566,140.1041,125.5005,106.4944,87.04947,71.34196,62.18388,59.97572,62.70665,67.04176,69.97572,70.21731,68.56767,67.10901,67.66107,70.40367,73.47469,73.79495,68.68048,57.31723,41.28408,23.84444,8.437184,-2.778725,-9.568413,-13.21965,-15.4779,-17.52172,-19.54685,-21.06083,-21.53406,-20.89007,-19.53652,-18.01975,-16.6595,-15.476,-14.43713,-13.75329,-13.89825,-15.26237,-17.68626,-20.29224,-21.85354,-21.54051,-19.52926,-16.96844,-15.2074,-14.74575,-14.66415,-13.08082,-8.512232,-1.338974,5.657358,8.258581,2.942605,-10.96034,-30.39565,-49.65393,-62.93375,-67.04084,-62.74999,-54.09682,-46.05669,-41.97583,-42.17501,-44.40656,-45.68274,-44.25486,-40.5314,-36.50486,-34.22758,-34.42817,-36.15997,-37.6141,-37.44286,-35.64138,-33.41375,-32.1955,-32.57613,-33.91309,-34.89301,-34.60564,-33.32045,-32.36947,-33.17226,-36.06959,-39.80692,-42.08552,-40.89962,-35.82127,-28.40476,-21.41942,-17.36383,-17.15045,-19.73841,-22.87999,-24.46846,-23.64683,-21.04531,-18.10601,-16.02382,-15.02177,-14.39542,-13.22293,-11.20612,-9.055985,-8.16465,-9.786257,-14.2494,-20.68392,-27.40271,-32.69384,-35.56326,-36.06112,-35.09285,-33.89856,-33.50094,-34.34621,-36.20295,-38.26354,-39.37401,-38.35619,-34.41182,-27.53203,-18.74098,-9.97112,-3.479386,-0.9499909,-2.658928,-7.135395,-11.57004,-12.86601,-8.883392,0.6940372,14.27055,29.04118,42.11787,51.53845,56.7292,58.32763,57.59072,55.78106,53.83263,52.34879,51.76596,52.42429,54.42239,57.34105,60.0822,61.06084,58.778,52.55773,43.06031,32.2303,22.61557,16.31505,14.0538,14.86033,16.53936,16.7351,14.06027,8.71965,2.311858,-3.071655,-5.957299,-6.205172,-4.955029,-3.863289,-4.101711,-5.712813,-7.698813,-8.76613,-8.24466,-6.583095,-5.08042,-4.993453,-6.57001,-8.637777,-9.066731,-5.896868,1.498589,11.89672,22.6858,31.07131,35.37305,35.71294,33.75611,31.70995,31.1804,32.5121,34.90116,37.10103,38.22826,38.1977,37.60414,37.24194,37.62427,38.78621,40.39555,41.97089,42.98046,42.76901,40.47278,35.16205,26.29814,14.30266,0.8504889,-11.44759,-19.97727,-23.2678,-21.73982,-17.58726,-13.78203,-12.69095,-15.03415,-19.73912,-24.73323,-28.1906,-29.5038,-29.44441,-29.48555,-30.75897,-33.32151,-36.17878,-38.01982,-38.16479,-37.09127,-36.17878,-36.80315,-39.32596,-42.61158,-44.39777,-42.35846,-35.28747,-23.77286,-10.01748,3.078356,13.07392,18.8164,20.60332,19.72782,17.75813,15.95834,15.0761,15.44407,17.16148,20.14425,24.0147,27.99567,31.02558,32.16063,31.09473,28.4501,25.56605,23.77904,23.5435,23.92113,22.83524,18.08259,8.622808,-4.561309,-18.58693,-29.81526,-35.48297,-34.97046,-30.01956,-23.77029,-19.13583,-17.39989,-17.7835,-18.1666,-16.48977,-12.00418,-5.660622,0.5157574,4.625472,5.914503,5.030823,3.445513,2.484657,2.615949,3.406637,4.085433,4.24447,4.158719,4.512044,5.768697,7.691697,9.403726,9.984387,9.184011,7.712522,6.829538,7.455048,9.387917,11.20868,11.02144,7.628749,1.401873,-5.752976,-11.39539,-13.96488,-13.76591,-12.90049,-14.14582,-19.39743,-28.56841,-39.56598,-49.34085,-55.40193,-56.94942,-55.05012,-51.83926,-49.286,-48.23297,-48.21095,-48.03111,-46.73561,-44.31802,-41.81066,-40.7145,-42.09705,-45.84299,-50.44062,-53.43348,-52.35323,-45.75551,-33.91502,-18.86559,-3.713065,8.54244,16.20634,19.57524,20.75731,22.65274,27.53773,35.93167,46.33086,55.96624,62.21332,63.9225,61.96191,58.71285,56.80276,57.79535,61.52731,66.39349,70.34084,71.96659,71.13425,68.86432,66.6825,65.85827,66.90093,69.44251,72.39552,74.19644,73.09437,67.54214,56.75383,41.28537,23.29857,6.161325,-6.673701,-13.09558,-13.33733,-9.918133,-6.426235,-5.729058,-8.595147,-13.52599,-17.89303,-19.67175,-18.68981,-16.61574,-15.73909,-17.38651,-21.06721,-24.93395,-27.22978,-27.67185,-27.72374,-29.44512,-33.63375,-38.56588,-40.35956,-34.97495,-20.73542,0.209208,22.52627,40.23729,49.73713,51.51711,49.53536,48.59271,51.26757,56.24706,59.04619,54.67118,40.64444,18.63636,-6.182611,-27.61151,-41.24732,-46.14076,-44.5477,-40.19863,-36.25119,-34.08773,-33.40559,-33.21313,-32.87772,-32.54426,-32.79817,-34.00845,-35.92672,-37.83709,-39.08951,-39.56451,-39.71089,-40.14312,-41.13479,-42.39576,-43.30214,-43.38638,-42.70781,-41.83057,-41.43218,-41.84377,-42.86009,-43.93497,-44.59502,-44.73736,-44.60218,-44.46519,-44.33295,-43.90485,-42.85428,-41.19718,-39.43024,-38.27125,-38.15527,-38.84635,-39.49064,-39.13202,-37.36687,-34.68534,-32.23544,-31.13187,-31.7611,-33.5471,-35.33938,-36.16121,-35.81114,-34.92031,-34.4506,-35.00348,-36.42987,-37.99306,-38.93408,-38.99766,-38.52511,-38.06649,-37.84058,-37.50238,-36.4439,-34.42501,-32.03605,-30.54136,-31.10231,-33.84153,-37.42758,-39.57516,-38.27424,-33.03458,-25.34124,-17.96698,-13.4851,-12.85437,-14.92382,-17.16149,-17.16241,-14.029,-8.821941,-3.871166,-1.425992,-2.481698,-6.431827,-11.63888,-16.45291,-20.01103,-22.39509,-24.20068,-25.94132,-27.72776,-29.37418,-30.72751,-31.87467,-33.03139,-34.23028,-35.12204,-35.13254,-33.91712,-31.76214,-29.56237,-28.2711,-28.1391,-28.27969,-26.95766,-22.54364,-14.59981,-4.406006,5.471203,12.38832,14.93501,13.58755,10.32938,7.492292,6.521019,7.378423,8.876385,9.640169,9.057057,7.632232,6.604037,7.141071,9.663922,13.68402,18.16972,22.12413,24.99035,26.70025,27.47118,27.60811,27.48264,27.63867,28.81625,31.72277,36.60902,42.92953,49.39186,54.48119,57.21365,57.66017,56.88806,56.3142,56.8518,58.38385,59.9053,60.23962,58.86434,56.30912,53.8718,52.84667,53.76868,56.14634,58.81989,60.65902,61.13859,60.43341,59.05997,57.39448,55.44769,53.04648,50.22734,47.47176,45.53831,44.96682,45.63793,46.76301,47.39027,47.11827,46.48426,46.68474,48.72692,52.56859,56.88111,59.71897,59.75658,57.30671,54.3605,53.46159,55.97685,60.81125,64.44833,62.48407,51.91285,32.93156,9.218801,-13.53005,-30.06473,-37.75484,-37.38485,-32.27308,-26.33678,-22.23579,-20.54861,-20.24198,-19.92002,-18.95904,-17.83958,-17.58727,-18.82743,-21.16385,-23.3153,-23.89872,-22.31379,-19.13073,-15.72906,-13.43649,-12.73185,-13.01444,-13.06313,-11.86376,-9.267603,-6.080348,-3.556792,-2.652762,-3.503718,-5.428043,-7.399333,-8.652588,-9.044132,-8.98034,-9.024998,-9.478681,-10.19903,-10.73628,-10.64044,-9.713367,-8.060369,-5.968695,-3.761115,-1.753213,-0.3119561,0.1168692,-0.8503327,-3.221869,-6.329126,-8.802022,-8.975295,-5.618999,1.365312,10.69973,20.14911,27.45308,31.30437,31.85292,30.46553,28.89096,28.31411,28.83743,29.65179,29.73753,28.63065,26.7646,25.19422,24.89674,26.10952,28.12078,29.63908,29.50335,27.3015,23.54952,19.36643,15.88383,13.7531,12.99925,13.22821,13.98118,14.98642,16.18768,17.61219,19.23967,20.99166,22.82217,24.7899,27.00506,29.46574,31.91965,33.90134,34.96841,34.9955,34.29612,33.44671,32.89846,32.64167,32.20475,31.03898,29.05523,26.91459,25.78494,26.62357,29.40976,32.86396,34.94978,33.97367,29.67389,23.63126,18.68301,17.61366,21.83226,30.76869,42.28327,53.77797,63.29832,69.98783,73.73428,74.41365,71.40495,63.82314,51.37486,35.22963,18.20373,3.948554,-4.526047,-6.192543,-2.432307,3.71352,9.049666,11.64366,11.40852,9.641335,7.934776,7.188514,7.284749,7.490769,7.178798,6.309774,5.382417,4.972854,5.278896,6.025328,6.758687,7.228736,7.482807,7.548425,6.957984,4.573922,-0.9843143,-10.44488,-23.06376,-36.50033,-47.63491,-53.98623,-54.95028,-52.11521,-48.4306,-46.67804,-48.12954,-52.14458,-56.87893,-60.59896,-62.74604,-64.09828,-65.98218,-69.10558,-72.79739,-75.17042,-74.11397,-68.52171,-59.00787,-47.72344,-37.39862,-30.16854,-26.79014,-26.56181,-27.8527,-28.86529,-28.24952,-25.38881,-20.3938,-13.95162,-7.125635,-1.108089,3.094922,4.996633,4.834137,3.491455,2.115509,1.592816,2.167083,3.415016,4.582315,5.053429,4.658871,3.651179,2.428009,1.25031,0.1816423,-0.7270449,-1.206299,-0.7453077,1.122787,4.397381,8.379051,11.87698,13.80413,13.80764,12.50553,11.13148,10.78781,11.78978,13.53732,14.99146,15.3967,14.7067,13.37931,11.68872,9.104892,4.309403,-4.009053,-16.02223,-30.08183,-43.0865,-51.84975,-54.73904,-52.59008,-48.27792,-45.14199,-45.17979,-48.09235,-51.73042,-53.61489,-52.53419,-49.20807,-45.65594,-43.75917,-44.02784,-45.38692,-46.06685,-44.92735,-42.25047,-39.45496,-37.96684,-38.08762,-38.71256,-38.12908,-35.33884,-30.94099,-26.8914,-25.24411,-26.71898,-30.10909,-32.98941,-33.29666,-30.71371,-26.89222,-24.31681,-24.5504,-27.05992,-29.45778,-29.05099,-24.68536,-17.6319,-10.87571,-7.225674,-7.477984,-9.871356,-11.24888,-9.224257,-3.969627,1.552471,3.121372,-2.344113,-14.95924,-31.69683,-47.92547,-59.71926,-65.6034,-66.83157,-66.23499,-66.4742,-68.76196,-72.66689,-76.86279,-80.16058,-82.1301,-83.06215,-83.51422,-83.90328,-84.44674,-85.3517,-86.93977,-89.45339,-92.62836,-95.41625,-96.20599,-93.57428,-87.15276,-78.03265,-68.36192,-60.32399,-55.10342,-52.50075,-51.41088,-50.78689,-50.36316,-50.57335,-51.70294,-52.924,-52.03266,-46.30746,-34.11533,-16.29923,3.629285,20.81426,31.2869,33.87745,30.69869,25.89117,23.33086,24.60255,28.35755,31.3458,30.43741,24.42492,14.6161,4.000725,-4.38339,-8.879836,-9.676705,-8.212139,-6.061735,-4.05828,-2.115153,0.3071551,3.555255,7.448932,11.44069,15.05857,18.23668,21.26989,24.4487,27.68906,30.47601,32.19117,32.59326,32.08778,31.55965,31.85206,33.23533,35.22868,36.89855,37.44582,36.68779,35.13111,33.61026,32.75729,32.67374,33.00999,33.36436,33.6782,34.31501,35.73867,38.01677,40.51733,42.06918,41.55274,38.58275,33.85528,28.91409,25.42787,24.38509,25.65256,28.13593,30.4244,31.52372,31.2604,30.16601,28.97604,28.10742,27.45612,26.62081,25.36497,23.96545,23.17632,23.79789,26.12132,29.62531,33.16156,35.56057,36.3093,35.87496,35.44982,36.2335,38.67899,42.16345,45.31849,46.84856,46.35932,44.67434,43.41969,44.08352,47.10102,51.51859,55.47214,57.21965,56.1362,53.08006,49.90877,48.4283,49.39351,52.14781,55.09344,56.68169,56.31015,54.59256,52.8772,52.35726,53.35789,55.23639,56.91946,57.68149,57.63188,57.59403,58.48198,60.61761,63.45939,65.92506,67.07969,66.71869,65.45267,64.25863,63.81767,64.10547,64.50385,64.32383,63.34864,61.98674,60.93552,60.60405,60.75165,60.64333,59.64291,57.82476,56.1217,55.82008,57.66888,61.17622,64.60169,65.73531,63.05681,56.59458,47.97557,39.62988,33.61733,30.74185,30.40841,31.20251,31.75766,31.37754,30.11936,28.4474,26.81354,25.48574,24.66415,24.65096,25.79025,28.11045,30.92007,32.74715,31.85301,27.14352,18.96116,9.196004,0.5213684,-4.906093,-6.557235,-5.788016,-5.058538,-6.550436,-10.98469,-17.31455,-23.43412,-27.42773,-28.59,-27.63694,-26.07073,-25.1822,-25.35811,-26.09047,-26.58291,-26.45389,-26.01248,-25.92382,-26.53898,-27.4095,-27.38248,-25.26476,-20.63848,-14.28596,-7.920674,-3.357617,-1.605218,-2.399897,-4.425,-6.050442,-6.151964,-4.582448,-2.112282,0.03150922,0.7287362,-0.6377017,-4.051648,-8.943458,-14.37455,-19.2658,-22.66323,-24.02714,-23.45031,-21.66708,-19.7725,-18.73328,-18.93782,-20.06086,-21.35233,-22.18921,-22.52701,-22.92685,-24.10746,-26.30234,-28.88831,-30.59849,-30.25521,-27.58128,-23.53544,-19.891,-18.25619,-19.12861,-21.59181,-23.88361,-24.50439,-23.17386,-21.0166,-19.84171,-20.96122,-24.30119,-28.37763,-31.15977,-31.28208,-28.83836,-25.27274,-22.45817,-21.5627,-22.42202,-23.78365,-24.21911,-23.08413,-20.90546,-18.97186,-18.44151,-19.57209,-21.57766,-23.17765,-23.4516,-22.42305,-21.00076,-20.33495,-21.0283,-22.7152,-24.27125,-24.50373,-22.88343,-19.87645,-16.70038,-14.68217,-14.60391,-16.38998,-19.25277,-22.15541,-24.30893,-25.46659,-25.92595,-26.30798,-27.2518,-29.14362,-31.95315,-35.20606,-38.11052,-39.82815,-39.812,-38.08233,-35.27817,-32.4125,-30.41613,-29.69859,-29.98244,-30.5279,-30.63044,-30.0874,-29.33481,-29.14598,-30.07475,-32.00526,-34.1193,-35.3327,-34.94122,-33.0695,-30.62436,-28.77065,-28.25492,-28.99768,-30.20631,-30.92134,-30.63619,-29.58615,-28.54114,-28.25555,-28.95341,-30.18962,-31.16604,-31.28125,-30.54289,-29.57988,-29.25944,-30.16473,-32.26832,-34.98144,-37.50994,-39.26987,-40.10734,-40.23176,-39.97148,-39.55222,-39.04363,-38.45701,-37.87434,-37.46504,-37.38276,-37.62654,-38.00885,-38.2719,-38.27061,-38.07799,-37.91027,-37.92463,-38.04991,-38.01011,-37.54798,-36.70093,-35.89038,-35.70869,-36.49846,-38.00953,-39.41056,-39.7281,-38.47698,-36.0756,-33.7181,-32.69132,-33.49231,-35.27645,-36.01895,-33.38804,-25.89725,-13.73729,1.159787,15.86037,27.58775,34.7257,37.22694,36.32626,33.81252,31.26785,29.60053,28.9784,29.04732,29.24305,29.05354,28.18729,26.66137,24.81713,23.23089,22.50128,22.96528,24.48006,26.42297,27.96215,28.48242,27.92396,26.81795,25.96857,25.96175,26.80368,27.92247,28.5376,28.16282,26.91062,25.40436,24.35417,24.08562,24.33566,24.45087,23.84831,22.42217,20.62905,19.20081,18.69392,19.184,20.29866,21.53954,22.63847,23.68429,24.93549,26.47621,27.99241,28.86292,28.52118,26.84043,24.25942,21.54601,19.35445,17.88032,16.85518,15.86978,14.77792,13.86098,13.61216,14.28667,15.55818,16.58019,16.46868,14.9141,12.49838,10.45909,10.00088,11.57095,14.56271,17.64835,19.53669,19.67324,18.44003,16.75504,15.36934,14.36251,13.18489,11.20277,8.338775,5.315447,3.280813,3.025204,4.315518,5.825823,5.779109,2.947423,-2.590097,-9.39659,-15.36936,-18.76348,-18.9562,-16.55596,-12.88072,-9.205628,-6.247006,-4.130335,-2.717807,-1.949033,-1.902064,-2.557458,-3.520148,-4.014556,-3.260157,-1.016837,2.096091,4.803292,5.853048,4.781952,2.265601,-0.2081673,-1.180794,-0.0714418,2.499413,5.116654,6.450868,6.053536,4.571212,3.264704,3.167703,4.438418,6.311945,7.650685,7.701799,6.552722,5.005253,3.987125,3.92741,4.521964,5.025021,4.835888,3.95122,2.965265,2.627995,3.285454,4.607307,5.796536,6.138558,5.502625,4.443064,3.824612,4.227324,5.539926,7.021748,7.794842,7.433822,6.258328,5.132707,4.910415,5.889791,7.634492,9.261504,9.990506,9.594391,8.469581,7.318778,6.68502,6.658546,6.929521,7.11495,7.093483,7.106862,7.554932,8.649229,10.18181,11.59013,12.28404,12.01646,11.04824,9.995572,9.458385,9.674162,10.41178,11.16382,11.49612,11.32783,10.96779,10.90355,11.49015,12.73507,14.29993,15.69556,16.5378,16.71588,16.39757,15.89944,15.51444,15.38755,15.48617,15.6518,15.70102,15.535,15.2225,15.02277,15.31498,16.43014,18.43681,20.98955,23.35427,24.65744,24.27669,22.18562,19.04583,15.95961,13.98157,13.64082,14.73546,16.51505,18.13951,19.13915,19.60785,20.02823,20.86714,22.21592,23.7081,24.75533,24.92698,24.20848,22.97034,21.68571,20.6124,19.67555,18.63162,17.38319,16.19072,15.59155,16.04781,17.55495,19.50089,20.92112,21.02752,19.69262,17.56769,15.72962,15.05242,15.67718,16.91019,17.61568,16.8698,14.48176,11.08272,7.748205,5.400963,4.358324,4.267869,4.426333,4.243995,3.557386,2.625587,1.861904,1.516677,1.526236,1.607072,1.496503,1.154123,0.7846619,0.6810603,1.012846,1.711424,2.527635,3.207886,3.662087,4.007185,4.464951,5.18593,6.114225,6.96997,7.354389,6.913744,5.490485,3.207958,0.4721584,-2.111204,-3.89876,-4.430105,-3.645723,-2.000304,-0.3722793,0.2586161,-0.7361326,-3.262589,-6.434853,-8.90318,-9.466072,-7.676109,-4.121268,-0.2131986,2.43147,2.71179,0.51443,-3.275452,-7.193273,-9.808632,-10.24577,-8.424857,-5.006563,-1.14413,1.836233,2.760384,0.9231377,-3.639986,-10.02716,-16.62571,-21.60328,-23.60573,-22.35178,-18.78497,-14.62515,-11.49612,-10.08084,-9.795771,-9.205068,-6.964694,-2.743201,2.444883,6.727544,8.417426,6.988241,3.391852,-0.4841861,-2.888797,-3.159179,-1.980853,-0.8247437,-0.9425765,-2.564045,-4.785551,-6.185732,-5.738028,-3.426492,-0.1918094,2.710718,4.483486,5.178619,5.484678,6.105384,7.195559,8.248503,8.499077,7.535466,5.6737,3.82518,2.949572,3.469969,5.050907,6.870828,8.180903,8.749802,8.897898,9.131158,9.677333,10.28669,10.45003,9.860534,8.751884,7.824756,7.780029,8.785262,10.28022,11.30517,11.15765,9.924353,8.489507,7.970421,8.943992,11.00726,13.01085,13.85008,13.27836,12.1471,11.82621,13.12257,15.40586,16.59196,14.13192,6.503676,-5.674622,-19.62801,-31.6077,-38.66439,-40.03987,-37.40935,-33.8769,-32.32006,-34.02543,-38.31833,-43.27748,-46.99506,-48.59469,-48.46069,-47.67995,-47.17261,-47.1213,-47.03008,-46.28295,-44.74998,-42.98753,-41.90729,-42.1582,-43.67207,-45.68878,-47.23907,-47.76229,-47.43499,-47.00786,-47.26777,-48.49199,-50.2514,-51.67521,-51.99505,-51.00943,-49.18496,-47.35454,-46.22584,-46.01657,-46.41373,-46.84873,-46.87427,-46.40747,-45.71177,-45.17357,-45.04493,-45.31109,-45.72961,-45.97986,-45.80532,-45.0848,-43.83563,-42.20717,-40.48589,-39.08748,-38.47584,-38.98556,-40.61366,-42.91105,-45.08195,-46.29736,-46.07286,-44.50594,-42.2215,-40.04279,-38.57181,-37.92967,-37.80165,-37.74662,-37.55254,-37.39642,-37.69635,-38.75607,-40.44649,-42.16154,-43.09528,-42.68974,-40.96321,-38.51652,-36.2059,-34.6957,-34.17639,-34.41511,-35.07996,-36.07986,-37.65856,-40.14326,-43.52063,-47.15228,-49.90126,-50.67184,-49.07298,-45.78183,-42.30983,-40.22082,-40.19496,-41.49279,-42.17444,-40.03481,-33.78301,-23.83633,-12.26279,-1.880334,5.037569,7.772028,7.368477,5.967762,5.650524,7.424188,10.86973,14.57237,17.02879,17.49489,16.31804,14.6286,13.63591,13.96263,15.3878,17.09488,18.22668,18.39813,17.88641,17.43155,17.80559,19.41267,22.12432,25.39369,28.53837,31.02475,32.62088,33.3943,33.60703,33.58263,33.59832,33.81018,34.2124,34.63658,34.81233,34.48911,33.57819,32.24079,30.85124,29.83795,29.46832,29.70873,30.24224,30.64518,30.61864,30.13704,29.42472,28.78537,28.40279,28.24018,28.0994,27.78026,27.22133,26.52061,25.83378,25.24255,24.70342,24.12683,23.52076,23.06954,23.06132,23.68637,24.84772,26.13484,27.01995,27.1691,26.66221,25.95663,25.59267,25.82564,26.44286,26.91239,26.78838,26.10398,25.46024,25.70562,27.37796,30.26481,33.39825,35.5378,35.87514,34.53434,32.53998,31.25092,31.59706,33.57582,36.31384,38.63554,39.77096,39.75361,39.28379,39.17738,39.79176,40.81451,41.53409,41.38516,40.37383,39.084,38.2632,38.287,38.87608,39.27688,38.78148,37.23499,35.17876,33.52908,33.00392,33.6778,34.9542,35.96177,36.10099,35.38478,34.36804,33.74944,33.93395,34.84295,36.05694,37.13847,37.87262,38.25696,38.29691,37.82053,36.51615,34.20465,31.14622,28.10988,26.07669,25.71782,26.97619,29.05527,30.86362,31.65316,31.44118,30.93491,31.00188,32.03888,33.66864,34.97272,35.104,33.86079,31.83084,30.0069,29.14191,29.29091,29.84838,30.0433,29.52451,28.61274,28.0327,28.32342,29.35991,30.35989,30.39777,29.08062,26.90268,24.99825,24.43096,25.4842,27.44444,29.03716,29.23836,27.92119,25.90787,24.4005,24.18844,25.1761,26.54091,27.38367,27.38945,27.01364,27.06419,27.99347,29.44464,30.42093,29.99703,28.07203,25.5972,24.04798,24.4518,26.62346,29.17383,30.35439,29.22192,26.34791,23.55645,22.792,24.81182,28.54332,31.55847,31.41485,27.06419,19.47879,11.13889,4.721861,1.802207,2.309426,4.961012,8.263419,11.36151,14.20816,17.06242,19.81036,21.71288,21.8303,19.83153,16.55343,13.78779,13.29013,15.56424,19.21466,21.36584,19.02101,10.63909,-2.950158,-18.81397,-33.21732,-43.24345,-47.88879,-48.14106,-46.14116,-43.99738,-42.91013,-42.96915,-43.54958,-43.92326,-43.69126,-42.86342,-41.68666,-40.43531,-39.32737,-38.5508,-38.28472,-38.62144,-39.42701,-40.27666,-40.57941,-39.87063,-38.10371,-35.73059,-33.49131,-32.02136,-31.52245,-31.70905,-32.05632,-32.174,-32.04485,-31.97248,-32.29016,-33.05957,-33.98535,-34.61953,-34.70551,-34.4086,-34.25145,-34.77936,-36.17945,-38.11457,-39.89216,-40.86532,-40.80906,-40.03461,-39.18624,-38.86809,-39.34501,-40.48313,-41.93207,-43.37975,-44.70571,-45.951,-47.17471,-48.33174,-49.26946,-49.82364,-49.91154,-49.54465,-48.76799,-47.61517,-46.16325,-44.6615,-43.59745,-43.56871,-44.94859,-47.53593,-50.45879,-52.50566,-52.77659,-51.28643,-49.10191,-47.82995,-48.68845,-51.70313,-55.5575,-58.26733,-58.30632,-55.51518,-51.1994,-47.33189,-45.34584,-45.2878,-45.88348,-45.47999,-43.23335,-39.74342,-36.68731,-35.68473,-37.16408,-40.01613,-42.30804,-42.58871,-40.87986,-38.62344,-37.54564,-38.1795,-39.08659,-37.43201,-30.68741,-18.44753,-3.167659,10.76948,19.2228,20.46535,16.06857,9.952363,6.161013,6.681645,10.58067,14.89594,16.65036,14.69275,10.24873,5.927576,3.917602,4.579593,6.330535,6.834108,4.65873,0.2929699,-4.138311,-6.243204,-4.901336,-0.9765179,3.232569,5.410719,4.588818,1.60047,-1.593034,-3.208317,-2.71043,-0.9948944,0.351078,0.1496732,-1.648062,-4.0502,-5.778625,-6.11824,-5.285738,-4.121878,-3.396962,-3.264933,-3.246688,-2.715374,-1.480519,-0.0114938,0.8801818,0.669525,-0.4153083,-1.455572,-1.423554,0.1047932,2.603128,4.871829,5.773018,4.936538,2.97142,1.04458,0.1196304,0.3685618,1.144035,1.507383,0.9298605,-0.3256405,-1.403368,-1.485705,-0.4042686,1.206481,2.330158,2.278284,1.196541,0.00500325,-0.2024182,1.096233,3.465031,5.753393,6.818055,6.25083,4.625986,3.100037,2.618309,3.250106,4.092117,3.817891,1.533159,-2.596618,-7.33936,-11.01468,-12.36516,-11.16714,-8.250551,-4.960615,-2.418782,-1.018424,-0.4019129,0.1464022,1.197534,2.885015,4.961526,7.090782,9.124903,11.15979,13.3465,15.61943,17.56036,18.51779,17.92693,15.63407,12.03351,7.940426,4.282991,1.791043,0.830848,1.424394,3.378316,6.403544,10.15294,14.19686,18.01677,21.08613,23.03442,23.81184,23.74486,23.4229,23.4512,24.18065,25.54918,27.11021,28.23377,28.38531,27.35992,25.37498,22.99417,20.91983,19.73792,19.71033,20.69035,22.19141,23.58399,24.34375,24.24871,23.4371,22.29734,21.24469,20.49546,19.96236,19.32922,18.27138,16.69705,14.87325,13.35277,12.73145,13.35871,15.15164,17.61101,20.02909,21.78702,22.59373,22.5653,22.11906,21.74982,21.79641,22.29716,22.98619,23.4228,23.19242,22.10598,20.31306,18.28021,16.62928,15.89112,16.27478,17.56815,19.23065,20.65123,21.44351,21.62053,21.53402,21.59837,21.94837,22.23953,21.7343,19.66116,15.6685,10.1207,4.062933,-1.147379,-4.358844,-5.039433,-3.398201,-0.2022811,3.568486,7.030255,9.545691,10.7273,10.40287,8.641334,5.830759,2.705751,0.2025971,-0.8719218,-0.2164084,1.769382,4.133764,5.832137,6.258727,5.533968,4.36146,3.530827,3.380423,3.581514,3.406523,2.327669,0.5385905,-0.9925695,-1.06266,0.9073138,4.219466,6.923022,6.623746,1.717633,-7.605044,-19.16736,-29.59843,-35.75515,-36.07433,-31.18498,-23.50416,-16.06056,-11.16299,-9.556889,-10.40672,-11.99692,-12.70484,-11.73644,-9.318309,-6.364934,-3.896731,-2.54355,-2.352516,-2.910898,-3.640398,-4.079833,-4.033567,-3.56986,-2.924019,-2.375373,-2.144766,-2.327301,-2.864768,-3.560296,-4.14033,-4.347674,-4.032479,-3.200095,-1.994933,-0.6352971,0.6601307,1.716887,2.410822,2.658824,2.426327,1.757911,0.8051773,-0.189158,-0.9687734,-1.370621,-1.396821,-1.195037,-0.9475077,-0.7358627,-0.4748777,0.03172422,0.9399179,2.220628,3.62575,4.801484,5.483735,5.651974,5.538762,5.490908,5.778031,6.478963,7.517097,8.799516,10.33714,12.23129,14.51958,16.99779,19.1782,20.47043,20.51572,19.47239,18.04789,17.20595,17.68873,19.61618,22.40618,25.06745,26.69763,26.89958,25.88564,24.24812,22.57452,21.16645,20.02136,19.03502,18.22733,17.79651,17.94831,18.64243,19.47741,19.84893,19.31219,17.91138,16.22931,15.08712,15.06302,16.14165,17.73103,19.04436,19.59456,19.46363,19.16547,19.20506,19.66512,20.1425,20.10893,19.44998,18.75835,19.08965,21.23689,24.95356,28.66516,29.97365,26.78637,18.48152,6.44111,-6.409033,-16.8567,-22.80989,-24.11863,-22.40848,-20.07768,-19.05015,-19.96015,-22.13381,-24.25383,-25.22868,-24.74755,-23.27229,-21.59117,-20.30132,-19.55076,-19.13702,-18.79788,-18.42739,-18.06551,-17.71559,-17.19627,-16.20163,-14.56163,-12.51282,-10.73791,-10.08016,-11.06815,-13.55055,-16.6988,-19.41697,-20.93373,-21.21752,-20.95995,-21.13235,-22.38794,-24.66944,-27.25523,-29.19479,-29.85048,-29.21625,-27.83797,-26.41612,-25.36758,-24.6227,-23.76746,-22.41699,-20.56401,-18.67818,-17.49835,-17.64678,-19.29775,-22.08031,-25.25743,-28.06385,-30.02356,-31.09158,-31.58227,-31.94827,-32.52896,-33.39375,-34.33215,-34.99029,-35.0878,-34.60939,-33.87824,-33.45418,-33.87427,-35.35215,-37.5923,-39.84711,-41.23359,-41.16816,-39.69271,-37.48595,-35.52774,-34.57945,-34.78267,-35.61922,-36.27073,-36.16452,-35.35783,-34.50223,-34.39186,-35.386,-37.09919,-38.59943,-39.02523,-38.22594,-36.96979,-36.50668,-37.68546,-40.15508,-42.20165,-41.42696,-35.97394,-25.64233,-12.22707,1.16575,11.51075,17.22824,18.79418,18.28338,18.1323,19.82359,23.21186,26.8103,28.80479,28.17061,25.25929,21.57415,18.9317,18.5313,20.44307,23.73173,27.0511,29.31675,30.09274,29.5711,28.27373,26.73372,25.33599,24.3264,23.86737,24.01281,24.60863,25.23228,25.31368,24.44442,22.71714,20.84616,19.90921,20.78267,23.56433,27.34391,30.51213,31.49424,29.5206,25.00448,19.30407,14.00924,10.16537,7.883113,6.536689,5.385408,4.194825,3.44221,3.970997,6.32431,10.20974,14.477,17.66575,18.81057,18.0052,16.35955,15.34892,15.9385,18.01432,20.47716,21.94856,21.66068,19.97721,18.21247,17.84406,19.589,22.90663,26.24011,27.86598,26.85986,23.61516,19.61997,16.63729,15.77199,16.95493,19.10979,20.85529,21.29554,20.44062,19.05109,18.06757,18.01776,18.76822,19.73257,20.34661,20.46017,20.38094,20.56242,21.17495,21.88307,22.00677,20.97941,18.80519,16.20399,14.31873,14.13756,15.96022,19.21867,22.74974,25.35593,26.34102,25.73657,24.14786,22.35801,20.94684,20.12468,19.81255,19.84319,20.10425,20.52811,20.97151,21.12025,20.54229,18.89748,16.18357,12.85217,9.690206,7.504033,6.767306,7.420303,8.927546,10.55646,11.72013,12.20987,12.20981,12.11684,12.28187,12.81616,13.54901,14.13596,14.2429,13.70536,12.59157,11.15442,9.708852,8.500654,7.62953,7.057353,6.690538,6.484394,6.505196,6.901784,7.792385,9.130531,10.64379,11.91289,12.57754,12.56827,12.21568,12.13933,12.94058,14.85179,17.54994,20.27023,22.18041,22.81752,22.32416,21.33113,20.54713,20.30252,20.33729,19.98239,18.62727,16.17746,13.19478,10.60917,9.168944,8.982534,9.455261,9.682243,9.050447,7.658955,6.265889,5.783639,6.643197,8.458158,10.23106,10.99049,10.4433,9.187016,8.297577,8.514805,9.544858,9.965311,7.874655,1.960107,-7.629022,-19.13665,-29.91482,-37.62935,-41.30267,-41.63577,-40.46548,-39.70668,-40.38368,-42.27414,-44.283,-45.25262,-44.69803,-43.05343,-41.354,-40.61107,-41.27707,-43.09378,-45.33707,-47.25312,-48.40502,-48.76488,-48.58307,-48.17896,-47.81041,-47.65232,-47.82565,-48.38651,-49.25985,-50.18566,-50.77552,-50.69464,-49.87511,-48.60839,-47.4124,-46.72505,-46.61341,-46.70451,-46.41824,-45.37654,-43.72684,-42.14642,-41.49121,-42.28056,-44.34954,-46.89369,-48.91097,-49.77465,-49.59032,-49.11473,-49.28658,-50.66339,-53.10012,-55.85711,-58.03704,-59.06376,-58.90343,-57.93519,-56.60215,-55.11856,-53.43699,-51.46489,-49.33429,-47.47735,-46.41889,-46.41187,-47.19122,-48.05713,-48.2771,-47.56098,-46.2758,-45.22516,-45.10137,-45.96265,-47.09705,-47.4044,-46.08534,-43.20408,-39.74973,-37.12336,-36.34915,-37.49962,-39.69932,-41.70162,-42.66916,-42.63959,-42.37123,-42.67359,-43.68993,-44.65173,-44.33637,-41.97393,-38.01233,-34.17557,-32.65072,-34.79512,-40.10422,-46.11003,-49.37233,-47.11183,-38.62622,-25.72099,-11.90343,-0.7626109,5.616752,7.396885,6.565681,5.671401,6.456259,9.122681,12.54867,15.20834,16.19024,15.70875,14.86683,14.88722,16.32227,18.72067,20.91879,21.74406,20.69746,18.22923,15.48984,13.74143,13.77687,15.64349,18.75535,22.26024,25.41714,27.79593,29.26204,29.84445,29.62661,28.74187,27.43692,26.1123,25.25438,25.26022,26.2438,27.94291,29.79614,31.17042,31.63453,31.14739,30.0779,29.04741,28.67072,29.30229,30.88552,32.95695,34.79924,35.68982,35.15902,33.16833,30.14207,26.83323,24.06833,22.46914,22.25867,23.22733,24.85926,26.54728,27.79277,28.31058,28.02754,27.02158,25.47525,23.671,22.00591,20.95572,20.94178,22.13202,24.27791,26.71308,28.57356,29.17146,28.34683,26.60007,24.90105,24.24248,25.15332,27.42557,30.2093,32.43358,33.33811,32.83511,31.51237,30.28304,29.87522,30.44044,31.4858,32.16084,31.73612,30.01386,27.45349,24.95169,23.40103,23.26176,24.36853,26.06267,27.56692,28.39479,28.57458,28.57442,28.98278,30.12955,31.86876,33.65145,34.84481,35.11282,34.62602,33.95823,33.71559,34.11199,34.75199,34.78811,33.39408,30.30517,26.10757,22.07642,19.61369,19.56972,21.81456,25.30401,28.61107,30.63577,31.1105,30.63847,30.26892,30.87473,32.68358,35.20461,37.54544,38.89196,38.86276,37.56708,35.39794,32.75707,29.90968,27.04107,24.42146,22.49768,21.79598,22.67174,25.07165,28.49006,32.17752,35.49386,38.18835,40.44643,42.67205,45.16639,47.89762,50.50336,52.49271,53.50455,53.46056,52.54869,51.10351,49.49825,48.11557,47.35597,47.58622,48.97885,51.31144,53.90332,55.83046,56.39431,55.60377,54.35489,54.10291,56.13327,60.80943,67.25256,73.69517,78.34256,80.25711,79.73351,77.94572,76.09566,74.62819,73.03699,70.39764,66.26612,61.30874,57.17656,55.6231,57.40058,61.64427,66.20638,68.78801,68.19701,64.9433,60.77481,57.42707,55.38489,53.47256,49.58987,42.18854,31.58288,20.24875,11.84033,9.414891,13.8266,23.16298,33.51348,40.63343,41.63595,35.91087,24.97364,11.52021,-1.704444,-12.68486,-20.37365,-24.55605,-25.64115,-24.55192,-22.65917,-21.57822,-22.7289,-26.79591,-33.38472,-41.13734,-48.32413,-53.61461,-56.61328,-57.85959,-58.32973,-58.77688,-59.33215,-59.5982,-59.12245,-57.89683,-56.5244,-55.92935,-56.81611,-59.23536,-62.54758,-65.79435,-68.22935,-69.65954,-70.40669,-70.95721,-71.55854,-72.04593,-71.98988,-71.02109,-69.11246,-66.60976,-64.04246,-61.85761,-60.28218,-59.36853,-59.15285,-59.74884,-61.29052,-63.75285,-66.81018,-69.86395,-72.25235,-73.5107,-73.52155,-72.46135,-70.62757,-68.30021,-65.75307,-63.38465,-61.79316,-61.6368,-63.27868,-66.41933,-70.01358,-72.63736,-73.18108,-71.49049,-68.53847,-65.95551,-65.15102,-66.52847,-69.28322,-71.92695,-73.21495,-72.90408,-71.85163,-71.40025,-72.46016,-74.88895,-77.58395,-79.21653,-79.10587,-77.63546,-75.93967,-75.07419,-75.26878,-75.78111,-75.48045,-73.74382,-71.02026,-68.62246,-67.83924,-68.97062,-70.97582,-72.07065,-70.93102,-67.73167,-64.25369,-62.86907,-64.9523,-69.69518,-74.14893,-74.60037,-68.57769,-56.33456,-40.93973,-26.85811,-17.79272,-14.96756,-16.76358,-19.83122,-20.97975,-18.7621,-13.93371,-8.670382,-5.139817,-4.310256,-5.632539,-7.63389,-8.926203,-8.961987,-8.131149,-7.265462,-6.977727,-7.296443,-7.784211,-7.965223,-7.701013,-7.230923,-6.884667,-6.72309,-6.412944,-5.456278,-3.617121,-1.225913,0.8875326,1.832285,1.199722,-0.6393056,-2.68273,-3.809175,-3.343358,-1.33823,1.568313,4.590285,7.219792,9.377917,11.23324,12.8689,14.06961,14.40289,13.54152,11.59117,9.171187,7.160047,6.245935,6.56352,7.650323,8.750033,9.270351,9.107763,8.646566,8.456549,8.906987,9.9513,11.20648,12.24158,12.85217,13.1228,13.25017,13.28483,13.01857,12.13695,10.55168,8.662287,7.309924,7.376949,9.242242,12.43856,15.77782,17.92982,18.145,16.68447,14.67102,13.41981,13.63702,14.98324,16.28798,16.30708,14.5644,11.74101,9.343338,8.816216,10.6299,13.90826,16.85519,17.75694,15.98456,12.40241,8.936722,7.547209,9.189781,13.35402,18.4042,22.4875,24.4595,24.31641,22.95161,21.47455,20.55587,20.19253,19.9657,19.53765,18.99384,18.78508,19.32854,20.57492,21.88644,22.34746,21.32726,18.93084,16.02608,13.80586,13.14552,14.14184,16.11287,18.03916,19.16263,19.3739,19.17418,19.27074,20.09186,21.52994,23.04953,24.05868,24.27869,23.88181,23.33608,23.09067,23.32116,23.88443,24.47344,24.83314,24.88377,24.69057,24.34722,23.89354,23.33654,22.74496,22.30391,22.24499,22.67269,23.41219,24.01724,23.98857,23.08994,21.56877,20.11175,19.53475,20.37008,22.59189,25.64056,28.71696,31.15496,32.64294,33.18156,32.86102,31.65887,29.44081,26.18532,22.26525,18.54616,16.16168,16.02993,18.36818,22.49784,27.08228,30.70041,32.46419,32.36055,31.15726,29.94692,29.58667,30.31758,31.72829,33.03105,33.47984,32.71933,30.92671,28.71432,26.8621,25.98332,26.24402,27.23149,28.03984,27.58428,25.05618,20.3494,14.24622,8.225758,3.925126,2.478501,4.055309,7.841847,12.48684,16.77013,20.1202,22.69904,25.03136,27.44325,29.69212,31.04959,30.79209,28.77857,25.71466,22.88596,21.4908,21.96679,23.74036,25.57344,26.31682,25.61496,24.13355,23.16592,23.857,26.51212,30.39738,34.13432,36.43635,36.74681,35.43325,33.47998,31.91445,31.32899,31.73692,32.76091,33.94699,34.96901,35.62829,35.74464,35.11209,33.62495,31.4894,29.32817,28.0047,28.18998,29.90948,32.38114,34.31087,34.54168,32.69469,29.41557,26.05433,23.94105,23.68058,24.87799,26.44254,27.26673,26.84693,25.47362,23.90966,22.80996,22.29519,21.95979,21.28373,20.12124,18.88784,18.27884,18.70687,19.86787,20.80429,20.49,18.5888,15.85246,13.80333,13.79207,15.96399,18.80287,19.64333,15.97418,6.850824,-6.396615,-20.61847,-32.2726,-39.06744,-40.92901,-39.77493,-38.26926,-38.29993,-40.0594,-42.21269,-42.97669,-41.39167,-37.98453,-34.43393,-32.48433,-32.82895,-34.67702,-36.28659,-36.10493,-33.79917,-30.50845,-28.16975,-28.34095,-31.25958,-35.72117,-39.82835,-42.12115,-42.37241,-41.56928,-41.13137,-41.91021,-43.62939,-45.1238,-45.19374,-43.49742,-40.86907,-38.85534,-38.75687,-40.80211,-43.98526,-46.66915,-47.56062,-46.43804,-44.18803,-42.15504,-41.25948,-41.45825,-41.88136,-41.51558,-39.95602,-37.72061,-35.92885,-35.58082,-36.92284,-39.31429,-41.65778,-43.08337,-43.42252,-43.18058,-43.06569,-43.43818,-44.06614,-44.34702,-43.80758,-42.5076,-41.04259,-40.14585,-40.17319,-40.83974,-41.40553,-41.17625,-39.97646,-38.26573,-36.82349,-36.23584,-36.53903,-37.26083,-37.80326,-37.86904,-37.61385,-37.43071,-37.55074,-37.79935,-37.72666,-37.03275,-35.95825,-35.2887,-35.89553,-38.08302,-41.21435,-43.95441,-45.05205,-44.18074,-42.2477,-40.86341,-41.21599,-43.04186,-44.396,-42.50293,-35.28896,-22.73807,-7.233373,7.380311,17.55848,21.68636,20.68819,17.31823,14.58259,14.20189,15.95238,18.15365,18.90207,17.26621,13.7605,9.919027,7.332977,6.789732,7.997352,9.959907,11.66656,12.61681,12.89423,12.84223,12.65182,12.18588,11.14647,9.424839,7.344849,5.592903,4.864007,5.450319,7.042487,8.871426,10.10142,10.23701,9.320597,7.839005,6.430346,5.57424,5.41791,5.786145,6.320124,6.651708,6.545064,5.975894,5.146164,4.425277,4.213315,4.753155,5.973381,7.462719,8.633476,9.019399,8.54475,7.585011,6.743376,6.4517,6.643193,6.733859,5.971784,3.965929,1.061824,-1.71312,-3.155362,-2.571757,-0.2319096,2.7079,4.795558,5.051674,3.467553,0.9433117,-1.271754,-2.274853,-1.911974,-0.6677537,0.8287176,2.304997,3.994312,6.336491,9.464534,12.87878,15.58503,16.65585,15.85275,13.87994,12.05232,11.55365,12.73996,14.94524,16.93491,17.73081,17.2742,16.47417,16.57248,18.20376,20.75627,22.48733,21.40241,16.43066,8.218103,-0.9526593,-8.122399,-11.00555,-9.015877,-3.436338,3.324037,8.947437,12.233,13.40803,13.63837,14.1021,15.2135,16.44856,16.83879,15.78431,13.6442,11.69543,11.4366,13.6153,17.55807,21.24105,22.14766,18.51456,10.32805,-0.4686984,-10.70144,-17.28849,-18.51584,-14.64631,-7.600746,0.07240456,6.374104,10.57693,13.18481,15.26078,17.58329,20.14373,22.24047,23.04483,22.23359,20.26899,18.15765,16.85874,16.73575,17.3975,18.02225,17.93588,17.06499,15.97311,15.46736,16.03905,17.50699,19.09285,19.87626,19.34139,17.67153,15.62241,14.06816,13.51046,13.84475,14.50053,14.83173,14.50252,13.63613,12.67387,12.06795,12.01732,12.39434,12.87082,13.12866,13.01771,12.5906,12.04114,11.61794,11.56422,12.07464,13.22931,14.89991,16.68077,17.93953,18.03281,16.62112,13.91862,10.70281,8.02309,6.728513,7.060349,8.542589,10.24302,11.26147,11.17284,10.18036,8.919157,8.05643,7.943442,8.511176,9.429197,10.3756,11.21633,11.98994,12.7504,13.42992,13.85547,13.91521,13.73516,13.695,14.21749,15.44439,17.02477,18.19963,18.18646,16.66032,14.03484,11.34602,9.773647,10.06082,12.16208,15.31667,18.49495,20.94257,22.50726,23.57315,24.67937,26.08257,27.54158,28.45072,28.22619,26.69882,24.27293,21.75685,19.96542,19.31689,19.63911,20.27893,20.44763,19.62688,17.83577,15.64441,13.92612,13.46095,14.56421,16.90464,19.60908,21.62281,22.17749,21.14505,19.09168,16.98422,15.68569,15.51069,16.10307,16.72356,16.79193,16.33875,16.04299,16.7615,18.78352,21.26883,22.2927,19.60438,11.77903,-0.8438349,-15.9972,-30.28187,-40.58091,-45.39479,-45.40623,-42.99031,-40.93682,-41.07899,-43.53527,-46.92009,-49.33383,-49.52651,-47.58253,-44.78544,-42.80092,-42.69456,-44.34492,-46.55952,-47.78019,-46.95208,-44.07199,-40.15429,-36.67644,-34.84158,-35.04812,-36.80251,-39.0579,-40.75348,-41.26445,-40.56683,-39.10137,-37.46458,-36.11394,-35.23008,-34.75909,-34.56372,-34.56729,-34.80216,-35.35572,-36.26527,-37.45201,-38.74035,-39.95733,-41.03539,-42.03981,-43.08816,-44.20488,-45.20662,-45.72285,-45.3625,-43.95434,-41.71577,-39.2309,-37.22153,-36.2257,-36.35846,-37.29941,-38.50829,-39.54152,-40.27108,-40.88108,-41.65678,-42.7151,-43.86486,-44.6866,-44.77453,-43.97721,-42.47928,-40.68874,-39.02592,-37.76507,-37.01968,-36.8301,-37.2276,-38.18002,-39.44565,-40.50306,-40.69901,-39.63406,-37.55949,-35.47758,-34.73705,-36.22796,-39.60221,-43.04528,-43.88241,-39.82897,-30.26287,-16.78918,-2.699298,8.463405,14.49582,15.43288,13.28032,10.77409,9.9082,11.0608,13.15294,14.62523,14.54389,13.13406,11.4695,10.61658,10.87995,11.6681,12.03829,11.486,10.38135,9.71944,10.35594,12.28601,14.51348,15.65204,14.87656,12.57411,10.21418,9.480573,11.20691,14.8168,18.64713,20.96365,21.01376,19.4449,17.82734,17.61133,19.20647,21.77531,23.84496,24.30505,23.11655,21.27972,20.11656,20.37882,21.78808,23.29812,23.86652,23.18282,21.84697,20.88511,20.94688,21.74796,22.15162,20.85333,17.2309,11.82082,6.124744,1.875698,0.2087853,1.2038,4.001572,7.344962,10.1805,12.0018,12.83796,13.02148,12.95269,12.9856,13.40707,14.40197,15.94722,17.70464,19.04825,19.30255,18.1058,15.67618,12.7834,10.39514,9.196545,9.27837,10.19517,11.33896,12.36408,13.36112,14.66114,16.4346,18.40059,19.89758,20.29394,19.45226,17.89275,16.49864,15.93154,16.16165,16.45938,15.89694,14.04049,11.35745,9.029821,8.25976,9.509684,12.18139,14.962,16.62232,16.74362,15.89736,15.1684,15.35661,16.40817,17.46952,17.52271,16.1634,13.97338,12.2222,12.08049,13.86677,16.82502,19.57898,20.95847,20.6657,19.36505,18.17989,17.96152,18.81303,20.14176,21.13995,21.32033,20.73692,19.79651,18.86438,18.00474,17.05076,15.91322,14.83512,14.3331,14.82748,16.23163,17.85238,18.7427,18.31135,16.76693,15.03969,14.17844,14.60144,15.72968,16.30803,15.25647,12.50898,9.250077,7.328589,8.16114,11.80337,16.79367,20.90594,22.37183,20.83843,17.48274,14.24562,12.68306,13.14943,14.78092,16.21342,16.51574,15.7186,14.64166,14.20265,14.73026,15.7569,16.40569,16.06493,14.85225,13.54322,13.02298,13.65675,15.02499,16.2032,16.38684,15.42645,13.9105,12.75091,12.56614,13.28317,14.21465,14.53638,13.82478,12.29356,10.59313,9.344254,8.745455,8.520065,8.212507,7.593451,6.868706,6.538106,7.012065,8.266609,9.793323,10.88703,11.08143,10.43519,9.477934,8.853789,8.904768,9.465571,9.999123,9.970998,9.210546,8.022095,6.9751,6.505083,6.56704,6.547444,5.489377,2.517619,-2.734502,-9.885348,-17.84149,-25.09421,-30.16967,-32.09119,-30.7017,-26.73023,-21.55802,-16.74342,-13.47966,-12.20506,-12.54681,-13.61754,-14.51452,-14.75592,-14.42863,-13.99563,-13.91095,-14.30071,-14.90964,-15.32463,-15.29938,-14.93995,-14.62047,-14.69409,-15.21636,-15.88735,-16.25622,-16.03703,-15.30023,-14.39887,-13.69271,-13.29807,-13.0752,-12.88129,-12.88575,-13.65352,-15.8414,-19.64403,-24.36543,-28.49047,-30.3397,-28.99859,-24.95639,-20.00209,-16.34206,-15.40778,-17.05954,-19.70614,-21.32081,-20.7712,-18.65558,-17.09158,-18.52507,-24.20823,-33.22034,-42.6017,-48.55283,-48.06048,-40.12786,-26.04066,-8.666681,8.737852,23.58692,34.47496,41.11857,44.00483,44.05951,42.4541,40.46634,39.23653,39.40551,40.82166,42.57833,43.49931,42.87385,41.01135,39.20033,38.98033,41.07161,44.59916,47.15212,45.77856,38.47594,25.38696,9.029008,-6.635515,-17.85631,-22.66312,-21.57974,-17.17133,-12.71123,-10.67295,-11.77578,-14.97074,-18.25089,-19.78629,-18.79206,-15.76327,-12.06434,-9.178803,-8.034876,-8.707623,-10.56741,-12.71149,-14.41477,-15.37641,-15.68727,-15.60141,-15.28662,-14.71079,-13.72332,-12.25554,-10.49617,-8.906178,-8.038251,-8.257284,-9.528078,-11.41233,-13.29233,-14.69631,-15.52621,-16.03804,-16.58377,-17.28262,-17.8535,-17.74782,-16.52864,-14.25929,-11.6302,-9.695474,-9.333422,-10.73473,-13.23918,-15.64146,-16.81114,-16.27322,-14.41285,-12.19089,-10.55515,-9.908267,-9.949854,-9.967431,-9.373488,-8.137766,-6.850272,-6.384287,-7.380908,-9.867308,-13.21669,-16.44485,-18.64102,-19.29368,-18.3789,-16.2399,-13.39835,-10.41757,-7.838979,-6.13099,-5.580875,-6.154541,-7.425163,-8.685338,-9.246805,-8.788592,-7.541794,-6.168133,-5.376743,-5.503657,-6.324346,-7.233259,-7.683827,-7.597411,-7.457558,-8.000374,-9.68634,-12.30017,-14.96133,-16.57265,-16.4499,-14.74588,-12.39917,-10.63057,-10.28667,-11.4219,-13.35357,-15.12969,-16.10394,-16.26616,-16.15335,-16.4369,-17.4743,-19.10819,-20.81239,-22.06093,-22.65994,-22.83597,-23.04518,-23.6499,-24.67364,-25.78134,-26.47522,-26.37451,-25.41443,-23.87309,-22.23847,-21.00335,-20.48935,-20.75228,-21.58989,-22.63115,-23.48328,-23.89533,-23.87417,-23.68076,-23.66933,-24.01731,-24.48649,-24.38537,-22.81952,-19.15299,-13.44411,-6.57879,0.02936562,5.062357,7.916551,8.958498,9.250908,9.898001,11.39748,13.39729,15.01157,15.49118,14.81147,13.77379,13.52061,14.7479,17.11462,19.25441,19.43985,16.54421,10.74769,3.566209,-2.832157,-6.653574,-7.291583,-5.508832,-2.935612,-1.203815,-1.199063,-2.793842,-5.123423,-7.170738,-8.30085,-8.484891,-8.162065,-7.895488,-8.043568,-8.608563,-9.289691,-9.668328,-9.415441,-8.441028,-6.950132,-5.393064,-4.316894,-4.145041,-4.961616,-6.408283,-7.787593,-8.374289,-7.808488,-6.356605,-4.856045,-4.319887,-5.37642,-7.85105,-10.74682,-12.67686,-12.53842,-10.07043,-5.985716,-1.606057,1.798914,3.605447,4.053989,4.008239,4.427872,5.863538,8.233191,10.95161,13.28041,14.68096,14.9977,14.43387,13.40087,12.3539,11.67334,11.58586,12.09565,12.93089,13.56372,13.36315,11.86973,9.074618,5.535363,2.213681,0.06995415,-0.3890184,0.641126,2.373605,3.853967,4.461639,4.201667,3.62095,3.410218,3.94331,5.040069,6.096648,6.497087,6.041276,5.118753,4.509926,4.931473,6.59436,9.042064,11.36717,12.69072,12.63289,11.51827,10.2022,9.615651,10.27063,11.97976,13.93253,15.08224,14.65431,12.52979,9.326826,6.145665,4.100786,3.852794,5.351551,7.896901,10.47706,12.21614,12.71984,12.16819,11.13632,10.26399,9.957273,10.26981,10.99345,11.8631,12.72375,13.55531,14.36278,15.03873,15.33187,14.97222,13.88351,12.33607,10.90823,10.24885,10.76197,12.3981,14.68116,16.95544,18.70472,19.76024,20.29181,20.62596,21.03301,21.62327,22.39363,23.33913,24.50618,25.91937,27.44256,28.71353,29.25878,28.76559,27.34277,25.56889,24.23929,23.92634,24.61795,25.68514,26.23845,25.67775,24.09531,22.26122,21.17249,21.43392,22.85622,24.5374,25.38432,24.75806,22.83821,20.48262,18.68156,17.9642,18.13136,18.47356,18.30565,17.45142,16.35373,15.74874,16.13522,17.40853,18.90304,19.81746,19.72894,18.85652,17.90187,17.5818,18.16561,19.3162,20.32127,20.54251,19.77936,18.32735,16.72623,15.40546,14.47919,13.81283,13.27116,12.92886,13.06075,13.90655,15.38917,17.01367,18.05912,17.96618,16.67667,14.69852,12.84644,11.81551,11.85149,12.7089,13.88976,14.97908,15.84637,16.5977,17.35057,18.02759,18.33548,17.95036,16.76614,15.01021,13.12882,11.51155,10.25226,9.121693,7.779152,6.075735,4.230054,2.738955,2.071996,2.357028,3.277941,4.268779,4.883566,5.093936,5.308476,6.087083,7.728935,10.00375,12.20793,13.52378,13.46767,12.16047,10.26542,8.643441,7.93859,8.328325,9.547935,11.12779,12.65769,13.9131,14.79601,15.18226,14.83013,13.45008,10.91257,7.458554,3.756445,0.7279995,-0.8019167,-0.4662926,1.450945,4.096718,6.385736,7.447882,6.996222,5.449918,3.748283,2.918993,3.573672,5.546453,7.854218,9.026682,7.698673,3.220683,-3.985773,-12.50535,-20.42639,-26.04497,-28.46727,-27.84722,-25.18467,-21.81824,-18.88437,-16.99158,-16.21291,-16.31345,-17.02251,-18.17966,-19.69967,-21.44288,-23.12639,-24.36729,-24.83881,-24.43037,-23.30036,-21.78732,-20.24177,-18.89209,-17.82076,-17.042,-16.59742,-16.58102,-17.07008,-18.01929,-19.21015,-20.31624,-21.05179,-21.31638,-21.23659,-21.08166,-21.11042,-21.44707,-22.05561,-22.8038,-23.54956,-24.18248,-24.61289,-24.75076,-24.53798,-24.03552,-23.49506,-23.31951,-23.87935,-25.26099,-27.11615,-28.75319,-29.4731,-28.985,-27.63624,-26.28274,-25.8277,-26.68085,-28.47596,-30.24468,-30.97112,-30.21214,-28.39376,-26.59133,-25.90474,-26.80339,-28.83264,-30.86877,-31.7643,-30.99999,-28.9598,-26.6829,-25.26248,-25.25971,-26.46056,-28.08081,-29.24895,-29.46452,-28.78419,-27.6875,-26.7641,-26.43626,-26.84334,-27.89231,-29.36367,-30.98444,-32.45346,-33.47767,-33.86606,-33.65543,-33.15944,-32.84917,-33.07554,-33.78071,-34.39719,-34.05349,-32.01318,-28.11106,-22.92081,-17.53294,-13.05536,-10.11914,-8.666571,-8.118498,-7.783925,-7.24159,-6.471983,-5.706882,-5.155358,-4.825212,-4.556112,-4.20271,-3.788914,-3.489323,-3.44553,-3.576691,-3.564272,-3.062303,-1.997236,-0.7235069,0.1175551,-0.02230347,-1.227585,-3.030369,-4.690479,-5.67126,-5.97774,-6.104139,-6.61055,-7.62807,-8.671891,-8.938913,-7.916763,-5.871467,-3.819446,-2.926985,-3.694762,-5.490654,-6.814316,-6.204448,-3.23942,1.042003,4.646777,5.813372,4.153359,0.9935898,-1.366594,-1.086158,1.968033,5.951262,7.975103,5.727325,-1.169141,-10.85986,-20.1876,-26.28269,-27.88614,-25.69226,-21.62315,-17.59165,-14.54916,-12.34166,-10.31383,-8.122274,-6.133071,-5.14107,-5.657246,-7.330451,-8.966331,-9.179658,-7.25843,-3.662236,0.1940488,2.742615,3.145711,1.713982,-0.3702864,-1.80422,-1.891242,-0.8055119,0.7049637,1.905469,2.528619,2.822461,3.233327,4.018173,5.087742,6.16993,7.115322,8.06272,9.304959,10.955,12.6935,13.84801,13.80525,12.49377,10.57653,9.164968,9.189759,10.81927,13.31748,15.46104,16.26981,15.59335,14.18102,13.19567,13.48877,15.1,17.28369,19.01519,19.62401,19.14507,18.19141,17.48178,17.37381,17.71425,18.06896,18.12362,17.9401,17.88004,18.27216,19.09064,19.90565,20.16033,19.58322,18.43642,17.41169,17.23213,18.22605,20.15716,22.4083,24.37425,25.77668,26.69494,27.32353,27.67967,27.51443,26.5158,24.65714,22.40032,20.55401,19.82646,20.35719,21.5604,22.42311,22.10176,20.437,18.0513,15.95423,14.91276,14.99997,15.61978,15.97953,15.68124,15.01725,14.76424,15.61412,17.637,20.15089,22.10163,22.69947,21.89062,20.34543,18.98169,18.35524,18.3379,18.2993,17.65063,16.35587,15.03081,14.54331,15.38126,17.23673,19.12205,19.97408,19.3607,17.80701,16.49447,16.4966,18.03263,20.23407,21.60321,20.90698,17.96199,13.82205,10.24365,8.742723,9.799934,12.67056,15.87832,18.06873,18.70321,18.21131,17.56752,17.60851,18.53032,19.85154,20.81385,20.92033,20.25643,19.39914,19.00329,19.34071,20.08275,20.44765,19.60518,17.09727,13.04709,8.077147,3.018476,-1.410804,-4.80844,-7.118448,-8.53135,-9.342241,-9.832316,-10.1987,-10.52568,-10.7929,-10.91771,-10.83362,-10.57088,-10.2907,-10.23253,-10.58518,-11.35765,-12.34479,-13.24255,-13.86302,-14.31536,-15.00949,-16.43326,-18.80459,-21.80893,-24.61969,-26.24562,-26.0518,-24.15805,-21.46355,-19.23537,-18.4601,-19.31061,-21.04139,-22.38945,-22.26882,-20.37122,-17.32646,-14.3321,-12.46442,-12.07097,-12.59769,-12.94645,-12.15065,-9.97106,-7.065422,-4.638239,-3.777257,-4.861726,-7.373669,-10.20158,-12.24594,-12.97149,-12.60669,-11.90741,-11.65734,-12.21171,-13.34168,-14.43442,-14.8996,-14.51925,-13.54671,-12.5198,-11.93469,-11.98626,-12.52078,-13.19673,-13.72668,-14.03744,-14.26145,-14.59292,-15.12543,-15.78698,-16.40854,-16.86487,-17.18191,-17.52785,-18.0971,-18.95681,-19.96028,-20.77751,-21.02732,-20.44197,-18.99035,-16.91717,-14.70067,-12.94367,-12.2181,-12.87482,-14.85594,-17.58188,-20.00755,-20.90085,-19.29493,-14.94417,-8.548526,-1.583308,4.253898,7.752728,8.709501,7.978427,7.004362,7.068884,8.646919,11.21848,13.62925,14.78315,14.26753,12.55837,10.70851,9.727417,10.03089,11.27782,12.65884,13.42383,13.30543,12.58592,11.80258,11.31956,11.07008,10.63776,9.610414,7.947603,6.100158,4.787582,4.576307,5.531862,7.174761,8.764147,9.721759,9.923677,9.686114,9.479095,9.58033,9.911303,10.15121,10.03495,9.604172,9.224307,9.345988,10.17683,11.49411,12.73824,13.33393,13.03038,12.04036,10.89082,10.09177,9.844174,9.970565,10.0964,9.93706,9.490636,9.013374,8.818829,9.05969,9.650709,10.37027,11.03859,11.61662,12.14677,12.59552,12.76168,12.37371,11.34726,10.01405,9.098457,9.359816,11.06009,13.59051,15.56106,15.40278,12.20689,6.326914,-0.6404002,-6.543241,-9.682214,-9.582901,-7.101048,-3.822203,-1.129679,0.4939062,1.530544,2.867809,5.020065,7.662168,9.787304,10.37835,9.136717,6.768412,4.616606,3.859167,4.784317,6.61337,7.991746,7.841267,6.035941,3.479008,1.542994,1.238449,2.635061,4.880484,6.771831,7.483191,6.983563,5.906715,5.0152,4.65997,4.615033,4.380973,3.709355,2.935335,2.843329,4.121577,6.772748,9.908415,12.1233,12.26326,10.12761,6.659126,3.481501,2.043946,2.869252,5.336398,8.093584,9.82418,9.899611,8.564103,6.614347,4.845273,3.638165,2.918267,2.426418,2.04031,1.878435,2.117668,2.693622,3.156963,2.85176,1.338562,-1.217122,-3.981111,-5.804743,-5.814847,-3.891767,-0.7442703,2.463949,4.706178,5.551833,5.246103,4.415456,3.634148,3.143186,2.870253,2.671416,2.564645,2.756083,3.439829,4.540869,5.629418,6.113448,5.603668,4.200295,2.483503,1.182983,0.730653,0.9939069,1.378368,1.244258,0.3660503,-0.8730128,-1.68491,-1.354805,0.3167114,2.884968,5.514097,7.43038,8.275647,8.151832,7.37684,6.171063,4.527774,2.361038,-0.2009705,-2.63917,-4.173389,-4.167968,-2.559201,-0.004726814,2.384956,3.600629,3.241737,1.669212,-0.2785324,-1.807951,-2.584044,-2.783449,-2.795522,-2.826083,-2.718131,-2.125793,-0.9031451,0.614299,1.696292,1.66986,0.4440683,-1.284888,-2.362365,-1.898904,0.04529026,2.275076,2.956533,0.556644,-5.29954,-13.55599,-22.19845,-29.2023,-33.41661,-34.92062,-34.72089,-34.05778,-33.76725,-34.05034,-34.67502,-35.36052,-36.01498,-36.66903,-37.22139,-37.26916,-36.23668,-33.76611,-30.10563,-26.17997,-23.22327,-22.14962,-23.04355,-25.09866,-27.06116,-27.91439,-27.38431,-25.97468,-24.53979,-23.70737,-23.52993,-23.56958,-23.31288,-22.58701,-21.67332,-21.04509,-20.93816,-21.09012,-20.86188,-19.6776,-17.48184,-14.88112,-12.84863,-12.16887,-12.98005,-14.71308,-16.46107,-17.52557,-17.77703,-17.60816,-17.54289,-17.79902,-18.12671,-18.02826,-17.18812,-15.77969,-14.40293,-13.67419,-13.75403,-14.1643,-14.06371,-12.8316,-10.57944,-8.225253,-7.034503,-7.878502,-10.6599,-14.27295,-17.14604,-18.06317,-16.78937,-14.15264,-11.55735,-10.23038,-10.63629,-12.35722,-14.44563,-15.98836,-16.54016,-16.21493,-15.45696,-14.69935,-14.14251,-13.76215,-13.48491,-13.36642,-13.63223,-14.55125,-16.23945,-18.52576,-20.9709,-23.02906,-24.26243,-24.5052,-23.90845,-22.86147,-21.83102,-21.17739,-21.00214,-21.08368,-20.93135,-19.96603,-17.77435,-14.33642,-10.10511,-5.868609,-2.430629,-0.2496715,0.7794746,1.279545,2.091442,3.868225,6.7621,10.34528,13.77737,16.1087,16.57472,14.78314,10.78153,5.052885,-1.533613,-7.837387,-12.67218,-15.13944,-14.96557,-12.66146,-9.358706,-6.32775,-4.384903,-3.495685,-2.819857,-1.202528,2.144766,7.155115,12.89093,18.00647,21.40992,22.73481,22.37309,21.09834,19.57146,18.0616,16.5374,15.00285,13.77408,13.44084,14.5001,16.91357,19.93296,22.38047,23.26448,22.35932,20.37605,18.58381,18.10076,19.2815,21.57269,23.91214,25.39931,25.81172,25.65812,25.7735,26.75454,28.60929,30.81944,32.72145,33.90572,34.3615,34.30597,33.8862,33.01898,31.51364,29.37394,27.01356,25.15959,24.45617,25.02013,26.28104,27.26216,27.15949,25.84391,23.94231,22.42436,21.96103,22.48951,23.28729,23.50921,22.81262,21.6242,20.84279,21.17136,22.54548,24.0814,24.61874,23.51112,21.12877,18.69976,17.56217,18.2963,20.31177,22.17742,22.49157,20.74045,17.59176,14.45056,12.59027,12.43633,13.46256,14.72362,15.61053,16.27987,17.45081,19.72864,22.96344,26.13653,27.90224,27.43998,25.03149,21.94747,19.68632,19.0592,19.72929,20.51625,20.2551,18.62111,16.348,14.6872,14.48038,15.50202,16.55263,16.27368,14.1419,10.94764,8.380223,7.937344,9.849257,12.74172,14.31218,12.65308,7.421163,0.1293562,-6.638268,-10.6264,-11.09416,-9.100013,-6.759762,-5.969297,-7.373105,-10.16509,-12.76202,-13.86312,-13.21319,-11.63194,-10.36728,-10.25084,-11.21572,-12.45679,-13.07248,-12.71975,-11.83594,-11.2862,-11.68854,-12.87491,-13.85599,-13.32964,-10.43385,-5.293581,0.9593514,6.701078,10.57294,12.06916,11.66303,10.4483,9.528172,9.48854,10.21362,11.09316,11.46819,11.05777,10.14559,9.445695,9.732753,11.43303,14.38322,17.87861,20.9878,22.9798,23.65073,23.38177,22.89613,22.84066,23.41804,24.27911,24.74209,24.22186,22.62241,20.45345,18.58729,17.78119,18.2404,19.48174,20.58714,20.70793,19.52782,17.41813,15.19871,13.6571,13.11693,13.30777,13.59957,13.44166,12.72676,11.85999,11.49675,12.1207,13.71682,15.7316,17.33319,17.8165,16.93182,14.98049,12.66203,10.77927,9.950203,10.42658,12.04073,14.24654,16.22199,17.02715,15.82831,12.16118,6.155233,-1.400224,-9.229591,-15.96309,-20.60708,-22.88971,-23.31991,-22.9288,-22.81651,-23.71111,-25.73146,-28.42858,-31.04554,-32.84963,-33.38955,-32.59712,-30.74237,-28.30401,-25.82258,-23.77588,-22.48885,-22.08257,-22.47257,-23.42172,-24.64459,-25.91994,-27.16046,-28.39971,-29.70677,-31.08218,-32.40664,-33.47944,-34.12449,-34.28881,-34.05973,-33.58556,-32.94399,-32.05812,-30.72939,-28.78748,-26.26954,-23.51331,-21.08397,-19.55303,-19.23769,-20.04289,-21.49837,-22.97656,-23.98218,-24.36077,-24.32703,-24.30901,-24.69928,-25.64583,-26.98542,-28.34003,-29.31237,-29.67625,-29.46866,-28.94978,-28.46051,-28.25504,-28.38432,-28.6796,-28.83611,-28.55366,-27.6749,-26.26346,-24.59604,-23.07478,-22.09455,-21.91584,-22.5832,-23.9117,-25.53948,-27.02436,-27.96227,-28.0977,-27.40707,-26.12878,-24.72532,-23.76543,-23.74708,-24.90738,-27.09434,-29.7641,-32.13259,-33.44308,-33.25156,-31.61611,-29.09792,-26.5677,-24.88008,-24.54553,-25.52181,-27.20245,-28.60486,-28.69187,-26.71791,-22.49012,-16.4626,-9.627692,-3.231445,1.605589,4.237674,4.688101,3.606395,1.997647,0.827746,0.6694016,1.540479,2.996067,4.412725,5.309172,5.540698,5.282162,4.841324,4.438757,4.099515,3.717042,3.234776,2.804696,2.799272,3.64307,5.55776,8.373239,11.53263,14.30516,16.10051,16.71919,16.41102,15.72208,15.22262,15.26364,15.87079,16.80439,17.7219,18.34663,18.5668,18.44368,18.15496,17.91332,17.89063,18.15995,18.66207,19.21161,19.55566,19.47786,18.91056,17.99164,17.02201,16.32537,16.07938,16.21299,16.43832,16.40824,15.91781,15.03332,14.08,13.4972,13.64623,14.66986,16.45665,18.69639,20.96775,22.81663,23.82735,23.71849,22.47714,20.47432,18.45345,17.31058,17.69098,19.5835,22.15944,24.03243,23.89349,21.23538,16.7594,12.17493,9.409918,9.599163,12.38876,15.97558,17.92308,16.36921,11.00182,3.281815,-4.218529,-9.020777,-9.864544,-7.18403,-2.732331,1.394654,3.783791,4.251276,3.681208,3.329036,4.028393,5.742313,7.65747,8.700674,8.141345,5.940398,2.697152,-0.714136,-3.569081,-5.538005,-6.657798,-7.112568,-7.010855,-6.317405,-4.975354,-3.114099,-1.174479,0.1760061,0.3322663,-0.8958055,-3.076885,-5.255914,-6.366567,-5.791342,-3.789993,-1.543618,-0.7243167,-2.740212,-7.996785,-15.55095,-23.37398,-29.14536,-31.22037,-29.30528,-24.49735,-18.67477,-13.55782,-9.938476,-7.475912,-5.136412,-1.989147,2.124677,6.442235,9.725506,11.01426,10.21782,8.175008,6.144827,5.033103,4.823364,4.555798,2.868225,-1.210625,-7.66668,-15.41895,-22.76632,-28.08978,-30.43304,-29.7047,-26.48948,-21.66399,-16.06704,-10.36078,-5.060551,-0.5939708,2.721149,4.782726,5.795385,6.234551,6.659383,7.467124,8.733816,10.23639,11.63163,12.66621,13.28422,13.58511,13.69463,13.66776,13.49643,13.19725,12.87507,12.67948,12.6664,12.67856,12.37852,11.46519,9.958554,8.344341,7.424807,7.903725,9.928441,12.8825,15.60287,16.94009,16.35944,14.22956,11.62237,9.736753,9.284345,10.19044,11.7587,13.15746,13.89997,14.02602,13.91335,13.9017,14.02099,14.01606,13.62367,12.8657,12.11061,11.82782,12.20457,12.91284,13.23243,12.48821,10.52836,7.912827,5.657461,4.668105,5.212006,6.762013,8.314158,8.976618,8.458127,7.161026,5.84866,5.134062,5.137903,5.524666,5.853959,5.967996,6.122369,6.764551,8.126661,9.939198,11.49211,12.02669,11.20472,9.340022,7.234861,5.726506,5.240027,5.626847,6.366669,6.961165,7.234077,7.344073,7.541318,7.887527,8.1784,8.133657,7.699098,7.197726,7.165621,7.952491,9.371942,10.69138,11.03805,9.991314,7.961452,6.053632,5.44016,6.606977,8.965578,11.12166,11.68112,10.11457,7.133381,4.319007,3.21099,4.411276,7.25857,10.27371,12.08663,12.25092,11.42529,10.81478,11.2404,12.4522,13.14491,11.68643,7.119805,-0.1808052,-8.596025,-16.034,-20.92521,-22.86707,-22.59799,-21.39894,-20.34839,-19.88244,-19.85814,-19.9586,-20.08313,-20.42743,-21.22972,-22.42589,-23.52713,-23.85666,-23.00525,-21.17299,-19.12209,-17.73089,-17.42746,-17.89139,-18.25629,-17.70795,-16.09582,-14.13644,-13.04057,-13.76634,-16.36385,-19.83985,-22.65468,-23.56811,-22.32372,-19.75435,-17.25406,-15.94753,-16.07273,-16.94249,-17.47742,-16.94609,-15.42877,-13.7199,-12.75777,-12.97596,-14.0119,-14.96013,-14.99624,-13.94741,-12.42553,-11.42871,-11.66768,-13.05985,-14.72489,-15.49451,-14.61896,-12.22757,-9.262948,-6.941551,-6.085889,-6.735717,-8.249903,-9.785257,-10.8125,-11.33445,-11.70033,-12.19665,-12.74467,-12.93462,-12.37088,-11.05805,-9.51069,-8.460395,-8.334465,-8.874962,-9.213747,-8.42239,-6.219463,-3.359818,-1.383422,-1.792934,-5.111978,-10.40161,-15.58086,-18.4284,-17.72561,-13.89293,-8.751597,-4.552536,-2.833969,-3.756074,-6.253027,-8.84234,-10.54643,-11.34901,-11.9388,-12.9669,-14.35546,-15.15309,-14.05907,-10.29243,-4.24051,2.553098,8.09579,10.9502,10.95425,9.248978,7.617266,7.53692,9.486976,12.85818,16.44264,19.14742,20.50185,20.70887,20.31122,19.76225,19.19957,18.53091,17.70305,16.90619,16.5407,16.96328,18.20286,19.86091,21.28221,21.89225,21.49001,20.31703,18.88274,17.67669,16.9526,16.69347,16.72722,16.87482,17.01906,17.08339,16.99644,16.72224,16.35698,16.18669,16.5928,17.78608,19.50955,20.94378,20.97436,18.76229,14.33212,8.793533,3.98542,1.646713,2.532845,5.97985,10.1983,13.17214,13.67955,11.86706,9.062284,6.950066,6.603288,7.930661,9.833563,10.93611,10.41887,8.454853,6.023025,4.264394,3.813908,4.516997,5.664571,6.540299,6.89645,7.050601,7.575543,8.82233,10.61491,12.31957,13.22817,12.99002,11.80681,10.27813,9.017797,8.303511,7.978086,7.637983,6.951693,5.883071,4.679535,3.662455,2.991672,2.576554,2.189222,1.681104,1.1315,0.8115154,0.9862072,1.695252,2.67218,3.465223,3.683498,3.211371,2.256032,1.209413,0.4211456,0.02694312,-0.07651977,-0.1225459,-0.3216731,-0.7632457,-1.406502,-2.128239,-2.767641,-3.144417,-3.077392,-2.447553,-1.306038,0.03998634,1.06341,1.220452,0.2513643,-1.594135,-3.579456,-4.80039,-4.66141,-3.239038,-1.292881,0.124222,0.258969,-0.8920524,-2.56002,-3.647929,-3.395505,-1.866308,0.04632581,1.119865,0.5209641,-1.682119,-4.524351,-6.668008,-7.139837,-5.85394,-3.623874,-1.675369,-0.9623358,-1.685076,-3.269871,-4.78341,-5.503342,-5.301743,-4.638111,-4.210301,-4.507168,-5.539432,-6.886947,-7.9944,-8.506477,-8.434762,-8.076608,-7.767097,-7.63555,-7.518989,-7.071289,-5.994835,-4.257918,-2.190887,-0.4190744,0.3290185,-0.5331281,-3.2307,-7.495937,-12.57421,-17.3916,-20.86583,-22.27444,-21.53809,-19.2719,-16.53768,-14.37333,-13.30915,-13.12649,-13.00778,-12.03001,-9.752839,-6.578059,-3.658699,-2.37679,-3.647894,-7.417804,-12.62158,-17.63004,-20.951,-21.82807,-20.45206,-17.72344,-14.73765,-12.28962,-10.6374,-9.587811,-8.78334,-7.976654,-7.137017,-6.361949,-5.700517,-5.034963,-4.107254,-2.671228,-0.6667123,1.694189,3.981884,5.711522,6.533393,6.368683,5.449014,4.254721,3.370661,3.281735,4.148468,5.62732,6.830475,6.508101,3.459328,-2.944135,-12.33826,-23.28208,-33.6189,-41.18716,-44.5961,-43.71525,-39.64268,-34.16589,-28.97779,-25.03009,-22.31775,-20.15339,-17.72885,-14.62975,-11.0296,-7.494592,-4.569499,-2.42121,-0.7650415,0.890951,2.847393,4.914438,6.403133,6.425204,4.345961,0.1516553,-5.45482,-11.27285,-16.02828,-18.80974,-19.33639,-17.96573,-15.46195,-12.63821,-10.0176,-7.648589,-5.145391,-1.940003,2.359426,7.667299,13.33718,18.36702,21.82537,23.2955,23.09832,22.14505,21.47231,21.70205,22.74389,23.93414,24.552,24.40479,24.0895,24.71029,27.15451,31.33908,35.9198,38.72544,37.77128,32.32762,23.43937,13.5604,5.450991,0.9205322,0.08675462,1.540134,3.276953,3.834034,2.962946,1.493488,0.5437562,0.632966,1.289223,1.400563,0.06043999,-2.672722,-5.634678,-7.166796,-6.118807,-2.614284,1.920216,5.508829,6.720198,5.445087,2.892275,0.8198681,0.4817502,1.929361,4.073523,5.431106,5.068715,3.157058,0.8181657,-0.6018129,-0.3560229,1.291437,3.286371,4.456016,4.182559,2.671512,0.6929007,-0.979773,-2.03972,-2.728902,-3.519509,-4.65218,-5.867379,-6.516956,-5.972133,-4.047521,-1.158043,1.883411,4.283926,5.62839,5.964257,5.599526,4.796729,3.599526,1.915825,-0.2199637,-2.423393,-3.97939,-4.143285,-2.563832,0.4350598,3.908343,6.680431,7.871103,7.274342,5.393659,3.131156,1.318771,0.3485665,0.08344541,0.05963885,-0.1665696,-0.7363933,-1.421466,-1.78739,-1.48001,-0.4661196,0.9014034,2.028158,2.358603,1.654433,0.1315699,-1.614432,-2.871353,-3.142565,-2.39257,-1.075624,0.08003132,0.442646,-0.1814398,-1.417974,-2.491428,-2.62028,-1.443772,0.7491091,3.116354,4.645871,4.625337,2.955979,0.1571299,-2.920484,-5.498548,-7.173114,-7.976191,-8.21218,-8.205566,-8.12379,-7.957553,-7.629771,-7.122765,-6.533794,-6.038336,-5.81692,-6.013165,-6.739347,-8.082359,-10.04816,-12.43916,-14.74779,-16.18955,-15.94564,-13.54182,-9.169052,-3.730433,1.475159,5.309264,7.302545,7.828217,7.831131,8.261919,9.542675,11.3737,12.97717,13.61022,13.01651,11.54531,9.887789,8.631827,7.938741,7.54373,7.048682,6.276167,5.419896,4.88872,4.968032,5.560884,6.217291,6.445728,6.088067,5.476208,5.229348,5.806825,7.117548,8.473124,8.952455,7.964191,5.646611,2.831833,0.5794084,-0.4343303,-0.2858188,0.3022572,0.4681265,-0.2126527,-1.454382,-2.462489,-2.46836,-1.246838,0.7147809,2.493094,3.261876,2.746196,1.332197,-0.1918569,-1.064072,-0.871927,0.3881047,2.466801,5.050882,7.825423,10.40022,12.24255,12.77771,11.68045,9.191244,6.197668,3.925462,3.329581,4.512092,6.538509,7.825162,6.935637,3.359547,-2.172107,-8.021658,-12.44499,-14.40304,-13.94251,-11.97,-9.610661,-7.564486,-5.835342,-3.94376,-1.425397,1.736195,5.015954,7.617878,8.905696,8.709214,7.341155,5.366745,3.315618,1.524573,0.1640271,-0.6491271,-0.801809,-0.2671658,0.7524545,1.777772,2.207641,1.633274,0.1238875,-1.726606,-3.070316,-3.267376,-2.270734,-0.6910166,0.5189034,0.5880371,-0.6418862,-2.62387,-4.397753,-5.088016,-4.325486,-2.376986,0.0502329,2.179239,3.494641,3.88357,3.574664,2.971644,2.49656,2.495309,3.185496,4.602684,6.543678,8.560605,10.07109,10.58605,9.960573,8.519484,6.950896,5.988373,6.040203,6.973967,8.189208,8.945274,8.762077,7.669158,6.169637,4.958558,4.56733,5.134022,6.403486,7.916292,9.24729,10.15405,10.58261,10.57812,10.19661,9.483547,8.513396,7.433737,6.458054,5.80297,5.613769,5.929554,6.703327,7.839413,9.206442,10.61047,11.77342,12.37759,12.19462,11.24174,9.84885,8.554017,7.845448,7.890068,8.426857,8.922774,8.919484,8.356727,7.649395,7.434024,8.127306,9.580622,11.08455,11.76196,11.12905,9.465442,7.728022,7.019409,7.914465,10.06118,12.32458,13.41353,12.62483,10.25802,7.447572,5.517714,5.253166,6.523011,8.462489,10.06653,10.80023,10.84719,10.86806,11.46852,12.75139,14.24914,15.26082,15.34142,14.59575,13.57973,12.89116,12.74781,12.85831,12.67707,11.86091,10.59184,9.51955,9.338902,10.27874,11.86282,13.1321,13.21415,11.88,9.714681,7.761182,6.832994,6.915198,7.042365,5.761349,1.935957,-4.559079,-12.65438,-20.52023,-26.38546,-29.30326,-29.48,-28.03604,-26.376,-25.52372,-25.7497,-26.62543,-27.40215,-27.4701,-26.66504,-25.30389,-23.98848,-23.31146,-23.6065,-24.83222,-26.60902,-28.37186,-29.57981,-29.91253,-29.38732,-28.34643,-27.31088,-26.74957,-26.8695,-27.53472,-28.36558,-28.97093,-29.18284,-29.14996,-29.22214,-29.68751,-30.52547,-31.34227,-31.55799,-30.75443,-28.98347,-26.83732,-25.20776,-24.84641,-25.95666,-28.04877,-30.14817,-31.25291,-30.80156,-28.90894,-26.25735,-23.72377,-21.95315,-21.10501,-20.88452,-20.80475,-20.50287,-19.92569,-19.29087,-18.87814,-18.79692,-18.89082,-18.83705,-18.38165,-17.55726,-16.73693,-16.47006,-17.17447,-18.84991,-20.98541,-22.73084,-23.27156,-22.22623,-19.86322,-17.0167,-14.72596,-13.77132,-14.32952,-15.92083,-17.66919,-18.73677,-18.70953,-17.73668,-16.36982,-15.20889,-14.56483,-14.33153,-14.12876,-13.61436,-12.76336,-11.93303,-11.66941,-12.37267,-14.03223,-16.20534,-18.26095,-19.741,-20.61073,-21.22734,-22.03402,-23.1633,-24.20782,-24.32957,-22.67606,-18.87672,-13.32664,-7.072896,-1.348677,2.989645,5.804593,7.603311,9.099833,10.68264,12.11753,12.67334,11.60355,8.696182,4.555512,0.4318334,-2.319989,-2.856762,-1.199949,1.856001,5.203211,7.97029,9.855151,11.08656,12.0949,13.13726,14.12512,14.74337,14.749,14.21675,13.54816,13.22599,13.47978,14.09689,14.51948,14.18293,12.88509,10.95076,9.081876,7.982735,7.991066,8.937723,10.30583,11.56959,12.48539,13.15037,13.81521,14.6034,15.35201,15.70047,15.37245,14.45431,13.46343,13.13392,14.03408,16.24896,19.32534,22.51151,25.14111,26.92593,27.9903,28.6601,29.172,29.50956,29.46587,28.86329,27.74981,26.41376,25.20224,24.28419,23.54679,22.72584,21.69057,20.66932,20.21883,20.90555,22.87505,25.60159,28.02192,29.03002,28.0688,25.46647,22.29953,19.8432,18.92117,19.53038,20.95,22.241,22.81507,22.71546,22.45721,22.56231,23.12005,23.67679,23.53261,22.2415,19.97472,17.49015,15.70786,15.15674,15.64515,16.37251,16.42247,15.33302,13.39458,11.4889,10.57126,11.10856,12.80701,14.78003,16.04101,16.02349,14.83342,13.11606,11.64714,10.90724,10.87799,11.14565,11.21543,10.82989,10.11237,9.474292,9.362047,9.994697,11.22669,12.59354,13.50656,13.5069,12.47746,10.72968,8.925684,7.846486,8.072909,9.69733,12.19942,14.5766,15.71447,14.86074,11.98431,7.831223,3.622367,0.5204988,-0.8739375,-0.7452146,0.1063843,0.7235005,0.4861534,-0.6215602,-2.095306,-3.264287,-3.687992,-3.366364,-2.668741,-2.063453,-1.840885,-2.002594,-2.356329,-2.718413,-3.059647,-3.492329,-4.120147,-4.880064,-5.509368,-5.677963,-5.199239,-4.168721,-2.922043,-1.829972,-1.066426,-0.5128679,0.126554,1.068342,2.225636,3.178633,3.376471,2.453162,0.4584622,-2.146765,-4.729951,-6.809227,-8.254314,-9.245946,-10.0381,-10.70091,-11.03597,-10.73133,-9.65295,-8.059533,-6.564737,-5.834084,-6.188574,-7.368233,-8.627682,-9.134335,-8.445071,-6.776617,-4.899865,-3.714162,-3.751724,-4.904928,-6.529104,-7.844674,-8.382151,-8.202569,-7.77834,-7.639921,-8.034911,-8.819627,-9.632169,-10.20025,-10.55031,-10.96297,-11.71004,-12.7749,-13.77682,-14.17894,-13.6506,-12.32413,-10.7402,-9.4866,-8.760477,-8.169678,-6.952967,-4.520881,-0.9771729,2.748136,5.303113,5.656948,3.737747,0.5447222,-2.377693,-3.815329,-3.579705,-2.582313,-2.227865,-3.500115,-6.325236,-9.627645,-12.04842,-12.85203,-12.40543,-11.8848,-12.37957,-13.99981,-15.63188,-15.59386,-12.83905,-7.935544,-3.117638,-1.237796,-4.150394,-11.47047,-20.50288,-27.47665,-29.44517,-25.78934,-18.47331,-10.92271,-6.198545,-5.535967,-8.058702,-11.74147,-14.92831,-17.40181,-20.32127,-25.10147,-31.99546,-39.35175,-44.09876,-43.24505,-35.53908,-22.31324,-7.007051,6.373125,15.01007,18.31794,17.79775,15.91831,14.74217,15.05652,16.37956,17.66126,18.13348,17.77702,17.20164,17.13161,17.90032,19.27847,20.68851,21.60138,21.82839,21.54778,21.10895,20.79848,20.73237,20.90398,21.29029,21.88931,22.64661,23.35274,23.63215,23.08699,21.53086,19.15712,16.51784,14.30324,13.05138,12.95487,13.85719,15.39382,17.14349,18.67544,19.49752,19.02232,16.67756,12.17823,5.81776,-1.444603,-8.236727,-13.2998,-16.0224,-16.67184,-16.16727,-15.5158,-15.24602,-15.18151,-14.68945,-13.23497,-10.87351,-8.352789,-6.745801,-6.839286,-8.660884,-11.4403,-14.02581,-15.49746,-15.60548,-14.79314,-13.8253,-13.28681,-13.26452,-13.38373,-13.13039,-12.22054,-10.77814,-9.236238,-8.064613,-7.520824,-7.576386,-8.024928,-8.655408,-9.350488,-10.05222,-10.65566,-10.94721,-10.66421,-9.650129,-7.994832,-6.050377,-4.294262,-3.116861,-2.658308,-2.783259,-3.191956,-3.584271,-3.783421,-3.772215,-3.662409,-3.643732,-3.938715,-4.746647,-6.152972,-8.019217,-9.927474,-11.26643,-11.48053,-10.38559,-8.367639,-6.302575,-5.180686,-5.608152,-7.464039,-9.93285,-11.92073,-12.63025,-11.96105,-10.50254,-9.135781,-8.503958,-8.684366,-9.254739,-9.678051,-9.720486,-9.603312,-9.784632,-10.5337,-11.61304,-12.31976,-11.88832,-10.00192,-7.070283,-4.073508,-2.052465,-1.558254,-2.398149,-3.822094,-5.010967,-5.546323,-5.575314,-5.602477,-6.086635,-7.129011,-8.446237,-9.608745,-10.34408,-10.68428,-10.87669,-11.16105,-11.60662,-12.13443,-12.68457,-13.35733,-14.37519,-15.86066,-17.59689,-18.9896,-19.32464,-18.19611,-15.82813,-13.04346,-10.85673,-9.925879,-10.21359,-11.0883,-11.80492,-12.04085,-12.111,-12.69458,-14.23822,-16.44327,-18.20964,-18.12965,-15.26075,-9.710343,-2.670234,4.134079,9.256137,12.13762,13.19467,13.39732,13.6543,14.39053,15.52615,16.77516,17.98429,19.24794,20.74134,22.43522,23.95144,24.70048,24.23231,22.56324,20.25221,18.16497,17.06915,17.30034,18.67428,20.64452,22.56952,23.91928,24.36046,23.76707,22.24733,20.20253,18.33355,17.4768,18.25851,20.71512,24.13668,27.30539,29.07307,28.96937,27.46132,25.6622,24.63539,24.71874,25.31623,25.31927,23.90378,21.17884,18.23506,16.5249,16.95354,19.27204,22.1831,24.10592,24.10986,22.4093,20.11243,18.41894,17.8373,17.96391,17.96226,17.3597,16.53939,16.49939,17.98727,20.61164,22.62619,21.6852,16.21539,6.572641,-4.793521,-14.38149,-19.34894,-18.91516,-14.63558,-9.402841,-5.797298,-4.786887,-5.522468,-6.265402,-5.774159,-4.222166,-3.066102,-3.994803,-7.689512,-13.22994,-18.54014,-21.57815,-21.49771,-19.04491,-15.96305,-13.81564,-12.99295,-12.51942,-10.74947,-6.484735,0.1923054,7.855497,14.43341,18.21025,18.54417,15.95313,11.63765,6.815427,2.276715,-1.657441,-4.888735,-7.280459,-8.596079,-8.652795,-7.528303,-5.635031,-3.589758,-1.970366,-1.120317,-1.10575,-1.803546,-3.010571,-4.483296,-5.913791,-6.933143,-7.220604,-6.69391,-5.647177,-4.690794,-4.463933,-5.263933,-6.831834,-8.465475,-9.424598,-9.385647,-8.644446,-7.916495,-7.848568,-8.563801,-9.550878,-9.989264,-9.302554,-7.569574,-5.507556,-4.027439,-3.652902,-4.192582,-4.884497,-4.911301,-3.928777,-2.244863,-0.5316651,0.7152932,1.572082,2.635417,4.540697,7.380796,10.45225,12.54972,12.65865,10.60889,7.249807,4.001212,2.040836,1.630978,2.011357,1.927083,0.4603179,-2.357469,-5.532169,-7.69277,-7.90656,-6.224269,-3.641267,-1.526746,-0.8826058,-1.863815,-3.795507,-5.609935,-6.401641,-5.789161,-3.948601,-1.40688,1.206609,3.299798,4.346638,3.912551,1.773009,-1.896385,-6.398667,-10.616,-13.36509,-13.86555,-12.07592,-8.70483,-4.883704,-1.682266,0.273334,0.9049447,0.5179259,-0.4667456,-1.693024,-2.881481,-3.744061,-3.949023,-3.228373,-1.577296,0.6166757,2.662938,3.880353,3.963077,3.158428,2.111134,1.44407,1.334909,1.37738,0.8476923,-0.7678604,-3.316912,-5.910689,-7.327168,-6.678247,-3.952673,-0.1034655,3.389073,5.240648,4.969906,3.063877,0.6419582,-1.158338,-1.714619,-1.1004,0.1244176,1.321883,2.110039,2.445732,2.472467,2.301165,1.907176,1.209936,0.2477425,-0.7187427,-1.287608,-1.153867,-0.3486559,0.6973723,1.341131,1.076122,-0.1557461,-1.880354,-3.296999,-3.668525,-2.686981,-0.623548,1.806062,3.777335,4.716528,4.513685,3.511026,2.304276,1.470925,1.348196,1.937358,2.945372,3.924522,4.448176,4.261649,3.360529,1.971929,0.4467613,-0.8927268,-1.879879,-2.538466,-3.003645,-3.37279,-3.581781,-3.399946,-2.5716,-1.036652,0.9059804,2.616631,3.34625,2.581613,0.3224546,-2.873026,-6.117445,-8.586053,-9.863306,-10.05957,-9.649458,-9.144195,-8.80404,-8.559802,-8.169609,-7.483786,-6.620855,-5.925527,-5.730316,-6.087755,-6.667919,-6.915026,-6.381526,-5.028475,-3.287847,-1.824855,-1.135053,-1.229028,-1.619617,-1.644969,-0.9479548,0.1801698,0.8197091,-0.1726203,-3.577721,-9.359845,-16.5867,-23.75844,-29.37015,-32.42393,-32.67521,-30.56126,-26.9275,-22.72802,-18.82079,-15.87043,-14.28749,-14.15474,-15.16353,-16.65018,-17.80178,-17.99202,-17.09042,-15.54575,-14.15253,-13.59359,-14.01791,-14.92231,-15.44472,-14.91753,-13.34784,-11.50112,-10.4904,-11.07654,-13.08634,-15.316,-16.02282,-13.7668,-8.154041,-0.08216273,8.638482,16.07125,20.92923,22.96281,22.82989,21.60172,20.22703,19.22287,18.67695,18.44475,18.34892,18.25692,18.05122,17.59577,16.78564,15.6635,14.49198,13.68124,13.57158,14.20161,15.23545,16.13215,16.47342,16.23816,15.82116,15.76313,16.35683,17.40188,18.29607,18.42439,17.59546,16.21627,15.06112,14.76169,15.35405,16.2026,16.38492,15.31217,13.18122,10.94547,9.792509,10.44359,12.72127,15.66594,18.13425,19.49278,19.95817,20.35984,21.48802,23.46318,25.55939,26.61519,25.78018,23.11577,19.65365,16.85775,15.81751,16.66692,18.57589,20.29723,20.90626,20.2726,18.99845,17.91606,17.51256,17.66896,17.86505,17.66895,17.14067,16.84347,17.44351,19.16616,21.49469,23.35028,23.67354,22.06417,19.07759,15.98194,14.10247,14.12865,15.77902,18.00219,19.58263,19.79354,18.73388,17.18395,16.08398,15.94801,16.52923,16.90838,15.94453,12.85187,7.618731,1.074871,-5.417877,-10.50917,-13.39884,-14.1371,-13.55661,-12.86345,-13.06818,-14.51587,-16.74122,-18.72489,-19.4315,-18.36045,-15.82074,-12.78413,-10.39375,-9.397825,-9.818791,-11.02872,-12.16364,-12.61358,-12.29385,-11.55478,-10.82755,-10.26813,-9.652906,-8.593269,-6.908647,-4.877709,-3.16508,-2.445551,-2.968093,-4.361088,-5.833283,-6.660835,-6.649482,-6.260334,-6.300991,-7.369412,-9.410958,-11.68671,-13.19038,-13.25839,-11.98712,-10.19078,-8.925137,-8.879046,-10.01418,-11.66917,-13.03667,-13.69178,-13.82295,-14.0272,-14.82321,-16.21906,-17.62927,-18.20133,-17.33991,-15.09093,-12.14187,-9.442139,-7.684553,-6.963968,-6.803597,-6.503298,-5.575114,-4.003197,-2.198486,-0.7159741,0.06832929,0.1354823,-0.2091825,-0.5099258,-0.3486497,0.5399916,2.226667,4.568877,7.188594,9.486813,10.77074,10.52084,8.707486,5.967336,3.462027,2.39297,3.363864,5.9289,8.625514,9.55859,7.294939,1.624233,-6.225807,-14.06248,-19.67206,-21.76424,-20.4477,-17.02689,-13.26317,-10.51836,-9.220079,-8.879642,-8.575635,-7.579394,-5.764494,-3.607072,-1.839925,-1.006036,-1.180387,-1.992542,-2.890805,-3.45735,-3.585212,-3.43896,-3.263764,-3.188937,-3.151336,-2.971003,-2.509053,-1.795838,-1.048951,-0.5792461,-0.6482573,-1.358696,-2.623688,-4.206473,-5.789301,-7.036739,-7.648553,-7.41957,-6.315588,-4.538326,-2.52521,-0.8407802,0.02641887,-0.1232713,-1.098445,-2.406256,-3.513723,-4.150407,-4.476332,-4.999509,-6.266441,-8.4956,-11.37446,-14.16376,-16.07152,-16.69439,-16.26123,-15.52007,-15.31475,-16.09078,-17.62096,-19.11818,-19.67553,-18.77096,-16.54028,-13.65975,-10.92755,-8.812368,-7.253321,-5.824405,-4.136449,-2.195999,-0.472301,0.3777963,-0.05450131,-1.626157,-3.678881,-5.398239,-6.264903,-6.306608,-5.997025,-5.884207,-6.213997,-6.807179,-7.268262,-7.364973,-7.292057,-7.610683,-8.882675,-11.24162,-14.20479,-16.87755,-18.44115,-18.61414,-17.79021,-16.75904,-16.19777,-16.26779,-16.57837,-16.52616,-15.76236,-14.46008,-13.1989,-12.55703,-12.71188,-13.34095,-13.90065,-14.08258,-14.10844,-14.62851,-16.26783,-19.12437,-22.57877,-25.57935,-27.23802,-27.35468,-26.51506,-25.68666,-25.57684,-26.17879,-26.8121,-26.62942,-25.2416,-23.03388,-20.94819,-19.87873,-20.08827,-21.04344,-21.7831,-21.56224,-20.33396,-18.7409,-17.63016,-17.44269,-17.91016,-18.27696,-17.8902,-16.72809,-15.47472,-15.0595,-15.96897,-17.81931,-19.52404,-19.98757,-18.87942,-16.95487,-15.66086,-16.2282,-18.80966,-22.21779,-24.46221,-23.78717,-19.59998,-12.74867,-5.013287,1.852691,6.943529,10.42975,13.13831,15.83382,18.69942,21.32843,23.16061,23.99849,24.20418,24.43251,25.09906,25.98052,26.2636,25.05268,22.02694,17.82095,13.85902,11.70826,12.30674,15.49666,20.10936,24.53589,27.46189,28.39033,27.73205,26.48682,25.72993,26.16884,27.93799,30.65621,33.65726,36.26636,38.02523,38.80103,38.77231,38.29919,37.73465,37.25127,36.7774,36.08106,34.95956,33.42297,31.73462,30.274,29.28801,28.70994,28.18797,27.33541,26.05167,24.68844,23.91322,24.32103,26.03036,28.53579,30.94061,32.44777,32.80048,32.38565,31.92687,31.97365,32.5322,33.09661,33.05854,32.20206,30.92257,29.99147,30.01716,30.97896,32.18549,32.71968,32.08478,30.59834,29.23779,29.01033,30.26812,32.44809,34.44192,35.35227,35.10694,34.47144,34.42203,35.31616,36.48882,36.65285,34.90684,31.66813,28.78377,28.54758,32.09081,38.13497,43.02002,42.24057,32.78718,15.02666,-7.010999,-27.21947,-40.11522,-43.23754,-37.99517,-28.58635,-19.67151,-14.13386,-12.10102,-11.60104,-10.25886,-6.914465,-2.219855,2.00417,4.089006,3.603187,1.539362,-0.4129709,-0.9403686,0.2069675,2.307216,4.373494,5.910282,7.178877,8.825387,11.19716,13.88748,15.86757,16.12938,14.38971,11.35135,8.323273,6.442003,6.009334,6.381825,6.469889,5.496615,3.504049,1.283192,-0.1956017,-0.4371037,0.2908465,1.216567,1.657874,1.505392,1.239302,1.467748,2.330822,3.229914,3.126038,1.250355,-2.242606,-6.149755,-8.769838,-8.834574,-6.257064,-2.225048,1.438012,3.268474,2.919271,1.238935,-0.3412511,-0.7018365,0.3495976,2.097502,3.50508,3.943364,3.571604,3.133786,3.337597,4.257968,5.183415,5.01928,2.989827,-0.8174214,-5.417061,-9.421039,-11.74944,-12.11979,-11.04028,-9.364224,-7.734933,-6.294027,-4.813288,-3.107018,-1.385736,-0.2667249,-0.4096193,-2.025359,-4.613145,-7.139342,-8.577322,-8.476068,-7.195744,-5.657368,-4.769505,-4.903026,-5.746997,-6.620911,-7.01053,-6.951425,-6.993451,-7.774855,-9.508901,-11.75321,-13.64213,-14.43955,-14.04193,-13.07552,-12.50314,-12.9878,-14.44096,-16.0713,-16.9191,-16.52653,-15.2837,-14.19188,-14.17488,-15.38478,-16.98748,-17.61162,-16.21638,-12.83194,-8.679192,-5.544415,-4.763373,-6.428135,-9.317704,-11.61287,-11.97266,-10.31923,-7.856647,-6.318402,-6.910228,-9.595056,-13.141,-15.87857,-16.68168,-15.57141,-13.60007,-12.13316,-12.00823,-13.09687,-14.50932,-15.26148,-14.94555,-13.9738,-13.26787,-13.63034,-15.2256,-17.50043,-19.56748,-20.77359,-21.07309,-20.97588,-21.13812,-21.88783,-23.01109,-23.92393,-24.09851,-23.44204,-22.37629,-21.57191,-21.518,-22.21255,-23.16703,-23.71319,-23.41204,-22.31684,-20.9395,-19.96424,-19.88268,-20.75794,-22.2224,-23.67881,-24.57921,-24.64071,-23.92042,-22.7461,-21.55497,-20.70862,-20.34849,-20.341,-20.34251,-19.97494,-19.0461,-17.70063,-16.39784,-15.685,-15.86432,-16.74377,-17.65099,-17.75244,-16.52973,-14.13076,-11.35735,-9.249373,-8.487625,-8.979488,-9.915673,-10.30661,-9.693871,-8.586397,-8.299509,-10.23265,-14.97546,-21.78247,-28.76702,-33.75815,-35.36272,-33.64126,-30.01358,-26.45836,-24.46708,-24.34356,-25.217,-25.70553,-24.79913,-22.43113,-19.43271,-16.95459,-15.74919,-15.75798,-16.22414,-16.21744,-15.21502,-13.38391,-11.42373,-10.10896,-9.834316,-10.43421,-11.34786,-11.98554,-12.04943,-11.62261,-11.01041,-10.47201,-10.03318,-9.49158,-8.59169,-7.237817,-5.601773,-4.057932,-2.989798,-2.585778,-2.743096,-3.130119,-3.370336,-3.246265,-2.814411,-2.370068,-2.277355,-2.752078,-3.715514,-4.808151,-5.57317,-5.718528,-5.304536,-4.723069,-4.440783,-4.628733,-4.901417,-4.36924,-2.047525,2.553575,8.986336,15.86946,21.4156,24.25712,24.13488,22.05385,19.77463,18.89872,20.04134,22.5575,24.97457,25.87406,24.70483,22.0652,19.31537,17.78735,18.08352,19.86802,22.22263,24.28145,25.7077,26.72086,27.71133,28.76844,29.49064,29.23031,27.60577,24.90321,22.06056,20.2075,20.04519,21.46817,23.67222,25.67137,26.8745,27.35033,27.62736,28.20759,29.15832,30.08011,30.46307,30.15784,29.59522,29.56111,30.65797,32.82035,35.23765,36.77419,36.63476,34.85333,32.28999,30.129,29.20854,29.59584,30.6547,31.52176,31.6505,31.071,30.23621,29.61962,29.38317,29.34951,29.25803,29.06832,29.03841,29.49703,30.48453,31.56183,31.98751,31.18909,29.2085,26.79043,24.99474,24.55161,25.3787,26.59123,27.02524,25.94334,23.46288,20.42655,17.81137,16.0849,14.95188,13.66354,11.66327,9.100655,6.830362,5.864927,6.641487,8.610431,10.45481,10.83344,9.182307,6.060399,2.81679,0.7955391,0.5889878,1.80358,3.450349,4.66071,5.229049,5.628515,6.525438,8.165196,10.08111,11.34215,11.17036,9.498223,7.07345,5.030059,4.203693,4.641607,5.620951,6.146895,5.592123,4.062237,2.274004,1.061345,0.8550639,1.467237,2.279885,2.664343,2.329799,1.393109,0.1864168,-0.9992676,-2.025656,-2.819686,-3.217698,-2.935017,-1.745589,0.242048,2.447737,3.995319,4.155688,2.795128,0.5150449,-1.652075,-2.834347,-2.831365,-2.206903,-1.888354,-2.527297,-4.041758,-5.64905,-6.372501,-5.68774,-3.876396,-1.848392,-0.5523351,-0.3674634,-0.8834674,-1.211627,-0.613847,0.9738897,2.870384,4.071854,3.881544,2.333261,0.1436602,-1.750761,-2.751087,-2.885895,-2.676651,-2.714461,-3.26455,-4.164567,-5.050364,-5.70363,-6.241172,-6.999692,-8.21009,-9.721849,-11.00706,-11.47119,-10.86833,-9.531326,-8.241302,-7.80774,-8.621441,-10.46313,-12.67534,-14.56653,-15.77611,-16.37743,-16.69235,-16.9877,-17.28763,-17.42387,-17.261,-16.89617,-16.66155,-16.9128,-17.75478,-18.91362,-19.86284,-20.12994,-19.58037,-18.48528,-17.33259,-16.51253,-16.09292,-15.82415,-15.3543,-14.49391,-13.34826,-12.24486,-11.52695,-11.36458,-11.69817,-12.31518,-12.96731,-13.43184,-13.50232,-12.97914,-11.73769,-9.869288,-7.783837,-6.139056,-5.560178,-6.28588,-7.978519,-9.881198,-11.27902,-11.98947,-12.52867,-13.77383,-16.28244,-19.70673,-22.75442,-23.83632,-22.08076,-18.09273,-13.90518,-12.02937,-14.07612,-19.74646,-26.83084,-32.29017,-33.83595,-31.11443,-25.81035,-20.62612,-17.75911,-17.77679,-19.52362,-21.03811,-20.85099,-18.83888,-16.1394,-14.25737,-14.00171,-14.96124,-15.83627,-15.36149,-13.17759,-10.06987,-7.438703,-6.380461,-7.002897,-8.41877,-9.39212,-9.181005,-8.007961,-6.862341,-6.795269,-8.201129,-10.56531,-12.82779,-14.09692,-14.2246,-13.86665,-14.00941,-15.2919,-17.57145,-19.99801,-21.52459,-21.50921,-20.04044,-17.82192,-15.74301,-14.42881,-14.02926,-14.30683,-14.89014,-15.49054,-15.96577,-16.26019,-16.34304,-16.2284,-16.05281,-16.10258,-16.70759,-18.03099,-19.89674,-21.80342,-23.15693,-23.58897,-23.15004,-22.23336,-21.27092,-20.41466,-19.43141,-17.90382,-15.595,-12.71343,-9.865349,-7.703679,-6.508876,-6.004613,-5.557967,-4.6446,-3.255334,-1.945167,-1.467356,-2.233517,-3.983763,-5.922523,-7.251467,-7.736232,-7.886684,-8.575271,-10.30766,-12.63494,-14.14935,-13.15271,-8.643295,-1.026625,7.909622,15.78238,20.7259,22.19779,21.04392,18.84367,16.98254,16.02461,15.71009,15.47602,15.06495,14.77659,15.20454,16.68856,18.91297,20.97559,21.90652,21.29078,19.5636,17.76366,16.90041,17.35081,18.68277,20.00791,20.61439,20.44629,20.11199,20.42988,21.8335,24.0414,26.2113,27.46334,27.41973,26.40547,25.20267,24.54352,24.69108,25.3695,26.04899,26.35661,26.31394,26.25711,26.52709,27.17898,27.92375,28.33063,28.12729,27.37034,26.37644,25.4872,24.86763,24.49083,24.30064,24.38204,24.95627,26.16112,27.7762,29.1456,29.44104,28.16516,25.57402,22.69596,20.85002,20.90582,22.73411,25.2211,26.88021,26.70764,24.74964,22.01781,19.8025,18.83408,18.84737,18.84363,17.87716,15.82808,13.61859,12.69059,14.06879,17.62686,22.06858,25.6705,27.3224,27.18501,26.51997,26.78789,28.61038,31.30045,33.30847,33.31873,31.27055,28.58207,27.34253,28.90733,32.76675,36.4486,36.62687,30.8749,19.08801,3.74976,-11.13255,-21.8526,-26.60655,-26.04449,-22.56352,-18.83388,-16.42787,-15.27839,-14.15388,-11.74323,-7.642282,-2.671662,1.590268,3.708321,3.159651,0.5482882,-2.791659,-5.508134,-6.82971,-6.754492,-5.813277,-4.63159,-3.583289,-2.709089,-1.877455,-1.020068,-0.2624662,0.1275289,-0.08320989,-0.9215382,-2.154472,-3.378907,-4.194694,-4.36024,-3.857946,-2.854511,-1.596468,-0.3042006,0.8878635,1.929475,2.811421,3.519626,4.023643,4.314224,4.469288,4.69639,5.296654,6.5268,8.40677,10.58,12.347,12.91896,11.81367,9.194804,5.935215,3.301795,2.36664,3.437783,5.842422,8.23374,9.304555,8.532902,6.528628,4.748895,4.706067,7.102159,11.38803,16.01758,19.26294,20.12547,18.81585,16.53681,14.71987,14.18982,14.76367,15.50126,15.41454,14.15906,12.25926,10.73363,10.38082,11.20521,12.36693,12.69109,11.40783,8.641648,5.336987,2.670497,1.332237,1.13521,1.194321,0.544647,-1.208774,-3.628591,-5.729548,-6.614448,-6.047906,-4.603828,-3.304921,-2.99298,-3.830015,-5.22962,-6.239646,-6.119944,-4.757493,-2.686295,-0.7361509,0.4469636,0.7133266,0.3895078,-0.02432196,-0.2330527,-0.3742451,-0.9829156,-2.734666,-6.114002,-11.16133,-17.38778,-23.8671,-29.46463,-33.14156,-34.26363,-32.82599,-29.49348,-25.4031,-21.7567,-19.35803,-18.31066,-18.04901,-17.71203,-16.67494,-14.94562,-13.19013,-12.35488,-13.09412,-15.33358,-18.23056,-20.56326,-21.33335,-20.25226,-17.86104,-15.25401,-13.58891,-13.65141,-15.65405,-19.28268,-23.86866,-28.5556,-32.41854,-34.59328,-34.48159,-32.00499,-27.76669,-22.94914,-18.90349,-16.58103,-16.10982,-16.78457,-17.51168,-17.46772,-16.57654,-15.50008,-15.1452,-16.00572,-17.78278,-19.55204,-20.38351,-19.99976,-19.00873,-18.51772,-19.35203,-21.3985,-23.5438,-24.31549,-22.86108,-19.6474,-16.39914,-15.25246,-17.59071,-23.24744,-30.55086,-37.18198,-41.33364,-42.50194,-41.48973,-39.70705,-38.26609,-37.44873,-36.82511,-35.85044,-34.45653,-33.20151,-32.87011,-33.83165,-35.63885,-37.18561,-37.36255,-35.78191,-33.08543,-30.60057,-29.54418,-30.26436,-32.008,-33.36704,-33.13055,-31.01981,-27.85789,-25.07906,-23.88565,-24.56439,-26.35727,-27.94195,-28.21359,-26.9056,-24.70231,-22.80671,-22.2309,-23.20618,-25.01957,-26.33584,-25.82295,-22.76658,-17.39629,-10.79773,-4.472071,0.2608276,2.764439,3.29267,2.8184,2.557084,3.393158,5.473071,8.165121,10.41563,11.32387,10.63128,8.848676,6.945113,5.773942,5.579751,5.89315,5.887038,4.978176,3.288497,1.653125,1.14177,2.375178,5.065433,8.0883,10.07068,10.15262,8.468508,6.060369,4.282942,4.066724,5.474022,7.783965,10.00331,11.4515,12.05738,12.2264,12.42985,12.83611,13.23326,13.26666,12.78026,11.99089,11.36242,11.27692,11.75249,12.42066,12.78353,12.56237,11.8845,11.1761,10.84775,11.00917,11.42645,11.74472,11.79752,11.7519,11.96581,12.66257,13.6836,14.545,14.79664,14.43919,14.06698,14.56769,16.52272,19.69891,23.01502,25.08397,25.04511,23.16703,20.80442,19.67495,20.86009,24.13086,28.02628,30.65541,30.75088,28.349,24.70576,21.53406,20.05362,20.43017,21.90255,23.44531,24.48973,25.23078,26.35242,28.40689,31.29274,34.18555,35.94561,35.70449,33.23509,28.88651,23.18806,16.45059,8.682469,-0.1216828,-9.543042,-18.51477,-25.53671,-29.26223,-29.11963,-25.59294,-19.98609,-13.81122,-8.159583,-3.400751,0.6729726,4.420686,7.955211,11.01873,13.16095,14.04549,13.65351,12.26761,10.2946,8.101454,5.988739,4.289641,3.448129,3.934341,5.98269,9.311181,13.0475,15.99158,17.13138,16.14605,13.59986,10.69972,8.733413,8.494283,9.991022,12.56281,15.28249,17.38968,18.52978,18.73467,18.25278,17.39424,16.48346,15.87757,15.9413,16.90785,18.68737,20.77908,22.42116,22.95598,22.22296,20.71738,19.37165,19.04471,20.0127,21.77866,23.34339,23.79035,22.83591,21.00521,19.32523,18.72435,19.51272,21.2537,23.08343,24.25282,24.5344,24.25008,23.93709,23.90828,24.02132,23.8073,22.85546,21.17079,19.24607,17.79543,17.33003,17.86557,18.95269,19.99206,20.598,20.74883,20.62349,20.26097,19.32218,17.16951,13.26075,7.615777,1.033769,-5.122566,-9.489985,-11.302,-10.67645,-8.436394,-5.595555,-2.834622,-0.2789476,2.325511,5.206909,8.240726,10.93483,12.73055,13.39656,13.22763,12.89308,13.02354,13.80324,14.83883,15.39026,14.81497,12.94331,10.15842,7.157628,4.574934,2.717968,1.564726,0.9690651,0.8776244,1.370262,2.490492,4.014262,5.374395,5.858154,4.990226,2.855091,0.1186442,-2.304353,-3.748473,-4.14386,-3.97537,-3.874977,-4.122457,-4.408677,-4.051499,-2.543126,-0.05939299,2.447363,3.697229,2.834529,0.01370122,-3.582962,-6.359365,-7.209032,-6.15956,-4.346915,-3.31738,-4.075805,-6.47155,-9.305543,-11.09255,-10.99479,-9.336048,-7.370775,-6.462256,-7.204935,-9.060281,-10.74465,-11.12053,-10.01217,-8.41398,-7.941911,-9.864,-14.30696,-20.12565,-25.50035,-28.8832,-29.71855,-28.53811,-26.44198,-24.35656,-22.56219,-20.75101,-18.50304,-15.78684,-13.10611,-11.19318,-10.48759,-10.7992,-11.42159,-11.63668,-11.26035,-10.83041,-11.27517,-13.25732,-16.62622,-20.35858,-23.06127,-23.73689,-22.34294,-19.79533,-17.42025,-16.2015,-16.28088,-16.99799,-17.40389,-16.898,-15.59301,-14.20959,-13.61437,-14.31527,-16.21675,-18.7328,-21.12858,-22.84757,-23.65403,-23.58251,-22.82119,-21.65223,-20.4664,-19.76041,-20.01347,-21.44901,-23.81916,-26.39715,-28.25339,-28.69732,-27.63169,-25.58497,-23.38793,-21.69201,-20.63866,-19.88641,-18.95262,-17.60617,-16.01574,-14.55373,-13.42465,-12.44872,-11.22611,-9.616272,-8.178622,-8.1735,-10.97958,-17.1979,-26.00065,-35.21645,-42.22675,-45.22327,-44.09389,-40.37382,-36.24596,-33.17561,-31.01513,-28.1532,-22.6443,-13.63169,-2.174538,9.065167,17.12495,20.28062,18.92265,15.27577,12.15783,11.52121,13.60324,17.09595,20.12005,21.3501,20.63159,18.82062,17.08302,16.17736,16.16266,16.62025,17.12337,17.57045,18.16028,19.09702,20.30538,21.40786,21.98123,21.87915,21.35116,20.85031,20.67268,20.71877,20.58466,19.93911,18.9055,18.13376,18.44741,20.2631,23.17661,26.03378,27.5059,26.84307,24.33816,21.19554,18.85913,18.2012,19.05435,20.36612,20.86305,19.8172,17.4572,14.80659,13.07574,12.98489,14.39927,16.4446,17.99393,18.23308,17.02463,14.93378,12.95976,12.12548,13.08291,15.85318,19.76681,23.6377,26.15447,26.39067,24.23873,20.53872,16.77174,14.39466,14.12677,15.57839,17.47206,18.37975,17.57758,15.51331,13.57837,13.28624,15.33231,19.1071,22.97637,25.18166,24.82767,22.36621,19.28982,17.22917,17.00047,18.16313,19.31454,18.90263,16.049,10.92096,4.508847,-1.962245,-7.581967,-11.96452,-15.09938,-17.07073,-17.91454,-17.7091,-16.76822,-15.69657,-15.17592,-15.58017,-16.69217,-17.76974,-17.97798,-16.93726,-15.02293,-13.19189,-12.41601,-13.07748,-14.71768,-16.31413,-16.91224,-16.21047,-14.72567,-13.44767,-13.2181,-14.24104,-16.02191,-17.73914,-18.76775,-19.00045,-18.77192,-18.48503,-18.23594,-17.71968,-16.48551,-14.3539,-11.69038,-9.328259,-8.165723,-8.67625,-10.61899,-13.10629,-14.97346,-15.24661,-13.49651,-9.972041,-5.531336,-1.439116,0.919295,0.3952082,-3.532116,-10.44608,-18.94645,-26.99848,-32.6288,-34.69278,-33.32464,-29.79668,-25.81826,-22.64543,-20.50791,-18.69497,-16.24855,-12.83106,-9.209492,-7.020031,-7.923187,-12.63757,-20.42797,-29.34929,-37.10029,-41.9971,-43.54187,-42.34473,-39.55355,-36.19905,-32.83445,-29.58459,-26.43371,-23.46703,-20.88657,-18.8478,-17.31466,-16.09561,-15.0415,-14.21795,-13.86505,-14.12662,-14.76074,-15.11418,-14.49462,-12.76654,-10.76801,-10.17195,-12.73271,-19.27117,-28.9884,-39.56778,-48.09161,-52.31246,-51.59281,-47.01614,-40.65755,-34.4743,-29.46284,-25.50011,-21.83434,-17.80732,-13.31592,-8.774512,-4.724301,-1.459882,1.020344,2.734351,3.386919,2.33013,-1.062501,-6.818916,-13.99548,-20.82691,-25.38832,-26.4181,-23.82884,-18.62774,-12.33113,-6.253724,-1.084513,3.077374,6.376253,8.873003,10.48506,11.18573,11.22567,11.12533,11.38369,12.11102,12.89485,13.06279,12.20325,10.57763,9.090955,8.777545,10.11849,12.66236,15.24813,16.72189,16.68247,15.73819,15.07488,15.60597,17.28803,19.09268,19.69141,18.40497,15.76708,13.27966,12.48466,13.94927,16.84677,19.43533,20.13958,18.52944,15.55454,12.87997,11.78223,12.34783,13.51351,13.90467,12.87776,11.02519,9.767603,10.28747,12.52612,14.95395,15.32395,11.97419,4.870222,-4.264356,-12.81124,-18.5782,-20.78391,-20.1637,-18.23296,-16.25541,-14.59317,-12.7891,-10.21506,-6.758401,-3.049195,-0.1000438,1.344513,1.264212,0.3146973,-0.6552538,-1.142107,-1.193101,-1.164648,-1.270175,-1.309381,-0.817185,0.4732155,2.234749,3.58411,3.612786,2.087064,-0.1870277,-1.661824,-0.9019618,2.507832,7.588377,12.40588,15.09581,14.86524,12.36794,9.241766,7.114633,6.707589,7.574032,8.584202,8.786268,8.053224,7.098666,6.885666,7.859643,9.543922,10.7855,10.50032,8.437545,5.465933,3.190259,3.115953,5.851452,10.79638,16.46299,21.21877,24.02554,24.80466,24.30614,23.63019,23.69932,24.93257,27.21158,30.06277,32.90169,35.22198,36.68909,37.16299,36.69444,35.50653,33.95332,32.45223,31.3911,31.04228,31.49938,32.6501,34.18104,35.62483,36.46273,36.28549,34.97283,32.8103,30.45244,28.70832,28.22335,29.21313,31.40145,34.20393,37.04726,39.62533,41.92396,44.01469,45.77503,46.77601,46.46107,44.54201,41.35054,37.87683,35.40374,34.90982,36.58831,39.77454,43.32941,46.23826,48.04931,48.89828,49.15472,48.98418,48.17566,46.36873,43.50478,40.13258,37.28334,35.92557,36.35432,37.94988,39.52137,40.05612,39.36918,38.19577,37.6222,38.23069,39.57484,40.41477,39.62335,37.1521,34.31786,33.05788,34.48682,37.66311,39.47308,35.94914,24.45106,5.505679,-16.82692,-36.44332,-47.86846,-48.73639,-40.76324,-28.71791,-17.98588,-12.05934,-11.2532,-13.18616,-14.5617,-13.12339,-8.699993,-2.910614,2.078577,4.865373,5.411659,4.711315,3.91254,3.560845,3.434731,2.973132,1.884893,0.4569496,-0.645656,-0.8972074,-0.3266968,0.4941173,0.8826798,0.572987,-0.05982983,-0.2591941,0.5400868,2.227109,3.969579,4.663077,3.595299,0.898512,-2.495535,-5.363614,-6.838528,-6.805094,-5.840557,-4.792824,-4.297297,-4.527916,-5.277913,-6.235902,-7.217587,-8.191814,-9.127519,-9.831802,-9.950569,-9.160497,-7.424407,-5.118246,-2.928515,-1.582531,-1.589407,-3.149153,-6.245642,-10.79194,-16.65922,-23.52944,-30.68739,-36.96888,-41.01991,-41.81178,-39.15863,-33.91569,-27.69102,-22.18774,-18.50931,-16.8039,-16.41614,-16.41665,-16.17159,-15.61937,-15.13647,-15.14313,-15.74855,-16.67151,-17.45593,-17.79189,-17.69467,-17.41835,-17.19362,-17.00911,-16.62245,-15.8009,-14.60744,-13.49157,-13.0785,-13.76871,-15.41928,-17.3452,-18.67663,-18.86649,-18.02446,-16.86226,-16.27471,-16.82174,-18.43099,-20.49524,-22.27375,-23.32267,-23.67967,-23.7141,-23.78957,-23.99763,-24.14982,-24.00772,-23.55028,-23.05783,-22.93419,-23.40243,-24.31215,-25.22492,-25.73356,-25.78681,-25.76392,-26.2184,-27.453,-29.23446,-30.87771,-31.68354,-31.44264,-30.651,-30.2516,-31.03847,-33.10516,-35.71935,-37.73565,-38.29643,-37.36712,-35.74393,-34.5176,-34.34854,-35.03629,-35.68837,-35.37436,-33.82719,-31.70082,-30.18787,-30.24257,-31.93195,-34.36891,-36.28964,-36.89549,-36.37452,-35.72784,-35.99001,-37.37383,-38.95789,-39.20176,-37.01897,-32.72781,-28.21379,-26.09656,-28.31607,-34.95092,-43.98254,-52.19272,-56.7076,-56.35033,-52.06635,-46.25455,-41.44022,-39.06226,-38.99637,-39.9615,-40.43494,-39.48888,-37.10896,-33.95451,-30.85205,-28.40752,-26.9233,-26.52672,-27.26358,-28.99031,-31.13657,-32.59496,-31.96902,-28.16978,-21.05651,-11.71298,-2.110893,5.718907,10.57306,12.51598,12.63321,12.26758,12.21916,12.39165,12.06522,10.56775,7.87494,4.739449,2.282912,1.343534,2.021589,3.70976,5.556083,7.01843,8.128036,9.305929,10.90271,12.82362,14.53177,15.43215,15.35396,14.75979,14.49373,15.21332,16.88925,18.73374,19.6425,18.87932,16.55551,13.57339,11.05752,9.644164,9.104361,8.561521,7.169156,4.787751,2.187518,0.5986214,0.8747228,2.815966,5.131495,6.13837,4.817714,1.590841,-1.695766,-2.639857,0.4406419,7.528746,16.78719,25.38549,30.84004,32.15722,30.18906,27.05317,24.96976,25.16207,27.39097,30.31321,32.4038,32.8897,32.17112,31.51773,32.22869,34.73587,38.14983,40.50839,39.61362,34.05939,23.94099,10.91617,-2.399411,-13.41466,-20.46929,-23.28482,-22.81906,-20.67352,-18.38338,-16.92199,-16.58151,-17.17209,-18.326,-19.69648,-20.96734,-21.75781,-21.58817,-20.02018,-16.931,-12.7469,-8.433401,-5.169339,-3.831276,-4.557142,-6.65272,-8.917274,-10.22984,-10.07918,-8.747403,-7.062284,-5.880245,-5.609804,-6.041757,-6.549745,-6.499774,-5.598798,-3.984815,-2.049707,-0.1599579,1.515387,2.966597,4.167296,4.938394,4.995112,4.166994,2.627616,0.932398,-0.2189142,-0.3814089,0.3254213,1.221892,1.426771,0.3790592,-1.78915,-4.263383,-5.953886,-6.066492,-4.511918,-1.926505,0.6845185,2.456454,3.037251,2.647499,1.85507,1.248297,1.20524,1.840963,3.075342,4.705129,6.415237,7.778481,8.342802,7.848555,6.478829,4.942802,4.235394,5.10955,7.531455,10.48394,12.34436,11.73521,8.413933,3.664351,-0.1225874,-0.5458024,3.584158,11.57156,21.11284,29.40005,34.45536,35.96865,35.20085,34.06403,33.96344,35.08776,36.53237,37.10242,36.23404,34.41718,32.86396,32.66837,34.03614,36.11982,37.57782,37.49679,36.05131,34.44461,34.13775,35.85464,39.02579,42.06629,43.34774,42.25001,39.58723,37.07021,36.07882,36.50291,36.44183,33.08326,24.37429,10.56545,-5.299267,-18.35816,-23.97646,-19.86236,-7.172925,9.959004,26.23436,37.41599,41.88792,40.8582,37.26055,34.04908,32.82057,33.40259,34.45416,34.58221,33.25845,31.05374,29.14971,28.52637,29.35214,30.92153,32.11707,32.06553,30.58861,28.2189,25.84111,24.22581,23.73343,24.307,25.66794,27.51881,29.60603,31.63869,33.20028,33.79022,33.03366,30.94386,28.04563,25.23573,23.41693,23.09301,24.15799,25.99904,27.85211,29.19451,29.95154,30.4168,30.96394,31.75516,32.6277,33.21971,33.23033,32.64104,31.75121,31.02354,30.84072,31.32892,32.33175,33.52068,34.54812,35.15009,35.17115,34.54669,33.30937,31.62543,29.82635,28.35974,27.64234,27.86908,28.89227,30.26076,31.41566,31.93676,31.69497,30.83025,29.5969,28.20671,26.79797,25.54465,24.7876,25.02125,26.65915,29.6803,33.40075,36.60803,38.08957,37.32219,34.90675,32.40864,31.57197,33.26445,36.73586,39.67434,39.14235,32.98189,20.98095,5.168253,-10.95157,-23.86151,-31.46612,-33.79504,-32.68212,-30.66872,-29.75318,-30.63255,-32.7408,-34.92932,-36.3047,-36.72847,-36.74437,-37.07672,-38.07504,-39.46751,-40.54446,-40.61762,-39.43723,-37.31264,-34.8925,-32.78214,-31.25294,-30.21945,-29.45511,-28.86939,-28.63043,-29.04526,-30.27972,-32.12028,-33.9613,-35.06034,-34.9296,-33.63831,-31.83584,-30.46538,-30.30674,-31.58951,-33.8771,-36.27894,-37.87556,-38.13227,-37.10164,-35.32916,-33.5355,-32.25929,-31.64045,-31.43691,-31.23329,-30.70451,-29.78687,-28.68144,-27.71768,-27.18034,-27.20256,-27.76548,-28.76618,-30.07499,-31.53099,-32.89318,-33.82228,-33.96467,-33.13306,-31.48868,-29.5854,-28.18576,-27.90492,-28.8588,-30.53935,-32.03384,-32.50613,-31.68002,-30.03397,-28.55624,-28.17885,-29.21126,-31.13464,-32.91735,-33.69539,-33.42137,-33.06179,-34.16796,-38.01366,-44.76831,-53.18919,-61.04508,-66.07223,-66.96751,-63.90775,-58.33922,-52.20243,-47.0344,-43.42065,-41.02601,-39.08041,-36.96111,-34.51898,-32.00979,-29.77237,-27.92993,-26.34241,-24.81454,-23.37045,-22.3567,-22.26255,-23.36358,-25.43931,-27.78003,-29.5124,-30.0575,-29.43718,-28.2313,-27.2157,-26.90624,-27.29359,-27.92398,-28.25738,-28.05822,-27.56361,-27.32702,-27.84571,-29.21788,-31.04753,-32.65349,-33.44943,-33.26299,-32.411,-31.50605,-31.1182,-31.48553,-32.41366,-33.38474,-33.79213,-33.17625,-31.38179,-28.60171,-25.33393,-22.25845,-20.05523,-19.18076,-19.67046,-21.06347,-22.52913,-23.19033,-22.51921,-20.60412,-18.12276,-16.00219,-14.92315,-14.94005,-15.44075,-15.48756,-14.36129,-11.99992,-9.078081,-6.674469,-5.710227,-6.473913,-8.490631,-10.79331,-12.42404,-12.88042,-12.27343,-11.14901,-10.11982,-9.538473,-9.385407,-9.390593,-9.268919,-8.899808,-8.354136,-7.789799,-7.323415,-6.980036,-6.749682,-6.682066,-6.923379,-7.642756,-8.887363,-10.46773,-11.96988,-12.90764,-12.94193,-12.03532,-10.45773,-8.637961,-6.955575,-5.588812,-4.498714,-3.53196,-2.562492,-1.576444,-0.6563348,0.1061475,0.6946612,1.185285,1.687145,2.253144,2.828568,3.280983,3.491639,3.45049,3.286562,3.20556,3.36465,3.754681,4.161105,4.237776,3.667124,2.335732,0.4375207,-1.55397,-3.049742,-3.585889,-3.036727,-1.697753,-0.1815266,0.8417311,0.9446377,0.1310897,-1.197636,-2.497841,-3.426909,-4.067843,-4.870171,-6.293836,-8.334125,-10.21686,-10.50891,-7.678729,-0.8751982,9.477654,21.63024,33.10565,41.7005,46.40246,47.75337,47.4626,47.47382,48.98301,51.93136,55.21379,57.4506,57.85136,56.67511,55.03986,54.23674,54.97845,57.03108,59.42831,61.10076,61.516,60.93763,60.17096,59.98734,60.60226,61.53761,61.93137,61.08326,58.88247,55.85403,52.8196,50.39407,48.63916,47.07231,45.00773,42.01383,38.22421,34.34867,31.41336,30.38264,31.83975,35.81614,41.77,48.67596,55.20078,59.98404,62.00811,60.97196,57.4958,52.99419,49.18084,47.38081,47.97439,50.27938,52.96286,54.77929,55.21918,54.70019,54.18592,54.47881,55.63368,56.87056,57.05031,55.41415,52.10489,48.132,44.78916,42.90377,42.39793,42.45033,42.14103,41.13687,39.9421,39.53204,40.60108,42.9407,45.39682,46.48155,45.28233,42.08715,38.31279,35.75217,35.59774,37.83249,41.35012,44.68507,46.85676,47.78275,48.03479,48.17695,48.21578,47.59957,45.79129,42.9842,40.36376,39.57918,41.62532,45.80482,49.50642,49.11687,41.71688,26.69142,6.359422,-14.78328,-31.86314,-41.5721,-43.30344,-38.99833,-31.92211,-25.11252,-20.30099,-17.72762,-16.71283,-16.46556,-16.59797,-17.12766,-18.13668,-19.44951,-20.60736,-21.13581,-20.86989,-20.05995,-19.16829,-18.51034,-18.01284,-17.27314,-15.87362,-13.71478,-11.11571,-8.613917,-6.619511,-5.197445,-4.145545,-3.307463,-2.862414,-3.327695,-5.220037,-8.583587,-12.73711,-16.47264,-18.64504,-18.80023,-17.43268,-15.67297,-14.58422,-14.51274,-14.92192,-14.82837,-13.55281,-11.27486,-8.995642,-7.904297,-8.559326,-10.44553,-12.24907,-12.71968,-11.5878,-9.924072,-9.655794,-12.48153,-18.81746,-27.42254,-35.9465,-42.09614,-44.74353,-44.3448,-42.46566,-40.75091,-39.97983,-39.76426,-39.01025,-36.78759,-33.02098,-28.57351,-24.7028,-22.2812,-21.29843,-20.95273,-20.24476,-18.65961,-16.49112,-14.61259,-13.87229,-14.52345,-16.06165,-17.55532,-18.22958,-17.91244,-17.05827,-16.36194,-16.24605,-16.58024,-16.817,-16.446,-15.44087,-14.38499,-14.17119,-15.45608,-18.2183,-21.7069,-24.82469,-26.71938,-27.23232,-26.94688,-26.83218,-27.71461,-29.90087,-33.15327,-36.99118,-41.08728,-45.49038,-50.54047,-56.55173,-63.4944,-70.89188,-78.01662,-84.244,-89.34879,-93.53636,-97.16628,-100.3907,-102.8381,-103.6121,-101.58,-95.83067,-86.06551,-72.76468,-57.09892,-40.66719,-25.20344,-12.33818,-3.425118,0.6156675,-0.5260185,-6.390951,-15.70281,-26.52673,-36.65417,-44.12001,-47.67309,-47.03346,-42.84893,-36.39476,-29.14767,-22.38948,-16.94492,-13.08403,-10.57423,-8.844389,-7.229752,-5.252678,-2.857013,-0.4896319,1.057613,1.030724,-0.8287271,-3.993094,-7.238233,-9.145689,-8.81126,-6.385544,-3.100864,-0.6853032,-0.4127667,-2.285797,-4.836969,-5.738221,-2.965429,4.069643,14.04,24.17768,31.50596,34.21776,32.50209,28.40165,24.7898,24.00107,26.7927,32.11189,37.69803,41.1466,40.88645,36.65243,29.35012,20.51731,11.71658,4.127099,-1.590005,-5.236121,-6.966872,-7.202704,-6.548164,-5.669179,-5.124975,-5.217991,-5.953635,-7.147048,-8.614226,-10.31772,-12.35843,-14.81693,-17.55867,-20.16461,-22.06628,-22.82543,-22.38497,-21.12164,-19.65618,-18.53271,-17.96783,-17.82254,-17.79341,-17.67639,-17.51301,-17.5245,-17.89888,-18.60636,-19.38742,-19.92596,-20.06759,-19.90232,-19.64119,-19.37883,-18.96004,-18.09935,-16.71914,-15.25902,-14.66402,-15.92708,-19.36855,-24.08076,-27.95748,-28.44168,-23.69419,-13.59124,0.01915031,14.00156,25.24872,31.96669,34.28411,33.91281,33.11118,33.54708,35.65686,38.75588,41.70592,43.65938,44.43839,44.39948,43.99232,43.37875,42.39058,40.82165,38.79744,36.91518,36.01321,36.69994,38.94732,42.02489,44.831,46.42797,46.46768,45.27571,43.58377,42.10517,41.22113,40.93131,41.03093,41.34259,41.81774,42.45534,43.127,43.48134,43.02827,41.38661,38.54131,34.94912,31.4134,28.78275,27.62676,28.04117,29.65615,31.81577,33.82954,35.18953,35.69329,35.45313,34.81227,34.19915,33.96151,34.23235,34.89003,35.63815,36.17924,36.39577,36.42989,36.60002,37.19459,38.26421,39.55121,40.61372,41.07504,40.83999,40.13461,39.34058,38.7392,38.34395,37.94287,37.31948,36.48512,35.74042,35.49907,35.98422,37.02222,38.09949,38.6763,38.55369,38.02973,37.71372,38.10061,39.19862,40.47865,41.21684,41.00357,40.05431,39.05745,38.61183,38.60091,37.97254,35.15091,28.92629,19.31656,7.854439,-2.940673,-10.66219,-14.10051,-13.71121,-11.23011,-8.691574,-7.43574,-7.650247,-8.6277,-9.471146,-9.740058,-9.635547,-9.679583,-10.19881,-11.02835,-11.65623,-11.67724,-11.18499,-10.77183,-11.09774,-12.32744,-13.85997,-14.59833,-13.63251,-10.90206,-7.380246,-4.618834,-3.900934,-5.521955,-8.645737,-11.8173,-13.80255,-14.22833,-13.64187,-13.0076,-13.00896,-13.63291,-14.2833,-14.29441,-13.44831,-12.11883,-10.95518,-10.35739,-10.14972,-9.707653,-8.457289,-6.381351,-4.142061,-2.693271,-2.629039,-3.725431,-5.033961,-5.519329,-4.85322,-3.830644,-4.085414,-7.21498,-13.80638,-22.94007,-32.47681,-39.97755,-43.75167,-43.48183,-40.15141,-35.41185,-30.80115,-27.23594,-24.94598,-23.72956,-23.2521,-23.17688,-23.12225,-22.61325,-21.19208,-18.70049,-15.55905,-12.80626,-11.78148,-13.56682,-18.47456,-25.86096,-34.36113,-42.39804,-48.67536,-52.42638,-53.38246,-51.60912,-47.40888,-41.36724,-34.43933,-27.88179,-22.92516,-20.28075,-19.76699,-20.33243,-20.5492,-19.34958,-16.59687,-13.1401,-10.30044,-9.083654,-9.592149,-10.9932,-12.06149,-11.95429,-10.73502,-9.321272,-8.894719,-10.14862,-12.83925,-15.91133,-18.10202,-18.6391,-17.61111,-15.80899,-14.18008,-13.26439,-12.96221,-12.74505,-12.12697,-11.05442,-9.954271,-9.421535,-9.77583,-10.79842,-11.83294,-12.18441,-11.55443,-10.22586,-8.880529,-8.167793,-8.302304,-8.946135,-9.442901,-9.250101,-8.294888,-7.031699,-6.168599,-6.23521,-7.255658,-8.72734,-9.918858,-10.31858,-9.976238,-9.549497,-10.02247,-12.23795,-16.47381,-22.26166,-28.5177,-33.91775,-37.34361,-38.22044,-36.63739,-33.2392,-28.96833,-24.77664,-21.40022,-19.25027,-18.40567,-18.67222,-19.66445,-20.89538,-21.8722,-22.2048,-21.71237,-20.49165,-18.89859,-17.4322,-16.5491,-16.49041,-17.20699,-18.42229,-19.79812,-21.0977,-22.24246,-23.22263,-23.92769,-24.03458,-23.07961,-20.72637,-17.099,-12.96512,-9.591908,-8.26757,-9.690007,-13.54587,-18.54797,-22.97687,-25.49428,-25.82034,-24.90521,-24.48258,-26.21639,-30.88942,-38.0582,-46.34692,-54.19704,-60.62429,-65.54176,-69.45635,-72.73532,-74.89983,-74.43471,-69.30355,-57.97525,-40.43787,-18.6344,3.968955,23.54022,37.24669,44.19923,45.56267,43.83361,41.67807,40.90232,41.99939,44.37127,46.97852,48.9947,50.12057,50.47498,50.25076,49.44452,47.86871,45.43119,42.44759,39.71745,38.24348,38.71886,41.09743,44.54301,47.84472,50.09438,51.23624,52.14449,54.14275,58.21614,64.35752,71.44492,77.74508,81.7813,83.08593,82.40908,81.25564,81.01433,82.15504,83.952,84.88799,83.51646,79.32032,73.09529,66.65955,62.02114,60.41614,61.67206,64.17615,65.45978,63.13888,55.83104,43.71414,28.53751,13.0949,0.3423468,-7.545642,-9.867224,-7.583119,-2.917731,1.500701,3.64062,2.804191,-0.2170005,-3.634415,-5.574249,-4.972696,-2.028206,1.985429,5.412665,7.027883,6.539044,4.558989,2.123845,0.08726589,-1.256266,-2.139157,-2.973427,-3.96421,-4.948713,-5.542882,-5.456075,-4.722426,-3.675574,-2.686596,-1.86621,-0.96346,0.4470768,2.602986,5.269485,7.744214,9.176759,9.015114,7.307041,4.669627,1.959313,-0.1411243,-1.365551,-1.819492,-1.733464,-1.235242,-0.3208959,0.9668357,2.327732,3.183551,2.940155,1.404331,-0.9342504,-3.002597,-3.650039,-2.308655,0.5887114,3.722615,5.521282,4.985059,2.237831,-1.519434,-4.629376,-5.824665,-4.82435,-2.365527,0.3018555,2.127735,2.756044,2.543903,2.157582,2.050914,2.172029,2.068,1.283923,-0.2317366,-1.99487,-3.215559,-3.242727,-1.946508,0.1923021,2.329243,3.684256,3.906002,3.185669,2.091186,1.244411,1.023449,1.426363,2.122561,2.632024,2.533357,1.627682,0.01995597,-1.890705,-3.517443,-4.276545,-3.819643,-2.220257,-0.01361986,1.971031,2.940077,2.486398,0.7783816,-1.527559,-3.617927,-4.924638,-5.376475,-5.360282,-5.421699,-5.889877,-6.655158,-7.232709,-7.069521,-5.90742,-3.983625,-1.956206,-0.6071274,-0.4964122,-1.752752,-4.083884,-6.959004,-9.82875,-12.26953,-14.01622,-14.93608,-15.01761,-14.39674,-13.38037,-12.3957,-11.84331,-11.91129,-12.46892,-13.12698,-13.45495,-13.23293,-12.57752,-11.85022,-11.39994,-11.30274,-11.27921,-10.85343,-9.656796,-7.678223,-5.287319,-3.014242,-1.23351,0.0262666,1.011967,1.963871,2.836562,3.250272,2.752407,1.235199,-0.7878867,-2.300918,-2.314425,-0.5343022,2.24136,4.310099,3.824716,-0.2320022,-7.389962,-15.7453,-22.74977,-26.35375,-25.91908,-22.4331,-17.93412,-14.47269,-13.16493,-13.80972,-15.20985,-15.95679,-15.22048,-13.13316,-10.62125,-8.844003,-8.579833,-9.874995,-12.08346,-14.21731,-15.39949,-15.22089,-13.89335,-12.19454,-11.24645,-12.18032,-15.7435,-21.93894,-29.83469,-37.68397,-43.40505,-45.29964,-42.73001,-36.42378,-28.21946,-20.32358,-14.42097,-11.07077,-9.681918,-9.050913,-8.137053,-6.632412,-5.018521,-4.123453,-4.486526,-5.944127,-7.689905,-8.754934,-8.585148,-7.345624,-5.765377,-4.640715,-4.332959,-4.587465,-4.777266,-4.389533,-3.414002,-2.36802,-1.944345,-2.529402,-3.926589,-5.480333,-6.51516,-6.789815,-6.645062,-6.735013,-7.519387,-8.868485,-10.06967,-10.25939,-9.014249,-6.709054,-4.388397,-3.20625,-3.770667,-5.804029,-8.331908,-10.28352,-11.12617,-11.13889,-11.16459,-12.01511,-13.91675,-16.34964,-18.37185,-19.20687,-18.71645,-17.4614,-16.32974,-15.98405,-16.47771,-17.26988,-17.60182,-16.97796,-15.45187,-13.56263,-11.99626,-11.20337,-11.19954,-11.62812,-12.00061,-11.93773,-11.28993,-10.12217,-8.641479,-7.143802,-5.985573,-5.523405,-5.978265,-7.264284,-8.914627,-10.22264,-10.59606,-9.948083,-8.865188,-8.374392,-9.378905,-12.0662,-15.6728,-18.8106,-20.22048,-19.52392,-17.49466,-15.64408,-15.32922,-16.92437,-19.57922,-21.75098,-22.19403,-20.7928,-18.68197,-17.54964,-18.53838,-21.44887,-24.78719,-26.67288,-26.06614,-23.52787,-20.98326,-20.56074,-23.16649,-27.66196,-31.18989,-30.53297,-23.77937,-11.38272,3.96459,18.55846,29.33357,35.07196,36.6099,36.06326,35.60888,36.50954,38.82492,41.79528,44.51856,46.467,47.5976,48.13143,48.26517,48.0564,47.52402,46.80888,46.20166,45.97649,46.15222,46.40119,46.22862,45.34577,43.97601,42.84507,42.79201,44.20716,46.65553,48.95716,49.74312,48.18542,44.4855,39.82251,35.78166,33.58678,33.56341,35.11153,37.1523,38.74479,39.5054,39.61971,39.52065,39.49926,39.5224,39.35085,38.83016,38.10144,37.5602,37.58629,38.23978,39.16133,39.76138,39.58341,38.58829,37.15741,35.80548,34.80222,33.98087,32.88564,31.17759,29.0181,27.13772,26.49388,27.7004,30.58574,34.1879,37.2308,38.81318,38.89026,38.23631,37.8987,38.48238,39.72985,40.68607,40.3646,38.49379,35.84356,33.8704,33.84938,36.01627,39.27144,41.69048,41.60152,38.60393,33.91063,29.75174,28.12367,29.57797,32.74078,34.87371,33.20405,26.3258,14.93984,1.562559,-10.60652,-19.0499,-22.85028,-22.78145,-20.65555,-18.3693,-17.15609,-17.333,-18.50894,-19.9899,-21.11187,-21.39465,-20.58956,-18.75182,-16.36724,-14.41499,-14.19027,-16.82293,-22.65638,-30.82882,-39.3729,-45.90087,-48.59192,-46.99097,-42.1679,-36.14145,-30.87298,-27.38024,-25.45614,-24.09794,-22.34153,-19.95903,-17.59109,-16.25807,-16.58878,-18.28328,-20.16952,-20.83345,-19.4367,-16.22283,-12.40646,-9.516018,-8.585566,-9.65558,-11.83913,-13.86357,-14.7362,-14.15886,-12.50862,-10.48429,-8.691639,-7.421311,-6.693812,-6.455976,-6.730366,-7.599407,-9.058455,-10.88829,-12.68246,-14.04267,-14.81656,-15.20864,-15.67196,-16.64094,-18.27152,-20.35423,-22.44363,-24.10613,-25.11868,-25.49782,-25.36931,-24.80198,-23.74417,-22.1146,-19.9729,-17.63099,-15.59381,-14.34929,-14.12566,-14.77402,-15.84349,-16.80638,-17.29165,-17.20019,-16.6671,-15.93334,-15.2345,-14.76506,-14.69856,-15.18935,-16.30432,-17.91977,-19.67518,-21.06972,-21.68783,-21.43295,-20.60407,-19.73537,-19.27074,-19.27248,-19.36966,-19.00233,-17.82432,-16.00028,-14.1798,-13.13627,-13.28107,-14.36602,-15.58155,-16.00847,-15.14976,-13.20426,-10.91119,-9.066861,-8.037544,-7.587168,-7.130774,-6.227959,-4.962122,-3.924884,-3.796198,-4.802376,-6.439796,-7.697164,-7.672963,-6.202663,-4.065296,-2.588572,-2.853385,-4.983898,-7.986053,-10.28191,-10.653,-9.031904,-6.646876,-5.393724,-6.772487,-10.99951,-16.8107,-22.08391,-24.92986,-24.64302,-21.99082,-18.70829,-16.51467,-16.21664,-17.38391,-18.73037,-18.9317,-17.39215,-14.54119,-11.54176,-9.627311,-9.467576,-10.90324,-13.13723,-15.21582,-16.49107,-16.81908,-16.44086,-15.68822,-14.73233,-13.52882,-11.95621,-10.01237,-7.906114,-5.971337,-4.460061,-3.36677,-2.414725,-1.23274,0.3837309,2.293906,4.040529,5.083591,5.108011,4.222319,2.925024,1.853447,1.455839,1.776773,2.46992,3.021864,3.045063,2.46599,1.511982,0.5281162,-0.241009,-0.7591983,-1.138205,-1.470341,-1.69157,-1.58734,-0.9493962,0.222539,1.62655,2.757992,3.165705,2.714635,1.685844,0.6436282,0.1385963,0.4225352,1.340089,2.452295,3.300168,3.638553,3.501729,3.087162,2.565507,1.965638,1.213854,0.2814983,-0.6956702,-1.442212,-1.72079,-1.541495,-1.235047,-1.301917,-2.10248,-3.580992,-5.219888,-6.287699,-6.254288,-5.127607,-3.499696,-2.262137,-2.153862,-3.405775,-5.680399,-8.318383,-10.71325,-12.57712,-13.954,-15.01754,-15.83839,-16.29915,-16.21474,-15.54741,-14.53093,-13.58859,-13.08811,-13.11463,-13.43721,-13.71315,-13.78868,-13.86678,-14.39161,-15.70059,-17.67696,-19.66961,-20.7849,-20.40326,-18.59734,-16.16285,-14.20475,-13.51136,-14.10022,-15.22429,-15.8454,-15.27968,-13.61151,-11.61964,-10.27326,-10.12972,-11.0227,-12.23072,-12.99404,-13.02828,-12.68969,-12.69499,-13.59615,-15.37335,-17.41989,-18.92559,-19.39307,-18.9368,-18.17054,-17.76486,-17.98074,-18.48889,-18.59312,-17.69962,-15.72252,-13.1724,-10.89138,-9.625259,-9.703048,-10.98205,-13.01363,-15.23956,-17.05026,-17.70261,-16.26029,-11.75497,-3.613994,7.835042,21.12167,33.91253,43.80182,49.27008,50.32286,48.43937,45.83321,44.3968,44.88311,46.73684,48.61802,49.28309,48.31451,46.31809,44.53638,44.1522,45.69371,48.83936,52.65987,56.09099,58.35696,59.15493,58.59557,57.03219,54.92135,52.76111,51.06383,50.27557,50.62636,51.98312,53.82832,55.42601,56.12614,55.65648,54.23214,52.42792,50.87428,49.95845,49.68211,49.73741,49.72537,49.37532,48.65213,47.71617,46.80751,46.13552,45.83141,45.94562,46.44415,47.17733,47.84859,48.04836,47.38935,45.7116,43.2501,40.63322,38.67292,38.00642,38.76723,40.46838,42.18076,42.95179,42.26212,40.2975,37.89201,36.15387,35.9467,37.46307,40.09833,42.69321,44.04647,43.47635,41.16267,38.09971,35.65765,34.93634,36.22133,38.82253,41.41411,42.72615,42.24395,40.52919,38.94663,38.90644,41.02106,44.66489,48.23087,49.99419,49.11224,46.16943,42.89617,41.1582,41.76293,43.78648,44.86604,42.37162,34.84449,22.90651,9.112877,-3.195433,-11.42833,-14.85052,-14.69199,-13.27738,-12.72228,-13.94327,-16.47529,-19.08175,-20.68206,-21.00052,-20.58831,-20.31075,-20.71801,-21.73599,-22.84009,-23.51715,-23.63668,-23.46172,-23.32247,-23.25062,-22.89705,-21.83019,-19.99731,-17.96773,-16.7019,-16.93763,-18.59608,-20.66151,-21.70743,-20.79201,-18.15149,-15.18442,-13.65383,-14.56012,-17.40603,-20.38433,-21.45517,-19.69453,-16.06373,-13.05616,-13.35104,-18.22755,-26.68311,-35.8103,-42.24393,-43.86251,-40.77285,-35.05235,-29.46342,-25.93946,-24.73312,-24.65303,-24.12572,-22.33443,-19.70368,-17.47292,-16.71945,-17.53615,-18.92925,-19.49647,-18.40815,-16.01627,-13.66778,-12.83493,-14.13255,-16.87177,-19.45548,-20.37539,-19.18942,-16.87254,-15.32439,-16.3393,-20.6473,-27.56103,-35.37297,-42.20452,-46.78974,-48.78995,-48.58406,-46.79153,-43.89824,-40.19429,-35.96326,-31.67745,-27.97899,-25.42416,-24.17668,-23.893,-23.91337,-23.64666,-22.89579,-21.90922,-21.13684,-20.88079,-21.09197,-21.44811,-21.62902,-21.55996,-21.42591,-21.44982,-21.63322,-21.71037,-21.4129,-20.88067,-20.88624,-22.60252,-26.93657,-33.7881,-41.72814,-48.41577,-51.64218,-50.4767,-45.86114,-40.26349,-36.52567,-36.51342,-40.3023,-46.33595,-52.41912,-56.94374,-59.62159,-61.33251,-63.24677,-65.81203,-68.27079,-69.00396,-66.49161,-60.28468,-51.39011,-41.8333,-33.66656,-28.01287,-24.67739,-22.51498,-20.2729,-17.37626,-14.20075,-11.71935,-10.79643,-11.59521,-13.45732,-15.29827,-16.24582,-16.11423,-15.44224,-15.09709,-15.71571,-17.32404,-19.34736,-20.97129,-21.61254,-21.21199,-20.19789,-19.17657,-18.56041,-18.36399,-18.27016,-17.89603,-17.07345,-15.96468,-14.95475,-14.40271,-14.42187,-14.82966,-15.29084,-15.55314,-15.61011,-15.68029,-16.0115,-16.64205,-17.29247,-17.48569,-16.84988,-15.42586,-13.77122,-12.75646,-13.12623,-15.05797,-17.97752,-20.76676,-22.28261,-21.91883,-19.90727,-17.18682,-14.91745,-13.90886,-14.28024,-15.52013,-16.87447,-17.79845,-18.19259,-18.30086,-18.38041,-18.40425,-18.02619,-16.84276,-14.77028,-12.2524,-10.12148,-9.163074,-9.652547,-11.1707,-12.83801,-13.83686,-13.89471,-13.41612,-13.17758,-13.78079,-15.22781,-16.89751,-17.94082,-17.82969,-16.69452,-15.22416,-14.20468,-14.01148,-14.40369,-14.75274,-14.5322,-13.71004,-12.75318,-12.23183,-12.31297,-12.53345,-12.06536,-10.33651,-7.586749,-4.934131,-3.819112,-5.118314,-8.477122,-12.3333,-14.69836,-14.28006,-11.28228,-7.364043,-4.727091,-4.82124,-7.407315,-10.52789,-11.425,-7.909359,0.557611,12.62584,25.73456,37.28954,45.69313,50.74532,53.31842,54.61908,55.50388,56.20104,56.4855,56.08887,55.03831,53.7286,52.73104,52.50381,53.18368,54.54758,56.12017,57.34007,57.71886,56.96652,55.09536,52.47276,49.77367,47.78899,47.11938,47.8837,49.61248,51.43089,52.47786,52.34638,51.29473,50.08429,49.5227,49.97139,51.12105,52.17473,52.33879,51.32544,49.55475,47.92979,47.32213,48.07653,49.83894,51.79801,53.18705,53.72554,53.74284,53.91326,54.79681,56.47458,58.51088,60.253,61.26521,61.6119,61.80714,62.45032,63.78564,65.46362,66.67278,66.59574,64.92154,62.12591,59.32429,57.74896,58.11547,60.21682,62.98587,65.01313,65.27419,63.67636,61.13177,59.07921,58.70065,60.24184,62.82803,64.91335,65.14976,63.20474,60.04654,57.46484,57.03038,59.03277,62.01316,63.23513,59.9426,50.80447,36.78528,20.94149,7.180599,-1.427333,-3.949713,-1.855999,1.861299,4.226192,3.673746,0.6048499,-3.112719,-5.347865,-4.917455,-2.164602,1.339003,3.718159,3.782106,1.537969,-1.982704,-5.398959,-7.714843,-8.704699,-8.795674,-8.609144,-8.497568,-8.365863,-7.847051,-6.670593,-4.950105,-3.195704,-2.048099,-1.91238,-2.727887,-4.013741,-5.152966,-5.733814,-5.740374,-5.488875,-5.368446,-5.562677,-5.933884,-6.138698,-5.896132,-5.226314,-4.494998,-4.222616,-4.765385,-6.067566,-7.651121,-8.867225,-9.268376,-8.873141,-8.147323,-7.690941,-7.815065,-8.278934,-8.386024,-7.431521,-5.263215,-2.618118,-0.9856217,-2.002898,-6.658807,-14.71622,-24.66842,-34.27393,-41.4109,-44.83839,-44.51976,-41.41388,-36.92075,-32.3047,-28.36282,-25.40421,-23.41632,-22.22283,-21.52901,-20.90146,-19.81472,-17.84821,-14.96208,-11.65795,-8.845011,-7.410962,-7.713199,-9.315491,-11.18277,-12.26563,-12.13459,-11.25365,-10.68198,-11.35921,-13.41859,-15.9916,-17.66799,-17.35696,-15.00545,-11.70047,-9.053927,-8.241292,-9.299464,-11.14188,-12.2886,-11.84422,-10.08027,-8.237363,-7.671542,-8.916615,-11.30409,-13.42473,-14.15043,-13.54683,-13.04287,-14.68632,-19.90899,-28.55681,-38.80166,-48.01343,-54.07362,-56.36234,-55.84174,-54.25645,-52.98711,-52.28854,-51.35249,-49.07348,-44.9707,-39.63282,-34.41551,-30.62662,-28.75684,-28.27043,-28.05968,-27.22684,-25.65413,-23.98802,-23.08132,-23.3119,-24.25814,-24.96143,-24.58212,-22.98831,-20.86611,-19.27101,-18.92892,-19.76476,-20.97872,-21.61529,-21.22736,-20.18133,-19.38951,-19.65297,-21.06679,-22.90793,-24.09769,-23.94477,-22.67137,-21.35365,-21.28079,-23.11956,-26.4117,-29.73312,-31.44553,-30.6044,-27.49294,-23.47741,-20.27938,-19.09423,-20.04824,-22.26497,-24.44408,-25.57617,-25.38124,-24.26652,-22.90604,-21.75505,-20.81367,-19.75485,-18.28138,-16.43847,-14.65073,-13.45723,-13.1271,-13.43043,-13.7447,-13.45948,-12.44243,-11.26365,-11.0004,-12.69056,-16.71449,-22.45576,-28.45251,-32.99093,-34.84647,-33.7937,-30.62307,-26.67196,-23.14025,-20.56442,-18.7239,-16.99505,-14.90893,-12.55674,-10.59155,-9.824123,-10.66543,-12.76859,-15.1028,-16.44218,-15.9946,-13.81252,-10.7534,-8.016585,-6.524276,-6.491668,-7.403487,-8.371548,-8.632393,-7.892923,-6.355802,-4.470543,-2.61362,-0.9217986,0.6381736,2.051223,3.081765,3.302233,2.327372,0.1068496,-2.927354,-5.976795,-8.210329,-9.135741,-8.798413,-7.705175,-6.530119,-5.77738,-5.588342,-5.774869,-6.026152,-6.13996,-6.139127,-6.217816,-6.573564,-7.245545,-8.062159,-8.733698,-9.027969,-8.93057,-8.690414,-8.716565,-9.367881,-10.73469,-12.5286,-14.15802,-14.98363,-14.65927,-13.38832,-11.94041,-11.35514,-12.41903,-15.14318,-18.51671,-20.72337,-19.79527,-14.44404,-4.691195,8.020624,21.31458,32.75057,40.67979,44.70053,45.55126,44.56642,43.02072,41.6916,40.79592,40.2162,39.79219,39.46749,39.23977,39.01962,38.57588,37.65143,36.18431,34.46212,33.05641,32.5342,33.11,34.46534,35.87993,36.61478,36.33349,35.29679,34.20881,33.80318,34.41486,35.79122,37.24044,38.02335,37.74477,36.53107,34.9247,33.58236,32.9736,33.223,34.13609,35.33115,36.3743,36.85992,36.45917,34.98899,32.5158,29.43711,26.44372,24.3111,23.57756,24.26859,25.83764,27.40034,28.16608,27.84556,26.80853,25.88809,25.92859,27.31894,29.76622,32.43397,34.36966,34.98627,34.33845,33.04636,31.91492,31.45739,31.58944,31.66745,30.86452,28.69929,25.43223,22.09902,20.12157,20.65613,23.99167,29.31711,35.01142,39.34483,41.25491,40.80178,39.05097,37.44651,37.01624,37.85824,39.20146,39.99181,39.63079,