Bandpass,0,0.49933,222.35648,-1922.4307,-2829.4236,-2341.0693,-949.80969,405.40018,925.72736,461.22995,-441.58426,-980.60773,-693.74811,225.5665,1106.7588,1320.175,740.901,-177.86995,-757.9826,-599.12891,142.474,893.21185,1099.219,629.5686,-147.04541,-653.56708,-534.966,92.409683,746.4201,946.92493,565.87244,-94.89093,-542.75452,-461.90424,64.497681,633.07416,829.01965,529.32935,-20.561665,-402.57852,-339.22577,109.62563,604.91718,787.87524,542.56079,69.765701,-273.36594,-240.66617,128.50833,550.71954,716.0719,515.45001,111.19048,-193.38536,-181.42528,123.28711,484.66623,636.32739,477.55206,139.51743,-120.83708,-114.207,145.48712,459.82391,598.54626,468.91037,177.40259,-56.519981,-65.281303,147.04158,415.37924,541.22278,438.87531,192.91917,-11.067296,-26.379963,149.50661,379.47116,492.92737,411.69183,202.86444,23.411745,1.7097443,145.26431,340.74612,442.17517,378.96365,204.08487,49.88554,27.906166,148.32047,316.92596,408.44284,359.23795,210.93759,75.281128,49.375072,145.42653,285.62943,363.06665,321.24103,193.31435,74.127388,48.331158,128.99825,251.08469,322.16537,290.97098,182.97766,78.527267,51.922749,117.58024,222.15602,286.35663,263.78806,173.24609,82.1418,55.335087,108.18107,197.74875,256.81854,243.90482,172.12634,96.896057,73.352898,116.01191,189.97946,238.68594,226.20691,162.6042,94.567467,69.783684,102.2541,163.82365,206.86642,200.06993,150.51913,96.546158,77.940002,106.41904,158.07033,192.39711,182.87546,136.08441,85.783043,67.22818,91.305054,137.41643,169.61345,163.29518,122.60011,76.211983,55.537678,71.879929,109.23708,137.2541,133.97676,101.38982,62.75465,44.538097,56.849915,86.770638,108.88585,104.55741,75.422096,41.44178,25.54431,36.6367,63.501343,83.638031,80.036186,53.347492,20.775101,3.0126901,9.2015934,30.897106,49.023762,48.197754,27.696968,1.2745317,-13.533136,-8.3513966,10.346125,26.609303,27.026699,10.341294,-12.21525,-25.683462,-22.438564,-7.4013786,6.1187449,6.48453,-7.9037695,-27.94433,-40.983875,-40.193695,-29.222948,-18.953997,-19.10397,-31.063944,-47.180065,-56.740738,-54.012676,-42.359032,-31.574053,-30.630262,-41.281273,-57.113235,-68.488625,-69.543777,-62.101578,-53.848114,-52.408195,-59.838615,-71.512161,-79.957008,-80.570839,-74.917076,-69.298325,-69.880615,-78.116493,-89.825333,-98.451988,-99.933815,-95.537369,-90.67524,-90.749969,-97.207779,-106.69074,-113.77269,-115.10505,-111.84839,-108.6526,-110.06085,-117.08289,-126.46683,-133.13176,-133.89114,-129.71323,-124.92377,-124.03313,-128.56358,-136.15619,-142.49165,-144.50496,-142.51123,-139.7637,-139.89696,-144.22115,-150.84601,-156.18814,-157.6544,-155.49397,-152.50862,-151.92842,-155.0784,-160.53729,-165.32504,-167.15823,-166.08546,-164.34903,-164.66374,-168.24121,-174.00203,-179.47827,-182.65421,-183.35358,-183.19055,-184.20563,-187.26324,-191.40421,-194.58296,-195.18219,-193.16087,-190.02356,-187.70602,-187.25801,-188.29222,-189.53363,-189.95755,-189.59183,-189.37282,-190.21596,-192.08841,-193.87292,-194.19649,-192.63641,-190.38815,-189.83252,-193.21761,-201.30595,-212.87408,-225.37524,-236.30392,-244.37784,-249.84808,-253.8856,-257.59735,-261.38184,-264.98038,-268.02133,-270.52087,-272.91803,-275.65515,-278.7052,-281.48581,-283.27142,-283.79065,-283.51978,-283.40115,-284.15976,-285.72131,-287.18738,-287.4256,-285.87531,-282.99484,-280.01904,-278.18112,-277.93283,-278.69421,-279.29031,-278.75296,-276.93091,-274.51242,-272.49356,-271.50623,-271.48044,-271.83395,-271.98062,-271.73096,-271.27756,-270.8089,-270.10587,-268.50031,-265.29782,-260.39099,-254.60275,-249.44881,-246.39839,-246.06818,-247.85469,-250.24133,-251.59122,-250.94437,-248.36465,-244.6954,-240.95638,-237.79924,-235.33173,-233.32594,-231.56708,-230.05167,-228.9147,-228.20288,-227.7285,-227.15334,-226.2435,-225.07718,-224.00775,-223.37253,-223.1505,-222.84048,-221.69434,-219.18697,-215.41824,-211.16125,-207.49371,-205.22636,-204.48444,-204.70395,-205.03656,-204.89142,-204.25883,-203.61238,-203.46925,-203.91624,-204.43036,-204.12683,-202.28526,-198.8183,-194.37766,-190.01646,-186.60326,-184.33778,-182.65956,-180.60486,-177.40143,-172.95209,-167.92569,-163.40529,-160.29808,-158.84435,-158.49876,-158.23907,-157.11407,-154.71463,-151.31055,-147.60173,-144.26054,-141.5556,-139.27998,-137.00311,-134.45485,-131.76755,-129.40135,-127.79665,-126.99078,-126.47453,-125.41289,-123.11001,-119.4236,-114.85062,-110.21452,-106.1496,-102.72169,-99.442535,-95.673843,-91.148872,-86.249298,-81.8312,-78.698021,-77.064468,-76.372887,-75.59359,-73.816536,-70.745972,-66.778305,-62.632736,-58.811993,-55.282341,-51.596405,-47.356071,-42.658253,-38.16943,-34.739346,-32.805935,-32.01606,-31.358643,-29.757778,-26.744427,-22.750797,-18.81344,-15.869239,-14.110765,-12.835465,-10.895154,-7.4494467,-2.5245342,2.9874604,7.8767047,11.340283,13.410886,14.835299,16.525116,18.97592,22.040342,25.168875,27.901716,30.239395,32.636177,35.6502,39.528767,44.033897,48.613552,52.759106,56.259731,59.165154,61.516319,63.106117,63.527248,62.547073,60.574516,58.858799,59.18808,63.166176,71.433083,83.266068,96.800285,109.7645,120.35255,127.8047,132.46503,135.37585,137.68642,140.18341,143.11584,146.29907,149.3609,151.9803,154.03229,155.62175,157.02396,158.55742,160.42757,162.60594,164.82318,166.71567,168.07378,169.04672,170.14409,171.97606,174.84863,178.46388,181.96111,184.35551,185.18271,184.99751,185.41739,188.63258,196.59018,210.23003,229.10806,251.5298,275.07016,297.2226,315.94589,330.00397,339.10709,343.89316,345.74924,346.45071,347.64865,350.34842,354.60251,359.59399,364.10712,367.16415,368.50043,368.63486,368.52963,369.06812,370.6629,373.18552,376.18198,379.1665,381.78897,383.82376,385.09949,385.52591,385.25061,384.79364,384.93927,386.30347,388.77014,391.1933,391.70541,388.62979,381.56018,371.94135,362.66318,356.71664,355.55008,358.03516,360.69763,359.19849,350.34827,333.61478,311.34775,287.64294,266.49631,250.2383,239.00661,231.37834,225.63229,220.82684,217.09778,215.13043,215.28233,217.01019,219.00188,219.91736,219.22603,217.5551,216.27396,216.53314,218.34612,220.31516,220.24347,216.35005,208.42047,198.21477,188.83418,183.31619,183.16634,187.59718,193.88429,198.66176,199.48543,195.86467,189.27037,182.18948,176.79773,173.9803,173.17473,173.00731,172.25206,170.51442,168.28244,166.41837,165.50029,165.4623,165.72375,165.64153,164.91444,163.64774,162.07208,160.18643,157.65092,154.05406,149.36952,144.23645,139.78963,137.07661,136.41199,137.10243,137.75937,137.03621,134.34381,130.10672,125.42006,121.34993,118.33099,116.01953,113.63793,110.52978,106.54612,102.05146,97.626572,93.736771,90.597916,88.263145,86.756721,86.063751,85.95858,85.865219,84.994308,82.813797,79.607445,76.696175,76.021645,79.184288,86.439545,96.285324,105.98711,112.83183,115.42888,114.30782,111.46513,109.1443,108.59094,109.5134,110.51186,110.1251,107.78372,104.07385,100.20681,97.116119,94.816132,92.435379,88.859795,83.521652,76.809875,69.867996,63.962254,59.853676,57.543812,56.465828,55.895309,55.265285,54.221088,52.494503,49.812122,45.981762,41.099159,35.665455,30.439816,26.054222,22.628613,19.669363,16.360056,12.078519,6.8005805,1.1144885,-4.1665015,-8.5281353,-12.05829,-15.332009,-18.977518,-23.241467,-27.85783,-32.294964,-36.180496,-39.585045,-42.963093,-46.809166,-51.293633,-56.146126,-60.860603,-65.056541,-68.724571,-72.186119,-75.819199,-79.773933,-83.893326,-87.88205,-91.569679,-95.049332,-98.585487,-102.38003,-106.40234,-110.43137,-114.27197,-117.94855,-121.68466,-125.65466,-129.70435,-133.30353,-135.84088,-137.0984,-137.55962,-138.27293,-140.28912,-144.0162,-148.93987,-153.94032,-158.02611,-160.991,-163.51823,-166.6208,-170.7769,-175.36441,-178.82845,-179.53105,-176.75943,-171.23817,-164.80415,-159.44824,-156.33424,-155.39381,-155.68376,-156.17546,-156.39149,-156.481,-156.78641,-157.34447,-157.78914,-157.76273,-157.47891,-157.88654,-160.14027,-164.62909,-170.24568,-174.54373,-174.88997,-170.01512,-160.9929,-150.93517,-143.46248,-140.80766,-142.69553,-146.69589,-149.8304,-150.41589,-148.9736,-147.63693,-148.46567,-151.78833,-155.67926,-156.9455,-153.02519,-143.61484,-131.01527,-118.99207,-110.85601,-107.90888,-109.11301,-112.04939,-114.45686,-115.37543,-115.27891,-115.29082,-116.14801,-117.65087,-118.91692,-119.16047,-118.37249,-117.3894,-117.30858,-118.68449,-121.09109,-123.36893,-124.38988,-123.81063,-122.29561,-121.05997,-121.05349,-122.35587,-124.21291,-125.70486,-126.59589,-127.76036,-130.828,-137.18483,-146.90456,-158.28836,-168.3856,-174.3226,-174.79129,-170.9147,-165.99278,-164.18747,-168.74112,-180.55901,-197.81183,-216.72107,-233.13243,-244.1315,-248.97821,-249.00308,-246.62715,-244.07303,-242.43053,-241.49184,-240.32547,-238.16249,-235.03543,-231.80484,-229.60323,-229.08517,-229.97919,-231.23199,-231.65179,-230.63557,-228.51401,-226.29561,-224.98288,-224.90953,-225.53116,-225.80031,-224.87086,-222.66264,-219.9175,-217.72339,-216.83896,-217.27353,-218.38583,-219.39427,-219.90425,-220.05917,-220.21118,-220.37976,-219.94807,-217.89529,-213.47314,-206.87912,-199.42221,-192.98149,-189.03192,-187.83188,-188.30054,-188.68553,-187.61041,-184.83949,-181.28232,-178.26184,-176.55539,-175.85712,-175.01282,-172.84732,-169.00435,-164.22189,-159.86308,-157.03654,-155.91309,-155.69333,-155.21684,-153.75826,-151.44218,-149.0024,-147.09659,-145.71671,-144.16605,-141.65504,-138.09462,-134.48227,-132.52393,-133.65483,-138.06018,-144.34354,-150.10553,-153.12381,-152.44501,-148.75676,-143.8587,-139.59785,-136.92445,-135.59183,-134.58156,-132.88896,-130.13637,-126.67039,-123.18051,-120.17832,-117.70975,-115.4509,-113.04743,-110.4091,-107.75046,-105.38894,-103.49281,-101.98382,-100.65049,-99.351158,-98.12149,-97.095291,-96.313759,-95.599106,-94.619812,-93.116257,-91.115021,-88.953522,-87.073433,-85.718742,-84.753426,-83.731842,-82.171448,-79.831894,-76.808624,-73.397102,-69.860329,-66.296638,-62.706562,-59.174755,-55.96841,-53.409618,-51.575748,-50.066677,-48.090324,-44.916882,-40.461361,-35.586227,-31.819904,-30.531368,-31.976789,-34.788624,-36.284756,-33.530727,-24.654524,-9.7539577,9.0529404,28.435101,45.092922,56.85894,63.228592,65.231918,64.857574,64.351952,65.633865,69.908707,77.466316,87.650146,99.032516,109.82494,118.45485,124.10857,126.98998,128.14651,128.93326,130.38893,132.84737,135.96387,139.08647,141.70915,143.72935,145.3959,147.05223,148.9034,150.98509,153.3365,156.21167,160.1254,165.64583,173.02998,181.92314,191.32355,199.86865,206.32085,210.02856,211.15895,210.61543,209.69264,209.61601,211.13902,214.33449,218.64304,223.15092,226.98003,229.61821,231.03529,231.53256,231.42732,230.78757,229.41902,227.14456,224.19247,221.37457,219.8138,220.25919,222.34679,224.30446,223.42316,217.19344,204.5773,186.73135,166.74382,148.47035,135.04561,127.80926,126.12393,128.04927,131.39368,134.55402,136.80066,138.06808,138.58218,138.63757,138.59392,138.91878,140.06665,142.17271,144.78372,146.91939,147.56306,146.34424,143.95836,141.96867,142.01924,144.90672,150.10135,156.04886,161.07782,164.32686,166.08839,167.36517,168.98384,170.91896,172.32576,172.2619,170.56288,168.19582,166.76785,167.47157,170.18488,173.38704,175.02538,173.81644,170.14038,165.91623,163.48967,164.19824,167.48872,171.11586,172.28824,169.07637,161.29741,150.46439,138.95749,128.96721,121.76331,117.52808,115.62587,115.01325,114.58427,113.44359,111.19836,108.26704,106.02313,106.52667,111.77016,122.69774,138.51053,156.71915,174.02509,187.62219,196.23323,200.33615,201.51668,201.40041,200.83089,199.73891,197.65649,194.41003,190.46111,186.67479,183.73933,181.71243,180.05159,178.10117,175.65131,173.1261,171.24112,170.38321,170.19415,169.70776,167.98497,164.8093,160.93044,157.64336,155.95839,155.92056,156.55345,156.48308,154.83174,151.78377,148.44806,146.11836,145.43532,146.00558,146.70906,146.45474,144.85727,142.3882,139.93867,138.13525,136.90028,135.54974,133.33089,130.00017,126.03369,122.33825,119.68279,118.24886,117.58867,116.97838,115.884,114.20985,112.19002,110.05991,107.79809,105.15257,101.92704,98.287819,94.824219,92.273819,91.076973,91.062805,91.490929,91.433548,90.254387,87.883614,84.738945,81.387894,78.210281,75.289742,72.571587,70.116577,68.21212,67.220673,67.260246,67.9618,68.518669,68.049095,66.069786,62.783997,58.992027,55.66785,53.455124,52.38092,51.939705,51.463608,50.525467,49.122913,47.554729,46.107285,44.783371,43.260078,41.097828,38.054489,34.294815,30.358339,26.902039,24.366409,22.748873,21.59758,20.216583,17.973328,14.567973,10.159734,5.3143644,0.80215079,-2.6803782,-4.7705941,-5.5871558,-5.6975446,-5.898941,-6.8884096,-8.966135,-11.922408,-15.181616,-18.141758,-20.52879,-22.558838,-24.798683,-27.789312,-31.647205,-35.886265,-39.584297,-41.817081,-42.122322,-40.734676,-38.466656,-36.314976,-35.022472,-34.831684,-35.533501,-36.732567,-38.13723,-39.698303,-41.543175,-43.789013,-46.382332,-49.071926,-51.521595,-53.483837,-54.936531,-56.126991,-57.522823,-59.694717,-63.148979,-68.122894,-74.386131,-81.145554,-87.173035,-91.208778,-92.53891,-91.486633,-89.513,-88.767563,-91.214401,-97.727783,-107.62618,-118.91731,-129.15262,-136.45386,-140.18634,-140.9709,-140.11765,-138.87984,-137.97206,-137.56058,-137.59068,-138.11041,-139.31596,-141.31616,-143.87244,-146.4082,-148.36072,-149.63521,-150.77213,-152.59859,-155.52089,-158.95036,-161.36377,-161.11925,-157.60143,-151.93282,-146.64342,-144.2993,-145.79903,-149.38231,-151.09192,-146.61591,-133.58789,-113.07021,-89.337524,-68.014046,-53.545139,-47.352299,-47.607723,-50.628719,-52.995754,-53.169548,-51.784538,-50.645172,-51.208504,-53.552353,-56.41544,-58.160023,-57.933323,-56.23737,-54.561268,-54.362686,-56.091854,-58.887794,-61.11874,-61.403572,-59.48122,-56.433525,-54.188637,-54.645512,-58.914082,-67.005852,-77.989983,-90.385574,-102.53568,-112.86729,-120.11491,-123.61573,-123.64474,-121.58051,-119.65398,-120.21784,-124.78889,-133.34343,-144.29633,-155.25156,-164.16582,-170.29768,-174.41438,-178.15326,-182.9344,-189.07964,-195.64975,-201.05702,-204.03473,-204.35046,-202.84877,-200.85756,-199.39038,-198.66777,-198.22517,-197.46123,-196.19835,-194.85744,-194.15242,-194.55878,-195.95718,-197.70514,-199.06641,-199.672,-199.68083,-199.54782,-199.60684,-199.80756,-199.81232,-199.36362,-198.60373,-198.04706,-198.17032,-198.90143,-199.41537,-198.46724,-195.1198,-189.41435,-182.52089,-176.21422,-171.96196,-170.17642,-170.09114,-170.32545,-169.76193,-168.17429,-166.22871,-164.90738,-164.77818,-165.60939,-166.56505,-166.80951,-166.08211,-164.84863,-163.94838,-164.00336,-165.00015,-166.3094,-167.09407,-166.8044,-165.43463,-163.41669,-161.28745,-159.39459,-157.82646,-156.54599,-155.55045,-154.8876,-154.51538,-154.15616,-153.32712,-151.59222,-148.8867,-145.67142,-142.76741,-140.94066,-140.4904,-141.10101,-142.03825,-142.5376,-142.12006,-140.65826,-138.22734,-134.93816,-130.93323,-126.54328,-122.41299,-119.37947,-118.0732,-118.47353,-119.77189,-120.74235,-120.46559,-118.94819,-117.17147,-116.44849,-117.45382,-119.57876,-121.1161,-120.25122,-116.26587,-110.14759,-104.12395,-100.32558,-99.383026,-99.866119,-98.982925,-94.167366,-84.608788,-71.794014,-58.739998,-48.402157,-42.229855,-39.70158,-39.01532,-38.378937,-37.016239,-35.272861,-33.862865,-32.887184,-31.383965,-27.771311,-20.902714,-11.015524,0.09637405,9.855608,16.182367,18.524954,18.043955,16.876732,16.949356,19.029696,22.5154,25.982149,28.086813,28.277119,26.951654,25.08152,23.606136,22.984016,23.114698,23.589487,24.047422,24.401661,24.832441,25.606825,26.87504,28.570129,30.442806,32.175236,33.493004,34.233433,34.384792,34.130245,33.896912,34.353931,36.283527,40.300888,46.507568,54.25861,62.226299,68.820007,72.821465,73.934807,72.944687,71.358086,70.689209,71.765793,74.439957,77.855072,81.081505,83.7043,85.983444,88.500473,91.564407,94.826942,97.417992,98.539108,98.104073,96.946732,96.396858,97.471291,100.22382,103.71607,106.65055,108.23639,108.68024,108.95415,110.01448,112.05377,114.35102,115.84236,115.98322,115.23315,114.76373,115.58499,117.75807,120.3326,122.1064,122.64569,122.74374,123.87702,126.99492,131.56554,135.70609,137.44806,136.26866,133.67433,132.19954,133.34985,135.94258,136.23401,130.08783,115.95544,96.664589,78.599152,68.510475,69.841743,80.900131,96.080315,109.33494,117.57994,121.7966,125.24216,130.25809,136.16718,139.90477,138.90367,133.90147,129.20938,129.80855,137.18767,147.19914,152.18831,146.70601,133.20059,123.36316,133.0985,173.1828,240.9341,318.35651,378.82071,399.32202,371.79999,307.22385,230.12769,166.6669,132.79842,128.7934,142.32607,157.4026,163.42273,159.33168,151.3853,147.05899,149.56712,156.35704,161.86447,161.98029,156.90158,150.58586,147.58923,149.79611,155.35019,160.31487,161.62335,159.11664,155.32835,153.40047,154.80156,158.49547,162.00677,163.41499,162.72137,161.62788,162.02184,164.40329,167.45647,169.04028,167.79933,164.17345,160.08809,157.61176,157.60194,159.30264,161.09265,161.72575,161.09453,159.98909,159.13918,158.3806,156.66226,152.92061,147.13954,140.73169,135.86386,134.13849,135.54341,138.42027,140.49416,140.26875,137.8511,134.68788,132.45767,131.92374,132.52443,132.91631,132.00949,129.72946,126.99284,124.98149,124.29043,124.5704,124.88391,124.46389,123.29592,122.11212,121.83481,122.89817,124.93067,126.98932,128.13663,127.93923,126.57493,124.55071,122.30481,119.99809,117.60081,115.13037,112.79595,110.91946,109.71508,109.1346,108.92007,108.81171,108.7109,108.63052,108.45867,107.75714,105.83453,102.13823,96.734894,90.515945,84.901367,81.149773,79.682053,79.862679,80.406273,80.165474,78.794121,76.857224,75.332489,74.860764,75.268974,75.691399,75.192833,73.445709,70.977646,68.810051,67.73613,67.740921,67.970291,67.280655,65.006081,61.433651,57.674137,55.013767,54.163517,54.871826,56.116959,56.725235,56.014488,54.084961,51.631454,49.451115,47.977379,47.106106,46.365322,45.26989,43.623051,41.601162,39.611622,38.039513,37.03339,36.431026,35.844425,34.8568,33.248947,31.159252,29.087004,27.685875,27.378407,27.935888,28.250431,26.502769,20.769501,9.8740673,-5.9033337,-24.648529,-43.34354,-58.930351,-69.441307,-74.665901,-76.042107,-75.850594,-76.137047,-77.900337,-80.905624,-84.124039,-86.474075,-87.424377,-87.159866,-86.305855,-85.462105,-84.872208,-84.418655,-83.89563,-83.328636,-83.094322,-83.743706,-85.641045,-88.661072,-92.156319,-95.238235,-97.217941,-97.950897,-97.885063,-97.789063,-98.324791,-99.71389,-101.68101,-103.68368,-105.26817,-106.32642,-107.10652,-107.99509,-109.2346,-110.77231,-112.33994,-113.70126,-114.88727,-116.2434,-118.23886,-121.15192,-124.83781,-128.74394,-132.18317,-134.7095,-136.36722,-137.65564,-139.22321,-141.46948,-144.29121,-147.1227,-149.24832,-150.20944,-150.08022,-149.46707,-149.2404,-150.14233,-152.46309,-155.92688,-159.81908,-163.28146,-165.64586,-166.67865,-166.6521,-166.22098,-166.14937,-166.98807,-168.83327,-171.27904,-173.60356,-175.11995,-175.52939,-175.09491,-174.53271,-174.66281,-175.99376,-178.45673,-181.42494,-184.00002,-185.40842,-185.31038,-183.89363,-181.75304,-179.65572,-178.30969,-178.1996,-179.48915,-181.97208,-185.08504,-188.02983,-190.02821,-190.64349,-190.00967,-188.80058,-187.89291,-187.87369,-188.68298,-189.64642,-189.92578,-189.12891,-187.66794,-186.5704,-186.79207,-188.44188,-190.45708,-191.03658,-188.66469,-183.13063,-175.86774,-169.29578,-165.45775,-164.7263,-165.38713,-164.43356,-159.19116,-148.87035,-135.14856,-121.42722,-111.17143,-106.26059,-106.24743,-108.8688,-111.4249,-112.18481,-111.0427,-109.16348,-107.97158,-108.17269,-109.38173,-110.48757,-110.4302,-108.88132,-106.47399,-104.55744,-104.70953,-108.2688,-115.9975,-127.83517,-142.70163,-158.44907,-172.17979,-181.06047,-183.45299,-179.83688,-172.90344,-166.5257,-163.93271,-165.97716,-170.48618,-173.18414,-169.81013,-158.33145,-140.0381,-118.90479,-99.589401,-85.213531,-76.167435,-70.540268,-65.794785,-60.584499,-55.575459,-52.779167,-53.809696,-58.101227,-62.126572,-60.100727,-45.904003,-15.431303,31.522511,90.468933,152.75954,207.34634,243.41891,253.33913,235.07016,193.20193,137.92451,81.975006,36.490429,7.3732991,-6.2368827,-10.64909,-14.066418,-22.52276,-37.297005,-54.986156,-69.978188,-77.804726,-77.490089,-71.72451,-65.013168,-61.078915,-61.077988,-63.528767,-65.735794,-65.637886,-62.912064,-58.797081,-54.97736,-52.405609,-50.839699,-49.278515,-46.85474,-43.501503,-39.963902,-37.236885,-35.893147,-35.771988,-36.179173,-36.371281,-35.943283,-34.885113,-33.368084,-31.517982,-29.385447,-27.100573,-25.002535,-23.54072,-22.950676,-22.94376,-22.706923,-21.31781,-18.368231,-14.391233,-10.768839,-9.1203642,-10.516538,-14.986082,-21.590099,-28.967756,-35.966873,-41.964886,-46.75288,-50.190861,-51.993877,-51.866539,-49.881836,-46.754585,-43.69186,-41.807243,-41.443508,-41.88456,-41.725399,-39.732666,-35.667385,-30.520941,-25.972996,-23.389244,-22.993935,-23.753876,-24.052088,-22.712809,-19.71139,-16.116982,-13.328023,-12.12536,-12.174196,-12.288307,-11.250485,-8.6169062,-4.9649868,-1.4424683,1.0404,2.3996537,3.3425314,4.7556181,6.9757681,9.4890499,11.300681,11.739105,11.132968,10.85833,12.66241,17.655537,25.600668,34.956802,43.663059,50.188366,54.217705,56.590691,58.586109,61.043823,63.884403,66.297905,67.428131,67.069221,65.908707,65.166664,65.877312,68.280907,71.706993,75.00811,77.258575,78.284668,78.717651,79.567429,81.600456,84.900734,88.854088,92.526955,95.183922,96.634438,97.232849,97.579559,98.140907,99.026443,100.03671,100.91345,101.60242,102.34716,103.55412,105.52304,108.22268,111.26054,114.06921,116.19427,117.50664,118.21464,118.68293,119.18993,119.79007,120.36781,120.82993,121.27782,122.01071,123.33317,125.2956,127.5706,129.59467,130.92026,131.54999,131.99542,132.96184,134.82196,137.22865,139.18311,139.6048,138.10114,135.43643,133.31636,133.50031,136.70189,141.94466,146.84007,148.73335,146.12227,139.53821,131.34633,124.53699,121.17875,121.4134,123.5574,125.21564,124.71743,122.01569,118.54931,116.22118,116.17862,118.16505,120.80785,122.58953,122.82381,121.9911,121.24305,121.44978,122.46281,123.10966,121.93797,118.22351,112.57843,106.75415,102.74972,101.7701,103.65646,107.09589,110.43005,112.53821,113.27599,113.27758,113.34113,113.84739,114.57912,114.99863,114.72761,113.86353,112.9139,112.41125,112.48953,112.718,112.30849,110.57287,107.36465,103.26949,99.46701,97.356354,98.118538,102.36502,109.94542,119.93144,130.77988,140.67386,147.99965,151.83238,152.23488,150.19742,147.19362,144.53484,142.84497,141.93956,141.17131,140.02156,138.55093,137.39525,137.27583,138.31926,139.63936,139.51111,136.12239,128.52919,117.28605,104.37708,92.447517,83.715401,79.10788,78.030991,78.835793,79.690567,79.400566,77.802444,75.622627,73.963318,73.722328,75.216789,78.123711,81.681877,85.00705,87.375656,88.395264,88.046173,86.617363,84.571709,82.380928,80.378334,78.679916,77.204498,75.780556,74.280998,72.709534,71.190407,69.873535,68.821236,67.953262,67.086617,66.041878,64.744278,63.254311,61.713882,60.251953,58.917656,57.683147,56.504177,55.383148,54.379566,53.55394,52.8839,52.216221,51.299538,49.89159,47.887924,45.403404,42.762405,40.398407,38.703354,37.883766,37.874397,38.340851,38.778389,38.686222,37.765152,36.060814,33.975433,32.11372,31.007437,30.841154,31.326689,31.814724,31.607027,30.310087,28.03042,25.292078,22.719664,20.677734,19.090694,17.555521,15.668058,13.337619,10.867588,8.7388535,7.2458282,6.2539291,5.2785521,3.862287,1.9947788,0.24642739,-0.55590647,0.021675982,1.4363636,2.0693634,-0.21709085,-7.0846457,-18.798479,-33.902321,-49.706841,-63.367458,-73.005257,-78.313118,-80.388832,-80.964653,-81.503197,-82.640373,-84.195267,-85.616791,-86.513557,-86.933815,-87.279755,-87.990654,-89.250618,-90.911613,-92.643951,-94.171478,-95.418617,-96.490463,-97.53997,-98.64502,-99.784622,-100.9078,-102.01472,-103.17191,-104.45,-105.84181,-107.23137,-108.43715,-109.29049,-109.69099,-109.61769,-109.12823,-108.38963,-107.73434,-107.66567,-108.72464,-111.21355,-114.90813,-118.97179,-122.21951,-123.67155,-123.11259,-121.29889,-119.62108,-119.36088,-120.96664,-123.80699,-126.58849,-128.19762,-128.43074,-128.12224,-128.56627,-130.60519,-134.00307,-137.5513,-139.8614,-140.31639,-139.51491,-138.86685,-139.57898,-141.71259,-143.98338,-144.49388,-141.95253,-136.57417,-130.03374,-124.45602,-121.07044,-119.40363,-117.55265,-113.38879,-105.94061,-96.091888,-86.171608,-78.714157,-75.165787,-75.29847,-77.600716,-80.295815,-82.298904,-83.560043,-84.712074,-86.400589,-88.80909,-91.654839,-94.53363,-97.247795,-99.827606,-102.26589,-104.26125,-105.27805,-104.96314,-103.6245,-102.35031,-102.55707,-105.16847,-109.94549,-115.4579,-119.80013,-121.65716,-121.064,-119.36691,-118.39229,-119.33331,-122.04169,-125.14716,-126.90039,-126.19364,-123.13867,-118.89933,-114.95747,-112.3138,-111.09898,-110.74836,-110.52071,-109.96705,-109.06935,-108.04961,-107.07919,-106.13969,-105.11497,-103.9852,-102.91605,-102.14194,-101.73296,-101.45219,-100.85251,-99.574615,-97.636497,-95.487968,-93.76152,-92.871269,-92.730629,-92.787895,-92.363487,-91.068108,-89.029305,-86.789825,-84.963074,-83.88295,-83.467209,-83.349388,-83.150665,-82.688904,-81.99897,-81.194946,-80.317192,-79.29583,-78.047134,-76.600769,-75.1297,-73.841133,-72.81208,-71.913025,-70.903519,-69.6465,-68.280334,-67.198021,-66.814041,-67.259033,-68.213028,-69.010841,-68.976234,-67.785721,-65.637245,-63.122803,-60.892067,-59.320061,-58.373611,-57.729942,-57.037476,-56.135155,-55.101467,-54.137138,-53.395168,-52.884922,-52.497368,-52.097401,-51.587196,-50.888687,-49.879902,-48.372231,-46.187855,-43.307533,-39.982334,-36.703674,-34.014019,-32.253498,-31.393776,-31.063475,-30.750044,-30.052776,-28.838612,-27.228594,-25.461039,-23.750065,-22.236744,-21.036438,-20.298607,-20.184692,-20.746328,-21.788532,-22.84602,-23.341125,-22.863815,-21.409809,-19.414082,-17.534748,-16.302608,-15.845234,-15.853408,-15.805037,-15.298032,-14.278525,-13.027018,-11.929387,-11.199468,-10.742505,-10.24266,-9.4012938,-8.1535645,-6.7154546,-5.4372287,-4.5733566,-4.1290054,-3.8802483,-3.5393195,-2.939496,-2.1124272,-1.2181189,-0.39600837,0.34522843,1.1227099,2.0776155,3.2687898,4.6504045,6.1479187,7.7609167,9.5942106,11.773187,14.295919,16.937756,19.301161,21.00489,21.900919,22.173513,22.242958,22.524414,23.193207,24.109394,24.952028,25.474304,25.708813,25.983524,26.73369,28.22942,30.393772,32.826847,35.018936,36.618668,37.595058,38.207867,38.823303,39.700432,40.874279,42.184799,43.405094,44.373123,45.052223,45.511486,45.871109,46.263958,46.826462,47.690811,48.945995,50.572968,52.405445,54.174732,55.647587,56.788555,57.834301,59.200695,61.246727,64.026138,67.190521,70.129066,72.281982,73.441315,73.8451,73.994453,74.305565,74.827271,75.223495,75.047745,74.133247,72.826797,71.880447,72.037483,73.564072,76.037033,78.550247,80.234482,80.770782,80.565376,80.461365,81.163361,82.746994,84.582581,85.73896,85.617729,84.406136,83.040985,82.683823,84.023018,86.835426,90.082672,92.484673,93.220634,92.339897,90.659546,89.248611,88.839218,89.515907,90.824448,92.16465,93.17392,93.863205,94.473991,95.225739,96.173058,97.268295,98.533463,100.1423,102.28162,104.85451,107.2554,108.45042,107.41179,103.70011,97.841759,91.227608,85.531181,81.941055,80.631874,80.77002,81.040047,80.37851,78.496262,75.918221,73.568626,72.19043,71.953674,72.456154,73.061317,73.322845,73.224007,73.10817,73.382675,74.208794,75.374466,76.411972,76.867523,76.549515,75.614456,74.458916,73.497383,72.957138,72.794907,72.763626,72.578941,72.091331,71.374939,70.689003,70.330902,70.454872,70.953957,71.478882,71.600235,71.037918,69.830307,68.332802,67.025642,66.227882,65.887604,65.591187,64.810463,63.254795,61.11327,59.021278,57.747364,57.772202,59.009274,60.839371,62.442135,63.225891,63.099319,62.433121,61.757538,61.404152,61.321728,61.168365,60.59446,59.510994,58.161446,56.959713,56.216717,55.945652,55.869778,55.612423,54.930344,53.838547,52.565338,51.396893,50.531403,50.027966,49.843548,49.883617,50.003418,49.973568,49.492985,48.322666,46.517273,44.61549,43.613686,44.642227,48.447475,54.937862,63.064758,71.149712,77.524796,81.171364,82.040863,80.922012,78.971016,77.187515,76.106445,75.804817,76.118904,76.863434,77.8974,79.035057,79.934052,80.109734,79.118385,76.809143,73.473534,69.777237,66.498749,64.223488,63.161282,63.161652,63.868748,64.88324,65.831985,66.351501,66.077812,64.728935,62.269714,59.040295,55.706009,52.983894,51.262596,50.341671,49.481895,47.783028,44.69632,40.373943,35.636837,31.5641,28.935472,27.847538,27.717644,27.65506,26.965233,25.490416,23.608984,21.931049,20.901257,20.549051,20.510433,20.270758,19.458609,18.019464,16.195631,14.359763,12.816797,11.677525,10.844211,10.085948,9.1531754,7.884707,6.2762341,4.4888506,2.7865324,1.4142096,0.46544468,-0.18586382,-0.83142525,-1.7610689,-3.0725634,-4.5864577,-5.9436512,-6.8449793,-7.2814598,-7.5864334,-8.2462311,-9.5738649,-11.464823,-13.422054,-14.864172,-15.526525,-15.676331,-15.967259,-17.000502,-18.87645,-21.055614,-22.657984,-23.03438,-22.241486,-21.093367,-20.730782,-21.970972,-24.853849,-28.674065,-32.463371,-35.58482,-38.032005,-40.242207,-42.583561,-44.9137,-46.559502,-46.761719,-45.278942,-42.70356,-40.219135,-38.911102,-39.068378,-39.950924,-40.209835,-38.719849,-35.304935,-30.896391,-27.022921,-24.956259,-25.044546,-26.628977,-28.555798,-29.924503,-30.591938,-31.144279,-32.408951,-34.860191,-38.302074,-41.993656,-45.084015,-47.048801,-47.869404,-47.902828,-47.598083,-47.277206,-47.100204,-47.166336,-47.608192,-48.571941,-50.1036,-52.062218,-54.170612,-56.198643,-58.149586,-60.2906,-62.968861,-66.314476,-70.033424,-73.453773,-75.828964,-76.727615,-76.274109,-75.091507,-73.982147,-73.537827,-73.901367,-74.793205,-75.750725,-76.413887,-76.694054,-76.762817,-76.914848,-77.414391,-78.407028,-79.90696,-81.818459,-83.953819,-86.050331,-87.819397,-89.04512,-89.698891,-89.995552,-90.330009,-91.101334,-92.511055,-94.452347,-96.560417,-98.398094,-99.668793,-100.33665,-100.59776,-100.7403,-100.9913,-101.43752,-102.04322,-102.72105,-103.39034,-103.98839,-104.45066,-104.70193,-104.68215,-104.38995,-103.90179,-103.34158,-102.81959,-102.39149,-102.07588,-101.9166,-102.02727,-102.55576,-103.56445,-104.90056,-106.16422,-106.83588,-106.51906,-105.16247,-103.1172,-100.97652,-99.281738,-98.266472,-97.789009,-97.481468,-97.006523,-96.251869,-95.348595,-94.529106,-93.947624,-93.596962,-93.366173,-93.167747,-93.01078,-92.947945,-92.937737,-92.747597,-92.008171,-90.418686,-87.980148,-85.091225,-82.419647,-80.607887,-79.983284,-80.438492,-81.533875,-82.731857,-83.60704,-83.925186,-83.601227,-82.633621,-81.100555,-79.210114,-77.310104,-75.770599,-74.762268,-74.079491,-73.182442,-71.506142,-68.878555,-65.758026,-63.067245,-61.655369,-61.701313,-62.471821,-62.662685,-61.174164,-57.847866,-53.662037,-50.199287,-48.681004,-49.184704,-50.588692,-51.337002,-50.568687,-48.875008,-48.143688,-50.517086,-57.07037,-67.024307,-77.994995,-87.143463,-92.532333,-93.886589,-92.357994,-89.537445,-86.419441,-82.999214,-78.707108,-73.289513,-67.440086,-62.672077,-60.469723,-61.281662,-64.062332,-66.725525,-67.277466,-64.943001,-60.589283,-56.190079,-53.669365,-53.831207,-55.996387,-58.502937,-59.698559,-58.795948,-56.114956,-52.665356,-49.431229,-46.844955,-44.737438,-42.692295,-40.474281,-38.207355,-36.21138,-34.676674,-33.464466,-32.201263,-30.591482,-28.695166,-26.938995,-25.830559,-25.57572,-25.88471,-26.128136,-25.756107,-24.698336,-23.461443,-22.836296,-23.390461,-25.068916,-27.160507,-28.65308,-28.755623,-27.271679,-24.620358,-21.535398,-18.667101,-16.340769,-14.582004,-13.316767,-12.539883,-12.29851,-12.510027,-12.793294,-12.510911,-11.075188,-8.3583183,-4.9225636,-1.851902,-0.19847381,-0.31493169,-1.4575446,-1.9311086,0.23998955,6.4227099,16.704559,29.767426,43.3535,55.08363,63.247097,67.243912,67.565018,65.414238,62.196468,59.085785,56.789238,55.514317,55.08416,55.128784,55.287224,55.361652,55.373428,55.500397,55.928684,56.705421,57.688206,58.632442,59.363861,59.915401,60.520721,61.453358,62.816345,64.435844,65.948021,67.030388,67.615326,67.926071,68.300049,68.926491,69.698883,70.305557,70.49987,70.341301,70.2015,70.497795,71.334541,72.331886,72.812447,72.259773,70.742493,68.98439,67.986046,68.418648,70.190842,72.49231,74.298431,74.999214,74.726494,74.165428,74.003983,74.42894,75.033157,75.18573,74.568733,73.461678,72.553101,72.425613,73.11554,74.089333,74.649834,74.44239,73.649651,72.719711,71.867371,70.80188,68.971092,66.177612,63.056969,60.932133,61.005249,63.404789,66.831078,69.203033,68.994286,66.367935,63.244255,62.119976,64.357925,69.127586,73.811943,75.700943,73.849304,69.785027,66.507645,66.419655,69.633705,73.883469,76.14373,74.819611,70.910744,67.26609,66.4412,68.738815,71.936119,72.980186,70.43219,65.78746,62.542683,63.548283,68.56562,73.968552,75.064926,69.553551,59.6161,50.914955,48.905956,54.910988,64.822922,71.68885,70.750595,63.643627,58.752834,67.1185,96.228889,145.52406,206.40582,266.65332,316.32285,351.38733,373.0849,383.99829,384.1283,370.09406,338.19046,289.07724,230.47398,175.43073,136.72777,120.68305,124.19375,136.83479,146.63873,145.97273,134.15479,115.85551,97.152802,82.367638,73.712517,73.262451,84.759727,112.83132,159.32312,219.08273,278.63559,319.81079,327.24506,295.90494,234.25153,160.9343,96.578438,55.041801,38.700779,39.837227,46.646641,49.993305,47.143436,41.018684,36.373734,35.888462,38.651924,41.516323,41.816589,39.286804,35.917988,34.153381,34.963146,37.236153,38.792229,38.085304,35.246288,31.738943,29.02026,27.334452,25.595913,22.415823,17.419239,11.77844,7.503015,5.9930024,6.9406443,8.4257517,8.1745863,5.0960946,0.0032518676,-4.984374,-7.9152422,-8.3034449,-7.3499026,-6.9809046,-8.4417162,-11.469278,-14.607134,-16.37439,-16.388193,-15.606041,-15.532591,-17.014191,-19.545673,-21.623838,-21.894524,-20.242195,-18.002758,-17.119181,-18.83481,-22.862528,-27.626472,-31.396978,-33.494198,-34.692944,-36.549786,-40.16328,-45.290207,-50.474239,-54.092564,-55.543159,-55.683281,-56.177185,-58.219669,-61.578884,-64.689232,-65.76812,-64.174698,-61.027714,-58.608902,-58.937965,-62.497307,-67.981079,-73.217621,-76.590973,-77.959999,-78.47094,-79.481186,-81.448662,-83.627563,-84.768021,-84.237694,-82.660378,-81.546532,-82.184258,-84.654305,-87.761612,-89.976479,-90.67878,-90.724701,-91.843254,-95.273079,-100.67787,-106.22378,-109.84074,-110.75697,-110.11813,-110.14184,-112.3728,-116.3556,-119.81521,-120.33548,-117.34409,-112.8647,-110.32107,-112.13049,-117.83286,-124.24732,-127.72004,-126.91789,-124.05647,-123.45373,-128.25456,-137.67368,-146.97182,-150.54657,-146.19139,-137.44026,-131.9312,-136.36266,-151.12973,-168.31181,-174.77211,-158.87828,-116.90904,-55.276478,12.707075,73.350113,118.26009,145.86899,158.51488,157.87405,142.53131,109.68095,59.66782,-0.32417294,-56.851795,-95.620422,-108.77511,-99.456459,-80.4076,-67.07,-69.100914,-85.271309,-104.59247,-112.69572,-99.464775,-63.576084,-11.964659,44.46909,95.603996,134.4809,156.8308,159.53583,140.33846,99.622826,42.856796,-18.857544,-71.717583,-104.77641,-115.07016,-109.02223,-98.852707,-95.762596,-103.7117,-117.3159,-124.9434,-115.08163,-82.354897,-30.128136,31.135746,88.235252,129.72791,148.62866,142.94376,114.92497,70.100945,16.419466,-36.921993,-81.399857,-111.52979,-126.51562,-129.94917,-127.28983,-122.29716,-114.48339,-99.26503,-70.954002,-26.985586,29.044144,87.32753,134.9061,160.29932,157.48476,127.5947,78.014847,19.735044,-35.792435,-79.356293,-105.86325,-115.2482,-112.17771,-104.23145,-98.644745,-98.578949,-100.70538,-95.8657,-73.325996,-27.13023,38.582523,108.52459,160.8725,175.98904,145.24037,75.432137,-13.611114,-97.327393,-156.50478,-184.22346,-186.47881,-176.76988,-168.08293,-166.77425,-171.32945,-175.8781,-175.58359,-170.24573,-163.99931,-161.7606,-165.22955,-171.41904,-174.80695,-171.59372,-162.97694,-154.91235,-154.1754,-163.12079,-176.61743,-183.44472,-171.69844,-135.22807,-77.443024,-10.400565,50.123951,90.699036,104.29048,90.842987,55.225475,4.6844754,-52.529804,-107.37489,-150.4769,-174.15388,-175.72563,-160.03091,-138.66562,-125.1114,-127.73321,-144.61298,-163.71819,-168.93893,-148.83781,-103.0134,-42.2486,17.561462,63.780323,92.396759,107.2262,114.05871,114.33514,103.18583,73.464989,22.963974,-40.585545,-100.89456,-140.78493,-151.58272,-138.15532,-116.06928,-102.36406,-105.56792,-121.06488,-134.44572,-130.40227,-101.43272,-51.207634,8.6963615,65.638115,111.40275,143.11937,160.17647,160.69905,141.15962,99.826981,41.27663,-22.184912,-74.428673,-103.11037,-106.29259,-93.509125,-80.066551,-77.791771,-87.869972,-100.18689,-99.494156,-74.497421,-24.385902,40.726223,104.9856,153.88942,179.07347,178.88757,155.98552,114.81307,61.032703,2.5246196,-50.250195,-86.473145,-99.486305,-90.897446,-70.987473,-54.123791,-51.194431,-63.391075,-81.223206,-89.577324,-75.923027,-36.882771,20.437845,82.573204,136.20442,172.96646,190.22118,188.56129,168.96092,132.22913,81.097565,22.751469,-31.128586,-68.082817,-80.712357,-71.017014,-50.05444,-32.48658,-28.826317,-39.782688,-55.949108,-62.929306,-48.875748,-10.255416,46.956211,110.59316,167.62932,208.4442,228.29814,226.40459,204.33722,165.3242,114.65434,60.117981,11.157845,-23.642298,-39.699863,-38.413631,-26.640614,-13.717799,-7.4688797,-11.14714,-22.629017,-35.880951,-43.622189,-39.808155,-21.077078,12.870396,59.453926,113.49944,167.60263,212.92746,240.76419,244.7285,222.92299,179.11398,122.20804,63.959427,15.591754,-15.485203,-27.6486,-24.976183,-15.128438,-6.0395675,-2.7718928,-5.8641672,-11.878568,-15.841646,-14.332067,-7.588397,0.53601664,4.823463,1.9804087,-6.8348422,-15.698125,-16.108423,-0.64075458,33.716331,84.067924,142.46342,198.42464,241.86903,265.32526,265.04886,241.29539,198.17216,143.17326,86.113274,37.172886,4.2675066,-9.3757305,-6.2643108,6.4253082,19.76157,26.587934,24.111799,14.52852,3.7002921,-1.2042472,6.0152049,29.065039,68.367722,120.66272,178.88747,232.72778,270.42426,281.94434,262.66174,215.88641,152.66205,88.37291,37.352806,7.8783193,-0.11767817,6.3640256,17.565554,25.626865,27.402573,24.368635,20.256676,18.18302,18.985373,21.422525,23.618193,24.47241,24.060295,22.955093,21.237591,18.113091,12.499769,4.141295,-5.65242,-14.298473,-19.196392,-19.174498,-15.186381,-9.7895365,-5.7216682,-4.4536486,-5.5789208,-7.3371487,-7.8562384,-6.2959352,-3.2170799,-0.048216976,1.9064081,2.2391593,1.5304047,0.78362614,0.64897776,0.97511661,0.96927893,-0.17399852,-2.6167867,-5.6386437,-7.9796419,-8.5573854,-7.1152377,-4.401145,-1.7623143,-0.39429587,-0.69115287,-2.0824606,-3.448386,-3.8525355,-3.1374576,-2.0133815,-1.589341,-2.6515772,-5.1583824,-8.2803183,-10.952795,-12.561479,-13.287042,-13.870067,-14.967794,-16.577139,-17.96839,-18.214699,-16.95727,-14.838383,-13.234733,-13.412831,-15.665866,-19.050051,-21.94965,-23.119349,-22.494684,-21.19899,-20.73205,-21.911823,-24.326847,-26.6926,-27.84211,-27.605553,-26.908112,-27.002745,-28.423933,-30.48974,-31.784725,-31.300064,-29.358662,-27.555632,-27.663349,-30.268087,-34.18927,-37.216484,-37.717396,-35.944511,-33.984898,-34.240971,-37.452278,-41.726864,-43.438602,-39.533916,-29.705692,-16.864586,-5.4694386,1.1898162,2.8452287,1.885965,1.0365565,0.8757326,-0.71852231,-6.4112358,-15.826711,-23.208874,-18.585133,7.4294934,57.577774,124.28101,190.95073,238.15533,251.6646,228.25226,176.38844,111.82083,50.727249,4.0581179,-24.534069,-37.162746,-38.507092,-33.242283,-25.227924,-17.92927,-14.668005,-17.734709,-26.666197,-37.033398,-41.071529,-30.414543,0.16102177,49.7841,110.76882,170.45029,214.78906,232.42497,217.9852,173.85524,109.96306,41.379948,-16.005823,-50.689915,-59.729309,-49.814484,-34.164471,-26.189829,-32.826385,-51.02232,-69.405876,-74.323196,-56.90094,-17.217213,36.481823,92.475403,140.83008,175.96149,195.55708,197.786,179.95375,140.38962,82.369637,16.588787,-40.946617,-75.686493,-82.335426,-68.479874,-50.870834,-45.79422,-59.111008,-82.278275,-97.18116,-87.029129,-46.582157,14.669063,78.179741,126.9375,153.95528,163.36731,164.08946,161.14769,151.22653,125.74772,79.186226,16.347328,-47.162838,-92.355682,-107.63828,-95.840332,-72.654007,-57.259949,-61.012772,-81.214813,-103.52846,-110.95618,-93.396339,-52.060196,2.9964061,59.333042,107.61788,142.89438,162.18889,161.92027,138.33894,91.204987,27.616703,-37.940651,-88.812996,-114.15536,-114.63638,-101.82346,-91.186134,-92.898041,-106.12073,-120.14537,-121.2772,-100.80978,-59.221489,-4.7597651,51.51918,100.26354,135.16078,151.53105,145.01401,112.84368,57.43988,-10.803061,-75.034775,-118.53396,-133.10329,-123.83095,-106.40191,-97.820351,-105.99414,-124.80492,-137.97495,-129.33826,-92.908981,-36.355156,23.994421,72.797722,103.30392,118.07932,123.20556,121.01125,107.24311,74.99469,22.38221,-42.165981,-101.68747,-139.17491,-147.39941,-133.35991,-114.03709,-105.93287,-115.0479,-133.62285,-145.42781,-135.83365,-100.12795,-45.262604,15.051211,67.717262,105.02556,124.51336,125.66456,107.37295,68.864914,13.303085,-49.530418,-104.88279,-139.24251,-147.55081,-136.4261,-120.62735,-114.42827,-123.11999,-139.95702,-150.37859,-140.68013,-105.66962,-50.921661,10.920709,66.564201,106.84597,127.54624,127.2771,105.52532,63.162296,4.969368,-58.653351,-113.55847,-147.44823,-156.13112,-146.14439,-131.35901,-125.07737,-132.28355,-146.83011,-155.25969,-144.76147,-110.31085,-56.928345,3.5680549,58.46138,98.695244,119.85323,120.38,99.800453,59.103554,2.9826832,-58.600025,-112.09982,-145.57106,-154.60556,-145.02499,-129.94577,-122.4051,-127.7953,-140.7153,-148.1691,-137.1017,-101.70044,-46.34293,16.933069,74.183136,114.78053,133.50609,129.55576,104.57737,61.881615,7.2109709,-50.482674,-100.22439,-132.64705,-144.29504,-139.67017,-129.08208,-122.98372,-125.91107,-133.66316,-135.51219,-120.22041,-82.429489,-25.948524,37.526878,93.112572,128.13177,135.74101,115.8576,74.020187,19.402298,-37.246098,-85.680832,-118.42143,-132.83052,-132.03323,-123.7184,-116.80532,-117.27862,-125.23545,-134.72562,-136.50851,-122.32017,-88.592506,-38.102589,20.751554,76.318291,116.67667,132.52438,119.61108,80.317177,23.684618,-36.768658,-87.332779,-119.06902,-131.10382,-130.26524,-126.85464,-128.61256,-136.21243,-142.90607,-138.54079,-115.54477,-73.351387,-18.842245,37.028694,83.977135,115.55961,129.36549,125.13787,103.09513,64.177338,11.990666,-45.557381,-97.10041,-131.63326,-143.4926,-135.45198,-117.71184,-102.97437,-100.17236,-110.20712,-125.79487,-135.15755,-127.38485,-96.904106,-45.527126,18.016222,80.312851,126.55167,144.44005,128.19612,81.387207,16.918369,-46.888226,-93.270103,-114.04391,-112.84842,-102.35809,-96.56414,-102.35659,-115.38527,-122.77759,-111.09629,-74.625427,-18.90667,42.424603,95.102905,130.97272,149.82796,155.83917,151.88841,136.42227,105.29739,57.146526,-2.0656757,-59.268997,-99.918747,-115.69395,-109.21637,-92.522911,-80.077087,-80.616043,-92.730515,-106.47548,-109.43581,-93.200867,-56.635212,-5.0191927,53.105618,108.68833,153.18996,178.6909,178.87737,151.63788,101.86379,41.801991,-12.684491,-48.78619,-62.635147,-60.513248,-54.166042,-52.879311,-57.325531,-59.209309,-46.957531,-13.667256,37.937183,96.649818,148.92273,185.59747,204.75914,209.36678,202.24277,182.81714,148.38741,98.854195,40.841202,-12.781835,-48.643787,-60.420162,-52.888184,-39.17318,-32.439411,-37.246166,-46.301147,-44.917152,-20.411961,29.544182,94.844696,158.12759,203.5462,223.48291,219.49643,198.04639,164.99292,123.12201,74.036079,22.017193,-24.205654,-54.198326,-61.765339,-49.84444,-30.2528,-17.499874,-20.085682,-34.794537,-47.891525,-42.815662,-9.8160191,48.22998,117.08812,178.34114,217.83882,230.53577,219.68475,192.16382,153.8613,108.2313,58.227142,9.0940065,-31.068569,-54.157219,-56.659069,-42.669945,-22.814447,-9.2254267,-9.4061136,-22.584318,-40.56979,-52.298553,-49.137741,-27.979181,8.9871387,56.619774,109.00526,159.9651,202.2758,227.4025,227.32843,198.30148,144.35252,77.833382,15.640048,-27.561094,-45.638908,-43.243671,-32.53812,-26.104582,-29.943699,-40.402962,-46.564297,-36.516037,-3.9087527,48.638302,110.64599,168.20117,209.00943,225.66994,216.35896,183.74844,133.60878,73.933807,14.30216,-35.418858,-67.471138,-78.983353,-73.507454,-59.90543,-48.570503,-46.68969,-55.114433,-68.685341,-79.879982,-83.621239,-80.318672,-75.268257,-74.792534,-81.549873,-91.974174,-97.484001,-88.770477,-60.623627,-14.537798,42.169552,99.8218,150.09961,187.88385,210.67395,216.8277,204.5993,173.13875,124.8618,67.207542,11.829371,-29.195381,-48.478748,-46.899807,-33.338242,-20.31694,-17.651165,-27.40132,-42.757156,-51.363766,-41.298573,-6.7148099,49.373955,116.04528,178.25002,221.55679,236.11655,218.9149,174.17438,112.14502,46.54715,-8.9929676,-44.808575,-58.150002,-53.897766,-42.326317,-34.514126,-37.293903,-50.106583,-65.330627,-71.94268,-60.673393,-28.135986,21.888437,80.201172,135.62891,178.27341,201.31592,201.36595,178.24281,135.04163,78.490135,18.715149,-32.575447,-65.583366,-76.285942,-68.537735,-52.719906,-40.95911,-40.973278,-51.71106,-63.326981,-61.881676,-36.62006,13.806433,79.380142,142.08856,183.02415,189.83109,161.13419,106.2483,40.79044,-19.454811,-63.687492,-88.462479,-96.981956,-96.256744,-93.566574,-93.45771,-96.039368,-96.936661,-88.962608,-65.205452,-22.670383,34.943329,96.844887,147.92062,174.00294,167.50723,130.73659,75.041603,16.058739,-32.654011,-64.367973,-80.027168,-85.133263,-84.857849,-80.419304,-68.742561,-45.231121,-7.5723414,41.921322,96.701721,148.45013,189.74733,215.3589,221.98828,207.71704,172.50801,119.91898,58.556652,1.2163924,-39.15823,-55.218407,-49.355728,-33.177361,-21.74007,-25.305727,-43.324574,-64.405342,-72.565521,-56.193172,-14.420471,42.776424,100.47046,146.65698,177.07344,194.26555,202.27493,201.30898,186.59602,152.44447,98.567032,33.806911,-26.056574,-65.731277,-78.615059,-70.460007,-55.871567,-49.54686,-57.529991,-73.766556,-83.897316,-73.770248,-37.454773,19.762445,84.508644,141.94249,181.57248,199.27681,195.56093,172.5851,132.76965,79.869812,20.938995,-33.458584,-72.226845,-88.758339,-84.830673,-70.357277,-58.36919,-57.718704,-67.729141,-78.124298,-74.534523,-46.576752,6.0024776,72.455025,135.68823,179.66365,195.51807,183.55389,150.87369,106.81872,59.12162,12.573811,-30.001482,-66.179108,-93.522591,-110.82822,-119.92773,-126.22868,-136.8461,-156.83467,-185.55139,-215.5018,-234.82449,-232.49911,-203.66435,-152.18687,-89.061653,-27.548925,22.208929,56.135098,75.34523,82.492714,78.117538,59.715275,24.328154,-27.097691,-86.8592,-141.7612,-178.55037,-190.658,-182.08382,-165.57558,-155.59555,-159.89514,-174.68311,-186.46593,-179.7047,-145.88326,-88.679665,-22.307341,35.729435,72.904221,86.059425,79.824928,60.991684,33.285767,-3.6846602,-50.872433,-104.79819,-155.5692,-190.30014,-200.30757,-187.3083,-163.93153,-147.32423,-149.26613,-168.85364,-192.53271,-201.74208,-183.58928,-138.03598,-77.350601,-18.590364,25.726114,52.732067,67.262764,74.981499,76.04982,64.209846,32.07029,-21.268997,-86.062202,-144.84517,-181.19559,-188.8871,-175.41656,-157.36838,-150.33391,-159.61263,-177.37257,-187.76425,-176.49821,-138.88199,-81.767014,-19.065346,35.506504,73.646202,93.01635,94.186615,77.453583,42.540894,-8.6520157,-68.971436,-125.98859,-166.30553,-182.08676,-175.62256,-158.54599,-145.62296,-146.58153,-160.81113,-178.00076,-184.10091,-168.8568,-130.57602,-75.95974,-16.074934,38.372494,79.65078,102.88835,104.84995,83.769348,40.989292,-16.969364,-78.316071,-129.2545,-159.5452,-167.25194,-159.51471,-148.38666,-143.84584,-147.98587,-153.80873,-149.31969,-124.50681,-77.231812,-14.931769,48.380413,97.763115,122.56268,119.01131,89.905701,42.572964,-13.404694,-68.022514,-112.4612,-140.86195,-152.0065,-149.88448,-142.13313,-136.39095,-136.09361,-138.06224,-133.61403,-113.05271,-71.371017,-12.109765,52.802906,107.26182,137.13356,135.35991,103.82809,51.674183,-8.5926666,-65.112465,-109.37472,-137.26314,-148.93251,-148.07918,-140.71477,-133.23366,-129.84535,-130.20479,-128.64481,-116.11063,-84.598938,-32.269787,33.493206,97.183258,140.53603,149.9229,122.22974,66.261009,-1.0597913,-61.774982,-103.76044,-124.21101,-128.54123,-125.90239,-123.98968,-125.68087,-128.62498,-127.22176,-115.49056,-89.472176,-48.613323,3.7191246,60.34779,111.14081,144.98851,152.9299,131.58272,85.2771,25.404593,-33.313175,-78.236404,-103.37231,-110.81823,-108.41915,-105.00397,-105.78044,-110.15532,-112.6953,-106.21498,-85.144386,-47.737759,3.224951,60.775394,114.68179,153.08963,165.31627,145.65439,96.802956,30.707533,-34.787483,-82.885345,-105.24602,-105.63927,-97.176529,-94.082619,-102.53075,-116.11849,-119.09748,-95.771545,-40.483376,37.984749,120.39531,186.94466,226.8432,241.69679,241.02185,233.51555,220.45863,195.93713,153.58499,94.728706,31.580757,-17.564363,-38.529381,-30.181477,-5.836864,14.338416,15.449966,-3.0859346,-27.314573,-37.400158,-19.580187,26.090597,86.696442,144.80348,188.23546,214.90384,230.17514,239.58144,242.72615,233.00746,203.29688,153.25014,92.636292,37.823524,3.3611035,-5.9113898,2.9692516,16.104784,21.717325,17.417849,11.354187,16.840179,44.067104,93.941132,157.30757,219.28386,265.58517,287.2594,282.04831,253.03336,206.53009,150.6982,94.824287,48.198315,17.860619,5.9149647,8.2636518,16.355917,21.762371,21.281178,19.427601,26.382734,52.154945,100.13725,163.80469,228.54749,277.66785,299.23383,290.22214,256.21814,207.60176,154.90276,105.868,65.092873,35.160606,17.479876,11.817051,15.14013,21.462631,23.964937,18.946709,9.3448477,5.0574999,18.772234,58.714211,122.05753,193.07874,247.98964,264.79114,233.46698,161.22084,69.785431,-14.075553,-70.133545,-92.503021,-89.939003,-78.961723,-73.926765,-79.531418,-89.513954,-91.592567,-75.228256,-37.569042,15.496529,73.039101,124.62462,164.10713,189.77199,201.66272,198.80797,178.86513,140.63647,87.516083,28.915071,-22.13476,-54.424801,-64.022591,-56.325199,-43.152344,-36.266296,-40.887943,-52.832943,-60.803341,-52.458496,-20.914631,31.634752,94.647842,153.41087,194.27225,208.60483,194.39915,155.76738,101.30203,42.024387,-10.889378,-48.620792,-67.094101,-68.288284,-59.437298,-49.849678,-46.410709,-49.881416,-54.069859,-48.646358,-24.455509,21.25036,82.31163,145.19948,193.87897,215.70917,205.77359,168.00096,113.04362,54.220028,3.3119488,-32.381256,-51.139244,-56.184677,-53.784214,-50.639427,-51.180386,-55.520573,-58.917187,-53.317879,-30.828827,12.057866,71.351318,135.31204,187.70825,213.55428,204.94203,164.29575,103.4606,38.981403,-14.254381,-48.114124,-62.908775,-65.297943,-63.857086,-64.658089,-68.83387,-72.805412,-70.489113,-56.116512,-26.494287,17.769373,71.97113,127.75923,174.39569,201.04445,199.93768,169.50633,115.97375,52.131737,-6.7919469,-48.663834,-68.840927,-71.219498,-65.365463,-61.216709,-64.111214,-72.593185,-79.800102,-77.281677,-59.030918,-23.849125,24.510757,78.695976,129.47403,167.24226,183.55362,173.10796,136.01469,79.180145,15.363852,-40.642834,-77.511749,-91.908012,-89.449005,-81.235786,-77.617195,-82.550209,-91.65432,-94.922943,-82.375793,-49.394009,1.0236937,59.776623,115.45193,157.99347,180.63046,180.09058,156.27547,112.42608,55.634396,-3.4986787,-53.156216,-84.298264,-94.48172,-89.086502,-78.680733,-73.524498,-78.095459,-88.702194,-95.519417,-87.82653,-59.493568,-11.891941,46.828602,105.04115,151.39571,177.36617,178.29884,153.72069,107.62257,48.520557,-11.674639,-60.672901,-90.065735,-98.781288,-93.448174,-84.815941,-81.750267,-86.059273,-91.231102,-86.005005,-60.856094,-13.755043,47.946461,110.31064,158.45354,181.89761,177.21454,147.51378,100.11169,44.156456,-10.921227,-56.509315,-86.287926,-98.161049,-95.549309,-86.497299,-80.027542,-81.095688,-87.000954,-87.882935,-71.806725,-32.088783,27.213064,91.067139,139.10703,154.42793,131.00247,75.953377,5.7959776,-61.030514,-111.34221,-140.77444,-152.77505,-154.57748,-152.89014,-151.47757,-151.17256,-151.3544,-151.42653,-151.37764,-151.47527,-151.75441,-151.89232,-151.54094,-150.73921,-149.99968,-150.00154,-151.17439,-153.5146,-156.72426,-160.46214,-164.42909,-168.22734,-171.2148,-172.63829,-172.08549,-169.94586,-167.44153,-166.04488,-166.57967,-168.6282,-170.73738,-171.37424,-170.0108,-167.56198,-165.81644,-166.21468,-168.82047,-172.22238,-174.45132,-174.27313,-171.94907,-168.95032,-166.87473,-166.37961,-166.89522,-167.26784,-166.7751,-165.69957,-165.02689,-165.54709,-167.1183,-168.71849,-169.26746,-168.55768,-167.50955,-167.48264,-169.13663,-171.74042,-173.53111,-172.92816,-169.71931,-165.30574,-161.7778,-160.48508,-161.17288,-162.34247,-162.54794,-161.59598,-160.66685,-161.22212,-163.56651,-166.28581,-167.15511,-164.93404,-160.64716,-157.1893,-157.31509,-161.39755,-166.73169,-169.19157,-166.31747,-159.65163,-154.37152,-155.98508,-165.9554,-179.13562,-185.00343,-172.37077,-135.00523,-74.947433,-1.7115657,71.916695,134.80424,180.32634,206.08595,211.70695,197.09096,162.8073,112.25239,53.442307,-1.8134454,-41.871704,-60.4562,-59.879852,-49.890343,-42.308594,-44.307926,-54.19389,-62.179222,-55.741264,-26.524729,24.986132,89.313408,151.97398,199.10976,221.85577,217.85368,190.22366,145.50383,91.923454,38.321091,-6.9149742,-37.51506,-51.339535,-51.500622,-45.263882,-40.502586,-41.159649,-44.265301,-40.645657,-19.565901,24.784678,88.419144,157.19867,211.64954,234.85008,219.59392,171.34821,105.67229,41.531612,-6.156445,-31.333622,-37.192646,-32.70171,-27.523392,-27.87714,-34.84108,-45.036144,-52.568878,-51.042103,-35.134285,-1.9644463,47.452892,106.95974,165.21983,207.93376,222.34479,202.51306,152.75217,86.973106,23.566723,-22.063404,-43.647934,-45.660824,-39.555859,-36.761539,-42.339428,-52.692055,-58.234684,-49.079639,-20.298828,25.952681,81.915634,137.60332,183.72522,212.90979,219.77097,201.31535,158.52141,98.222633,33.205494,-21.047216,-52.351955,-57.563248,-44.384304,-27.441372,-20.270576,-27.659456,-42.914276,-51.784164,-40.708961,-4.4336352,51.396618,113.69253,168.63005,207.12399,226.06212,225.733,206.63637,168.90387,114.91651,52.515602,-4.9166946,-43.191284,-54.692902,-43.502583,-24.037457,-13.000238,-19.143404,-37.378159,-51.388794,-43.498917,-5.6810503,55.298615,121.8043,175.52812,207.08698,218.80502,219.41451,215.13457,204.04019,178.04794,131.07561,67.130539,1.7853647,-44.962521,-60.214394,-46.366234,-20.114695,-2.4432974,-5.8428063,-26.944815,-49.16333,-53.324867,-29.172365,19.5219,78.778938,133.584,175.59541,204.37987,222.42564,228.91847,217.96092,183.14474,125.05229,55.457737,-6.0402141,-41.798027,-46.191635,-29.042879,-9.6219273,-4.7334113,-18.451296,-40.031036,-51.094818,-37.128563,4.2012591,62.797901,123.1237,172.89064,207.45299,227.7402,234.66325,225.41776,195.20868,143.19133,77.570221,14.883661,-27.377048,-40.486473,-29.884462,-12.030888,-4.1648755,-13.383765,-32.160675,-43.257309,-30.779865,9.8612213,69.383263,130.62244,178.55566,207.48975,221.03172,225.81566,224.30008,212.25821,182.79329,133.70088,72.405899,14.358994,-24.572399,-36.869648,-27.497946,-10.634873,-1.0391144,-5.4388237,-19.055944,-28.936159,-21.604366,9.6023664,61.280273,121.64816,175.32335,208.41319,212.08366,184.30089,130.21115,61.314888,-7.0051069,-59.83271,-87.94355,-91.554474,-80.159798,-67.76606,-65.570946,-75.999527,-91.543068,-99.108131,-87.287788,-52.303829,0.55234069,60.135632,114.64734,155.43066,177.66916,178.9453,158.10579,116.11266,58.25729,-4.7420769,-58.980732,-92.797539,-102.48856,-94.465691,-81.857971,-77.081383,-84.687096,-98.827911,-106.83598,-96.591492,-63.161716,-11.015695,48.769707,103.77663,144.46089,165.36002,164.01651,139.9276,95.177422,36.202785,-25.622889,-76.588783,-106.08347,-111.90517,-101.76181,-89.283974,-86.40258,-96.521362,-112.63944,-121.5226,-111.24786,-77.523941,-25.34977,34.160526,88.982559,129.96774,151.62538,150.9994,127.02876,81.731445,22.17572,-39.347576,-88.735123,-116.09705,-120.83984,-112.04488,-103.08898,-103.36444,-112.25111,-119.35308,-111.02153,-79.046616,-26.011618,35.86021,91.137978,128.34933,143.38205,137.83502,114.85812,76.543106,25.057917,-33.959885,-89.671066,-128.96017,-143.23465,-134.57983,-116.15879,-105.19695,-112.18462,-133.2361,-151.1689,-145.3791,-104.60588,-34.414413,45.544094,112.73903,154.06686,171.25258,176.17714,179.92398,183.59007,177.48062,149.22427,94.898155,24.981384,-39.530495,-78.681564,-85.217415,-68.582108,-48.560791,-42.726086,-55.78508,-77.405334,-89.351028,-76.822281,-36.705067,21.828148,83.529922,135.07809,169.5858,185.73415,183.86816,163.27245,123.19784,66.578812,2.7367401,-54.191654,-91.154991,-102.94244,-95.18692,-81.199913,-74.247284,-79.907516,-93.110443,-101.42771,-92.314934,-59.872692,-7.5239506,54.084206,111.82134,154.41925,174.61824,169.37146,139.52689,89.940552,29.579433,-29.694513,-76.362053,-103.5136,-111.76077,-108.63428,-104.24956,-105.44197,-111.75016,-115.65451,-106.93401,-78.567451,-30.85132,28.288908,86.46022,131.31189,154.07358,151.02736,123.31464,76.131653,17.903036,-40.863274,-89.656311,-120.94142,-132.88695,-130.14815,-121.71005,-116.44178,-118.53114,-125.26294,-128.38649,-118.33839,-89.09655,-41.308327,17.517227,75.403809,119.54619,139.80522,131.2412,95.386971,40.093315,-22.273108,-78.2463,-117.51385,-136.3963,-138.77675,-133.66542,-130.32297,-133.3488,-140.32588,-143.25346,-132.88467,-103.5487,-56.01815,2.6385655,61.532898,109.14327,135.90823,135.93243,108.19247,57.404987,-6.0677495,-68.26757,-115.87493,-141.24849,-145.63914,-138.29745,-131.31975,-132.77969,-142.08987,-150.4606,-146.25977,-121.9963,-78.659241,-24.972649,27.470444,69.635963,97.499062,110.52342,108.2959,88.757942,49.972374,-5.808569,-69.365593,-126.19174,-162.69788,-173.42319,-164.3855,-149.80873,-143.7531,-151.69215,-167.31558,-176.52205,-165.94633,-130.60178,-76.15049,-15.139678,39.529713,79.361664,100.775,102.50959,83.364792,42.938557,-15.080556,-80.370964,-137.61578,-172.80162,-180.75055,-168.67523,-152.54611,-147.73834,-159.5489,-179.70403,-191.30473,-179.17308,-139.01987,-79.725983,-17.70929,32.422184,64.574539,81.182243,87.489014,85.089966,69.943947,36.404202,-15.942389,-78.173637,-134.39557,-169.64566,-178.28003,-167.17284,-151.397,-145.02084,-152.802,-167.81552,-176.07686,-164.84433,-129.41476,-74.841965,-12.629589,44.591476,86.988785,108.6133,106.68786,81.141319,35.373863,-22.712168,-81.37381,-128.38422,-155.87904,-163.82025,-159.57042,-153.39063,-152.3656,-156.37309,-158.43657,-149.02846,-121.56351,-75.956108,-18.738049,39.523712,87.545395,115.84101,118.23965,93.085922,44.432198,-17.602997,-78.709091,-124.95312,-148.45815,-151.0121,-142.87798,-136.72781,-139.89882,-149.70471,-154.97206,-143.07959,-108.11585,-54.921932,3.5330899,53.542686,87.778908,107.46799,118.5944,125.37932,126.13273,114.66709,86.200493,43.188423,-3.6035936,-40.100964,-56.851269,-54.444359,-42.541721,-32.995354,-31.620529,-34.126827,-28.879726,-4.5846119,42.155602,104.10019,166.72954,215.06282,239.54305,237.97899,213.6779,172.34119,120.333,64.885818,14.608109,-21.767456,-38.73431,-37.417553,-26.056288,-16.136549,-15.823462,-24.657764,-33.152367,-27.957399,0.36032858,51.612507,115.66515,177.28743,222.81581,244.63078,241.56139,216.4305,173.64435,118.84315,60.092316,8.161231,-26.139057,-36.98843,-27.70433,-10.330347,0.3922087,-4.2779832,-21.133875,-36.090023,-32.21376,0.0088530229,56.617565,122.18365,178.45688,213.8925,227.90547,227.55838,219.76111,205.12898,178.2036,133.8317,74.677689,13.679341,-31.296381,-47.640099,-36.207191,-11.558401,6.6064973,5.6803508,-11.780598,-29.436607,-27.190674,6.4964828,67.665085,139.24068,200.59636,237.81813,248.41414,238.53485,215.96056,184.53461,143.88199,93.777473,38.851742,-10.853816,-44.608902,-57.822727,-55.831448,-51.377399,-56.922081,-76.69059,-103.71201,-123.81056,-123.8604,-98.913246,-53.882263,0.56696463,54.335522,101.74255,140.63646,168.4559,179.40735,166.00247,124.5599,60.68433,-9.9907856,-67.611008,-97.676994,-98.577347,-82.102615,-66.260323,-64.636452,-78.761429,-97.951965,-106.28468,-91.983131,-53.430763,1.2332443,59.546585,110.81688,148.90965,170.92558,174.31679,155.95966,114.64581,55.083435,-10.433282,-65.347389,-96.228783,-99.915306,-85.537193,-69.481834,-65.908737,-78.477608,-98.345787,-109.5616,-98.359665,-60.63784,-3.4513395,59.53693,114.96852,154.50658,175.12169,176.2903,157.53944,118.90945,63.919373,1.9754685,-52.945389,-87.843552,-97.480316,-87.778969,-72.9048,-67.126251,-76.201515,-93.680618,-104.56683,-94.14621,-56.561493,1.9753245,66.855133,122.77853,160.42365,178.27078,179.46248,166.966,141.0666,100.9761,48.889141,-7.2539282,-55.210369,-83.883995,-89.45121,-77.969086,-62.334,-55.073265,-61.176456,-75.207924,-84.319702,-75.274689,-41.43132,13.952601,79.294258,139.58473,181.70412,197.8177,186.23862,150.61058,98.579979,40.417484,-12.756136,-51.526608,-71.091125,-73.137421,-65.215797,-57.219948,-56.323048,-62.930725,-69.990883,-66.324348,-42.450581,4.0208569,66.162697,129.73946,178.40755,199.63599,188.81812,150.16501,94.519608,35.377266,-15.260325,-49.924175,-66.971321,-70.053642,-66.063789,-62.147327,-62.648041,-67.038162,-69.766075,-62.37899,-37.351475,7.8365545,68.194374,131.64444,182.54874,207.10268,198.42007,159.14169,100.4192,37.698936,-14.87937,-49.106766,-64.533386,-67.016624,-64.962891,-65.111961,-69.659737,-75.679245,-76.709816,-65.595444,-37.442902,8.1736116,66.248749,126.84329,177.10695,204.62234,201.35545,166.89879,109.47464,43.740685,-14.20594,-52.712261,-68.667404,-67.76683,-60.751629,-57.535042,-62.246433,-71.646645,-77.429573,-70.806076,-46.749947,-5.9002161,46.201973,101.32935,150.64287,185.8698,200.03975,188.71408,151.9543,95.996628,32.910065,-22.755951,-59.436501,-73.448021,-70.372169,-61.707306,-58.344662,-64.467972,-75.359047,-80.294502,-68.690155,-35.847679,14.795846,73.613594,129.07872,171.56332,194.86702,195.78636,173.44626,129.79402,70.978096,7.8081594,-46.450039,-80.874931,-91.921181,-85.400795,-73.538536,-68.24041,-74.314178,-86.695412,-93.393936,-82.370667,-48.212025,5.1667094,66.828949,124.0234,166.76997,189.4424,189.60367,166.38094,120.57478,56.658829,-15.427727,-81.326065,-126.97704,-144.9393,-138.4359,-120.09232,-105.46419,-104.81977,-117.9139,-134.71793,-141.41432,-127.86946,-92.272713,-40.866749,16.027617,68.471046,109.1299,132.88745,135.6907,114.83195,71.165863,11.484761,-51.615028,-103.63994,-134.36086,-142.6209,-136.50145,-128.27998,-126.97688,-132.96455,-137.90327,-129.94357,-100.9212,-51.265392,9.927352,69.066208,113.54414,135.4446,132.26225,105.65067,60.128418,2.7832389,-56.690315,-107.18729,-139.39688,-149.8519,-143.20718,-130.53712,-123.74243,-128.86171,-142.24144,-152.12112,-144.99503,-113.16891,-59.194229,5.1847267,64.589233,106.56059,125.44831,122.11964,100.79966,65.904747,21.085077,-29.472265,-79.400879,-120.40511,-145.09029,-150.84814,-142.0555,-128.57713,-120.82489,-123.92732,-134.37537,-141.27113,-131.76079,-97.906036,-41.46859,25.788061,86.366325,123.76318,128.55872,101.32048,51.429081,-7.2133689,-61.425255,-102.64924,-128.1283,-139.37892,-139.25163,-129.38907,-109.44736,-78.286057,-36.118671,13.93702,66.015335,113.28794,150.18407,173.58429,182.35297,175.91293,153.41113,114.62601,62.287395,3.956949,-48.680626,-83.839798,-95.292618,-86.27256,-68.621574,-56.787018,-59.609142,-74.690407,-89.04747,-86.136848,-55.39312,1.2964674,70.005241,131.69156,171.30945,183.65559,172.92894,147.25714,112.64014,70.693466,21.373627,-32.108696,-80.805534,-112.85854,-120.4041,-105.81567,-82.317894,-67.4785,-72.99929,-97.160744,-125.02424,-136.69473,-118.72762,-71.654739,-9.0984526,50.592869,94.479385,120.35654,134.25894,142.63368,145.29448,134.52394,101.13686,43.175953,-29.209019,-96.724442,-140.44824,-152.03978,-138.11551,-115.93662,-103.09969,-107.62384,-124.31377,-139.05089,-137.67702,-113.68163,-70.381691,-17.362394,35.362408,81.171616,116.63248,138.7095,142.78087,123.92632,80.979263,20.186729,-44.921844,-98.413574,-129.14589,-135.94833,-127.48349,-116.74446,-113.46565,-118.89309,-125.71649,-122.73245,-101.16863,-59.134197,-2.3442962,58.335209,110.53471,143.44725,149.78818,127.11189,78.860016,14.634017,-51.412033,-104.57849,-134.94032,-141.42432,-132.08762,-119.86807,-115.7391,-122.93902,-135.49388,-141.78258,-130.96016,-98.54493,-48.298653,9.9936943,64.843376,106.72425,129.50015,130.02782,107.57619,64.296288,6.4093595,-55.534576,-108.82574,-143.03186,-154.56528,-148.51431,-136.12549,-128.88159,-132.31294,-143.01234,-150.52324,-142.97455,-113.3066,-62.864075,-0.88752842,59.237785,104.69016,126.72582,122.11725,92.929085,45.515678,-10.783452,-65.389938,-108.89625,-135.7518,-146.0753,-145.3349,-141.52122,-140.89224,-144.4231,-146.96135,-139.7216,-114.93925,-70.32917,-11.135256,51.133858,102.53995,131.30609,131.31963,103.49445,54.952316,-3.3286166,-59.548683,-104.04987,-131.58316,-142.32863,-141.28162,-136.01825,-133.46706,-136.85033,-144.0746,-148.36847,-141.05338,-115.40542,-70.064148,-10.582522,51.577244,102.32981,129.39626,126.29383,94.421661,42.454243,-16.733395,-70.412689,-109.91458,-132.62849,-141.48627,-142.45433,-141.33891,-141.28706,-141.78645,-139.17679,-128.1738,-103.86137,-63.803452,-9.9537506,50.246113,104.49367,138.63779,141.66711,110.79161,53.892937,-12.666613,-70.59391,-107.59708,-122.41077,-123.85477,-124.24139,-130.97661,-141.54721,-145.12715,-129.83922,-90.955368,-34.598412,25.548681,76.286469,112.16652,136.95717,158.3642,179.93253,196.25505,195.44214,167.632,113.73888,47.973877,-8.3792696,-38.476051,-39.363289,-23.044809,-8.221983,-7.950532,-21.207767,-33.788013,-27.766315,6.8088331,65.562004,132.51038,189.4463,225.39166,240.06526,239.95227,230.84947,212.92279,181.94754,135.42207,78.385239,23.873461,-13.091388,-24.196758,-13.191165,6.0820537,18.031601,14.796192,0.86194754,-9.9162493,-2.7175345,29.791786,83.827515,147.02438,204.59157,244.92804,261.9487,254.32385,223.89072,175.22836,116.34776,58.624722,14.214201,-8.7267265,-10.304989,0.62218642,10.994911,11.021333,0.16374248,-12.203534,-12.081689,11.056018,58.219009,120.30972,182.82439,232.48979,261.78116,269.31403,257.20023,228.29665,185.64174,133.9959,81.289001,37.648262,11.640124,5.8554645,14.995549,28.277273,35.154564,31.062759,19.772974,11.065151,15.285295,38.005489,77.492378,125.64307,171.07082,202.43323,210.93124,192.09688,147.3143,84.76046,18.520317,-35.193489,-64.130463,-65.679558,-48.592003,-28.814644,-20.935261,-29.828665,-47.556728,-57.72818,-44.977383,-3.9273548,57.749023,123.81011,178.30669,213.03432,229.08507,232.28903,226.56285,210.40083,179.13538,131.09424,72.665939,17.853239,-18.2089,-27.818211,-15.568162,4.0965338,15.471308,11.071626,-3.9018507,-14.795705,-6.2449002,29.037104,86.503563,152.61658,211.72406,252.43536,270.16397,265.66833,242.07132,203.17067,153.94119,101.74799,55.947811,24.932777,12.136272,14.001491,22.061115,28.500753,31.847239,38.808998,60.466858,104.65697,169.09489,239.68477,295.51517,318.08563,299.82028,247.38129,178.3076,113.1199,67.131485,45.761894,44.801273,54.437405,64.445923,68.203484,64.476501,57.172436,53.734066,62.695385,90.692139,139.40013,203.38266,270.09616,322.80807,345.9144,330.75949,279.41812,204.54106,125.05788,59.441357,19.365252,6.3814678,12.827055,26.277191,35.360306,34.294491,24.22802,11.027172,0.86352026,-3.9498553,-6.4935403,-13.086152,-28.417009,-50.704765,-70.050873,-71.771294,-43.786053,15.479939,93.186615,165.09377,204.92841,195.90848,138.63213,51.087608,-39.438141,-108.47025,-144.28304,-150.79752,-142.58002,-135.397,-137.90266,-148.82465,-160.38266,-164.95462,-160.44315,-151.16771,-144.30531,-144.75307,-152.00626,-160.95784,-165.74123,-163.77609,-157.27409,-151.38535,-150.49287,-155.29468,-162.58206,-167.65752,-167.56032,-162.86624,-156.97093,-153.55698,-154.11469,-157.1888,-159.70044,-159.24614,-155.70369,-151.1033,-148.01358,-147.69998,-149.35883,-150.8647,-150.37195,-147.57205,-143.75778,-140.76213,-139.62965,-139.98753,-140.49536,-139.94157,-138.12425,-135.88586,-134.34625,-133.97252,-134.20602,-133.90897,-132.26274,-129.42563,-126.45984,-124.5976,-124.40016,-125.42218,-126.59972,-127.04192,-126.62685,-125.97377,-125.84721,-126.47036,-127.28197,-127.32541,-125.97986,-123.48416,-120.85361,-119.2299,-119.11516,-120.02345,-120.78805,-120.30584,-118.20899,-115.02662,-111.7683,-109.25681,-107.67924,-106.63186,-105.55981,-104.21995,-102.81258,-101.70942,-101.02782,-100.42197,-99.287971,-97.247787,-94.534615,-91.943802,-90.318092,-89.893349,-89.976959,-89.245804,-86.541672,-81.684059,-75.76194,-70.666512,-68.100288,-68.641319,-71.426353,-74.645927,-76.551025,-76.366776,-74.583664,-72.497322,-71.332542,-71.520287,-72.558754,-73.484993,-73.58567,-72.845154,-71.841026,-71.196815,-71.012016,-70.70018,-69.374199,-66.528305,-62.54977,-58.697216,-56.535198,-57.171944,-60.765213,-66.565086,-73.398933,-80.231659,-86.440834,-91.71154,-95.766869,-98.265236,-99.020699,-98.377487,-97.359795,-97.31868,-99.168068,-102.67823,-106.37193,-108.2356,-106.9057,-102.60075,-97.149071,-93.006668,-91.829346,-93.497696,-96.236458,-97.764969,-96.729774,-93.477516,-89.673592,-87.060226,-86.233208,-86.286537,-85.549492,-82.861847,-78.45726,-73.820625,-70.636673,-69.607147,-69.99929,-70.239815,-69.090675,-66.518074,-63.610451,-61.634499,-60.982079,-60.849358,-59.920902,-57.535492,-54.398933,-52.221077,-52.474487,-55.185017,-58.706612,-60.736626,-59.891285,-56.693577,-53.209671,-51.552856,-52.333889,-54.213696,-54.919716,-52.991077,-48.945362,-44.96262,-43.287895,-44.537418,-47.200787,-48.749519,-47.539997,-44.065617,-40.579468,-39.349045,-40.880161,-43.511005,-44.73782,-43.263378,-40.128181,-37.936161,-38.677822,-41.847569,-44.467571,-43.23391,-37.29306,-29.471655,-24.756594,-26.850391,-35.22414,-44.98114,-49.951881,-47.046894,-38.760536,-31.794462,-32.420197,-41.584949,-53.135391,-56.531967,-42.408333,-7.4313641,44.497578,105.01904,165.64491,220.39748,265.21832,295.48053,304.70081,286.68405,240.37502,173.88145,103.82476,48.968906,21.207115,19.46797,30.861948,38.94186,34.177986,20.005552,10.481383,21.040613,58.399487,116.15189,178.67838,230.3362,263.47897,280.0267,286.1893,284.96713,272.56833,241.76523,189.75372,124.30434,62.801765,23.730627,15.802749,32.12183,53.812984,61.309769,46.27977,16.612297,-8.5861797,-10.547192,18.533192,72.20089,134.95166,191.49762,233.5466,260.16998,272.98224,271.11215,250.60048,208.8515,150.30098,88.038902,38.934864,14.797119,15.51235,29.262764,40.244312,39.063847,28.953442,23.624977,38.181931,79.112679,139.84027,204.37711,256.1698,286.04443,294.35168,286.88522,268.5433,239.8797,198.9753,146.64812,90.280975,42.518333,15.013698,11.341779,24.187374,39.204475,43.41972,32.933372,15.110065,4.0779443,12.594838,45.327499,97.166595,156.63931,211.39827,252.19699,273.72888,273.41867,250.54057,207.05644,149.33997,88.478302,37.479332,6.0757403,-3.9122686,0.59137553,8.0039358,8.9994249,2.1489308,-5.1946158,-1.3282596,22.760492,67.918991,125.8967,183.01019,225.84764,245.76549,240.34639,212.21802,167.02797,112.10494,55.946064,7.4992905,-25.710875,-40.30394,-38.97731,-29.847795,-22.744436,-24.026011,-32.773342,-40.729881,-36.321442,-10.738043,37.11821,99.333069,161.7914,209.45357,231.47504,224.08966,190.63724,139.49236,81.213203,25.94165,-18.532906,-48.024975,-62.464684,-65.432526,-62.53487,-58.897861,-56.668819,-53.716866,-44.38588,-22.245533,16.23604,68.764465,126.51537,176.2375,204.52887,202.6653,170.01796,114.57498,50.218018,-8.2390079,-50.234657,-72.691238,-79.936371,-80.462914,-82.14386,-88.214767,-95.871239,-97.957565,-86.692902,-57.52327,-11.398927,45.210972,102.13409,148.13727,173.51791,172.2417,143.50154,92.438255,29.485073,-32.102474,-80.227684,-108.08992,-116.52338,-113.0951,-108.07702,-109.16982,-117.6815,-128.13208,-131.34311,-119.16477,-88.285027,-41.429676,14.008603,68.511093,112.62229,138.23888,139.55371,114.42047,66.035606,3.6896975,-58.909031,-108.04266,-135.44656,-141.83539,-136.07332,-129.95294,-131.31586,-139.49774,-145.83319,-138.90103,-111.31117,-64.035683,-6.0471101,49.928051,92.532707,114.82722,114.36115,91.677917,49.43819,-6.917542,-68.158707,-122.13376,-157.61874,-169.65071,-162.86565,-149.81212,-144.20705,-152.70844,-170.35103,-182.90858,-175.12032,-139.82805,-82.368561,-17.653624,37.819321,73.609352,87.883018,84.117554,65.515533,32.121071,-16.911938,-78.010818,-139.95175,-186.74612,-206.04753,-197.66083,-175.53459,-160.41766,-166.83977,-192.68765,-218.80502,-219.84943,-180.0657,-103.91605,-14.457734,59.734821,100.70602,109.83925,103.69173,100.2201,105.18554,108.28007,91.638969,44.641777,-25.646027,-96.150131,-140.97372,-147.40253,-123.88007,-94.392593,-82.83905,-97.676392,-126.867,-146.16483,-134.91478,-88.837486,-21.77725,43.86591,90.793381,115.17434,124.73682,129.16733,130.67046,121.90128,92.637016,39.900707,-26.384113,-86.906181,-123.68547,-130.76015,-117.47417,-102.04025,-99.661751,-113.04556,-131.28664,-137.33533,-118.69757,-74.423492,-14.5937,46.153362,95.882637,128.68509,143.07605,138.41571,113.39371,68.238159,8.5479698,-53.339832,-102.03079,-126.4381,-126.12094,-111.85867,-99.301643,-99.297424,-111.01192,-122.35263,-117.47881,-86.592781,-31.890972,33.682133,93.425667,134.70416,152.82431,149.55403,128.78236,93.407486,45.817078,-9.1504574,-62.261837,-101.83608,-119.26417,-114.51231,-97.287476,-82.124619,-79.832726,-90.539879,-102.92447,-100.44366,-70.987465,-14.315588,56.850319,122.26772,162.67563,166.76067,133.74585,71.757484,-5.8322678,-83.943275,-148.54494,-189.22389,-201.95023,-191.08836,-168.71323,-150.05171,-146.28918,-158.39304,-175.93556,-182.38095,-164.29074,-119.10452,-56.708698,6.178587,55.144314,84.810707,98.979965,104.65427,104.68849,94.732071,66.916428,17.684238,-46.144447,-108.06177,-149.71115,-161.14816,-146.78584,-122.87292,-107.84621,-111.5528,-130.00462,-148.60889,-151.32613,-129.6834,-86.260117,-31.428371,23.337523,70.520996,106.96771,130.625,137.47537,122.09782,82.014961,22.462881,-42.743942,-96.111877,-124.81751,-127.36169,-114.06287,-100.75582,-99.448402,-111.6135,-127.98727,-134.52287,-120.43258,-83.456947,-29.891527,29.467606,84.043213,125.95013,149.79852,151.71242,129.73235,85.951729,28.468063,-29.445353,-73.852303,-96.373138,-98.286072,-89.493347,-82.458305,-84.575523,-93.637527,-99.193741,-88.88269,-55.772221,-2.373836,60.59721,119.26518,161.98766,182.20135,178.20374,151.56416,106.25343,49.075027,-9.9431973,-59.097778,-88.970589,-96.931999,-89.043953,-77.293625,-73.029373,-80.252182,-92.948807,-98.344452,-84.249924,-46.083141,10.557238,72.925644,127.37637,164.72314,181.80014,179.35831,158.99709,122.06837,71.357727,13.6209,-40.05648,-77.65226,-91.935364,-84.865074,-67.302299,-53.505398,-53.340034,-66.801323,-84.118874,-91.26841,-77.470856,-40.342163,13.77771,73.601776,127.7897,168.0256,189.35861,189.13217,166.56656,123.87479,67.812317,9.5341625,-38.470493,-67.367317,-76.025917,-71.318527,-63.985706,-62.231659,-66.805679,-70.535217,-62.578785,-34.838963,13.166102,73.510674,133.1295,178.92274,201.93121,199.00555,172.20375,127.2569,72.241585,16.575863,-30.324556,-61.202972,-73.400871,-70.161995,-59.49004,-50.50082,-48.828209,-53.501934,-57.132984,-49.503342,-22.806044,24.073315,84.263603,145.05191,192.29848,215.13042,209.13737,177.17926,127.90227,72.733833,22.410587,-15.8987,-40.009953,-52.230263,-57.167366,-58.774681,-57.99268,-52.147549,-36.440628,-6.8006935,37.321026,91.564796,147.27663,193.76077,221.20145,223.27153,198.81511,152.36008,93.357727,34.082561,-13.629395,-42.053635,-50.294167,-44.596706,-35.62693,-33.57814,-43.306618,-61.949127,-80.309639,-87.298737,-75.070145,-42.253273,6.0311084,60.749081,112.20358,152.17601,174.48811,174.90082,151.61812,106.7338,47.544323,-14.000133,-64.597954,-94.657059,-102.50079,-95.06369,-84.205795,-80.362373,-86.954353,-98.654556,-104.39272,-93.287605,-60.196278,-8.1125956,53.296329,111.58344,155.51735,177.51802,174.33896,146.86107,99.836411,41.5755,-17.156525,-65.604378,-96.386894,-108.21168,-106.2233,-99.339073,-95.649536,-98.201584,-103.39545,-102.83283,-87.620422,-52.956886,-0.89973658,59.703979,115.80572,154.08279,164.86139,144.97083,98.821365,37.323635,-25.281084,-75.901192,-106.85446,-118.09924,-116.27728,-110.86871,-109.28693,-113.36593,-118.93316,-118.42237,-104.85332,-75.011887,-30.5299,22.953365,77.384377,123.64915,152.66432,156.94391,133.07913,84.334694,21.466515,-39.890728,-85.055992,-106.74558,-108.36562,-101.67971,-99.631783,-108.32516,-123.07209,-131.15427,-119.74379,-84.045517,-30.480164,27.079165,75.432487,109.09278,131.60854,150.52473,169.7618,185.00447,185.60741,161.95955,113.34167,50.762421,-7.5210295,-45.273846,-56.632111,-48.371262,-34.801281,-28.589867,-33.165161,-41.092957,-38.977097,-15.583204,31.613813,94.786995,159.19548,209.19753,233.59724,228.29536,196.12712,145.02057,85.649529,29.075306,-15.619867,-43.525551,-55.177574,-55.986286,-53.53875,-53.715347,-57.494186,-60.207733,-53.796051,-30.991964,10.629794,66.646606,126.60742,177.14001,206.0047,205.70819,175.70522,122.68554,58.809982,-1.827451,-47.611389,-73.147797,-80.633003,-77.925049,-73.969505,-73.792854,-75.755951,-72.649811,-56.029926,-21.258934,29.657589,88.907585,146.50555,194.20987,227.36876,244.12167,243.41991,224.1006,186.1642,133.31697,74.382057,21.592602,-14.096168,-28.170309,-24.85878,-14.688886,-8.3204498,-10.133903,-15.389868,-12.735985,9.2874498,55.33815,119.62243,187.1998,239.30406,260.0058,241.45866,186.13342,105.85621,18.340155,-57.80603,-108.46603,-128.35208,-122.61522,-104.53218,-89.579903,-88.192902,-100.71576,-117.39838,-123.73438,-108.37199,-69.187233,-14.124622,43.413841,91.506905,124.57221,143.38463,150.96313,147.89565,130.91814,96.003532,43.682293,-17.638943,-73.477013,-109.81352,-120.52994,-110.91289,-94.683067,-86.076599,-91.664337,-106.75919,-118.37099,-112.68578,-82.551506,-30.906017,31.087023,89.269478,131.71545,151.47632,146.59027,118.85423,72.97908,16.473801,-40.756569,-88.289482,-118.51944,-129.82372,-127.35114,-120.32208,-116.89703,-119.41371,-122.83623,-117.46659,-94.468353,-51.145313,6.8314581,67.20929,115.73293,141.09157,138.12219,108.47621,59.269741,0.77550727,-56.048573,-101.89747,-131.18506,-143.41206,-143.12296,-137.96512,-135.2215,-138.19347,-144.23395,-145.63205,-133.16426,-100.73254,-48.919701,14.17625,75.161476,119.61816,136.70395,122.44839,80.774193,22.095339,-39.963039,-92.694641,-128.00612,-144.42769,-146.65659,-142.73833,-140.01537,-141.61882,-145.10893,-143.86382,-130.4704,-100.43141,-54.493645,1.2410172,57.112133,102.56606,128.65645,129.87389,105.28651,59.037735,-0.040970612,-60.121929,-109.44696,-140.00775,-150.31778,-145.74957,-135.89742,-129.96573,-132.34315,-140.54611,-146.51561,-140.53194,-115.77472,-71.464996,-13.474322,47.423687,98.634102,129.02238,131.65074,105.5778,56.39045,-4.9162989,-64.8507,-111.53448,-138.54822,-146.70914,-142.68541,-134.91106,-128.82288,-123.96371,-114.54001,-93.080818,-55.101814,-2.2076297,57.883995,114.08267,155.70879,175.42924,170.43466,142.19995,95.759071,39.043541,-17.996151,-65.162193,-94.825493,-104.81943,-99.690102,-88.978851,-82.765007,-86.47187,-97.71917,-107.12433,-102.84187,-76.550758,-27.831194,35.153904,98.70575,148.55989,174.3701,172.07138,143.89151,96.833221,40.616276,-14.418091,-59.406601,-88.985397,-102.67239,-104.73628,-102.05666,-100.54067,-101.7392,-101.57166,-92.145477,-65.983185,-20.553795,39.261211,102.05964,153.71094,182.20227,181.4193,152.55681,103.1069,44.27702,-12.110055,-56.472153,-83.624062,-93.814232,-92.169403,-86.323174,-82.760208,-83.332542,-83.804329,-75.601372,-50.318775,-4.8538127,55.612823,118.59145,168.89157,194.51666,190.85661,161.31717,114.67202,61.158413,9.5673723,-33.692802,-64.283669,-79.868362,-81.051163,-72.496033,-62.389809,-59.086452,-65.931755,-77.401306,-79.957283,-58.697025,-7.0518384,66.038933,136.66949,175.48375,161.99451,95.988045,-0.84786606,-94.749794,-156.21991,-173.92755,-158.4243,-133.8181,-122.60155,-132.71515,-154.25165,-167.08113,-154.00755,-111.05054,-48.853283,14.732413,65.222862,98.065834,117.38716,128.86195,132.70706,122.38721,90.155174,35.267715,-31.563139,-91.511566,-127.3345,-133.28192,-118.50672,-101.3308,-97.747276,-111.42245,-131.55325,-139.82904,-121.88008,-75.88195,-13.148297,49.018997,96.994225,126.60034,141.77432,148.07159,146.41103,131.89468,98.510071,46.03101,-16.312269,-72.611229,-108.17251,-117.51681,-107.23355,-91.748848,-84.629646,-90.787987,-104.15733,-111.80045,-101.50338,-68.218521,-16.063025,44.304329,100.46877,142.21422,163.14511,160.5327,134.92361,90.405457,34.976273,-20.36195,-64.537529,-90.473778,-98.045921,-93.855812,-87.48539,-86.090576,-90.343109,-94.018097,-87.410286,-62.620293,-17.895433,40.991188,102.5829,153.54037,182.63519,183.66187,156.80174,108.4689,49.733734,-6.5650063,-49.540791,-73.683731,-80.463249,-77.039352,-72.336174,-72.246902,-76.431877,-78.465965,-69.297287,-42.169304,3.5577717,61.487701,120.29706,167.51736,193.17715,192.10881,164.72304,116.65683,57.623558,-0.57168072,-46.912174,-74.43927,-82.645622,-77.553185,-68.89267,-65.36795,-70.27475,-79.800491,-84.967262,-76.179588,-47.956017,-1.5115249,55.733574,112.91419,159.03252,185.42645,187.06963,163.20354,117.75771,59.296116,-0.32381326,-49.043087,-78.709145,-88.281769,-84.121445,-76.683556,-75.024017,-81.977654,-92.656914,-97.072021,-85.347565,-52.678715,-1.6056463,59.050499,117.41808,162.06993,184.47372,180.26447,149.89468,98.953384,37.675167,-21.159056,-66.014374,-90.795807,-97.212021,-93.561699,-90.08242,-93.167953,-101.68957,-107.5838,-100.37922,-73.032051,-25.825125,33.520058,93.005241,140.59505,167.34332,168.62338,144.17343,98.045609,38.650963,-22.061016,-71.370483,-100.25689,-107.47091,-100.37656,-91.115295,-89.568779,-97.098915,-105.15479,-100.10372,-71.672142,-19.85331,44.083702,103.11385,142.92296,157.94147,151.46561,130.62453,100.49551,61.939941,14.545266,-38.203064,-86.464684,-117.4054,-122.92237,-106.35848,-82.653748,-70.464912,-80.491661,-107.53165,-132.04709,-131.09259,-92.180313,-21.361418,59.765965,126.35583,164.13335,175.99307,177.44005,184.28688,201.01862,217.57565,216.52045,185.58603,127.12273,58.175423,1.2104994,-28.42289,-30.326355,-17.555805,-7.284049,-9.8884115,-23.191637,-34.800636,-30.260616,-1.5444537,48.990967,110.54919,169.39394,214.07388,237.82837,238.25352,216.10933,174.94916,121.59048,65.974373,19.047958,-11.081202,-22.657471,-20.974268,-15.260246,-13.21732,-16.35721,-18.963427,-11.342268,14.539716,60.232914,119.30032,179.56186,227.52287,252.68214,250.11382,221.02733,171.9119,112.91172,55.631081,10.372031,-16.774158,-25.870049,-22.832621,-16.446426,-13.768356,-16.213083,-18.556005,-11.610601,12.729989,56.750847,114.92885,175.55652,224.90694,251.79137,250.63602,222.36763,173.51573,114.32647,56.394676,9.973588,-18.745989,-29.534872,-28.027676,-22.995062,-21.757074,-25.924128,-29.973124,-23.868654,1.3662642,48.101955,109.70104,172.60335,221.62657,245.46867,239.64317,206.02385,150.38242,80.191223,4.0048914,-68.180809,-125.43807,-158.58237,-164.30368,-148.12723,-123.43633,-105.87728,-105.56527,-121.46072,-141.52892,-149.04648,-131.65981,-88.000778,-28.100178,32.349388,80.08963,109.73398,123.56693,126.62387,121.06563,104.09657,70.939644,20.613647,-39.930542,-96.820404,-135.46825,-148.35555,-139.40024,-121.79948,-110.24881,-112.01755,-122.24096,-126.39713,-108.73732,-61.970665,7.2141614,79.844658,132.6694,148.28258,122.32809,64.556641,-6.2156377,-70.322067,-114.61333,-135.93285,-139.87695,-136.22511,-133.58638,-135.6302,-140.1288,-140.66531,-129.87724,-102.7929,-59.097561,-3.7458797,54.070133,103.16722,133.1821,137.25072,113.90729,67.689842,8.1767569,-52.452175,-102.77107,-135.39543,-149.03644,-148.41949,-141.88477,-137.45663,-138.95758,-143.92294,-144.43748,-130.75806,-96.260109,-41.501858,24.540602,86.816818,129.27795,140.60364,118.21033,68.947441,6.3367724,-54.364891,-101.223,-128.89909,-139.13652,-138.63469,-135.42444,-135.24219,-139.19913,-143.45352,-140.88084,-124.11343,-88.913788,-36.714176,24.659124,82.547241,123.01653,135.33005,115.74172,69.084251,7.3529835,-54.341034,-102.93939,-131.66313,-141.56996,-139.84911,-135.68861,-135.61098,-140.36162,-144.67622,-139.92357,-118.35568,-77.06987,-20.023018,42.647461,97.619919,132.4846,139.45453,117.50404,72.391319,14.724674,-43.222851,-90.954697,-122.43143,-137.19933,-139.62292,-136.47145,-133.70309,-133.66667,-133.89203,-128.09798,-109.15456,-72.851784,-20.855183,38.554317,92.489372,127.57135,134.5611,111.63737,64.995956,6.5628161,-50.19873,-94.67868,-122.03159,-133.64378,-135.2312,-133.5388,-133.03883,-133.89142,-131.88062,-120.30993,-93.164696,-48.393097,9.9703598,71.828682,123.49513,151.96706,149.49956,116.62739,62.236641,0.46604985,-54.366657,-92.667427,-112.20532,-117.47279,-116.31963,-115.6382,-118.14192,-121.51349,-119.92722,-106.90944,-78.188171,-33.575439,22.432074,81.22345,131.65277,162.5251,165.715,139.13852,88.321228,25.400524,-34.654449,-79.363693,-103.24919,-109.25227,-106.20048,-103.55172,-106.16884,-111.87312,-112.95235,-100.59267,-69.700806,-21.639019,36.164963,92.970314,138.07574,163.28049,164.05894,139.98279,94.988853,37.380814,-21.234503,-68.724609,-96.470161,-102.9016,-94.364662,-82.217285,-77.154182,-83.56675,-97.018181,-106.32211,-99.164711,-68.269722,-14.956592,51.40799,117.23844,169.49207,199.10391,202.20424,179.71989,136.53038,80.781372,22.972849,-25.955622,-57.669773,-69.515648,-65.785332,-55.863132,-49.618172,-52.188763,-60.962376,-66.540573,-57.346138,-25.567472,28.49556,95.645073,160.64632,207.21149,223.01466,203.13564,151.24904,78.586739,1.0060979,-65.308685,-108.58515,-125.1633,-120.51321,-106.65044,-96.624352,-98.420799,-111.25993,-126.24613,-131.05736,-116.15598,-79.24427,-25.875647,33.518185,87.952126,129.00253,151.5278,152.78232,131.75627,89.948708,33.039104,-28.473917,-81.397736,-114.62525,-124.23428,-115.68307,-101.18727,-93.215897,-97.594452,-110.19936,-119.22075,-111.69217,-80.525406,-28.192389,34.581944,93.753387,137.35075,158.55325,155.73816,130.8557,88.114807,33.880558,-23.027952,-72.265114,-104.89575,-117.22561,-113.01308,-101.93668,-94.383865,-95.216698,-100.30968,-98.348473,-77.285828,-31.910248,31.879044,98.654091,150.05649,172.73102,163.37997,128.67937,80.872101,32.057625,-9.701602,-41.092751,-61.914059,-73.027435,-75.351547,-69.931053,-58.084064,-40.798443,-17.669445,13.357284,54.367226,104.33529,156.43608,198.22321,215.70816,199.84708,151.95021,84.578804,16.813841,-33.940605,-59.296131,-62.424759,-54.642597,-48.283627,-50.058521,-58.419384,-65.748726,-63.312916,-45.70108,-12.492305,32.824085,84.867142,137.44595,183.31827,213.91411,220.71352,198.6508,149.87637,85.106354,20.71619,-27.69986,-52.069775,-55.002369,-47.348854,-41.445301,-43.934227,-52.282707,-56.798676,-46.617031,-15.937008,32.948971,90.970329,146.38713,188.89275,211.7037,211.58974,188.27864,144.58752,87.227318,26.842575,-24.180386,-56.059418,-66.028404,-59.914589,-49.239059,-44.908337,-50.923031,-61.840836,-65.631287,-50.349697,-10.825377,48.273384,114.28278,171.70534,207.59279,214.69984,191.96474,143.56041,77.922539,6.9506249,-55.653103,-97.847099,-113.84571,-107.33984,-90.532013,-78.208214,-79.396919,-91.46862,-100.82455,-90.57988,-51.075771,13.230535,85.116623,143.7254,175.91702,182.62926,176.15247,170.20396,169.57805,166.55708,146.76704,100.66949,32.79018,-38.014774,-88.122261,-102.7608,-84.949036,-53.802979,-33.04118,-36.822861,-61.729065,-89.656586,-99.371124,-79.118484,-32.469868,25.57128,78.680328,118.28143,145.70139,166.82219,184.01364,191.82864,179.92561,141.21558,79.255913,9.226325,-48.81678,-80.382591,-84.048767,-71.26609,-58.709129,-58.127789,-69.959747,-84.190857,-87.176781,-69.642937,-31.027618,21.611471,78.166664,129.7729,170.22585,194.78532,198.82285,178.61734,134.35681,72.969269,7.8325257,-45.692036,-76.918678,-84.77166,-77.781334,-68.892212,-68.076256,-77.058723,-89.016426,-92.957054,-79.79686,-46.614906,2.7267425,59.902523,115.19736,159.5343,185.24811,186.70758,161.78371,113.81792,52.428471,-8.4765291,-55.482536,-81.121391,-86.868607,-81.646317,-76.402374,-77.780434,-84.502037,-88.425446,-79.424751,-51.102077,-4.2065954,53.636242,111.0172,156.53023,181.47992,181.0955,154.93323,107.15859,46.527821,-14.851142,-64.601761,-94.323792,-102.98071,-97.25766,-88.143692,-85.219437,-91.661697,-102.70687,-108.34001,-98.570534,-68.361893,-19.836454,38.777027,96.198486,141.31085,165.40512,163.49083,135.2403,85.683899,24.938269,-33.958534,-79.105522,-104.17449,-110.80568,-107.22439,-103.41251,-105.3563,-111.64835,-114.41512,-103.951,-74.27018,-26.453758,31.711163,88.955589,134.34583,159.75406,160.61247,135.96005,88.859573,27.081526,-37.284103,-90.597412,-122.55189,-130.86429,-122.68803,-111.10062,-108.0025,-117.31876,-132.61864,-140.7598,-129.45776,-94.235649,-40.703407,18.788311,71.501015,109.4432,130.41676,135.31847,124.69225,97.716713,54.492069,-0.48256755,-57.055672,-102.37178,-126.83308,-129.33601,-118.07378,-105.91225,-102.91301,-110.51817,-120.88667,-121.60889,-102.76499,-62.167591,-6.1937747,53.441898,104.40399,137.23662,146.59489,131.04153,92.856369,38.361355,-22.172255,-76.418236,-113.94001,-130.5217,-130.15662,-122.86045,-118.97771,-123.08255,-131.1424,-132.75868,-117.18069,-79.495468,-23.458145,40.280788,98.922157,142.12952,164.15715,163.34929,140.7121,99.393692,45.402218,-11.8492,-60.977913,-92.442688,-102.94045,-97.4431,-86.906799,-82.345253,-88.491394,-100.84567,-107.99239,-97.875763,-64.377708,-10.554687,52.858032,112.19607,155.83127,176.90547,173.41115,146.98308,102.04756,45.782166,-12.101886,-61.065372,-93.078377,-105.99889,-104.62703,-98.099464,-94.603745,-96.37709,-98.108437,-89.916962,-63.26722,-16.377859,43.933262,104.76699,152.2774,176.49071,173.65681,145.89265,99.424034,42.890903,-13.854861,-61.112755,-91.558319,-102.92969,-99.546364,-90.930214,-87.291389,-93.852951,-107.29128,-116.78304,-109.53222,-77.839035,-23.686142,41.732101,103.03227,147.06363,167.09093,163,138.59276,98.71595,48.388412,-6.1311851,-56.39753,-93.126205,-110.03838,-107.88102,-95.301689,-84.860123,-85.771309,-97.68763,-109.81321,-106.58707,-76.929871,-21.484465,46.73526,108.81153,149.51822,164.10149,158.26564,141.9543,121.60735,96.387741,60.868904,11.938897,-45.461006,-98.45694,-132.80002,-141.73547,-131.06067,-116.47063,-114.33305,-131.52864,-160.84985,-185.00774,-186.78656,-158.96483,-107.8904,-48.855541,3.2275822,41.483635,68.200226,89.304474,106.75425,114.77655,103.02507,64.639793,3.4535544,-65.154358,-121.09003,-150.13008,-151.55716,-137.82616,-126.30523,-128.2411,-141.8571,-153.77446,-147.60109,-114.10399,-56.721828,10.481051,70.374557,110.61673,127.13268,122.15199,99.621246,62.200706,12.114701,-45.49194,-100.46278,-139.86923,-154.23758,-143.86407,-120.38575,-101.4473,-100.9159,-120.46424,-147.96761,-164.0761,-153.14613,-111.91235,-50.773342,12.635653,63.030849,93.997025,107.75591,109.42487,100.77776,78.526817,38.447033,-18.009312,-80.174377,-131.32173,-157.30931,-155.20642,-135.79543,-117.56029,-115.42837,-131.27823,-152.40852,-159.17976,-137.1317,-85.965508,-19.818342,41.09248,81.857834,99.944229,103.69217,103.82848,104.20806,98.377144,74.479103,25.275917,-43.543381,-112.6802,-157.28648,-159.32791,-117.05453,-46.091084,28.356092,83.58596,109.06709,108.86047,96.471375,85.993172,84.895218,92.041695,100.97186,105.4603,103.60387,98.260429,94.272964,94.814262,99.348282,104.3073,105.72633,101.95259,94.719154,88.042084,85.744263,89.1409,96.225349,102.79362,104.88222,101.19655,94.172882,88.937469,90.44104,100.03294,113.24578,120.2675,109.47482,72.884262,11.155099,-64.446938,-134.6322,-178.69336,-182.55891,-144.73109,-77.246574,-0.98525184,62.693935,100.2205,110.2298,102.25311,90.61068,86.76783,94.061035,107.33572,117.35808,117.28338,107.35934,95.043327,90.318588,98.819115,116.83372,131.45998,126.43353,90.909737,26.548288,-51.173824,-118.58611,-153.84343,-146.34602,-100.81631,-34.150005,32.958263,84.928154,116.10418,129.50287,131.20415,124.50434,107.6902,76.61953,29.981756,-26.709156,-81.507622,-121.02943,-137.17267,-131.44019,-114.11157,-98.642273,-94.555412,-102.94215,-117.01508,-127.07674,-126.71109,-116.49674,-103.25417,-95.58712,-98.54007,-110.42675,-123.364,-126.88326,-112.52253,-77.223137,-24.409,37.085678,95.348564,138.14288,155.65112,142.98119,101.97269,41.498302,-24.462776,-80.900932,-116.7358,-128.56126,-121.30145,-105.24546,-90.743713,-83.101105,-80.151672,-73.642769,-53.652397,-13.842879,44.883823,113.83447,179.09479,225.99391,243.71416,228.53151,184.82109,123.68781,59.687386,6.5845833,-26.587217,-37.865211,-32.228691,-19.018013,-7.9428144,-5.3556108,-12.305758,-24.952032,-36.724461,-40.898628,-32.399681,-8.5059204,31.001104,83.479362,142.71738,198.65956,238.74883,251.40314,230.67628,179.85324,111.64688,44.130157,-6.1431918,-30.60813,-31.481766,-19.47187,-7.7007909,-5.1127305,-12.693956,-24.04323,-29.35998,-20.299078,6.7728968,50.109962,103.81944,159.57236,207.89412,239.23679,245.63707,223.26846,174.98099,111.05557,46.802284,-2.6928678,-28.444653,-31.026953,-19.601616,-6.8759346,-2.6246836,-9.1612797,-20.916445,-27.899521,-20.800409,4.987855,48.005154,101.8231,157.25163,204.38264,234.13054,239.7282,218.55276,173.80315,114.78951,54.794865,6.7590985,-21.415995,-29.508963,-24.076044,-14.53062,-8.5246315,-9.2635021,-15.979236,-26.621899,-40.42461,-58.322891,-80.988083,-106.14493,-127.48219,-136.37784,-125.65865,-93.164444,-43.0243,15.894055,73.113426,119.30466,147.50624,153.16379,134.27699,92.492516,34.534439,-27.780924,-80.36776,-112.10514,-119.93359,-110.56644,-97.114494,-91.955559,-99.72953,-114.59209,-123.45868,-113.37576,-78.696396,-24.017715,38.38065,94.477219,133.98552,152.46333,149.8905,127.99139,88.988121,36.698952,-21.543436,-74.787575,-111.62877,-125.4513,-118.46398,-101.40607,-88.322624,-89.037621,-103.65979,-122.39276,-130.75107,-117.09778,-78.27861,-20.641781,43.299099,99.948189,138.55759,152.72488,140.22125,102.74988,46.38253,-18.180552,-77.155647,-117.72615,-133.22792,-126.52814,-109.01852,-95.01693,-94.284813,-106.80951,-122.86548,-128.30093,-111.97461,-71.232567,-12.824146,50.459644,104.87272,139.70451,148.91319,131.08258,89.155563,30.576454,-32.988232,-87.767311,-122.212,-131.8903,-121.99839,-105.25338,-95.544746,-100.56104,-117.63044,-135.29951,-139.7202,-121.99799,-82.2509,-28.481417,28.214012,78.481064,116.60098,139.15779,142.83745,124.23338,82.549438,23.19026,-41.220325,-94.513756,-124.12981,-127.59926,-113.97645,-98.735229,-94.833931,-105.26902,-121.61493,-129.27856,-116.01855,-78.487106,-23.243082,37.484211,91.776375,131.79784,153.76358,155.68797,136.00014,94.866615,37.184307,-25.883194,-79.422409,-111.00682,-117.14038,-105.48922,-90.77906,-86.325958,-96.215614,-112.95211,-121.98792,-110.21503,-73.172371,-16.906887,45.861942,102.05411,142.80634,164.12453,164.70708,143.99464,102.72765,45.550774,-17.177948,-71.18515,-103.90766,-110.91366,-98.753555,-81.694481,-73.707085,-80.372879,-95.689545,-105.73845,-96.857498,-63.260193,-9.7279816,51.547451,107.17886,147.63275,168.5072,168.63847,147.89191,107.16103,50.608593,-12.33308,-68.086067,-103.87529,-114.01926,-103.39989,-85.233528,-73.835625,-76.483665,-89.309021,-99.719719,-93.781944,-64.014488,-13.114703,47.971676,105.62474,148.92348,171.9435,172.86124,152.05263,111.54426,56.285069,-4.5329399,-58.504669,-94.170135,-106.38579,-99.385155,-84.907806,-75.796013,-78.559792,-89.387939,-96.141525,-85.236404,-49.393112,8.1118984,74.728027,134.14746,172.63391,182.99823,165.15178,124.36776,69.163521,9.8356018,-42.765312,-79.224266,-94.482986,-90.358368,-75.594925,-62.35627,-60.28915,-71.235909,-87.786758,-96.83152,-86.309639,-51.418411,3.0685713,65.279617,121.59039,161.55305,180.00017,176.20575,151.92877,110.41135,56.95237,-0.17711744,-50.403503,-83.947327,-96.10714,-90.043251,-75.771606,-65.237053,-65.863518,-76.173874,-86.083267,-81.888214,-53.393028,0.43994251,69.983414,138.03561,185.85268,199.49292,174.19788,115.63219,37.934998,-40.682613,-103.5431,-140.67093,-151.71936,-145.29579,-134.58705,-130.92488,-138.22064,-151.09572,-157.80206,-146.48868,-111.50681,-56.454651,7.4094858,66.09536,108.15768,127.6015,123.63051,98.590523,56.301128,2.0132751,-56.650242,-109.65512,-146.83945,-162.03288,-156.62102,-139.81857,-124.631,-121.23339,-131.41302,-147.39204,-155.85738,-144.9442,-110.24337,-56.687397,4.1929131,59.457188,99.20594,118.26058,115.31452,91.434837,49.674858,-4.0519729,-60.361404,-107.85667,-137.00287,-144.60698,-135.95363,-122.57745,-116.25222,-122.34869,-136.46045,-146.46799,-139.02567,-106.8337,-52.671032,11.789851,71.26355,112.95683,130.28467,122.98759,94.840714,51.288631,-1.4034286,-55.733646,-102.92093,-134.67145,-146.52426,-140.73561,-126.21333,-114.51569,-113.52522,-122.34282,-130.75832,-124.22421,-91.98687,-33.95359,37.641579,102.87637,142.68761,146.84834,117.41814,66.402931,9.5268106,-40.219696,-76.092575,-97.201904,-105.58703,-103.19955,-90.593803,-67.517403,-34.271088,7.4715128,54.827568,104.26691,151.69951,191.90642,218.14888,223.16986,202.00533,155.4892,92.200279,26.897877,-24.665539,-52.32618,-55.965416,-45.124264,-33.655613,-32.181499,-42.481422,-56.863628,-62.681099,-49.236885,-13.170087,40.3447,100.54862,155.81454,197.2222,219.52168,220.19254,198.55438,156.33669,99.303162,37.978462,-14.387379,-46.634308,-54.953514,-45.224529,-30.324442,-23.284113,-29.944904,-45.426067,-56.64241,-49.533474,-16.849529,37.89875,102.26297,160.87343,201.80359,219.78654,215.32896,191.58682,151.99269,100.38508,42.877331,-11.073771,-50.552849,-67.831879,-63.036865,-45.333538,-28.953293,-25.702051,-38.171116,-57.832016,-69.408279,-59.117855,-22.038971,35.503296,99.472321,154.95435,192.02756,207.61142,203.29265,181.7811,145.10689,95.764244,39.295826,-14.608719,-54.458294,-72.035622,-67.108772,-48.404255,-29.629162,-22.50061,-30.751846,-48.536179,-63.922886,-65.133575,-45.823463,-6.8302217,45.584179,102.84298,156.15543,196.89999,216.56679,208.13957,169.41359,106.46043,34.194324,-27.893938,-63.730984,-68.319031,-50.373249,-27.754599,-17.785446,-27.833649,-51.615517,-73.293175,-76.727043,-54.225506,-9.7454662,44.735451,96.60244,138.61592,169.92609,192.29675,205.15741,203.70961,181.80124,137.53383,77.32547,15.017307,-34.01778,-60.318401,-64.699944,-56.838165,-49.031124,-49.02277,-56.077049,-62.181259,-57.055614,-33.698368,8.4442015,63.579491,121.83772,171.97726,203.595,209.05119,185.57533,137.15587,74.773575,13.607797,-32.523373,-57.015915,-63.119865,-61.212132,-61.767044,-68.129181,-73.79393,-66.3246,-35.751446,17.844057,82.60981,140.45457,176.50693,186.58882,178.13402,164.35033,155.83455,155.2655,158.30791,159.28993,156.8652,155.12897,159.30049,169.4169,177.28403,169.78381,136.99974,79.816582,11.499861,-48.450008,-84.673332,-94.034973,-86.21199,-76.414276,-74.994362,-80.677826,-81.689148,-63.861904,-20.398209,42.866798,109.68613,161.28488,184.83604,177.74524,146.20602,100.21548,48.898567,-1.2456242,-45.378708,-78.937851,-97.972542,-101.30537,-92.519379,-79.449585,-70.65107,-70.838249,-78.472,-87.413422,-91.649582,-89.67926,-85.156311,-83.027039,-83.873962,-80.926399,-62.742802,-20.695732,43.302544,114.23439,169.14081,187.75943,162.71516,103.30437,30.647718,-32.877998,-73.75032,-91.417419,-94.877777,-94.842415,-96.908012,-99.821083,-99.062889,-92.378159,-82.892136,-77.564438,-82.239494,-96.948639,-114.81703,-125.32384,-119.71957,-95.180779,-55.476204,-8.4586058,37.348957,74.784286,98.099625,102.35112,83.950096,42.910561,-14.695253,-76.567406,-127.74663,-156.82794,-161.47374,-149.69188,-135.5985,-131.73647,-142.24803,-160.77863,-174.14986,-169.44048,-140.34795,-89.590912,-26.85581,35.593502,86.742813,118.49734,125.71192,106.25939,62.165047,1.0582838,-64.062454,-118.20132,-150.13647,-157.60898,-148.50311,-136.60162,-133.84082,-143.41907,-157.87325,-163.32791,-147.39485,-106.08998,-45.986038,19.056177,74.01429,107.93234,115.88864,98.024635,57.80526,1.4025346,-61.846127,-119.7261,-159.93497,-175.06174,-166.98825,-147.2301,-131.75044,-132.41571,-149.98225,-173.1459,-184.66006,-171.04297,-130.0119,-71.242317,-10.435259,39.007271,71.163353,86.758186,88.047256,74.266609,41.812508,-10.709442,-76.749687,-140.81123,-184.53203,-196.84781,-181.49606,-156.0031,-141.61499,-149.91731,-174.72099,-194.90939,-186.99055,-139.65294,-61.103451,25.457321,95.162827,134.88976,148.21663,149.29384,150.51534,152.90173,145.90369,116.53284,61.093029,-9.074379,-72.251839,-108.5901,-111.82233,-92.629997,-71.43914,-65.426773,-78.155869,-98.2117,-107.09579,-90.744316,-47.279091,13.175389,75.180855,125.81686,158.55769,171.8951,165.58792,138.78479,91.988525,30.934601,-31.79785,-80.311646,-102.93252,-99.039612,-80.143982,-63.660713,-62.767601,-78.618217,-99.839279,-109.53482,-95.194908,-55.285851,1.097321,60.298717,111.0892,147.89754,169.07658,173.0209,156.41458,116.73976,57.175636,-10.603342,-69.241028,-103.59451,-109.02406,-94.351807,-76.863647,-71.984749,-83.991661,-103.63814,-114.10278,-101.27606,-61.794865,-4.1204205,57.140049,109.08842,145.1752,164.31259,166.62206,150.37976,113.29509,57.207775,-8.1202593,-66.389702,-101.90634,-108.39285,-93.341057,-74.162239,-67.800644,-80.152695,-102.17809,-115.40677,-103.39813,-61.799545,-0.6865111,61.888306,110.39404,139.24693,152.62463,157.72791,157.11346,146.06555,116.96677,67.262619,4.7877145,-54.024315,-92.467842,-103.09415,-92.037712,-75.088776,-67.904068,-76.538467,-94.122429,-105.40038,-95.887154,-59.881721,-2.9248705,61.780365,119.81362,160.66957,179.28989,174.71745,148.36407,103.79327,47.774338,-9.3672609,-55.88184,-82.983398,-89.061783,-80.72998,-69.411552,-65.036133,-70.428711,-79.711121,-81.626801,-65.769905,-28.154427,26.728512,87.922852,142.39989,179.31795,192.45491,180.65955,147.20074,98.840767,44.719822,-5.3738194,-43.469734,-65.8592,-74.14743,-73.927124,-71.393204,-69.604912,-66.537666,-56.151134,-31.964609,8.8081255,62.767899,120.67681,170.30432,200.32993,203.71492,179.56157,133.2361,74.964447,17.216824,-28.680485,-55.907322,-64.272575,-59.939232,-52.435757,-50.020275,-55.5588,-65.063583,-69.727341,-60.391655,-32.080624,13.655058,69.422127,124.80523,169.53883,195.64983,198.38187,176.62352,133.46811,76.619789,17.57486,-31.235365,-60.802517,-69.351944,-63.184414,-53.464832,-50.265518,-57.043423,-68.721931,-74.511597,-63.805347,-31.747786,18.482231,77.416649,133.39252,176.33461,199.50188,199.40309,175.39587,130.18307,70.883293,9.0081577,-42.145157,-72.384689,-79.365479,-70.044334,-57.252621,-52.77528,-60.745827,-75.268539,-83.732895,-73.844582,-40.232197,12.99698,74.643158,131.61497,173.55577,194.65106,192.83786,168.43594,124.0518,65.779831,3.8937316,-48.95948,-82.265266,-92.607773,-85.754578,-73.839287,-68.679329,-74.969635,-87.475967,-94.003593,-82.355408,-47.104198,7.6425118,70.563507,128.44463,170.98735,192.6824,191.87915,169.14313,126.94167,70.852814,10.518944,-41.787373,-75.419495,-86.366638,-79.673187,-67.064819,-60.56213,-65.643425,-78.083855,-86.429398,-78.575012,-48.456139,0.94777924,59.513554,114.89503,157.10696,180.39197,182.4449,162.99731,123.73506,69.71019,10.435725,-41.52512,-74.965088,-85.354767,-77.607109,-63.868454,-56.946331,-62.957958,-77.596107,-88.366837,-81.538345,-49.72348,4.1760406,68.492882,128.26418,171.11044,190.45062,185.3084,158.28844,113.98393,58.850513,1.6660665,-47.227295,-78.824448,-89.41243,-82.999489,-69.988297,-62.043179,-65.676949,-78.244652,-88.867279,-83.988716,-54.582298,-1.1519977,65.929985,130.53897,176.92885,194.87621,181.97459,143.01622,87.643112,27.564947,-26.003716,-64.620575,-84.519241,-87.59063,-80.64901,-72.681984,-70.881996,-77.219574,-87.351547,-92.565262,-83.849205,-56.063709,-10.260881,46.641693,104.20631,151.4431,179.23627,181.90483,158.21536,112.09634,52.688728,-7.0826197,-53.864384,-78.429192,-79.456299,-64.284401,-45.558376,-34.880592,-36.517948,-44.637707,-45.973351,-26.980453,18.018772,82.010368,146.58974,189.12968,192.52251,152.82317,81.106087,-1.3078842,-71.881744,-115.81139,-130.80087,-125.81316,-114.97469,-110.04213,-115.18812,-126.27104,-134.22343,-130.1658,-109.3985,-72.62178,-24.662121,27.659555,76.919212,115.37724,135.16223,129.68774,96.56398,40.548908,-25.8804,-85.935638,-125.12965,-137.86766,-130.07614,-115.77943,-109.06213,-115.87338,-130.55161,-139.27148,-128.39349,-92.630829,-38.096989,21.378366,71.946251,106.29691,125.01465,132.49049,131.01411,117.83421,87.61335,38.508274,-22.883844,-82.009933,-122.87083,-136.75441,-127.45639,-109.24776,-98.520935,-104.21593,-122.93896,-141.58379,-145.40889,-126.23207,-85.831741,-33.28883,20.867966,69.166542,107.59076,132.79855,139.72859,122.69919,79.91571,17.925039,-48.229366,-100.72118,-127.74876,-129.85457,-119.198,-111.63934,-116.3727,-129.74278,-137.34026,-123.10088,-79.561729,-12.768467,61.008915,124.16599,166.22189,186.59898,190.79018,183.63005,165.09387,131.7177,82.21537,22.524832,-34.195564,-73.414856,-87.316666,-79.614304,-63.550236,-54.027397,-58.710857,-73.594437,-85.590942,-80.271667,-49.929092,2.5484278,65.468307,123.80103,164.73697,180.72006,169.72015,134.27583,80.810425,19.293928,-37.953629,-79.332092,-98.282448,-96.526436,-83.708626,-72.765663,-73.105721,-85.398926,-101.10505,-107.09921,-92.700005,-55.087471,-0.33988696,59.836071,113.14522,150.48862,167.02141,161.23495,133.97392,88.649635,32.176804,-25.083725,-71.710014,-99.461739,-107.08607,-101.06968,-92.330673,-90.379959,-98.188675,-110.66939,-117.51698,-108.6185,-78.976044,-30.77787,27.789698,85.616959,131.77667,157.61917,157.99234,132.19211,84.735504,25.207914,-33.738117,-80.231667,-107.43494,-115.9385,-112.70262,-106.83907,-104.46106,-105.46178,-103.94508,-91.860199,-63.621792,-19.221212,35.446323,90.598259,135.47661,160.88828,161.00053,134.64879,86.231827,25.591042,-34.009125,-79.927032,-104.86283,-109.80312,-103.1442,-95.928406,-95.556976,-101.53736,-105.81017,-97.491272,-69.203354,-21.332382,37.955219,96.356613,142.11658,167.10403,167.41592,142.65558,95.653526,33.208511,-33.418957,-90.247818,-125.21815,-133.83757,-122.19759,-104.50634,-95.520554,-101.8877,-117.77097,-127.91055,-116.66057,-77.559372,-17.453674,47.355568,100.27184,132.77969,146.6998,149.39584,145.9733,134.51985,108.0464,61.709866,-0.21049289,-63.236568,-109.12981,-126.05903,-115.79515,-92.912712,-76.178955,-77.463051,-95.087952,-115.5421,-122.01168,-104.03159,-62.390202,-7.0941048,49.092495,96.580795,130.72392,149.51256,150.47772,130.31493,88.027382,28.972837,-34.134846,-85.317612,-112.77879,-115.11731,-102.04218,-88.711868,-86.975883,-98.815498,-115.79516,-124.43679,-113.83475,-80.90789,-30.809032,26.588062,81.009827,124.18298,149.86792,153.2366,131.57002,86.53141,26.133453,-36.097092,-85.612434,-113.07445,-118.6217,-111.22067,-103.10207,-102.46872,-108.84023,-113.73052,-105.98304,-78.319641,-31.290783,27.128647,85.201851,131.64256,158.19006,160.25179,136.85242,91.085266,30.867624,-31.508799,-82.364487,-111.69694,-117.78382,-108.22533,-96.059654,-92.65934,-101.40176,-115.88638,-123.73689,-113.58414,-81.016388,-30.288351,28.438114,83.784813,126.62136,150.86728,152.69321,130.34451,85.723709,26.521244,-33.793911,-79.893311,-101.2804,-97.87809,-80.415382,-64.415215,-60.863594,-69.269615,-77.730103,-70.252251,-36.82513,20.136406,86.958946,146.40849,186.61024,205.39882,207.84628,199.6586,181.90874,151.20949,105.00688,47.513351,-8.9495792,-49.143822,-63.618103,-54.922344,-36.618919,-25.155693,-29.606077,-45.898125,-59.27446,-53.338505,-19.860352,36.662815,101.9351,159.58971,198.36523,214.60831,209.87869,186.92734,147.87344,95.845993,37.905685,-14.420469,-48.925323,-59.10334,-48.721806,-30.708519,-20.109337,-25.078136,-41.591938,-55.452271,-50.503044,-18.02125,38.372528,104.85177,164.57861,205.09489,221.67094,215.75224,191.10938,151.33859,100.42802,44.961998,-5.1860385,-39.682087,-52.953098,-48.085274,-35.863773,-28.542364,-31.847336,-40.509563,-40.74374,-18.6353,30.629045,98.514999,166.5892,215.46848,233.7056,221.45929,187.55101,142.88237,95.115837,47.820122,3.434947,-33.59486,-57.047443,-62.969643,-54.384991,-42.278339,-40.76709,-58.676723,-92.891052,-128.35793,-145.55333,-131.22614,-85.833389,-23.034241,38.28442,84.158348,111.35103,125.47417,133.46788,136.30907,127.44515,98.17289,46.042767,-20.008461,-82.004471,-121.84301,-131.24789,-116.32337,-93.690804,-80.605888,-85.214226,-102.76637,-119.56218,-121.49028,-101.54987,-62.127754,-11.77639,40.162857,86.976929,124.24364,147.33467,150.14256,127.2387,78.506943,12.662666,-53.867027,-103.29804,-124.89049,-120.31178,-102.37646,-87.596283,-86.860855,-99.715805,-115.37482,-119.39861,-101.70143,-61.251156,-5.4483795,54.31097,107.40347,146.29338,166.12383,163.54208,136.95241,88.596725,26.618391,-35.487785,-83.120514,-106.82338,-106.90809,-93.284874,-80.098175,-78.0289,-88.663658,-104.08195,-111.61021,-100.67922,-67.828468,-17.531113,40.660923,96.137558,139.94707,165.47061,168.18665,146.1405,101.5539,42.26619,-19.006929,-68.489365,-96.86834,-103.44793,-96.140526,-86.82058,-84.46788,-90.040558,-96.067215,-91.108658,-66.369171,-20.66835,38.721821,99.235306,147.87337,175.0988,176.43121,152.20679,106.82811,48.283413,-12.507541,-63.579483,-95.395996,-104.69312,-96.367508,-81.570549,-72.248024,-74.745285,-86.092896,-95.323349,-89.299164,-59.854656,-8.3046379,54.976101,115.24916,159.41333,180.0538,176.0246,150.43211,108.24569,55.285271,-1.3845572,-53.130138,-91.055084,-109.08874,-107.22923,-92.581734,-76.843086,-71.036743,-80.15583,-100.63373,-122.01961,-131.87918,-121.26453,-88.081932,-37.182312,22.100172,79.152527,124.48241,150.89781,154.06956,133.21132,91.89753,38.207767,-16.740793,-61.974464,-90.398842,-101.17533,-99.254631,-92.059525,-84.980904,-78.156555,-66.399284,-42.429161,-1.7290205,53.582962,113.97834,165.36592,194.27032,192.96318,162.28255,111.04228,52.496517,-0.46880963,-39.384621,-61.994503,-71.38739,-73.180313,-72.157349,-69.828865,-63.851589,-49.422211,-21.966232,20.023615,73.164795,129.14639,176.60065,204.32623,204.80789,176.80847,126.06278,63.724705,3.0283177,-44.68108,-73.121964,-82.338554,-77.720474,-67.34938,-58.831619,-56.786804,-61.675991,-70.013725,-75.601677,-71.386696,-51.694141,-14.58659,36.215267,90.804771,134.89737,154.12985,139.63676,92.487213,24.473978,-45.831741,-100.43589,-129.30731,-134.03903,-125.80411,-118.66219,-121.83982,-135.12679,-149.66365,-153.27026,-137.00862,-99.344505,-46.12849,12.702468,67.091896,109.17026,133.38678,135.80516,114.34351,70.498482,11.23089,-51.19521,-102.64425,-132.73805,-139.63658,-130.8611,-119.16759,-115.50793,-123.03544,-135.58688,-141.38873,-129.6403,-96.119476,-44.919144,13.956542,68.984978,110.71077,133.03969,132.81285,109.36669,65.20266,7.2135592,-53.333153,-103.47018,-133.38045,-140.9142,-132.77631,-121.04543,-116.55312,-122.79549,-133.9472,-138.15825,-124.16954,-87.42424,-32.41872,29.485111,84.919098,123.07315,137.9317,128.15561,96.046463,46.960407,-10.755147,-66.442062,-109.51597,-133.2303,-137.84868,-130.84274,-123.17706,-123.24851,-131.87614,-141.47472,-140.16153,-118.52274,-75.100349,-17.478182,41.398041,89.1763,118.74471,129.25641,123.82867,106.28104,79.428864,45.764671,9.2298651,-24.135448,-47.908005,-58.51852,-57.614101,-51.385643,-46.688976,-46.157318,-45.546478,-35.421982,-6.6397414,43.402679,107.43748,170.02937,213.57423,225.50636,203.13144,153.99792,92.156532,32.547531,-13.833376,-42.325584,-54.376049,-55.56768,-52.9758,-52.569939,-57.047752,-64.515213,-68.622643,-60.647953,-33.296009,15.08827,77.91539,141.07304,187.27907,202.49809,181.59459,130.53989,64.07106,-0.11824598,-47.955723,-73.437614,-79.275406,-73.990677,-67.248093,-65.669495,-70.696686,-78.846313,-83.66761,-78.326859,-57.959351,-21.363644,28.125921,82.753586,131.66933,163.50731,169.745,147.76628,102.29935,44.313911,-12.512659,-56.482265,-81.7659,-89.781441,-87.454895,-83.200729,-82.520752,-85.267288,-85.797668,-75.87867,-48.956673,-3.8566027,53.697304,112.35072,158.62704,181.27838,174.86703,141.35797,89.289375,30.933081,-21.518148,-59.458267,-79.960213,-85.831238,-83.680565,-80.705986,-81.36898,-85.228416,-86.864555,-78.094009,-51.766682,-5.6880822,55.031868,118.43381,169.11887,193.47321,184.65543,145.23534,86.28862,23.27289,-29.566183,-63.885109,-79.141586,-81.157028,-78.309555,-77.256775,-80.048515,-83.623344,-81.53891,-66.952118,-35.634109,11.925945,69.837112,127.69684,172.95641,194.35031,185.53603,147.68196,89.749008,25.900562,-29.28483,-65.929306,-82.022011,-83.124802,-78.762703,-77.307854,-81.889503,-89.223747,-91.652634,-81.068237,-52.679554,-7.0415716,50.067795,109.2933,159.91527,192.02524,198.55797,177.1624,131.49881,71.128784,9.317296,-41.012154,-71.71936,-82.191772,-78.848778,-71.452744,-68.011116,-70.849884,-75.778214,-74.549423,-59.123104,-25.541151,24.18976,82.540611,138.50836,180.2962,198.03456,186.33644,146.35901,86.54895,21.048952,-34.549046,-68.908638,-79.532188,-73.555885,-63.767399,-61.546734,-70.478012,-84.315605,-90.603477,-77.898193,-42.348053,10.189272,67.478279,117.2673,152.53517,172.54269,179.69881,175.1777,156.94914,121.90152,70.485321,10.128053,-45.786034,-83.597176,-96.526886,-88.697884,-73.052147,-63.96064,-68.747269,-83.193657,-93.760979,-85.240631,-49.369705,10.436939,80.57798,143.61821,185.593,200.38365,189.59605,159.24486,116.1059,66.027832,14.479471,-32.259899,-67.255135,-85.121193,-85.066574,-72.445503,-57.073761,-48.537003,-50.821682,-59.419659,-62.970985,-49.061901,-11.382235,45.529854,106.65947,152.1434,165.59184,141.14056,85.882439,16.620438,-47.362888,-92.000595,-113.07829,-115.99527,-111.30242,-108.59677,-111.83221,-118.03507,-119.52345,-108.08112,-78.928169,-32.878609,23.762568,80.990143,127.62714,153.85744,153.42525,125.30484,74.469505,11.212815,-51.300522,-100.84619,-130.03537,-138.6053,-132.90776,-122.64941,-116.30637,-117.32346,-122.80893,-125.17632,-115.79328,-88.910545,-44.278862,12.339481,70.640427,118.53379,145.34337,144.69861,116.44332,66.957458,7.5387855,-48.925663,-91.988953,-116.83046,-125.19773,-123.63144,-119.78066,-118.55212,-119.87273,-118.97804,-108.88752,-83.802528,-41.985142,12.850928,71.916512,123.27649,154.88489,158.11078,130.84294,78.982315,15.271972,-44.708118,-88.14061,-109.74717,-113.27276,-108.64728,-106.09171,-110.27563,-117.7739,-119.26752,-105.17847,-71.415024,-21.918789,33.257042,82.859253,119.18466,139.94975,146.72371,141.70367,125.52529,97.72419,59.259617,14.807902,-27.411594,-58.739925,-74.338257,-75.763351,-69.908829,-64.665001,-63.82338,-64.352394,-57.797241,-35.104351,7.811986,66.792671,130.10155,182.55167,210.97188,208.5815,176.73331,123.85103,62.421894,5.261847,-37.881214,-62.614777,-70.53569,-67.942406,-62.855896,-61.290768,-64.281494,-67.126411,-61.459103,-39.407913,2.0268579,58.49139,118.95051,169.26334,197.05296,195.77132,166.41089,116.51816,57.319016,0.31818056,-45.445862,-74.935173,-87.47998,-86.297302,-77.39917,-67.952705,-64.150528,-68.934036,-80.319191,-91.274002,-91.785202,-72.882675,-31.286812,27.411135,88.957336,134.69032,148.5601,123.97057,67.118889,-5.1328411,-72.212036,-118.41949,-138.92415,-140.17722,-134.7052,-133.28545,-138.88057,-145.55948,-142.64543,-121.31528,-79.665779,-23.5394,36.770058,91.324043,133.7126,161.07004,171.92415,164.4079,136.82831,90.415527,31.94385,-26.494099,-71.514374,-94.452728,-95.747368,-84.669037,-74.106346,-73.244522,-82.403145,-93.0401,-92.787605,-72.415421,-30.704659,25.181942,83.347527,132.12926,163.51125,173.79916,162.49107,131.23491,83.993164,27.854246,-27.168688,-70.534584,-95.191231,-100.95512,-94.802414,-87.257652,-86.540482,-93.749825,-101.96529,-99.906158,-78.128113,-34.340916,24.899599,86.679192,136.70309,164.11018,164.15086,138.33354,92.943237,37.109196,-19.005497,-66.017265,-97.351982,-111.12296,-110.86143,-104.15928,-99.248718,-100.87024,-107.53734,-111.84329,-103.92131,-76.447899,-28.713047,32.224213,93.741829,142.03003,166.58749,163.07196,133.78691,86.195847,30.439489,-23.227922,-66.565834,-94.851402,-107.62644,-108.4595,-103.52285,-99.12368,-98.882477,-101.69847,-101.62019,-90.103271,-60.075993,-10.213371,52.610294,114.219,157.54633,169.0354,144.30724,90.383423,23.151114,-39.007717,-82.531677,-103.46545,-107.46656,-105.26402,-106.16743,-113.13683,-121.84527,-123.77747,-111.18244,-80.970406,-35.744095,17.815788,71.479462,117.17953,147.48433,155.85181,137.97351,94.340752,32.454079,-33.633739,-87.585732,-117.48274,-121.41998,-108.41067,-93.455559,-89.199501,-98.913208,-114.93851,-123.44796,-112.4994,-78.476753,-27.33989,29.326805,80.190643,117.95879,139.23828,141.94936,123.62998,82.922089,23.396385,-43.81749,-102.04841,-136.07861,-140.40227,-123.174,-102.32742,-95.290314,-108.272,-131.9684,-146.80278,-134.76227,-90.515472,-24.828985,41.773148,90.871506,115.854,123.4442,126.64424,134.36302,144.95187,147.87354,131.99228,94.481979,44.123165,-3.2051041,-33.655621,-42.970558,-37.572971,-28.819214,-24.576847,-23.804157,-17.490904,5.0147686,48.60347,108.50424,171.83452,223.09201,250.12157,247.62053,217.39146,166.51546,105.10266,44.377235,-5.2374454,-36.508419,-47.800552,-44.038723,-34.848228,-29.990501,-34.162148,-44.12891,-50.13023,-41.020771,-10.326096,40.149937,100.9538,159.04533,202.66858,224.47076,222.00444,196.63249,152.52202,96.509552,38.102501,-11.814886,-44.156776,-55.478928,-50.035034,-38.094048,-30.7367,-33.761761,-44.246513,-51.932789,-44.759956,-15.401922,34.79966,96.357803,155.76138,200.51459,222.52835,218.97597,191.51048,145.31717,88.619537,31.962574,-13.819122,-41.058277,-48.605904,-42.716579,-34.060452,-31.827686,-38.094582,-45.978222,-43.10384,-18.694979,29.737411,94.001442,158.45016,206.81503,228.6785,222.23706,192.61102,147.6978,94.623726,38.711113,-15.40171,-62.499775,-97.24131,-116.4565,-121.57402,-118.94411,-117.1068,-122.21844,-134.31749,-146.79846,-149.55444,-134.03888,-97.45266,-43.994904,16.998802,74.499344,118.82731,143.19649,144.01941,120.96825,77.413712,20.834515,-37.907597,-87.172592,-118.48371,-129.95064,-127.0476,-119.77584,-117.25948,-122.47831,-130.06235,-128.61469,-106.65494,-59.294968,7.7493811,78.965317,134.50101,157.87497,142.49323,94.109726,28.24728,-36.147072,-83.935143,-108.79151,-114.02864,-109.28847,-104.99461,-107.29885,-115.73103,-124.23052,-124.55887,-110.15182,-78.670372,-32.56427,21.901247,76.190239,120.95022,147.39009,148.97282,123.48276,74.742767,12.729544,-48.799938,-96.793037,-123.69357,-130.14629,-124.04238,-116.20956,-114.89355,-121.83571,-131.81874,-135.61769,-124.563,-94.387085,-46.834194,11.0636,69.092949,116.27859,143.1028,143.53824,116.84196,68.523636,9.5535164,-46.669029,-88.841705,-111.82961,-118.11153,-115.62037,-112.98368,-114.71646,-118.96684,-118.89292,-106.63799,-77.537819,-32.4244,22.657661,78.467476,124.90622,152.86066,155.72197,131.0889,82.497101,19.98628,-41.923016,-89.076401,-113.52985,-117.14546,-110.29483,-105.68427,-110.50224,-121.59296,-126.89293,-112.59916,-71.839355,-9.500226,59.781399,119.10142,157.41937,173.2849,172.28241,160.67017,140.18637,107.88246,60.945271,2.5885177,-55.928814,-99.464928,-117.15279,-109.21879,-87.612663,-69.507919,-67.431839,-82.078766,-102.18177,-111.32258,-97.282013,-58.274258,-2.8317513,55.633923,105.4369,140.22096,158.19116,158.96642,141.4883,105.0407,52.458691,-7.5822792,-61.973228,-98.398369,-111.47491,-105.76971,-93.339211,-86.867119,-92.331886,-105.51704,-114.35523,-105.63789,-72.235542,-17.024931,48.093018,106.95733,144.95801,153.36041,131.03018,83.865463,22.813221,-38.896996,-89.018387,-119.6316,-129.58125,-124.70927,-115.17464,-110.59262,-115.17154,-125.40545,-131.71835,-123.32778,-93.796982,-44.419476,16.090042,75.028099,120.17566,143.14961,140.65414,114.08438,68.586906,12.250841,-44.822044,-92.278984,-122.30936,-132.53102,-127.25902,-115.83391,-108.23057,-109.92497,-118.76395,-125.71513,-119.30347,-91.502731,-42.081116,20.680681,82.997177,130.59038,153.31401,147.66194,116.77311,68.655655,13.687349,-37.872604,-78.058258,-102.85577,-112.91686,-112.78129,-108.45518,-104.07664,-99.228531,-88.546005,-64.302406,-21.042187,40.020145,109.31437,171.22079,209.6237,214.23505,184.73024,130.78275,68.074982,12.232937,-26.55612,-46.051418,-50.918674,-49.104816,-47.547504,-49.09816,-51.698933,-49.761345,-36.872517,-8.6683254,35.08942,89.767189,146.55486,194.40285,222.76981,224.547,198.35371,149.38763,88.303841,28.216255,-19.31151,-47.850418,-57.803276,-55.419445,-49.454121,-46.886337,-49.596928,-53.515919,-50.623363,-32.875896,3.7221096,56.679188,117.17678,172.63799,210.58199,222.31532,205.29979,163.65359,106.84663,47.051579,-4.1611991,-38.948772,-55.21978,-56.764633,-51.202007,-46.30513,-46.137608,-48.794392,-47.034733,-31.795776,2.9114351,56.07621,118.75522,176.73288,215.60245,225.93736,206.30016,163.03928,107.40912,51.614933,5.4460902,-25.595201,-40.675385,-42.988819,-38.437954,-33.664593,-33.494434,-38.408802,-43.312218,-38.897449,-15.886148,29.315742,90.419724,151.33487,191.48172,194.42155,155.67076,85.492432,4.8409171,-63.740631,-105.67182,-119.47609,-115.12498,-106.97408,-105.50443,-112.35202,-120.80457,-120.64672,-104.00665,-68.929199,-19.415218,36.96376,91.667908,136.52667,164.02167,167.88405,144.99915,98.018723,36.647877,-24.334261,-70.389969,-93.48407,-95.657745,-87.408516,-81.368515,-84.774887,-95.17971,-101.99464,-92.910355,-61.264717,-9.9880219,49.92638,104.98723,145.05371,166.03313,168.56087,154.6674,125.56546,82.354446,28.754139,-26.963139,-73.339775,-100.45957,-105.32207,-94.139793,-79.467918,-73.360062,-80.461906,-95.21183,-104.87651,-96.601288,-64.321754,-11.727209,49.881626,106.90648,148.51123,168.89496,166.6282,142.9024,100.7568,45.810406,-12.874791,-63.800247,-96.64846,-106.99154,-99.084854,-84.326698,-75.477989,-79.565155,-93.582779,-105.71969,-101.63316,-72.295876,-19.051811,46.734695,108.83659,152.91969,171.24303,163.44464,134.17805,90.012733,37.710201,-15.775673,-62.93858,-96.66198,-112.77819,-112.68255,-103.61169,-95.304031,-94.237434,-98.790253,-98.813606,-80.803146,-36.369507,30.768557,103.74857,158.83311,176.10443,148.95786,87.227745,12.271606,-53.204105,-95.008705,-111.95487,-113.24834,-111.12941,-113.44149,-120.16299,-125.02541,-120.2116,-100.75834,-66.297661,-20.116398,32.65942,