Bandpass,0,0.49933,-538.87146,4594.78418,6763.00049,5583.29395,2228.57813,-1057.30615,-2359.84961,-1309.60095,801.727783,2070.07251,1397.19861,-758.487,-2807.48242,-3262.56787,-1840.51416,368.212769,1745.30981,1343.70056,-451.957214,-2263.2019,-2765.11548,-1648.67126,199.923813,1399.30627,1103.12134,-405.827118,-1971.92651,-2449.42261,-1539.96924,24.3414402,1058.04724,806.18866,-522.338623,-1945.30969,-2451.43384,-1732.68958,-373.096069,618.153442,559.146667,-427.401062,-1546.13391,-1945.05933,-1343.24988,-211.321777,606.635132,528.00592,-352.240265,-1358.84436,-1753.38879,-1275.23193,-310.403503,418.198578,391.839661,-336.874329,-1210.52539,-1598.48083,-1261.28625,-506.55838,63.9713135,12.8114147,-614.759399,-1340.25378,-1618.77832,-1241.92236,-480.379089,128.028244,176.624878,-322.825623,-968.000977,-1275.31921,-1033.70813,-443.956055,47.8238297,87.4707413,-332.556152,-883.004761,-1153.31848,-955.835388,-454.874664,-34.0831032,-9.53613758,-403.398132,-939.384399,-1253.12,-1155.23328,-754.790527,-361.467346,-249.328796,-461.114166,-793.010315,-961.06543,-817.71759,-456.876984,-135.534409,-77.8283615,-310.728149,-650.68042,-844.756897,-756.680115,-460.201813,-176.135071,-106.238251,-289.698242,-585.228455,-784.926331,-769.432495,-588.357605,-410.792908,-389.297485,-542.800964,-745.286682,-825.023682,-696.672913,-426.674591,-184.817856,-120.406219,-255.814026,-474.63858,-610.021118,-565.549255,-380.025513,-191.751541,-132.884354,-233.977585,-407.860321,-520.976624,-495.827118,-367.521637,-254.069839,-264.950958,-417.180237,-620.607544,-741.84314,-698.734863,-516.658691,-307.664551,-190.240219,-209.102539,-311.606201,-394.098206,-380.852936,-276.975616,-158.724289,-112.004845,-166.879669,-276.452179,-353.833008,-337.861328,-238.445587,-129.090714,-93.632225,-166.855347,-311.332611,-445.04953,-497.704651,-454.734253,-359.560638,-276.239136,-242.556274,-247.913727,-249.517075,-211.286057,-134.304779,-56.1087914,-20.9395657,-44.9468956,-103.121124,-147.352768,-141.342148,-86.017067,-17.1359062,21.9517879,11.2186098,-34.3319702,-79.6666412,-98.6123734,-93.8893967,-93.0786209,-124.117523,-189.586548,-259.912933,-291.334259,-255.920212,-161.946854,-49.9041748,33.0188026,61.9697647,47.0972404,22.2349243,19.1153736,46.1137733,85.9617844,112.252052,110.957245,90.4331512,72.9453964,75.0688095,92.6074142,102.028152,77.823494,13.1872511,-71.2735519,-137.596237,-152.795563,-108.461784,-24.7467461,63.2081108,126.600876,157.824615,170.111542,184.162857,212.407761,251.860428,289.258575,313.067566,322.628418,327.851532,340.51123,364.442993,392.320923,411.322968,413.187805,401.003937,387.663971,387.084106,404.409027,431.92804,453.265198,452.808868,424.263641,373.455505,314.718628,264.107666,233.7332,229.56218,252.072647,297.604614,358.964508,425.715912,485.656433,528.193542,548.38446,549.113708,539.56543,530.491577,529.010864,536.020935,547.417969,557.627869,562.541016,559.888611,547.585205,522.509399,481.910553,427.217285,367.394714,318.399658,297.528259,315.115356,368.466034,442.098022,514.654541,568.646729,597.419434,605.634705,603.828552,601.222412,601.529907,603.759827,606.165588,609.386902,615.948914,626.617065,636.976685,637.734863,619.464233,578.926941,522.511353,464.018402,417.91571,392.408478,386.856628,394.984436,411.19104,435.08075,470.71463,521.065674,581.868896,639.790039,677.009033,679.884033,646.424316,587.882751,523.450134,471.26651,440.950317,431.455383,434.480927,440.441864,443.163239,441.171631,436.109741,430.403381,425.953979,424.046661,425.438049,429.768829,434.704803,436.18515,430.689941,418.671509,406.65976,405.65799,425.671875,469.187134,527.891968,585.492676,625.709778,640.901855,635.875671,624.196899,619.091614,624.65918,633.07373,629.632324,602.405823,550.286316,484.382843,422.172638,378.499359,359.25415,361.303223,377.687164,403.580017,438.43399,483.050018,534.472229,583.468933,617.498535,627.783936,615.588013,592.703125,574.838562,571.575134,579.377686,582.676208,563.031616,511.111877,434.130951,353.991974,297.000305,281.087738,307.807098,363.217377,426.328918,479.549622,515.101624,534.647583,543.936218,547.089294,544.530334,535.277405,520.88739,507.185791,501.746826,508.477264,523.138367,533.424316,524.416504,486.715363,422.644989,346.849579,280.743164,243.647812,245.074936,281.674316,339.706329,401.177826,450.480682,478.864227,485.643311,476.588135,460.713593,446.703217,439.924652,440.803894,445.161682,446.641632,440.439148,426.558807,410.566223,400.803131,403.047424,415.502167,427.440796,423.191925,390.109894,326.497742,244.887192,168.245712,120.486382,115.929939,153.10907,216.01709,281.893707,331.254974,355.042542,355.814789,343.444855,328.621277,318.001556,313.098541,312.290039,313.544922,315.588715,316.942291,314.182098,301.504578,272.757233,225.230164,163.001556,97.5373611,44.6246452,18.7282734,27.2940006,67.6164703,127.670807,190.505463,240.302383,267.651154,272.043579,260.785492,244.944687,234.12587,232.3638,236.997467,241.065643,238.011017,226.130371,210.095306,198.304123,197.22757,205.963165,214.569656,207.925262,173.680984,110.185158,29.7649384,-45.011795,-90.6622086,-93.0831223,-53.5664215,12.3839865,82.44561,136.932358,165.542007,168.696793,154.052567,131.125229,107.177895,85.7994461,67.4941635,50.6365852,31.8092213,5.9804945,-32.2313042,-85.6451569,-151.086273,-217.836182,-269.950348,-292.268066,-277.383759,-229.715378,-164.106613,-99.4654846,-50.854847,-24.2727585,-16.5591774,-19.6467628,-25.9149818,-31.2855263,-34.83535,-36.4241982,-35.1213036,-30.1693039,-23.7211781,-22.6257248,-36.7478333,-73.7074509,-132.839935,-202.440674,-262.847687,-294.4552,-286.574524,-242.305389,-176.800873,-110.089561,-58.549408,-29.4376068,-20.5965767,-24.2612247,-31.9175606,-37.4633751,-37.8954353,-32.6899452,-23.5132828,-14.7548151,-13.792942,-29.395155,-67.8180389,-128.209991,-200.213577,-266.012787,-306.663483,-309.876007,-275.294067,-214.533005,-146.074631,-87.7798691,-50.6999855,-36.6758461,-39.9157982,-50.8777695,-60.3324509,-62.2886925,-55.5413589,-44.05439,-36.1213493,-41.9313354,-69.560318,-120.53801,-187.175797,-253.694168,-301.501984,-316.565308,-295.255188,-245.57341,-183.130814,-124.186668,-79.5700226,-52.4109955,-39.9928017,-37.5225906,-40.9257278,-47.207016,-53.2434578,-55.1942902,-49.999485,-38.2871628,-26.2293663,-24.0731564,-41.3251572,-81.2877045,-138.691086,-202.489441,-262.450684,-315.364349,-366.646301,-426.068207,-500.347229,-587.562683,-677.170654,-755.520813,-812.986938,-847.849548,-864.683289,-869.294312,-864.997803,-853.998901,-843.383423,-850.787476,-903.686096,-1029.74878,-1241.89355,-1526.39063,-1842.10938,-2133.36646,-2351.02393,-2471.35645,-2503.08472,-2479.46704,-2440.49512,-2415.15527,-2412.60083,-2425.00562,-2437.92603,-2440.4856,-2429.39941,-2406.04834,-2370.69531,-2319.27515,-2245.47778,-2146.39258,-2027.12292,-1900.49268,-1781.55359,-1680.38049,-1597.86975,-1527.17053,-1459.51379,-1390.35364,-1321.7937,-1260.07141,-1210.31909,-1172.50659,-1141.3269,-1109.81116,-1073.84338,-1034.31396,-995.567139,-961.551086,-932.651245,-905.507568,-875.796082,-841.754272,-805.74646,-772.688721,-746.507568,-727.241943,-710.903687,-692.182617,-668.034485,-639.601501,-611.167603,-587.003052,-568.420044,-553.118042,-537.161743,-518.016846,-496.356598,-475.341919,-457.992584,-444.690033,-432.731659,-418.304199,-399.415192,-377.574677,-356.912018,-341.294434,-331.506653,-324.553101,-315.63855,-301.453461,-282.43634,-262.405243,-245.830917,-234.707779,-227.248734,-219.293411,-207.352356,-191.044785,-173.172104,-157.441879,-145.604019,-136.185089,-125.783775,-111.924995,-95.2405396,-79.2045593,-67.5015335,-60.9742699,-56.5519142,-49.1713142,-35.4414482,-16.3471947,3.18255734,17.7703743,25.7014866,30.5064144,38.5288734,53.9568291,74.939827,94.0385513,103.371498,101.309753,95.9425507,102.182228,133.465271,192.890991,269.594208,343.260773,394.626526,415.802246,414.054443,406.569946,409.343811,427.067566,450.303894,461.648499,446.932709,404.431213,346.447113,292.559113,258.997314,250.751602,260.873444,276.608826,287.762573,291.767731,292.707153,295.914185,302.697784,309.274292,310.625,306.209259,302.945526,312.684357,345.274567,401.56546,471.057465,536.112427,580.508972,597.36908,591.870972,577.386047,567.637329,569.674744,581.630127,596.035522,606.06189,610.477356,614.250427,624.645081,645.47345,673.200073,697.360107,705.15564,687.722473,644.717041,584.887146,522.437317,471.076996,438.616913,424.516876,421.24884,418.544678,408.369232,388.29364,361.845551,335.927246,316.802551,306.785095,303.301392,300.682831,293.554291,279.855591,261.823761,244.51178,232.869858,229.189163,232.347244,239.07077,246.167236,252.20282,257.67807,263.911957,271.722778,280.976624,291.225739,302.685913,316.492737,333.799316,354.345612,375.758636,394.452545,407.790527,416.048889,422.616089,431.987823,446.748352,465.645844,484.287964,498.182251,506.071655,511.103027,518.755737,532.765503,551.875916,569.891418,579.315491,576.297974,563.529602,548.9823,541.216614,544.401367,556.451477,571.511108,584.885193,596.69812,611.426514,633.500122,662.23938,690.228333,707.016418,706.222351,691.303406,675.575989,675.522827,700.85321,747.256165,796.571838,824.879089,814.361877,762.642944,684.768616,607.115356,556.591858,550.339844,590.065063,662.351624,743.737122,808.194946,834.863831,814.419312,752.620422,669.509949,593.391296,550.643433,555.003784,601.414551,668.25592,727.757141,759.608704,760.353271,743.026611,727.098816,724.792419,732.418091,732.529785,705.941162,646.174072,566.95636,497.427612,467.327515,490.821991,558.637939,643.146973,713.154968,749.450684,752.177612,736.621582,721.292236,716.495056,720.347534,723.578613,718.458923,704.879883,689.289124,677.764832,668.947937,652.732971,616.474426,554.929993,477.113007,404.823425,362.863037,366.35437,412.617462,482.398346,549.636597,593.991516,609.07373,602.349121,587.881836,577.111389,573.341248,572.56781,568.928162,560.272156,549.798035,542.801453,541.139465,539.6474,527.463745,493.953186,435.82254,361.060455,287.074371,233.719711,214.812439,232.491165,277.113647,332.31012,382.197357,416.99823,434.67688,438.696564,434.096649,424.577637,412.06839,398.248596,386.082031,379.504791,380.921906,388.061188,392.680786,382.873169,348.582642,287.732544,209.475433,132.24881,76.996315,58.6133842,79.7899399,130.263123,191.678909,245.411697,279.404419,291.017731,285.321503,270.689178,254.549988,241.321762,232.66449,228.647995,228.22403,228.524368,223.988556,206.944931,170.457748,112.520088,39.2440453,-35.3036079,-93.363472,-120.252228,-110.436363,-69.8531189,-13.3104143,41.6685181,81.4614868,100.363876,100.591347,89.0680923,73.2634354,58.330349,46.5206795,38.2598228,33.3784561,31.2960911,30.094408,25.5448971,11.4505987,-18.1183681,-65.4954758,-126.874702,-192.434494,-249.766235,-289.347809,-309.32724,-316.79126,-324.262939,-342.735229,-374.740784,-411.439056,-435.929596,-431.697876,-392.002563,-324.983978,-251.176453,-194.157913,-169.085022,-175.440674,-198.281738,-217.553513,-220.272186,-208.46373,-198.023361,-208.967422,-252.780045,-324.481842,-404.356964,-468.474152,-501.746948,-505.649933,-495.938202,-491.851654,-503.531067,-525.445679,-539.861633,-528.132019,-482.7854,-412.994171,-340.189453,-286.644928,-263.985474,-268.318207,-284.390198,-295.701111,-294.245331,-284.340271,-278.995361,-291.754608,-329.146973,-387.748779,-456.560303,-522.283142,-574.058105,-605.529602,-614.420837,-601.325928,-569.242126,-523.945313,-474.037231,-429.465118,-398.546722,-384.976288,-386.701416,-397.523254,-410.498779,-421.044098,-427.947968,-432.0914,-434.340851,-434.56839,-432.67926,-430.714691,-433.967255,-449.542908,-482.662384,-532.871277,-592.787048,-650.573425,-694.91687,-719.557495,-724.679199,-714.581665,-693.600342,-663.395447,-623.628052,-575.401855,-524.556396,-481.674774,-457.84198,-458.348969,-478.47998,-504.714935,-521.441956,-519.618103,-502.204895,-482.855621,-478.353271,-499.170197,-543.735718,-599.696106,-651.081055,-686.658264,-704.238892,-708.601685,-705.103821,-693.953613,-669.564819,-625.713562,-562.887512,-492.256744,-432.589691,-401.097565,-403.55957,-430.159424,-460.314301,-474.24115,-464.586304,-441.064911,-425.10376,-437.51004,-486.427765,-562.625793,-644.638916,-710.327087,-747.774353,-759.306335,-757.052856,-753.789001,-755.34845,-759.215393,-759.317261,-752.768372,-743.224854,-738.234924,-742.514648,-752.240906,-755.014465,-736.351807,-688.980286,-618.956909,-544.29541,-486.380798,-459.02124,-461.613708,-480.497345,-497.654816,-501.534729,-493.587341,-486.769501,-497.088409,-533.286743,-590.705017,-652.785461,-699.261841,-716.401917,-703.732239,-673.803711,-645.381104,-633.809814,-643.508972,-666.148254,-685.012268,-683.026672,-650.389709,-588.331116,-507.716888,-423.798218,-350.060211,-294.107574,-257.025452,-235.602844,-225.41246,-222.733215,-224.568192,-227.618439,-227.896866,-222.095612,-210.229294,-197.609146,-194.035187,-209.576401,-248.627777,-305.558716,-364.94278,-407.032959,-416.100067,-387.392944,-329.044312,-258.008575,-192.40007,-144.403015,-117.180779,-106.532707,-105.248978,-107.010223,-107.804436,-105.16069,-97.191658,-83.2322388,-65.9863892,-53.1069183,-55.7611504,-83.5360413,-137.891083,-208.202484,-273.688599,-311.321136,-306.092133,-258.180847,-182.974121,-103.821617,-41.4763947,-5.87650681,5.72916174,4.20131063,0.994499564,2.39769173,8.41753483,15.8306017,22.3153515,28.3475647,35.6344643,43.6591339,47.4207382,38.6806526,10.5531979,-37.1766472,-95.4189911,-147.854416,-177.069611,-171.78363,-131.575409,-66.8670273,5.63457394,69.6693115,115.150162,140.506683,151.100159,155.04245,158.791565,164.705536,171.490494,176.826111,180.221725,184.025528,191.642426,203.890121,215.975311,217.728287,198.09697,152.184723,86.9111633,21.2841206,-20.2122078,-18.6238575,29.6632938,109.998589,195.717484,260.704407,291.556183,292.607788,281.151398,275.982056,286.358307,308.01236,328.208374,335.983276,330.430695,321.371155,322.009918,338.703949,365.013336,384.390259,380.034424,345.550751,289.403046,230.21051,185.956909,164.115005,158.934769,157.276001,148.742981,133.258865,121.242661,126.658707,157.837296,212.045105,276.843903,336.605377,379.482635,400.618225,400.696167,382.403564,348.376007,302.197998,250.836502,205.209045,176.889038,172.282349,188.281204,213.111252,232.719162,238.948349,234.024811,228.073654,231.185059,245.577042,263.631287,273.592621,269.177887,256.187561,250.87735,270.405487,321.351837,394.076233,467.11731,519.20282,541.242188,540.524841,534.450745,538.064392,553.73584,569.777039,568.69574,539.344421,484.801514,420.959076,367.208893,335.816925,327.04837,332.688416,344.576965,361.423492,388.802368,432.540497,490.808014,551.381287,596.906311,615.113037,607.032532,587.184387,574.934692,582.22998,605.583252,627.643188,627.579651,593.879456,531.665527,460.194244,402.353943,372.747284,371.370178,385.983093,400.791626,405.558716,399.770172,390.233368,384.768585,386.666748,393.325928,399.193024,400.249969,396.670746,392.045532,390.207672,392.272156,396.030975,397.907349,395.788391,390.568634,385.365265,383.147095,384.619476,387.88681,390.019897,389.266998,386.267883,383.45108,383.150269,385.856506,389.842926,392.3573,391.473907,387.303192,381.794525,377.380096,375.460083,375.726471,376.650757,376.648529,375.057007,372.32132,369.419464,367.071411,365.331146,363.777222,362.036835,360.166046,358.588867,357.688446,357.423584,357.305389,356.761475,355.595825,354.16745,353.120453,352.84256,353.044525,352.78656,350.976898,347.042603,341.348602,335.093658,329.734863,326.27417,324.808319,324.570221,324.395844,323.319427,320.960114,317.52124,313.468201,309.132935,304.510071,299.360901,293.52951,287.230591,281.087372,275.86499,272.057129,269.596619,267.890533,266.166534,263.897766,261.011688,257.740387,254.241547,250.312363,245.471741,239.40477,232.441772,225.638672,220.261368,216.926651,214.993149,212.734848,208.338303,201.147308,192.289276,184.13327,178.805191,176.708298,176.114151,174.233093,169.133224,161.183212,152.906815,147.206635,145.136002,144.871811,142.815765,136.232437,125.569572,114.594131,107.897591,107.299194,109.797157,109.010498,99.7657089,83.052536,67.7518616,67.1581802,91.5941315,141.290863,204.172119,260.621887,293.119965,295.378662,275.507874,251.049072,238.559158,243.798431,258.332092,264.551788,246.089081,197.432693,127.208588,53.5405083,-5.36038351,-39.6856804,-50.9848289,-48.7546387,-43.7158279,-42.3411942,-45.58815,-51.453167,-58.3615761,-66.3137894,-75.0063095,-80.970459,-76.9077225,-54.9016495,-12.0886841,45.0405502,101.335152,139.364532,148.337219,130.288757,99.4472351,74.6208344,68.7236099,81.4514236,99.3796005,103.421204,79.3238525,25.2720013,-47.4179039,-120.39254,-177.269547,-210.484985,-222.727448,-223.153976,-221.412552,-223.12709,-228.891571,-236.322708,-243.0289,-248.371078,-253.266724,-258.829468,-265.259338,-271.844849,-277.843048,-283.295319,-289.01767,-295.810944,-303.642303,-311.560211,-318.450195,-323.986267,-328.933929,-334.48764,-341.1521,-348.115662,-353.723602,-356.781677,-357.695587,-358.483429,-361.513763,-367.820251,-376.246979,-384.132599,-389.113739,-390.761749,-390.839569,-391.96402,-395.658539,-401.268188,-406.581726,-409.703369,-410.71817,-411.791107,-415.513,-422.699615,-431.38858,-437.977936,-439.838226,-437.497131,-434.635132,-435.653137,-442.428345,-452.669128,-461.301117,-464.137207,-461.230133,-457.213257,-457.864532,-464.877716,-472.477722,-468.756165,-441.710297,-386.740936,-310.984924,-231.403107,-167.210281,-130.75148,-122.048538,-130.162231,-140.495346,-143.668274,-140.783737,-142.188004,-160.749207,-203.771439,-268.149811,-341.162262,-405.941833,-448.285614,-461.298096,-446.199707,-410.003571,-362.14563,-311.90683,-267.165405,-233.841461,-215.211166,-211.021255,-217.194336,-227.009949,-233.773117,-233.783325,-227.877411,-220.485031,-216.656265,-218.864822,-225.586533,-232.504852,-235.458084,-233.108978,-227.569504,-222.674774,-221.242538,-223.326202,-226.705017,-229.202255,-231.059891,-235.502686,-246.880844,-267.520447,-295.415131,-324.441772,-347.160706,-358.557617,-358.452087,-351.153046,-342.701141,-337.517059,-336.507355,-337.573914,-337.832275,-335.808838,-332.120728,-328.402374,-325.566467,-322.91095,-318.818848,-312.447266,-304.914368,-298.78476,-295.976807,-295.610077,-293.688812,-285.449982,-269.298218,-249.798187,-237.309937,-243.676956,-275.880249,-331.171906,-396.76712,-454.794891,-490.224274,-497.661835,-483.403503,-461.661621,-447.03241,-447.200592,-459.561981,-473.168182,-474.561981,-454.280975,-410.902893,-351.178589,-286.879028,-230.299988,-190.405182,-170.713272,-169.029434,-178.611908,-190.367203,-195.772827,-190.016327,-174.355927,-156.4384,-147.787857,-158.961044,-194.326477,-249.091797,-310.434601,-362.586945,-393.554718,-400.10733,-388.482513,-370.523743,-357.428436,-354.501801,-359.602509,-365.784943,-366.295471,-358.910309,-347.187531,-338.092072,-337.488159,-346.067413,-357.929504,-362.592529,-349.516113,-313.078735,-255.77832,-188.167755,-125.344803,-81.2191162,-62.8226929,-67.1778336,-82.4453354,-93.3272095,-88.6135559,-67.3426514,-40.234745,-25.1071663,-38.070015,-84.8188019,-156.712555,-234.059357,-295.170349,-326.452484,-328.085114,-312.271271,-295.314514,-288.332428,-292.069794,-298.594666,-298.297821,-287.329315,-270.481415,-257.637634,-256.225708,-264.822845,-272.390533,-263.990601,-229.612808,-170.667496,-100.091156,-35.9577713,7.57018757,26.6549225,28.1156597,24.0707397,24.6020031,32.9212494,45.4682312,56.0427284,60.7081947,60.2086792,58.7443466,60.5299492,66.8460083,75.5719757,83.1930771,87.5287247,89.1328506,90.5182953,94.0358124,100.12986,107.22229,113.121613,116.710732,118.579704,120.221756,122.588509,125.264908,126.945236,126.777405,125.410713,124.820709,126.990189,132.474655,139.997391,147.40036,153.184708,157.406296,161.249588,165.742584,170.837997,175.776688,180.446411,186.335327,195.691788,208.859741,221.551178,224.591003,207.526474,164.905899,101.688332,33.955719,-16.5671158,-31.9479313,-6.46076107,50.8183441,120.7966,183.758026,227.919769,252.475433,264.147858,270.43335,274.522095,275.157837,270.733917,263.613251,260.457947,267.504974,283.991638,299.125458,296.228699,262.859985,201.025757,130.43335,81.3180618,79.7183685,133.195129,225.428802,323.346741,393.193176,416.704163,398.509369,361.075317,330.694733,322.865875,335.138,350.613403,349.02655,318.470795,261.4039,192.641586,131.756104,94.7633896,89.1802368,113.625587,160.418747,218.757675,277.094574,324.903748,354.674408,364.198822,357.950073,345.924805,339.465546,345.63147,363.129608,382.387329,390.085815,375.785919,336.978851,279.905029,216.14032,157.453247,112.112595,84.3267899,76.0071716,88.4462814,121.941849,173.490067,234.751038,292.848236,334.759064,353.275177,350.828125,338.290619,328.888458,330.651398,342.104736,354.093445,356.733368,346.998108,331.747009,323.73349,332.700195,357.167877,382.602325,388.036896,358.019043,293.130402,212.620834,146.903976,123.401672,153.156769,225.410522,313.06192,386.007172,425.174713,429.932953,415.457489,402.271912,404.320435,422.301392,445.543365,460.554077,460.552124,449.980591,441.282318,446.071747,466.356293,491.534668,503.473328,487.050171,440.082306,376.623993,321.26947,297.242828,314.701019,365.675903,428.393433,478.480072,500.814178,495.658783,476.195374,459.539612,456.815094,467.919952,483.407745,491.528076,485.64389,467.553101,445.258636,427.345367,418.004486,415.824829,416.581482,417.471741,419.459442,426.020294,439.376038,457.238922,472.790588,478.311371,470.188385,451.865295,432.49231,421.809998,424.291626,436.114685,446.797394,444.493225,421.84021,379.184937,323.823578,266.289856,216.115097,179.16658,157.168289,148.565964,149.528366,154.603149,157.517639,152.839951,138.422607,117.405983,98.1399689,91.2775116,105.046776,141.094925,193.219467,249.679688,297.660126,327.32373,333.524414,315.157318,273.820679,213.632767,142.52655,73.3664856,22.4903183,4.6578002,26.1297741,79.7567062,145.716492,198.671814,218.258163,197.515503,144.801712,78.4628525,17.7209358,-24.834877,-45.3434639,-45.4625549,-27.4866028,7.89342833,59.4267921,120.840843,178.455597,214.150284,213.128571,172.083466,102.340538,25.3193207,-37.5069427,-74.3105011,-86.5031204,-84.3589706,-77.9584274,-69.7175064,-53.5376854,-21.0124798,29.743433,88.9279175,137.448807,155.788071,134.001556,76.8216019,1.03834546,-72.812973,-129.171524,-161.675034,-171.485428,-162.351456,-136.799484,-96.2700348,-44.4477196,9.79245472,53.3599663,74.450882,69.474205,46.5446625,22.3236828,13.1176558,25.0883942,49.5287018,66.5312347,55.5411835,7.16219234,-70.317543,-153.380524,-213.545822,-230.186798,-199.531281,-135.741913,-64.1073914,-10.0749474,10.6773825,-2.949615,-39.1015091,-79.5071335,-107.699913,-115.559303,-105.911339,-90.6155319,-85.2001953,-102.243507,-146.053314,-210.661652,-281.845947,-342.263367,-377.523712,-380.734131,-353.897552,-306.079559,-249.648209,-196.407928,-154.952393,-129.551163,-120.124962,-122.810867,-131.088882,-137.789856,-137.991714,-131.90773,-126.107124,-131.629059,-159.009369,-212.224716,-284.768341,-360.465942,-419.290405,-445.599304,-434.665741,-394.156616,-339.976318,-288.965485,-252.454529,-233.733994,-229.85022,-235.566742,-246.511749,-259.828217,-272.931915,-282.488159,-285.326233,-281.079559,-274.434235,-274.586029,-291.242615,-329.105347,-384.283112,-445.260315,-498.221741,-533.610474,-549.833374,-551.852905,-545.854614,-533.906738,-512.558044,-476.524506,-424.865845,-364.988922,-311.01355,-276.834595,-268.080688,-278.385132,-292.937744,-297.628571,-288.268555,-273.973297,-272.233398,-298.345367,-355.455841,-431.188599,-502.860016,-548.18335,-555.304443,-526.804016,-476.220154,-420.056366,-370.376617,-331.865021,-303.794281,-284.198517,-272.696838,-270.154999,-276.152435,-286.944366,-296.091675,-297.728729,-290.293274,-278.065582,-269.358643,-272.498199,-292.119507,-327.82843,-375.401306,-428.940887,-482.109619,-527.879089,-557.994568,-564.011719,-540.600586,-489.622742,-422.010681,-355.116547,-305.865906,-283.056946,-283.337524,-293.65036,-299.147644,-292.104828,-276.548065,-265.805267,-274.493225,-309.812286,-367.286865,-433.152771,-491.429077,-531.055176,-548.951172,-547.961853,-532.113525,-503.084686,-460.395599,-404.73584,-341.372528,-280.490356,-233.600891,-208.111816,-203.605011,-212.313843,-223.500122,-228.925293,-226.123962,-217.960526,-209.581528,-205.418121,-208.28743,-220.499466,-244.974243,-284.289032,-337.460815,-396.673248,-447.110138,-471.530914,-458.052704,-406.931671,-332.006989,-255.255051,-196.995193,-167.039185,-161.646149,-167.699692,-171.246948,-165.128784,-151.370667,-137.564545,-130.271713,-130.072876,-131.406235,-126.937347,-113.244774,-93.9712448,-78.5033112,-77.2229767,-96.3778381,-135.446121,-187.922256,-244.264709,-294.84024,-331.473663,-347.794739,-339.587372,-305.999451,-251.158081,-184.660278,-119.612602,-68.391098,-38.0269623,-27.7487831,-30.134758,-35.2017632,-35.0340309,-26.4344082,-10.6170568,8.99201965,28.7249184,44.9650841,53.1301651,47.1764297,21.3160114,-26.1409264,-89.0455475,-152.781647,-198.351624,-209.889587,-181.847244,-121.806923,-47.1582756,22.6373863,73.9814224,103.172691,115.023399,117.840179,118.392883,119.783386,122.562866,126.999535,133.852036,142.684906,149.303879,145.234955,121.109245,72.9209366,7.43093395,-57.4125137,-98.6539383,-98.6837387,-54.3440018,20.5121365,100.910988,162.268311,191.459915,191.62001,178.382233,170.009491,177.027588,196.869766,215.951462,217.483124,190.541809,135.795349,65.4970703,-1.5771699,-47.3936501,-60.8385925,-40.6356316,5.44573879,64.1198883,121.228767,165.903061,193.079941,203.826126,203.625198,199.472229,197.045593,199.105026,205.550079,214.603806,223.981674,231.132324,232.601395,223.587326,198.973297,156.181091,98.5966415,37.2168541,-11.4474659,-31.2177181,-13.3982782,38.5494347,109.713829,179.922394,232.372955,260.168396,267.388,264.54718,261.5625,262.600769,265.649902,266.362579,262.887207,257.913055,256.326782,260.196869,264.9617,260.144867,234.947876,185.632263,120.031662,55.9633827,13.9005537,7.75471687,38.784584,95.7904053,161.085098,218.581955,259.574158,283.684235,295.598175,300.509583,301.330566,298.898376,294.073822,289.43335,288.872528,295.23349,307.657227,320.642303,325.681732,314.731232,283.754089,234.73967,175.574081,118.14624,75.4815216,58.553421,73.2205734,117.903831,182.994461,252.968246,311.255402,346.32489,356.175323,348.629669,336.81131,331.981873,337.752258,349.12912,356.987762,355.072968,344.844421,334.753143,334.200684,346.122314,363.313995,371.35675,356.681152,314.836578,253.766159,190.077026,140.790848,115.812126,115.513039,134.078583,165.299179,206.150024,255.654861,310.505493,361.680054,395.720764,400.766754,373.529114,322.154083,262.458954,209.64563,170.948883,144.192444,123.084229,105.168831,96.2804947,107.748955,147.925705,214.015884,290.438416,355.625641,393.268311,400.714661,389.000885,374.663391,369.077698,372.58017,376.980194,373.91925,362.385529,349.610077,344.851837,351.236511,362.487061,367.641296,360.405487,345.598267,336.708588,345.191711,369.029877,389.881958,382.828979,333.505829,250.830399,164.878098,108.734848,94.6232376,100.300056,76.9765472,-23.0217266,-213.949951,-459.526947,-683.25946,-802.652771,-769.308594,-592.862793,-335.723358,-82.1706238,100.523582,188.036026,200.034805,179.425644,164.613739,171.26973,191.820435,208.899185,211.192047,200.849899,189.256149,186.485931,193.392532,202.060822,203.402451,195.296082,184.647125,181.694504,190.909683,205.470917,209.762878,188.638733,137.438263,66.2464066,-4.23781395,-52.4574623,-65.407959,-42.6441269,6.20710135,67.5046158,128.941132,181.677902,219.861984,239.961456,241.645752,229.548355,213.430099,204.777496,210.565994,227.764908,242.779205,237.530441,199.661621,131.217224,50.3671837,-15.5503521,-42.3937912,-20.5047169,40.9998817,118.911224,186.695999,225.538925,230.374893,208.932175,175.64978,144.479187,124.131317,117.084778,121.338058,132.863785,147.268906,160.441788,168.878235,170.331253,164.708069,154.495178,144.042068,137.753036,138.043686,144.199066,152.787704,159.390488,160.676483,155.758301,146.262039,135.274109,125.831642,119.68824,116.803986,115.623856,113.920326,109.829277,102.669456,93.183815,83.0312119,73.6959152,65.364502,56.4845314,44.4665413,27.3435097,5.50586128,-17.6353912,-36.7592697,-47.2122803,-47.7595482,-41.8878059,-36.6727905,-39.5227432,-54.338871,-79.0729904,-106.015038,-124.783089,-126.640045,-108.155563,-72.6110229,-28.6553249,13.0560083,43.7256012,59.2100792,60.751667,53.5561905,43.9906197,36.686039,32.8180847,30.2779522,25.5406723,16.173912,2.56944704,-12.1150179,-23.7831974,-29.8797894,-30.93927,-30.1580753,-31.2198067,-35.808548,-42.5322914,-48.0652008,-49.7602463,-47.8614006,-45.617218,-47.0489197,-53.8856354,-63.9546852,-72.4269028,-75.272316,-72.5095596,-68.7053757,-69.9764023,-79.3285217,-93.6902542,-105.194778,-106.457283,-96.6006775,-83.7496796,-81.596817,-101.424973,-144.215729,-197.925995,-242.179581,-258.171478,-238.341812,-190.420013,-133.749649,-90.2275314,-74.9582748,-91.2471695,-131.468002,-181.903839,-228.114532,-258.402252,-265.269867,-246.328384,-205.674652,-154.920029,-111.687523,-94.1409302,-112.872559,-164.309952,-230.26265,-285.31662,-308.971863,-295.875549,-257.943085,-216.782181,-190.903229,-185.701248,-192.569504,-197.553497,-193.49678,-187.052567,-195.182999,-232.889404,-300.211517,-377.663086,-434.213196,-443.814667,-400.604645,-323.241425,-245.342148,-197.554886,-191.940201,-217.746094,-250.429504,-267.605164,-261.732208,-242.087006,-225.88942,-225.396286,-239.848862,-257.243195,-263.899841,-254.587479,-235.975296,-221.233917,-220.023132,-231.377731,-244.867493,-249.380783,-243.198227,-237.712387,-251.257431,-296.357605,-368.655914,-445.37085,-495.401611,-495.747803,-444.561768,-362.80658,-283.233582,-233.044968,-220.394501,-232.470261,-245.824219,-242.283997,-220.658203,-197.310944,-195.596191,-230.798828,-299.655884,-380.502289,-443.691864,-466.147614,-441.998901,-384.042847,-316.176636,-261.668915,-233.607788,-231.740906,-245.931076,-263.118195,-273.676514,-274.416016,-267.867279,-259.336426,-253.699966,-253.264694,-257.08313,-261.552948,-262.012146,-254.993118,-240.510605,-223.364105,-212.419006,-217.554596,-245.231537,-294.686279,-356.812073,-416.60556,-458.255829,-470.592896,-450.534546,-403.350159,-340.198792,-274.447998,-218.251755,-180.068985,-163.090317,-164.491196,-175.930542,-185.993561,-184.658829,-168.431061,-143.513107,-124.513283,-128.162521,-164.476883,-229.905411,-306.642151,-369.263428,-395.765533,-377.380219,-322.031708,-249.791168,-183.124084,-137.386292,-116.351532,-114.129692,-121.001381,-128.924896,-133.702499,-133.842682,-128.637543,-118.061913,-104.856583,-96.4888458,-103.900642,-135.987991,-192.327835,-259.104523,-312.309448,-328.14505,-295.617432,-223.943024,-139.590073,-73.609314,-45.9103088,-55.4620781,-82.3007355,-100.365318,-93.6704102,-66.1986771,-39.5591583,-39.744751,-80.8221893,-155.17775,-236.008347,-290.551117,-296.448364,-252.189087,-176.382507,-97.1549835,-38.2409897,-9.4036808,-5.47100544,-12.9155865,-18.9247532,-17.4577408,-9.65241718,0.113706902,8.79406643,16.5912552,25.5002193,36.4050522,47.5183449,55.5717735,58.7333107,58.6436195,59.4662666,64.1235809,70.3016281,69.5271454,50.9323845,8.18789005,-54.4503288,-121.142235,-170.040298,-183.042221,-154.539093,-94.1762695,-21.9022732,41.9701691,86.0093918,110.961128,125.481316,137.392471,146.392715,143.288666,116.663536,62.9407806,-6.8300581,-68.6375198,-95.8622971,-73.0695877,-5.34342861,82.7356796,158.655487,198.110168,196.805679,171.217041,147.774673,146.631989,169.398163,198.043213,205.765549,173.645599,103.447044,19.0079155,-44.8797531,-60.0858879,-19.5386162,59.4867439,144.822037,206.150986,229.700897,222.961472,207.345673,203.546814,218.326096,240.401855,247.721802,221.791962,160.657364,82.8357086,19.5757008,-0.610451937,33.2401466,108.553772,195.478394,262.084076,290.233856,283.420868,262.324677,250.770889,260.325317,282.687958,294.66684,273.143341,211.295944,126.126915,52.0401535,23.3431416,55.3978195,135.483871,229.161148,298.871704,324.073334,310.986267,286.112976,277.567261,295.912292,326.737488,340.005371,310.561096,236.806229,145.248428,77.2871246,65.8663101,116.333611,203.509308,286.880585,334.350464,339.535278,321.85318,309.935852,319.867889,343.146423,352.700531,323.059113,250.953888,161.935822,97.6483002,91.3233948,147.23494,237.648056,319.530273,360.330414,356.139893,330.61554,315.86673,328.549774,357.566467,371.862213,343.123688,267.90683,173.845688,105.107277,96.1466064,150.76416,240.101898,320.77655,361.152374,358.615082,337.000092,326.741486,341.795532,369.26886,378.795746,345.14325,268.454956,178.038208,116.589836,114.819191,172.847748,260.33725,335.078796,367.911285,358.08194,329.790039,313.072662,322.181519,345.749878,354.917358,323.722351,248.248337,152.074875,74.5187454,48.9893417,84.6707001,162.263092,245.667053,302.01239,318.075165,304.083496,283.88385,278.343414,292.168365,311.563263,313.466248,280.526215,213.097214,131.506516,67.2810974,47.87006,82.7551422,158.155029,243.243423,304.983185,324.151794,304.216492,268.136932,244.477036,250.23317,280.118896,308.951904,306.513367,256.721893,169.74202,79.1218109,24.6716042,30.5844746,91.742691,176.704987,245.879364,273.936646,262.6922,236.57338,223.876938,236.247818,260.071686,265.738007,228.883942,149.536835,56.0557251,-9.51070499,-15.8561459,38.7824707,125.492241,201.993683,237.370407,228.589691,198.747482,178.961121,186.331375,212.55632,230.373367,213.098816,154.04335,72.9647751,5.44984818,-17.7671642,11.6455927,75.8821793,142.579803,183.653046,189.49527,170.62883,147.463943,136.126358,139.743118,149.803497,154.9944,150.27562,139.726074,131.789505,131.089706,133.148636,125.946671,97.3273773,43.3190575,-27.9516697,-99.0160294,-150.589111,-169.47197,-152.92511,-108.227989,-48.8404541,10.3277397,56.7309265,82.6565094,86.6429977,73.8178329,54.4686699,40.2810707,38.9495697,49.518116,61.3989029,58.6439667,28.1570625,-32.1605797,-109.982307,-182.365387,-225.443649,-225.244385,-184.015335,-118.739029,-52.7123489,-4.797019,17.9113655,20.3261528,12.972167,3.21156263,-10.2929173,-36.2049179,-82.7749557,-148.434113,-217.04982,-262.076508,-258.841217,-198.971802,-98.6136932,5.55614376,72.1825638,75.5769501,19.6086597,-63.2977448,-128.681656,-143.735077,-105.028244,-39.8595123,10.0097246,13.0174942,-33.7051201,-103.190216,-155.600662,-162.868195,-125.658142,-72.0255127,-38.7138443,-47.1832199,-89.9105377,-135.876511,-151.623215,-123.989944,-69.4371719,-23.6607456,-18.2475948,-59.7781754,-125.234657,-176.79245,-186.218018,-152.75528,-102.80159,-71.8662796,-81.058815,-123.78701,-171.23584,-192.452484,-175.156021,-133.239334,-96.288765,-88.7839432,-113.507507,-150.474442,-171.779648,-161.740952,-128.204407,-97.1584549,-94.4678268,-127.441231,-179.030685,-218.716034,-222.693298,-189.677307,-141.721786,-109.678467,-113.22171,-148.765625,-192.96698,-218.890045,-213.604355,-185.5177,-157.133469,-148.891754,-165.457718,-193.58847,-212.40329,-208.406372,-184.738251,-158.560532,-148.863098,-163.423126,-193.839508,-221.677719,-231.075211,-219.009033,-196.445496,-180.105331,-180.915451,-197.101654,-216.278671,-224.561508,-216.116211,-196.685852,-179.102966,-174.316681,-184.233673,-201.033127,-212.960342,-212.298676,-200.09465,-184.791077,-176.153793,-178.837814,-189.78299,-200.762085,-203.983887,-196.944077,-183.635178,-171.815704,-168.45137,-176.170166,-192.478439,-211.590714,-227.360199,-235.666092,-235.414963,-228.266342,-217.626724,-207.37352,-200.542709,-198.235962,-199.192108,-200.481293,-199.28746,-194.975327,-190.136536,-189.669479,-198.076859,-216.432465,-240.908325,-263.977417,-277.78894,-277.849335,-264.95285,-244.455856,-223.663086,-209.1129,-205.224915,-214.417999,-237.539825,-273.32254,-316.762848,-357.896179,-383.018066,-379.25177,-340.982178,-274.687012,-198.683792,-136.708664,-107.825066,-117.718231,-156.180359,-202.41011,-235.399933,-243.776825,-229.83049,-205.933105,-186.029434,-177.594421,-178.789963,-181.985046,-180.678879,-174.831696,-170.919785,-176.767685,-194.851929,-218.909576,-236.535583,-236.446762,-215.858826,-183.134827,-153.747986,-141.819962,-152.328949,-178.688736,-207.044815,-224.471756,-225.960968,-216.067108,-204.630081,-199.746643,-202.705505,-208.010406,-208.06633,-199.016434,-183.622543,-169.288025,-162.746887,-165.222656,-171.463501,-173.32431,-165.407898,-148.876923,-130.834045,-119.717621,-119.852333,-128.794952,-139.132553,-143.349884,-138.387299,-126.915016,-114.760132,-106.609848,-103.148865,-101.54213,-98.5819244,-93.8501358,-90.3047943,-91.7518997,-99.1400681,-108.66954,-113.489853,-108.117371,-92.5585098,-73.0927429,-58.8656349,-56.3721466,-65.4652176,-79.5803452,-90.0067673,-91.2949142,-84.1639557,-74.106369,-66.9367218,-64.6256866,-64.3980103,-61.5519867,-53.6645126,-42.8393707,-34.2142105,-31.8620224,-35.3245544,-39.6167221,-38.9152069,-31.1979294,-20.1704502,-12.700429,-13.4410343,-20.7114277,-27.1121216,-24.9395046,-12.6709223,2.53004217,8.87203407,-1.58295393,-25.8319283,-49.7781639,-56.1476784,-35.8777695,4.62592316,45.8406792,66.3897781,56.3458366,23.857708,-9.59880829,-22.616375,-7.31186962,25.9840488,55.8976669,64.2453842,47.8099747,19.8670597,0.677668154,3.64191604,26.6184673,54.1442299,68.6445847,62.5748482,43.0566711,26.1172485,25.0534458,41.4237137,64.9394684,81.8521729,85.2600327,79.595314,76.1756287,83.5558624,100.350906,116.204903,120.213692,110.18055,95.2418137,89.3738937,100.44812,123.290901,142.573212,143.980301,125.529976,100.215279,87.274971,97.9824295,126.489067,153.110077,158.44487,138.333847,108.302086,93.2972412,109.344467,150.328033,190.236588,200.450638,170.470932,117.164154,75.0064011,73.1387024,114.87397,174.324219,213.256348,207.035248,161.707489,110.049164,88.9775314,113.923447,168.126694,214.467453,221.565201,185.733734,133.288895,101.674347,112.961929,158.661667,206.550995,224.30748,202.627243,161.038147,132.399948,137.812134,170.759125,202.499588,204.832611,173.131393,131.848572,117.396515,150.291306,217.188156,277.113892,288.922302,241.094574,162.232376,103.513115,104.210472,164.037003,242.162704,284.551697,261.296326,188.061432,116.240089,97.9741135,149.86293,240.522705,310.987854,314.343994,247.598541,153.964005,93.9331818,104.841225,176.369553,258.400604,295.498566,264.321564,188.67334,122.483002,112.848213,168.427032,254.233261,315.606659,314.547607,253.94371,174.175156,125.503899,135.457214,192.725281,257.064148,287.109589,266.850739,213.757309,164.78746,151.188828,179.335968,229.340851,270.483215,281.679688,263.215179,233.239227,213.278275,213.718231,228.836197,243.359756,244.541168,230.796158,211.467209,199.037979,200.149536,211.785995,224.632797,230.383804,227.419388,221.06337,218.82254,224.441147,235.006271,242.842575,240.576752,225.891602,203.094269,180.915115,168.181351,169.853897,185.213028,208.567535,231.729324,247.08905,250.257523,241.520309,225.621918,209.817062,200.784088,201.686386,210.832932,222.733917,231.050323,231.819427,225.151764,214.564728,204.590408,198.26947,195.986786,196.001587,195.894211,193.787643,188.788818,180.938858,171.284195,162.172211,157.127548,159.546249,170.352859,186.079163,199.307251,202.270813,192.057892,173.993668,160.071136,162.147736,183.403641,213.664124,232.669479,220.708832,170.955597,95.8702698,22.8775558,-19.1556396,-15.2148457,27.8227062,85.3764954,129.19278,142.748978,128.720901,104.223541,87.3039322,83.7095871,82.7135391,64.8702774,16.7764645,-56.810463,-131.752197,-175.810349,-166.230896,-103.327576,-11.8427725,71.1028442,114.89814,110.642799,74.2608032,35.9904633,22.3590927,40.8518639,75.8371048,97.9284363,81.4509964,20.1809959,-67.5132217,-147.139496,-185.628387,-168.363297,-106.344139,-29.6142006,29.2169933,51.9448242,42.6136665,22.0050583,12.4607229,22.5190563,40.9496613,44.0084686,11.5068445,-58.3498077,-144.866211,-214.500626,-238.732162,-209.456451,-142.697876,-68.6659698,-14.6063299,8.88061905,9.99507904,5.99304438,8.82777882,16.121067,13.4219513,-14.1199656,-68.9278641,-135.994492,-189.366577,-206.126328,-179.035995,-120.102417,-53.3940964,-2.24774623,20.9981747,17.1650372,-5.31416893,-38.2077255,-77.4452667,-120.953712,-163.371155,-193.305435,-196.877289,-166.201233,-107.047928,-39.5661507,9.86015606,21.5967655,-7.02080679,-60.4887505,-113.742195,-145.3629,-147.604172,-127.845764,-101.689621,-82.9035492,-76.6465454,-79.4076462,-84.2596741,-86.7893372,-87.4348526,-89.2699432,-93.8474655,-98.91008,-99.9164886,-94.0411606,-83.220108,-73.5241089,-71.0559845,-77.416214,-88.3006821,-96.5481644,-97.5547562,-93.0304718,-90.0790024,-95.9566803,-112.144127,-132.149628,-145.015732,-142.489441,-125.032524,-102.37059,-87.8388748,-90.0280075,-107.208832,-128.336121,-140.118683,-135.609039,-118.696991,-101.552116,-96.6709137,-108.70768,-131.400772,-151.564102,-157.547791,-146.716568,-127.200722,-112.859123,-114.683975,-134.015701,-161.680054,-183.418564,-188.170563,-174.2276,-149.795731,-127.980492,-119.425179,-126.913689,-144.74675,-162.73381,-172.09169,-169.808334,-159.333252,-147.770599,-141.634262,-143.662445,-152.173126,-162.781616,-171.065811,-174.574707,-173.34346,-169.131714,-164.257187,-160.80101,-160.379028,-164.09877,-172.247253,-183.664032,-195.327484,-202.843582,-202.093765,-191.433029,-173.187988,-153.282913,-138.782028,-134.434616,-140.1362,-150.922501,-159.722412,-161.405792,-155.731674,-147.348221,-142.754868,-146.080505,-156.356537,-168.082245,-174.762253,-173.126999,-165.237854,-157.044815,-154.336899,-158.80983,-166.934937,-172.416672,-170.560852,-161.538788,-150.287994,-143.141663,-143.574219,-150.065369,-157.544601,-161.284927,-160.331955,-157.909302,-158.508209,-163.891998,-171.146637,-174.435455,-169.320755,-156.444092,-141.656372,-132.230713,-131.786697,-137.709854,-143.185181,-142.543655,-135.959381,-129.719406,-131.420181,-143.373413,-159.299942,-167.475235,-158.933899,-135.284546,-110.196266,-102.423294,-124.0214,-171.227905,-224.465286,-258.393768,-256.359589,-220.357391,-170.089111,-131.451904,-121.494659,-139.133972,-167.205688,-184.167816,-177.715897,-151.659164,-122.095894,-106.011765,-110.15081,-127.392113,-142.51445,-142.935196,-126.974091,-104.300697,-88.7675552,-88.9165573,-102.661133,-119.409729,-127.661049,-122.555519,-108.315582,-94.3772964,-88.419899,-91.3604736,-97.5897064,-99.785881,-94.4731216,-84.2708054,-75.4698181,-73.0552216,-77.0170593,-82.6091461,-84.1514435,-79.3619614,-70.946022,-64.3517532,-63.5130348,-67.8571167,-72.8154144,-73.3827515,-67.9727554,-59.6260262,-53.6571159,-53.5312157,-58.1097946,-62.3895149,-61.238369,-53.3623428,-42.5095139,-34.9257278,-34.847393,-41.3125839,-48.6708755,-50.5082664,-44.2072678,-32.8617554,-23.1501694,-20.692728,-26.2596474,-35.6007805,-43.0301361,-46.1106491,-47.8761368,-54.7245255,-71.2562027,-95.7082977,-119.480461,-131.590515,-125.472061,-103.718018,-77.4675903,-60.499527,-61.5299377,-79.4389877,-104.356552,-123.862572,-130.402924,-125.362274,-117.447685,-116.620064,-127.474106,-146.098083,-162.112854,-164.396713,-146.961929,-111.695862,-66.8375854,-22.6045837,13.2540674,37.6807785,51.7410622,58.4111366,60.5016441,59.8675194,57.8296852,55.8709106,55.704174,58.5625534,64.3414154,71.4175339,77.4624329,80.7914886,81.35392,80.6948166,80.9270401,83.4146118,88.0238724,93.3657608,97.7705307,100.290848,101.099915,101.135353,101.357246,102.180946,103.421722,104.666458,105.696869,106.624519,107.686874,108.941673,110.156799,110.996346,111.332809,111.397614,111.616882,112.250961,113.141342,113.806198,113.854927,113.419952,113.24958,114.328346,117.238708,121.694611,126.594582,130.602341,132.899521,133.623718,133.704086,134.20459,135.610886,137.530472,138.996094,139.161194,137.923111,136.067291,134.845566,135.264465,137.529037,140.967316,144.446182,146.995209,148.262085,148.567642,148.593658,148.942276,149.837021,151.100296,152.354095,153.276535,153.760513,153.922852,154.015259,154.322296,155.095261,156.513123,158.638535,161.362885,164.377518,167.222687,169.430161,170.711533,171.100174,170.964645,170.872803,171.361496,172.713165,174.834503,177.283585,179.431,180.692825,180.752716,179.694321,177.991318,176.346634,175.429703,175.611847,176.814545,178.54686,180.121292,180.948257,180.76889,179.724762,178.258224,176.927307,176.244568,176.595398,178.20665,181.09201,184.94165,189.022659,192.228027,193.376511,191.714737,187.394501,181.624969,176.315338,173.292877,173.453598,176.297668,180.136307,182.902206,183.155457,180.753922,176.838165,173.160217,171.14566,171.206589,172.652527,174.190887,174.682892,173.713684,171.687973,169.464798,167.803955,166.968613,166.691772,166.473175,165.979691,165.282455,164.785355,164.897308,165.65802,166.560287,166.706696,165.254059,161.926666,157.313309,152.742401,149.734894,149.268829,151.231277,154.383316,156.918762,157.36908,155.379166,151.907608,148.705338,147.34549,148.36084,151.000229,153.744003,155.241501,155.061661,153.773865,152.335526,151.249039,150.123642,147.993195,144.182709,139.073547,134.13295,131.069702,130.632706,131.905457,132.68924,130.842758,125.742577,118.858231,112.968399,110.452133,111.757294,115.085495,117.544861,117.023109,113.520195,109.029465,106.052383,105.78801,107.275894,108.104294,106.180046,101.285606,95.2841492,90.7989731,89.3056107,90.0279922,90.4754257,88.2736359,82.9783554,76.5284729,71.9485779,71.1810379,73.5972672,76.2983932,76.0559387,71.5551147,64.3511124,57.8348961,54.9140778,56.0366898,58.9514008,60.3616219,58.2777061,53.3763618,48.4035873,46.0829239,47.0810471,49.5385895,50.5204124,48.3109169,43.8244858,40.0141716,39.6229858,42.8833389,46.9093857,47.4037514,41.6704292,30.9115887,20.1059589,15.2429962,19.3853836,29.884161,38.5630379,35.1324806,12.3736219,-29.3654423,-80.6537399,-125.553825,-147.710587,-137.783173,-99.110405,-48.6588974,-11.786932,-11.9348049,-59.1453133,-142.893707,-233.77626,-294.90799,-298.812622,-241.798401,-147.857986,-58.7506866,-14.1695366,-31.8447227,-98.3557968,-176.200546,-223.815445,-217.761276,-164.732529,-96.655571,-51.8308907,-53.1362495,-95.8736038,-151.926041,-187.115112,-180.987579,-137.334167,-79.9067764,-37.0052986,-25.0332623,-40.9337502,-67.1246719,-84.4983749,-84.455574,-72.4828644,-62.0029526,-63.7127113,-78.0955276,-95.9256744,-105.698387,-102.21917,-90.1838608,-80.4751587,-82.1382523,-95.8868027,-113.654488,-124.299896,-121.294907,-107.036064,-90.9741287,-83.1150589,-87.5085068,-100.087944,-112.017693,-115.914818,-110.566116,-101.110153,-94.9606323,-96.6047897,-104.898933,-114.451607,-119.738762,-118.843208,-114.271484,-110.586617,-110.862572,-114.615746,-118.573158,-119.469261,-116.641724,-112.491394,-110.558823,-112.745461,-117.782524,-122.069481,-122.247826,-117.637314,-110.801811,-105.872223,-105.823326,-110.577751,-117.170074,-121.760582,-122.071472,-118.63829,-114.170242,-111.608574,-112.263344,-115.217331,-118.231743,-119.381264,-118.260124,-116.021713,-114.376022,-114.345238,-115.645203,-117.038811,-117.314911,-116.159119,-114.326698,-113.050171,-113.133896,-114.366356,-115.633934,-115.645164,-113.787697,-110.576355,-107.42067,-105.859955,-106.722557,-109.692413,-113.511108,-116.668907,-118.167305,-117.919373,-116.596474,-115.075432,-113.875671,-112.952141,-111.945145,-110.657379,-109.363533,-108.681114,-109.069092,-110.333099,-111.561668,-111.633484,-110.001389,-107.193581,-104.601326,-103.599083,-104.550385,-106.411964,-107.300102,-105.726677,-101.698471,-96.8881454,-93.6665039,-93.560257,-96.1350708,-99.0725021,-99.4465408,-95.4192886,-87.3051834,-77.3790817,-68.6238327,-63.254879,-61.8976364,-63.7516861,-67.3863297,-71.487175,-75.1014404,-77.4687271,-77.8867264,-75.9495468,-72.0221939,-67.4307938,-63.9450951,-62.6970329,-63.2669907,-63.7381325,-61.9022369,-56.897747,-50.0839195,-44.3672104,-42.3020515,-44.2936821,-48.3203201,-51.5692825,-52.9131737,-54.3381691,-59.9966011,-73.2302856,-93.5379181,-115.792091,-132.641464,-138.808899,-134.478699,-125.35025,-119.096375,-120.478424,-128.427979,-137.15686,-140.563553,-136.808578,-129.694061,-125.687279,-128.604309,-135.846695,-139.229507,-130.300858,-106.774307,-75.5970459,-50.1764412,-43.1106377,-58.8576431,-90.970665,-125.645416,-149.280045,-155.269165,-145.985458,-129.270599,-112.39724,-97.879776,-83.804924,-67.8624802,-51.5136757,-40.7247238,-42.3588219,-58.7203674,-84.3733215,-107.985153,-118.491371,-111.743721,-93.2251816,-74.8479691,-67.690567,-75.2116165,-91.1957703,-103.668045,-102.241653,-84.3050995,-56.3432159,-29.8423347,-14.5466843,-13.2375507,-20.9763317,-28.8437843,-29.5458221,-21.4179001,-8.6638279,1.90201402,5.33584785,1.5297147,-4.93150282,-7.70472622,-2.57261872,9.94207668,24.6266212,34.2186317,33.2279282,20.9514179,2.09484744,-15.4027538,-24.3281994,-21.9404602,-11.4984665,-0.627691627,2.74068046,-5.28376579,-22.3446236,-41.0858994,-53.187912,-53.8621979,-44.1632652,-29.8108273,-17.3941364,-10.4693747,-8.0619669,-6.39924097,-2.45853376,3.35391045,7.4423008,6.09868813,-0.828514159,-8.54776096,-9.64334393,1.09993863,22.5346508,46.712059,62.9389076,64.1070557,51.3518753,33.9137535,23.9939079,29.5855064,49.6436577,74.6044235,91.9946976,93.7589722,80.9071808,62.7774162,51.4942551,55.0351715,72.9832535,97.253418,117.040283,124.845451,120.067383,108.348434,97.4886627,92.651741,93.7436142,96.3131332,95.1302185,88.0597153,77.7881012,70.3122559,71.0284042,80.6799469,93.5827103,99.3805008,87.710022,53.5395088,0.43936801,-60.0582771,-112.944458,-146.029709,-155.01358,-144.837784,-126.698532,-112.325401,-108.519753,-114.716858,-124.610069,-130.634689,-128.62793,-120.07103,-110.852943,-107.506065,-113.169594,-125.463661,-137.21463,-139.422272,-124.905365,-91.0770493,-41.0013275,17.3428497,73.2178955,116.189972,139.425781,142.241806,130.705505,115.466866,107.183121,111.431213,125.853073,141.556,148.519958,142.14653,126.876839,114.132301,115.227493,133.365387,159.98941,178.523666,173.976318,142.812271,96.7031555,57.09412,43.1576691,60.1336212,95.3114548,124.573784,126.021545,92.7284164,37.0109177,-16.3571415,-43.9130669,-36.066925,-1.2077992,40.5715561,69.7708054,78.1045609,71.3153992,63.2548599,65.7395172,80.9148712,100.726295,113.229523,111.167366,97.1427002,82.2793579,79.5676804,96.2826309,130.072144,170.679749,205.747665,226.9655,233.159241,229.183716,222.031845,216.833084,214.878677,214.179718,211.554611,204.723526,193.387726,179.163696,164.83429,153.419495,147.300858,147.461884,152.995834,161.194183,168.443741,171.730118,170.03978,164.80954,159.026764,155.415161,154.795654,155.684769,155.436081,152.21463,146.508316,141.143387,139.726883,144.46167,154.692184,167.081879,177.307083,182.245728,181.398193,176.810547,171.686234,168.591415,168.274567,169.64653,170.754379,170.070663,167.35318,163.669724,160.67424,159.597397,160.513596,162.268951,163.103378,161.63768,157.684036,152.39357,147.595551,144.663437,143.598053,142.980362,140.953171,136.685394,131.316833,127.565086,128.003754,133.017426,139.902405,144.055023,141.860413,133.572388,124.118958,120.809784,128.873169,147.401123,168.448105,180.388702,174.048218,148.182846,110.933029,76.0590744,55.862957,54.7925797,67.4530945,82.1781693,88.0003357,80.841156,65.2986298,51.1745529,47.1112175,55.3663483,70.8450394,84.6948318,89.90242,85.2453918,75.2546997,66.5756531,63.4201088,65.1906662,67.6745071,66.6831284,61.3969421,55.0217628,52.3583603,56.0950241,64.5157089,72.2961655,73.8814468,67.1364975,54.779274,42.6429825,35.9824905,36.3323555,40.9706764,45.1964035,45.7003441,42.6416321,39.0597382,38.2022133,40.8247108,44.4851379,45.3551636,41.2085762,33.3661156,26.1179676,23.9744434,28.6870308,38.1745186,48.1258469,55.1073151,58.8911095,62.2742691,68.5042114,78.2373123,88.3900909,93.9228745,91.4276962,81.9394989,70.7633743,64.139946,64.8716583,69.9557114,72.0732651,64.2080383,44.4571953,17.8129501,-6.39891911,-19.8851948,-20.1507244,-11.6521301,-2.7261467,-0.440223575,-6.77142668,-18.4492588,-30.2019825,-38.8587151,-45.3531532,-53.374012,-65.9140625,-82.4766693,-99.1072693,-111.225006,-117.045158,-118.87249,-121.094246,-126.221588,-131.94838,-131.680099,-118.601822,-90.7503357,-53.6006889,-18.1225967,4.79597759,10.2071743,1.59951591,-11.5116348,-19.3407249,-17.3199921,-8.01444721,1.43608809,4.39521027,-1.06073797,-11.3667908,-20.2929153,-23.2269344,-20.0490417,-14.9107876,-13.3760691,-19.0019627,-31.5421028,-47.6529045,-63.2937393,-76.0749817,-86.1296387,-95.251236,-105.176125,-116.245659,-127.209312,-136.07692,-141.348236,-142.907455,-142.238419,-142.004501,-145.208069,-154.146698,-169.402359,-189.231171,-209.789719,-226.415482,-235.611008,-236.789337,-232.695404,-228.019882,-226.802368,-230.111313,-235.475266,-238.527985,-235.875687,-227.321609,-215.921432,-205.78537,-199.105453,-194.494904,-187.883911,-175.466629,-156.728821,-135.454102,-117.931587,-109.479988,-111.540543,-121.195801,-133.310272,-143.747192,-151.487,-158.3759,-166.961456,-178.176315,-190.588501,-201.641998,-209.770889,-215.642838,-221.528763,-229.310806,-238.753296,-247.494812,-252.880798,-254.253403,-253.828415,-255.242828,-260.617432,-268.233795,-272.704315,-267.872742,-250.735489,-223.814255,-194.28299,-170.237778,-156.368622,-151.699799,-150.714737,-147.013901,-137.116608,-122.096474,-106.296394,-94.2768402,-88.1272583,-86.7498932,-87.2114944,-86.8852463,-84.7995758,-81.4578476,-77.6439972,-73.4167862,-68.1589355,-61.5437965,-54.4548531,-48.9072876,-46.8452682,-48.6538429,-52.5474129,-55.4057693,-54.5624619,-49.3238754,-41.1710434,-32.5465393,-25.1464729,-18.959734,-12.6961174,-5.18280315,3.40445685,11.447875,17.0014362,19.24156,19.1222267,18.715477,19.7294025,22.3278236,25.1456432,26.47715,25.7156277,23.9269924,23.1003151,24.6288719,28.1686668,31.7444153,33.0401192,30.9316425,26.1569881,20.6891937,16.3513031,13.7460718,12.2625647,11.0335255,9.9612627,9.91161919,11.905755,16.0263405,21.0575733,25.3162689,28.1170616,30.671772,35.5223274,44.7020111,57.8991623,72.0856628,83.1239395,88.4047852,88.6802902,87.674202,89.5727692,96.0647736,105.040993,111.977516,113.124146,108.258156,100.975945,96.2006454,96.5988922,100.460571,102.626495,97.8923645,84.5114517,65.2943649,45.5038109,29.0706978,15.9183903,2.41552138,-15.315999,-37.6800423,-60.3474884,-76.634819,-82.0325699,-77.691124,-70.2238998,-67.6985321,-74.4208069,-88.1050873,-101.492416,-107.423439,-103.927666,-95.7944641,-91.4754105,-97.3973465,-113.591537,-133.66008,-149.101318,-154.984314,-153.016876,-149.873749,-151.968246,-160.366867,-169.478622,-170.564331,-157.761765,-132.548645,-103.56192,-81.7905807,-74.2254791,-80.0351486,-91.6129761,-99.6291809,-98.6936569,-90.0337296,-79.7399826,-74.0922623,-75.259491,-80.1689224,-83.0451508,-79.6604309,-70.3473663,-59.841465,-54.2225227,-57.0759888,-67.3311157,-79.9775391,-88.9855881,-90.5082397,-84.5308456,-74.3035736,-64.2553329,-57.7730064,-55.9729004,-57.7659073,-60.7856026,-62.520153,-61.2188034,-56.4619179,-49.3901138,-42.4861107,-38.7545853,-40.3740883,-47.3334694,-56.8589401,-64.2368317,-64.9113007,-56.8883743,-42.088131,-25.7175388,-13.8112764,-10.1825495,-14.4451914,-22.2157478,-27.3896255,-25.2340813,-14.6364517,1.60476851,18.4267235,31.0457878,37.0141945,36.8548088,33.2252007,29.3181686,27.4413357,28.3991375,31.7337265,36.4277649,41.5685959,46.6617279,51.5788116,56.3132935,60.7454033,64.5356064,67.1761627,68.1834564,67.3791885,65.1638107,62.6240349,61.3229942,62.7356415,67.5085907,74.9032288,82.791275,88.3398056,89.1523285,84.3342209,74.9336472,63.5116844,53.0656548,45.8777008,42.8757019,43.7477646,47.5758667,53.449791,60.6026917,68.0221786,73.9551468,75.9040756,71.4379196,59.5581322,41.8375702,22.478529,6.938169,-0.391639471,1.71011961,10.6187143,21.1533127,28.2824478,29.829504,27.6592064,26.6063442,31.6678085,44.99786,64.4056396,84.2327881,98.1400986,102.250305,96.9149628,86.205925,75.5599136,69.0280609,67.6885147,69.9506912,73.2670975,75.9618301,77.9714584,80.1679077,82.9650803,85.3866959,85.3800812,81.1946945,72.8079376,62.2856331,52.7010231,46.2874565,43.1152802,41.2813225,38.5601807,34.3885498,30.7259274,31.0318222,37.8934212,50.8502426,65.9567184,77.5581818,81.2927628,76.4743423,66.3476486,56.0620918,49.6798973,48.1365776,49.3924026,50.5097504,50.093277,49.3247566,50.8601418,56.4119568,64.8260498,72.1785049,74.0301056,68.4353561,57.6737328,47.4193535,43.7106514,49.5299301,63.0849724,78.812027,90.4130325,94.026268,89.6820908,80.4167709,69.9451447,60.587822,52.7396355,45.9164772,40.2612686,37.1423302,38.2727013,44.0060043,52.1919136,58.6759109,59.3854523,52.7830391,41.0929337,29.4205494,23.1928787,25.398016,35.1967697,48.6063843,60.7024078,67.980217,69.6036835,67.1037064,63.0341568,59.55616,57.6885529,57.342392,57.7545662,57.8795776,56.6102562,53.0129929,46.7642899,38.6618347,30.7717018,25.818346,25.8943462,31.1514225,39.3554153,46.7790031,50.0654678,47.9874763,41.9876175,35.1228294,30.0870628,27.633173,26.4689312,24.6830158,21.6549129,18.9957314,19.6978512,25.9407539,37.0506897,49.1702194,57.1481171,57.6632614,51.6438789,44.3260651,42.6877594,51.6421318,71.211235,96.3716125,119.680183,135.139938,141.073624,140.44397,138.633179,140.170593,146.382446,155.203552,162.982376,166.946533,166.765244,164.394592,162.547348,162.925919,165.340149,168.117401,169.344849,168.039307,164.538849,160.028152,155.677124,152.023514,148.936249,146.033432,143.145462,140.476501,138.417908,137.241425,136.945099,137.342957,138.261581,139.630569,141.379745,143.261459,144.809235,145.536606,145.255859,144.249863,143.103378,142.257217,141.596481,140.412903,137.840363,133.508224,127.954086,122.458572,118.351379,116.227509,115.616676,115.368729,114.526138,113.091202,112.127785,113.068077,116.645393,122.165405,127.647461,130.814926,130.350647,126.63839,121.52169,117.23069,115.148949,115.174965,116.029015,116.239304,115.122559,113.121635,111.329201,110.583588,110.794609,110.96981,109.909309,107.072235,103.007118,99.0467834,96.4734192,95.7118225,96.0736237,96.192627,94.834343,91.5449524,86.7594757,81.3852539,76.2227173,71.6414719,67.6772614,64.3630981,61.9307404,60.6521988,60.4279175,60.4985313,59.6293449,56.781601,51.8751755,46.079464,41.3093491,39.1269836,39.7083969,41.5843353,42.4208221,40.4219017,35.4653893,29.1692715,23.7306156,20.1980724,17.3005657,11.7166748,-0.176141798,-19.990324,-45.8353806,-72.6593094,-94.4170914,-106.96627,-110.095642,-107.520523,-104.813057,-106.413025,-113.39476,-123.216835,-131.519989,-134.850113,-132.676025,-127.543976,-123.361618,-122.937538,-126.321129,-130.953613,-133.486908,-132.086349,-127.737991,-123.721809,-123.571342,-128.799561,-137.820923,-146.758438,-151.659332,-150.780548,-145.577759,-139.835342,-137.5,-140.520767,-147.925247,-156.560715,-162.935059,-165.015884,-163.007477,-158.839554,-154.880997,-152.734314,-152.740524,-154.252716,-156.261093,-157.867325,-158.397446,-157.322144,-154.298111,-149.462784,-143.777924,-139.037582,-137.309296,-139.980743,-146.935501,-156.399307,-165.634323,-172.141418,-174.712677,-173.766891,-170.846207,-167.640747,-165.138702,-163.342834,-161.598175,-159.221054,-156.016525,-152.435501,-149.37999,-147.833862,-148.499222,-151.534012,-156.429047,-162.077942,-167.103119,-170.409836,-171.745544,-171.898193,-172.251801,-173.786987,-176.066788,-176.953354,-173.503601,-163.780106,-148.599045,-132.041718,-120.118042,-118.039574,-127.495705,-145.496063,-165.553955,-180.671021,-186.535736,-183.228226,-174.615891,-165.962296,-161.22818,-161.536957,-165.402573,-170.189896,-173.661469,-174.686569,-172.996078,-168.598404,-161.59169,-152.582474,-143.221695,-136.108078,-133.735123,-136.97876,-144.177689,-151.652496,-155.597824,-154.273071,-149.066132,-143.631622,-141.555923,-144.028061,-149.063263,-152.834824,-152.258713,-147.108612,-140.226807,-135.672638,-136.050522,-140.82106,-146.72757,-150.02005,-148.929337,-144.692688,-140.455948,-138.87355,-140.131577,-141.816589,-140.729721,-135.356232,-127.203613,-120.002289,-117.258301,-119.834991,-125.257759,-129.274445,-128.643524,-123.266457,-116.21447,-111.641823,-112.019783,-116.579529,-121.997597,-124.79837,-123.769302,-120.701576,-118.967361,-120.968903,-126.286606,-131.844986,-133.981308,-130.941742,-124.018013,-116.495224,-111.142853,-108.048889,-104.400368,-96.4736328,-82.522583,-64.5549316,-47.6611214,-37.1888542,-35.5293503,-40.6101837,-47.1141815,-49.6891403,-46.1215973,-38.4875412,-31.6105728,-29.887064,-34.5362167,-42.9780006,-50.6106377,-53.7190247,-51.6027679,-46.6334991,-42.3695946,-41.0984764,-42.4488258,-43.8945541,-42.672081,-37.7348099,-30.4393387,-23.5844822,-19.5353107,-18.7194996,-19.451376,-19.1119747,-15.8362188,-9.60988903,-2.15214276,4.21174479,7.88507223,8.72162819,7.83017206,6.77752495,6.81876516,8.60568619,12.3738794,18.234478,26.1931725,35.8364029,46.0010452,54.8473969,60.5016747,61.9887161,59.8816719,56.1852036,53.4159927,53.3583412,56.2072906,60.5996704,64.5004044,66.3980789,66.0957031,64.6617661,63.6422386,64.0799179,65.9632416,68.4044418,70.3542023,71.3274841,71.6525803,72.1180344,73.3196487,75.2052841,77.1504288,78.4956741,79.1282578,79.6467209,80.9476242,83.5077744,86.8904572,89.882843,91.2395401,90.5589676,88.6789322,87.2684402,87.833847,90.7790909,95.1544189,99.2767715,101.807266,102.546249,102.399071,102.55629,103.50663,104.636032,104.741295,103.091476,100.215332,97.7417831,97.3063965,99.2785645,102.295853,104.08345,103.098511,99.8390198,96.7551727,96.6168442,100.335403,105.788826,108.68187,105.142548,94.4821548,80.2407532,68.613266,65.0329742,70.9778671,83.0458832,94.9602203,101.278,100.449287,95.2848511,90.6063232,89.7303314,92.2089767,94.3677063,92.2393646,84.8108444,75.2497787,69.1438065,70.8540421,80.4248886,93.1836853,102.386299,103.237228,95.6974869,84.3149338,75.2867126,72.7487946,76.6847534,83.6376877,89.4815292,92.1988297,92.7928467,93.917984,97.4630432,102.979622,108.094788,110.48703,109.812912,108.028282,107.791199,110.132698,113.208305,113.216133,106.99395,94.5273132,79.5551071,67.7131348,63.338459,66.9947662,75.3074875,83.161232,86.7659302,85.6130219,82.1929474,79.9033966,80.7265778,84.2411575,88.4394302,91.499588,93.0708771,94.1488113,95.7920761,97.8470917,98.8085251,97.005043,92.1925583,86.2302856,82.1391296,82.0636215,85.5625305,89.5513611,90.1233673,85.1492691,75.9264069,66.6986618,62.2411957,64.9906921,73.5256195,83.3559494,89.5284729,89.4424896,84.2004623,77.7778931,74.6340637,77.245697,84.9530258,94.6160355,102.505104,106.25177,105.825066,103.177803,100.944916,100.972969,103.395348,106.59964,108.013649,105.336784,97.7111435,86.3448944,74.2673187,65.2134399,62.0409203,65.3917542,73.3076172,82.0927811,88.0583038,89.2427597,86.1666565,81.216423,77.0750732,75.1938095,75.2375107,75.7609024,75.5317307,74.5005722,73.7191849,74.3175507,76.3765411,78.6316986,79.3239899,77.6146088,74.4797592,72.3021088,73.3060455,77.8814316,84.0296249,88.4515152,88.6437759,84.5899658,78.8198547,74.6886749,73.9811172,75.4908066,75.6452408,70.889183,60.3134918,46.7663727,35.612545,31.8130493,37.0963554,48.9496727,62.0211334,71.0315552,73.4262085,70.2655182,65.0310059,61.2948608,60.7632332,62.7685585,65.2429276,66.2956543,65.3080826,62.9799576,60.5504379,58.8982925,58.1256561,57.7329826,57.0441475,55.4769707,52.5536041,47.8824577,41.3850098,33.7377625,26.6322918,22.3972492,22.9190674,28.3922672,36.758419,44.412838,47.9772835,46.1565247,40.501297,34.5010872,31.4885807,32.650074,36.421833,39.6725655,39.8883362,36.8868561,32.8817978,30.8230362,32.122467,35.334259,36.7655411,32.7278976,22.0367928,7.15660572,-6.7870574,-14.5844383,-13.6016331,-5.00344419,7.06657219,17.7392426,23.7329369,24.4808102,21.6637249,17.706068,14.276886,11.627121,8.93031693,5.16983557,-0.0876628757,-6.44389963,-12.9192457,-18.3923626,-21.9318275,-22.9404144,-21.2127666,-17.0200157,-11.1939306,-5.07570887,-0.228540227,2.01449084,0.957125068,-3.29376125,-9.9251585,-17.6312599,-24.7854328,-29.5768089,-30.296711,-25.9330254,-16.9511776,-5.78460455,3.53301835,6.80287695,1.68136919,-10.7684956,-26.0439014,-38.0091248,-41.7844849,-36.1925659,-24.3464241,-11.9649181,-4.33440685,-3.65466118,-8.27776718,-14.1809101,-17.6500568,-17.4571476,-15.2280474,-13.925149,-15.5855083,-19.867939,-24.3349457,-26.1911774,-24.2466526,-19.7889099,-15.8369417,-15.3295736,-19.436924,-26.9959679,-35.2668686,-41.384201,-43.5818939,-41.6100273,-36.3973007,-29.438652,-22.351593,-16.6768494,-13.6943369,-14.0593596,-17.3861046,-22.1737289,-26.3746262,-28.4471874,-28.2662601,-27.2088547,-27.2248535,-29.4346313,-33.216507,-36.486927,-37.0611,-34.1829758,-29.1364975,-24.4691124,-22.3508739,-23.2300453,-25.7369938,-27.8656788,-28.5087471,-28.1664371,-28.3022404,-29.8926201,-32.3795967,-33.9448776,-32.9736633,-29.5724487,-25.8599968,-24.6372414,-27.3191605,-32.6851501,-37.4937096,-38.6353149,-35.2901382,-29.479578,-24.5809174,-22.9527817,-24.5571442,-27.7141743,-31.3902397,-37.0424194,-48.1980247,-67.6751328,-94.4067307,-122.560143,-144.256958,-154.506302,-154.938583,-153.262589,-158.161072,-172.765549,-191.398148,-202.506607,-196.545395,-173.75827,-146.213303,-131.818024,-143.39595,-179.641098,-224.148514,-253.837814,-252.02951,-218.216095,-168.469254,-126.290154,-109.697014,-122.48877,-154.562668,-190.078842,-217.339569,-233.771591,-243.475555,-250.34848,-252.780869,-244.311081,-219.732819,-181.709793,-142.311554,-117.544243,-118.206009,-143.323792,-180.798447,-214.831711,-234.928207,-240.291428,-236.993668,-230.749878,-221.369095,-203.507797,-173.235306,-135.011566,-102.815529,-93.2570648,-114.698441,-160.078903,-209.270096,-240.374802,-242.86409,-223.622391,-201.472229,-193.674042,-203.704773,-219.025711,-220.699738,-198.256027,-159.127655,-125.39727,-119.366318,-147.567917,-194.507904,-231.177246,-233.333511,-197.556107,-144.120804,-104.328102,-100.357925,-130.917328,-172.260971,-193.997192,-179.23201,-135.716934,-90.6729584,-72.8209457,-93.5621567,-139.64653,-181.909531,-194.040955,-168.984772,-122.516197,-82.2592468,-69.8807602,-88.191597,-121.019226,-144.972015,-144.599411,-120.934807,-88.5545273,-64.2416077,-55.5871468,-57.1271133,-55.8402443,-41.3418655,-13.3331413,18.584753,41.9482079,49.8780289,44.9958458,36.5281868,33.2525101,37.5966873,44.9048653,47.864502,42.4181824,30.7462196,19.402277,14.3673029,16.9076099,23.2408276,27.982893,28.5258636,26.9616489,28.1872139,35.7776756,48.8569832,62.3588028,70.4742355,70.7102051,65.5863953,60.797245,61.2619896,67.9445267,77.6284256,85.5857697,88.9997787,88.6074905,87.5247955,88.3965302,91.2141647,93.5001831,92.6259384,88.324791,83.2923126,81.2514038,83.8612213,88.8392715,90.8775558,84.9300995,69.6901855,48.8495331,29.2038956,16.7964325,13.574213,16.6203861,20.2658443,19.5487881,12.8130217,2.06489635,-8.6843853,-15.6623812,-16.7185078,-11.3796616,-0.214848056,15.5231724,33.6071548,50.4601746,61.6415634,63.574501,55.7659302,42.0086441,29.3617783,25.0267696,32.6945305,50.5073395,71.9597321,89.3337326,97.7162094,97.2979584,92.7133026,89.9639435,92.8441925,100.940552,110.201973,115.522194,113.698135,105.098289,93.2698364,82.9052505,77.3853149,77.1752167,79.7802811,81.1624756,77.8689499,68.8557587,56.1454506,43.9504662,36.5827026,36.0960922,40.8876343,46.1596146,46.2567253,37.8146362,22.0153732,4.52786827,-7.09159517,-7.27583075,4.54252148,23.5653667,42.2093544,54.1835899,57.7012024,55.9762688,54.8145638,58.8570023,68.7792358,81.0392151,90.113533,91.6665268,84.7079239,71.6551132,56.6560974,43.5150871,34.5109863,30.4751854,31.50383,37.3696289,47.2343178,59.1187706,69.9851379,76.8571014,78.4578094,76.1849365,73.479126,73.7230911,77.9625244,84.0651169,88.0704575,86.9628525,80.9894791,73.8166199,70.237236,72.8866501,80.2341537,87.3684311,89.2078018,84.0308762,74.8643112,67.616684,67.0443039,73.1983337,80.8285599,82.3587875,72.6980743,52.8676796,30.0778179,14.0751944,11.9019318,24.1673279,44.9618912,65.287941,77.8189545,80.1848145,75.1107864,67.7772217,62.3700104,60.0064964,59.0447426,57.1310463,53.3080978,48.7138557,45.5560379,45.2896957,47.3943596,49.6091156,49.3922234,45.5294304,38.7848969,31.2277927,24.8122864,20.2628632,17.0178127,14.1664734,11.5753536,10.270853,11.6990042,16.339838,22.6947079,27.5110779,27.3303986,20.5335007,8.61945343,-4.21032619,-13.1200504,-15.3015299,-11.6984015,-6.6809001,-5.65989685,-11.8419313,-23.9333839,-36.2303085,-41.2982445,-33.9944229,-14.7041368,10.0920849,30.4890518,37.8897133,29.4036293,9.52907372,-11.9183674,-24.679966,-23.2095871,-9.36037254,8.86966515,21.8581181,23.6733551,15.2663441,3.82146049,-1.30305493,6.27685118,26.5917206,53.4762039,77.9839249,92.9900665,96.4024353,91.3936157,83.8899994,79.0726471,78.9896088,82.4474487,86.8272018,90.3494263,93.2494354,97.2494202,103.933525,113.319878,123.671722,132.643326,138.906281,143.094131,147.409927,154.174088,164.296005,176.668716,188.836655,198.443756,204.499893,207.695496,209.668915,211.810608,214.42244,216.728317,217.616913,216.527283,213.861008,210.690582,208.032074,206.211853,204.734268,202.678268,199.303284,194.458542,188.585312,182.401917,176.540771,171.363907,166.991272,163.410675,160.523972,158.107178,155.790497,153.172623,150.056763,146.64769,143.519684,141.307022,140.285141,140.132889,140.077911,139.371216,137.789688,135.815613,134.342178,134.075882,135.024246,136.411911,137.085541,136.143631,133.389343,129.343307,124.863632,120.673088,117.111633,114.216904,111.966286,110.402527,109.499054,108.88591,107.731064,104.995827,99.9953995,92.912674,84.8695297,77.4210358,71.7369003,67.9817963,65.3028564,62.4309006,58.4796791,53.3943672,47.7643318,42.1908417,36.7355614,30.9075413,24.2125111,16.8082943,9.66550064,3.96852326,0.0914542079,-3.09914327,-7.97897768,-16.9309368,-30.8588486,-48.4553413,-66.8147812,-83.089386,-96.1202087,-106.896965,-117.443436,-128.825668,-139.69606,-146.558502,-145.852036,-136.659592,-122.248749,-109.194565,-104.27993,-110.814598,-126.535492,-144.449661,-156.295792,-156.750854,-146.039093,-129.518768,-114.562866,-106.577026,-106.397507,-110.404594,-113.05777,-110.218742,-101.329308,-89.3564682,-78.8026199,-73.143486,-73.1999893,-77.2032852,-82.2183456,-85.8636398,-87.2849808,-87.0005646,-86.0179901,-85.0105133,-84.1282654,-83.4242859,-83.3626251,-84.8148956,-88.3802948,-93.4678421,-97.9016495,-98.5955734,-93.1675262,-81.6631241,-67.288559,-55.4699059,-51.4617386,-57.6321716,-71.8935776,-88.2755814,-99.5476532,-100.669754,-91.324646,-76.1816635,-62.6963768,-57.533886,-63.4342842,-78.0897827,-95.5305557,-109.198128,-115.056824,-113.180664,-107.16629,-101.911118,-101.08342,-105.60199,-113.719437,-122.36026,-128.766479,-131.546082,-130.774323,-127.434212,-122.781937,-118.048317,-114.452477,-113.190422,-115.11467,-120.192787,-127.187195,-134.012741,-138.80246,-141.131546,-142.541794,-145.796143,-153.070572,-164.100937,-175.55513,-182.328888,-180.311188,-169.118988,-153.066284,-139.474991,-134.962097,-141.652466,-155.540466,-168.165543,-170.920181,-159.712585,-137.361649,-112.278175,-94.0768127,-88.5495453,-94.8475647,-106.458542,-115.352127,-116.793556,-111.944733,-106.717049,-107.634209,-117.292015,-132.263885,-144.797592,-147.317734,-137.008301,-117.691803,-97.8712234,-86.134201,-86.6832581,-97.5881729,-112.604057,-125.187378,-132.089996,-134.367142,-135.453003,-137.89798,-141.148895,-141.899689,-136.669891,-124.682976,-108.908783,-94.4418488,-85.2960052,-81.8677063,-80.9091415,-78.1152649,-71.5488815,-63.4420509,-58.9411659,-62.4697876,-74.1268616,-88.6938934,-98.1943665,-96.5838089,-83.617424,-65.333519,-50.6953201,-46.4147034,-53.1800995,-65.6291428,-75.9928741,-78.9891586,-74.7965546,-68.2889252,-65.2243881,-68.0826111,-74.3888474,-78.5989227,-76.1572189,-66.8680649,-55.2258644,-47.4621544,-47.3357162,-53.5554161,-60.6177444,-62.5180969,-56.8532372,-46.5677719,-38.1771545,-37.6284256,-46.485424,-60.8556786,-73.6571808,-78.6990509,-74.0171661,-62.5549202,-50.0705948,-41.8346405,-40.1914444,-44.2006187,-51.088192,-58.1830635,-64.0380554,-68.3287659,-71.1127701,-72.3573608,-72.1618195,-71.3044434,-71.352478,-73.9241562,-79.4892578,-86.6548691,-92.6854324,-95.137146,-93.5832825,-90.1891327,-88.5903549,-91.687088,-99.7566147,-110.12558,-118.61454,-121.799843,-118.64418,-110.56636,-100.139938,-89.5179901,-79.7201691,-71.1229935,-64.493187,-61.4815521,-63.9616432,-72.5806046,-85.6203537,-99.1535416,-108.602203,-110.798569,-105.285057,-94.1218185,-80.5087891,-67.27108,-56.1774063,-48.2505875,-44.3757248,-45.3161087,-50.8865166,-58.9806595,-65.5787277,-66.3138123,-58.9569359,-45.2117805,-30.3243656,-20.3215561,-18.368185,-22.585247,-26.9643002,-25.0788059,-14.3722935,1.77260435,15.7058249,20.0788345,12.5325165,-2.4648695,-15.8719645,-19.1067867,-8.80634785,11.5338421,33.9055672,50.5177917,57.9520683,58.3347931,57.1313896,59.269146,66.1537476,75.3103867,82.5381012,84.890686,82.4764252,78.0772018,75.1213608,75.5401001,78.9018784,83.1824265,86.3965683,87.8655396,88.3374176,89.0917816,90.8449554,93.277916,95.4249496,96.4872055,96.3806,95.6311035,94.7992935,93.9828262,92.8367615,91.0838776,89.05233,87.7284317,88.1889954,90.7856674,94.6956177,98.2330475,99.784523,98.774704,96.0202179,93.2285233,91.9669418,92.7705612,94.9472198,97.1612015,98.368721,98.4781265,98.3300476,99.0642548,101.331902,104.87455,108.709335,111.748314,113.418831,113.896721,113.854843,113.952156,114.429222,115.062187,115.459961,115.459816,115.331955,115.656044,116.965111,119.404861,122.635231,126.030968,129.039612,131.45929,133.464417,135.383728,137.404633,139.422562,141.148315,142.39595,143.332977,144.483658,146.440079,149.450714,153.171371,156.785812,159.46608,160.896317,161.504913,162.212067,163.816437,166.408051,169.212662,171.011292,170.893906,168.859802,165.851303,163.171722,161.656845,161.149979,160.637802,158.956757,155.585754,150.979492,146.218842,142.238129,139.187195,136.384689,132.885956,128.241882,122.891083,117.907059,114.30455,112.430969,111.88472,111.977692,112.326942,113.065186,114.487061,116.443832,118.058182,118.113991,115.923264,112.011826,107.99781,105.598869,105.404427,106.336006,106.307526,103.725304,98.7676849,93.4256744,90.1253967,89.8302383,91.0312653,90.5235214,85.6126556,76.2743301,65.661293,58.4083252,57.7489624,63.4034348,71.7808685,78.4529037,81.2023163,81.4410934,82.8939972,88.4388504,97.4509811,105.780388,108.626999,104.34977,96.3028717,90.9760437,93.3386078,102.527725,111.170921,109.365982,91.0767746,58.7179871,22.5442104,-5.21993637,-17.9198132,-18.6607647,-18.0841045,-26.886837,-47.938591,-73.43573,-89.4123917,-85.033371,-60.6685829,-29.1922493,-9.14684296,-13.7068176,-42.2990761,-80.2852936,-107.134689,-108.189491,-82.8844376,-44.5448303,-12.1682482,0.534326315,-7.83715153,-27.1276512,-42.9623718,-45.5243416,-34.2477303,-16.0634537,0.783406436,12.667017,22.289196,35.4862518,55.9387169,81.8418503,106.917084,124.882912,134.031113,138.569473,145.775146,160.988678,183.951462,208.975067,228.723236,238.923965,240.801834,239.71402,241.128738,246.834213,253.952072,257.26474,253.059998,241.744019,227.467636,215.166031,207.186768,201.867859,194.974594,182.890549,165.294067,145.494156,128.263641,116.69754,110.194862,104.801407,95.5380173,79.1124115,55.3567505,26.7672691,-3.17308784,-31.5624962,-56.5902824,-77.0463486,-91.6833954,-99.2829285,-99.5181427,-93.8594589,-85.5405045,-78.2430573,-74.1908875,-72.9752197,-72.0937881,-69.0434189,-63.6226311,-58.7750664,-59.1526833,-68.1060715,-84.9959946,-104.696815,-119.870163,-124.803253,-118.521378,-105.2388,-91.8405533,-83.9493256,-83.0133896,-86.1680603,-88.8040009,-88.0203247,-84.6014557,-82.198555,-84.3243027,-91.2902374,-99.3025131,-102.496773,-96.6863785,-82.3532486,-64.7965546,-51.1512833,-46.0507851,-48.6685791,-53.0879631,-51.8779373,-40.7258644,-21.2819233,-0.466377914,13.3326902,14.8596668,4.67138481,-11.5506592,-26.4051952,-34.6828003,-35.4886971,-31.6319141,-27.1378345,-24.7896881,-25.2665234,-28.0738659,-33.1055031,-41.3125114,-53.8144302,-70.1820908,-87.4623413,-101.108841,-107.560913,-106.795975,-102.879753,-101.709511,-107.106697,-117.798203,-127.579865,-129.035522,-118.764519,-100.748589,-85.3092651,-83.7151947,-101.347099,-133.564743,-167.124786,-186.803101,-183.686157,-160.389053,-130.068527,-109.616379,-110.778366,-134.114349,-169.036224,-199.650726,-212.939346,-204.758469,-180.74231,-152.291641,-130.491257,-121.487572,-125.394089,-138.361679,-155.68837,-173.78952,-190.249496,-202.853149,-209.162018,-207.461594,-198.434692,-185.957947,-175.801819,-172.538742,-176.509613,-183.047012,-184.893478,-176.644241,-158.521515,-136.975861,-121.498856,-119.431053,-131.882324,-153.226471,-174.408691,-187.941513,-191.522095,-188.234314,-183.578766,-181.54454,-182.337128,-183.032562,-180.356995,-173.437531,-164.600464,-157.827606,-156.152527,-159.904251,-166.919098,-174.318069,-180.34671,-184.892197,-188.459213,-190.663544,-189.681915,-183.296509,-170.817825,-154.334671,-138.112656,-126.305511,-120.473808,-118.687836,-116.964157,-112.12957,-104.131165,-96.1163406,-92.1345291,-94.0067673,-99.5652008,-103.594513,-100.979507,-90.0349426,-73.8131332,-58.48032,-49.7510147,-49.5942841,-55.2004585,-60.7162247,-60.5465775,-52.182003,-37.0062332,-18.9263477,-1.96748376,11.615428,21.7689362,29.7485752,36.8045845,43.3641205,49.0472794,53.2035713,55.4126167,55.6305275,54.0746307,51.1337395,47.4337463,43.8825073,41.4033279,40.2974052,39.5796738,36.8436432,28.9874477,13.5811386,-9.83469486,-39.2649002,-70.8658066,-100.252724,-123.753593,-139.022888,-144.992981,-141.620804,-129.905121,-112.191444,-92.2566605,-74.5736465,-62.6725121,-57.3216782,-55.7132492,-52.4947548,-42.4315033,-23.3632069,2.2768898,28.4159184,48.3702049,58.2703018,58.9141655,55.0072479,52.3202667,54.5192451,61.527832,70.2349091,76.8698883,79.4040451,78.4862061,76.5133896,75.6933899,76.5348358,77.7650528,77.5929642,75.2889252,71.889946,69.5286636,69.9018097,73.0069351,77.0651474,79.6851578,79.4383926,76.7339172,73.3964996,71.2842865,70.9660645,71.4237366,70.9891129,68.8031387,65.6630859,63.5231705,63.8844986,66.1823654,67.4202194,63.5555649,51.9639397,33.4739151,12.5734835,-4.56673431,-13.2472639,-12.7561283,-6.72152901,-1.02885115,-0.487826735,-6.19407606,-15.1054659,-22.0093098,-22.6277599,-15.9824047,-4.68129969,6.87523794,15.1169062,19.10783,20.5509415,22.2379761,26.1370411,32.3839569,39.659359,46.416481,51.8993797,56.2098618,59.5388374,61.3949585,60.6647224,56.6188087,50.0987015,43.7980728,41.1099472,44.0944443,51.9279823,61.060997,67.2222977,68.0813904,64.7723846,61.1166725,60.9086266,65.0303345,70.4241486,71.8052521,65.1505814,50.7021141,33.4073181,20.3382397,16.6342411,22.5521946,33.5367241,43.2613144,47.6284447,47.0950813,45.826973,48.335762,55.9496727,65.5701294,71.5921707,69.6974182,59.9338112,46.961319,37.2479744,35.0526543,39.8484116,46.8750572,50.4308434,47.7087402,40.6600456,34.6995583,35.1531219,43.7876282,57.6487083,70.873848,78.2291641,78.0812378,72.9970016,67.7685165,66.2958603,69.3732071,74.6827011,78.7752838,79.5458755,77.5021439,75.0512695,74.4163055,75.7095337,76.554451,73.5874786,64.9004593,51.8262901,38.8330727,31.4381638,33.269619,43.9542351,59.0757332,72.2910004,78.4816284,76.2454605,68.3998795,60.2623367,56.676487,59.4117012,66.3277893,72.711853,74.0059357,68.4047241,57.9049416,47.2680473,41.5107956,43.3281746,51.8397598,63.2710533,73.0849609,78.3101654,78.7864227,76.7513657,75.1765594,75.9374847,78.8900146,82.2818604,84.0842438,83.3162231,80.5386963,77.304657,75.0408936,74.1599503,73.9778519,73.4256516,71.9986038,70.2420578,69.405899,70.4745789,73.2163544,75.9139938,76.0367203,71.5407257,62.0932846,49.5268707,37.2273521,28.7180176,26.1109257,29.164669,35.3850403,41.1089287,43.0556564,39.6312904,31.4071865,20.5988121,9.85202599,0.972445965,-5.75517464,-11.3309717,-17.0629959,-23.4405899,-29.5454369,-33.3869781,-33.005661,-27.7122688,-18.7129002,-8.70855522,-0.660962582,3.56972766,3.91953254,1.75340736,-1.29565489,-4.50685644,-8.47818089,-14.4612856,-23.040535,-33.0455933,-41.5118408,-44.8936424,-40.9622002,-30.341116,-16.759285,-5.75693846,-2.40632033,-9.12434959,-24.602211,-44.3020439,-62.2203331,-73.0765915,-74.0049973,-65.1642838,-49.2169914,-30.070694,-11.4661369,4.08320236,15.72505,24.0648365,30.5117397,36.4764633,42.7339478,49.1844063,55.0722694,59.5180588,62.0643082,62.9322281,62.8493195,62.5645523,62.365078,61.9154129,60.5388832,57.7710876,53.8251419,49.6492844,46.5123672,45.357399,46.3164253,48.6783485,51.3119125,53.263279,54.1576996,54.1912193,53.7837219,53.1803207,52.2891312,50.8443947,48.7362328,46.2331657,43.9162598,42.3671722,41.8357048,42.1226578,42.7496758,43.2789993,43.5485497,43.6698341,43.8251877,44.0484467,44.1666183,43.9343605,43.2311249,42.1465263,40.8875465,39.6066704,38.3280144,37.0622826,36.0155983,35.6711159,36.5828514,38.9483643,42.2526932,45.3043289,46.7523193,45.8223,42.7975235,38.8851929,35.5061951,33.4599457,32.5360909,31.8505459,30.6604252,29.0373096,27.851944,28.0299873,29.6264591,31.4830265,31.8628807,29.718174,25.6656876,21.8050289,20.2624435,21.3160076,22.4530945,19.2855339,8.07505417,-11.5598097,-35.5376396,-56.7677116,-68.5598297,-68.0733643,-57.7283974,-43.6802139,-32.2747993,-26.6783772,-25.7513771,-25.7536182,-23.5951691,-19.3271751,-16.1201706,-17.7375813,-25.3032627,-35.7273674,-43.0832214,-42.1944962,-32.0960503,-16.9829597,-3.86876965,1.62812197,-1.36793613,-8.74016476,-14.4299736,-14.7624655,-11.1119938,-9.02286816,-14.2576666,-28.3498516,-46.6781044,-60.5208511,-61.988842,-48.8304634,-26.1084919,-3.65932107,9.15728188,8.28818798,-3.38581347,-18.3674889,-29.1576653,-32.2825203,-29.4607296,-25.588995,-25.1825733,-29.652874,-36.9661026,-43.5155487,-46.6358795,-45.9976921,-43.1282196,-39.7214241,-36.1976204,-31.6460514,-25.1399879,-17.3187809,-10.8883114,-9.45407772,-15.3296289,-27.7669582,-42.8736534,-55.4128914,-61.457016,-60.2966385,-54.4761086,-48.0134315,-43.984314,-42.9848785,-43.3387566,-42.7463303,-40.156311,-36.5711746,-34.28479,-35.1489029,-39.1315727,-44.2209969,-47.7972336,-48.5559158,-47.6381912,-48.0861473,-52.839798,-62.4944992,-74.3061218,-83.2379608,-84.6075974,-76.855835,-62.791275,-48.4835701,-40.3195572,-41.8035431,-51.8403625,-65.4035873,-76.1557617,-79.5466385,-74.7491608,-64.552063,-53.5176735,-45.6099205,-42.6156082,-44.0235977,-48.081337,-53.1109161,-58.200531,-62.9821701,-66.9096298,-68.7815323,-67.0135422,-60.5660973,-49.9069443,-37.3026123,-26.1352482,-19.5544605,-19.1867714,-24.5818024,-33.6231651,-43.5851021,-52.2068367,-58.2577324,-61.4503059,-61.9613953,-59.9805794,-55.5731239,-48.8517456,-40.2277451,-30.4910622,-20.6349487,-11.5416374,-3.7391398,2.63512063,7.68415689,11.5599442,14.3739815,16.2529812,17.4598064,18.4515095,19.7943916,21.959547,25.1052036,28.9658833,32.9154129,36.1885147,38.1773796,38.6873016,38.0439644,36.9908142,36.3935547,36.8609924,38.4563065,40.6598701,42.6325111,43.6578598,43.5136528,42.5353165,41.3129807,40.2112503,39.0529633,37.2339783,34.2509499,30.3019733,26.495182,24.3988972,25.1004734,28.3331699,32.2942352,34.4155998,32.7518692,27.1940422,19.7250671,13.4494133,10.8602266,12.3055019,15.5473719,16.7032051,12.0707264,-0.143474922,-19.0727005,-41.6992302,-64.2036438,-83.359108,-97.3121414,-105.587273,-108.634293,-107.392647,-103.131241,-97.4599457,-92.2137299,-89.0302505,-88.7617722,-91.1058426,-94.7754211,-98.1933289,-100.314598,-101.071243,-101.173332,-101.447578,-102.198395,-103.035431,-103.237068,-102.319,-100.342079,-97.7438583,-94.8959122,-91.8375168,-88.4885483,-85.1955261,-83.0812378,-83.691391,-87.9330368,-94.9311676,-101.715088,-104.261864,-99.5619507,-87.5689392,-71.7672119,-57.8053474,-50.822464,-52.9660873,-62.5619698,-75.4111023,-87.3661804,-96.5476227,-103.829491,-111.401482,-120.503197,-129.970825,-136.651566,-137.43457,-131.503799,-121.231514,-111.031166,-104.866646,-104.026398,-106.59832,-108.942894,-108.14386,-103.802643,-98.0450211,-93.8437729,-92.8840179,-94.4366531,-95.9462967,-94.8329849,-90.2092056,-83.3526306,-76.7061005,-72.2146225,-70.2052155,-69.5375137,-68.7674408,-67.3362427,-65.8298645,-65.1328201,-65.2021484,-64.5451889,-60.9878693,-53.3329201,-42.7350349,-32.6709785,-27.2652149,-28.8734131,-36.4303398,-45.6914063,-51.3499947,-49.8307571,-41.1189232,-28.5688896,-16.872591,-9.45458698,-6.83207893,-6.79362488,-6.09873819,-2.51982307,4.02811718,11.8235054,18.7209034,23.5615997,26.7065067,29.470787,32.9948883,37.4126205,41.8950386,45.4925232,48.1264458,50.9722061,55.8774567,64.1054916,75.1604538,86.4617081,94.1769714,94.8831177,87.2468262,72.8751221,55.8770676,41.3040466,33.1665993,32.9182587,39.0606728,47.992691,55.6539803,59.1790466,57.8291206,52.870266,46.6010132,41.1249847,37.5124931,35.6971397,34.9939308,34.7852135,34.8920174,35.4346199,36.3798027,37.2069931,37.0369415,35.2134628,31.9573708,28.5856476,27.0250015,28.8003273,34.0660858,41.291851,47.8753777,51.4147758,50.9724731,47.6398506,44.0879555,43.3339806,47.353405,56.2076111,68.047348,79.904068,88.8433075,92.981781,92.0257416,87.2376251,80.925705,75.639801,73.2804947,74.3582077,77.6699219,80.6207733,80.2295609,74.5390549,63.8464355,51.0921288,41.0162086,38.2582855,45.1637306,60.3433952,78.7986069,93.7331619,99.3501816,93.3936081,78.2438126,60.0100975,45.9900742,41.6229668,48.2922707,62.9209976,79.4646606,91.553009,95.0590973,89.4959564,77.7514877,64.4688797,53.9545059,48.6086235,48.4917297,52.0089493,57.1464157,62.5132217,67.6847916,72.8359985,78.0854645,83.0895386,87.1751785,89.8697815,91.3704224,92.5223007,94.2309341,96.6841202,98.9716873,99.4930038,97.0198669,91.7788239,85.7905426,82.0887146,83.1420364,89.3679504,98.6746597,107.401947,112.189888,111.702065,107.184669,101.54023,97.515213,96.1464615,96.4213181,96.2961197,94.3170776,90.7035522,87.1450806,85.4755249,86.192688,87.9256287,88.3042908,85.6832886,80.5147171,75.3295135,73.2018509,75.6372757,81.3002853,86.5328751,87.4677124,82.4680328,73.3371048,64.4707184,60.4056969,63.2381554,71.4705734,80.958046,87.3244324,88.3557739,84.9695511,80.31073,77.6832962,78.65271,82.397377,86.4963989,88.4529419,86.9388351,82.1297379,75.2210236,67.7164841,61.040741,56.5551758,55.5976524,59.1225395,66.9371719,77.0661011,85.9422531,89.7085037,86.1364365,76.0828323,63.4784355,53.62743,50.6257362,55.3170128,64.9603271,74.8047409,80.6447449,80.879776,76.9510498,72.0494843,69.0167465,68.7646179,70.098732,70.8838043,69.6599121,66.6250153,63.40765,61.8832779,62.8821983,65.6390991,68.2954407,69.0758514,67.3646469,64.0245285,60.8029022,59.2181435,59.5860863,60.7212029,60.4544716,56.693718,48.5149879,36.7816467,23.9920635,13.355238,7.40242958,6.67488813,9.10060215,10.491045,6.15212584,-6.96089315,-28.5239868,-54.5121117,-78.6366882,-95.039444,-100.975845,-98.0815048,-91.4653473,-87.0221252,-88.3748932,-95.1250229,-103.392395,-108.327888,-107.125198,-100.748215,-93.3369751,-89.6375275,-91.9953079,-98.7331772,-104.922417,-105.13018,-96.5462952,-80.6646576,-62.5528984,-48.1624794,-41.2572899,-41.7073822,-46.0337944,-49.7417793,-49.9656754,-46.8587456,-43.0112114,-41.4155502,-43.3556747,-47.5697021,-51.1754456,-51.7120781,-48.9497452,-45.2738228,-44.3495712,-48.8492775,-58.6189613,-70.4170761,-79.4333649,-81.7554474,-76.4089737,-65.8608322,-54.7561569,-47.6339302,-46.8618736,-51.8117485,-59.5381927,-66.4132156,-69.7609558,-68.7139282,-64.0785904,-57.5626144,-50.9416542,-45.5718575,-42.2811813,-41.408783,-42.7743263,-45.588089,-48.5174141,-50.1018105,-49.4446945,-46.8079796,-43.6612549,-42.0064888,-43.2710457,-47.4148598,-52.8549347,-57.3465996,-59.3465881,-59.0246353,-58.2479782,-59.4766273,-64.1968765,-71.8488159,-79.9352646,-85.2944641,-85.8054047,-81.5262375,-74.6050797,-68.0428467,-64.0580139,-63.0106888,-63.465229,-63.2793999,-61.0122948,-56.8153,-52.3256264,-49.6948509,-50.3539696,-54.2123375,-59.6771812,-64.4112244,-66.378418,-64.656395,-59.685627,-52.9385376,-46.2406158,-41.066349,-38.0769882,-37.029583,-37.0434189,-37.0913582,-36.5107193,-35.3143539,-34.1521339,-33.924305,-35.2274437,-37.9268913,-41.1114502,-43.4914169,-44.0456772,-42.5610237,-39.7499313,-36.8711777,-35.072052,-34.8360023,-35.8471985,-37.3169632,-38.5292206,-39.2403374,-39.6906433,-40.2629738,-41.0658455,-41.7601929,-41.7630882,-40.6828918,-38.6645927,-36.3780937,-34.630291,-33.852478,-33.8169861,-33.7950249,-33.0728645,-31.4941845,-29.6639786,-28.6595078,-29.4105759,-32.1263199,-36.1190987,-40.1273766,-42.9330444,-43.9021645,-43.1518517,-41.3001595,-39.0160332,-36.6834869,-34.375885,-32.0972099,-30.0580273,-28.7426949,-28.691555,-30.1428337,-32.7952385,-35.8807907,-38.5274658,-40.189415,-40.8693466,-40.992672,-41.0251427,-41.0977249,-40.8965607,-39.8949738,-37.7693977,-34.7105103,-31.4036274,-28.6687069,-26.9779987,-26.1581554,-25.4742584,-24.0560741,-21.4135857,-17.7350864,-13.7970886,-10.5515442,-8.64202785,-8.12513447,-8.53066158,-9.18427467,-9.57269955,-9.53728676,-9.21743393,-8.83194065,-8.47364426,-8.05359554,-7.4058032,-6.44641876,-5.25272036,-3.99995255,-2.80976081,-1.63573468,-0.288428932,1.40013838,3.38023448,5.30164528,6.62649345,6.89556122,5.99969912,4.29038525,2.4483819,1.16809511,0.824819028,1.30748999,2.11073804,2.63692737,2.54199243,1.93296385,1.30453897,1.24427915,2.06399727,3.56085992,5.04857492,5.65945864,4.77245569,2.34906435,-1.00204015,-4.27594852,-6.52077579,-7.26409864,-6.70578957,-5.586236,-4.80475998,-4.98575163,-6.20623827,-8.00356102,-9.63346004,-10.4293756,-10.084033,-8.73829651,-6.87201548,-5.08092976,-3.8504343,-3.40471125,-3.65557337,-4.23837185,-4.61435652,-4.22298813,-2.65934992,0.173394278,4.00526381,8.28410912,12.3881264,15.8715725,18.6114826,20.7662697,22.5671024,24.0737896,25.060936,25.1240845,23.950552,21.5813332,18.4824314,15.3609781,12.8288012,11.1213531,10.0468254,9.18813419,8.2121706,7.07354593,5.98230267,5.17828035,4.69478178,4.29827595,3.65445209,2.59441137,1.26990092,0.0630531237,-0.69822073,-1.0083245,-1.21752656,-1.77457225,-2.84396839,-4.08183575,-4.77025747,-4.26677465,-2.48760462,-0.0840912983,1.85003734,2.39469171,1.36451125,-0.553922951,-2.19927239,-2.63372302,-1.70747018,-0.133585095,0.970517814,0.777938843,-0.758925319,-2.92414546,-4.72378349,-5.5075469,-5.32414389,-4.80551243,-4.69635057,-5.36999559,-6.65378952,-8.05192947,-9.1734314,-10.0423965,-11.0698824,-12.7195292,-15.1190815,-17.9039001,-20.4092045,-22.0803299,-22.8201313,-23.0400028,-23.3865414,-24.331728,-25.8941841,-27.6565971,-29.0417938,-29.6504841,-29.4497833,-28.7265358,-27.8817539,-27.226099,-26.8954163,-26.8894157,-27.1454792,-27.5607738,-27.9565182,-28.0586777,-27.5724964,-26.3453274,-24.5106907,-22.4796276,-20.7316475,-19.5057087,-18.5915127,-17.385664,-15.2137699,-11.7329426,-7.15421867,-2.12493873,2.66897798,6.92795849,10.9076529,15.2106295,20.331049,26.2543983,32.386898,37.8756866,42.1212158,45.1509666,47.6088486,50.3619423,53.973484,58.3763466,62.9513283,66.9570618,70.0406952,72.5163651,75.2488785,79.2193909,85.0249557,92.577446,101.129219,109.56636,116.790764,122.014717,124.885292,125.459549,124.100266,121.347092,117.781219,113.889923,109.959549,106.048531,102.075012,97.9886627,93.9262695,90.236145,87.3263474,85.4108276,84.3153687,83.4896774,82.2501755,80.1238098,77.0825272,73.514061,69.939621,66.6561279,63.5363693,60.1229858,55.9615936,50.9606819,45.5454788,40.5030899,36.609951,34.2626419,33.319355,33.2184181,33.2730751,32.9564819,32.0329056,30.5145969,28.5340271,26.244648,23.7995758,21.3716717,19.1446095,17.2470779,15.6771278,14.2983837,12.9444246,11.5728083,10.3455744,9.54383183,9.34312916,9.60034561,9.83040237,9.44163895,8.11391926,6.07267618,4.04236555,2.85551929,2.93136811,3.95695376,5.00698328,5.07109833,3.68624854,1.27959418,-1.01278651,-1.96587682,-0.961192548,1.66002047,4.79442883,7.19507885,8.12756634,7.67630529,6.55051136,5.56058693,5.12651253,5.12551689,5.13400698,4.84941912,4.37313414,4.15833759,4.67967319,6.08098745,8.06345367,10.0908947,11.7502108,12.9894705,14.0488548,15.1358643,16.102623,16.4045086,15.4284916,13.0028381,9.7332325,6.88258171,5.79260206,7.15606546,10.5806694,14.7378922,18.0438557,19.4885941,19.1276436,17.9470444,17.1919231,17.5747757,18.8491268,20.0035725,19.9446011,18.2346172,15.4204731,12.7445841,11.4138975,11.8746958,13.5368567,15.1159315,15.3860807,13.8907747,11.1884146,8.49417782,6.94274902,6.9192028,7.85619688,8.60813904,8.16362,6.25636435,3.50261879,0.985345125,-0.453811377,-0.772510648,-0.781075835,-1.64318395,-4.11689997,-7.99842596,-12.1228514,-14.9503155,-15.4151154,-13.5490103,-10.5113573,-7.99789953,-7.3577261,-8.91208839,-11.8444109,-14.6962347,-16.1615562,-15.7245722,-13.8108311,-11.4298334,-9.58030319,-8.79120731,-9.03539371,-9.98576832,-11.3695793,-13.1503325,-15.4298964,-18.1870365,-21.0904522,-23.5614109,-25.0656662,-25.4336662,-24.9756584,-24.299099,-23.9471779,-24.1050835,-24.5708046,-24.9948177,-25.1982746,-25.3251648,-25.7122746,-26.5785141,-27.7813702,-28.8500938,-29.3039341,-29.041996,-28.5139103,-28.512907,-29.6914215,-32.1048508,-35.0930862,-37.6009026,-38.7537384,-38.3375397,-36.8928528,-35.3823242,-34.6560822,-35.0467377,-36.311348,-37.8944206,-39.2873421,-40.2377815,-40.7147827,-40.7340317,-40.2406425,-39.1698914,-37.6306419,-36.028038,-34.9698296,-34.9687767,-36.1322174,-38.0733871,-40.1408005,-41.8330383,-43.1161537,-44.4092178,-46.228672,-48.7297058,-51.4727669,-53.6026306,-54.3457413,-53.5042305,-51.6136055,-49.6489449,-48.4637108,-48.3206253,-48.8052254,-49.1512451,-48.7355766,-47.4053116,-45.439064,-43.2111664,-40.8297424,-38.018486,-34.3189392,-29.4526291,-23.5732918,-17.2309284,-11.0857382,-5.58711624,-0.842312455,3.25820565,6.79129219,9.64894676,11.6177654,12.6307182,12.9826765,13.3123026,14.3203831,16.3936119,19.3851414,22.7040577,25.6562195,27.8099041,29.1530514,29.9668522,30.5440083,30.9804649,31.1949272,31.1418304,31.0244465,31.3070374,32.4757652,34.695797,37.6093025,40.440136,42.3688202,42.9577599,42.3698044,41.2563324,40.3992615,40.3313408,41.1443634,42.5500145,44.0963135,45.3747444,46.1115646,46.1554031,45.4512062,44.0696373,42.2717934,40.5190201,39.3558388,39.1927567,40.1136589,41.8414268,43.8960838,45.8414345,47.4483795,48.6663857,49.4487915,49.6041107,48.8381195,47.0020561,44.3761787,41.7427254,40.1140633,40.219532,42.0535202,44.7937584,47.1863098,48.1932716,47.5156288,45.6714401,43.5944023,42.0301132,41.1343269,40.5272102,39.7337265,38.6662178,37.7754745,37.7337723,38.8541908,40.6553879,41.903511,41.1521072,37.4681664,30.9043293,22.4395294,13.4491005,5.05071831,-2.2821331,-8.65808487,-14.3844299,-19.5801563,-24.0563183,-27.5042782,-29.7981014,-31.1500797,-31.9945984,-32.7010078,-33.352829,-33.7759438,-33.7970238,-33.5232391,-33.4040108,-33.9925613,-35.5548592,-37.8031616,-39.9619598,-41.1506996,-40.8504639,-39.1649399,-36.7280502,-34.345417,-32.6162872,-31.7592182,-31.6905136,-32.2196655,-33.1720963,-34.3574562,-35.473114,-36.1158295,-35.9904022,-35.2115974,-34.4534645,-34.7445412,-36.9367828,-41.1385689,-46.4965248,-51.5376358,-54.9300728,-56.2200127,-56.0703583,-55.814209,-56.571106,-58.4741096,-60.5105362,-61.1040878,-59.0933418,-54.500061,-48.6015816,-43.2546654,-39.8819122,-38.7349739,-38.8630371,-38.7714195,-37.3384285,-34.4310684,-30.8833981,-27.9141006,-26.3896523,-26.3877354,-27.2779007,-28.1921844,-28.5370541,-28.2272625,-27.5520134,-26.8385239,-26.1851063,-25.4419231,-24.4121628,-23.0868301,-21.7204285,-20.6920547,-20.2631664,-20.4158058,-20.8856239,-21.3537807,-21.6461678,-21.791893,-21.9078579,-22.0123158,-21.9250774,-21.3453808,-20.0620251,-18.1457596,-15.9791965,-14.0909739,-12.8980341,-12.5235023,-12.8023672,-13.4533863,-14.280014,-15.2489738,-16.39258,-17.6198521,-18.6004639,-18.8444099,-17.9628048,-15.9550209,-13.3231964,-10.9042997,-9.48069477,-9.37492466,-10.2593889,-11.2975941,-11.5484829,-10.419054,-7.92870617,-4.6588707,-1.43570316,1.07065535,2.61978412,3.42437339,3.94165492,4.56704378,5.3976264,6.1794982,6.4511466,5.80029058,4.10520983,1.64578199,-0.969041288,-3.02966881,-4.01278114,-3.79806828,-2.70944595,-1.35094464,-0.307405382,0.143079907,0.151447937,0.180730179,0.708624601,1.9205333,3.5829711,5.18812895,6.29288387,6.8408761,7.24734354,8.16279793,10.0380669,12.7593842,15.6044941,17.585516,17.9985962,16.8509312,14.8868313,13.1672497,12.4327707,12.625062,12.8596039,11.8783102,8.72604942,3.26588678,-3.74803233,-11.0530367,-17.4656582,-22.3307076,-25.6065369,-27.6099491,-28.6491756,-28.8139133,-28.0483608,-26.4171505,-24.336647,-22.5693302,-21.9492931,-22.9942665,-25.642292,-29.2733517,-32.9951782,-36.0128822,-37.8660622,-38.4234047,-37.6977463,-35.6578102,-32.2010422,-27.310955,-21.2693977,-14.7238512,-8.49856472,-3.21959305,1.0082798,4.61760521,8.19493675,11.8746948,14.8888493,15.6381741,12.3862352,4.287673,-7.8212328,-21.4125443,-33.2018585,-40.6430054,-43.198082,-42.6221581,-41.9980736,-43.9766617,-49.1996536,-55.8617973,-60.7562027,-61.2710266,-57.184597,-51.1464233,-47.4587746,-49.7750282,-59.0115929,-72.6883469,-86.1032639,-94.6841507,-96.1890488,-91.5550537,-84.0233231,-77.1745148,-73.0700531,-71.5026093,-70.593071,-68.1574707,-62.9255524,-54.9704323,-45.3399124,-35.3783073,-26.2695885,-18.9659863,-14.2457104,-12.5472641,-13.5266161,-15.7143269,-16.7916012,-14.6561069,-8.80574322,-1.11902952,4.72221279,5.13734388,-1.08758366,-11.5680866,-21.0591507,-23.9600048,-17.2549667,-2.19473076,16.3001957,32.1928787,41.3611717,43.3762207,41.1107368,38.5979919,38.5730705,41.1860237,44.5048981,46.2429657,45.4338684,42.962841,40.7445946,40.2716637,41.6098328,43.5009956,44.398983,43.6229439,41.7965584,40.3141174,40.2877731,41.7693596,43.7881012,45.122139,45.1964798,44.4459991,43.9099159,44.3987312,45.8711777,47.4758186,48.2048683,47.6583633,46.3498116,45.3330688,45.4282303,46.6084747,47.9848022,48.395771,47.1889725,44.6633034,41.8915176,40.0678978,39.8253098,40.9476128,42.6081772,43.9185066,44.4089699,44.1698151,43.6448822,43.2894135,43.3363495,43.7749443,44.46735,45.2534561,45.9599075,46.3553886,46.1599884,45.164608,43.3969269,41.1953011,39.0950089,37.5683289,36.7817154,36.5383034,36.4487495,36.2090187,35.7866096,35.3875618,35.2440186,35.3978539,35.6552925,35.7499924,35.5838699,35.3473663,35.4092903,36.0452309,37.2053947,38.5033379,39.4465599,39.7476158,39.4904022,39.0322609,38.721714,38.6523933,38.6453934,38.4711113,38.1233025,37.8988914,38.1743317,39.0117874,39.8963318,39.8610191,38.0081139,34.1436081,29.1126137,24.5637169,22.2073021,22.9567833,26.4393711,31.1646366,35.2614441,37.3707542,37.2079697,35.5219269,33.5361061,32.2394867,31.9377193,32.2758942,32.6437378,32.6622772,32.4430237,32.4865875,33.3203316,35.1191444,37.5385933,39.8459625,41.2633171,41.3342743,40.135128,38.244072,36.4988441,35.6564102,36.0946541,37.6694031,39.7790108,41.6125679,42.4866447,42.1332855,40.8118019,39.1864738,38.0190887,37.8187027,38.6189423,39.9917145,41.2848358,41.9546432,41.8206749,41.1202736,40.3547134,40.0251579,40.398056,41.4012985,42.6704025,43.6943817,43.9884415,43.2411804,41.4134941,38.7768059,35.8697243,33.3531036,31.7780342,31.3429661,31.7614956,32.3427124,32.2888069,31.0858269,28.785017,26.007473,23.6494389,22.4393215,22.5907803,23.7446213,25.2200909,26.4118881,27.0889626,27.4284515,27.7981529,28.4628677,29.4237156,30.4862595,31.4762573,32.4111633,33.473259,34.7913132,36.2034798,37.2164192,37.2503815,36.0458946,33.9567528,31.886528,30.840929,31.3332596,33.0141792,34.7937279,35.4303932,34.2591095,31.616745,28.6866188,26.831913,26.8064651,28.3156376,30.1910324,31.0681515,30.1509552,27.6041565,24.3574448,21.4777508,19.5267849,18.3083363,17.1382866,15.4238367,13.1439362,10.9041615,9.53546047,9.5163393,10.6159706,12.005537,12.7703676,12.4866962,11.4824018,10.6080084,10.6645908,11.8577547,13.6277246,14.960453,14.9761238,13.4193249,10.7474566,7.77750015,5.13312674,2.85312653,0.407669395,-2.89923501,-7.40979719,-12.8138132,-18.2651234,-22.8430824,-26.0746765,-28.1979141,-30.0079346,-32.3792267,-35.7470665,-39.8485947,-43.8662872,-46.8827095,-48.3830605,-48.5256538,-48.0405312,-47.8269615,-48.4812317,-50.0128326,-51.8922501,-53.3878822,-53.9958382,-53.7258377,-53.0945587,-52.8418999,-53.5339355,-55.2702675,-57.6475143,-59.9851608,-61.6783409,-62.4817276,-62.5801125,-62.4298096,-62.4836159,-62.966301,-63.819664,-64.8219604,-65.7797012,-66.657196,-67.566391,-68.6438217,-69.9197769,-71.2841339,-72.5763779,-73.7292023,-74.8481064,-76.1490402,-77.7784882,-79.6347733,-81.3271866,-82.3320084,-82.2771683,-81.1931152,-79.5710373,-78.1736221,-77.6872787,-78.3993607,-80.0716705,-82.0714035,-83.68013,-84.4138565,-84.1992874,-83.34552,-82.3630295,-81.7458115,-81.8194275,-82.6926498,-84.2850647,-86.3799591,-88.6745529,-90.8348923,-92.5735168,-93.7409363,-94.3829575,-94.7060471,-94.9360046,-95.1320953,-95.0755997,-94.3363037,-92.5242615,-89.6058426,-86.0865784,-82.9013138,-81.002594,-80.8233337,-81.8985596,-82.8852158,-82.0286331,-77.8858566,-69.9646072,-58.9631042,-46.4922142,-34.4217911,-24.1741238,-16.292757,-10.449543,-5.818151,-1.57171822,2.75750756,7.19712114,11.4977512,15.3868122,18.7526093,21.6846752,24.3993626,27.1298752,30.0386963,33.1574364,36.3323326,39.1793518,41.1014023,41.4329491,39.7166901,36.0080643,31.0250053,25.9901371,22.1642399,20.2657623,20.0857773,20.5464115,20.2249737,18.0959206,14.0942993,9.17866325,4.84047031,2.31745744,1.93788838,2.94842172,3.90534449,3.39930487,0.717724919,-3.88644719,-9.4094162,-14.6202354,-18.5846577,-20.9359531,-21.8244724,-21.6633472,-20.8648586,-19.7067699,-18.3445988,-16.8882999,-15.4496489,-14.1258516,-12.9553146,-11.9037466,-10.9036198,-9.91458321,-8.94965649,-8.04105473,-7.1760354,-6.26590109,-5.19062376,-3.90005898,-2.50003266,-1.25167418,-0.469779193,-0.378620386,-1.01580405,-2.24046969,-3.82623506,-5.56011963,-7.27280664,-8.79051495,-9.87302303,-10.2242823,-9.60901737,-8.01683998,-5.75629091,-3.38692236,-1.49909985,-0.459418923,-0.274734616,-0.657136142,-1.2405771,-1.79775667,-2.30941749,-2.84732914,-3.37244987,-3.61794543,-3.17065287,-1.71855915,0.700105846,3.63131547,6.39564037,8.43446827,9.59859085,10.1938305,10.7525225,11.6770067,12.9810419,14.2844934,15.0464268,14.8708591,13.690052,11.7350645,9.36001968,6.87800789,4.52916956,2.56993914,1.35525358,1.27945995,2.55852056,4.98821449,7.87770128,10.2702637,11.371068,10.939333,9.39351845,7.54591656,6.12229586,5.36994886,5.0045433,4.52062082,3.64252853,2.59440017,1.99159765,2.4205718,3.99705505,6.21663189,8.21639442,9.28427792,9.27977276,8.68702126,8.27095222,8.57562065,9.60520554,10.8928013,11.8871899,12.3674307,12.5834436,13.0242138,13.9875937,15.2734718,16.2399158,16.2070408,14.9426193,12.8909807,10.9631577,9.9889307,10.1570873,10.7996855,10.697361,8.80657578,5.08624411,1.02911282,-0.408551484,4.4110136,18.4474888,42.4234505,73.6360168,105.755363,130.024124,137.779572,123.573151,87.6583481,36.6062202,-18.5455856,-66.0982742,-97.8977203,-112.028389,-112.705399,-107.458412,-103.11277,-102.709435,-104.940315,-106.197578,-103.794418,-98.2444992,-93.1163254,-92.541275,-97.9882889,-106.455376,-111.40789,-106.102432,-87.4211502,-57.9539909,-25.0572834,2.61651278,19.1670361,23.8471298,20.6359272,15.4789944,12.9664068,14.3521547,17.8184681,20.4549446,20.4728546,18.2452946,15.7044134,14.7488174,15.8795748,17.9822788,19.2925415,18.7636147,16.8416672,15.1376266,15.2803316,17.7802086,21.6752758,25.1564693,26.7028961,25.9556465,23.7938747,21.6467495,20.5683823,20.6969757,21.3911266,21.8495369,21.7223701,21.2952576,21.1799145,21.8017311,23.0842724,24.5409508,25.6615162,26.2717628,26.5932312,26.9801197,27.5630188,28.0938435,28.1216564,27.3667583,25.9993515,24.5906467,23.7427273,23.645628,23.8797951,23.6270027,22.1782856,19.421278,15.9912796,12.9789171,11.3648071,11.5194302,13.0615101,15.1459589,16.9958248,18.3576984,19.6192513,21.5342884,24.7261181,29.2559338,34.4943314,39.360321,42.7961121,44.2300682,43.7980385,42.2248154,40.4410782,39.1398582,38.4986458,38.2015953,37.7360725,36.7912178,35.5293732,34.5683899,34.6726341,36.3181305,39.3775063,43.1114426,46.4836235,48.630722,49.2290649,48.5615196,47.2672958,45.9438286,44.8485451,43.8698502,42.7539368,41.4067116,40.0481682,39.1061554,38.9222374,39.4777985,40.3407364,40.8869781,40.6641464,39.6649017,38.3310585,37.282814,36.943119,37.2918282,37.8961411,38.186615,37.7982674,36.7694893,35.4955025,34.4916077,34.1275101,34.4861603,35.3983536,36.5879936,37.8120155,38.9164696,39.8130875,40.4383087,40.7487106,40.7499847,40.5089722,40.1068153,39.5521469,38.7316742,37.4719162,35.7067566,33.6437988,31.7818546,30.7025604,30.7120457,31.5431252,32.3400269,32.0039597,29.7535534,25.5916042,20.3860931,15.4789267,12.0151997,10.366272,9.98134041,9.75759888,8.71323872,6.56711626,3.8870604,1.72922719,0.99437809,1.8878895,3.79577374,5.63226938,6.43773985,5.87563992,4.3603673,2.77873373,1.99549592,2.4262383,3.8813076,5.7062006,7.0882616,7.35451555,6.15155506,3.50235891,-0.206458583,-4.27205706,-7.77909088,-9.80492592,-9.72099304,-7.48761511,-3.77568436,0.211894006,3.19982004,4.38906431,3.81623316,2.31728697,1.09272599,1.0922637,2.54177856,4.85739231,6.97521257,7.8993578,7.16759825,5.00638533,2.13987923,-0.592977583,-2.58371234,-3.60001445,-3.71851087,-3.15589476,-2.13622069,-0.861759841,0.445777178,1.52015269,2.10083604,2.04145789,1.39884484,0.429067433,-0.519877374,-1.1568085,-1.3499068,-1.13327324,-0.63673532,-0.004328846,0.643260539,1.19902158,1.55632603,1.63542271,1.44617772,1.13182569,0.932019949,1.05726588,1.54334927,2.19094253,2.65284705,2.63057542,2.05451465,1.11849523,0.134014815,-0.699429452,-1.43982446,-2.3453846,-3.6417551,-5.28190708,-6.8947916,-7.9991703,-8.36448002,-8.26824093,-8.43489265,-9.6388998,-12.1909065,-15.6371279,-18.8979664,-20.8053455,-20.7368755,-18.9648132,-16.5006714,-14.5251818,-13.7499914,-14.0950642,-14.8593063,-15.2474108,-14.8992062,-14.0868721,-13.4798079,-13.6637154,-14.7480507,-16.3132439,-17.7041664,-18.4443226,-18.4834232,-18.1319294,-17.7688847,-17.5637093,-17.4219551,-17.1791496,-16.8689022,-16.8291645,-17.5309238,-19.2278328,-21.6747627,-24.1356049,-25.710577,-25.7938671,-24.3785515,-22.0239773,-19.5221634,-17.4893837,-16.1378956,-15.3380489,-14.8727531,-14.6658535,-14.8143091,-15.4265919,-16.4298363,-17.5325527,-18.3995838,-18.9132977,-19.3043976,-20.0161572,-21.3656101,-23.2373524,-25.0529881,-26.0815239,-25.9102383,-24.7583408,-23.3969307,-22.6956902,-23.0782013,-24.2482929,-25.3834743,-25.6824627,-24.9101143,-23.575386,-22.6174278,-22.8038158,-24.2391872,-26.3091087,-28.0905075,-28.9465752,-28.9041405,-28.5667229,-28.6380863,-29.3972073,-30.4924316,-31.194418,-30.9242077,-29.68083,-28.0658245,-26.887785,-26.6279984,-27.1480389,-27.8502655,-28.1790123,-28.0999279,-28.1954651,-29.2714577,-31.711977,-35.012661,-37.8315468,-38.574173,-36.1875496,-30.6976395,-23.1789875,-15.1902924,-8.02424622,-2.20685697,2.50175238,6.67634106,10.6879129,14.4083195,17.3159695,18.8891907,19.0042171,18.083952,16.9299698,16.3743191,16.9749279,18.90798,22.0537643,26.149889,30.8795662,35.8591042,40.6002846,44.5562782,47.28862,48.6753426,49.0134506,48.912674,49.009304,49.6577682,50.7887878,52.0271492,52.9981918,53.6284218,54.2458267,55.4109001,57.5795937,60.804287,64.6531525,68.3926392,71.3211975,73.063324,73.674118,73.5300674,73.1056137,72.7805023,72.7715149,73.1804504,74.072731,75.497673,77.4270248,79.6678314,81.8391418,83.4640274,84.1466904,83.7377625,82.3875961,80.4526367,78.310318,76.1940613,74.1435928,72.0876846,69.9881439,67.9341583,66.1119385,64.6632538,63.5294075,62.3979759,60.8111954,58.3906898,55.0504608,51.0635147,46.9277153,43.0974083,39.7356377,36.6386185,33.3870201,29.6424484,25.4147491,21.1360588,17.4874458,15.0697823,14.1026573,14.3174505,15.0932436,15.7411156,15.7624731,14.9396467,13.2374582,10.6217728,6.94979763,2.02543616,-4.21554327,-11.5316019,-19.3609886,-27.0147457,-33.9825935,-40.1695633,-45.9112511,-51.7474403,-58.0836067,-64.9390335,-71.924736,-78.4510956,-84.0291443,-88.4870758,-91.9948578,-94.91922,-97.6266098,-100.353279,-103.181587,-106.0709,-108.864861,-111.252281,-112.745171,-112.770981,-110.912277,-107.199425,-102.267609,-97.2176743,-93.1812134,-90.791954,-89.8686981,-89.5296326,-88.7121429,-86.8136139,-84.0672913,-81.407341,-79.8866577,-79.9989624,-81.334404,-82.8012848,-83.2916794,-82.378006,-80.5946274,-79.1115036,-78.992218,-80.4985809,-82.8833847,-84.8093643,-85.1378403,-83.5977478,-80.9226303,-78.3798447,-76.9950714,-76.9560242,-77.55159,-77.6574097,-76.4420013,-73.8519592,-70.601059,-67.7141876,-65.9452744,-65.4319839,-65.7604446,-66.3342514,-66.7639236,-67.0228958,-67.3116226,-67.7816544,-68.3491516,-68.732338,-68.6633606,-68.0955811,-67.2422409,-66.4214478,-65.8322372,-65.4336014,-65.0116425,-64.3723297,-63.5040817,-62.5857506,-61.8428497,-61.3747978,-61.0949097,-60.8293915,-60.4903526,-60.177124,-60.1188889,-60.5030899,-61.3292389,-62.4078026,-63.5011597,-64.4796906,-65.3479843,-66.1082077,-66.584259,-66.3965149,-65.1800919,-62.934761,-60.24049,-58.1081429,-57.4692802,-58.5900955,-60.8113937,-62.852211,-63.5515747,-62.601284,-60.7807579,-59.5010185,-59.9187469,-62.1862373,-65.3359146,-67.8876953,-68.7834015,-68.0294113,-66.6256104,-65.8456955,-66.3730469,-67.8814774,-69.323143,-69.6836624,-68.6464691,-66.7014008,-64.6609268,-62.9912033,-61.4918633,-59.5752106,-56.9151535,-53.9280815,-51.654705,-51.0671959,-52.2906609,-54.3430634,-55.6538353,-55.0552483,-52.5670166,-49.4044724,-47.1738548,-46.7986069,-47.9222298,-49.1995735,-49.2532082,-47.5970001,-44.8662796,-42.218708,-40.3930893,-39.1669388,-37.6401558,-35.1224289,-31.9089661,-29.2804852,-28.6419582,-30.3959503,-33.409317,-35.5501823,-35.0013542,-31.4589043,-26.3581486,-21.9363499,-19.7715282,-19.8213711,-20.6313629,-20.5337257,-18.9381084,-16.7561913,-15.6556482,-16.7211781,-19.5497856,-22.4801197,-23.7909374,-22.9552689,-20.9806595,-19.5598221,-19.6797562,-20.7806625,-21.1575718,-19.3398018,-15.3928251,-11.090107,-8.73306656,-9.44717407,-12.2436829,-14.6206493,-14.3337011,-11.0494852,-6.62237406,-3.73223448,-3.86492395,-6.16104937,-8.05090237,-7.25075531,-3.61998105,0.585252047,2.35210037,0.274527341,-4.16204023,-7.44840193,-6.5459342,-1.19904494,5.70629311,10.1132269,9.7159729,5.66976881,1.75649643,1.55755615,5.72781086,11.4651289,14.6608047,13.1615782,8.63911724,5.52354956,7.66645145,15.2101097,24.1296921,28.9895878,26.9954548,20.2991238,14.6696453,15.3221397,22.9251232,32.8480415,38.4083595,35.8624077,27.4246349,19.8974075,19.7091217,27.9431038,39.1476288,45.0535316,40.6644859,28.2550297,16.1620407,13.0234652,21.5660763,36.5518532,48.5492439,50.8812523,44.6239815,37.8345566,39.4331474,52.240551,70.4736252,83.7895432,85.0354156,75.9035645,66.0554047,66.0990753,79.5413361,99.8498154,115.111694,117.049065,107.64727,98.1657333,100.906624,119.7089,146.420349,166.381348,169.195938,156.82309,142.669571,141.930939,160.126129,188.483383,210.012131,212.109879,196.364563,177.922577,174.423828,192.500732,222.093887,243.346008,241.422821,218.289246,192.234512,184.843979,204.705521,240.117401,266.826416,265.67804,237.266724,202.338821,187.005112,203.319351,239.765259,269.286011,269.456055,239.899612,203.511475,189.82753,212.487473,257.821564,293.881836,294.017639,257.650787,212.178375,193.564819,219.362991,274.380585,320.562897,324.758179,284.087708,229.489685,203.71106,229.312347,290.589447,343.824402,349.355957,302.026154,236.712189,203.573959,230.494614,300.770142,363.771515,371.970978,317.30365,239.090179,196.159546,222.793121,301.376678,373.431458,382.412476,317.095551,222.447784,168.121597,196.5784,289.428223,378.505676,395.348785,323.189209,211.984833,143.360001,169.871399,273.685211,377.007202,398.642334,315.664063,183.440567,96.9131699,120.040764,235.801193,355.80127,384.814301,293.424469,143.640839,45.7403107,76.1233597,217.124863,365.794922,408.209564,305.708893,127.878258,4.68778706,30.5542889,191.198792,369.974548,432.308044,327.317719,129.92215,-11.2140512,15.7752695,198.791779,405.588837,479.64978,358.906769,127.539948,-41.7563248,-15.8161478,195.3983,439.968292,533.781128,399.817749,131.750565,-70.1925049,-47.7328796,192.487381,476.776825,590.157532,439.381165,129.877502,-106.302467,-83.0267029,194.807281,526.378174,660.546448,486.967346,127.684883,-146.157272,-116.725029,209.389252,595.149048,745.221741,532.255432,104.779297,-213.408539,-165.828659,232.58049,690.897217,852.768433,571.366272,38.5011406,-342.391205,-257.612,264.083282,847.980896,1040.00012,655.737183,-53.5827637,-561.501343,-453.969269,238.774033,1028.14368,1307.85852,814.710327,-137.328491,-850.284546,-750.267212,154.968414,1228.06213,1639.50769,998.736938,-291.179352,-1260.12732,-1068.21753,311.557037,1955.97754,2577.55298,1483.0708,-775.03772,-2597.55127,-2376.07568,257.891541,3841.43872,5671.66797,3357.50952,-3566.36987,-13000.9648,-21124.2285,-24322.5313,-21123.3926,-12999.083,-3563.11743,3362.47388,5678.68408,3850.90918,270.307739,-2360.27637,-2578.31421,-753.047058,1506.27271,2599.86499,1975.40479,326.933685,-1056.83142,-1251.6073,-283.960999,1005.94073,1647.31763,1236.57178,164.262909,-739.611206,-837.099426,-120.266968,836.486694,1334.1394,1057.61963,269.522308,-423.727264,-532.761414,-26.3130188,682.431946,1067.50269,877.809875,297.668488,-219.09256,-298.234375,88.2220535,625.574524,909.470642,747.713501,287.588684,-113.3106,-162.527679,156.007782,586.008362,802.863403,656.686768,273.666931,-51.227005,-80.377037,193.954758,554.969971,731.865723,602.059448,274.76355,-0.0364665426,-22.1551247,213.431976,521.351074,670.550049,556.409912,272.532562,33.7652473,13.3572216,217.451721,487.430054,622.982544,530.579651,287.47168,77.9133301,53.7330475,224.534317,456.634949,576.904358,501.079987,291.675629,106.138718,77.83918,219.741196,420.168976,529.788696,472.315002,297.031342,137.264954,109.222374,227.684174,399.449127,495.999084,448.91922,297.402985,155.184357,124.462563,221.892868,370.115173,458.173004,423.784515,296.540985,172.263763,140.252487,218.542709,344.006958,422.058014,397.031158,290.972534,183.942337,152.823242,215.165741,318.874573,383.275452,359.33667,264.231842,166.106201,132.305252,180.415802,267.708893,325.006104,308.321472,229.832718,146.50412,116.534019,156.828217,232.49028,284.588135,274.237793,210.091217,139.8694,113.686035,147.186813,211.470016,256.046112,246.692444,189.933823,126.811974,101.729401,130.083099,188.292618,232.526001,231.278534,187.531738,134.866974,111.54306,132.393021,179.085098,214.99794,212.757202,173.797958,126.054161,102.435913,116.637794,154.031036,183.612732,181.376221,147.569946,105.539452,83.8060913,95.1701508,128.177979,156.602142,159.213104,134.972015,102.781052,86.6714325,97.8907318,127.109955,152.015259,154.102783,132.048309,102.053688,85.4560242,93.1313782,118.135727,141.540375,146.627335,130.775681,106.547768,91.7222595,96.0527115,114.53289,131.752319,133.645477,117.738457,94.5097275,79.2878265,81.0087891,96.1317978,111.865921,115.903694,105.281952,88.0018234,76.6229401,78.9113388,92.4871902,107.134087,112.656746,106.247246,94.0134659,85.8900604,88.0501785,98.555397,109.294991,112.459145,106.506195,97.1770096,92.9737778,98.6618118,111.700035,124.169861,128.619049,123.397469,113.583237,106.974297,108.26638,115.762306,122.945091,123.58918,116.520638,106.511192,100.730423,103.451462,112.910271,122.550583,125.654633,119.961197,109.005875,99.3858643,96.0796967,99.2178116,104.477585,106.56855,103.10524,96.0644531,89.9486923,88.2215576,90.7441254,94.0487289,94.0995483,89.3740845,81.9645538,75.9600906,74.4032898,77.1068878,80.8891373,81.9518051,78.5765152,72.1725311,66.0110092,62.7050934,62.3582611,62.7111969,61.0724411,56.500576,50.5783653,46.2284737,45.4990616,47.9904289,51.0785789,51.7404823,48.6204948,42.844696,37.0514908,33.4187622,32.1606445,31.5583534,29.4217491,24.8336449,18.8663235,13.764698,11.2391863,11.1513767,11.5580006,10.0660791,5.50440025,-1.28418791,-8.06033516,-12.7287512,-14.6871281,-15.0620651,-15.7456236,-17.9947376,-21.611887,-25.24156,-27.4834652,-27.9588203,-27.5588722,-27.7461834,-29.4729214,-32.5219307,-35.7207985,-37.8217773,-38.3766251,-37.9874306,-37.8081284,-38.7167969,-40.7755203,-43.326416,-45.5734329,-47.1581879,-48.2966156,-49.42733,-50.715107,-51.8491898,-52.3144913,-51.9145203,-51.1067123,-50.8458862,-52.0113945,-54.8236008,-58.6785049,-62.5280914,-65.5353851,-67.5383759,-69.0079193,-70.5642853,-72.437149,-74.2790756,-75.4606628,-75.6064148,-74.951622,-74.2423325,-74.2487869,-75.2513962,-76.8740005,-78.375618,-79.1742325,-79.2172241,-78.9453125,-78.9105301,-79.3611832,-80.11026,-80.7651978,-81.1092911,-81.3123245,-81.794899,-82.8571472,-84.3801117,-85.8584442,-86.7627945,-86.9620667,-86.8720398,-87.194664,-88.4244385,-90.4855423,-92.7757263,-94.591835,-95.6212997,-96.1293259,-96.6989365,-97.7236176,-99.0489731,-100.055588,-100.140854,-99.2434616,-98.0009613,-97.3902054,-98.0849686,-99.9892654,-102.292564,-104.019493,-104.68264,-104.565468,-104.430161,-104.870361,-105.797363,-106.456917,-105.982864,-104.089462,-101.386017,-99.0606384,-98.1358643,-98.8158417,-100.386795,-101.73925,-102.136688,-101.684555,-101.179306,-101.470566,-102.816643,-104.700829,-106.220528,-106.733559,-106.267746,-105.400322,-104.732948,-104.400787,-104.017517,-103.10025,-101.619652,-100.197708,-99.7380066,-100.727592,-102.743942,-104.591705,-105.041435,-103.67733,-101.240387,-99.1880722,-98.7507553,-100.137848,-102.448021,-104.330063,-104.894783,-104.20433,-102.998833,-101.9142,-100.845932,-99.0053787,-95.6644745,-91.0088272,-86.3716736,-83.546814,-83.5829773,-85.9160843,-88.5304642,-89.1368942,-86.6100159,-81.6950684,-76.4735794,-72.9472122,-71.7327805,-71.7882843,-71.3445816,-69.3366318,-66.2596207,-63.8005371,-63.509716,-65.5046844,-68.1907959,-69.2349243,-67.0922012,-61.9671555,-55.5146294,-49.5415688,-44.7319145,-40.3896713,-35.3821869,-29.4847832,-23.9559193,-20.7436161,-20.8402977,-23.1018314,-24.6465588,-22.8052902,-17.3114605,-11.0034304,-8.19376373,-11.5245886,-19.4036331,-26.0013542,-24.2153511,-9.96675587,14.8984165,43.1215591,65.8353653,77.3579636,77.9556351,72.8384399,68.1298218,66.5562668,65.7630234,60.3510628,46.1756248,23.8992233,-0.6852144,-19.8178978,-28.2902355,-26.2873001,-18.72295,-11.6786938,-8.5270071,-8.44625473,-8.24781227,-6.01567411,-3.72617602,-6.72368288,-20.1908169,-44.9812241,-75.8020477,-103.271446,-118.805733,-119.350082,-108.977066,-96.3364716,-89.5490417,-91.6855316,-99.4920425,-105.898766,-104.516701,-93.2760925,-75.1600571,-55.9732018,-40.8869934,-31.9972115,-28.152132,-26.6797447,-25.5067768,-24.2064571,-23.5306549,-24.1375427,-25.6839066,-26.9799576,-26.9646511,-25.6100407,-23.9729347,-23.3385658,-24.1437778,-25.5463696,-26.0020943,-24.4268589,-21.0661163,-17.4077015,-15.1881008,-15.2135715,-16.8479347,-18.5215912,-18.8695831,-17.6633186,-15.8766079,-14.8766422,-15.3668966,-16.8687248,-18.1089115,-18.0045967,-16.5036583,-14.6572084,-13.870986,-14.8806534,-17.1902599,-19.3737373,-20.0228043,-18.6754227,-16.0886307,-13.6897764,-12.6066465,-12.9436092,-13.770484,-13.7875767,-12.1858873,-9.13167572,-5.60061932,-2.73529434,-1.18548524,-0.841289401,-1.05796516,-1.14167225,-0.740826845,0.0785550922,1.03751159,1.91161132,2.65414596,3.32721901,3.95553231,4.45790052,4.71675158,4.7126627,4.5951767,4.62253237,5.02000475,5.87419319,7.14233017,8.74810314,10.6564598,12.8412046,15.166707,17.3053856,18.8131981,19.370203,19.045948,18.3883724,18.2234135,19.2410793,21.6036911,24.8236408,28.0041027,30.3122883,31.4101715,31.5956173,31.5874844,32.1015244,33.4755211,35.5518188,37.8572464,39.9471016,41.7006569,43.4026566,45.5738564,48.6454201,52.6449814,57.0540504,60.922924,63.2188797,63.2743759,61.1333504,57.607502,53.968483,51.3843117,50.3700943,50.556572,50.9338684,50.4582634,48.674263,45.965786,43.2646103,41.3957329,40.5002022,39.952076,38.8637314,36.8524437,34.5133705,33.1960144,34.1421738,37.5164223,42.0059471,45.3517113,45.5723877,42.1529083,36.433033,30.9057198,27.8249664,27.9758091,30.3635998,32.988945,34.1764297,33.5845718,32.2656746,31.7968655,33.1197701,35.8894043,38.7467155,40.2758141,39.9478455,38.399704,36.8967743,36.4132462,37.0127296,37.9592667,38.4319077,38.270977,38.1741066,39.1878128,41.8816681,45.844368,49.9113503,52.9890709,54.8809013,56.4890556,59.1995049,63.8479309,69.9887238,76.0058899,80.0338898,81.0959396,79.708786,77.5585403,76.472084,77.3661423,79.8411331,82.6279068,84.5208206,85.1384888,85.0272217,85.1133423,85.9583893,87.3675385,88.6015091,88.9874802,88.4484406,87.5617218,87.1252975,87.5730591,88.6716003,89.7027969,89.972496,89.2628326,87.9174423,86.5427475,85.5895462,85.1364365,85.0024796,85.039093,85.3163528,86.031189,87.2245026,88.581955,89.5438766,89.69207,89.1206436,88.4577484,88.4448853,89.3368301,90.5808029,91.0903244,90.0154877,87.5122528,84.9339066,84.2031174,86.673645,92.1823273,98.9353638,104.37439,106.540627,105.116043,101.504768,97.9159393,96.0326767,96.0941925,96.927597,96.8433304,94.768898,90.8861313,86.407608,82.7095718,80.4363403,79.1554108,77.7287064,75.0784454,70.8002243,65.2431259,59.0887604,52.81007,46.4332733,39.7530479,32.7799263,26.0118389,20.2553539,16.0764217,13.2700634,10.7721415,7.15682507,1.46021354,-6.17732954,-14.4728889,-21.6214104,-26.2181225,-27.9401569,-27.6017914,-26.5904541,-26.0629425,-26.3989677,-27.2105217,-27.8334503,-27.9269772,-27.7646618,-28.028717,-29.2599792,-31.3461609,-33.409874,-34.2060966,-32.8183823,-29.2506676,-24.5591183,-20.4231796,-18.3660793,-19.0275669,-21.8640175,-25.4264488,-28.0709591,-28.7442894,-27.4624367,-25.2649002,-23.6892815,-24.0369186,-26.7826233,-31.3912354,-36.5955276,-40.9735985,-43.541954,-44.1024284,-43.2210732,