Bandpass,0,0.22514,246.8313,625.28497,861.11127,932.63129,885.08759,801.19348,756.11389,782.08044,860.54797,942.89856,984.43304,970.47052,920.5202,871.09253,850.63171,863.16681,889.89856,905.40283,896.07159,868.18323,841.10291,831.51355,840.19269,850.59998,839.84235,794.36017,719.63251,637.70947,574.43872,544.95953,546.52686,562.52808,574.11292,571.43408,557.50824,543.29645,538.33203,543.76044,552.30103,554.21521,544.71069,527.23822,510.75604,503.18295,505.93829,513.22742,516.33319,509.64548,494.21432,476.70206,464.81052,462.57831,468.66644,478.29065,486.91965,492.86255,497.09982,500.99356,504.11517,504.1232,498.78293,488.41129,476.55267,468.06522,465.84082,468.60675,471.55936,469.58139,460.77618,447.78427,435.78009,428.5379,425.39307,421.37796,410.65115,390.90366,365.66055,342.67615,329.33847,328.03043,334.53491,340.59894,339.00696,327.93893,311.8338,298.40262,293.80148,299.12543,310.25714,320.83524,326.16809,325.49115,321.39148,317.2485,314.67682,312.78244,309.48761,303.60791,296.03662,289.11252,284.78992,283.09821,282.06686,279.2034,273.32703,265.37952,257.55981,251.54056,247.1187,242.41431,235.4576,225.96301,215.86856,208.13951,204.64877,204.69119,205.29254,203.18034,197.04417,188.45316,180.7216,176.49805,175.79727,175.90971,173.32486,166.29529,156.22328,146.79538,141.42566,140.75517,142.00214,140.65688,133.42665,120.4303,105.14964,92.20137,84.440628,81.372269,79.871437,76.606552,70.403152,62.894611,57.046898,54.708614,55.00034,54.762535,50.789856,42.301239,31.87402,24.126011,22.946049,29.065479,39.52132,49.308807,54.097412,52.29277,45.293808,36.030491,26.985224,19.039803,11.727959,4.4045291,-2.758841,-8.7617207,-12.676546,-14.632224,-15.982439,-18.437973,-22.789162,-28.237087,-32.926365,-35.340698,-35.545589,-35.276497,-36.728115,-40.856274,-46.460442,-50.807304,-51.463966,-48.10289,-42.964077,-39.563923,-40.441006,-45.47591,-51.959671,-56.417416,-56.977619,-54.668915,-52.720325,-54.305931,-60.249882,-68.253197,-74.201683,-74.728546,-69.358147,-60.843719,-53.514923,-50.7234,-53.041958,-58.276791,-63.164967,-65.525002,-65.458031,-64.920113,-66.116615,-69.905403,-75.275635,-80.147034,-82.82029,-83.052704,-82.102264,-81.853676,-83.758598,-88.307411,-95.260529,-104.20446,-114.86545,-126.86022,-139.18112,-150.02472,-157.3521,-160.00798,-158.63527,-155.65114,-154.09885,-155.98766,-161.16615,-167.49196,-172.24413,-173.8524,-172.83699,-171.31717,-171.48456,-174.08392,-177.98323,-181.09206,-181.98308,-181.00055,-180.05429,-181.18517,-184.91914,-189.57243,-192.103,-189.9852,-182.89479,-173.06972,-164.08208,-158.81055,-157.91676,-159.783,-161.84145,-162.35873,-161.41626,-160.53444,-161.26189,-163.85368,-166.98869,-168.72522,-167.96185,-165.29311,-162.57751,-161.50049,-162.19019,-162.98422,-161.66003,-157.40019,-152.12445,-150.09604,-155.80074,-171.22475,-194.21533,-219.00212,-238.79433,-249.0737,-249.79132,-245.27902,-241.9422,-245.05164,-256.32904,-273.48923,-291.77789,-306.49371,-315.1207,-318.08209,-317.97858,-317.99234,-320.37299,-325.68304,-332.95374,-340.44238,-346.4628,-349.98389,-350.86475,-349.77225,-347.91998,-346.65323,-346.966,-349.04529,-352.05173,-354.29532,-353.81705,-349.20084,-340.23178,-328.0968,-315.02933,-303.54251,-295.6084,-292.12158,-292.77676,-296.31174,-300.91214,-304.61237,-305.6322,-302.66559,-295.16458,-283.5575,-269.29962,-254.62523,-242.00558,-233.45383,-229.91806,-230.98636,-234.98351,-239.44427,-241.78635,-239.98807,-233.14821,-221.75345,-207.58835,-193.26224,-181.39308,-173.73132,-170.51344,-170.38443,-170.98102,-169.97348,-166.07678,-159.53488,-151.81439,-144.67125,-139.11751,-134.87515,-130.62173,-124.87522,-116.9598,-107.44962,-97.823875,-89.543625,-83.146919,-77.937691,-72.473557,-65.544891,-57.005997,-47.918758,-39.913754,-34.162273,-30.623524,-28.047741,-24.729305,-19.511923,-12.410124,-4.4584465,3.07619,9.5479279,15.269122,21.100523,27.624182,34.535164,40.775887,45.411369,48.67627,52.397068,59.317204,71.527275,88.872276,108.36351,125.13298,134.61728,134.84627,127.59531,117.64579,110.47856,109.54214,114.53981,121.61079,125.31512,121.34801,108.61437,89.685616,69.522682,53.242676,44.072281,42.387123,46.100807,51.988823,57.186356,60.190563,61.075237,61.023384,61.532501,63.640347,67.444115,72.022987,75.77404,77.065063,74.980583,69.84742,63.219383,57.249733,53.663052,52.883224,53.850578,54.752491,54.329071,53.005409,53.070236,57.637379,68.844788,86.304039,106.77142,125.3633,137.74864,142.13237,139.92975,134.76805,130.45055,129.06032,130.28389,132.21254,132.95636,131.97711,130.27826,129.45761,130.3728,132.40155,133.85544,133.21039,130.27902,126.45374,123.80961,123.67287,125.66891,127.91993,128.30397,125.90772,121.65652,117.67928,115.83843,116.4638,118.21238,119.20221,118.64288,117.78983,119.43559,126.13903,138.28067,153.23338,166.30678,172.98933,171.21811,162.33347,150.20415,139.09262,131.56912,127.64581,125.48608,123.05376,119.56615,115.89394,113.79916,114.67337,118.65828,124.63731,130.95224,136.21378,139.68095,141.09412,140.3293,137.34201,132.51944,127.09422,123.05206,122.26759,125.1976,129.96005,132.58093,128.5784,115.18771,93.031097,66.238731,40.83382,22.188305,12.854476,11.837521,15.536874,19.702562,21.321058,19.574694,15.668715,11.928681,10.779848,14.00227,22.30249,35.058987,50.227715,64.610291,74.750443,78.366135,75.775047,70.413704,67.845711,73.396286,89.453323,113.86144,140.43512,161.51199,171.33029,168.50302,156.3269,140.85928,127.90199,120.54371,118.45461,119.03304,119.45538,118.32034,116.02157,113.90518,113.01619,113.34267,113.97183,113.89151,112.72613,110.86078,108.9344,107.15607,105.03506,101.74278,96.840385,90.79406,84.877304,80.479576,78.315414,78.062042,78.672699,79.110123,78.969246,78.566032,78.465973,78.865845,79.305328,78.945221,77.20076,74.251663,71.027855,68.657959,67.760155,68.058289,68.592255,68.335342,66.790733,64.145424,60.924286,57.451145,53.545254,48.697472,42.575775,35.45623,28.235657,21.967651,17.262762,13.963795,11.351049,8.7080536,5.8469672,3.2088423,1.4745456,0.97898692,1.3636665,1.7176514,1.1100298,-0.86789739,-3.9067533,-7.2176089,-9.9938927,-11.741529,-12.301126,-11.651871,-9.7753477,-6.7627063,-3.0758839,0.33311099,2.3060133,2.1012385,-0.045046803,-2.8973055,-4.8908992,-5.1435952,-4.0982323,-3.264174,-4.1063585,-6.8167853,-9.8973866,-11.0474,-8.9335546,-4.696672,-2.0187209,-5.4225063,-17.637268,-37.625244,-60.621918,-80.363708,-92.293304,-95.826973,-94.298378,-92.619164,-94.155594,-98.834862,-103.67313,-105.3024,-102.7162,-98.267548,-96.111366,-99.056564,-105.93823,-111.43221,-108.69506,-93.374496,-66.548775,-34.713261,-6.7189441,10.593807,15.537899,11.770123,5.6137562,2.2973859,3.4003887,6.8636618,9.2406597,8.5125952,5.616672,3.8289709,6.6135859,15.432198,28.896391,43.621948,56.047169,64.003227,67.218773,66.786713,64.295296,61.310768,59.365513,60.004333,64.346603,72.127106,80.820763,85.792358,81.887451,65.955544,38.96249,6.3074718,-24.109732,-45.246407,-53.938271,-51.971191,-44.672977,-37.925449,-35.344013,-37.11097,-40.865952,-43.78479,-44.400349,-43.110924,-41.332748,-40.177555,-39.723072,-39.368843,-38.861969,-39.056881,-41.680462,-48.159901,-58.316883,-69.922997,-79.566513,-84.382263,-83.603981,-78.956757,-73.67981,-70.774055,-71.538658,-75.180344,-79.530891,-82.262589,-81.792549,-77.479012,-69.283852,-57.4506,-42.58942,-26.078148,-10.28232,1.8874748,8.084157,7.7509384,2.6612108,-3.6759839,-7.5319228,-6.5643139,-0.62870276,8.5991001,18.811035,28.252388,36.165493,42.37912,46.558846,47.846233,45.27277,38.666183,29.318214,19.779888,12.743037,9.6524019,9.9549274,11.51905,11.986545,10.19834,6.7613854,3.4225621,1.7115376,1.828862,2.5466421,2.1870308,-0.037474088,-3.3069062,-5.6687627,-5.4252658,-2.5180988,1.0703084,2.2301602,-1.5612081,-10.782452,-23.553999,-36.627739,-47.037502,-53.397175,-56.16066,-56.86079,-56.970409,-57.185932,-57.482128,-57.70377,-58.074596,-59.151497,-61.270859,-63.987358,-66.081131,-66.298683,-64.387321,-61.686977,-60.714233,-63.861027,-71.924187,-83.404716,-95.083633,-103.6087,-107.18931,-106.40578,-103.68964,-101.82732,-102.42432,-105.21981,-108.59628,-110.82948,-111.24027,-110.50523,-109.99271,-110.63749,-112.13312,-112.98539,-111.40003,-106.42597,-98.625374,-89.875542,-82.423035,-77.785881,-76.132896,-76.456932,-77.359573,-77.904678,-78.019516,-78.220367,-78.903831,-79.702812,-79.390892,-76.456924,-70.053673,-60.765194,-50.66766,-42.547691,-38.610981,-39.361137,-43.286316,-47.616203,-49.795643,-48.888008,-46.07254,-43.855221,-44.351864,-47.596977,-50.942856,-50.078239,-41.26786,-23.643316,-0.20812736,23.177305,40.422768,48.097023,46.98748,41.438938,36.824455,36.590099,40.558693,45.420826,47.033146,43.069782,34.402485,24.42277,16.850338,13.492998,13.421286,14.034201,13.198709,10.930362,9.3728333,11.008394,16.285992,22.347113,23.905767,15.966674,-3.1736689,-30.494085,-59.345688,-82.545212,-95.697388,-98.880592,-95.818771,-91.19368,-87.819466,-85.367401,-81.265221,-72.994484,-60.193336,-45.21587,-31.856035,-23.166018,-19.807173,-19.954916,-20.694498,-19.911634,-17.424654,-14.704004,-13.511515,-14.471615,-16.569883,-17.85887,-16.822554,-13.424642,-9.1326599,-5.942193,-5.103303,-6.4065495,-8.4559317,-9.6660662,-9.2614584,-7.6171923,-5.7946262,-4.7027659,-4.522069,-4.7839231,-4.9516788,-4.9799199,-5.3627095,-6.6109223,-8.5812283,-10.248351,-10.206453,-7.6342287,-3.0533903,1.735586,4.6187668,4.4719005,1.9433725,-0.87979138,-1.7909954,0.035745386,3.3684185,5.6045599,4.4951859,-0.11513157,-5.6633716,-7.8794055,-2.9933646,10.036981,28.525208,46.894424,58.968189,60.579449,51.230278,34.075455,14.381135,-2.6897593,-13.903425,-18.683702,-18.653736,-16.453331,-14.499288,-14.197972,-15.782874,-18.624815,-21.733673,-24.210648,-25.527859,-25.626125,-24.865526,-23.858994,-23.229837,-23.362318,-24.224739,-25.349247,-25.981537,-25.355675,-22.977299,-18.824448,-13.390038,-7.5739865,-2.4490793,1.0410122,2.3830476,1.7008231,-0.23371531,-2.2375453,-3.1662176,-2.4052887,-0.16373281,2.6177275,4.7525764,5.4679217,4.8843927,4.0281143,4.3372831,6.914392,11.953941,18.658546,25.696051,31.892206,36.739429,40.42704,43.426594,45.97324,47.830746,48.522934,47.853222,46.287098,44.86467,44.615852,45.863613,47.933208,49.560905,49.840473,49.087761,48.996056,51.814598,58.936363,69.727669,81.41114,90.251358,93.506195,91.082024,85.899284,82.621803,85.327522,95.285789,110.01604,124.12321,131.53062,128.0116,112.88493,89.186432,62.401672,38.443512,21.748922,14.136343,14.633888,20.11134,26.392487,29.505646,26.799509,17.664347,3.6430633,-12.173034,-26.309345,-36.205791,-41.078529,-41.945885,-40.834053,-39.634354,-39.280102,-39.68293,-40.353489,-41.138329,-42.427036,-44.560097,-46.827038,-46.869026,-41.196457,-26.848452,-3.3873115,26.009705,55.24641,77.709717,89.214554,89.903305,83.971436,77.331238,74.51123,76.553207,81.067978,84.290581,83.77774,80.020233,75.987251,74.973328,78.221176,83.94149,88.423874,88.546494,84.02523,77.843269,74.455338,76.788734,83.901077,90.843437,90.967171,79.441925,56.00209,25.363865,-4.9036613,-27.850777,-40.078583,-42.680424,-39.945839,-36.794399,-36.447594,-39.464207,-44.323368,-48.868221,-51.61462,-52.274021,-51.478657,-50.168381,-49.130157,-48.860893,-49.573135,-51.0947,-52.635464,-52.684696,-49.363514,-41.292179,-28.567871,-13.217854,1.3247193,11.62548,15.834915,14.55521,10.451603,6.799006,5.803865,7.6585655,10.82915,13.292759,13.880491,12.874424,11.560903,11.149151,11.877301,12.940502,13.271633,12.585958,11.904168,13.124507,17.874062,26.372324,37.05191,47.206882,54.282608,57.041996,55.955009,52.677574,49.038368,46.183937,44.338795,43.158249,42.291348,41.699421,41.560898,41.930904,42.498997,42.677814,41.92514,40.027157,37.086231,33.223419,28.290724,21.900711,13.865125,4.7616301,-3.8362923,-9.7884398,-11.368206,-8.2788429,-2.0761497,4.3245263,7.8522205,6.555531,0.2885409,-9.4865494,-20.552711,-30.882,-39.167412,-44.819855,-47.690689,-47.910252,-46.008945,-43.127628,-40.937119,-41.041309,-44.061119,-48.961758,-53.186806,-53.733055,-48.690086,-38.384438,-25.417862,-13.496491,-5.6754727,-3.0080121,-4.3316178,-7.2428613,-9.5839539,-10.508601,-10.519863,-10.582294,-11.006688,-10.915826,-8.6640205,-2.9216027,6.3194375,17.488487,28.102852,35.932552,39.951958,40.570393,39.126991,37.095219,35.546051,35.11253,36.287369,39.631546,45.588707,53.991367,63.671532,72.608177,78.707542,80.837578,79.489487,76.594009,74.522087,74.815422,77.393814,80.699829,82.696442,82.092682,79.064766,75.06205,71.847176,70.382561,70.255142,69.968163,67.943176,63.620304,58.020111,53.41452,52.208729,55.565472,62.418625,69.396095,71.77787,65.199753,47.462051,19.700937,-13.644417,-46.180405,-71.780891,-86.781799,-91.189331,-88.317444,-83.010605,-79.327904,-78.847549,-80.459236,-81.662437,-80.54335,-77.199379,-73.717026,-72.710999,-75.348526,-80.164017,-83.511909,-81.498718,-72.295677,-57.419518,-41.163193,-28.459787,-22.393278,-22.793644,-26.669613,-30.138338,-30.635477,-28.1152,-24.638393,-22.771168,-23.885839,-27.393829,-31.25412,-33.252541,-32.150402,-28.018759,-21.73041,-14.171136,-5.8315973,2.9609809,11.489417,18.383753,22.056805,21.659904,17.907906,13.077771,9.9914618,10.493996,14.338264,19.226606,22.06216,20.740931,15.456628,8.7989712,4.6230946,6.3450055,15.554544,31.53583,51.728142,72.689407,91.062057,104.25965,110.90378,111.11221,106.59352,100.32578,95.648811,94.925331,98.386246,103.89561,108.00686,107.93883,103.41884,97.196335,93.71907,96.511055,105.6936,117.16409,124.08636,120.064,102.31762,73.167244,39.021561,7.4642229,-15.954877,-29.585934,-35.423801,-37.204834,-38.162464,-39.720284,-41.620754,-43.039219,-43.702389,-44.230282,-45.605465,-48.316971,-51.912189,-55.292206,-57.497723,-58.365349,-58.550388,-58.926044,-59.841248,-60.835629,-61.048279,-60.031319,-58.346359,-57.458042,-58.943256,-63.522114,-70.572838,-78.45385,-85.406509,-90.428047,-93.551308,-95.426041,-96.600372,-97.101501,-96.650948,-95.307976,-93.948715,-94.040306,-96.663315,-101.36308,-105.65932,-105.7696,-98.359283,-82.439049,-60.313465,-36.946377,-17.951784,-7.2048154,-5.2855101,-9.5122509,-15.468476,-19.171951,-18.773458,-15.02091,-10.418175,-7.667213,-8.2311125,-11.694295,-16.110233,-19.056711,-18.852617,-15.394686,-10.294095,-6.2854505,-6.1565166,-11.618511,-22.566168,-37.046597,-51.974007,-64.307739,-72.171967,-75.403809,-75.295372,-73.711189,-72.101036,-70.969238,-70.046089,-68.967155,-67.917931,-67.72847,-69.297615,-72.702057,-76.634109,-78.645241,-76.202637,-68.009964,-54.845493,-39.40522,-25.210165,-15.158456,-10.46826,-10.493822,-13.360453,-16.954491,-19.717735,-20.955683,-20.726793,-19.590525,-18.406151,-18.159857,-19.649942,-22.971264,-27.015968,-29.414927,-27.23892,-18.341457,-2.7175205,16.951063,36.07169,50.016586,56.180584,55.096073,49.954407,44.815563,42.548637,43.726486,47.071838,51.06847,55.587204,62.37225,73.976654,91.786598,114.42994,137.70602,156.26955,166.20729,167.04726,162.01953,156.34793,154.47667,157.67181,163.23392,165.63089,158.88599,139.05092,105.66233,61.784286,12.857395,-34.958061,-76.31324,-107.69161,-127.84825,-137.73096,-139.96408,-137.99513,-135.07697,-133.38255,-133.59496,-135.13724,-136.88908,-138.0031,-138.3438,-138.35683,-138.5533,-139.01758,-139.3606,-139.14087,-138.43054,-138.06696,-139.29471,-142.99104,-148.97002,-155.89145,-161.89928,-165.63966,-167.00742,-167.11942,-167.54128,-169.24937,-172.04671,-174.79031,-176.28658,-176.18965,-175.28418,-174.92871,-176.0567,-178.4408,-180.80074,-181.71049,-180.72876,-178.92639,-178.3479,-180.61649,-185.46916,-190.1299,-189.95071,-180.06464,-157.21448,-120.89124,-73.318062,-18.494823,39.053345,95.174019,146.33839,189.42328,221.47659,239.84369,242.72649,229.92514,203.37524,167.16676,126.96581,88.9459,58.478432,38.861622,30.420179,30.310682,33.251339,33.156445,25.244255,7.8567262,-16.819334,-43.566597,-66.2397,-80.252769,-84.305008,-80.544373,-73.16449,-66.23101,-61.89922,-59.881054,-58.278736,-55.126698,-49.669384,-42.667889,-35.706806,-30.067188,-25.933762,-22.376972,-18.00753,-11.78181,-3.427784,6.6918087,18.038319,30.245516,43.087154,56.149765,68.568031,79.150429,86.905029,91.638908,94.187004,96.047577,98.615974,102.48661,107.26573,111.9874,115.80798,118.48427,120.31639,121.67212,122.51232,122.34101,120.67721,117.68461,114.4332,112.48717,113.00309,115.93135,119.92785,123.12743,124.32681,123.77069,122.94014,123.38963,125.35941,127.13875,125.74177,118.62772,105.46305,88.800903,73.137222,62.786533,59.749786,62.803905,68.319794,72.308754,72.488441,69.194847,64.714485,61.571075,60.891453,61.841824,62.387142,60.779705,56.768101,51.740208,47.763458,46.174789,46.659351,47.414146,46.298923,42.27169,36.22971,30.749865,28.848413,32.41893,41.165863,52.556889,62.798679,68.364235,67.382477,60.319756,49.704983,39.04353,31.38838,28.14065,28.585426,30.362432,30.686392,27.76263,21.698275,14.402381,8.4482498,5.45156,4.8531189,3.8648784,-1.2434081,-13.119489,-31.649622,-53.627117,-74.063698,-88.525932,-95.244362,-95.835953,-94.227669,-94.402084,-98.269379,-104.8803,-111.39877,-115.19048,-115.70068,-114.94297,-116.23979,-121.96146,-131.63274,-141.61555,-146.66464,-142.59349,-128.5873,-107.9112,-86.588333,-70.737122,-63.924603,-65.849602,-72.91861,-80.289284,-84.258232,-83.781052,-80.45372,-77.112648,-75.884621,-76.727608,-77.201546,-73.542709,-62.503292,-43.034607,-17.01886,11.319731,37.060257,56.546185,68.766273,75.529327,80.375542,86.758247,96.397156,108.62305,121.01688,130.98296,137.39798,141.40367,145.87695,153.81824,166.50706,182.45293,197.73912,207.65645,208.82668,200.76759,186.13959,169.60872,155.93307,148.19771,146.97662,150.63316,156.4391,161.84576,165.35474,166.70639,166.55951,165.95618,165.85707,166.86414,169.07614,172.00421,174.55698,175.22832,172.52299,165.58131,154.73018,141.64835,128.94562,119.24625,114.15233,113.57378,115.77828,118.18077,118.52128,115.89216,111.1359,106.44904,104.38751,106.73904,113.76902,124.13043,135.42932,145.15367,151.54378,154.07263,153.38943,150.85182,147.88548,145.47229,143.92772,143.00008,142.16685,140.96935,139.21382,137.01497,134.66292,132.42696,130.36844,128.25449,125.60864,121.91965,116.94075,110.9583,104.87556,99.976631,97.370979,97.307922,98.689835,99.138985,95.742767,86.274361,70.340469,49.846184,28.417463,9.9422216,-3.1010437,-10.654094,-14.840405,-18.550426,-23.582691,-29.394724,-33.216862,-31.540783,-22.196205,-5.860816,13.866616,31.907227,43.871761,47.802395,44.592934,37.005962,27.976328,19.258499,11.113724,3.0303671,-5.2133403,-12.979232,-19.115322,-22.930094,-25.032719,-27.333973,-32.074303,-40.457142,-51.773983,-63.653915,-73.350258,-79.30162,-81.99749,-83.608932,-86.624908,-92.34684,-100.18319,-108.13607,-114.1452,-117.40005,-118.82965,-120.52747,-124.54379,-131.83479,-141.95662,-153.55618,-165.19606,-175.92148,-185.27823,-192.96974,-198.61171,-201.90089,-203.11757,-203.48666,-204.9371,-209.16856,-216.54216,-225.50238,-233.08113,-236.31992,-233.88173,-226.88142,-218.40248,-211.95905,-209.76498,-211.82329,-216.28053,-220.74666,-223.67776,-225.01593,-225.78911,-227.11774,-229.38635,-232.15582,-234.77135,-237.1002,-239.76204,-243.61949,-248.90407,-254.70241,-259.30679,-261.31155,-260.76498,-259.5126,-260.36652,-265.50793,-275.07443,-286.83829,-297.26828,-303.33316,-304.00302,-300.52313,-295.38513,-290.66727,-286.83289,-282.69263,-276.48837,-267.28442,-255.76129,-243.90491,-233.85602,-226.74574,-222.24557,-219.07266,-215.99361,-212.56822,-209.13466,-206.12216,-203.2793,-199.49403,-193.40927,-184.44453,-173.48634,-162.63884,-154.10468,-148.80486,-145.61864,-141.76439,-134.14819,-120.94318,-102.51614,-81.241341,-60.379704,-42.700348,-29.558666,-20.775824,-15.172175,-11.290516,-7.9013734,-4.1638713,0.41326544,5.9925013,12.352883,18.895737,24.877251,29.873894,34.235832,39.172287,46.28817,56.730392,70.421387,85.861702,100.67257,112.61401,120.50314,124.53318,125.88831,125.97214,125.77493,125.7309,126.0214,126.94953,129.00998,132.54683,137.31877,142.37498,146.50977,149.04027,150.37019,151.83656,154.78322,159.39197,164.08478,166.0334,162.65825,153.29936,140.03186,126.99879,118.54083,117.09576,122.06304,130.26599,137.72998,141.72295,141.90985,140.03084,138.43858,138.48604,139.75845,140.59746,139.45023,136.14796,132.24562,130.21425,131.97714,137.70758,145.60031,152.73112,156.47931,155.7106,151.11224,144.58994,138.14647,132.93086,128.88916,125.11639,120.6012,114.88762,108.31263,101.75358,96.072868,91.610054,87.982773,84.322472,79.809967,74.246727,68.324234,63.378254,60.655571,60.4086,61.308792,60.628674,55.282433,43.358498,25.384583,4.5605836,-14.349912,-27.084417,-31.899998,-30.454819,-26.972906,-26.043623,-30.185268,-38.523136,-47.344292,-52.255352,-50.732311,-43.601921,-34.565098,-28.02544,-26.448656,-28.789968,-30.905182,-27.746368,-16.120077,3.4999177,27.06633,48.846111,64.026794,70.679733,70.154182,65.90757,61.571308,59.344215,59.443584,60.671627,61.55534,61.305161,60.127193,58.850376,58.24221,58.470165,58.987923,58.837029,57.144566,53.545055,48.355801,42.466862,37.015667,32.962475,30.708809,29.913673,29.612799,28.662523,26.348553,22.871607,19.40049,17.565973,18.584738,22.454903,27.731339,32.103203,33.58157,31.699636,28.055653,25.815353,28.339706,37.570755,52.972832,71.561241,89.011528,101.34296,106.41138,104.61623,98.591042,92.10701,88.672241,90.310623,96.89267,106.13495,114.25706,117.11397,111.52789,96.441895,73.471252,46.566582,20.799137,0.6587624,-11.468562,-15.975946,-15.562631,-13.830293,-13.640108,-16.014557,-20.080021,-23.970657,-26.120834,-26.190687,-25.145613,-24.520897,-25.383696,-27.660652,-30.228483,-31.69582,-31.353695,-29.681198,-28.057758,-27.827118,-29.266735,-31.110331,-30.975157,-26.543959,-16.901943,-3.3082311,11.064691,22.368624,27.73348,26.545994,20.72374,13.834839,9.4583216,9.5481644,13.550177,18.6612,21.076406,17.640696,7.1556158,-9.1841059,-28.336004,-46.603539,-60.920471,-69.716125,-73.126259,-72.621681,-70.326302,-68.309509,-68.025108,-69.951172,-73.4328,-76.768982,-77.608162,-73.647415,-63.497375,-47.374744,-27.293564,-6.5515904,11.338711,23.838511,30.158426,31.279259,29.263041,26.256842,23.711454,22.144295,21.425179,21.250051,21.432985,21.856182,22.235514,22.01922,20.638235,18.005867,14.890991,12.774856,13.09941,16.26396,20.994392,24.604111,24.164793,18.034365,6.8948097,-6.3490968,-17.829836,-24.505184,-25.510029,-22.365114,-17.984215,-15.100914,-15.004969,-17.234203,-20.239481,-22.485607,-23.265842,-22.812679,-21.816395,-20.848087,-20.17145,-20.043684,-21.166037,-24.761826,-32.01783,-43.129665,-56.591698,-69.358955,-78.02282,-80.474716,-77.13131,-70.921295,-65.895073,-65.123512,-69.006996,-74.945526,-78.59462,-76.068794,-65.92012,-49.888447,-32.058285,-16.95079,-7.5552597,-4.2875757,-5.2683401,-7.6070871,-8.9091368,-8.2286673,-6.103807,-3.8595707,-2.7068453,-3.1695457,-5.0702944,-7.9224205,-11.374613,-15.373938,-19.973972,-24.969063,-29.662319,-32.986107,-33.965717,-32.287598,-28.623344,-24.485081,-21.59635,-21.037289,-22.568291,-24.482513,-24.124969,-18.927168,-7.5376072,9.4319191,29.396502,48.584663,63.33041,71.35891,72.527039,68.718521,62.943428,58.038548,55.56089,55.34552,55.914898,55.508968,53.215843,49.627483,46.671032,46.678768,51.144821,59.808899,70.56868,80.315437,86.321655,87.472839,84.709564,80.419724,77.085297,75.938133,76.376427,76.511383,74.547142,70.157509,64.973785,61.754696,62.601665,67.233826,72.432945,73.185287,65.096718,46.84222,21.265232,-5.5964947,-27.169493,-39.318756,-42.061031,-39.110275,-35.56332,-35.079288,-38.163582,-42.480339,-44.895901,-43.91975,-41.002251,-39.873119,-44.32674,-55.814358,-72.329285,-89.280418,-101.85131,-107.45238,-106.86591,-103.47562,-101.1437,-102.0538,-105.77864,-110.01942,-112.43405,-112.32484,-111.12447,-111.40778,-115.0639,-121.78341,-128.77591,-131.91241,-127.66496,-114.81295,-95.060196,-72.345253,-51.259022,-35.369915,-26.175934,-22.98908,-23.629772,-25.494452,-26.534538,-25.819035,-23.567705,-20.745129,-18.42235,-17.194559,-16.895464,-16.745642,-15.851752,-13.782336,-10.870113,-8.0258493,-6.1376963,-5.4082708,-5.0833826,-3.7962971,-0.37313867,5.3960028,12.545952,19.475836,24.931499,28.785595,32.059864,36.107494,41.471741,47.218922,51.297806,51.827866,48.551144,43.476761,40.169979,41.965767,50.100864,62.890263,76.489632,86.851608,91.747139,91.694069,89.295837,87.470139,87.708748,89.419456,90.692657,89.898766,87.013832,83.801712,82.728767,85.338509,91.128616,97.645882,101.72874,101.13747,95.614166,86.854416,77.52549,70.030998,65.703712,64.732895,66.595917,70.513588,75.594582,80.730835,84.568794,85.861984,84.134094,80.222,76.196228,74.490608,76.610344,82.155891,88.806068,93.360275,93.301674,88.002045,78.881042,68.489723,59.113117,51.746407,46.007824,40.902191,35.82291,31.071003,27.5753,26.082897,26.460526,27.652227,28.336849,27.816376,26.467896,25.394287,25.485844,26.542557,27.114553,25.250313,19.722599,10.943327,0.93269211,-7.6994138,-13.164391,-15.436135,-16.138826,-17.454023,-20.736851,-25.703018,-30.689426,-33.806519,-34.247227,-32.916733,-31.985525,-33.621338,-38.670307,-46.084553,-53.441006,-58.263184,-59.39341,-57.648327,-55.416725,-55.448818,-59.496403,-67.528488,-77.862793,-88.080162,-96.176384,-101.35134,-104.08762,-105.57957,-106.92116,-108.53054,-110.11984,-111.14687,-111.40909,-111.35608,-111.87393,-113.63259,-116.40609,-118.82023,-118.80675,-114.60514,-105.82496,-93.950333,-81.922203,-72.929581,-68.978409,-69.995811,-73.952843,-77.958046,-79.730782,-78.659584,-75.882782,-73.413086,-72.851738,-74.469223,-77.151268,-79.188141,-79.353035,-77.593567,-74.938065,-72.748222,-71.845726,-72.091843,-72.64502,-72.645302,-71.812469,-70.532555,-69.418411,-68.727448,-68.134323,-67.074158,-65.418251,-63.918404,-63.968739,-66.667465,-71.724052,-76.981445,-79.036896,-74.804703,-63.226768,-46.146702,-27.756674,-12.824617,-4.5993719,-3.4922173,-7.202518,-12.140404,-15.318461,-15.678895,-14.231923,-13.090474,-14.078298,-17.733547,-23.184935,-28.817215,-33.208309,-35.770996,-36.805843,-37.075302,-37.251179,-37.569054,-37.811661,-37.519066,-36.244183,-33.739075,-30.066402,-25.679115,-21.442553,-18.50585,-17.950182,-20.285934,-25.048235,-30.792831,-35.620422,-38.036266,-37.687065,-35.514156,-33.173332,-32.041363,-32.409988,-33.407364,-33.721008,-32.651287,-30.754992,-29.558613,-30.422476,-33.25692,-35.98703,-35.278297,-28.265022,-14.328142,4.1554561,22.650234,36.519798,43.198101,43.266178,39.84951,36.719162,36.235756,38.310265,40.920292,41.751472,39.874069,36.401825,33.758125,34.077816,37.787941,43.284698,47.894432,49.495167,47.766548,44.306847,41.556995,41.238323,43.264362,45.781342,46.266823,42.986744,35.941059,26.78397,17.861542,11.020563,6.9115858,5.1222105,4.9120612,5.9521403,8.514101,12.971252,18.976093,24.928209,28.201876,26.13904,17.338446,2.5457623,-15.370404,-32.406376,-44.938042,-51.060371,-51.159672,-47.501804,-43.089127,-40.349461,-40.241985,-42.134418,-44.422844,-45.527363,-44.754791,-42.617672,-40.470551,-39.689281,-40.835743,-43.273972,-45.479198,-45.897911,-43.905342,-40.298405,-36.986572,-35.955933,-38.028301,-42.104614,-45.388336,-44.579945,-37.493145,-24.264008,-7.4913239,8.8101139,20.942305,27.072618,27.830954,25.707005,23.630709,23.525316,25.570374,28.472464,30.467594,30.418764,28.398819,25.518,23.207632,22.447153,23.371262,25.398067,27.693504,29.627802,30.972559,31.807959,32.314461,32.646626,32.96962,33.560993,34.814037,37.066765,40.334602,44.15078,47.67281,50.048962,50.845551,50.278385,49.096153,48.180859,48.110619,48.939766,50.301582,51.722546,52.913315,53.848232,54.620808,55.240959,55.571209,55.478558,55.08831,54.913349,55.695805,57.999786,61.801579,66.360161,70.501625,73.185944,74.026253,73.440788,72.347015,71.589333,71.469849,71.667389,71.576904,70.826385,69.597351,68.548248,68.384148,69.375206,71.156784,72.940384,74.00676,74.150085,73.788818,73.68679,74.476257,76.295097,78.751114,81.194046,83.089294,84.232353,84.705727,84.659698,84.125183,83.018044,81.319992,79.274773,77.409882,76.32885,76.386948,77.470001,79.033684,80.388771,81.051895,80.944817,80.339027,79.621376,79.058899,78.715378,78.529167,78.44178,78.429596,78.426323,78.232796,77.564308,76.280205,74.645851,73.394951,73.426353,75.231743,78.396423,81.556694,82.981834,81.528915,77.42955,72.379364,68.765984,68.419334,71.585999,76.76432,81.52858,83.881378,83.320396,80.975708,78.752663,78.029907,78.751274,79.490158,78.437035,74.659882,68.819008,62.868675,58.932892,58.075058,59.738129,62.180386,63.59943,63.203522,61.562996,60.075634,59.962353,61.488216,63.912071,66.131973,67.522865,68.337341,69.384651,71.226944,73.493248,74.85598,73.747246,69.396194,62.48727,54.984108,49.169559,46.465572,46.736755,48.486809,49.797184,49.42395,47.399548,44.832096,43.100475,42.989555,44.290943,46.052917,47.240906,47.344475,46.555981,45.472683,44.581646,43.908649,43.058239,41.584885,39.419586,37.039101,35.247253,34.677586,35.293201,36.160328,35.63488,31.907156,23.70606,10.904683,-5.2051034,-22.108759,-36.739452,-46.452126,-49.971603,-47.919254,-42.623451,-37.202496,-34.267231,-34.837437,-38.02816,-41.707321,-43.811089,-43.619648,-42.273331,-42.209873,-45.814396,-54.033279,-65.747055,-78.265327,-88.65892,-95.165787,-97.882675,-98.402458,-98.696571,-99.971016,-102.18793,-104.48921,-106.13671,-107.26856,-108.88419,-111.99963,-116.47388,-120.29496,-119.87442,-111.36196,-92.391029,-63.394279,-27.843243,8.7245665,40.44479,62.887329,74.159142,75.041687,68.280266,57.442501,45.81171,35.64053,27.8892,22.39431,18.324347,14.745069,11.106904,7.4959922,4.5411091,2.99577,3.1577799,4.3965325,5.0609975,2.8993709,-4.1072593,-16.811384,-34.279579,-53.814774,-71.711136,-84.523476,-90.392998,-89.891014,-85.986046,-83.052795,-85.23896,-94.807884,-111.15993,-130.99413,-149.62686,-162.93095,-169.0385,-169.01318,-166.15146,-164.23077,-165.61435,-170.17755,-175.65105,-179.17259,-179.17902,-176.52087,-174.06969,-174.96333,-180.41483,-188.37833,-193.9628,-191.57436,-177.79474,-153.51271,-124.12651,-97.574226,-81.072083,-78.090691,-87.03157,-102.21904,-116.67445,-125.2924,-126.89278,-124.21555,-121.98497,-124.10979,-131.45036,-141.25543,-148.49048,-148.3204,-138.52457,-120.61203,-99.19606,-79.970001,-67.314095,-62.685776,-64.460297,-69.161133,-73.329475,-75.060631,-74.501366,-73.221504,-72.964546,-74.533447,-77.412842,-80.22171,-81.631462,-81.16433,-79.411026,-77.607529,-76.843872,-77.365456,-78.301895,-77.938362,-74.373314,-66.314087,-53.736572,-38.187126,-22.572346,-10.360185,-4.3284183,-5.2627325,-11.243686,-18.109854,-21.244291,-18.092144,-10.186427,-3.3804226,-5.693717,-23.446756,-57.507065,-101.7681,-145.07217,-176.0081,-188.31709,-184.04608,-172.54179,-165.58498,-171.04872,-188.43797,-208.70764,-218.48813,-206.49928,-168.79935,-110.3522,-42.504532,21.839209,72.559647,104.16042,114.92379,104.90458,74.738594,26.247122,-35.83968,-102.85096,-163.39276,-206.88516,-227.79057,-228.10439,-216.495,-204.3273,-200.60719,-208.49431,-225.02316,-243.81204,-258.87848,-267.35361,-269.83835,-268.79062,-266.45364,-263.7402,-260.58029,-257.00439,-253.77948,-252.00342,-251.98196,-252.48651,-251.21228,-246.31107,-237.90369,-228.34778,-220.82266,-217.12418,-216.25241,-214.9976,-210.31905,-201.93385,-193.1808,-189.26138,-193.80743,-206.06187,-220.79095,-231.34242,-234.0666,-231.19646,-230.02699,-238.5887,-260.4097,-291.7713,-323.41803,-345.87851,-355.03387,-354.32376,-351.98322,-354.98083,-363.66205,-370.77191,-365.90115,-342.73962,-304.56461,-264.18307,-237.95244,-237.2218,-262.27496,-302.45224,-342.41278,-370.61771,-384.87888,-391.50122,-398.68991,-408.40012,-411.84534,-391.65851,-329.71967,-216.20201,-54.863018,138.23129,341.45651,535.86951,710.59857,863.11188,995.42615,1109.4241,1204.4672,1278.4386,1330.8694,1365.3804,1389.5001,1411.5176,1436.5009,1463.8419,1487.918,1501.5059,1499.7386,1482.551,1454.3018,1421.2094,1388.3727,1358.0389,1329.8405,1302.2874,1274.3649,1246.0824,1217.9221,1189.8138,1160.635,1128.5854,1092.2394,1051.4308,1007.3381,961.7124,915.74359,869.31171,821.05792,769.21686,712.62561,651.35773,586.6521,520.27716,453.7132,387.54575,321.29062,253.67177,183.25627,109.26294,32.369778,-44.781605,-117.69466,-180.94341,-229.76273,-261.74445,-277.87363,-282.29346,-280.78354,-278.58902,-278.65717,-281.12952,-284.24478,-286.05325,-285.8772,-284.65897,-284.11508,-285.31171,-287.68396,-289.18979,-287.5246,-281.65546,-272.65488,-263.34576,-256.87683,-255.14809,-257.9278,-263.16422,-268.2049,-271.17004,-271.70828,-270.78989,-269.84283,-269.82001,-270.75485,-271.93353,-272.46814,-271.80795,-269.9259,-267.17392,-264.03015,-260.95566,-258.38092,-256.71109,-256.20056,-256.70605,-257.51248,-257.479,-255.54272,-251.36295,-245.68091,-240.08794,-236.22784,-234.82257,-235.12393,-235.15701,-232.70776,-226.52856,-217.09795,-206.49167,-197.42435,-191.98067,-190.71423,-192.55907,-195.52518,-197.74632,-198.29282,-197.39104,-196.02696,-195.30099,-195.88847,-197.89986,-201.05878,-205.00224,-209.43712,-214.10233,-218.61911,-222.43369,-224.95752,-225.86153,-225.32043,-224.02232,-222.87535,-222.54532,-223.09856,-223.94896,-224.18735,-223.1209,-220.72893,-217.7532,-215.35014,-214.46255,-215.24629,-216.88278,-217.90788,-216.92932,-213.36523,-207.79808,-201.75406,-196.97771,-194.59593,-194.60287,-195.94321,-197.13971,-197.10316,-195.65828,-193.50648,-191.6591,-190.72696,-190.51158,-190.15594,-188.76976,-186.09474,-182.78067,-180.02162,-178.78682,-179.08627,-179.7912,-179.15997,-175.84105,-169.75612,-162.35861,-156.05415,-153.08115,-154.41362,-159.26512,-165.42645,-170.22095,-171.5985,-168.83586,-162.60159,-154.46248,-146.14586,-138.90067,-133.17265,-128.59883,-124.24401,-118.95754,-111.77634,-102.2999,-90.946266,-78.954788,-68.051903,-59.844212,-55.1548,-53.625,-53.815937,-53.805943,-52.020164,-47.88559,-41.983349,-35.647507,-30.24095,-26.505774,-24.304955,-22.838888,-21.147703,-18.60137,-15.128345,-11.131249,-7.2085619,-3.8694191,-1.3682529,0.32298362,1.4649616,2.4737163,3.8201649,5.8894224,8.8180408,12.399272,16.164747,19.669262,22.857195,26.265936,30.857019,37.461369,46.104527,55.627346,63.948582,68.967026,69.713928,67.133842,63.994949,63.847576,69.477631,81.599831,98.449684,116.49488,131.9008,142.05467,146.41272,146.38298,144.39911,142.74019,142.66653,144.20949,146.54131,148.60791,149.65591,149.44934,148.18895,146.28366,144.1602,142.14986,140.45908,139.14833,138.12788,137.1868,136.09998,134.78069,133.38348,132.27315,131.82152,132.14381,132.95055,133.63336,133.58978,132.60083,131.0359,129.701,129.39343,130.3864,132.17052,133.64658,133.69342,131.81636,128.49092,124.96617,122.60834,122.13986,123.22067,124.65163,125.09357,123.88889,121.46805,119.0293,117.64078,117.28933,116.51608,112.99211,104.83691,91.966766,76.648827,62.75655,53.973568,51.819019,54.606457,58.026482,57.177444,49.049194,34.119846,16.169413,0.36595532,-9.33708,-12.058557,-10.087378,-7.2334838,-6.4708633,-8.3147411,-10.899668,-11.647988,-9.3935347,-5.5109596,-3.2068195,-5.3090277,-11.911716,-19.440041,-21.922859,-13.943355,6.3209581,35.710793,67.203827,92.992584,107.88663,111.25388,106.60136,99.238777,93.470108,90.877037,90.437599,90.078712,88.467735,85.877876,83.722015,83.271446,84.570251,86.323082,86.791031,85.022354,81.52565,77.925293,75.86203,75.913116,77.276718,78.403839,78.103416,76.336166,74.148529,72.83548,72.945854,73.865326,74.255775,73.037697,70.197166,66.827293,64.376305,63.645855,64.278679,65.121582,65.214157,64.669876,64.747017,66.961517,71.791191,77.886772,82.423149,82.530678,76.959892,66.954102,55.713707,46.720989,41.916634,40.820358,41.10939,40.24239,37.077873,32.456455,28.421375,26.649672,27.176195,28.293146,27.705168,24.167276,18.475613,13.081762,10.497461,11.475998,14.163081,14.844602,9.9400902,-1.9074116,-18.888309,-36.811909,-51.180744,-59.364304,-61.655445,-60.685619,-59.661572,-60.538925,-63.209927,-66.07695,-67.507355,-67.15097,-66.24041,-66.728836,-69.869453,-75.219742,-80.759987,-84.077438,-83.879913,-80.861336,-77.36409,-76.019135,-78.203247,-83.247681,-88.867332,-92.520004,-92.839523,-90.281761,-86.637589,-83.800552,-82.62236,-82.59034,-82.491585,-81.547371,-80.195076,-79.923233,-82.228539,-87.370331,-93.810814,-98.812981,-99.951439,-96.655365,-90.82016,-86.043365,-85.846008,-91.868896,-103.06046,-116.30135,-128.07021,-136.17229,-140.56509,-142.89809,-145.18465,-148.49904,-152.50443,-156.0318,-158.21291,-159.32578,-160.72227,-163.85712,-169.04643,-174.8069,-178.30545,-176.73068,-168.85948,-155.89348,-141.07072,-128.24965,-120.21246,-117.56161,-118.71137,-120.87319,-121.4357,-119.03223,-113.86477,-107.29781,-101.07476,-96.601723,-94.553864,-94.846321,-96.827263,-99.566643,-102.17002,-104.10365,-105.46762,-107.09864,-110.35434,-116.57318,-126.39928,-139.3,-153.59406,-167.03922,-177.73534,-184.87415,-188.95056,-191.32448,-193.40059,-195.91493,-198.70894,-201.07191,-202.39714,-202.67522,-202.54202,-202.85143,-204.08565,-206.02449,-207.88048,-208.82562,-208.54587,-207.45102,-206.37178,-205.91817,-205.90894,-205.25694,-202.43091,-196.29152,-186.81641,-175.31007,-163.89769,-154.55142,-148.09615,-143.75098,-139.47108,-132.96858,-122.94752,-109.92447,-96.192047,-84.874573,-78.482475,-77.661194,-80.755119,-84.452652,-85.216751,-80.8125,-71.175285,-58.203369,-44.62513,-32.601212,-22.814854,-14.511081,-6.3459659,2.5667291,12.125541,21.568457,30.397915,39.206875,49.736115,63.982464,82.854324,105.23622,128.1757,148.20447,163.09746,173.00749,180.23428,187.73462,197.25024,208.24207,218.31996,224.94798,227.35745,227.40637,228.77541,234.87054,246.68083,261.89725,275.87305,283.93137,283.69138,276.14484,264.91577,254.22899,246.84399,243.0907,241.42171,239.93346,237.80008,235.71176,235.15395,237.1212,241.20467,245.64543,248.3295,248.01773,245.03329,240.97264,237.68771,236.19771,236.20023,236.42754,235.53391,232.92589,229.03482,224.93915,221.65976,219.60915,218.4955,217.66429,216.58182,215.11211,213.4521,211.81865,210.12471,207.87013,204.29553,198.70224,190.78136,180.83247,169.78621,159.05122,150.14896,144.21504,141.49178,141.0629,141.04211,139.31232,134.54843,127.04694,118.84547,112.91913,111.75002,115.97897,123.89468,132.12065,137.19244,137.2088,132.6498,125.93067,119.97764,116.64831,115.90224,116.12355,115.30605,112.30959,107.43524,102.0247,97.448685,94.186531,91.591904,88.435059,83.798447,77.704376,71.063988,65.045464,60.328075,56.757042,53.605801,50.202778,46.447803,42.847023,40.064812,38.345604,37.250851,35.916878,33.65155,30.437279,26.959244,24.119949,22.363512,21.28813,19.834415,16.956743,12.342078,6.7031507,1.4406006,-2.1288621,-3.5049765,-3.2545614,-2.6430969,-2.884479,-4.4571471,-6.8608618,-8.9121637,-9.3681364,-7.5256624,-3.5160794,1.7858732,7.1214771,11.278243,13.429389,13.30812,11.208048,7.8274217,3.9948034,0.35407618,-2.8608782,-5.8287544,-8.885561,-12.134309,-15.179193,-17.220074,-17.545927,-16.181755,-14.266596,-13.822978,-16.908022,-24.542727,-36.02002,-49.046551,-60.713078,-68.808464,-72.759491,-73.691895,-73.619331,-74.279747,-76.316307,-79.242546,-82.111046,-84.346878,-86.160408,-88.266739,-91.16922,-94.569618,-97.392738,-98.469933,-97.427567,-95.148445,-93.422409,-93.938179,-97.238663,-102.31568,-107.15343,-109.90423,-109.98702,-108.42186,-107.19289,-108.05323,-111.50273,-116.56717,-121.46613,-124.70782,-125.91557,-125.8816,-125.88789,-126.79079,-128.47855,-130.04744,-130.52534,-129.62526,-128.01602,-126.91904,-127.31233,-129.26563,-131.8421,-133.63136,-133.57689,-131.59843,-128.63188,-126.10985,-125.17577,-126.11951,-128.28607,-130.48387,-131.61981,-131.21982,-129.61243,-127.72894,-126.68024,-127.29087,-129.78053,-133.67133,-137.93938,-141.36609,-142.99002,-142.48511,-140.29485,-137.41951,-134.8903,-133.17424,-131.82208,-129.61115,-125.1801,-117.84903,-108.17607,-97.891388,-89.172287,-83.620399,-81.487526,-81.592148,-81.988464,-80.994926,-77.988785,-73.509911,-68.64238,-64.100655,-59.651363,-54.285503,-47.072906,-38.144054,-29.087555,-22.356764,-19.882971,-21.654215,-25.165173,-26.247318,-21.027981,-8.0517426,10.612081,30.022266,44.610989,50.953213,49.617832,45.052525,43.452866,49.642326,64.562057,84.679901,103.64395,115.3037,116.51913,108.30389,94.795975,80.747414,69.001595,59.366837,49.429432,36.688,20.646296,3.5639668,-10.583649,-18.292347,-18.528643,-13.339899,-6.7291241,-2.4889834,-2.2908764,-5.1215577,-8.3043547,-9.3802643,-7.6476307,-4.4422641,-2.0804691,-2.2348127,-4.8264732,-8.1341133,-9.9985981,-9.292511,-6.6772618,-4.1620727,-3.7698843,-6.1868854,-10.263064,-13.66678,-14.256625,-11.303612,-5.8294249,0.08593981,4.5293288,6.7311001,7.2355013,7.2666311,7.7950864,8.9403028,10.05115,10.320167,9.4434423,7.8569903,6.4155536,5.7730861,5.9086285,6.1125541,5.411356,3.1274326,-0.78449172,-5.7901211,-11.108874,-16.062096,-20.227566,-23.3827,-25.383492,-26.143438,-25.736706,-24.505455,-23.020369,-21.865566,-21.392693,-21.64329,-22.529016,-24.131718,-26.841496,-31.132483,-37.045574,-43.743439,-49.552299,-52.652943,-52.120049,-48.677097,-44.583076,-42.535042,-44.100079,-48.570911,-53.001541,-53.53907,-47.402351,-34.433128,-17.345415,-0.51608098,12.023374,18.306982,18.99271,16.589663,13.928834,12.8028,13.471022,15.114439,16.753939,17.952158,18.897314,19.960541,21.181847,22.128698,22.237688,21.351637,20.010475,19.229189,19.884352,22.121174,25.202055,27.914829,29.288347,29.158417,28.236679,27.66766,28.369766,30.56398,33.723988,36.902107,39.180161,39.989864,39.213047,37.132828,34.355373,31.727953,30.174154,30.368191,32.32349,35.136784,37.164356,36.698784,32.881466,26.339283,19.096527,13.692961,11.929209,13.935899,18.122953,22.056074,23.751183,22.627579,19.585278,16.238319,13.859579,12.729102,12.25688,11.682204,10.758283,9.8818207,9.5738506,9.7491779,9.410574,7.1217208,2.0254884,-5.2910318,-12.772778,-17.875336,-19.012917,-16.55151,-12.651102,-9.9834032,-10.105655,-12.540758,-15.189417,-15.831435,-13.733123,-10.269157,-8.084178,-9.2821741,-13.804659,-19.090145,-21.319715,-17.541864,-7.3942475,6.6361418,20.57176,31.089718,37.157932,40.223217,42.934284,47.278107,53.317253,59.264999,62.753189,62.406452,58.708691,53.664875,49.555172,47.634506,47.58363,47.984547,47.407124,45.356735,42.488697,40.04417,38.963982,39.304474,40.308914,41.008308,40.88747,40.151001,39.451862,39.33012,39.790154,40.309963,40.245354,39.315098,37.818783,36.443535,35.821205,36.149788,37.121742,38.172318,38.841629,38.991211,38.766598,38.389042,37.974079,37.517597,37.023491,36.621838,36.532803,36.876404,37.484322,37.898815,37.614159,36.425068,34.620762,32.857689,31.749788,31.446188,31.50012,31.152163,29.868137,27.766861,25.629744,24.448389,24.79443,26.429787,28.433647,29.777756,29.969398,29.320887,28.651598,28.615711,29.120798,29.260246,27.846636,24.222435,18.809088,13.012402,8.4967909,6.2690015,6.1407733,6.9123526,7.1586747,6.1183624,4.1189475,2.2765667,1.6796573,2.5962105,4.2307806,5.194592,4.3933907,1.7634641,-1.6210065,-4.1505508,-4.6338668,-3.0223598,-0.47422776,1.2748306,0.85300159,-2.0434203,-6.5670643,-11.262988,-14.881815,-16.982738,-18.008249,-18.846712,-20.195488,-22.111464,-23.994476,-24.959568,-24.339342,-22.013168,-18.400528,-14.179847,-9.9459629,-6.0259829,-2.5348957,0.41737533,2.5573366,3.4712453,2.8325903,0.69443357,-2.35812,-5.3352041,-7.2316852,-7.4997172,-6.3582511,-4.7607126,-4.0110784,-5.1990309,-8.7210703,-14.114839,-20.278004,-25.954445,-30.247498,-32.919914,-34.362007,-35.283001,-36.308578,-37.699123,-39.307476,-40.761246,-41.738056,-42.165443,-42.251915,-42.35046,-42.759247,-43.574619,-44.669487,-45.7826,-46.653419,-47.12088,-47.153217,-46.82188,-46.267101,-45.685032,-45.331146,-45.502598,-46.470886,-48.366058,-51.069878,-54.185349,-57.133976,-59.369514,-60.620319,-61.052845,-61.243233,-61.951199,-63.759663,-66.740753,-70.315742,-73.408516,-74.869377,-74.001053,-70.952881,-66.764244,-62.998325,-61.094357,-61.732643,-64.529655,-68.234795,-71.355377,-72.896446,-72.833412,-72.05619,-71.817322,-72.985023,-75.535088,-78.562691,-80.812943,-81.413147,-80.368904,-78.536217,-77.080215,-76.760628,-77.466667,-78.278687,-77.994637,-75.798363,-71.660393,-66.253258,-60.480572,-54.942863,-49.669582,-44.255745,-38.254463,-31.53006,-24.335947,-17.101334,-10.127175,-3.4440842,3.063077,9.383049,15.217187,20.11706,23.877403,26.908598,30.271484,35.242931,42.605797,52.084259,62.309319,71.404633,77.898972,81.451134,82.96759,84.057014,86.149002,89.809586,94.623497,99.649086,104.09857,107.78394,111.06908,114.42654,117.95992,121.26701,123.7378,125.08707,125.71248,126.60912,128.84987,132.96802,138.61876,144.74367,150.13437,154.02138,156.36807,157.71013,158.72169,159.79437,160.91325,161.81529,162.29143,162.36302,162.23354,162.10956,162.03992,161.94116,161.74974,161.56021,161.59831,162.0078,162.64612,163.05667,162.71971,161.43091,159.52802,157.7765,156.91731,157.16708,158.00861,158.46109,157.6873,155.53526,152.66661,150.13548,148.6962,148.29088,148.06508,146.91594,144.21329,140.20927,135.86595,132.22977,129.77118,128.13907,126.46722,123.98663,120.51404,116.47735,112.51394,108.98202,105.77511,102.56956,99.262245,96.199417,93.921074,92.580986,91.517097,89.427155,85.205528,78.936058,72.284203,67.785774,67.234917,70.078552,72.910858,70.652451,58.999638,36.886894,7.5195804,-22.733236,-47.118694,-61.495846,-65.951988,-64.223618,-61.366203,-61.082569,-64.209808,-69.072159,-73.226845,-75.346825,-76.029945,-77.13855,-80.28492,-85.584068,-91.554352,-96.178093,-98.328842,-98.547241,-98.61702,-100.27263,-103.95776,-108.52248,-112.06177,-113.29961,-112.53424,-111.47168,-112.06252,-115.16709,-119.98051,-124.63644,-127.54726,-128.52821,-128.88142,-130.37451,-133.83299,-138.3936,-142.01076,-142.92517,-141.07494,-138.37401,-137.52937,-140.05853,-144.82159,-148.14128,-145.61768,-134.65221,-116.15244,-94.35183,-74.796333,-61.67091,-56.01239,-55.779922,-57.572056,-58.79327,-58.886356,-58.970947,-60.347279,-63.078571,-65.752785,-66.638863,-65.393608,-64.010376,-66.138382,-75.005821,-91.190018,-111.70615,-131.15442,-144.38388,-149.15649,-147.22595,-143.1852,-141.78371,-145.32675,-152.68773,-160.42415,-165.17902,-165.80624,-163.88319,-162.40253,-163.59108,-167.37985,-171.53329,-173.35974,-171.79266,-168.39709,-166.50986,-168.95872,-175.80403,-183.58156,-186.71635,-180.39542,-163.3139,-138.70352,-112.99582,-92.868484,-82.239799,-80.815903,-84.820366,-89.335678,-90.849327,-88.65464,-84.524612,-81.134209,-80.307564,-82.121658,-85.225372,-87.939369,-89.332588,-89.590454,-89.575569,-90.024178,-90.993698,-91.934822,-92.253815,-91.900871,-91.513298,-91.991707,-93.817574,-96.608101,-99.255569,-100.59042,-100.13792,-98.465263,-96.867897,-96.584724,-98.0214,-100.48405,-102.57784,-103.03889,-101.48032,-98.621056,-95.882454,-94.613441,-95.404633,-97.862251,-100.91165,-103.39967,-104.63114,-104.57776,-103.72601,-102.74321,-102.18143,-102.35513,-103.367,-105.16662,-107.55952,-110.17433,-112.48631,-113.96437,-114.30882,-113.65027,-112.54768,-111.74142,-111.7724,-112.68153,-113.97609,-114.89117,-114.80656,-113.56141,-111.50723,-109.27647,-107.43773,-106.25313,-105.67098,-105.51255,-105.68988,-106.27774,-107.39399,-108.98232,-110.67058,-111.84719,-111.91849,-110.60421,-108.06903,-104.80952,-101.3449,-97.908142,-94.31707,-90.095512,-84.764275,-78.123489,-70.365105,-61.97702,-53.508545,-45.348312,-37.615665,-30.191481,-22.825897,-15.247991,-7.2292323,1.3880711,10.663715,20.522779,30.732243,40.935486,50.758926,59.956978,68.516129,76.656326,84.716156,92.989937,101.59605,110.44537,119.30542,127.90388,136.02029,143.52667,150.41306,156.81216,163.01044,169.42067,176.45549,184.30939,192.77092,201.1769,208.61926,214.34875,218.17839,220.65968,222.87404,225.92198,230.37407,235.9846,241.86739,247.02632,250.94167,253.86116,256.61191,260.05548,264.52658,269.57553,274.20303,277.43289,278.83459,278.73126,277.95566,277.32333,277.18259,277.28397,277.04932,276.01767,274.19318,272.05548,270.27472,269.3172,269.17575,269.40399,269.37195,268.58032,266.854,264.34668,261.39319,258.35226,255.50461,253.00903,250.88084,248.96353,246.93266,244.39667,241.09909,237.134,233.02223,229.52458,227.22964,226.14998,225.57118,224.34851,221.50108,216.80757,210.99374,205.37572,201.11661,198.55482,197.02235,195.31213,192.50154,188.59138,184.53534,181.54207,180.09265,179.30846,177.14093,171.39561,161.02753,146.96313,131.88785,119.04366,110.6604,106.87913,105.77943,104.51341,100.92072,94.751343,87.826286,83.069565,82.934021,88.062248,96.848328,106.09904,112.41811,113.62818,109.57877,102.02747,93.731812,87.228012,83.836395,83.298904,84.132271,84.475174,83.014999,79.572525,75.091919,71.055611,68.634232,68.023094,68.329475,68.103004,66.236435,62.706211,58.671978,55.779362,54.99157,55.620579,55.197975,50.426521,38.821289,20.201342,-2.8143761,-25.678444,-43.788658,-54.437611,-57.842716,-56.751835,-54.880104,-55.054489,-58.044739,-62.6199,-66.657433,-68.560188,-68.156898,-66.634399,-65.68222,-66.452667,-68.981491,-72.345512,-75.343636,-77.21701,-77.956253,-78.101006,-78.273415,-78.814682,-79.752724,-81.025612,-82.699127,-84.949867,-87.809181,-90.905685,-93.477478,-94.743279,-94.423965,-93.044243,-91.742508,-91.642456,-93.156258,-95.687508,-97.96627,-98.840271,-98.02166,-96.298676,-95.048828,-95.362411,-97.340157,-100.04779,-102.16276,-102.88853,-102.51963,-102.26082,-103.39284,-106.33373,-110.23914,-113.43417,-114.44374,-112.96272,-110.13547,-107.92419,-107.94345,-110.47278,-114.26472,-117.27686,-117.87505,-115.78914,-112.24401,-109.22895,-108.36706,-110.06649,-113.42816,-116.88921,-119.15501,-119.84941,-119.53472,-119.1889,-119.53018,-120.62113,-121.95064,-122.85496,-122.96243,-122.37154,-121.51147,-120.83855,-120.59818,-120.78796,-121.27346,-121.92273,-122.64187,-123.32017,-123.8002,-123.93574,-123.7331,-123.42857,-123.3886,-123.84389,-124.63422,-125.18563,-124.81703,-123.22604,-120.82675,-118.66055,-117.84674,-118.88094,-121.23888,-123.59579,-124.58991,-123.66975,-121.47149,-119.44193,-118.90584,-120.17828,-122.31847,-123.72972,-123.2387,-120.9567,-118.30454,-117.15633,-118.62643,-122.30112,-126.44394,-129.06813,-129.17633,-127.33691,-125.2021,-124.30225,-124.96622,-126.14169,-126.29889,-124.77509,-122.56248,-121.82067,-124.26258,-129.41336,-133.98701,-133.05284,-122.57307,-101.93201,-74.919304,-48.421333,-29.373165,-21.564604,-24.035183,-31.906324,-39.13179,-41.583469,-38.77837,-33.426018,-29.275873,-28.68162,-31.342175,-34.837585,-36.441277,-34.956158,-31.423744,-28.352383,-28.07443,-31.324036,-36.902122,-42.530083,-46.24334,-47.410301,-46.801834,-45.811096,-45.456142,-45.85144,-46.42458,-46.602791,-46.392235,-46.413567,-47.394623,-49.533951,-52.237282,-54.433262,-55.250202,-54.570049,-53.07045,-51.74007,-51.224915,-51.466866,-51.865505,-51.801533,-51.107712,-50.130329,-49.355465,-48.922215,-48.43544,-47.276649,-45.198101,-42.743214,-41.105675,-41.429211,-43.980415,-47.779533,-51.024605,-52.117241,-50.679104,-47.889484,-45.872772,-46.467045,-50.110641,-55.528946,-60.430122,-62.78167,-61.902546,-58.736839,-55.194508,-53.01112,-52.849247,-54.137909,-55.664276,-56.450462,-56.330486,-55.89785,-55.949154,-56.868805,-58.387768,-59.847416,-60.719799,-60.977085,-61.039474,-61.364407,-62.016193,-62.565235,-62.42046,-61.364265,-59.885395,-59.026321,-59.794479,-62.49707,-66.44236,-70.233994,-72.499306,-72.631508,-71.096725,-69.139595,-68.078232,-68.618904,-70.565735,-73.042236,-75.038612,-75.91864,-75.620255,-74.505913,-73.028526,-71.469528,-69.884995,-68.233185,-66.520119,-64.83606,-63.245556,-61.647346,-59.724865,-57.062382,-53.354832,-48.586094,-43.054512,-37.234295,-31.554794,-26.219582,-21.14991,-16.048712,-10.535069,-4.2797813,2.8865137,10.904449,19.464106,28.058527,36.134514,43.313129,49.587559,55.368271,61.30648,67.94857,75.405373,83.240685,90.683105,97.070518,102.26117,106.75614,111.42988,117.01007,123.62436,130.70494,137.31573,142.70752,146.7475,149.96254,153.1666,156.92705,161.22841,165.53889,169.23424,172.06781,174.37804,176.86433,180.11346,184.17119,188.46579,192.14543,194.59114,195.79466,196.33939,197.02876,198.40599,200.47923,202.80241,204.82845,206.25923,207.16272,207.80042,208.33757,208.64455,208.39507,207.34749,205.6188,203.74036,202.39864,202.05617,202.67293,203.72623,204.51462,204.55484,203.82626,202.72478,201.79907,201.44202,201.73109,202.45877,203.28305,203.84897,203.82724,202.90302,200.83475,197.61517,193.65303,189.80113,187.09833,186.28119,187.31221,189.24095,190.54185,189.83862,186.60352,181.44737,175.79669,171.12906,168.20116,166.72601,165.66631,163.93501,161.06308,157.41345,153.84781,151.08812,149.23747,147.75874,145.92523,143.39731,140.50397,138.01848,136.57047,136.10658,135.80792,134.56982,131.76393,127.75042,123.77574,121.22522,120.65533,121.22299,120.90929,117.50693,109.82436,98.435287,85.497406,73.717209,65.02002,59.680843,56.40181,53.286789,49.136726,44.299099,40.559319,40.115528,44.21973,52.263966,61.860489,69.890709,73.964409,73.493431,69.812683,65.315445,62.132187,61.098923,61.572453,62.116955,61.575783,59.830574,57.780609,56.592064,56.741261,57.526093,57.408852,55.017384,50.16264,44.181866,39.316422,37.443775,38.936749,42.392673,45.456017,46.271915,44.659046,42.216179,41.208508,42.854424,46.079071,47.584396,43.349274,30.798378,10.435657,-14.017794,-37.121658,-54.079102,-62.721249,-64.114471,-61.583309,-58.806377,-58.085556,-59.660843,-62.254791,-64.311729,-65.075668,-64.901428,-64.759155,-65.4104,-66.891449,-68.608078,-69.908577,-70.644356,-71.292824,-72.562042,-74.793526,-77.61216,-80.113304,-81.454208,-81.450073,-80.745667,-80.441231,-81.410934,-83.770905,-86.833305,-89.563568,-91.213722,-91.729408,-91.683777,-91.834595,-92.633842,-94.006142,-95.508759,-96.699409,-97.430984,-97.87767,-98.318825,-98.887924,-99.498886,-99.982986,-100.3076,-100.66685,-101.34425,-102.45483,-103.78335,-104.87652,-105.35538,-105.21255,-104.85951,-104.85305,-105.47618,-106.50286,-107.35033,-107.54993,-107.21523,-107.12011,-108.26783,-111.18353,-115.40414,-119.56827,-122.13352,-122.31976,-120.67451,-118.85886,-118.73738,-121.29006,-126.02197,-131.23941,-135.02135,-136.29185,-135.34825,-133.53995,-132.36063,-132.55792,-133.80812,-135.11766,-135.62511,-135.22716,-134.61797,-134.74956,-136.10817,-138.33482,-140.43192,-141.41728,-140.97276,-139.66043,-138.58104,-138.71431,-140.38361,-143.14804,-146.1496,-148.62708,-150.286,-151.30653,-152.09915,-153.00372,-154.16203,-155.55453,-157.11165,-158.72482,-160.17902,-161.10831,-161.11342,-160.03607,-158.20016,-156.39201,-155.47517,-155.8615,-157.16927,-158.40582,-158.62683,-157.67397,-156.45444,-156.48573,-158.88255,-163.45413,-168.56419,-171.97835,-172.25948,-169.80515,-166.73204,-165.52101,-167.14328,-169.86714,-169.6329,-162.02728,-144.83507,-119.71417,-91.930817,-68.162529,-53.50095,-49.264957,-52.775463,-59.136971,-63.933762,-65.307808,-64.340324,-63.71603,-65.653961,-70.421303,-76.275085,-80.714241,-82.144119,-80.851585,-78.731247,-78.016045,-79.872627,-83.73867,-87.762573,-89.975937,-89.452461,-86.758034,-83.521065,-81.475616,-81.58371,-83.705078,-86.872177,-89.880272,-91.806946,-92.236832,-91.218536,-89.128693,-86.571198,-84.294609,-83.022118,-83.154709,-84.469116,-86.050423,-86.621033,-85.183716,-81.630745,-76.918243,-72.61515,-70.024857,-69.384544,-69.658234,-69.089363,-66.22448,-60.783825,-53.840199,-47.170841,-42.17374,-39.018715,-36.561512,-33.078762,-27.359552,-19.468288,-10.697751,-2.7413514,3.4017045,8.1092949,12.984584,19.959892,30.183865,43.340641,57.767941,71.272842,82.157005,89.894096,95.141594,99.18911,103.21407,107.78484,112.81982,117.9208,122.79633,127.48891,132.30748,137.5508,143.23758,149.02745,154.35904,158.71175,161.84468,163.87941,165.22935,166.42973,167.95805,170.11568,172.97989,176.42064,180.14749,183.79388,187.00063,189.49617,191.14876,191.96255,192.04471,191.54753,190.6418,189.50255,188.32535,187.3145,186.64091,186.38556,186.49843,186.81665,187.12498,187.25345,187.13002,186.77693,186.25816,185.62306,184.88715,184.04991,183.12743,182.14557,181.09595,179.88742,178.35822,176.37086,173.95435,171.39659,169.17509,167.73143,167.17992,167.12695,166.75261,165.13889,161.72418,156.61243,150.56792,144.67007,139.81911,136.34048,133.93228,131.93144,129.73952,127.14474,124.35677,121.76614,119.61856,117.83398,116.07946,114.03259,111.63334,109.12715,106.8773,105.06625,103.52497,101.81074,99.489906,96.428696,92.861443,89.1689,85.52478,81.683617,77.114792,71.457153,65.007675,58.88129,54.633076,53.497349,55.661804,60.057137,64.867218,68.509979,70.520035,71.735954,73.594482,76.877144,80.660851,82.194855,77.948479,65.392014,44.591129,18.698166,-7.0274038,-27.27425,-38.816353,-41.68504,-38.830257,-34.516785,-32.323105,-33.756954,-38.07935,-43.247635,-47.30801,-49.424416,-50.05772,-50.358761,-51.279362,-52.994495,-54.935978,-56.314266,-56.715569,-56.359039,-55.890884,-55.899414,-56.523232,-57.412045,-58.04108,-58.129917,-57.860634,-57.742249,-58.229065,-59.368732,-60.73167,-61.679234,-61.796577,-61.204533,-60.548145,-60.655888,-62.070702,-64.722191,-67.910927,-70.603394,-71.87677,-71.301567,-69.107941,-66.102982,-63.383625,-61.959972,-62.392883,-64.564774,-67.67289,-70.498238,-71.899971,-71.346954,-69.24411,-66.824829,-65.604248,-66.6203,-69.851936,-74.172256,-77.900414,-79.683205,-79.218407,-77.39975,-75.783058,-75.693474,-77.498108,-80.470627,-83.31041,-84.951286,-85.148415,-84.488388,-83.863998,-83.821594,-84.244751,-84.581558,-84.408432,-83.879944,-83.67746,-84.458061,-86.206543,-88.014839,-88.544502,-86.935699,-83.546051,-79.925507,-77.938271,-78.511505,-80.866249,-82.836044,-82.214134,-78.331879,-72.810478,-68.834908,-69.209099,-74.274368,-81.025574,-84.129524,-78.495872,-62.051788,-37.174057,-9.9042177,12.711674,25.769512,28.498938,24.121893,17.796484,13.884571,14.042156,17.039568,20.162464,21.17411,19.62961,16.866329,14.870865,14.878667,16.620983,18.628138,19.288197,17.913256,15.135193,12.443319,11.230659,11.991351,14.144247,16.512304,18.073555,18.478407,18.049219,17.357115,16.739471,16.115799,15.199324,13.902461,12.592545,11.972436,12.64005,14.619955,17.202343,19.233471,19.713509,18.356264,15.781778,13.225789,11.927821,12.535024,14.828858,17.88699,20.559521,21.986475,21.908518,20.659981,18.913946,17.352024,16.425964,16.286106,16.84314,17.873089,19.088844,20.163809,20.748901,20.535744,19.378506,17.417645,15.11622,13.133479,12.047626,12.040688,12.716311,13.193759,12.491124,10.050171,6.1393108,1.8910415,-1.1102741,-1.5396127,0.99643129,5.6791582,10.771502,14.373761,15.277659,13.488011,10.146898,6.9108901,5.1186647,5.1891904,6.5449953,8.05406,8.7038603,8.1176939,6.6528268,5.0829377,4.1051683,3.9814949,4.4987717,5.2140379,5.7771797,6.1082349,6.3379402,6.5948586,6.8281479,6.8086815,6.3140416,5.3586178,4.2922325,3.6737504,3.9807711,5.3249621,7.3488917,9.3743505,10.723797,11.04657,10.480969,9.5810928,9.0536079,9.4339848,10.845778,12.939466,15.029584,16.378057,16.514521,15.464247,13.776119,12.310936,11.858541,12.749089,14.660577,16.746397,18.050703,18.008474,16.752562,15.04429,13.844596,13.769687,14.7521,16.113838,17.007996,16.947721,16.08687,15.075421,14.593749,14.885905,15.608462,16.101221,15.885773,15.041695,14.185237,14.053741,14.97836,16.617746,18.149168,18.799608,18.354187,17.290632,16.445114,16.443155,17.298447,18.459417,19.261776,19.444975,19.341562,19.587284,20.563404,22.00441,23.106688,23.109848,21.94668,20.457474,19.927441,21.195122,23.924057,26.596708,27.342985,25.13826,20.601093,15.811616,13.176524,13.994343,17.620714,21.789431,23.937811,22.739281,18.898426,14.718379,12.711999,14.119794,18.235895,22.914717,25.883825,26.019352,23.816973,20.859879,18.728157,18.102303,18.602247,19.34647,19.732418,19.836372,20.178465,21.09701,22.27947,22.858999,22.046829,19.830885,17.18923,15.587852,16.058735,18.475927,21.549232,23.575294,23.467281,21.378471,18.517086,16.290154,15.382185,15.401389,15.319775,14.368422,12.72365,11.471126,11.849035,14.299956,18.012768,21.310793,22.658445,21.619835,19.121922,16.83939,16.11458,17.131611,18.889557,19.96686,19.534645,17.926603,16.3925,16.234394,17.935856,20.876785,23.795906,25.640261,26.18997,26.040174,26.001053,26.401571,26.828232,26.494713,24.947222,22.553139,20.372725,19.475084,20.187672,21.846159,23.254601,23.546106,22.812492,22.014776,22.201336,23.599134,25.288267,25.795282,24.27282,21.433229,19.457115,20.723667,26.026712,33.404324,38.473331,36.310955,23.974913,2.2796407,-24.214169,-49.07547,-66.789795,-75.01133,-75.167992,-71.246658,-67.55526,-66.732117,-68.976952,-72.700607,-75.95797,-77.714348,-78.230675,-78.520752,-79.387711,-80.760483,-81.738739,-81.272453,-78.968506,-75.485138,-72.26368,-70.775871,-71.740044,-74.758255,-78.548538,-81.597092,-82.869797,-82.213219,-80.301399,-78.221306,-76.947365,-76.966019,-78.180443,-80.088417,-82.077629,-83.693382,-84.760597,-85.341789,-85.604637,-85.690842,-85.673676,-85.604027,-85.590607,-85.824142,-86.492699,-87.62603,-88.975487,-90.050812,-90.350586,-89.668068,-88.300423,-86.976471,-86.50058,-87.28363,-89.056366,-90.963615,-92.029228,-91.739349,-90.368034,-88.841049,-88.189598,-88.930717,-90.766922,-92.802345,-94.125679,-94.376488,-93.919601,-93.511688,-93.716438,-94.487236,-95.228119,-95.280388,-94.499687,-93.463272,-93.134285,-94.188034,-96.494621,-99.139153,-101.01726,-101.59349,-101.26857,-101.0608,-101.80652,-103.46844,-105.12159,-105.7051,-105.03226,-104.23057,-105.08302,-108.47631,-112.8977,-114.12635,-106.69466,-86.638443,-54.139355,-14.475368,23.493093,50.78413,62.030212,57.605545,43.075241,26.320343,13.892879,8.4747267,8.5747509,10.312532,10.040602,6.2780514,0.037106693,-6.3270802,-10.789328,-12.762322,-13.088805,-13.156143,-13.878215,-15.237761,-16.580664,-17.307991,-17.389975,-17.346836,-17.781273,-18.881481,-20.289267,-21.413563,-21.907957,-21.916451,-21.888077,-22.121265,-22.421194,-22.181015,-20.864975,-18.538057,-16.012676,-14.432502,-14.526639,-16.035561,-17.734253,-18.095776,-16.198265,-12.29839,-7.6941996,-3.9610057,-2.045913,-1.7887199,-2.1404669,-1.8921338,-0.40772283,2.1049891,4.90376,7.3215051,9.2089424,10.912574,12.849052,15.046073,17.029713,18.172266,18.249781,17.779203,17.843857,19.476046,22.99168,27.731012,32.400948,35.81226,37.544342,38.119053,38.595943,39.889286,42.260597,45.304852,48.373543,51.094612,53.591972,56.25769,59.273739,62.270821,64.417442,64.919441,63.597771,61.132771,58.783794,57.727509,58.438244,60.485756,62.867168,64.625015,65.355103,65.302513,65.046478,65.044807,65.379066,65.832504,66.19236,66.48703,66.951134,67.749664,68.70433,69.294052,68.993843,67.731987,66.114662,65.187195,65.81514,68.063141,71.000214,73.120346,73.159775,70.826828,66.987816,63.181084,60.770069,60.251492,61.13253,62.403332,63.244862,63.488071,63.536236,63.868729,64.53022,65.013336,64.632813,63.116119,60.944294,59.141266,58.60725,59.440422,60.748711,61.151184,59.686272,56.5387,53.05859,50.995007,51.379414,53.772869,56.392841,57.103561,54.701958,49.716095,44.205334,40.657772,40.616154,43.840626,48.480907,52.128529,53.116119,51.311329,48.001495,45.020439,43.69524,44.236221,45.862545,47.473885,48.380367,48.620274,48.729675,49.19767,50.026382,50.706722,50.604095,49.464249,47.677292,46.108337,45.607403,46.51487,48.481445,50.6992,52.394218,53.266102,53.62347,54.163784,55.565441,58.143032,61.743221,65.892982,70.055038,73.828476,76.995285,79.456718,81.154671,82.066048,82.271088,82.016899,81.701576,81.751854,82.457489,83.851372,85.701744,87.605598,89.133972,89.948471,89.864227,88.872101,87.145409,85.028854,82.983246,81.458138,80.71347,80.67672,80.934738,80.910538,80.154434,78.601334,76.627411,74.853798,73.797607,73.565758,73.792564,73.849365,73.21241,71.751198,69.765656,67.76899,66.165581,65.055527,64.276985,63.634361,63.113522,62.901108,63.174442,63.828991,64.37326,64.137627,62.708084,60.303223,57.798855,56.30534,56.503681,58.146332,60.073097,60.80479,59.396763,56.053196,52.097366,49.275002,48.778046,50.554924,53.329971,55.321392,55.236721,52.958778,49.534664,46.50267,44.994766,45.152386,46.178444,46.927757,46.630577,45.28297,43.510338,42.049919,41.24482,40.880836,40.441509,39.550518,38.259251,36.976295,36.105015,35.678936,35.284061,34.337475,32.527473,30.088581,27.691813,26.006441,25.232014,24.935699,24.326517,22.794949,20.355394,17.681517,15.701376,15.013928,15.518369,16.495703,17.080856,16.79262,15.764348,14.535616,13.580026,12.93184,12.190722,10.902951,9.0212564,7.0747447,5.8733964,5.9218307,6.9529829,7.9540892,7.7325439,5.6889815,2.2834136,-1.1525455,-3.1820669,-3.1407213,-1.5498623,0.22117221,0.8432281,-0.10724434,-1.8840363,-3.096278,-2.6854708,-0.70062196,1.6642804,2.820672,1.8391782,-0.90464765,-3.9520423,-5.7326159,-5.6468196,-4.5078955,-3.9933939,-5.4178805,-8.6444941,-11.932244,-12.962462,-10.514928,-5.7692194,-2.3214283,-4.7101922,-16.131418,-36.562294,-62.369545,-87.700241,-106.98796,-117.28893,-119.27439,-116.4443,-113.08326,-112.11372,-113.97149,-116.97529,-118.81486,-118.1851,-115.6213,-113.11298,-112.83455,-115.798,-121.2431,-127.07804,-131.07674,-132.10526,-130.68359,-128.60788,-127.89111,-129.64622,-133.52078,-137.9487,-141.03008,-141.51122,-139.39114,-135.83955,-132.5826,-131.08667,-131.96429,-134.81908,-138.54356,-141.82756,-143.64995,-143.5627,-141.73669,-138.81825,-135.69963,-133.27548,-132.20262,-132.72527,-134.59843,-137.15895,-139.56638,-141.11986,-141.53197,-141.01894,-140.15816,-139.57524,-139.63362,-140.30138,-141.24364,-142.07961,-142.62936,-142.99785,-143.44231,-144.14221,-145.02776,-145.80017,-146.12509,-145.87567,-145.24294,-144.62849,-144.39653,-144.64061,-145.14662,-145.57562,-145.74602,-145.82054,-146.23433,-147.42262,-149.47758,-152.01711,-154.3266,-155.73964,-156.00706,-155.44579,-154.76755,-154.70929,-155.67946,-157.61578,-160.09521,-162.57431,-164.59233,-165.82935,-166.07927,-165.25073,-163.46481,-161.20079,-159.31471,-158.78223,-160.22092,-163.42941,-167.29582,-170.25166,-171.10374,-169.80063,-167.59602,-166.38887,-167.5043,-170.57828,-173.28835,-172.20743,-164.47978,-149.46129,-129.39243,-108.69312,-92.128761,-82.815033,-81.028328,-84.419685,-89.43119,-93.09623,-94.266258,-93.691292,-93.081596,-93.805206,-96.031013,-98.756912,-100.59275,-100.74026,-99.534889,-98.246078,-98.309464,-100.48408,-104.43656,-108.96374,-112.66032,-114.63283,-114.85561,-114.03233,-113.10999,-112.75238,-113.04408,-113.52943,-113.4969,-112.30402,-109.6028,-105.39758,-99.970375,-93.767776,-87.283318,-80.964668,-75.12088,-69.836159,-64.913322,-59.886253,-54.13858,-47.102478,-38.501766,-28.533169,-17.905596,-7.678699,1.0808549,7.7235241,12.347751,15.861662,19.686354,25.175522,32.987904,42.724876,53.054424,62.309959,69.287621,73.834419,76.898369,79.996025,84.396172,90.465866,97.562332,104.5082,110.34195,114.8789,118.74421,122.88889,127.9348,133.78465,139.76596,145.15674,149.7216,153.85542,158.22336,163.16751,168.3255,172.77049,175.63431,176.76604,176.96227,177.549,179.53981,182.95804,186.7798,189.60999,190.64862,190.29524,189.94917,191.06798,194.12213,198.13727,201.22054,201.76921,199.61647,196.31981,194.35284,195.64267,200.35469,206.70273,211.92949,213.8685,212.15327,208.3262,204.84737,203.63048,205.02092,207.8029,210.12544,210.68115,209.36055,207.03098,204.69244,202.683,200.51859,197.44479,193.26324,188.76389,185.39717,184.34735,185.65538,188.01639,189.45294,188.48813,185.04416,180.48926,176.77252,175.18202,175.53156,176.26556,175.43182,171.88904,165.98837,159.33337,153.80568,150.47958,149.09071,148.34198,146.7706,143.61435,139.13324,134.28885,130.04343,126.7957,124.28486,121.94836,119.41626,116.76389,114.36398,112.48385,110.9537,109.17639,106.4936,102.6583,98.094719,93.744904,90.59697,89.16362,89.225739,89.964401,90.39373,89.820679,88.104645,85.609993,82.934616,80.594673,78.817535,77.505943,76.328217,74.870499,72.784203,69.903503,66.328911,62.44318,58.839535,56.144833,54.790852,54.827339,55.874966,57.260353,58.283272,58.492722,57.843201,56.66716,55.483829,54.743073,54.619499,54.936356,55.239002,54.989964,53.808464,51.666229,48.952118,46.353821,44.578384,44.012688,44.492176,45.318588,45.557884,44.49353,41.997318,38.601059,35.206448,32.595287,31.028511,30.184912,29.470982,28.491529,27.346012,26.532438,26.510153,27.231558,28.006166,27.851049,26.140484,23.125372,19.929794,17.955051,18.022043,19.796778,21.898901,22.668741,21.138535,17.599623,13.403067,10.118772,8.5981607,8.5337934,8.7804041,8.1913614,6.3859987,3.9345367,1.8599797,0.83721912,0.67141122,0.42858317,-0.87839735,-3.548795,-6.9353681,-9.8574562,-11.391706,-11.470346,-10.855997,-10.516991,-10.869101,-11.452248,-11.296084,-9.7137613,-6.9306493,-4.0543642,-2.366955,-2.4343646,-3.688293,-4.8253436,-4.7700639,-3.5138767,-2.1921518,-2.2903996,-4.5165043,-8.1604395,-11.459585,-12.772787,-11.751391,-9.630271,-8.3470078,-9.0556736,-11.10841,-12.35469,-10.732738,-6.1638651,-1.4151489,-1.1344147,-9.4179201,-27.290033,-51.663033,-76.524498,-95.761116,-106.01295,-107.93618,-105.23837,-102.21077,-101.36488,-102.57211,-104.03932,-104.23379,-103.28651,-102.90748,-104.94525,-109.7476,-115.59602,-119.70853,-120.14301,-117.22723,-113.42024,-111.61327,-113.00581,-116.08102,-117.49961,-114.41828,-106.69902,-97.433327,-91.279892,-91.584625,-98.129021,-107.03355,-113.00021,-112.54677,-106.19046,-98.178841,-93.885727,-96.487694,-104.98782,-114.80734,-120.54381,-119.1811,-111.77811,-102.68807,-96.875809,-97.05027,-102.29859,-108.91904,-112.75998,-111.55436,-105.91274,-98.585922,-92.686935,-90.054855,-90.657082,-93.113304,-95.759361,-97.465744,-97.830086,-96.897842,-94.859589,-92.031967,-89.046028,-86.882393,-86.514656,-88.28389,-91.479362,-94.553955,-95.983269,-95.246956,-93.232483,-91.679298,-91.978027,-94.142418,-96.753647,-98.004517,-97.16021,-95.321289,-94.757095,-97.037788,-101.16176,-103.08108,-97.299301,-79.910744,-51.377651,-17.304201,13.529615,32.984974,37.240292,28.334204,12.778713,-1.8966175,-10.696314,-12.912748,-11.359006,-9.8770752,-10.809543,-13.929529,-17.221222,-18.691069,-17.836632,-15.812449,-14.343384,-14.31843,-15.156252,-15.39219,-14.012926,-11.495386,-9.7251177,-10.778318,-15.399872,-22.259983,-28.577196,-31.758295,-31.004025,-27.817122,-25.06612,-25.201845,-28.770771,-34.16964,-38.748192,-40.512131,-39.303051,-36.735065,-34.994965,-35.364487,-37.447044,-39.576347,-40.065563,-38.416515,-35.673012,-33.715477,-34.006485,-36.649208,-40.372673,-43.408058,-44.635464,-44.227573,-43.394733,-43.463863,-44.952637,-47.267311,-49.185329,-49.737148,-48.846844,-47.289154,-46.033283,-45.477715,-45.153175,-44.12558,-41.815598,-38.632084,-35.930916,-35.258492,-37.346981,-41.534683,-46.023563,-48.863739,-49.070965,-47.182873,-44.904648,-44.062923,-45.501598,-48.600922,-51.688919,-53.075256,-52.066582,-49.358948,-46.601761,-45.425823,-46.537178,-49.388039,-52.57238,-54.659473,-54.953621,-53.766739,-52.109478,-51.052322,-51.156464,-52.274342,-53.762135,-54.912994,-55.321568,-55.002506,-54.258751,-53.442738,-52.784275,-52.358894,-52.170197,-52.239582,-52.631939,-53.409595,-54.563148,-55.984573,-57.482014,-58.823471,-59.767368,-60.086529,-59.617893,-58.36282,-56.601627,-54.931717,-54.134087,-54.856579,-57.245094,-60.727806,-64.148438,-66.255424,-66.342926,-64.703514,-62.593678,-61.676777,-63.18845,-67.265068,-72.81691,-78.032913,-81.263458,-81.797455,-80.112061,-77.489006,-75.236,-73.988853,-73.482384,-72.880226,-71.405701,-68.840851,-65.583351,-62.259262,-59.175171,-56.030323,-52.088379,-46.719933,-39.938942,-32.553154,-25.795923,-20.634628,-17.194853,-14.660771,-11.729497,-7.3415155,-1.237286,5.9897957,13.346208,20.086081,26.127169,31.987316,38.321285,45.393627,52.859062,59.98093,66.125359,71.167694,75.543602,79.905457,84.664169,89.733833,94.667343,99.065697,102.93886,106.72696,110.94076,115.68044,120.40077,124.16072,126.23454,126.68924,126.51926,127.16187,129.66919,134.04187,139.1743,143.48442,145.86812,146.3614,146.10805,146.60924,148.74411,152.17456,155.53923,157.30588,156.77209,154.5638,152.31461,151.72859,153.59056,157.3376,161.43349,164.29561,165.19096,164.57401,163.70244,163.80658,165.34846,167.79971,170.02338,170.96484,170.20921,168.11005,165.47293,163.07076,161.31114,160.20448,159.57298,159.2655,159.20749,159.26747,159.11514,158.23779,156.1689,152.81522,148.63084,144.48788,141.2908,139.53136,139.07933,139.30298,139.47351,139.16,138.40654,137.57976,137.01974,136.7412,136.38004,135.4234,133.55157,130.88034,127.92781,125.3288,123.46641,122.23547,121.0706,119.2346,116.20249,111.95886,107.04855,102.37556,98.824341,96.870872,96.350159,96.483086,96.176277,94.487213,91.055084,86.306465,81.301468,77.267021,75.014038,74.538292,75.010712,75.189148,74.042778,71.257622,67.350952,63.349667,60.228764,58.445713,57.813301,57.739704,57.624081,57.129013,56.181488,54.775101,52.813721,50.189381,47.065559,44.113934,42.3899,42.741673,45.010853,47.536915,47.435127,41.713566,28.777485,9.5172358,-12.687037,-33.195038,-48.023109,-55.488441,-56.735329,-54.893551,-53.362812,-54.173138,-57.273365,-61.035576,-63.545742,-63.860195,-62.506966,-61.035297,-61.003468,-63.080811,-66.795242,-70.978699,-74.538994,-77.018486,-78.634521,-79.869972,-80.997261,-81.89267,-82.254868,-82.007889,-81.54258,-81.572998,-82.683922,-84.902489,-87.588432,-89.770264,-90.69368,-90.243614,-88.967369,-87.703468,-87.090233,-87.263954,-87.92717,-88.672829,-89.307426,-89.937744,-90.789276,-91.939034,-93.19577,-94.236031,-94.874138,-95.244644,-95.721176,-96.608116,-97.847488,-98.98307,-99.447906,-99.00235,-97.986023,-97.176247,-97.307381,-98.56218,-100.3999,-101.87326,-102.24036,-101.45909,-100.21927,-99.47403,-99.792206,-100.9836,-102.26115,-102.82182,-102.41565,-101.47795,-100.71542,-100.47106,-100.37395,-99.618591,-97.725937,-95.233238,-93.702522,-94.877129,-99.424927,-106.12058,-112.16141,-114.62884,-112.3132,-106.73479,-101.55388,-100.50568,-104.96786,-112.62624,-118.20874,-116.05435,-103.19765,-81.216721,-55.7589,-33.906906,-20.814932,-17.424902,-20.460337,-24.586868,-25.424341,-21.703615,-15.446662,-10.268101,-8.9488134,-11.758554,-16.436323,-19.679079,-19.130688,-14.654771,-8.2314215,-2.6824503,-0.093988962,-0.86301303,-3.8024507,-7.0576849,-9.1551361,-9.563055,-8.5650129,-6.7291985,-4.4465475,-1.8556471,0.89293039,3.3576362,4.8233261,4.6748586,2.8731222,0.16704983,-2.1687808,-2.9607241,-1.7608236,0.90795791,3.8335207,5.7455473,5.9252143,4.4681916,2.1159706,-0.1767513,-1.6528163,-1.9452299,-1.0429325,0.83719301,3.3284905,5.9204626,7.9877501,8.9473619,8.5380096,7.0661964,5.4080606,4.671186,5.6339784,8.2626953,11.610448,14.208757,14.776154,12.867946,9.1131544,4.9082279,1.7460663,0.54251498,1.3069897,3.2787828,5.3971648,6.8164215,7.2073226,6.7532034,5.9276857,5.2252035,4.9784093,5.2956009,6.0732789,7.034821,7.7936645,7.9707131,7.3738093,6.167244,4.9154315,4.4067593,5.2900267,7.6935391,11.051908,14.283336,16.264688,16.372202,14.788719,12.401519,10.341063,9.4133635,9.7378626,10.775557,11.704422,11.904009,11.2742,10.227339,9.398777,9.2698164,9.9218884,11.037503,12.10511,12.686766,12.599351,11.942764,11.00243,10.110655,9.5371246,9.4371738,9.8423882,10.671386,11.756132,12.887026,13.877097,14.623379,15.128958,15.473244,15.748001,16.006351,16.261089,16.529474,16.874363,17.39282,18.140358,19.044607,19.888184,20.409376,20.479153,20.240595,20.094921,20.501028,21.690201,23.473841,25.284773,26.459801,26.608646,25.842104,24.711229,23.882467,23.751034,24.230316,24.851942,25.098,24.746246,23.997231,23.309858,23.071201,23.339825,23.838499,24.197102,24.257055,24.207624,24.444269,25.241644,26.48208,27.645716,28.094257,27.467373,25.926689,24.07472,22.604023,21.908356,21.916624,22.242992,22.525267,22.690588,22.951199,23.548117,24.454441,25.300674,25.614807,25.222551,24.502687,24.257027,25.217951,27.493147,30.333838,32.442165,32.677544,30.743866,27.419291,24.152222,22.25724,22.196459,23.386835,24.63644,24.91301,23.943731,22.279963,20.823986,20.174143,20.247307,20.422789,20.076834,19.101278,18.019037,17.603897,18.276274,19.718287,21.006344,21.197433,19.98196,17.948324,16.258535,15.93434,17.211426,19.388115,21.258732,21.847504,20.963312,19.237185,17.656336,16.933084,17.130154,17.754408,18.195704,18.163269,17.812969,17.515917,17.493801,17.630775,17.612032,17.259106,16.76446,16.595043,17.108818,18.188225,19.224518,19.550732,19.048782,18.455088,19.016472,21.582352,25.657648,29.096222,28.801039,22.205782,8.7666092,-9.4037104,-28.210014,-43.283924,-51.857834,-53.832451,-51.51865,-48.272926,-46.818005,-48.14027,-51.440708,-54.977348,-57.186031,-57.418789,-55.998966,-53.760326,-51.496193,-49.691807,-48.600906,-48.451004,-49.49638,-51.826153,-55.090405,-58.427425,-60.753941,-61.298218,-60.044037,-57.760342,-55.567123,-54.286568,-54.005733,-54.128819,-53.882553,-52.915939,-51.579807,-50.691727,-50.949963,-52.409912,-54.393108,-55.903069,-56.264671,-55.549923,-54.495491,-53.968204,-54.353622,-55.294903,-55.976002,-55.75666,-54.719254,-53.724274,-53.895168,-55.838558,-59.103325,-62.255989,-63.579277,-62.010998,-57.780182,-52.369389,-47.805267,-45.662842,-46.316853,-48.817905,-51.427025,-52.510178,-51.315639,-48.277088,-44.72934,-42.227753,-41.819485,-43.61478,-46.828514,-50.23069,-52.760811,-53.991199,-54.218269,-54.153347,-54.401859,-55.041466,-55.560299,-55.212933,-53.591171,-51.034607,-48.583618,-47.428711,-48.156502,-50.280334,-52.421448,-53.121708,-51.83366,-49.438328,-47.846466,-48.788136,-52.447037,-56.801739,-58.217831,-53.125015,-39.936096,-20.131998,2.1558568,21.913025,35.434589,41.780674,42.762302,41.576004,40.9608,41.946201,43.811836,45.09214,44.83947,43.288193,41.56303,40.745258,41.041008,41.662228,41.489769,39.999126,37.756702,36.09549,36.190193,38.194077,41.069485,43.261242,43.756187,42.784084,41.649563,41.793446,43.725578,46.592342,48.706757,48.708023,46.557587,43.668751,42.042137,42.963425,46.126038,49.783173,51.83699,51.157516,48.259766,44.906139,42.921989,43.029305,44.479874,45.709759,45.535542,44.056618,42.629715,42.929913,45.737686,50.281166,54.587467,56.624428,55.495132,51.922634,47.751633,44.823006,43.962765,44.692509,45.754959,46.020729,45.137234,43.550323,41.994133,40.917538,40.29797,39.934448,39.910957,40.77433,43.193954,47.311062,52.278137,56.424126,58.064945,56.49107,52.491722,48.009361,45.086456,44.727638,46.387947,48.398132,49.05344,47.65649,44.863014,42.141479,40.742054,40.869038,41.596725,41.547668,39.856094,36.767963,33.489456,31.413851,31.244875,32.579109,34.188091,34.7696,33.682072,31.222412,28.345741,26.084953,25.053518,25.296976,26.469101,28.112961,29.821878,31.229704,31.955524,31.662642,30.259604,28.083899,25.859375,24.348799,23.866245,23.976095,23.643747,21.816324,18.117792,13.206428,8.5304708,5.5855336,5.1029553,6.6602402,8.9428816,10.486681,10.432331,8.8479137,6.4724479,4.1158614,2.1448221,0.38506597,-1.5531703,-3.8191831,-6.0987153,-7.7953725,-8.4710674,-8.2102613,-7.6183004,-7.4457531,-8.0949125,-9.3644447,-10.614422,-11.234473,-11.084384,-10.597605,-10.475846,-11.199938,-12.701785,-14.428016,-15.739799,-16.362202,-16.559168,-16.918724,-17.90303,-19.485023,-21.127518,-22.111855,-21.991787,-20.868134,-19.313972,-18.028593,-17.461855,-17.644192,-18.290657,-19.055676,-19.73727,-20.317635,-20.869692,-21.465395,-22.180796,-23.170752,-24.684263,-26.922791,-29.791306,-32.730694,-34.830273,-35.247131,-33.721874,-30.856646,-27.910744,-26.176893,-26.285765,-27.872879,-29.835316,-31.021109,-30.910141,-29.847982,-28.697973,-28.179401,-28.381979,-28.801136,-28.857969,-28.483711,-28.288754,-29.120874,-31.291567,-34.043533,-35.719833,-34.634613,-30.123564,-23.07122,-15.503242,-9.4471912,-5.7787127,-3.8152735,-1.9523393,1.0757365,5.1629839,8.7691584,9.9264088,7.6773734,2.9715168,-1.6438855,-3.4293947,-1.1234719,4.1681628,9.4407187,11.355629,7.9792638,-0.30748177,-11.183011,-21.700338,-29.68819,-34.44241,-36.470142,-36.693855,-35.778843,-34.0299,-31.765806,-29.685823,-28.774803,-29.720263,-32.278748,-35.168648,-36.725647,-35.971088,-33.365181,-30.635874,-29.694193,-31.300961,-34.413048,-36.743561,-36.253822,-32.626221,-27.684473,-24.373426,-24.853691,-28.902906,-33.696224,-35.193176,-30.356522,-18.877693,-3.3823566,11.973075,23.631218,30.211929,32.692547,33.268475,33.779697,34.755447,35.586323,35.495155,34.45369,33.28828,32.904541,33.245892,32.851009,29.463318,21.390421,8.7378407,-6.3322067,-20.53927,-31.066294,-36.80761,-38.545803,-38.037849,-36.707417,-34.835239,-31.744925,-26.758181,-20.151644,-13.386833,-8.420104,-6.5719328,-7.7441545,-10.52633,-13.10657,-14.353998,-14.352047,-14.075117,-14.517662,-15.936539,-17.737518,-19.023006,-19.322046,-18.907124,-18.461391,-18.394016,-18.408737,-17.749756,-15.996679,-13.776216,-12.704178,-14.370133,-18.906443,-24.130468,-26.029751,-20.574602,-5.9443049,16.125191,40.756039,61.989105,75.41082,79.92762,77.789429,72.998772,69.143639,67.89621,68.883736,70.680099,72.030014,72.410912,71.675247,69.259872,63.80442,53.686169,38.25045,18.884706,-0.93913376,-16.927853,-25.934814,-27.505331,-24.052439,-19.507122,-17.213696,-18.290146,-21.378225,-23.839809,-23.598335,-20.469864,-16.215666,-13.363417,-13.603776,-16.771898,-21.004185,-23.910273,-24.003065,-21.526701,-18.242132,-16.361843,-17.284189,-20.809645,-25.1847,-27.848217,-26.447453,-19.667862,-7.6200581,8.2304878,25.461039,41.277859,53.190308,59.66555,60.608006,57.453068,52.751091,49.302097,49.138298,52.78373,59.136883,66.034203,71.249123,73.45488,72.730927,70.404106,68.343399,68.039406,69.854515,72.747551,74.553505,72.72464,65.292122,51.720631,33.346939,13.182581,-4.9365788,-17.613525,-23.111149,-22.022072,-17.052605,-11.950276,-9.9975863,-12.71085,-19.303492,-27.121576,-32.818577,-33.718781,-28.790148,-18.879759,-6.2221298,6.4690762,16.924978,23.935022,27.508247,28.618908,28.675043,28.905712,29.871788,31.28953,32.257946,31.83214,29.674761,26.431627,23.554281,22.577806,24.212006,27.782007,31.437496,33.112423,31.744925,28.018745,24.102959,22.424492,24.136724,28.190474,31.64135,31.115234,24.650368,12.866066,-1.2312592,-13.717973,-21.666288,-24.428478,-23.620386,-21.911291,-21.422796,-22.696148,-24.759523,-26.106089,-25.844299,-24.250837,-22.432255,-21.424278,-21.420883,-21.680761,-21.158123,-19.371473,-16.872393,-14.960822,-14.832062,-16.739256,-19.750652,-22.271107,-22.985203,-21.60961,-18.982798,-16.483583,-15.194726,-15.369802,-16.496923,-17.82789,-18.935997,-19.90032,-21.034952,-22.445024,-23.81295,-24.620388,-24.642492,-24.301437,-24.533926,-26.181324,-29.296791,-32.889847,-35.370491,-35.486938,-33.169971,-29.709839,-27.083862,-26.820171,-29.089817,-32.615963,-35.46833,-36.246162,-34.912018,-32.755287,-31.530895,-32.346741,-35.00845,-38.222572,-40.48888,-41.074562,-40.436718,-39.848843,-40.511402,-42.757282,-45.861343,-48.550587,-49.835243,-49.598465,-48.574879,-47.773392,-47.779419,-48.417446,-48.985523,-48.854549,-47.977413,-46.913956,-46.3349,-46.349648,-46.142262,-44.238239,-39.292988,-30.964565,-20.323727,-9.5284748,-0.9008413,4.1023874,5.4791808,4.5400939,3.1494856,2.7808437,3.8833642,5.847177,7.5152707,7.9152918,6.8047843,4.770124,2.8694336,2.0485289,2.6439795,4.2256432,5.8408523,6.5296774,5.8464179,4.1330738,2.3972428,1.845295,3.2810919,6.6626134,11.042159,14.937934,16.977839,16.50626,13.861303,10.190843,6.9050655,5.0513911,4.9184923,6.0435901,7.5760384,8.7617884,9.2816105,9.2885494,9.173605,9.2443438,9.5159912,9.7180262,9.4739103,8.5178099,6.8172588,4.5589366,2.0530045,-0.36254439,-2.3657441,-3.6637461,-4.0350366,-3.4222682,-2.0348558,-0.36749059,0.93753856,1.3605967,0.77925885,-0.41743001,-1.4754055,-1.638159,-0.5470624,1.5398149,3.8403478,5.4191155,5.6480293,4.5193286,2.6526744,1.0005301,0.40246409,1.2068818,3.1333773,5.4120827,7.1188622,7.5406942,6.4212732,4.0083013,0.91453248,-2.1162705,-4.4416528,-5.665309,-5.6739974,-4.5925794,-2.7091043,-0.41334796,1.8440658,3.5994449,4.4616084,4.2367597,3.037605,1.2967753,-0.37620419,-1.4645016,-1.8121234,-1.7209197,-1.77663,-2.4553216,-3.7267954,-4.9210439,-5.0085258,-3.1934769,0.49857673,5.0239239,8.7032824,10.042992,8.5452614,5.0266571,1.20601,-1.23481,-1.5751451,-0.40279475,0.84764147,0.88800132,-0.52641839,-2.3896382,-3.0986257,-1.5746809,1.8727415,5.5419388,7.2693381,5.7642169,1.5160772,-3.3338239,-6.1427045,-5.2835135,-1.1200002,4.1682382,7.8261867,8.1032572,5.236619,1.2649115,-1.1949545,-0.46906102,3.2506869,8.0812225,11.56417,12.022583,9.3833599,5.0567884,1.0473136,-1.1186166,-1.044824,0.58113873,2.5645254,3.8847771,4.0990348,3.3478467,2.1058691,0.92000765,0.27278361,0.53255463,1.8824533,4.1781926,6.8433976,8.9733982,9.717783,8.7951336,6.81143,5.0992198,5.0588608,7.3206291,11.236122,15.064435,16.831633,15.408685,11.186265,5.9357471,1.9056892,0.67377812,2.4012666,5.9008965,9.425951,11.672222,12.389618,12.284332,12.351231,13.115658,14.287148,15.019575,14.566365,12.87769,10.741299,9.3784103,9.7542267,12.020657,15.411781,18.623549,20.442221,20.276609,18.357775,15.56518,13.028089,11.693705,12.006131,13.74968,16.062859,17.626879,17.034595,13.284801,6.2568798,-3.0608451,-12.768332,-20.6828,-25.175745,-25.832365,-23.596512,-20.298578,-17.785551,-17.088587,-18.045376,-19.549034,-20.25798,-19.363823,-17.006001,-14.141594,-11.98309,-11.339979,-12.22678,-13.920947,-15.404835,-15.92691,-15.375211,-14.283654,-13.492107,-13.656267,-14.871007,-16.596647,-17.925055,-18.04344,-16.660261,-14.17187,-11.474825,-9.5207291,-8.8396397,-9.2970123,-10.218628,-10.817776,-10.678522,-10.004496,-9.4737902,-9.7822742,-11.151836,-13.123553,-14.783487,-15.290881,-14.384138,-12.535089,-10.650225,-9.5118046,-9.3312159,-9.7129574,-10.045003,-10.032713,-9.9771748,-10.572818,-12.345267,-15.127896,-17.985039,-19.702007,-19.558378,-17.863537,-15.854826,-14.958532,-15.870245,-18.059437,-20.065546,-20.430246,-18.674009,-15.663445,-13.094722,-12.409444,-13.850493,-16.297373,-18.009699,-17.796833,-15.824923,-13.500319,-12.490703,-13.532242,-15.855261,-17.649837,-17.303869,-14.591786,-10.988913,-8.8426151,-9.889616,-14.064538,-19.397831,-23.104824,-23.211681,-19.699072,-14.459607,-10.113455,-8.454895,-9.5102692,-11.76594,-13.350035,-13.334007,-12.280342,-11.683863,-12.716047,-15.140814,-17.157772,-16.316526,-10.939023,-1.1662246,11.01098,22.738848,31.682467,36.992767,39.356613,40.223969,40.792076,41.392036,41.582184,40.762405,38.809074,36.289349,34.147419,33.136974,33.402946,34.478191,35.643024,36.360069,36.487907,36.185005,35.644508,34.912514,33.927307,32.72477,31.597418,31.030298,31.418306,32.750908,34.508823,35.877754,36.170975,35.197697,33.349125,31.350927,29.854006,29.117086,28.963373,28.996021,28.898582,28.613686,28.310984,28.209919,28.413006,28.869823,29.469894,30.168892,31.027887,32.14336,33.529755,35.059406,36.507641,37.663525,38.405884,38.686298,38.447636,37.575642,35.967075,33.697266,31.164198,29.071541,28.194437,29.027895,31.513788,35.014755,38.559029,41.218216,42.415211,42.020279,40.247162,37.484943,34.18716,30.861639,28.062525,26.290611,25.783365,26.322639,27.237835,27.688171,27.107706,25.549324,23.680464,22.392963,22.255388,23.164768,24.438068,25.290438,25.36714,24.94276,24.637281,24.847586,25.329725,25.286312,23.953024,21.297516,18.295719,16.510311,17.16044,20.268324,24.475149,27.717632,28.386799,26.252234,22.559973,19.241871,17.75,18.273449,19.817104,21.037956,21.219646,20.709076,20.538012,21.558468,23.750439,26.225935,27.908928,28.355444,28.064766,28.016539,28.775845,29.879919,30.0506,28.159737,24.264359,19.886105,17.195055,17.56567,20.500801,23.777134,24.85507,22.670321,18.56274,15.577612,16.480148,21.763454,29.059166,34.484394,35.153233,31.195808,25.850298,23.434374,26.444353,33.740768,41.143925,44.188744,41.278885,35.065384,30.952631,33.522289,43.15099,55.177464,62.440434,59.873631,48.390972,35.555172,32.368118,47.836342,84.305099,136.09685,192.02522,240.14471,272.02252,284.40887,278.06683,255.30696,218.30185,169.34451,112.50424,54.856079,5.6727839,-26.641949,-38.333313,-32.452763,-17.788771,-4.8569555,-1.0343505,-7.5128012,-19.683338,-30.544378,-34.990784,-32.466228,-26.621405,-22.511429,-23.305393,-28.575598,-35.04744,-39.06284,-38.999542,-36.098854,-33.338566,-33.291409,-36.483692,-41.284828,-45.241127,-46.803898,-46.245102,-45.20562,-45.332001,-47.039761,-49.28759,-50.456005,-49.641682,-47.397934,-45.387566,-45.215618,-47.279984,-50.461647,-52.867516,-53.107555,-51.219028,-48.614883,-47.101135,-47.647289,-49.730927,-51.693081,-51.842007,-49.57761,-45.811893,-42.440693,-41.236614,-42.858932,-46.567848,-50.743488,-53.828228,-55.103554,-54.896202,-54.194279,-54.005192,-54.864876,-56.731926,-59.21199,-61.877159,-64.453804,-66.813377,-68.861885,-70.483429,-71.605103,-72.338654,-73.05719,-74.31192,-76.59359,-80.044899,-84.27417,-88.397591,-91.32132,-92.198364,-90.89621,-88.280426,-86.142479,-86.68882,-91.708549,-101.7072,-115.42841,-130.0744,-142.2664,-149.39214,-150.71306,-147.67043,-143.15617,-140.11424,-140.15286,-142.92995,-146.60669,-149.07733,-149.25026,-147.63327,-145.92856,-145.92555,-148.42439,-152.81483,-157.53555,-161.06265,-162.76341,-163.11646,-163.22334,-164.0107,-165.67824,-167.71442,-169.41167,-170.42702,-171.00629,-171.71313,-172.93196,-174.53471,-175.97209,-176.72234,-176.73174,-176.5087,-176.77441,-177.93394,-179.77338,-181.61278,-182.83153,-183.37662,-183.85968,-185.14967,-187.72748,-191.26233,-194.74681,-197.10838,-197.90224,-197.61465,-197.3364,-198.04617,-199.96718,-202.43382,-204.33826,-204.82996,-203.79247,-201.78461,-199.54112,-197.41559,-195.18028,-192.28958,-188.38834,-183.62918,-178.55875,-173.64836,-168.8412,-163.51025,-156.88469,-148.67865,-139.44551,-130.3492,-122.48592,-116.17693,-110.74509,-104.92538,-97.650772,-88.681267,-78.648109,-68.522102,-58.891254,-49.588104,-39.904942,-29.227106,-17.582752,-5.6869102,5.5513525,15.685951,25.036444,34.391006,44.328987,54.68845,64.628021,73.26635,80.421402,86.837303,93.630272,101.3165,109.16024,115.49297,118.96893,120.00364,121.33107,127.04281,140.42998,161.81346,187.73593,212.19176,229.36656,236.40599,234.65825,228.68169,223.64462,222.64262,225.47708,229.45691,231.53915,230.37817,226.98511,223.75696,222.65021,223.8243,225.64809,225.98589,223.80675,219.95767,216.58354,215.6158,217.39861,220.41603,222.2964,221.40834,217.94835,213.78848,211.21616,211.40471,213.66742,215.93771,216.13599,213.47961,208.87784,204.22809,201.12837,199.91467,199.63693,198.90465,196.96707,194.24222,191.9584,191.19318,192.01755,193.34499,193.59169,191.67142,187.66209,182.7173,178.32152,175.42259,173.99004,173.2417,172.27873,170.65118,168.49585,166.201,163.95647,161.54703,158.5556,154.78455,150.54634,146.56912,143.56947,141.80879,140.93689,140.24341,139.09651,137.25502,134.81665,131.92264,128.47446,124.16631,118.83221,112.83237,107.13148,102.8923,100.79479,100.51881,100.79782,100.06364,97.320229,92.680527,87.217667,82.224716,78.371712,75.343613,72.173676,68.043854,62.96291,57.840996,53.889927,51.76466,51.045216,50.440083,48.589596,44.927673,40.022491,35.162258,31.47769,29.194452,27.520853,25.225189,21.494791,16.481304,11.182156,6.7694201,3.8535492,2.1892715,0.99040747,-0.42073163,-2.1304152,-3.6735287,-4.5447135,-4.765388,-5.0416017,-6.348958,-9.2155695,-13.229374,-17.166084,-19.707697,-20.295462,-19.539356,-18.881174,-19.709538,-22.495535,-26.512295,-30.314245,-32.649239,-33.203815,-32.707527,-32.366966,-33.046032,-34.745655,-36.709614,-38.028248,-38.290554,-37.829937,-37.429455,-37.7449,-38.884331,-40.442825,-41.926662,-43.209621,-44.640209,-46.696449,-49.449963,-52.263287,-54.016922,-53.766945,-51.418495,-47.942303,-44.947117,-43.845024,-45.122005,-48.152355,-51.656914,-54.466465,-56.104996,-56.845322,-57.282848,-57.788628,-58.253689,-58.284859,-57.657959,-56.640385,-55.902298,-56.053509,-57.146683,-58.540977,-59.266769,-58.680313,-56.959908,-55.078323,-54.246449,-55.168331,-57.60178,-60.517323,-62.741341,-63.665901,-63.552032,-63.254349,-63.574764,-64.707268,-66.140762,-67.071686,-67.008423,-66.136742,-65.186394,-64.900307,-65.482712,-66.421829,-66.811272,-65.953461,-63.835434,-61.163418,-58.933453,-57.84198,-57.91024,-58.556099,-59.021881,-58.852303,-58.107544,-57.205681,-56.548492,-56.22472,-55.986805,-55.493473,-54.602993,-53.491978,-52.501781,-51.847668,-51.416981,-50.823624,-49.688927,-47.951748,-45.977077,-44.37373,-43.634659,-43.832199,-44.569008,-45.212292,-45.252964,-44.57449,-43.479771,-42.494144,-42.086109,-42.45797,-43.499393,-44.860386,-46.07703,-46.697021,-46.402531,-45.137508,-43.211956,-41.286957,-40.168041,-40.435894,-42.081875,-44.39106,-46.214256,-46.547356,-45.111557,-42.567276,-40.18681,-39.130455,-39.756958,-41.407856,-42.832642,-43.005634,-41.810143,-40.125729,-39.224556,-39.854244,-41.61158,-43.062244,-42.583427,-39.420849,-34.280399,-29.041206,-25.726183,-25.347935,-27.341717,-29.936699,-31.230228,-30.292435,-27.626404,-24.732649,-23.096565,-23.269787,-24.615458,-25.827389,-25.827852,-24.422657,-22.303858,-20.449051,-19.384327,-18.839397,-18.025799,-16.311899,-13.781137,-11.256597,-9.7506027,-9.7248211,-10.689036,-11.44781,-10.85436,-8.5757418,-5.350688,-2.5471752,-1.2987475,-1.7750106,-3.062113,-3.7296233,-2.7194636,0.0047082338,3.4462187,6.1822071,7.1915383,6.3953118,4.6176157,3.0513265,2.6014681,3.5033545,5.3793416,7.6037021,9.6768312,11.368006,12.605056,13.281361,13.186629,12.141848,10.226946,7.9020672,5.8952947,4.9002347,5.2652054,6.8610702,9.1833029,11.588116,13.501806,14.510105,14.365996,13.028611,10.782526,8.3503981,6.8102489,7.1945982,9.8735542,14.050387,17.7626,18.555489,14.606943,5.7420373,-6.255342,-18.294662,-27.319117,-31.65407,-31.640289,-29.233379,-26.828571,-25.99762,-26.843142,-28.258381,-28.838034,-27.817781,-25.474133,-22.811674,-20.835976,-19.94437,-19.821287,-19.843161,-19.64048,-19.382183,-19.588579,-20.640942,-22.379627,-24.11245,-25.043432,-24.8083,-23.720028,-22.531235,-21.879093,-21.817434,-21.794283,-21.109344,-19.531883,-17.616615,-16.44706,-16.938517,-19.155262,-22.127754,-24.332462,-24.562464,-22.633404,-19.472309,-16.526215,-14.877833,-14.644525,-15.030451,-14.972363,-13.915669,-12.190025,-10.740572,-10.416738,-11.326152,-12.705129,-13.400714,-12.633534,-10.528567,-8.0585604,-6.4512348,-6.4599714,-7.972167,-10.176393,-12.124024,-13.273384,-13.65884,-13.62958,-13.422342,-12.935029,-11.882088,-10.192614,-8.2963533,-7.0089421,-7.0329084,-8.4127388,-10.358341,-11.634942,-11.307822,-9.3564157,-6.7201023,-4.7069197,-4.1379027,-4.8037386,-5.6186781,-5.3852849,-3.6596243,-1.1158741,0.8587653,1.073696,-0.66858172,-3.4478178,-5.8683314,-7.0230289,-7.0956292,-7.1541934,-8.2653484,-10.559831,-12.958544,-13.831582,-12.196424,-8.6273088,-5.1586256,-4.1054459,-6.4684162,-10.951791,-14.325878,-13.059484,-5.3341384,7.742322,22.479807,34.359066,40.217659,39.655834,34.93264,29.522446,26.250969,26.078524,28.115261,30.647823,32.391869,33.158211,33.621918,34.514259,35.906662,37.110985,37.220417,35.839058,33.436604,31.062807,29.635168,29.329947,29.519875,29.292746,28.165531,26.460728,25.069908,24.77508,25.635424,26.903063,27.553204,27.059328,25.844788,25.054968,25.76626,28.169104,31.307774,33.602642,33.847416,32.030674,29.420822,27.822735,28.46372,31.212946,34.635571,36.84293,36.601643,34.008343,30.338593,27.210203,25.623064,25.47332,25.794827,25.49791,24.076574,21.840773,19.582073,17.978252,17.176733,16.823671,16.453938,15.902196,15.406205,15.336711,15.786674,16.373213,16.441431,15.544046,13.845267,12.115993,11.278435,11.780181,13.236628,14.6085,14.827039,13.465809,11.006234,8.5139875,6.9370823,6.4970307,6.5842919,6.2263594,4.8090425,2.5522575,0.40958264,-0.55191904,0.12112893,1.9182738,3.6330621,4.0791278,2.7923026,0.27768573,-2.341496,-4.0248237,-4.4115844,-3.950613,-3.5224974,-3.8391051,-5.0207729,-6.5988846,-7.8871818,-8.4314995,-8.2307053,-7.6147785,-6.9171772,-6.2120876,-5.3041654,-3.9575601,-2.1606765,-0.2114151,1.451039,2.5393813,3.1118398,3.517204,4.1349249,5.1085663,6.2806501,7.3801823,8.3151999,9.3293724,10.87613,13.27291,16.384352,19.586744,22.089346,23.432928,23.836378,24.140572,25.344719,28.004923,31.865774,35.959454,39.120174,40.598557,40.411694,39.240227,37.969139,37.182205,36.916153,36.790878,36.37719,35.531689,34.483315,33.651375,33.357471,33.653103,34.362202,35.274082,36.309536,37.514591,38.891357,40.217354,41.025204,40.812965,39.368935,37.000275,34.488949,32.768452,32.490681,33.725956,35.958107,38.357006,40.157486,40.945641,40.727192,39.81213,38.627586,37.570156,36.925926,36.826759,37.192066,37.687695,37.765099,36.84362,34.597538,31.198292,27.342453,23.991533,21.930992,21.390387,21.954664,22.829372,23.301525,23.102509,22.449739,21.759981,21.257774,20.77252,19.885408,18.316046,16.248276,14.314605,13.192533,13.070031,13.375045,13.027061,11.121295,7.6302056,3.6293073,0.81848204,0.55902904,2.9929123,6.8154612,9.9012089,10.454787,8.0132179,3.6856391,-0.52301431,-2.8977196,-2.9810724,-1.733506,-0.8068707,-1.4142554,-3.5351183,-5.9786911,-7.272531,-6.8107371,-5.5084558,-5.5095854,-9.0715618,-17.263754,-29.237381,-42.495354,-54.009941,-61.569252,-64.636116,-64.32695,-62.608738,-61.238247,-61.014095,-61.663303,-62.291744,-62.041672,-60.56395,-58.105968,-55.275288,-52.689953,-50.72953,-49.45752,-48.679054,-48.040764,-47.125793,-45.556896,-43.1269,-39.930115,-36.406719,-33.227192,-31.016205,-30.042253,-30.043982,-30.320885,-30.052813,-28.679977,-26.127941,-22.762724,-19.127296,-15.643997,-12.47079,-9.5716743,-6.907763,-4.5706954,-2.7429378,-1.5155094,-0.7192651,0.063399613,1.2732742,3.069056,5.1613259,6.9370356,7.8261342,7.6895671,6.9622803,6.4303288,6.7589612,8.0644722,9.8084927,11.099452,11.219646,10.051953,8.1334915,6.3080711,5.2002301,4.8507419,4.7429996,4.191504,2.8345578,0.90364724,-0.89885235,-1.8338153,-1.5889418,-0.48012647,0.72533351,1.2427086,0.6868574,-0.76907599,-2.5582368,-4.0727878,-4.9748669,-5.2970757,-5.3199959,-5.354466,-5.5848408,-6.0477824,-6.7045307,-7.5015116,-8.3548861,-9.0922613,-9.452426,-9.2144833,-8.4183779,-7.5234399,-7.3370328,-8.6630459,-11.810126,-16.24062,-20.621939,-23.345345,-23.308201,-20.567202,-16.48103,-13.199631,-12.687642,-15.732445,-21.422932,-27.386614,-30.708834,-29.144258,-22.081604,-10.840046,1.826658,12.790583,19.711529,21.810028,19.956579,16.090818,12.276505,9.8421059,8.97857,8.9307289,8.6194706,7.3330183,5.1162877,2.6768832,0.90408641,0.3111335,0.746553,1.5405329,1.9814477,1.8093665,1.3980561,1.4928896,2.6652784,4.8345137,7.1878467,8.5890989,8.2485447,6.2476063,3.5717657,1.6010259,1.3348815,2.8091362,5.0569916,6.644371,6.4711576,4.3691354,1.1565799,-1.8622082,-3.6415393,-3.9416945,-3.384064,-3.0202179,-3.7077117,-5.6648211,-8.4334965,-11.21511,-13.330817,-14.526075,-14.974622,-15.044914,-15.019441,-14.948244,-14.694329,-14.097473,-13.12477,-11.925434,-10.785215,-10.039794,-9.990572,-10.827352,-12.538247,-14.821371,-17.069294,-18.512119,-18.53006,-17.014343,-14.557008,-12.287926,-11.354339,-12.282741,-14.588688,-16.915556,-17.694401,-15.999732,-12.112948,-7.4493642,-3.8575964,-2.6773808,-4.0890012,-7.1144142,-10.236983,-12.242215,-12.773865,-12.312696,-11.669671,-11.381783,-11.423163,-11.38166,-10.912796,-10.091169,-9.3797483,-9.2470541,-9.732625,-10.325722,-10.28223,-9.1725693,-7.2550635,-5.3694582,-4.3876061,-4.6031008,-5.5213609,-6.248754,-6.2420635,-5.8689203,-6.2976041,-8.6763182,-13.083804,-17.989136,-20.721121,-18.829252,-11.603065,-0.81737435,9.8528404,16.530905,17.051489,12.018064,4.3987422,-2.1002212,-4.9477463,-3.9113655,-0.81869459,1.7934817,2.2604637,0.64869291,-1.5488068,-2.5734234,-1.610972,0.72151256,2.8668673,3.4074948,1.9953899,-0.46045026,-2.4215991,-2.7100363,-1.2020968,1.1958156,3.2161477,4.0657392,3.8742194,3.5011199,3.8759353,5.3443189,7.4441428,9.2239313,9.8547964,9.1174307,7.4635787,5.6609211,4.2977896,3.4886611,2.9464321,2.3249059,1.5542043,0.92292625,0.85900211,1.5793362,2.8673584,4.1440058,4.7942247,4.5387602,3.6127152,2.639436,2.2777238,2.8485723,4.1558022,5.5877924,6.4344921,6.2439361,5.0413966,3.31112,1.7645383,1.0047672,1.2428198,2.1919687,3.1937847,3.5334013,2.8071487,1.166923,-0.69940382,-1.8712338,-1.6512896,0.059674833,2.6838355,5.2474284,6.8806772,7.2515564,6.6749358,5.8285155,5.2540154,4.9706774,4.4633694,3.0708783,0.52752364,-2.7094822,-5.5876956,-6.9951687,-6.3779507,-4.0502996,-0.99250406,1.7281663,3.5399747,4.5774803,5.4040561,6.4655395,7.6802549,8.4676342,8.2038841,6.7783775,4.8362246,3.4981408,3.7143254,5.6725745,8.66329,11.504881,13.251672,13.722945,13.512767,13.502347,14.237013,15.604111,17.016006,17.925503,18.258162,18.419254,18.874266,19.650816,20.202118,19.811899,18.285748,16.37952,15.523784,16.867903,20.20542,23.55295,23.841087,18.494076,7.045053,-8.2139196,-23.054756,-33.263145,-36.66251,-34.070663,-28.647516,-24.032612,-22.3783,-23.414103,-25.02215,-24.876741,-22.075491,-17.751431,-14.345077,-14.059894,-17.512936,-23.411896,-29.400396,-33.474354,-35.049995,-35.054729,-35.067783,-36.148247,-38.129139,-39.796471,-39.774063,-37.477562,-33.515045,-29.310173,-26.243246,-24.888203,-24.813234,-25.001425,-24.551476,-23.179716,-21.241833,-19.348148,-17.903389,-16.907639,-16.115038,-15.371307,-14.8302,-14.868291,-15.759732,-17.367519,-19.099504,-20.187677,-20.123144,-18.959249,-17.292959,-15.942483,-15.526621,-16.193146,-17.622234,-19.254681,-20.572079,-21.279303,-21.337906,-20.903114,-20.243994,-19.675692,-19.480867,-19.794685,-20.496387,-21.198502,-21.41044,-20.831701,-19.60713,-18.340916,-17.797039,-18.424212,-20.016052,-21.770342,-22.779184,-22.659777,-21.890436,-21.545221,-22.504196,-24.595455,-26.27116,-25.14332,-19.202179,-8.0731726,6.43677,20.900965,31.716715,36.691063,35.935081,31.614988,26.753265,23.772558,23.558485,25.445421,27.965708,29.813597,30.440624,30.044872,29.137558,28.094704,27.0182,25.923912,24.997253,24.628326,25.143921,26.440458,27.850595,28.430113,27.539703,25.341873,22.831757,21.312359,21.598877,23.458633,25.672235,26.725269,25.719349,22.942526,19.730145,17.68915,17.75812,19.669735,22.130424,23.5896,23.11495,20.858309,17.867516,15.412086,14.26524,14.366808,15.021947,15.444071,15.265523,14.700998,14.30141,14.503923,15.289661,16.169851,16.494543,15.8816,14.504238,13.06685,12.484484,13.433896,15.998746,19.576324,23.090425,25.421686,25.882603,24.534904,22.201008,20.136751,19.476227,20.691376,23.334055,26.222851,28.022165,27.936239,26.148527,23.739214,22.099592,22.149836,23.81262,26.05291,27.478565,27.146658,25.094131,22.273317,19.938313,18.879721,18.988169,19.418249,19.224239,18.031837,16.287909,14.916578,14.617327,15.291885,16.013914,15.599459,13.422962,9.9432001,6.5637574,4.8759031,5.7302098,8.7056541,12.311943,14.803317,15.122169,13.414402,10.841664,8.846137,8.3381147,9.2840557,10.891158,12.198196,12.662909,12.382241,11.864312,11.569574,11.57021,11.557498,11.163381,10.336401,9.4828529,9.2504015,10.089672,11.883913,13.906457,15.157456,14.895022,13.048267,10.273192,7.6143398,5.9626584,5.6095028,6.1302652,6.6528883,6.3536429,4.9170208,2.7163622,0.63066739,-0.40936735,0.087331258,1.8969978,4.166029,5.8209505,6.0944023,4.8946395,2.8131795,0.76568192,-0.53582442,-0.96758938,-1.0037209,-1.3348202,-2.3362069,-3.7406504,-4.7650208,-4.6496792,-3.2811139,-1.4569896,-0.54467648,-1.6652405,-4.8789916,-8.9235334,-11.760796,-11.700111,-8.4546595,-3.468123,0.7648775,2.0500104,-0.25086734,-4.8225222,-9.1257668,-10.852868,-9.2507305,-5.5296316,-2.1189275,-1.2327574,-3.6201746,-8.237175,-12.987425,-16.022648,-16.765572,-16.048935,-15.356692,-15.73202,-17.103701,-18.453506,-18.664942,-17.4275,-15.55671,-14.499542,-15.368125,-18.161144,-21.703737,-24.343918,-24.941927,-23.504488,-21.075218,-19.003252,-18.114193,-18.335407,-18.974905,-19.378119,-19.437536,-19.571899,-20.218283,-21.274948,-21.994602,-21.503147,-19.624758,-17.39843,-16.806318,-19.732895,-26.726353,-36.350281,-45.617859,-51.361858,-51.807476,-47.44524,-40.704601,-34.617798,-31.250467,-30.784914,-31.721954,-31.996136,-30.275026,-26.676842,-22.536339,-19.457144,-18.284708,-18.615545,-19.087561,-18.205576,-15.170135,-10.249189,-4.5437851,0.63135016,4.3710585,6.4924202,7.4631677,8.0832567,9.1339264,11.138822,14.263143,18.309803,22.772892,26.965349,30.232203,32.208801,33.004063,33.183247,33.501831,34.509762,36.242874,38.196918,39.624264,39.987133,39.294353,38.115524,37.263462,37.342911,38.44331,40.14817,41.824928,42.991508,43.51976,43.579037,43.40131,43.064613,42.457993,41.433918,40.011379,38.458805,37.180012,36.481354,36.385483,36.627522,36.828728,36.722179,36.26746,35.594631,34.844051,34.050003,33.160728,32.16655,31.197166,30.461924,30.041536,29.683304,28.800838,26.761541,23.332544,18.99477,14.867479,12.203932,11.709705,13.082883,15.084903,16.138296,15.124317,11.919724,7.367074,2.722455,-1.0542459,-3.7275107,-5.7001123,-7.5351729,-9.4622355,-11.227909,-12.378117,-12.73469,-12.669166,-12.924002,-14.074368,-16.009699,-17.858551,-18.490389,-17.319628,-14.876975,-12.696305,-12.47931,-14.981776,-19.299112,-23.054815,-23.475235,-18.809183,-9.3105583,2.7671554,14.16876,22.087872,25.303001,24.451954,21.404835,18.182201,16.050915,15.227976,15.213942,15.402501,15.525361,15.683555,16.04126,16.487459,16.555407,15.678251,13.598285,10.633119,7.5958943,5.4001379,4.585288,5.0464292,6.1174951,6.9385715,6.8818731,5.8106956,4.0636029,2.2370288,0.91592145,0.49138969,1.1026042,2.6514878,4.8292398,7.1411047,8.9746933,9.7578583,9.1855116,7.406651,5.0387201,2.9449263,1.8474572,1.9706336,2.9175136,3.8683426,4.0103059,2.9689314,1.0032493,-1.1392902,-2.6234818,-2.9560268,-2.2139292,-0.96644944,0.037867386,0.23082402,-0.56318104,-2.1408732,-4.1047397,-6.0777302,-7.8203487,-9.2140379,-10.173129,-10.586373,-10.353501,-9.4991064,-8.2753515,-7.1578226,-6.6983104,-7.2875714,-8.9406071,-11.225708,-13.385965,-14.620724,-14.407907,-12.734821,-10.133066,-7.4976273,-5.7579927,-5.5251079,-6.8588295,-9.2522984,-11.844633,-13.779397,-14.556586,-14.227668,-13.344044,-12.681494,-12.874355,-14.129903,-16.157034,-18.33305,-20.006443,-20.777441,-20.613575,-19.769323,-18.588106,-17.323118,-16.087006,-14.935399,-13.995149,-13.515356,-13.776211,-14.898687,-16.684198,-18.616438,-20.059731,-20.561155,-20.085674,-19.033621,-18.018578,-17.53051,-17.68305,-18.193726,-18.607395,-18.611183,-18.238735,-17.829447,-17.771057,-18.204079,-18.890408,-19.355371,-19.21694,-18.494165,-17.675825,-17.478437,-18.419167,-20.462324,-22.965395,-24.980307,-25.747879,-25.108644,-23.589848,-22.122301,-21.551418,-22.217999,-23.829788,-25.664698,-26.963701,-27.278227,-26.606161,-25.294985,-23.827091,-22.635651,-22.03245,-22.213261,-23.255991,-25.05537,-27.242329,-29.195902,-30.233784,-29.942251,-28.473412,-26.598351,-25.412186,-25.794533,-27.907635,-31.032217,-33.87973,-35.243721,-34.643585,-32.591602,-30.330284,-29.171535,-29.815218,-32.018673,-34.787258,-36.951569,-37.781921,-37.300114,-36.148163,-35.142502,-34.808716,-35.162102,-35.818256,-36.304447,-36.347878,-35.968994,-35.369766,-34.750751,-34.200443,-33.72863,-33.371445,-33.251011,-33.509789,-34.169361,-35.033936,-35.762947,-36.090958,-36.067253,-36.124443,-36.890224,-38.816807,-41.855896,-45.386162,-48.475464,-50.335632,-50.71199,-49.977669,-48.886642,-48.147034,-48.068905,-48.488007,-48.972084,-49.148251,-48.930279,-48.522503,-48.237747,-48.291809,-48.719769,-49.448654,-50.430737,-51.693981,-53.251175,-54.938908,-56.340912,-56.915237,-56.291321,-54.566181,-52.381607,-50.690594,-50.303944,-51.473206,-53.752537,-56.232475,-58.011635,-58.642075,-58.307343,-57.666599,-57.491997,-58.325043,-60.317154,-63.284794,-66.869804,-70.666603,-74.267426,-77.267731,-79.310913,-80.206482,-80.050598,-79.22451,-78.231522,-77.447685,-76.970879,-76.706451,-76.673111,-77.317375,-79.545792,-84.348167,-92.155067,-102.31024,-113.05534,-122.15956,-127.91061,-129.9359,-129.34073,-128.03352,-127.62224,-128.51166,-129.77095,-129.8428,-127.65553,-123.41988,-118.58364,-114.96342,-113.58256,-113.9707,-114.39524,-112.88882,-108.4457,-101.62807,-94.20063,-88.023994,-83.90873,-81.145294,-77.991188,-72.77874,-64.930847,-55.245312,-45.300442,-36.412853,-28.838064,-21.735344,-13.883221,-4.6382132,5.5240283,15.258895,23.229815,29.02618,33.506741,38.324936,44.928375,53.665524,63.561481,72.902313,80.258347,85.312241,89.00029,92.909317,98.322701,105.50165,113.59769,121.19987,127.13742,131.05658,133.47693,135.37665,137.62051,140.58057,144.13046,147.90651,151.61259,155.13144,158.45291,161.49689,164.05971,165.91451,167.02133,167.65308,168.32629,169.53748,171.47774,173.91035,176.30887,178.16365,179.28081,179.86467,180.34631,181.06136,181.99271,182.75145,182.82018,181.90865,180.20013,178.32797,177.06464,176.89197,177.68697,178.72063,178.98538,177.71709,174.81805,170.98109,167.38759,165.14294,164.7014,165.60257,166.66632,166.59067,164.63763,161.06113,156.99286,153.84969,152.53583,152.91187,153.84738,153.87892,152.12767,148.96754,145.99382,145.27937,148.25284,154.81299,163.20506,170.72859,174.96667,174.85155,171.03691,165.39919,159.97337,155.95163,153.24887,150.84904,147.62361,143.12357,137.86266,132.97459,129.49963,127.73418,127.05605,126.26884,124.2523,120.53845,115.51206,110.17654,105.66035,102.74007,101.57668,101.73542,102.40281,102.68172,101.86004,99.608841,96.072273,91.824203,87.663246,84.295006,82.013885,80.556999,79.241791,77.350983,74.570808,71.212585,68.050903,65.854027,64.860016,64.551384,63.888309,61.899464,58.274418,53.592838,49.024269,45.665688,43.912838,43.251301,42.585636,40.898113,37.827717,33.816967,29.777796,26.512056,24.279951,22.769335,21.439842,19.957129,18.397673,17.089106,16.232512,15.623809,14.717305,13.022685,10.559105,8.0132723,6.4300399,6.5775151,8.3795195,10.798743,12.29435,11.613371,8.4595089,3.6432338,-1.3690851,-5.2288527,-7.3465958,-8.0483694,-8.2098541,-8.6485834,-9.6644096,-10.983225,-12.075671,-12.58565,-12.573767,-12.442412,-12.645318,-13.417995,-14.7158,-16.367018,-18.281412,-20.523317,-23.184414,-26.164455,-29.067005,-31.335918,-32.585377,-32.904629,-32.910614,-33.466415,-35.216877,-38.213734,-41.869671,-45.267532,-47.635937,-48.702221,-48.731533,-48.270557,-47.804462,-47.556053,-47.530731,-47.717751,-48.237301,-49.29612,-50.971649,-53.008152,-54.830387,-55.826176,-55.750546,-54.97261,-54.365582,-54.848255,-56.839333,-59.958549,-63.186707,-65.415504,-66.077408,-65.483894,-64.673645,-64.852425,-66.752052,-70.260101,-74.505539,-78.319565,-80.794067,-81.643295,-81.221756,-80.244209,-79.419067,-79.172775,-79.574768,-80.430702,-81.447037,-82.389984,-83.185318,-83.958496,-85.007622,-86.70089,-89.309509,-92.828148,-96.885384,-100.83199,-103.99989,-106.02332,-107.03376,-107.59324,-108.37797,-109.78312,-111.69743,-113.59931,-114.91742,-115.44059,-115.49076,-115.74072,-116.78497,-118.73737,-121.14389,-123.26297,-124.5577,-125.06181,-125.3851,-126.34448,-128.45715,-131.63297,-135.24306,-138.52223,-141.01068,-142.7534,-144.14706,-145.57297,-147.09996,-148.46719,-149.35814,-149.73718,-149.9838,-150.70319,-152.33678,-154.84459,-157.70221,-160.21696,-161.9677,-163.05983,-164.02859,-165.47273,-167.66707,-170.41856,-173.22392,-175.58411,-177.22072,-178.08772,-178.22075,-177.65344,-176.55054,-175.46214,-175.45973,-177.86218,-183.55692,-192.28654,-202.38068,-211.2847,-216.7305,-217.91376,-215.95331,-213.28175,-212.24994,-213.81253,-217.11778,-220.30038,-221.93607,-222.12927,-222.40613,-224.3438,-227.85872,-230.40199,-227.88489,-217.03043,-197.80888,-174.31099,-153.23097,-140.53247,-138.09229,-142.30879,-145.65707,-140.50243,-123.11993,-95.722984,-65.417351,-40.718632,-27.630108,-27.379854,-36.830986,-50.954903,-65.655663,-79.259888,-92.057762,-104.61275,-116.29544,-125.16603,-129.25389,-128.22478,-124.12408,-120.54902,-120.68476,-125.49393,-133.23099,-140.5806,-144.66264,-144.55374,-141.42384,-137.30386,-133.48332,-129.67386,-124.49612,-116.81856,-106.87689,-96.286346,-86.922707,-79.542252,-73.241051,-66.25209,-57.519634,-47.815048,-39.358669,-33.982605,-31.042337,-26.719652,-15.617623,5.9610691,36.986961,71.019928,98.730133,112.53079,110.75872,98.868385,86.723717,83.334641,91.9841,108.54421,123.99073,129.67621,122.35278,106.08765,90.057655,83.561539,91.101959,110.20983,133.00046,150.33965,156.21198,150.02232,135.97685,120.34622,108.3598,102.37505,101.86309,104.69663,108.65292,112.28564,114.97218,116.53767,116.95251,116.32401,115.02132,113.64622,112.75988,112.56224,112.82922,113.19869,113.58102,114.29157,115.71059,117.69765,119.31583,119.29812,117.15877,114.2211,113.65241,119.08672,132.34862,151.59605,171.24905,184.14938,185.08757,173.80382,155.662,139.34856,132.67107,138.63484,153.94774,170.74873,180.59065,178.48698,164.901,144.83208,124.79369,109.57833,100.53879,96.054153,93.452576,90.952881,88.435387,86.823158,86.815903,88.054672,89.310867,89.468826,88.46563,87.420975,87.831551,90.427177,94.541031,98.486969,100.69205,100.78387,99.85701,99.720001,101.65897,105.57761,110.10453,113.56176,115.08973,115.12621,114.93963,115.61645,117.29294,119.23371,120.67928,121.77216,123.74418,128.06387,135.05602,143.00258,148.54671,148.37671,141.27483,129.19206,116.53336,107.91418,105.65575,108.54018,112.6535,113.85918,110.43562,104.2635,99.81916,101.5574,111.24718,126.84868,143.56505,156.39098,162.62883,162.90726,160.21931,157.70291,156.60812,155.65666,152.13623,143.92381,131.15558,116.51078,103.95966,96.746628,95.780334,99.29361,103.8813,106.262,104.8051,100.09895,94.427162,90.561066,90.53521,94.926651,102.80748,112.24377,121.01707,127.31308,130.17801,129.68327,126.76951,122.82343,119.12173,116.3513,114.43676,112.7748,110.75167,108.24738,105.79636,104.26269,104.20277,105.31289,106.35652,105.69201,102.15488,95.785004,87.942581,80.694382,75.775444,73.702637,73.535194,73.415451,71.576782,67.252632,60.993683,54.262901,48.588177,44.774853,42.604733,41.130768,39.330029,36.699741,33.462799,30.310579,27.892286,26.379276,25.36167,24.112091,22.041246,19.070093,15.711618,12.815446,11.112878,10.792941,11.324846,11.626245,10.518996,7.2837005,2.0624883,-4.091454,-9.581707,-12.927606,-13.436798,-11.568576,-8.7789364,-6.8767982,-7.1725631,-9.8391838,-13.829722,-17.432598,-19.211548,-18.856613,-17.49453,-17.267015,-20.365849,-27.989635,-39.733112,-53.691555,-67.212227,-77.908768,-84.475883,-86.978737,-86.582108,-84.928474,-83.49398,-83.172218,-84.168968,-86.141022,-88.455475,-90.451263,-91.650124,-91.903725,-91.432182,-90.747803,-90.440781,-90.912231,-92.175476,-93.852577,-95.386818,-96.372841,-96.783554,-96.953369,-97.290665,-97.914467,-98.469063,-98.292282,-96.872292,-94.319344,-91.494865,-89.662476,-89.779823,-91.864891,-94.85508,-97.115646,-97.366508,-95.479141,-92.638519,-90.708633,-91.129547,-94.000237,-97.916924,-100.72519,-100.76177,-97.858093,-93.480202,-89.888283,-88.812988,-90.440117,-93.337692,-95.377594,-95.087517,-92.583344,-89.496338,-87.917076,-89.02977,-92.292801,-95.725067,-97.12915,-95.504173,-91.738457,-88.118767,-86.921295,-88.955795,-92.986649,-96.422768,-96.894745,-93.750923,-88.545532,-84.178703,-83.189766,-86.221077,-91.595612,-96.270226,-97.599113,-94.851196,-89.580132,-84.629631,-82.403481,-83.437645,-86.126717,-87.750694,-86.153175,-81.062035,-74.27124,-68.604836,-66.292519,-67.72229,-71.263184,-74.230064,-74.380379,-71.087105,-65.562126,-60.064842,-56.618446,-55.956104,-57.246719,-58.675224,-58.486748,-55.913242,-51.513645,-46.817139,-43.503456,-42.557354,-43.793346,-45.94648,-47.267685,-46.344608,-42.800438,-37.551407,-32.487255,-29.662735,-30.324907,-34.222862,-39.575447,-43.801456,-44.728352,-41.711727,-36.058304,-30.449722,-27.591812,-28.752001,-32.990658,-37.563969,-39.353596,-36.590462,-29.925518,-22.215567,-17.085709,-17.019642,-22.015606,-29.555958,-35.9235,-38.15604,-35.581028,-30.106356,-25.13781,-23.731234,-26.988514,-33.533428,-40.302197,-44.172958,-43.54446,-39.059139,-33.152672,-28.733957,-27.723625,-30.182194,-34.417751,-37.94445,-38.764294,-36.335312,-31.78364,-27.314602,-25.142797,-26.468147,-30.962072,-36.974842,-42.331875,-45.321056,-45.407513,-43.354214,-40.725731,-39.058914,-39.131554,-40.690689,-42.741547,-44.191895,-44.463737,-43.732117,-42.693439,-42.053684,-42.09026,-42.557926,-42.971542,-43.026066,-42.830433,-42.769707,-43.098492,-43.589542,-43.55365,-42.30135,-39.773407,-36.884243,-35.238701,-36.264091,-40.209183,-45.633354,-49.794147,-49.839592,-44.211735,-33.505001,-20.276257,-7.8883133,1.0000552,5.494308,6.5496578,6.1258969,5.97054,6.7482891,7.9615965,8.5906143,7.9581633,6.2402887,4.3322115,3.2260442,3.3637686,4.4102588,5.5734901,6.2192011,6.3341355,6.5129285,7.4852262,9.518075,12.120358,14.267147,15.017501,14.12721,12.257649,10.636566,10.372798,11.840465,14.498461,17.234419,19.009407,19.41288,18.821346,18.110615,18.131609,19.274961,21.350224,23.792439,26.018579,27.698046,28.80723,29.495979,29.908459,30.101759,30.099821,30.006401,30.057583,30.540897,31.618105,33.169136,34.774364,35.87328,36.024082,35.131912,33.520046,31.812855,30.68943,30.628973,31.756649,33.834545,36.378067,38.829418,40.718647,41.773304,41.965149,41.494896,40.727276,40.082832,39.90316,40.327984,41.231625,42.264885,43.000729,43.142162,42.695705,42.016281,41.675575,42.193169,43.749981,46.03635,48.340675,49.868336,50.146835,49.308952,48.079044,47.431568,48.076717,50.038467,52.570953,54.487576,54.756279,53.047569,49.945591,46.694485,44.622879,44.553802,46.508167,49.825069,53.577328,57.005245,59.718346,61.610088,62.630859,62.657421,61.586964,59.583706,57.23518,55.40733,54.801453,55.465378,56.62151,57.028,55.735931,52.806946,49.479244,47.573952,48.38525,51.692017,55.530899,56.97673,53.58334,44.70779,31.96129,18.497959,7.5299568,0.88552684,-1.600019,-1.595369,-1.0673883,-1.1432704,-1.7164475,-1.9519188,-1.2483864,0.061547786,0.78139877,-0.3506718,-3.6925695,-8.2522755,-12.119267,-13.542306,-11.980297,-8.4474516,-4.9200048,-3.1666076,-3.7324805,-5.7050529,-7.3792214,-7.3770127,-5.494627,-2.7562604,-0.6740768,-0.22731626,-1.2322292,-2.4993675,-2.6524289,-1.0580732,1.7381263,4.3391247,5.3643174,4.3026204,1.8248923,-0.61123866,-1.5953571,-0.52229637,2.1503091,5.2402959,7.5142074,8.2794733,7.5931787,6.0553017,4.3955259,3.1296005,2.4453936,2.2954164,2.5496037,3.0804932,3.7530198,4.3897462,4.7891774,4.8093138,4.4451876,3.8238397,3.1039431,2.359627,1.5550245,0.6490891,-0.2469058,-0.80444962,-0.60830939,0.55968302,2.4641216,4.3948021,5.4591208,5.058219,3.267431,0.86688358,-1.0320626,-1.5684948,-0.58244008,1.3357553,3.2199914,4.2945447,4.3860688,3.9463737,3.7053471,4.1994257,5.4782043,7.1497025,8.6877871,9.7642365,10.37904,10.734908,10.990556,11.110261,10.931166,10.389922,9.710804,9.3757153,9.8579426,11.287786,13.29494,15.161229,16.215916,16.220524,15.493896,14.68399,14.339497,14.561728,14.966932,14.97641,14.22993,12.837489,11.304695,10.190516,9.7449408,9.7748461,9.8209276,9.50348,8.7774096,7.9096227,7.2053175,6.6998448,6.0740242,4.8899455,3.0024617,0.8492102,-0.63255757,-0.47027627,1.7511526,5.543005,9.6602774,12.697145,13.798916,13.081992,11.513583,10.329463,10.335183,11.495995,13.031673,13.928911,13.545576,11.951533,9.8373318,8.0859861,7.2863655,7.4694858,8.179884,8.7946405,8.8727894,8.3454771,7.4826946,6.7109356,6.4152007,6.8250866,7.9953718,9.8325758,12.115809,14.5079,16.59259,17.971966,18.403751,17.912373,16.796482,15.51049,14.475117,13.920994,13.85096,14.126016,14.605893,15.235393,16.020586,16.91836,17.737209,18.142496,17.793142,16.539055,14.55872,12.338164,10.483606,9.4563465,9.3663454,9.9324226,10.624066,10.910788,10.49935,9.4495983,8.1297102,7.0443892,6.6139727,6.9966416,8.0194073,9.2422066,10.135428,10.303778,9.6669121,8.5132837,7.3848953,6.8307071,7.1380796,8.1781168,9.4574623,10.362188,10.470805,9.7641525,8.6086903,7.5220399,6.8600569,6.6179709,6.4708147,6.0251741,5.1157813,3.9435997,2.9525671,2.5181875,2.6606855,2.993566,2.9706564,2.2885358,1.165706,0.27207288,0.29441491,1.3806697,2.8355031,3.3414292,1.6827143,-2.3815138,-7.6062827,-11.491558,-11.259224,-5.1555619,6.5703473,21.546482,36.14127,46.927311,52.047028,51.824516,48.355659,44.337646,41.765312,41.160133,41.667007,41.860691,40.737961,38.309536,35.489109,33.414703,32.673641,32.934574,33.221577,32.639069,31.070326,29.376127,28.922813,30.69508,34.526772,38.938843,41.735462,41.056183,36.313099,28.481894,19.588287,11.685308,5.8981767,2.0605066,-0.89790344,-4.0940223,-7.9088149,-11.750473,-14.483484,-15.228513,-14.017982,-11.89245,-10.37315,-10.632867,-12.856156,-16.162504,-19.115227,-20.497784,-19.902225,-17.822159,-15.249134,-13.070943,-11.64506,-10.771301,-10.015209,-9.1156168,-8.1923418,-7.6309428,-7.7559366,-8.5399275,-9.5577669,-10.215168,-10.096754,-9.2005863,-7.91677,-6.7796068,-6.1656041,-6.1290293,-6.4521995,-6.841578,-7.1151447,-7.2558818,-7.3296399,-7.3666673,-7.3268385,-7.1816154,-7.0384378,-7.1710768,-7.8860769,-9.2825222,-11.070049,-12.607512,-13.193193,-12.464694,-10.662613,-8.5690184,-7.1169195,-6.8812475,-7.7483931,-8.9773436,-9.6297178,-9.1230831,-7.575346,-5.7326875,-4.518661,-4.4807858,-5.4672308,-6.7331777,-7.4073334,-7.034502,-5.8621483,-4.6962457,-4.4182525,-5.4560499,-7.5290251,-9.8135748,-11.417657,-11.872067,-11.33675,-10.412426,-9.6924028,-9.3553276,-9.0691414,-8.2757149,-6.6718206,-4.556355,-2.783761,-2.2966063,-3.4958546,-5.8434653,-8.0007315,-8.5081758,-6.6812601,-3.2216365,-0.14589868,0.020037642,-4.5746336,-14.134065,-26.976603,-40.184097,-50.833218,-57.189137,-59.274559,-58.557457,-56.986824,-55.938026,-55.650288,-55.417439,-54.342232,-52.138229,-49.461208,-47.561367,-47.485474,-49.34235,-52.120312,-54.19244,-54.234642,-52.001141,-48.493244,-45.403458,-44.161678,-45.13974,-47.476112,-49.610287,-50.191624,-48.823673,-46.211777,-43.660458,-42.244915,-42.169926,-42.694363,-42.648285,-41.212746,-38.489906,-35.518017,-33.720772,-34.11047,-36.68634,-40.364429,-43.471619,-44.541866,-43.017223,-39.506985,-35.505074,-32.71431,-32.301262,-34.405396,-38.109684,-41.851612,-44.093395,-43.953224,-41.539326,-37.854477,-34.330051,-32.205719,-32.038109,-33.560452,-35.930485,-38.217163,-39.851624,-40.805267,-41.427784,-42.077522,-42.808109,-43.326138,-43.244774,-42.447796,-41.290077,-40.447659,-40.477032,-41.358311,-42.354702,-42.342461,-40.468723,-36.754601,-32.244717,-28.558622,-27.052906,