Bandpass,0,0.22514,413.63892,-5861.3257,-8541.3984,-7165.0366,-3160.282,750.43127,2251.8076,909.45148,-1692.2841,-3226.8103,-2351.5503,374.33163,3001.5347,3689.3811,2054.3594,-606.26227,-2326.5786,-1926.0444,173.82774,2335.6267,2958.6772,1646.1127,-559.6947,-2002.0621,-1645.754,195.36246,2145.4038,2812.6504,1798.3596,-63.859093,-1375.5747,-1218.5626,201.85443,1764.4343,2297.9675,1441.7578,-127.77068,-1240.2183,-1111.1614,100.22865,1449.1436,1930.7836,1217.4474,-132.36584,-1121.8684,-1063.774,-67.724319,1077.2117,1511.6295,938.74146,-182.91991,-1008.2001,-940.39081,-55.985607,982.17645,1436.5245,1036.998,154.91811,-502.63184,-432.12885,300.36948,1129.0991,1425.6431,967.10504,89.532616,-574.74866,-567.88428,67.417122,839.71155,1186.0522,885.87585,207.1467,-311.8273,-270.97348,299.38434,972.9502,1251.8898,933.89832,252.22743,-305.66745,-357.64835,102.94986,718.99109,1043.4421,866.42041,356.15234,-80.709244,-106.5522,301.91135,846.12457,1132.1569,958.18726,452.99796,-28.256443,-165.82054,100.15832,541.57898,821.41803,741.28534,376.57352,8.0148716,-90.783577,149.99176,555.56171,842.43823,824.08246,535.53613,193.05676,28.034676,122.1644,361.92218,536.98962,501.85455,279.3038,34.325207,-54.503063,73.78093,324.36163,523.53778,547.51178,406.0741,223.31128,136.56912,193.57455,323.92261,401.3876,345.02109,180.95023,20.253338,-26.6644,67.845047,231.48149,349.70407,351.75653,259.18344,162.02332,143.90263,215.27925,306.04218,322.02765,220.98558,49.188503,-89.66568,-110.05078,-7.8912196,136.01721,215.24384,175.86172,55.860069,-43.123779,-31.041847,103.16462,280.74933,386.51233,347.95441,184.23035,-8.54953,-123.55124,-113.36451,-15.759695,80.015404,99.263107,32.08012,-66.243515,-121.41132,-96.72496,-18.625624,45.673756,39.860561,-39.452347,-140.67889,-195.44328,-168.21613,-81.358376,1.7113826,22.166483,-32.754353,-121.36427,-177.02464,-153.95226,-57.594994,60.04105,135.00389,131.23819,59.435585,-35.184238,-104.86691,-128.10497,-117.10439,-102.20508,-107.02142,-132.30745,-158.09412,-159.93961,-126.28204,-65.240166,1.7362672,52.75975,75.444061,68.709412,38.257778,-8.5602665,-64.344696,-120.26579,-165.48293,-190.07658,-190.13686,-170.55302,-142.08035,-113.88499,-87.128571,-55.245239,-11.713123,40.16658,83.614136,95.332863,59.846321,-18.240734,-113.24694,-190.74628,-226.05461,-216.97327,-182.35452,-147.56494,-126.92207,-115.26364,-94.386703,-49.58189,15.719997,77.977707,106.22222,81.1147,7.5593271,-87.620193,-171.30942,-222.53012,-241.62672,-244.86168,-249.1844,-258.41977,-260.63187,-238.22804,-183.34044,-107.39362,-37.875828,-4.1215339,-21.263905,-82.515686,-164.20392,-239.6602,-292.81409,-323.38596,-341.75504,-358.36957,-375.44836,-386.17151,-380.86084,-354.97757,-313.16858,-266.99976,-228.61436,-205.00026,-196.40622,-198.96811,-208.62129,-223.02892,-240.52054,-257.87518,-269.85571,-271.85632,-264.12949,-254.16974,-254.57631,-276.73239,-323.80124,-387.52789,-451.28674,-498.00604,-518.52289,-515.61365,-501.5611,-490.94583,-492.94489,-507.30869,-525.67529,-536.75024,-532.06171,-509.35605,-472.59665,-429.52365,-388.60223,-356.74393,-338.14072,-333.85074,-341.814,-357.4133,-374.86926,-389.32803,-398.78073,-404.64194,-410.37708,-418.77869,-429.52585,-438.69476,-440.75226,-431.93863,-412.93469,-389.04639,-367.67178,-354.54257,-351.01144,-353.96579,-358.25827,-359.98221,-358.50552,-356.12845,-355.86084,-359.00656,-364.24054,-368.73096,-370.42334,-369.83325,-370.06839,-375.01239,-386.81158,-404.23715,-422.92044,-437.31339,-443.2482,-439.73431,-429.17612,-416.10809,-405.25284,-399.86493,-400.96881,-407.54742,-417.32986,-427.72018,-436.53656,-442.42807,-444.97598,-444.5491,-442.01309,-438.41888,-434.79178,-432.07346,-431.15167,-432.82495,-437.58298,-445.24493,-454.68356,-463.91672,-470.68555,-473.33112,-471.53064,-466.45502,-460.20062,-454.7717,-451.16953,-449.09109,-447.36954,-444.8374,-441.05295,-436.45322,-431.89709,-427.96744,-424.54144,-420.92975,-416.47815,-411.19754,-405.96054,-402.08728,-400.54721,-401.26419,-402.96793,-403.71478,-401.81427,-396.6644,-389.04858,-380.73273,-373.55771,-368.46722,-364.9371,-361.08774,-354.45782,-343.12518,-326.69376,-306.69174,-286.15027,-268.48175,-256.11203,-249.48146,-246.90593,-245.40576,-242.13251,-235.70024,-226.74922,-217.45131,-210.21809,-206.29471,-204.97797,-203.85608,-199.92216,-190.97345,-176.60191,-158.34143,-138.98393,-121.45641,-107.78252,-98.522743,-92.821449,-88.943916,-85.051476,-79.934738,-73.459549,-66.557213,-60.725399,-57.204685,-56.193836,-56.536861,-56.147629,-53.056263,-46.55724,-37.779068,-29.24329,-23.547539,-21.869713,-23.174343,-24.644539,-23.145876,-16.893112,-6.3527293,6.1187458,17.622374,26.188919,31.505541,34.580635,36.75042,38.813923,40.879787,42.896114,45.289162,49.072258,55.248497,63.954475,74.076782,83.767052,91.592087,97.5075,102.88776,109.49949,118.10837,127.74915,136.25986,141.75365,143.9502,144.31062,144.7662,145.92537,146.16409,142.49228,132.82497,118.14848,102.92394,93.12925,92.950386,102.1853,116.11983,128.09477,133.20757,130.80988,124.25555,118.21823,115.55019,115.91795,117.10487,117.855,119.91041,127.41776,143.85886,168.7007,196.51125,219.77335,233.95451,241.40912,250.95372,272.56448,310.03772,356.33902,395.26291,409.33765,389.84366,343.00012,288.20096,248.73323,239.9823,261.83435,299.65097,333.13992,347.76251,341.91562,325.88644,313.76691,313.84448,323.72137,333.11667,332.14801,319.24646,303.13019,297.29468,310.61783,340.50784,373.57471,393.91235,393.88629,380.27905,371.24817,385.30371,428.80557,489.87115,543.0285,562.5072,536.69183,475.30078,404.97931,355.70953,345.71472,373.22031,419.25323,459.25232,476.49728,469.93192,452.78864,443.91162,457.44608,496.59671,553.914,616.45502,671.81097,711.57086,731.39197,729.39136,705.27069,661.22876,603.59735,543.03534,491.9306,459.77597,449.08893,454.50772,465.87289,473.60272,473.22214,466.50171,458.8913,455.25955,456.82071,461.04471,464.15442,464.08948,461.7142,459.53271,459.09146,459.19357,456.37976,447.38715,431.78885,412.83954,395.81931,384.94882,380.96179,380.95609,380.55777,376.85953,370.13571,363.26675,359.42731,359.74509,362.54501,364.58536,363.27933,358.27963,351.37576,344.93332,340.13498,336.33414,331.9187,325.92001,319.06122,313.3978,310.79739,311.40512,313.2775,313.52139,310.16904,303.46994,295.68057,289.49545,286.21652,284.92813,283.22021,278.91147,271.54459,262.62338,254.4742,248.57932,244.57085,240.57074,234.59763,226.02306,216.05269,206.91017,200.2988,196.1861,192.70361,187.18999,177.67792,163.91116,147.36855,130.44046,115.3731,103.58656,95.573662,91.150734,89.685524,90.129265,91.000755,90.604378,87.579987,81.534401,73.301636,64.532898,56.757168,50.464542,44.821102,38.244339,29.492243,18.55146,6.722568,-4.1662879,-12.896082,-19.585957,-25.540371,-32.344513,-40.840996,-50.674347,-60.669018,-69.720055,-77.541565,-84.762199,-92.356682,-100.88258,-110.10461,-119.26405,-127.74616,-135.59682,-143.46762,-152.02521,-161.29341,-170.46938,-178.40288,-184.4106,-188.8101,-192.73535,-197.32175,-202.84142,-208.44693,-212.7646,-214.95042,-215.44565,-215.84047,-217.87706,-222.26112,-228.1312,-233.60101,-237.02742,-238.10898,-238.00243,-238.32791,-239.75276,-241.2039,-240.37155,-235.2675,-225.80934,-214.29517,-204.32626,-198.78407,-198.15266,-200.30569,-201.9343,-200.70204,-196.71912,-192.37518,-190.66521,-193.14162,-198.85152,-204.92496,-208.35541,-207.73636,-203.81332,-198.58588,-193.71388,-189.42062,-184.65105,-178.27184,-170.31607,-162.2534,-156.02089,-152.51662,-150.71266,-148.1333,-142.45102,-133.10216,-121.75259,-111.22953,-103.62889,-98.91642,-95.01313,-89.307884,-80.522057,-69.600044,-59.006371,-50.967541,-45.963406,-42.580006,-38.815361,-33.826038,-28.738806,-25.821308,-26.543903,-29.966532,-32.762753,-31.085194,-23.145731,-10.780737,1.142343,7.2206025,4.3986106,-6.5257196,-21.61447,-36.121983,-46.880646,-53.318542,-56.766689,-58.901161,-60.603313,-61.955105,-63.033577,-64.503914,-67.273979,-71.439468,-75.583954,-77.424423,-75.73172,-72.176437,-71.329262,-78.037971,-93.315536,-111.39569,-120.49615,-107.83857,-66.695526,-1.4765446,72.543938,135.40451,171.60132,177.28282,161.46512,140.56711,129.39137,133.67764,148.3195,161.90877,164.5587,154.19119,137.63431,126.13543,128.20013,144.0618,164.89192,176.98804,168.43654,134.67784,80.382286,17.216454,-40.931477,-82.907692,-103.56104,-104.59496,-93.250916,-79.518456,-72.632912,-77.684647,-93.347206,-111.77749,-121.24374,-110.91288,-75.956039,-20.541306,43.032589,98.988167,134.4229,144.26672,132.43037,108.77765,83.793068,63.917088,49.871422,38.361221,25.564018,10.000928,-6.865643,-22.269384,-34.509274,-44.244545,-53.860603,-65.50444,-79.309807,-93.122482,-103.91167,-109.84794,-111.58513,-111.87502,-113.8146,-118.94412,-126.46229,-134.01332,-139.42369,-142.16852,-143.60612,-145.90881,-150.50096,-157.09729,-163.96184,-169.14604,-171.81386,-172.74556,-173.70435,-176.12448,-180.02022,-183.85345,-185.46941,-183.53421,-178.60176,-173.16103,-170.60503,-173.65805,-183.07256,-197.24174,-212.89172,-226.4865,-235.66011,-240.01784,-240.98216,-240.82916,-241.4398,-243.40155,-245.88658,-247.311,-246.36203,-242.7977,-237.57724,-232.28526,-228.22714,-225.74709,-224.14978,-222.21147,-218.9108,-213.92259,-207.63736,-200.81465,-194.19229,-188.31047,-183.55228,-180.18994,-178.25096,-177.26738,-176.21049,-173.8868,-169.72574,-164.46558,-160.11629,-158.95406,-162.00316,-167.99387,-173.67703,-175.56743,-172.15475,-165.10474,-158.44991,-156.05154,-158.88271,-164.01137,-166.18854,-161.20659,-148.84818,-133.30756,-120.54963,-114.21555,-112.91765,-111.11407,-103.46008,-90.025719,-78.763794,-82.961624,-114.44482,-176.16986,-258.6525,-342.76675,-407.84741,-440.90451,-442.02243,-423.15808,-401.26587,-389.74344,-392.8197,-405.46533,-418.0751,-422.61578,-416.59448,-403.03317,-387.28256,-373.25,-361.50531,-350.08926,-336.94659,-322.00742,-307.49435,-296.46646,-290.8331,-290.27802,-292.71133,-295.72357,-297.89566,-299.09845,-299.78549,-300.03622,-299.19763,-296.39328,-291.41867,-285.2171,-279.46378,-275.5014,-273.40451,-271.88965,-269.18054,-264.23688,-257.48059,-250.5061,-244.98006,-241.50084,-239.20343,-236.36156,-231.54932,-224.56223,-216.49992,-209.00842,-203.23967,-199.2282,-196.04449,-192.53313,-188.07607,-182.87251,-177.61572,-172.87282,-168.63463,-164.32195,-159.18381,-152.77359,-145.20233,-137.0882,-129.34286,-122.98198,-119.00962,-118.26494,-121.10931,-127.01296,-134.32268,-140.53564,-143.16122,-140.84277,-134.12408,-125.32612,-117.46799,-112.7509,-111.44311,-111.81535,-111.16492,-107.30962,-99.65638,-89.241531,-77.81604,-66.664635,-55.992462,-45.289936,-34.380554,-24.346811,-17.568733,-16.685177,-23.026476,-35.479294,-50.550213,-63.704651,-71.302032,-72.095497,-67.524078,-60.722404,-54.87233,-51.811424,-51.557426,-52.810219,-53.942482,-53.808559,-51.948399,-48.231583,-42.354485,-33.652199,-21.421062,-5.5676265,12.84398,31.54143,47.612389,58.474937,62.818283,61.092457,55.336399,48.42675,43.067245,40.925529,42.240059,46.009377,50.630272,54.671757,57.435768,59.080059,60.30698,61.83897,63.992519,66.576462,69.13018,71.309982,73.156372,75.073898,77.557961,80.869659,84.879097,89.163849,93.265305,96.907928,100.04159,102.72397,104.98905,106.84203,108.38515,109.92738,111.90272,114.56541,117.64931,120.29931,121.47445,120.71823,118.87949,118.27604,122.02904,132.75212,151.19186,175.52336,201.72142,224.90265,241.05516,248.39966,247.82986,242.32448,235.66284,231.01071,229.91008,231.9859,235.40031,237.84218,237.67755,234.82191,230.95511,228.91318,231.43309,239.77182,252.87872,267.62125,280.06906,287.26425,288.57767,285.91077,282.60733,281.66354,284.2356,289.27475,294.44989,297.74908,298.75922,298.84937,300.18774,304.25681,310.83279,318.08578,323.74078,326.58044,327.37103,328.65829,333.55466,344.20181,360.72061,381.13092,402.18277,420.62106,434.30954,442.83002,447.46265,450.65533,455.15768,463.00879,474.62054,488.28653,500.44815,506.84091,504.2312,492.04318,473.04697,452.60751,436.68057,429.43063,431.62186,440.58951,451.78714,461.0748,466.5423,468.965,470.7876,474.34802,480.41748,487.85419,494.45261,498.36295,499.17813,498.06662,496.95419,497.32712,499.40201,502.12192,503.90646,503.64841,501.35947,498.13699,495.54807,494.84033,496.42081,499.8219,504.06998,508.17789,511.49081,513.77295,515.09906,515.6947,515.82581,515.74512,515.64166,515.56177,515.34027,514.6228,513.02313,510.3616,506.84183,503.02908,499.59921,496.98038,495.09723,493.38553,491.086,487.65207,483.02948,477.64276,472.1076,466.85721,461.91702,456.95496,451.55081,445.49069,438.89499,432.11566,425.50186,419.20975,413.17731,407.24817,401.3158,395.36029,389.35809,383.16626,376.51718,369.16748,361.09879,352.59149,344.06436,335.75726,327.49124,318.73297,308.99146,298.30878,287.47501,277.72934,270.04865,264.45111,259.80722,254.36853,246.74982,236.75407,225.47316,214.54576,205.02998,196.65643,188.02158,177.6571,165.27054,152.24672,140.91983,132.93977,127.74195,122.20182,111.90722,93.480957,66.660248,34.875587,3.8898196,-20.821682,-36.529762,-44.228069,-47.67894,-51.185822,-57.416573,-66.452614,-76.414429,-85.062767,-91.284615,-95.598724,-99.541618,-104.51163,-110.90272,-118.04511,-124.86161,-130.68446,-135.65092,-140.46915,-145.81467,-151.84312,-158.15662,-164.18805,-169.66428,-174.7906,-180.05135,-185.82796,-192.15881,-198.82054,-205.63033,-212.68237,-220.28891,-228.64711,-237.49745,-246.07408,-253.44052,-259.00739,-262.87433,-265.74927,-268.50052,-271.66226,-275.24142,-278.93896,-282.57675,-286.36224,-290.7533,-296.01126,-301.80536,-307.22995,-311.30408,-313.6452,-314.83176,-316.14709,-318.82043,-323.2536,-328.76501,-334.04544,-338.02881,-340.5835,-342.54651,-345.08191,-348.82538,-353.4303,-357.8439,-361.11169,-363.11835,-364.71152,-367.10132,-370.96457,-375.91614,-380.75726,-384.34619,-386.46515,-388.03323,-390.47229,-394.65295,-400.18124,-405.57443,-409.24893,-410.64551,-410.68353,-411.1824,-413.61761,-418.06964,-423.11792,-426.78052,-427.85846,-426.74081,-425.09518,-424.66235,-426.02991,-428.29544,-429.89386,-429.99292,-429.38324,-430.07956,-433.74902,-439.98303,-445.68472,-446.22275,-437.86975,-420.13617,-396.54953,-373.29517,-356.40039,-349.01633,-350.27808,-356.26831,-362.38068,-365.64328,-365.73947,-364.37161,-363.63535,-364.55713,-366.65829,-368.61542,-369.36755,-368.83237,-367.79807,-367.19907,-367.39453,-367.98331,-368.22733,-367.68964,-366.5686,-365.48938,-364.95734,-364.93646,-364.89896,-364.30447,-363.11499,-361.9122,-361.48642,-362.18387,-363.5101,-364.32797,-363.56363,-360.95505,-357.31842,-354.12299,-352.63278,-353.1691,-354.96481,-356.6832,-357.23801,-356.37579,-354.6741,-353.01968,-351.96713,-351.41876,-350.80145,-349.55573,-347.55319,-345.15054,-342.88013,-341.04529,-339.53644,-337.99109,-336.14423,-334.07114,-332.11621,-330.55707,-329.27261,-327.6969,-325.13373,-321.23071,-316.27551,-311.08414,-306.53381,-303.04675,-300.37375,-297.8233,-294.77316,-291.10672,-287.27243,-283.9325,-281.45624,-279.62271,-277.74561,-275.13431,-271.56476,-267.42593,-263.43484,-260.1188,-257.43036,-254.77283,-251.43054,-247.11282,-242.23251,-237.7108,-234.41542,-232.58923,-231.64096,-230.44226,-227.95323,-223.79285,-218.41147,-212.77568,-207.77672,-203.73079,-200.26295,-196.61752,-192.17905,-186.87888,-181.25502,-176.15514,-172.27863,-169.82516,-168.42822,-167.37485,-165.96167,-163.79004,-160.86916,-157.51561,-154.13821,-151.02945,-148.25378,-145.65907,-142.98143,-139.98331,-136.5638,-132.79788,-128.89241,-125.08296,-121.52384,-118.23081,-115.10855,-112.04384,-108.9985,-106.02853,-103.20079,-100.45485,-97.512566,-93.928177,-89.289948,-83.477272,-76.815933,-70.009575,-63.847698,-58.829407,-54.90955,-51.520016,-47.868698,-43.359657,-37.905586,-31.962767,-26.273804,-21.463812,-17.709625,-14.653042,-11.592331,-7.8422074,-3.0754857,2.5183477,8.3254156,13.599379,17.815508,20.926111,23.399446,26.015844,29.502197,34.16893,39.730423,45.418964,50.360725,54.033943,56.560284,58.648224,61.195419,64.766304,69.260109,73.992287,78.164246,81.437912,84.234711,87.527206,92.212906,98.453201,105.4256,111.7058,116.09679,118.40754,119.672,121.62145,125.69125,132.15791,139.94986,147.27161,152.67319,155.90886,158.05206,160.79684,165.38629,171.84135,178.96883,185.13222,189.29083,191.65379,193.55009,196.61209,201.78844,208.78575,216.25089,222.54501,226.62375,228.51665,229.18318,229.90437,231.61105,234.52139,238.22055,242.04103,245.46687,248.34145,250.83052,253.24249,255.84746,258.77359,261.97415,265.22839,268.17255,270.39771,271.63611,271.97775,271.98059,272.54156,274.51761,278.26059,283.33624,288.64035,292.90958,295.37582,296.19348,296.37201,297.22845,299.66431,303.68845,308.46866,312.8775,316.1991,318.56509,320.8548,324.12366,328.91165,334.85468,340.83569,345.58511,348.37302,349.38812,349.59219,350.15298,351.80023,354.47806,357.4747,359.9205,361.33313,361.88074,362.22394,363.06216,364.6857,366.81573,368.81989,370.14716,370.68942,370.83313,371.17465,372.1001,373.5224,374.96509,375.94287,376.37558,376.72574,377.71674,379.7659,382.48212,384.5824,384.35809,380.49683,372.83548,362.62531,352.13748,343.78232,339.16388,338.51093,340.71634,343.91483,346.29315,346.77036,345.2973,342.71936,340.31461,339.20822,339.87234,341.88055,344.01678,344.7334,342.81714,337.9971,331.19278,324.21722,319.00677,316.72073,317.1796,318.97379,320.22159,319.57639,316.91388,313.2988,310.25412,308.78204,308.74176,308.96622,308.03064,305.17148,300.76135,296.04028,292.28918,289.99277,288.53564,286.61841,283.10895,277.77188,271.41885,265.41327,260.8765,258.10611,256.53821,255.20952,253.36522,250.81416,247.8567,244.91978,242.20688,239.60191,236.8394,233.75246,230.3858,226.90796,223.43881,219.9697,216.44878,212.93274,209.62628,206.72258,204.15382,201.48766,198.13385,193.78136,188.75397,183.95592,180.33772,178.18385,176.73413,174.4995,170.18011,163.63013,156.18675,150.02936,146.86841,146.76808,147.91124,147.56924,143.76607,136.63187,128.57047,123.06696,122.79972,128.15788,137.01891,145.86992,151.56021,152.65254,149.67671,144.3252,138.2654,132.37224,126.77041,121.4466,116.80544,113.65365,112.59481,113.31708,114.38571,113.81498,110.13306,103.27271,94.691643,86.607132,80.790504,77.637596,76.040184,74.077934,70.070145,63.37191,54.529984,44.838085,35.65522,27.89106,21.850416,17.361069,13.978756,11.12594,8.1730251,4.5565362,-0.025681507,-5.4333282,-11.077296,-16.169912,-20.130116,-22.899183,-24.950001,-26.970833,-29.435959,-32.362427,-35.419693,-38.29549,-41.0242,-44.006893,-47.687862,-52.128384,-56.822433,-60.941185,-63.877205,-65.717003,-67.287979,-69.705948,-73.700279,-79.163094,-85.229668,-90.839211,-95.399155,-99.11026,-102.75072,-107.09246,-112.36672,-118.14124,-123.66499,-128.40463,-132.37723,-136.05275,-139.92702,-144.10345,-148.20314,-151.66504,-154.2016,-156.05981,-157.88544,-160.28699,-163.41939,-166.89183,-170.06427,-172.51277,-174.3257,-176.02481,-178.18349,-181.03172,-184.33398,-187.61263,-190.5296,-193.13028,-195.77074,-198.80014,-202.25758,-205.82605,-209.07925,-211.8237,-214.25821,-216.81248,-219.77943,-223.02693,-226.02943,-228.22437,-229.44748,-230.12439,-231.05858,-232.94296,-235.92564,-239.52937,-242.97754,-245.69591,-247.64195,-249.24654,-251.03506,-253.22098,-255.56995,-257.62088,-259.08078,-260.08594,-261.1301,-262.71802,-265.01105,-267.73654,-270.42673,-272.7988,-274.97397,-277.35406,-280.23935,-283.4819,-286.46167,-288.44336,-289.0845,-288.73175,-288.27106,-288.60358,-290.09088,-292.35034,-294.55124,-296.0181,-296.72833,-297.35324,-298.79675,-301.53024,-305.16937,-308.59122,-310.54163,-310.36722,-308.42566,-305.92899,-304.32205,-304.56516,-306.72009,-310.02951,-313.38239,-315.86139,-317.07581,-317.16171,-316.54141,-315.64362,-314.74753,-313.98465,-313.42102,-313.11923,-313.13882,-313.50662,-314.21106,-315.23135,-316.55637,-318.13589,-319.76788,-321.00839,-321.22437,-319.84268,-316.70828,-312.34561,-307.9151,-304.80356,-304.00906,-305.64008,-308.82916,-312.15079,-314.34192,-314.92844,-314.39319,-313.77713,-313.94644,-314.97351,-316.0307,-315.89462,-313.78015,-309.99435,-305.97614,-303.63474,-304.32214,-308.01837,-313.21494,-317.5979,-319.17325,-317.21829,-312.54034,-306.92331,-302.10931,-298.91916,-297.00977,-295.36765,-293.18848,-290.5647,-288.53409,-288.44501,-291.02261,-295.71274,-300.72302,-303.77237,-303.14667,-298.48788,-290.905,-282.38629,-274.87329,-269.50842,-266.41718,-265.04236,-264.72791,-265.14383,-266.30029,-268.20078,-270.43387,-272.04404,-271.83081,-268.93396,-263.35416,-256.07312,-248.66589,-242.60329,-238.63391,-236.59267,-235.72856,-235.33244,-235.26456,-236.04649,-238.45218,-242.84798,-248.69685,-254.55653,-258.61472,-259.48874,-256.85959,-251.60205,-245.35587,-239.78279,-235.90163,-233.81236,-232.8773,-232.17903,-230.96275,-228.84181,-225.72884,-221.62415,-216.44801,-210.03323,-202.26538,-193.26468,-183.49173,-173.71707,-164.86594,-157.79004,-153.02263,-150.57016,-149.80115,-149.50209,-148.14262,-144.31227,-137.18465,-126.80703,-114.06461,-100.32467,-86.941666,-74.881119,-64.633461,-56.387058,-50.24947,-46.283432,-44.288952,-43.502068,-42.512337,-39.602898,-33.431007,-23.685656,-11.297544,1.9864919,14.451562,25.177456,34.240799,42.2477,49.553391,55.764133,59.940472,61.423664,60.723808,59.786579,61.315079,67.447754,78.566742,92.994034,107.80819,120.31197,129.2681,135.17952,139.52351,143.53171,147.37904,150.32068,151.62497,151.57483,151.75227,154.32434,160.76253,170.84962,182.65945,193.54892,201.52489,206.11337,208.22211,209.19347,209.79076,209.86632,208.92793,207.13383,205.90471,207.58929,214.29057,226.57579,242.91971,260.27121,275.40781,286.25095,292.39252,294.655,294.16324,291.67609,287.63983,282.80655,278.77985,277.86804,282.13708,292.19208,306.50674,321.8367,334.57257,342.27667,344.52734,342.64865,338.61761,333.9278,329.12692,324.20453,319.384,315.61124,314.30246,316.50055,322.05783,329.47211,336.54797,341.47287,343.60696,343.49765,342.18359,340.34698,337.94977,334.59628,330.29724,325.98517,323.29767,323.68762,327.44589,333.34207,339.19598,343.05212,344.19226,343.30936,341.7348,340.27432,338.49933,335.04288,328.75119,319.91306,310.67572,304.24884,303.28867,308.41873,317.79822,328.01678,335.78076,339.38712,339.15576,336.6813,333.5083,330.15024,326.06674,320.51889,313.61322,306.73102,301.98492,301.0318,304.03101,309.45389,314.88873,318.32715,319.1088,317.94608,316.07825,314.18628,311.8443,307.8963,301.49512,293.06738,284.49661,278.32678,276.44095,279.02774,284.47485,290.24045,294.14328,295.27676,294.04007,291.38239,287.86783,283.2485,276.84036,268.40845,258.88934,250.36842,245.22438,244.92226,249.19188,256.10309,262.99149,267.66724,269.19608,267.85632,264.43127,259.41431,252.7128,244.04349,233.69208,223.02544,214.28871,209.6998,210.34456,215.54919,223.1368,230.43697,235.4566,237.53554,237.15547,235.11775,231.70047,226.39357,218.40349,207.58287,195.12718,183.49573,175.49113,172.97005,175.91585,182.41582,189.56342,194.77066,196.75633,195.70125,192.58669,188.22487,182.64668,175.24022,165.51549,153.94072,142.23119,132.81529,127.73569,127.62211,131.3528,136.60994,140.9924,143.02193,142.4761,139.93663,135.95531,130.47363,122.93011,112.98568,101.33221,89.942497,81.458641,77.98616,79.986946,85.952827,93.084869,98.589363,100.83038,99.694374,96.04995,90.773682,84.069275,75.560394,65.059898,53.406609,42.674305,35.466003,33.639389,37.236446,44.311321,51.804798,56.958157,58.429035,56.487617,52.284889,46.782257,40.111996,31.788197,21.557192,10.206626,-0.33074111,-7.7504721,-10.574981,-9.0041876,-4.8534236,-0.61054927,1.7804471,1.643334,-0.60132134,-4.2749834,-9.2667265,-16.201773,-25.809755,-37.958183,-51.099934,-62.633274,-70.05397,-72.218124,-69.92382,-65.443993,-61.317337,-59.16972,-59.279995,-61.067486,-64.04007,-68.44545,-75.117317,-84.622169,-96.354858,-108.312,-117.82574,-122.87073,-123.13167,-120.14,-116.38494,-113.97112,-113.6787,-114.98753,-116.95866,-119.28422,-122.72159,-128.57939,-137.60768,-149.08348,-160.7726,-169.86568,-174.33238,-173.86183,-169.84148,-164.46518,-159.60933,-156.20135,-154.38887,-154.21475,-156.15092,-160.99364,-169.15387,-179.89236,-191.1582,-200.2971,-205.27209,-205.6358,-202.6152,-198.25079,-194.17245,-190.83926,-187.73296,-184.30161,-180.88869,-178.86671,-179.75729,-183.88725,-189.55753,-193.46002,-192.28836,-184.65961,-172.16118,-158.79247,-149.02493,-145.55833,-148.05774,-153.57596,-158.36115,-159.94611,-158.3045,-155.48419,-154.0741,-155.53073,-159.38771,-163.74336,-166.59854,-167.12695,-166.08144,-165.15161,-165.76611,-168.14769,-171.20995,-173.31009,-173.33067,-171.3895,-168.75154,-167.0359,-167.23656,-169.15724,-171.57813,-173.01973,-172.63092,-170.68471,-168.41838,-167.3336,-168.35962,-171.33272,-175.05496,-177.88402,-178.54143,-176.73267,-173.28178,-169.72861,-167.59544,-167.68185,-169.72206,-172.55783,-174.72787,-175.17673,-173.73814,-171.17081,-168.75322,-167.65898,-168.42484,-170.75372,-173.7114,-176.18481,-177.36948,-177.0771,-175.76625,-174.32381,-173.70407,-174.55276,-176.92958,-180.22115,-183.30389,-184.95143,-184.37437,-181.67169,-177.94025,-174.89825,-174.11604,-176.19908,-180.3721,-184.76173,-187.31149,-186.8765,-183.8804,-180.11061,-177.70599,-177.88751,-180.18782,-182.69275,-183.22784,-180.83771,-176.67467,-173.70224,-175.28212,-183.3725,-197.32678,-213.98076,-229.01625,-238.89227,-242.33867,-240.6723,-236.8559,-233.88669,-233.40309,-235.19199,-237.72133,-239.25902,-238.88411,-236.86021,-234.27791,-232.29816,-231.49879,-231.67899,-232.14537,-232.21594,-231.59802,-230.44162,-229.11218,-227.89629,-226.85329,-225.88103,-224.8941,-223.94135,-223.15558,-222.57428,-221.98219,-220.92381,-218.91692,-215.75089,-211.67978,-207.37202,-203.62418,-200.99147,-199.53842,-198.8403,-198.21927,-197.0713,-195.10822,-192.41147,-189.31561,-186.22578,-183.47855,-181.28943,-179.75473,-178.84895,-178.3956,-178.05113,-177.36621,-175.94673,-173.65089,-170.69858,-167.59206,-164.85468,-162.72278,-160.98279,-159.07797,-156.44717,-152.90085,-148.79552,-144.87675,-141.86392,-140.01872,-138.96292,-137.86656,-135.90181,-132.69324,-128.49678,-124.00783,-119.92648,-116.55309,-113.65993,-110.70679,-107.25529,-103.31864,-99.429611,-96.381966,-94.791389,-94.719345,-95.561333,-96.254379,-95.697693,-93.18689,-88.672256,-82.74453,-76.375229,-70.537033,-65.870506,-62.53392,-60.287834,-58.75396,-57.697765,-57.163479,-57.363934,-58.371731,-59.79784,-60.689449,-59.781605,-56.034164,-49.190914,-40.040581,-30.194725,-21.462008,-15.134544,-11.559114,-10.198191,-10.094419,-10.421268,-10.781663,-11.114446,-11.347874,-11.106882,-9.723156,-6.5604277,-1.4247785,5.2418385,12.535048,19.514975,25.592028,30.614515,34.632473,37.566364,39.092793,38.899357,37.164379,34.899593,33.825081,35.725037,41.581676,50.968079,62.068378,72.350906,79.56179,82.552551,81.583527,78.051559,73.872185,70.846474,70.243233,72.643845,77.96936,85.600342,94.558975,103.75552,112.25943,119.48593,125.18616,129.24051,131.41724,131.33408,128.74971,124.05413,118.6006,114.52344,113.97186,118.10171,126.4174,136.93033,147.12665,155.20689,160.83963,164.94923,168.68721,172.30496,174.75215,174.35805,170.20012,163.23195,156.31784,152.99603,155.63692,164.11418,175.83682,187.15259,195.26659,199.49893,201.14975,202.15901,203.52972,204.60654,203.68906,199.5296,192.64944,185.52132,181.42795,182.69673,189.43031,199.5237,209.91502,218.23062,223.77896,227.34012,230.03293,232.14619,232.79338,230.63203,225.12169,217.40538,210.14687,206.35623,207.90858,214.65579,224.63643,235.1879,244.22818,250.94295,255.57176,258.6019,260.03152,259.24557,255.57149,249.09029,241.10477,233.89844,229.88235,230.60172,236.13387,245.14761,255.51065,265.07428,272.26419,276.30655,277.15247,275.27414,271.46384,266.65448,261.71774,257.23114,253.29507,249.52147,245.25305,239.93542,233.45241,226.23836,219.10616,212.8974,208.15717,205.00098,203.20633,202.4221,202.34029,202.73506,203.38986,204.01492,204.25264,203.78989,202.51016,200.5858,198.44595,196.62752,195.57187,195.4436,196.02943,196.74973,196.79758,195.39587,192.11633,187.14355,181.3364,175.98827,172.32646,170.95592,171.53687,172.90918,173.64902,172.78809,170.30194,167.07942,164.37775,163.07524,163.16414,163.78601,163.78299,162.42126,159.84119,156.96419,154.92661,154.39766,155.19427,156.40407,156.91054,155.98497,153.60451,150.35547,147.04059,144.25787,142.18364,140.62379,139.22977,137.71231,135.94571,133.95998,131.88208,129.87419,128.06879,126.48386,124.94383,123.08601,120.52633,117.15636,113.40607,110.24851,108.82859,109.8372,112.97422,116.87477,119.64671,119.79347,117.01399,112.38727,107.78807,104.84795,104.07154,104.63631,104.98173,103.79913,100.79082,96.737923,92.885025,90.097069,88.366447,86.970016,85.10038,82.466049,79.407288,76.467201,73.798981,70.944481,67.254013,62.708687,58.525803,56.97591,60.328358,69.46035,82.986412,97.539009,109.1664,115.12186,115.04898,110.90661,105.71963,101.92255,100.25844,99.799133,98.935081,96.609016,92.989449,89.213737,86.465759,85.06768,84.207748,82.466141,78.764046,73.100998,66.610695,60.921032,57.238262,55.716667,55.459877,55.095627,53.538467,50.494484,46.469635,42.35815,38.90728,36.367558,34.474636,32.698586,30.569048,27.891716,24.774841,21.501301,18.346897,15.442852,12.735614,10.044834,7.1818509,4.0709887,0.81492907,-2.3335855,-5.0891318,-7.2863765,-8.9866238,-10.473756,-12.135327,-14.293086,-17.078064,-20.414356,-24.102991,-27.934435,-31.752207,-35.443531,-38.901966,-42.032177,-44.823788,-47.442165,-50.237919,-53.612701,-57.783894,-62.588924,-67.479401,-71.750412,-74.893051,-76.858406,-78.060051,-79.105934,-80.432625,-82.087715,-83.808655,-85.340462,-86.759598,-88.55481,-91.375748,-95.592941,-100.95657,-106.59431,-111.37692,-114.44484,-115.58834,-115.27215,-114.3229,-113.49981,-113.21254,-113.52035,-114.34314,-115.68483,-117.69461,-120.53934,-124.21185,-128.44136,-132.78168,-136.80594,-140.25414,-143.0239,-145.03198,-146.09206,-145.95667,-144.54694,-142.22995,-139.92566,-138.90138,-140.30028,-144.62981,-151.4847,-159.66017,-167.59943,-173.94589,-177.93864,-179.50403,-179.07632,-177.30885,-174.84914,-172.26158,-170.06537,-168.78925,-168.95865,-170.99515,-175.07123,-180.98932,-188.14174,-195.57919,-202.1875,-206.94472,-209.19841,-208.87158,-206.50301,-203.07773,-199.70113,-197.26205,-196.25078,-196.81073,-198.95091,-202.72736,-208.21321,-215.23248,-223.03734,-230.21527,-235.01765,-236.03914,-232.90962,-226.58109,-218.98531,-212.20808,-207.63667,-205.57095,-205.50105,-206.81694,-209.42285,-213.79292,-220.4006,-228.92458,-237.84709,-244.84491,-247.84743,-246.14876,-240.856,-234.33771,-228.97447,-225.98436,-225.06654,-225.07097,-225.20392,-225.89198,-228.63618,-234.87578,-244.60011,-255.69594,-264.60132,-268.00085,-264.58603,-255.80298,-245.10941,-236.18486,-231.18489,-230.0694,-231.30957,-233.36983,-235.88193,-239.69591,-245.81921,-254.06599,-262.46985,-267.99603,-268.17636,-262.61142,-253.32277,-243.67899,-236.5676,-232.98811,-231.95081,-231.67154,-231.17038,-231.11682,-233.30614,-239.12682,-248.1122,-257.64767,-264.13379,-264.90988,-259.71024,-250.72057,-241.22946,-233.78972,-229.09154,-226.2146,-223.9512,-222.15829,-222.1102,-225.56635,-233.21188,-243.60857,-253.47214,-259.19519,-258.68546,-252.37204,-242.78833,-233.07237,-225.39117,-220.25073,-216.96817,-214.76367,-213.56387,-213.92894,-216.25551,-219.9985,-223.64687,-225.58618,-225.23724,-223.54773,-222.30473,-222.58633,-223.38124,-221.44415,-212.73312,-194.7412,-168.36874,-138.14917,-110.56382,-91.293907,-82.867928,-83.907082,-90.235077,-97.094696,-101.2124,-101.71479,-99.683228,-96.906845,-94.704788,-93.433655,-92.736824,-92.135223,-91.466499,-90.927315,-90.816216,-91.254822,-92.097488,-93.035118,-93.749207,-93.98436,-93.534645,-92.241302,-90.076241,-87.26339,-84.293625,-81.729134,-79.859459,-78.433525,-76.700417,-73.807266,-69.341866,-63.664219,-57.771683,-52.73793,-49.060257,-46.332424,-43.463337,-39.311466,-33.338188,-25.878786,-17.886421,-10.341564,-3.7118351,2.2219553,8.1197748,14.627073,22.014259,30.101095,38.443542,46.608784,54.362297,61.703106,68.798256,75.896263,83.247246,91.004204,99.096581,107.1438,114.52567,120.66497,125.41676,129.31566,133.4472,138.92189,146.21979,154.82829,163.46542,170.81369,176.32094,180.52922,184.67599,189.80879,196.02515,202.40543,207.74083,211.5685,214.73529,218.96399,225.56747,234.1102,241.98264,245.36739,241.20503,229.06903,211.80815,194.48352,182.12221,177.50874,180.20258,187.22855,194.91154,200.72383,204.13374,206.16135,208.16409,210.76741,213.6111,215.92747,217.37935,218.46268,220.16577,223.16553,227.19559,231.09573,233.54926,234.00449,233.12537,232.42819,233.31932,236.16278,239.99559,243.08449,243.97061,242.34097,239.19237,236.21336,234.79517,235.28268,236.88824,238.25897,238.30345,236.77583,234.319,232.02234,230.81729,231.06798,232.53279,234.62381,236.74045,238.47449,239.62331,240.09268,239.82014,238.79327,237.13519,235.16432,233.34804,232.14354,231.79617,232.19896,232.89178,233.21745,232.58612,230.75294,227.99724,225.10843,223.14029,222.98502,224.91855,228.32632,231.78613,233.54597,232.24118,227.5425,220.41524,212.8277,207.00903,204.58646,205.99818,210.43797,216.31326,221.94653,226.15523,228.45856,228.89841,227.68028,224.90758,220.57468,214.77954,207.95903,200.93619,194.70422,190.05786,187.29396,186.16472,186.10435,186.57414,187.29721,188.23495,189.33795,190.2673,190.31511,188.63065,184.65341,178.5009,171.05853,163.68335,157.66173,153.71445,151.81766,151.41692,151.86919,152.80934,154.19574,156.01346,157.86205,158.76463,157.41953,152.83551,145.01564,135.2636,125.85732,119.18116,116.72955,118.49354,123.04679,128.26591,132.27541,134.10501,133.74794,131.68539,128.26346,123.37206,116.64832,108.05408,98.403221,89.417213,83.172356,81.192322,83.687546,89.386902,96.076332,101.55335,104.47532,104.66351,102.76711,99.576172,95.460205,90.288383,83.842857,76.395645,69.001732,63.243061,60.520847,61.302414,64.782104,69.17762,72.503227,73.38221,71.45784,67.233063,61.532246,54.994778,47.940594,40.644264,33.731781,28.301319,25.556793,26.111128,29.410175,33.7286,36.864639,37.205807,34.552284,30.17802,26.050285,23.650309,23.104292,23.158838,22.013706,18.484692,12.760027,6.276473,0.81011826,-2.6188915,-4.3193421,-5.6278028,-7.9625592,-11.877787,-16.737875,-21.192142,-24.085186,-25.165026,-25.131216,-25.057549,-25.667305,-27.011599,-28.755655,-30.778555,-33.524635,-37.729736,-43.662025,-50.47784,-56.319637,-59.299175,-58.822304,-56.322796,-54.718437,-56.694157,-62.758919,-70.330917,-74.605736,-70.910461,-57.289421,-35.831345,-11.921446,8.2064829,20.264549,23.536875,20.562824,15.262648,10.740167,8.0338097,6.3510633,4.3396354,1.3694263,-2.043504,-4.823751,-6.3493052,-7.0539322,-8.1535292,-10.716298,-14.788148,-19.238539,-22.46242,-23.456093,-22.520088,-21.106546,-20.919905,-22.876921,-26.599573,-30.729637,-33.805641,-35.109818,-34.977707,-34.465107,-34.681267,-36.244854,-39.142094,-42.941444,-47.103645,-51.155804,-54.701283,-57.411343,-59.134598,-60.087616,-60.925373,-62.508804,-65.406898,-69.42942,-73.557343,-76.421959,-77.103432,-75.747322,-73.556992,-72.105705,-72.376221,-74.150467,-76.168282,-76.97226,-75.893089,-73.526062,-71.383568,-70.954086,-72.784691,-76.172028,-79.629417,-81.789787,-82.152199,-81.235268,-80.128105,-79.812965,-80.715637,-82.698051,-85.357109,-88.307426,-91.226967,-93.718658,-95.239525,-95.294312,-93.825218,-91.48175,-89.45871,-88.883362,-90.108963,-92.427307,-94.483566,-95.187614,-94.512207,-93.573624,-93.850906,-96.026634,-99.278511,-101.63271,-101.30255,-98.220551,-94.72509,-94.797356,-102.11943,-117.99529,-140.33836,-164.35966,-184.62843,-197.40976,-202.06604,-200.88474,-197.58453,-195.41772,-195.86848,-198.47346,-201.61127,-203.64204,-203.74675,-202.14114,-199.74812,-197.64807,-196.6122,-196.86086,-198.0425,-199.38385,-199.98001,-199.18295,-196.9711,-194.103,-191.88789,-191.58678,-193.70613,-197.5858,-201.5816,-203.8213,-203.1586,-199.79472,-195.20087,-191.3696,-189.80762,-190.81978,-193.44841,-196.0513,-197.16501,-196.19521,-193.62877,-190.7393,-188.98331,-189.35809,-191.93611,-195.6963,-198.70566,-198.65288,-193.64574,-183.0403,-167.94743,-151.08765,-135.90862,-125.26079,-120.23367,-119.76347,-121.26723,-122.00641,-120.45592,-116.93066,-113.14207,-110.98409,-111.29938,-113.37261,-115.43765,-115.85996,-114.2506,-111.83021,-110.83405,-113.3267,-120.12039,-130.38489,-142.09703,-152.99834,-161.49728,-167.07521,-170.10747,-171.34808,-171.4492,-170.763,-169.43394,-167.60873,-165.57269,-163.73384,-162.50749,-162.20245,-162.96213,-164.73792,-167.24823,-169.92842,-171.94893,-172.39024,-170.57684,-166.43781,-160.68324,-154.64011,-149.76956,-147.0831,-146.75673,-148.14572,-150.17786,-151.88895,-152.79478,-152.91382,-152.48164,-151.58789,-149.99619,-147.2675,-143.09526,-137.61777,-131.49144,-125.66635,-120.99559,-117.90574,-116.30133,-115.71758,-115.58392,-115.41615,-114.83751,-113.47348,-110.86359,-106.51966,-100.14314,-91.882133,-82.45311,-73.017303,-64.843513,-58.915485,-55.669888,-54.965714,-56.247242,-58.764172,-61.715656,-64.279297,-65.598404,-64.845467,-61.422565,-55.237659,-46.898216,-37.665474,-29.125561,-22.692677,-19.165562,-18.540951,-20.153166,-23.037128,-26.305523,-29.35095,-31.81167,-33.391273,-33.70293,-32.274044,-28.726591,-23.026407,-15.646935,-7.5448208,0.047383144,5.9154449,9.1289682,9.2114096,6.2149611,0.7311424,-6.1561513,-13.01065,-18.316933,-20.863735,-20.116192,-16.398357,-10.757874,-4.539814,1.1277025,5.6584792,8.9631271,11.083718,11.781857,10.413656,6.2560315,-0.86225867,-10.026237,-19.211779,-25.91873,-28.198923,-25.533052,-19.049154,-10.940682,-3.4197145,2.1760795,5.61164,7.251585,7.2554297,5.1112857,-0.085910477,-8.7450104,-19.897202,-31.024996,-38.894661,-41.026119,-36.961319,-28.54191,-18.982016,-11.267578,-6.8404312,-5.3360105,-5.4461999,-6.2300272,-7.9034524,-11.517904,-17.744141,-25.663403,-32.542301,-34.942791,-30.589994,-19.818802,-5.5872254,8.0807638,18.327526,24.972317,30.301926,37.224682,46.951881,57.736259,65.576813,66.559105,59.424213,46.748493,33.927555,26.497265,27.350704,35.477089,46.913883,57.258312,64.171593,68.3862,72.718262,79.846336,90.3479,102.24751,112.31158,118.19588,120.03005,120.41735,122.85766,129.59938,140.26691,152.10432,161.66467,166.89638,168.36476,168.8992,171.91098,179.39821,190.79765,203.30971,213.45993,218.97937,219.95964,218.69647,218.38124,221.40442,228.18489,237.09476,245.43726,250.89838,252.70018,251.89899,250.74712,251.50842,255.35341,261.86551,269.34622,275.70422,279.45505,280.35205,279.39447,278.27695,278.59476,281.18796,285.89032,291.72934,297.4238,301.92972,304.81335,306.33539,307.25253,308.43527,310.45322,313.29117,316.32611,318.6088,319.35764,318.44199,316.5809,315.08463,315.19852,317.36597,320.83957,323.93274,324.8555,322.70456,318.02826,312.58524,308.38351,306.54349,306.67715,307.18439,306.29913,303.22333,298.6041,294.02197,290.81476,289.03867,287.32495,283.82443,277.69232,270.1366,264.24698,263.54578,270.0163,282.7485,298.03476,310.92538,317.41599,316.09744,308.44675,297.74014,287.31882,279.19461,273.64041,269.74207,266.34616,262.74081,258.74536,254.37144,249.48889,243.82982,237.31073,230.3463,223.8109,218.58284,214.9585,212.3712,209.66718,205.80138,200.50447,194.46689,188.90414,184.78642,182.24335,180.53032,178.55528,175.58525,171.64473,167.35219,163.34503,159.73097,155.97404,151.30219,145.34171,138.51154,131.8709,126.49342,122.77705,120.15711,117.42937,113.48674,107.99782,101.59174,95.43383,90.467148,86.802414,83.634865,79.728477,74.15905,66.865395,58.698864,50.978802,44.846626,40.793865,38.589241,37.565453,37.023266,36.488361,35.704399,34.447163,32.359825,28.97121,23.907776,17.15871,9.2065916,0.9195857,-6.7456608,-13.065072,-17.721014,-20.762094,-22.420317,-22.937231,-22.521866,-21.450699,-20.204195,-19.497013,-20.126387,-22.690287,-27.327345,-33.634113,-40.816147,-47.990875,-54.472572,-59.891228,-64.113251,-67.065163,-68.620865,-68.659264,-67.266174,-64.93589,-62.604057,-61.436584,-62.448555,-66.135506,-72.296753,-80.121315,-88.466278,-96.176018,-102.31329,-106.26707,-107.78934,-107.02598,-104.54739,-101.31275,-98.494293,-97.166367,-97.977249,-100.97517,-105.69647,-111.46893,-117.74163,-124.23135,-130.80266,-137.19359,-142.82185,-146.86021,-148.57831,-147.74344,-144.8101,-140.76056,-136.7,-133.48114,-131.60098,-131.38908,-133.2583,-137.71262,-144.98509,-154.50055,-164.58406,-172.76953,-176.7052,-175.22702,-168.97882,-160.16776,-151.55264,-145.24471,-142.0229,-141.52255,-143.06227,-146.43448,-152.01688,-160.06847,-169.71941,-178.48825,-182.90359,-180.09413,-169.50224,-153.65884,-137.42099,-125.96133,-122.55902,-127.38545,-137.8997,-150.52361,-162.54619,-173.15326,-183.10037,-193.42709,-204.17592,-213.98915,-220.80696,-223.13748,-221.01778,-216.04092,-210.48508,-206.17456,-203.832,-203.27699,-204.1981,-206.82251,-211.91147,-220.04001,-230.69016,-241.88622,-250.77316,-254.89923,-253.45146,-247.66847,-240.15154,-233.49222,-229.06793,-226.73233,-225.52383,-224.83264,-225.16269,-227.90886,-234.25838,-243.95885,-254.84406,-263.55563,-267.1282,-264.51785,-257.14197,-248.08691,-240.45778,-235.87138,-233.98468,-233.27505,-232.48129,-231.69812,-232.36562,-236.1467,-243.45131,-252.63852,-260.51971,-263.95059,-261.57431,-254.63713,-246.34299,-240.10904,-237.76108,-238.73906,-240.74677,-241.38133,-239.68562,-236.64923,-234.37898,-234.51859,-236.97101,-239.77231,-240.21964,-236.54907,-229.10149,-220.22658,-212.95657,-209.24167,-208.811,-209.34654,-207.87091,-202.5321,-193.74298,-184.02057,-176.62654,-173.78888,-175.5013,-179.54819,-182.707,-182.43741,-178.12756,-171.24396,-164.34982,-159.56989,-157.35936,-156.2446,-153.66048,-147.41277,-136.96266,-123.83503,-110.93072,-101.11493,-95.837029,-94.508011,-94.938148,-94.55703,-91.725639,-86.431953,-80.04084,-74.317635,-70.341614,-67.944359,-65.953766,-63.025249,-58.50602,-52.801304,-47.057774,-42.414436,-39.316879,-37.306877,-35.366024,-32.543701,-28.460569,-23.415882,-18.115204,-13.263202,-9.2876902,-6.2971849,-4.1776919,-2.6669743,-1.3435049,0.37489852,3.0742831,7.0057478,11.755875,16.230978,19.128386,19.732313,18.555599,17.313597,18.059032,21.856615,27.776714,32.930161,33.716572,27.716568,15.188253,-0.73825854,-15.373004,-24.622189,-26.821905,-23.262724,-17.180197,-11.865631,-9.0146704,-8.2103939,-7.6978202,-5.8267012,-2.2011192,2.1449692,5.54917,6.8847265,6.3005757,5.0945597,4.8707986,6.5724974,10.000711,14.058424,17.479963,19.539001,20.320387,20.481516,20.759087,21.579166,22.97402,24.750956,26.700602,28.672068,30.513441,32.015369,32.983593,33.421432,33.660534,34.274315,35.764912,38.213024,41.1553,43.823391,45.622883,46.533936,47.139763,48.234409,50.264458,52.996765,55.6646,57.511166,58.355637,58.768242,59.699341,61.791645,64.845825,67.829475,69.463066,69.023102,66.845428,64.201439,62.629311,63.150295,65.851753,70.045776,74.815178,79.518982,83.910919,87.855568,90.955109,92.476585,91.731522,88.680611,84.301521,80.35984,78.613136,79.892624,83.645935,88.269585,92.059906,94.198868,95.14827,96.198021,98.463173,101.99062,105.57356,107.41581,106.23635,102.11645,96.554375,91.696556,89.228989,89.60675,92.05687,95.281113,98.348434,101.18175,104.35128,108.36908,113.01234,117.17172,119.35777,118.55308,114.86649,109.57429,104.52724,101.29652,100.56983,102.11474,105.24052,109.37847,114.36303,120.24632,126.8317,133.32188,138.40102,140.76315,139.7762,135.85519,130.2935,124.64865,120.0655,116.94844,115.14651,114.45965,115.05584,117.45985,122.09064,128.66927,135.94991,142.04254,145.20868,144.67963,140.99947,135.67656,130.36069,126.06262,122.894,120.44987,118.51647,117.56156,118.61168,122.54919,129.28688,137.40669,144.58206,148.60472,148.4312,144.62502,138.93274,133.26685,128.73163,125.2828,122.18826,118.93362,115.93109,114.5272,116.26915,121.877,130.56604,140.15268,147.9026,151.64964,150.58812,145.37833,137.62381,129.10922,121.23534,114.8654,110.48842,108.42566,108.85804,111.66093,116.22449,121.46793,126.11407,129.09489,129.86069,128.43373,125.22401,120.77312,115.60588,110.24979,105.33035,101.58794,99.731911,100.19023,102.91046,107.34394,112.62128,117.80481,122.07898,124.82571,125.64643,124.42908,121.47643,117.58195,113.88728,111.46236,110.76473,111.3021,111.78368,110.77954,107.56372,102.63648,97.559792,94.145775,93.45887,95.239685,98.109108,100.41107,101.13318,100.30006,98.610367,96.634781,94.222801,90.631638,85.358887,79.096878,74.038078,73.122177,78.516075,90.197441,105.5584,120.38787,130.76224,134.80289,133.32297,129.05128,124.96622,122.76142,122.30077,122.23887,121.24744,118.97593,116.15613,113.90395,112.81625,112.54239,112.10899,110.70658,108.32339,105.75367,103.98949,103.46188,103.69869,103.64793,102.42257,99.91922,96.865379,94.275475,92.725594,91.978188,91.218399,89.709305,87.369698,84.845802,83.030128,82.391373,82.614677,82.817589,82.17823,80.509087,78.352722,76.532104,75.492363,74.925858,73.96534,71.813553,68.35672,64.316078,60.819569,58.685539,57.908699,57.688923,56.961899,55.053501,52.021992,48.498844,45.197552,42.468483,40.199024,38.072102,35.928959,33.931644,32.408142,31.528994,31.095493,30.619907,29.635319,27.986753,25.875111,23.632137,21.426775,19.156279,16.612679,13.769549,10.913611,8.4646978,6.6025023,5.0247688,3.1072195,0.42657453,-2.7327676,-5.3573909,-6.3526182,-5.5420737,-4.3384929,-5.4841933,-11.797523,-24.540005,-42.378105,-61.665638,-78.022018,-88.381927,-92.363098,-92.176956,-91.173347,-91.923935,-94.991859,-99.059746,-102.20755,-103.42204,-103.32949,-103.71199,-106.19822,-111.05903,-116.93916,-121.70619,-123.84223,-123.44792,-122.19433,-122.25672,-124.92514,-129.78339,-134.96701,-138.31766,-138.69678,-136.65073,-134.05119,-132.97473,-134.52794,-138.31029,-142.7796,-146.233,-147.78075,-147.75264,-147.36084,-147.89209,-149.94598,-153.15245,-156.4778,-158.87578,-159.86909,-159.73372,-159.22673,-159.07277,-159.54564,-160.39191,-161.11444,-161.40775,-161.45102,-161.86108,-163.32544,-166.13943,-169.93852,-173.80325,-176.69051,-177.94417,-177.58769,-176.23486,-174.69012,-173.50168,-172.75114,-172.20052,-171.67204,-171.37335,-171.91025,-173.93997,-177.67122,-182.54405,-187.32936,-190.62929,-191.50246,-189.85162,-186.35751,-182.02731,-177.66219,-173.582,-169.75615,-166.20462,-163.34644,-162.00671,-163.02602,-166.69241,-172.35471,-178.4847,-183.19583,-184.95975,-183.15424,-178.18411,-171.1629,-163.37508,-155.82249,-149.06122,-143.33487,-138.83441,-135.86284,-134.77046,-135.68973,-138.23621,-141.38075,-143.61937,-143.41783,-139.76265,-132.57964,-122.82321,-112.177,-102.48044,-95.125183,-90.680283,-88.892525,-89.018112,-90.275604,-92.161255,-94.469421,-97.054695,-99.539772,-101.20721,-101.18823,-98.85778,-94.196663,-87.890259,-81.094955,-75.009628,-70.498863,-67.955368,-67.407051,-68.706146,-71.607498,-75.671181,-80.10997,-83.793488,-85.534271,-84.566299,-80.942627,-75.574883,-69.841705,-64.974998,-61.594341,-59.670475,-58.905323,-59.21624,-60.925217,-64.45842,-69.730492,-75.665283,-80.27993,-81.421997,-77.809486,-69.77639,-59.253281,-48.95002,-41.182854,-36.99456,-36.020859,-37.087276,-39.084389,-41.544289,-44.59399,-48.408833,-52.624527,-56.17189,-57.684704,-56.225006,-51.849491,-45.647713,-39.230598,-33.992748,-30.585155,-28.859169,-28.218922,-28.07926,-28.122618,-28.255238,-28.406345,-28.408178,-28.081209,-27.434805,-26.762718,-26.481165,-26.778135,-27.339001,-27.413012,-26.258617,-23.704052,-20.413248,-17.594698,-16.263483,-16.515526,-17.336651,-17.1618,-14.897,-10.752553,-6.2847424,-3.5170381,-3.6283216,-6.0455599,-8.5962925,-8.734478,-5.141037,1.3123933,7.9201655,11.699312,11.235898,7.6512122,3.9947381,3.326952,6.6098466,11.727643,14.34865,10.251657,-2.1719756,-20.699839,-40.105061,-54.623577,-60.714458,-58.605297,-51.827232,-45.096386,-41.805119,-42.525383,-45.251053,-47.054585,-46.047482,-42.459969,-38.287682,-35.861725,-36.316635,-38.908863,-41.541332,-42.086891,-39.652706,-35.03529,-30.166042,-26.964342,-26.319654,-27.765358,-29.934166,-31.420906,-31.501606,-30.333368,-28.628111,-27.099367,-26.049919,-25.301168,-24.414444,-22.995541,-20.887358,-18.189074,-15.169998,-12.17844,-9.582983,-7.7066083,-6.7063627,-6.4248004,-6.3251152,-5.6276302,-3.6566136,-0.24501105,4.0499091,8.1044912,10.73945,11.334713,10.201325,8.4739666,7.5544243,8.4008627,11.055683,14.671988,18.013136,20.133331,20.856491,20.802635,20.978048,22.185966,24.593918,27.681452,30.568239,32.520329,33.355865,33.544243,33.95908,35.415123,38.217003,41.941422,45.574387,47.970016,48.442142,47.20726,45.422112,44.721172,46.410332,50.697842,56.401676,61.385872,63.600487,62.220886,58.237263,54.070404,52.311653,54.227039,58.894825,63.574989,65.241058,62.499855,56.808762,52.199738,53.508945,63.958424,83.351707,107.86848,131.61337,149.14935,157.74483,158.25194,154.28558,150.24962,149.27887,152.08549,157.12338,161.77832,163.84381,162.5405,158.70006,154.19948,151.04362,150.54263,152.87592,157.12004,161.657,164.79863,165.42923,163.4532,159.86055,156.33,154.48154,155.09073,157.6572,160.5921,161.98286,160.56828,156.4091,150.87895,145.96774,143.27429,143.2403,145.03481,147.12312,148.16866,147.74741,146.491,145.61981,146.17365,148.39328,151.58905,154.53574,156.14207,156.01161,154.59924,152.90292,151.87959,151.90738,152.57773,152.92171,151.94841,149.21385,145.11974,140.77737,137.49612,136.15791,136.80779,138.67949,140.63448,141.75555,141.74585,140.90489,139.72379,138.39369,136.58809,133.70195,129.4127,124.17816,119.284,116.32206,116.35885,119.2905,123.80527,128.01538,130.40103,130.50575,128.97618,126.95797,125.26904,123.90234,122.17247,119.37743,115.49642,111.42455,108.5658,108.04488,110.055,113.7602,117.79183,120.98414,122.85713,123.56163,123.39702,122.31296,119.79952,115.26711,108.63999,100.71027,92.952316,86.873047,83.305298,82.099236,82.39666,83.27182,84.275681,85.503494,87.161385,88.985001,89.992935,88.839264,84.607971,77.554672,69.284645,62.182411,58.368542,58.755291,62.715172,68.507187,74.165283,78.318588,80.51532,80.972527,80.032021,77.743156,73.847633,68.132645,60.862606,52.959488,45.78426,40.63921,38.281281,38.709827,41.303734,45.170593,49.471558,53.54953,56.853447,58.798428,58.734745,56.107162,50.739147,43.07328,34.202087,25.627777,18.830688,14.826043,13.895208,15.592722,18.99803,23.069912,26.924566,29.917788,31.536919,31.235807,28.395847,22.528181,13.665642,2.7222147,-8.4643021,-17.571707,-22.618679,-22.815315,-18.98514,-13.275806,-8.247159,-5.7907748,-6.4620228,-9.5862198,-14.041677,-19.197412,-25.371788,-33.475376,-44.042404,-56.297512,-67.947388,-75.97097,-78.049599,-73.831299,-65.263794,-55.758823,-48.645428,-45.793709,-47.166012,-51.456764,-57.298405,-64.184448,-72.501564,-82.705841,-94.289558,-105.34993,-113.17475,-115.56612,-112.09779,-104.50282,-95.919968,-89.440063,-86.817139,-88.067665,-92.080139,-97.705856,-104.53574,-112.85249,-122.87185,-133.90979,-144.1723,-151.42102,-154.13443,-152.40401,-147.94888,-143.20691,-140.07719,-139.1207,-139.71159,-140.97823,-142.8248,-146.2598,-152.72931,-162.85548,-175.43925,-187.48586,-195.39471,-196.7099,-191.42993,-182.09042,-172.53865,-166.08403,-164.06816,-165.63116,-168.72818,-171.70581,-174.4323,-178.26643,-184.87064,-194.59323,-205.4425,-213.37711,-213.91147,-204.2836,-185.07166,-160.37195,-136.34966,-118.78396,-110.73639,-111.42108,-116.77825,-121.43917,-121.12669,-114.37128,-102.80622,-90.026955,-79.688255,-73.823845,-72.171211,-72.702934,-72.932961,-71.219803,-67.390633,-62.466991,-57.798607,-54.201862,-51.609798,-49.35989,-46.832211,-43.960213,-41.269718,-39.448425,-38.770409,-38.790043,-38.53056,-37.059586,-34.087833,-30.209272,-26.623501,-24.49588,-24.321688,-25.647356,-27.288433,-27.908249,-26.643456,-23.466894,-19.13884,-14.809322,-11.486059,-9.6157551,-8.9493036,-8.7266588,-8.083086,-6.4909658,-4.0346394,-1.3803563,0.56539392,1.1615047,0.44860286,-0.76597691,-1.2483845,0.030129274,3.2903016,7.7171898,11.780812,13.982802,13.652521,11.357267,8.6776743,7.4367919,8.7730408,12.541456,17.360243,21.283642,22.760645,21.400457,18.170689,14.936838,13.56364,14.996171,18.74371,23.014021,25.468525,24.296946,19.146687,11.459006,3.9794488,-0.43600014,-0.24021345,3.824506,8.7330513,10.303099,5.0224886,-8.2462978,-27.532885,-48.425606,-65.886307,-76.369217,-79.223579,-76.71257,-72.687195,-70.633209,-72.096603,-76.242142,-80.664375,-82.913979,-81.876816,-78.30085,-74.279617,-72.065186,-72.891884,-76.413597,-80.978577,-84.521454,-85.575333,-83.909416,-80.534187,-77.138817,-75.272957,-75.662544,-77.950439,-80.942749,-83.216408,-83.793243,-82.567543,-80.295021,-78.16114,-77.151489,-77.546013,-78.795868,-79.842003,-79.700668,-78.000816,-75.189789,-72.308609,-70.469124,-70.313225,-71.723747,-73.908836,-75.791199,-76.503677,-75.772995,-74.04528,-72.314514,-71.712456,-72.994034,-76.105766,-80.040619,-83.121017,-83.686394,-80.933022,-75.484856,-69.305984,-64.855591,-63.823551,-66.118362,-69.75808,-71.872269,-70.363411,-65.293388,-59.099472,-55.359962,-56.703415,-63.058056,-71.352318,-76.987717,-76.345688,-68.905167,-57.6917,-47.712555,-43.219276,-45.361008,-51.594204,-57.198387,-58.016945,-52.835037,-44.039692,-36.224979,-33.585777,-37.591755,-46.20055,-54.946259,-59.203644,-56.373081,-46.911747,-33.859669,-21.302027,-12.636499,-9.4246855,-11.167104,-15.867894,-20.992487,-24.412458,-25.063297,-23.176205,-20.040266,-17.351549,-16.355337,-17.140978,-18.477705,-18.381315,-15.217054,-8.780117,-0.7065922,6.1262183,8.9836197,6.7179446,0.45101872,-6.9305596,-12.215668,-13.444622,-10.744673,-5.9951868,-1.5858473,0.95792949,1.6832933,1.9061372,3.1755214,6.1940737,10.341595,14.028768,15.601437,14.237274,10.358964,5.4245119,1.3017629,-0.41292304,1.1487739,5.9805455,13.297232,21.772367,29.86261,36.191532,39.923061,40.98634,40.014156,37.979134,35.698875,33.498241,31.250307,28.780378,26.357471,24.90303,25.7055,29.75399,37.079021,46.518669,56.081364,63.711845,68.030457,68.66465,66.084358,61.174339,54.900425,48.271255,42.496346,39.03426,39.285892,43.982765,52.629124,63.428932,73.876434,81.761795,86.03727,87.036537,85.934937,83.828316,81.057892,77.23613,71.937904,65.543709,59.588757,56.287605,57.462662,63.529438,73.186363,84.017715,93.636055,100.65708,104.94003,107.04168,107.36685,105.68455,101.38988,94.329086,85.562943,77.435806,72.761421,73.535423,79.932617,90.201775,101.5236,111.30856,118.16839,122.05025,123.59399,123.26957,120.94507,116.17803,108.97401,100.40355,92.553558,87.749008,87.492668,91.779503,99.204865,107.76734,115.82525,122.59942,127.96334,131.77663,133.34044,131.46004,125.15603,114.57809,101.48085,88.857742,79.844772,76.46328,78.876106,85.523376,93.991211,102.07549,108.46542,112.77905,115.11008,115.5116,113.79892,109.7674,103.6088,96.180794,88.903877,83.320221,80.562057,81.0103,84.279648,89.464706,95.461014,101.19698,105.73017,108.27228,108.2345,105.32883,99.683678,91.900581,83.006332,74.308289,67.188377,62.862541,62.11644,65.048347,70.905647,78.143509,84.794281,89.095184,90.144905,88.267532,84.848274,81.65863,79.977318,79.959679,80.602547,80.335251,77.917793,73.152382,67.022331,61.200241,57.21843,55.764523,56.462654,58.203735,59.782692,60.46349,60.185307,59.365154,58.485363,57.745636,56.976444,55.826653,54.073589,51.849091,49.644146,48.092552,47.656994,48.387947,49.881859,51.460491,52.481304,52.622471,51.997017,51.036846,50.21043,49.734291,49.449986,48.94709,47.862156,46.163067,44.221485,42.60297,41.694771,41.419708,41.252247,40.560883,39.067078,37.097134,35.409298,34.657085,34.826424,35.06131,34.089176,31.07695,26.427837,21.988689,20.433136,24.058588,33.602261,47.713219,63.383717,77.134964,86.365181,90.215271,89.600685,86.505432,82.975945,80.318275,78.801735,77.864693,76.591034,74.179268,70.230042,64.823158,58.443222,51.821972,45.736778,40.795715,37.261589,34.986149,33.498814,32.219395,30.689714,28.705082,26.29273,23.587234,20.714727,17.771187,14.885532,12.274916,10.199018,8.8094559,7.9984775,7.3841257,6.4871078,5.0093317,3.0275209,0.95201021,-0.74132258,-1.8297697,-2.4869459,-3.1414359,-4.149334,-5.5242481,-6.9358697,-7.9913287,-8.5932798,-9.0930252,-10.095176,-12.030966,-14.809082,-17.822617,-20.344339,-22.050106,-23.289726,-24.879847,-27.528782,-31.282364,-35.392529,-38.73114,-40.487282,-40.672188,-40.075329,-39.697086,-40.060047,-40.898743,-41.463081,-41.223675,-40.456287,-40.24308,-41.832184,-45.766285,-51.386776,-57.088024,-61.186054,-62.832874,-62.366108,-60.875542,-59.323956,-57.882168,-55.984581,-53.076538,-49.484913,-46.697628,-46.718037,-50.823479,-58.541786,-67.601791,-75.015709,-78.693924,-78.591431,-76.634956,-75.44281,-76.634811,-79.813797,-82.88237,-83.500725,-80.750313,-75.928902,-71.954803,-71.741425,-76.543884,-85.274055,-95.150124,-103.21764,-107.78397,-108.94349,-108.00766,-106.3526,-104.50254,-102.01918,-98.171288,-92.837242,-86.980583,-82.372139,-80.751801,-82.968361,-88.600128,-96.208748,-103.98316,-110.35522,-114.29385,-115.27322,-113.12967,-108.02399,-100.54616,-91.807968,-83.332237,-76.690552,-73.044434,-72.837952,-75.797058,-81.182976,-88.089127,-95.58567,-102.68529,-108.28631,-111.28791,-110.92638,-107.16285,-100.84217,-93.448128,-86.543213,-81.212494,-77.847115,-76.373116,-76.708832,-79.057724,-83.755714,-90.73278,-98.978508,-106.47421,-110.79155,-110.11934,-104.16077,-94.369858,-83.367683,-73.858704,-67.645538,-65.238617,-66.156685,-69.588509,-74.917366,-81.788414,-89.77787,-98.02095,-105.16873,-109.77834,-110.90472,-108.50394,-103.3897,-96.799911,-89.891953,-83.502441,-78.2724,-74.934471,-74.419022,-77.570717,-84.582954,-94.521217,-105.31754,-114.35371,-119.38425,-119.32929,-114.54192,-106.46885,-96.966293,-87.680458,-79.778694,-74.032562,-71.019699,-71.183037,-74.659966,-81.020592,-89.157135,-97.475174,-104.32832,-108.47437,-109.32895,-106.94482,-101.82441,-94.745636,-86.700836,-78.8965,-72.671509,-69.242752,-69.341484,-72.932549,-79.200546,-86.833702,-94.449707,-100.9278,-105.50098,-107.65279,-107.00426,-103.35854,-96.90535,-88.412086,-79.190994,-70.776054,-64.463173,-60.985844,-60.506771,-62.861988,-67.78775,-74.874275,-83.243103,-91.255928,-96.669975,-97.416893,-92.711838,-83.820259,-73.838432,-66.352402,-63.559071,-64.898903,-67.102684,-65.805496,-57.944084,-43.608444,-26.243423,-11.00353,-2.1329839,-0.82658499,-4.7606378,-9.5174341,-11.040798,-7.7030168,-0.85402149,6.3380637,10.945611,11.964675,10.666698,9.5277672,10.505795,13.776471,17.688841,19.912622,19.020966,15.512868,11.644964,10.167196,12.70525,18.735878,25.762236,30.619616,31.208357,27.702148,22.547312,19.21022,20.310308,26.135374,34.370987,41.251213,43.565701,40.452854,33.968658,28.053144,26.404089,30.417658,38.373291,46.371422,50.530663,49.195122,43.861179,38.265644,36.168545,39.157001,45.792454,52.604568,56.296993,55.781658,52.776222,50.614334,52.051445,57.476444,64.661224,70.181976,71.576523,68.852699,64.412109,61.491669,62.165413,66.184265,71.335007,74.991722,75.790001,74.348541,72.658432,72.657082,74.993729,78.775597,82.354469,84.504494,85.141037,85.140961,85.513733,86.626129,88.080338,89.284988,90.180252,91.4291,93.796165,97.10939,99.630363,98.493973,91.182205,77.229713,59.061268,41.2841,28.670124,23.893692,26.297577,32.392262,37.791145,39.464458,37.05468,32.603024,28.995148,28.150213,30.034859,32.992218,35.039528,35.231918,34.228287,33.757381,35.384186,39.383232,44.416225,48.194145,48.717678,45.380466,39.33823,32.984356,28.854458,28.544327,32.155823,38.464142,45.624683,52.005337,56.734097,59.757496,61.483982,62.291557,62.215591,60.994717,58.421791,54.751015,50.863129,48.024521,47.325054,49.100739,52.698166,56.765625,59.944859,61.572361,61.958458,62.048607,62.658901,63.776737,64.41861,63.208782,59.369907,53.501133,47.585808,44.112888,44.756611,49.382473,56.006863,61.791718,64.52935,63.758495,60.860271,58.095535,57.186878,58.316513,60.137974,60.757828,59.041279,55.410309,51.643448,49.824604,51.113411,55.094639,60.07375,64.087692,65.980972,65.908722,65.032684,64.687187,65.578842,67.487679,69.561958,70.919685,71.133316,70.335381,68.986893,67.56308,66.393654,65.697449,65.659203,66.374458,67.651443,68.858757,69.054077,67.449577,63.979298,59.562695,55.776115,54.016979,54.633049,56.604458,58.080765,57.536064,54.857063,51.640491,50.41486,53.166904,60.024467,68.907173,76.405586,79.420647,76.64241,69.052681,59.229435,49.932095,42.820488,37.994076,34.473003,31.16412,27.630358,24.218548,21.594589,20.127855,19.602146,19.423275,19.097321,18.568199,18.149971,18.135443,18.428877,18.528406,17.892864,16.399433,14.498313,12.890465,11.937051,11.25867,9.8884878,6.9486384,2.4021747,-2.6869972,-6.65729,-8.2557888,-7.4936566,-5.7370548,-4.9010658,-6.2245717,-9.4230776,-12.804852,-14.314468,-12.846501,-8.9748812,-4.6153183,-1.8384027,-1.6114999,-3.2897091,-5.1715202,-5.7241678,-4.6471009,-3.0685158,-2.7660062,-4.9569654,-9.4759769,-14.871655,-19.323469,-21.737925,-22.296387,-22.134481,-22.437702,-23.616745,-25.129648,-26.033131,-25.827276,-24.968287,-24.68358,-26.229704,-30.119322,-35.838696,-42.201389,-48.022556,-52.593227,-55.632217,-56.840313,-55.533379,-50.807117,-42.277069,-30.927359,-19.372196,-11.098171,-8.8857031,-13.211276,-21.592476,-29.404423,-31.890024,-26.381861,-13.581055,2.7815166,17.713827,27.22319,29.915012,27.196022,22.135595,17.731247,15.545304,15.350732,15.7872,15.477363,13.890919,11.513442,9.3631105,8.2834673,8.5045147,9.7102652,11.476793,13.705414,16.71483,20.926722,26.385147,32.481697,38.128891,42.32093,44.745697,46.048031,47.540478,50.494808,55.415192,61.721989,68.041206,72.938675,75.676117,76.557693,76.682442,77.269028,78.959656,81.50135,83.959793,85.302559,84.990585,83.248268,80.904427,78.953026,78.113869,78.615555,80.243118,82.529953,84.935097,86.934006,88.069008,88.045662,86.888,85.0485,83.324783,82.52961,83.046234,84.538147,86.045746,86.482307,85.270966,82.73304,79.959732,78.214523,78.220604,79.772659,81.906601,83.496002,83.86998,83.055244,81.530357,79.735077,77.742233,75.348541,72.486237,69.571953,67.426849,66.733559,67.40377,68.39019,68.223038,66.019707,62.280766,58.797142,57.519993,58.979614,61.282906,60.512718,52.549442,35.406605,10.723702,-16.568571,-40.373295,-56.23864,-63.306614,-64.327415,-63.793114,-65.334351,-69.910423,-75.779114,-80.112793,-81.136971,-79.41433,-77.507889,-78.315269,-83.190636,-91.058823,-99.057022,-104.26891,-105.46188,-103.78606,-102.06982,-103.19714,-108.54951,-117.37415,-127.33147,-135.79044,-141.08817,-143.10902,-143.01375,-142.43161,-142.64221,-144.15016,-146.74431,-149.85564,-152.93718,-155.68019,-158.03931,-160.14651,-162.20287,-164.39029,-166.80861,-169.44525,-172.1992,-174.96803,-177.75584,-180.71613,-184.05933,-187.84583,-191.793,-195.26289,-197.51097,-198.10443,-197.27303,-195.94962,-195.4191,-196.73193,-200.19897,-205.25372,-210.75667,-215.55707,-218.98593,-221.02162,-222.09259,-222.70714,-223.17653,-223.58536,-223.95328,-224.38681,-225.04301,-225.90073,-226.52255,-226.04509,-223.50081,-218.33864,-210.83638,-202.11938,-193.71786,-186.87567,-181.98656,-178.47005,-175.14661,-170.88625,-165.16148,-158.21439,-150.78818,-143.62383,-137.03293,-130.78111,-124.31501,-117.16994,-109.31286,-101.23367,-93.744812,-87.5961,-83.0914,-79.883667,-77.046883,-73.412476,-68.050537,-60.703129,-51.971363,-43.136929,-35.653339,-30.511358,-27.778145,-26.556915,-25.41466,-23.073263,-18.999792,-13.573599,-7.7456813,-2.4062026,2.145859,6.3019085,10.759462,15.919498,21.481323,26.529779,30.087523,31.788664,32.229343,32.738377,34.672836,38.648186,44.165367,49.862839,54.249458,56.495045,56.83712,56.401962,56.577454,58.307343,61.677876,65.965874,70.054428,72.954582,74.172211,73.791306,72.30661,70.338463,68.374573,66.633202,65.077377,63.553234,61.980785,60.495293,59.441216,59.182598,59.806,60.895851,61.574074,60.870247,58.273823,54.14957,49.709457,46.464752,45.413826,46.438725,48.315102,49.389088,48.545067,45.864754,42.536041,40.036781,39.103157,39.164707,38.650875,36.007053,30.771984,23.996738,17.695639,13.652713,12.342656,12.664277,12.658553,10.740377,6.6447821,1.4948685,-3.0043011,-5.6653051,-6.4679604,-6.3681169,-6.4829197,-7.2976055,-8.4834394,-9.4265461,-10.008214,-10.968632,-13.49436,-18.279125,-24.765491,-31.218641,-35.71315,-37.414555,-37.22184,-37.179569,-38.889141,-41.909298,-43.291622,-38.779667,-25.157362,-2.4250271,25.544817,52.398914,72.080597,81.503548,81.680855,76.765404,71.650688,69.545479,70.830521,73.642609,75.583122,75.365906,73.420662,71.254913,70.19706,70.465668,71.172241,71.151115,69.93367,68.129555,66.949486,67.244278,68.784271,70.325439,70.440453,68.542404,65.382118,62.65646,61.973099,63.855606,67.442215,71.059151,73.263657,73.653687,72.926636,72.200943,72.119881,72.388474,72.069412,70.41362,67.611656,64.894753,63.859753,65.435837,69.17823,73.382004,75.983337,75.707283,72.763634,68.68309,65.425278,64.322891,65.482651,67.933098,70.33017,71.723366,71.92614,71.357986,70.583839,69.925652,69.388351,68.862274,68.360107,68.063034,68.150345,68.591011,69.113548,69.412117,69.425911,69.436775,69.856598,70.834412,71.997658,72.587845,71.970291,70.187218,68.126411,67.097389,68.016624,70.71772,73.880325,75.695648,74.89621,71.508759,66.84359,62.721962,60.440792,60.137913,60.935314,61.699635,61.846191,61.61578,61.667542,62.352383,63.27496,63.529724,62.464703,60.379387,58.552322,58.459965,60.675285,64.256996,67.183388,67.675606,65.568619,62.725506,62.027691,65.40612,72.101852,78.346992,78.876015,69.566505,49.761284,22.929518,-4.7555633,-27.162621,-40.783913,-45.820065,-45.350327,-43.262993,-42.228207,-42.79565,-43.888664,-44.102783,-42.838211,-40.581135,-38.331528,-36.758205,-35.764839,-34.75528,-33.319527,-31.743507,-30.895542,-31.532219,-33.530895,-35.653896,-36.10585,-33.595165,-28.233931,-21.667765,-16.288801,-13.953054,-14.935821,-17.724043,-19.756287,-18.686403,-13.48255,-4.812582,5.4062972,14.970625,22.329165,27.058163,29.74272,31.447599,33.114941,35.17783,37.503979,39.606182,40.962147,41.290077,40.68708,39.605679,38.695347,38.570679,39.589977,41.729809,44.609241,47.653648,50.320759,52.281914,53.483032,54.084797,54.348854,54.548077,54.928593,55.683876,56.880192,58.32618,59.471348,59.467056,57.465225,53.075203,46.74403,39.791611,33.97921,30.756716,30.562084,32.575558,35.112217,36.478691,35.835327,33.577888,31.017073,29.54056,29.74753,31.061296,32.040592,31.198,27.844257,22.479544,16.53301,11.629692,8.8109369,8.1193686,8.7172127,9.4041147,9.2162905,7.8068767,5.4775248,2.9270065,0.89138442,-0.15760957,-0.16643766,0.50797123,1.2420223,1.382571,0.51082546,-1.3658813,-3.7978971,-6.0954585,-7.6742549,-8.3634787,-8.4872723,-8.6526108,-9.3654861,-10.724966,-12.407186,-13.956321,-15.174473,-16.314247,-17.905903,-20.320423,-23.387007,-26.377958,-28.425774,-29.112774,-28.811354,-28.493341,-29.093769,-30.853617,-33.121696,-34.800343,-35.162086,-34.46825,-33.916275,-34.889153,-37.978725,-42.448605,-46.53598,-48.433033,-47.322258,-43.799038,-39.435669,-35.829266,-33.811108,-33.334625,-34.022839,-35.845081,-39.298565,-44.877594,-52.224213,-59.696171,-64.865707,-65.796211,-62.305191,-56.30471,-50.856949,-48.452778,-49.607166,-52.720558,-55.332603,-55.936264,-55.099426,-55.081673,-58.164162,-64.828156,-73.07235,-79.415115,-80.977005,-77.274368,-70.518906,-64.215027,-60.998165,-61.164589,-62.852966,-63.685371,-62.666592,-60.978245,-61.103268,-64.911064,-72.082062,-80.021927,-85.370598,-86.086044,-82.67247,-77.71627,-74.072945,-72.980873,-73.409424,-73.062866,-70.288086,-65.503891,-61.121265,-59.999733,-63.518044,-70.598839,-78.344078,-83.808281,-85.668007,-84.675018,-82.693077,-81.139236,-80.034241,-78.343369,-75.254242,-71.273552,-68.119202,-67.301956,-68.373215,-68.249245,-62.423557,-47.597252,-24.15811,3.1807709,27.250359,41.916645,45.221512,40.313313,33.585083,31.097536,35.369926,44.355621,53.067333,56.738457,53.572849,45.517159,36.784508,31.22027,30.194107,32.225685,34.381531,34.39468,32.116055,29.452673,28.964069,32.106133,38.244434,44.991428,49.568104,50.302101,47.380787,42.513477,37.838062,34.806831,33.694702,33.90427,34.726944,35.978699,38.083176,41.587143,46.484566,51.849403,56.072456,57.604198,55.774521,51.194172,45.480877,40.451721,37.243294,35.868427,35.458759,35.025627,34.247406,33.763737,34.756779,38.05648,43.339233,48.976906,52.71756,52.856163,49.209667,43.282452,37.479206,33.813717,32.89616,33.824039,35.028851,35.499916,35.537968,36.486755,39.582973,44.7048,49.941807,52.419155,49.974148,42.649765,32.986317,24.798454,21.094994,22.402189,26.561159,30.168787,30.776941,28.448729,25.653831,25.550325,29.764637,37.140537,44.32069,47.824722,46.275902,41.283585,36.334126,34.349072,35.485458,36.663647,33.241936,21.882879,2.8552074,-19.687769,-39.693226,-52.318939,-56.355396,-54.585464,-51.964249,-52.779945,-58.474319,-67.284973,-75.701935,-80.67054,-81.161751,-78.29126,-74.16539,-70.393326,-67.275688,-64.090752,-60.109707,-55.522697,-51.609547,-50.076397,-52.059177,-57.474617,-65.09906,-73.232376,-80.444023,-85.933167,-89.393707,-90.660774,-89.537735,-85.991425,-80.543388,-74.469086,-69.518158,-67.216125,-68.140854,-71.634071,-76.150421,-80.039619,-82.285721,-82.775673,-81.999138,-80.457779,-78.23008,-74.991928,-70.451752,-64.86441,-59.236797,-55.050526,-53.643368,-55.597347,-60.456917,-66.888847,-73.155235,-77.651505,-79.304573,-77.75724,-73.370003,-67.093155,-60.231628,-54.116825,-49.7505,-47.553825,-47.355221,-48.639763,-50.915024,-53.948055,-57.696762,-61.977219,-66.131348,-69.010345,-69.398155,-66.675339,-61.296005,-54.707741,-48.684608,-44.451706,-42.163525,-41.09877,-40.454163,-40.17926,-41.213551,-44.859188,-51.622833,-60.28606,-67.902428,-70.877037,-66.596924,-54.702232,-37.278133,-17.893723,-0.093205288,13.785227,22.892458,27.332836,27.424093,23.414814,15.86599,6.2910323,-2.6533246,-7.8768559,-7.2605352,-0.95355958,8.3282156,16.361849,19.362324,15.751848,6.7521148,-4.5110273,-14.81181,-22.439833,-27.703102,-32.135872,-37.042915,-42.378994,-46.670315,-47.959984,-45.096668,-38.510975,-30.016655,-21.836054,-15.525397,-11.46718,-9.1507874,-7.9152255,-7.5589547,-8.3905697,-10.748165,-14.413587,-18.411316,-21.38233,-22.29134,-20.975994,-18.153284,-14.880334,-11.850369,-9.0216208,-5.8460622,-1.945744,2.2395387,5.3202105,5.5156865,1.642102,-6.0217929,-15.50832,-23.759443,-27.800852,-25.94589,-18.475424,-7.5023656,3.8879194,12.821125,17.636541,18.325132,16.286024,13.569652,11.963426,12.304046,14.27256,16.706274,18.240534,17.966644,15.811589,12.497914,9.1507139,6.7788048,5.8897805,6.3962803,7.7991471,9.4943724,11.019244,12.133567,12.758747,12.882479,12.528322,11.805119,10.962528,10.357215,10.299574,10.855463,11.741411,12.418394,12.370317,11.422773,9.9062157,8.5391436,8.0676346,8.8519478,10.641244,12.684393,14.135647,14.536871,14.098949,13.605372,13.969936,15.682488,18.454395,21.279335,22.901297,22.452925,19.922178,16.18926,12.606373,10.344443,9.8584156,10.751973,12.091024,12.959552,12.923308,12.143704,11.116341,10.247465,9.5730448,8.8093634,7.6797032,6.2563004,5.0369458,4.6622224,5.4483671,7.0702868,8.6550646,9.2727566,8.5218029,6.809267,5.1088424,4.3330884,4.7392168,5.7891464,6.5800867,6.5487447,5.9249291,5.5559702,6.1737428,7.6308403,8.7518072,8.0918274,5.2565846,1.9317631,1.7797829,8.9592619,25.889494,51.478691,80.939011,107.50768,125.31767,131.95164,129.32188,122.41502,116.61665,115.09591,117.63873,121.43537,123.19609,121.26067,116.48361,111.50011,108.97452,109.98844,113.53635,117.33145,119.30134,118.78421,116.71806,114.81536,114.35718,115.41937,116.98297,117.75972,117.10806,115.41158,113.709,112.89269,113.0683,113.52117,113.28765,111.90343,109.78745,107.98498,107.4454,108.33373,109.85438,110.72024,109.96728,107.58443,104.54758,102.23093,101.56386,102.45601,103.83802,104.28458,102.84246,99.584183,95.590477,92.400558,91.251816,92.507706,95.53167,99.01506,101.55729,102.22134,100.84852,98.047539,94.900436,92.512352,91.569893,92.070618,93.338051,94.336853,94.167763,92.513016,89.793556,86.927261,84.796181,83.718369,83.248215,82.455322,80.54126,77.423569,73.904961,71.280777,70.587433,71.938309,74.367714,76.30899,76.446739,74.447426,71.138046,68.031662,66.485283,66.981857,68.933571,71.07959,72.207886,71.774529,70.10096,68.106163,66.790611,66.77993,68.13607,70.449959,73.082718,75.399178,76.91581,77.374893,76.785156,75.431725,73.813972,72.480751,71.803215,71.799904,72.131836,72.296265,71.918442,70.965004,69.742516,68.679962,68.033195,67.696274,67.229431,66.073616,63.81562,60.362743,55.967625,51.138432,46.505123,42.681271,40.116287,38.937611,38.841675,39.142235,39.044037,38.066193,36.381172,34.80286,34.327801,35.437599,37.604485,39.406036,39.307281,36.697102,32.490387,28.767118,27.483862,28.938797,30.967577,29.54055,20.643078,2.5054183,-23.073597,-51.146854,-75.669434,-92.133827,-99.398079,-99.771759,-97.414955,-96.034042,-97.177856,-99.986771,-102.3357,-102.51455,-100.37531,-97.32338,-95.308212,-95.566299,-97.935768,-101.10933,-103.56006,-104.48059,-104.14513,-103.5422,-103.61108,-104.62989,-106.1373,-107.37276,-107.87582,-107.81345,-107.82649,-108.52905,-110.02247,-111.76044,-112.85809,-112.64795,-111.13369,-109.06291,-107.5746,-107.62471,-109.5107,-112.74548,-116.32747,-119.2386,-120.8931,-121.30972,-120.94887,-120.3476,-119.7881,-119.19736,-118.31818,-117.01377,-115.47808,-114.18555,-113.59237,-113.78533,-114.33613,-114.5032,-113.69258,-111.89344,-109.7846,-108.39952,-108.5258,-110.20937,-112.68915,-114.8172,-115.69577,-115.11019,-113.47382,-111.34499,-108.89027,-105.72132,-101.26895,-95.449448,-89.118477,-83.901932,-81.404694,-82.25473,-85.613998,-89.530846,-91.970161,-91.895836,-89.722626,-86.859253,-84.669685,-83.57045,-82.881638,-81.516365,-78.994484,-76.022697,-74.178032,-74.867958,-78.275391,-83.044495,-86.975159,-88.299446,-86.696449,-83.364235,-80.107231,-78.076126,-77.039391,-75.695053,-72.800194,-68.311134,-63.702385,-61.192173,-62.362461,-67.095085,-73.547798,-79.197784,-82.263947,-82.575111,-81.344521,-80.065132,-79.333824,-78.437836,-75.986786,-71.133469,-64.511322,-58.205139,-54.727703,-55.642551,-60.701218,-68.012268,-75.084824,-80.054825,-82.353218,-82.511681,-81.393867,-79.477501,-76.68676,-72.813057,-68.117561,-63.595543,-60.659397,-60.439262,-63.178951,-68.127197,-73.96637,-79.455421,-83.855812,-86.917854,-88.556885,-88.570847,-86.682526,-82.893677,-77.851051,-72.871849,-69.50396,-68.839478,-71.002182,-75.138901,-79.918777,-84.2145,-87.534561,-89.967049,-91.74157,-92.774055,-92.552139,-90.462044,-86.336121,-80.836098,-75.385727,-71.651497,-70.848106,-73.241028,-78.089081,-84.01593,-89.583473,-93.777473,-96.210831,-97.020119,-96.574631,-95.175911,-92.900208,-89.656891,-85.434708,-80.609062,-76.121964,-73.364098,-73.714348,-77.891289,-85.439888,-94.686089,-103.28617,-109.15939,-111.32487,-110.16518,-106.95612,-102.96278,-98.703735,-93.895523,-88.128532,-81.781456,-76.442047,-74.377373,-77.248024,-84.859695,-94.850342,-103.68523,-108.47469,-108.50671,-105.45871,-102.04134,-99.860153,-97.879814,-92.601692,-80.035156,-58.382111,-29.807529,-0.1172644,23.637602,36.38826,37.367054,30.298241,21.446516,16.66123,18.984354,27.911243,40.37545,52.626389,61.883247,67.039543,68.396667,66.93264,63.682804,59.499535,55.08461,51.038769,47.799618,45.557827,44.318832,44.135139,45.314198,48.33791,53.422676,59.980785,66.439995,70.731133,71.308685,68.125671,62.885563,58.272984,56.511147,58.081207,61.411148,63.777794,62.910625,58.333549,51.636292,45.535881,42.335846,42.732708,45.648895,49.089886,51.394661,52.076077,51.807636,51.719501,52.590675,54.495857,57.052277,59.947327,63.256401,67.286484,72.105682,77.200554,81.619049,84.570686,86.065598,87.088379,89.104126,93.173744,99.263123,106.23067,112.52583,117.14187,120.18586,122.69067,125.81647,130.00755,134.68987,138.70702,141.17175,142.12564,142.54616,143.70735,146.35269,150.25577,154.45396,157.95612,160.40044,162.19925,164.10138,166.53371,169.23773,171.48193,172.68671,172.97549,173.20834,174.43465,177.14349,180.86391,184.43504,186.7878,187.69722,187.96368,188.87036,191.27637,194.97069,198.7383,201.09329,201.16866,199.15106,195.98911,192.63681,189.4314,186.08984,182.31796,178.51714,175.93826,176.00154,179.138,183.95743,187.45502,186.34406,178.83649,165.81062,150.59462,137.40965,129.34158,127.00768,128.64871,131.48421,133.39847,133.87737,133.67723,133.59038,133.28102,131.09247,125.02881,114.26972,100.16335,85.943039,75.234177,70.211403,70.512131,73.54985,76.010254,75.612823,72.118561,67.094444,62.732052,60.545319,60.727573,62.417156,64.501572,66.305008,67.708603,68.751663,69.164856,68.303185,65.585167,61.097748,55.845036,51.349945,48.799026,48.293633,48.749218,48.562229,46.630936,43.051552,39.014439,35.967487,34.621449,34.486458,34.262459,32.808018,29.999645,26.861467,24.85393,24.80934,26.269558,27.71925,27.587944,25.342516,21.899405,19.031958,18.138744,19.200697,20.661312,20.362719,16.958355,10.881896,4.2195654,-0.46106681,-1.5953529,0.51085955,3.9523067,6.4180274,6.5164871,4.40238,1.380181,-1.151225,-2.644659,-3.6138136,-5.0385742,-7.4711032,-10.52847,-13.135997,-14.311359,-13.877118,-12.552673,-11.353998,-10.765566,-10.340147,-9.0771103,-6.3401666,-2.6341267,0.39501974,0.8457405,-2.2060468,-7.9682846,-14.247956,-18.682711,-20.11132,-19.177057,-17.751207,-17.559151,-18.944981,-20.632507,-20.667858,-17.912521,-13.055717,-8.4165249,-6.6159949,-8.9715586,-14.671204,-21.276688,-26.221567,-28.310356,-28.237425,-27.821152,-28.527317,-30.335125,-31.750154,-30.96093,-27.323977,-22.107607,-17.909624,-17.06811,-20.094765,-25.190866,-29.222713,-29.583954,-25.783098,-19.756571,-14.714742,-13.253195,-15.905478,-21.001123,-25.844141,-28.403545,-28.434561,-27.377234,-27.199533,-29.015305,-32.393604,-35.760838,-37.55172,-37.290962,-35.882431,-34.952465,-35.736271,-38.279362,-41.479,-43.902676,-44.799625,-44.612087,-44.651081,-46.170254,-49.465202,-53.592777,-56.884583,-57.914501,-56.307884,-52.912807,-49.278015,-46.806911,-46.111279,-46.90028,-48.366787,-49.735744,-50.60421,-50.918308,-50.719643,-49.94054,-48.442963,-46.26329,-43.832371,-41.936172,-41.371159,-42.488682,-44.933575,-47.777313,-49.992504,-50.988583,-50.884369,-50.36219,-50.214336,-50.877201,-52.23402,-53.774582,-54.967812,-55.586483,-55.78791,-55.939213,-56.343029,-57.058929,-57.916916,-58.670338,-59.150021,-59.312016,-59.178722,-58.761528,-58.053078,-57.096413,-56.053455,-55.184048,-54.72261,-54.738228,-55.09594,-55.565544,-56.000019,-56.434731,-57.012287,-57.789757,-58.616047,-59.253895,-59.740673,-60.7481,-63.599346,-69.751228,-79.898315,-93.18692,-107.0942,-118.22693,-123.76628,-122.84319,-117.07448,-109.89758,-105.0005,-104.66102,-108.86673,-115.63848,-122.29305,-126.87308,-128.94359,-129.40068,-129.55988,-130.19217,-131.12187,-131.5616,-130.85295,-129.04416,-126.90559,-125.41321,-125.10599,-125.78614,-126.75552,-127.381,-127.54903,-127.66791,-128.22565,-129.25203,-130.11555,-129.84737,-127.79697,-124.1657,-120.02425,-116.76255,-115.31006,-115.62947,-116.81176,-117.70293,-117.64354,-116.83595,-116.11307,-116.28639,-117.52634,-119.19347,-120.22671,-119.81958,-117.93055,-115.29486,-112.94338,-111.55663,-111.07903,-110.83279,-110.03616,-108.37039,-106.22069,-104.43971,-103.79619,-104.46987,-105.9175,-107.1938,-107.52564,-106.78427,-105.56692,-104.83804,-105.34194,-107.13016,-109.4764,-111.22844,-111.3994,-109.67101,-106.53458,-103.00103,-100.05096,-98.138718,-97.028908,-96.049255,-94.597137,-92.581223,-90.511383,-89.161316,-89.000854,-89.762901,-90.456932,-89.878899,-87.344154,-83.189774,-78.689438,-75.366112,-74.079597,-74.4552,-75.060234,-74.290543,-71.45993,-67.392296,-64.05732,-63.353855,-65.706398,-69.341293,-70.791664,-66.494308,-54.679115,-36.513859,-15.821808,2.5459299,14.857735,20.052412,19.910393,17.826748,16.922043,18.542995,21.918144,25.034193,26.10854,24.748272,22.145622,20.277342,20.666527,23.484209,27.512167,30.940042,32.4744,32.082748,30.951607,30.724754,32.505608,36.216053,40.662437,44.232552,45.794228,45.282398,43.672089,42.39703,42.571564,44.448616,47.3792,50.244976,52.087528,52.584671,52.145138,51.621204,51.83979,53.222118,55.677193,58.778549,62.07272,65.310883,68.467033,71.557816,74.416626,76.612343,77.612999,77.127029,75.411346,73.315376,71.963867,72.20475,74.128456,76.975639,79.554802,80.982452,81.317932,81.661407,83.557838,87.969162,94.397179,100.74078,104.10912,102.26424,94.948387,84.332817,74.254318,68.562897,69.4132,76.385612,86.873024,97.470947,105.56998,110.28796,112.31971,112.94696,112.9276,111.98724,109.18746,103.84832,96.34729,88.223152,81.495567,77.639236,76.876038,78.22908,80.275681,82.085274,83.728714,86.05191,89.903473,95.357285,101.4514,106.60179,109.40154,109.28286,106.64761,102.4535,97.607315,92.612427,87.691132,83.224304,80.094727,79.570808,82.69455,89.517822,98.69976,107.80804,114.25484,116.402,114.24019,109.27204,103.67582,99.226761,96.573402,95.23819,94.27877,93.163612,92.305611,92.916443,96.260529,102.75535,111.47134,120.36543,127.1608,130.40192,130.0939,127.55731,124.57784,122.34866,120.84117,118.99789,115.64584,110.56766,105.02975,101.36144,101.74974,106.92432,115.52901,124.60852,130.98524,132.75754,130.06458,124.70496,118.89928,114.00647,110.00375,106.01234,101.44128,96.896729,94.157761,95.155289,100.59187,109.12994,117.75001,123.13965,123.30656,118.45503,110.63002,102.40911,95.498924,90.098381,85.340881,80.404411,75.467422,71.846489,71.243011,74.631248,81.531372,90.114685,98.021034,103.3369,105.16532,103.58225,99.215385,92.8731,85.479454,78.213593,72.52285,69.775284,70.663383,74.771332,80.699745,86.77523,91.917526,96.05632,99.764885,103.3482,106.08002,106.25809,102.20207,93.605263,82.282188,71.641663,65.021782,63.826527,66.640457,69.95752,70.158165,65.552719,57.232315,48.205914,41.389587,37.74194,35.731792,32.450878,25.622139,15.196235,3.527199,-5.9438605,-10.620174,-10.075943,-6.0149751,-1.0163662,3.0217984,5.7202468,7.8830709,10.356444,12.963362,14.281851,12.410078,6.1814976,-3.9845796,-16.131466,-27.6383,-36.338829,-41.228352,-42.456825,-40.805248,-37.129082,-32.155048,-26.655294,-21.694044,-18.594254,-18.523651,-21.940477,-28.297787,-36.253578,-44.283512,-51.303486,-56.90004,-61.05011,-63.588032,-63.874374,-60.99086,-54.408718,-44.711159,-33.848572,-24.65004,-19.758541,-20.523109,-26.437687,-35.428211,-44.827881,-52.517616,-57.646336,-60.607433,-62.370975,-63.61631,-64.19149,-63.214752,-59.753532,-53.678883,-46.176048,-39.559635,-36.408703,-38.415653,-45.53101,-55.871571,-66.484917,-74.613777,-78.822929,-79.407928,-77.889702,-75.911995,-74.207031,-72.262375,-68.90461,-63.446136,-56.660194,-50.903866,-49.190903,-53.65313,-64.23735,-78.406128,-92.075409,-101.33801,-104.09022,-100.74866,-93.762634,-86.279282,-80.72477,-78.014641,-77.672661,-78.609703,-80.003593,-81.77301,-84.462906,-88.722099,-94.739761,-101.95256,-109.12952,-114.74565,-117.4674,-116.59085,-112.32214,-105.81725,-98.916954,-93.580894,-91.165283,-91.837814,-94.457092,-97.075577,-97.898155,-96.224525,-92.83567,-89.546539,-88.120544,-89.149094,-91.57,-93.158173,-91.753761,-86.541779,-78.646675,-70.696899,-65.610283,-65.286987,-69.911446,-78.166809,-88.117279,-98.161201,-107.50066,-115.95279,-123.3744,-129.19612,-132.4386,-132.22047,-128.4191,-122.03526,-114.99653,-109.47533,-107.07697,-108.30763,-112.55402,-118.52212,-124.86279,-130.66327,-135.60193,-139.76018,-143.25153,-145.89726,-147.13699,-146.24413,-142.76649,-136.98778,-130.15585,-124.28996,-121.5554,-123.41896,-129.95734,-139.67795,-149.99937,-158.21471,-162.49959,-162.48575,-159.14235,-154.07834,-148.68353,-143.58798,-138.69983,-133.72125,-128.76096,-124.62676,-122.60178,-123.83151,-128.67551,-136.37798,-145.21361,-153.0072,-157.76726,-158.18091,-153.8448,-145.24454,-133.56183,-120.37939,-107.32601,-95.713043,-86.255089,-78.986961,-73.4319,-68.950981,-65.088104,-61.711922,-58.875744,-56.50209,-54.12344,-50.881706,-45.817715,-38.285027,-28.240198,-16.251701,-3.2658637,9.6782618,21.596973,31.541218,38.556053,41.8204,41.028282,36.834286,31.03138,26.201647,24.86898,28.513063,36.951347,48.439682,60.458782,70.77433,78.218773,82.829369,85.367592,86.592667,86.7575,85.599579,82.759857,78.302879,72.985466,68.114952,65.102791,64.978333,68.100471,74.143707,82.27121,91.3489,100.11322,107.30553,111.83572,112.99845,110.68201,105.45959,98.486755,91.224625,85.097496,81.212189,80.209282,82.233582,86.965996,93.677086,101.3118,108.64013,114.47882,117.92738,118.52549,116.26897,111.50532,104.80382,96.897522,88.713882,81.407249,76.264061,74.417885,76.451775,82.082985,90.127899,98.814232,106.31918,111.28523,113.08411,111.75175,107.70551,101.45862,93.508804,84.431023,75.052673,66.528679,60.196339,57.225773,58.206856,62.857689,69.991379,77.772354,84.184219,87.557945,86.988777,82.505043,74.936493,65.545517,55.58839,46.009686,37.401039,30.194986,24.903316,22.160379,22.45507,25.674406,30.781199,35.945736,39.203266,39.347836,36.541855,32.213627,28.222216,25.752014,24.627424,23.517405,20.931734,16.356443,10.729295,5.8626041,3.1481795,2.4389687,1.9754381,-0.43343139,-5.6534467,-12.085196,-16.066498,-13.797624,-3.7276096,12.095411,28.686829,40.571774,44.641521,41.71841,35.868786,31.876532,32.427586,36.722858,41.316254,42.557117,39.019222,32.362507,26.141027,23.423923,24.840805,28.32238,30.635286,29.610487,25.541353,20.843758,18.281206,19.025578,21.895262,24.261133,23.942648,20.743202,16.551123,13.952932,14.350172,16.914595,19.126226,18.530491,14.49488,8.733655,4.2088065,3.1301579,5.4057117,8.6078815,9.5155773,6.2412024,-0.44526449,-7.4700184,-11.284218,-10.028892,-4.697094,1.4045678,4.5432844,2.6527693,-3.5781353,-11.179957,-16.574507,-17.445438,-13.800164,-7.7606163,-2.3387082,0.072863281,-1.2595091,-5.245976,-9.6271353,-12.055351,-11.112696,-6.8724799,-0.81137472,4.8881874,8.3802156,9.1052532,8.1802568,7.9477725,10.796043,17.792801,27.885841,38.220127,45.538914,47.975479,46.213333,43.2584,42.834885,47.255447,56.000393,65.88839,72.802872,73.998291,69.636719,62.651196,57.037605,55.621117,58.63475,63.908161,68.444572,70.318443,69.689468,68.366402,68.328499,70.275276,73.19928,75.233711,75.132713,73.305443,71.636208,72.166252,75.513344,80.119865,82.901199,80.95546,73.295418,61.531738,49.088882,39.441044,34.431664,33.63295,35.010166,36.348747,36.497795,35.709259,35.012344,35.193359,36.140968,36.976727,36.794056,35.403667,33.51358,32.210911,32.131699,32.934696,33.479237,32.60717,29.997898,26.502972,23.711081,23.007658,24.72699,27.931831,30.947849,32.305466,31.507526,29.18391,26.597847,24.859549,24.33736,24.578114,24.703512,23.974566,22.171274,19.612022,16.88497,14.512881,12.747818,11.552802,10.697202,9.86269,8.717783,6.9897513,4.5655079,1.5865976,-1.5576117,-4.4087958,-6.7386203,-8.783412,-11.207664,-14.732952,-19.606844,-25.253704,-30.40081,-33.70015,-34.526455,-33.456596,-32.073025,-32.131859,-34.554756,-38.863594,-43.445808,-46.536758,-47.341259,-46.595978,-46.194084,-48.069405,-53.009754,-60.132736,-67.361122,-72.620499,-75.034767,-75.396439,-75.637161,-77.635887,-82.094658,-88.147858,-93.904114,-97.55336,-98.358368,-96.965736,-94.918427,-93.731842,-94.113945,-95.75766,-97.741997,-99.213341,-99.899284,-100.17483,-100.712,-101.98634,-103.9521,-106.04623,-107.47063,-107.56908,-106.11759,-103.43494,-100.31095,-97.789993,-96.853828,-98.069626,-101.31931,-105.76185,-110.12682,-113.27719,-114.7851,-115.17906,-115.64749,-117.29216,-120.34022,-123.82366,-126.00885,-125.40672,-121.78921,-116.55829,-112.15422,-110.76878,-113.09142,-117.85051,-122.46565,-124.45705,-122.78212,-118.29681,-113.07069,-108.99443,-106.56074,-104.59025,-101.07819,-94.627396,-85.559036,-75.986282,-68.776375,-66.007439,-67.82695,-72.361626,-76.688454,-78.259544,-75.955048,-70.229446,-62.407467,-53.691051,-44.549255,-34.836212,-24.456623,-14.025784,-4.9895391,0.94771224,2.7538276,0.76025867,-3.3560305,-7.3315797,-9.381671,-8.9413996,-6.6525569,-3.6373854,-0.54669267,2.9888132,8.1293993,15.940024,26.398237,37.945377,47.928104,53.751678,54.131142,49.744732,42.919075,36.518417,32.652916,31.904652,33.451321,35.938328,38.524666,41.45248,45.79882,52.569767,61.691719,71.518211,79.177834,81.623917,76.87796,64.882355,47.606171,28.424026,11.094806,-1.2400801,-6.7364502,-5.111927,2.4393785,13.573929,25.298061,34.599281,39.130581,37.783119,30.935993,20.241999,7.9943123,-3.6724682,-13.394496,-20.739416,-25.892412,-29.102968,-30.252373,-28.814028,-24.231384,-16.477682,-6.4441819,4.1053371,13.032761,18.546154,19.798208,17.097,11.677365,5.2004871,-0.74892336,-4.957233,-6.6232042,-5.2604041,-0.63079983,7.1933661,17.683863,29.777466,42.006351,52.856091,61.208786,66.642021,69.412758,70.136047,69.363411,67.343697,64.142082,60.051548,56.00248,53.618862,54.746979,60.609833,71.021263,84.139542,96.991913,106.5843,111.06563,110.36071,105.96661,100.06898,94.501205,90.12188,86.895538,84.514633,83.076378,83.32608,86.288467,92.522697,101.49034,111.46113,120.05318,125.12825,125.57156,121.58324,114.40794,105.73184,97.101303,89.620331,83.961807,80.539207,79.638168,81.397049,85.662781,91.835495,98.815216,105.10733,109.08327,109.3543,105.1834,96.814743,85.561333,73.518059,62.903625,55.249741,50.824287,48.652008,47.225388,45.592068,44.20483,44.952843,50.206055,61.295399,77.269287,94.719955,108.93745,115.90456,114.12956,105.34786,93.711845,83.896767,79.11338,80.014626,84.938156,91.178955,96.478302,99.914459,101.83569,103.07099,104.02602,104.23495,102.57607,97.937576,89.898155,79.057159,66.909271,55.407738,46.454071,41.481541,41.173553,45.292698,52.629704,61.147854,68.398155,72.169525,71.172791,65.457977,56.327324,45.728104,35.378262,26.038641,17.296816,7.9809461,-2.9991274,-15.817714,-29.358761,-41.543831,-50.259338,-54.46104,-54.900475,-54.052231,-55.18465,-60.950642,-72.16452,-87.399071,-103.65839,-117.81866,-128.07764,-134.59175,-138.89664,-142.41212,-144.9335,-144.12221,-136.50136,-119.57391,-93.920525,-63.984818,-36.871792,-19.568941,-15.933754,-25.010466,-41.573761,-58.606136,-70.382065,-74.55999,-72.323586,-66.769318,-60.705635,-55.239307,-49.886456,-43.899704,-37.726555,-33.488605,-34.08173,-41.454494,-55.193302,-72.362442,-88.750641,-100.79105,-107.02318,-108.2915,-106.69436,-104.06177,-100.96759,-96.850601,-91.04351,-83.910645,-77.255051,-73.673134,-75.245598,-82.385567,-93.549599,-105.95761,-116.84742,-124.50979,-128.5661,-129.48506,-127.81726,-123.74298,-117.23193,-108.63187,-99.175018,-90.935951,-86.149124,-86.239532,-91.136047,-99.286873,-108.38018,-116.36081,-122.17928,-125.89574,-128.16043,-129.45222,-129.56963,-127.68265,-122.89959,-114.99529,-104.8588,-94.383545,-85.834053,-80.999687,-80.546181,-83.857178,-89.401299,-95.40419,-100.48171,-103.95009,-105.72867,-105.97602,-104.72958,-101.78799,-96.906731,-90.173126,-82.305077,-74.651657,-68.842949,-66.240059,-67.452843,-72.153229,-79.24382,-87.251877,-94.724861,-100.45647,-103.52381,-103.25541,-99.277954,-91.690254,-81.263985,-69.486931,-58.317451,-49.681137,-44.908157,-44.367481,-47.461155,-52.955601,-59.462391,-65.835747,-71.339111,-75.581779,-78.33989,-79.399307,-78.503029,-75.411827,-70.043152,-62.643044,-53.939434,-45.200298,-38.099621,-34.32935,-35.01543,-40.156807,-48.396923,-57.353897,-64.470604,-68.028709,-67.803864,-64.968391,-61.243092,-57.745071,-54.195194,-48.973808,-40.026726,-26.111469,-7.6592684,13.246119,33.739784,51.362862,64.876938,74.300545,80.286606,83.371704,83.657013,81.120392,76.268341,70.561165,66.178383,65.146255,68.313942,74.820663,82.428619,88.577881,91.582474,91.31115,89.019203,86.505112,85.134644,85.289948,86.481827,87.936531,89.208611,90.422112,92.038033,94.373413,97.244225,99.993385,101.88943,102.62876,102.60297,102.73702,103.9684,106.65975,110.29235,113.64463,115.39767,114.86674,112.46234,109.59649,108.02469,108.92418,112.18963,116.3644,119.31986,119.38579,116.3429,111.70051,108.03133,107.65616,111.37318,117.95488,124.7402,129.03252,129.53441,127.00394,123.75478,122.29306,123.88857,127.90566,132.25352,134.64244,133.86871,130.37387,125.80358,121.91247,119.53047,118.21127,116.71117,113.92289,109.64346,104.7204,100.5491,98.289825,98.288811,99.98967,102.28578,104.03032,104.42242,103.16704,100.48533,97.084023,94.076347,92.726608,93.92038,97.474693,101.65247,103.31335,98.889725,85.909698,64.373238,37.216721,9.4829702,-13.526061,-28.269163,-34.18277,-33.523933,-29.990135,-26.893997,-25.848288,-26.557102,-27.644043,-27.879597,-27.02339,-25.829132,-25.334581,-26.005812,-27.353327,-28.279339,-27.90115,-26.265934,-24.44157,-23.88669,-25.494482,-28.942661,-32.804043,-35.384613,-35.772659,-34.421928,-32.871426,-32.75552,-34.727642,-37.996571,-40.79221,-41.474838,-39.571224,-36.054852,-32.679569,-30.808023,-30.52611,-30.652609,-29.646475,-26.785505,-22.777964,-19.339016,-17.986116,-18.886633,-20.609339,-21.03776,-18.882488,-14.748296,-10.938982,-10.009126,-12.959693,-18.304176,-22.732346,-23.059233,-18.249447,-10.177388,-2.5564528,1.3328201,0.65687919,-2.5547934,-4.9058223,-4.077517,-0.58222437,2.4105623,1.1591448,-5.9605646,-16.935921,-26.85511,-30.561464,-25.636967,-13.872299,-0.2956568,9.6599627,13.128757,11.14207,7.5799241,6.4802299,9.4141455,14.524837,17.745852,15.374284,6.4042091,-6.7429538,-19.431919,-27.170156,-27.730932,-21.934996,-12.845368,-4.0156755,2.1631281,5.2012997,6.1415095,6.493783,7.150486,7.8274016,7.220396,3.7201841,-3.6648293,-14.55591,-26.923717,-37.447426,-42.486843,-39.398029,-27.7024,-9.561573,10.778176,28.455652,39.779388,43.49754,40.931587,34.930607,28.242222,22.216133,16.547287,10.134723,2.4539816,-5.4710283,-11.161604,-11.849652,-6.0553474,5.3507767,19.244057,31.484434,38.647144,39.349098,34.537209,26.694408,18.483044,11.577527,6.2470345,1.7848032,-2.577728,-6.8478355,-10.00704,-10.438161,-6.8076282,1.0575839,11.751574,22.566324,30.381437,32.801449,29.049467,20.21805,8.7605181,-2.5391519,-11.623627,-17.735861,-21.254824,-22.947784,-23.133282,-21.309759,-16.527584,-8.3089142,2.46841,13.355541,21.066252,22.872971,17.935907,7.8033504,-4.2513905,-14.737385,-21.485615,-24.379396,-24.902569,-24.825943,-24.860344,-24.116985,-20.722668,-13.228405,-1.9503909,10.608917,20.595284,24.504232,20.850319,10.901602,-1.9176397,-13.629039,-21.44664,-24.758423,-24.886801,-23.863152,-22.989964,-22.050545,-19.620415,-14.271384,-5.9194155,3.5395954,10.768886,12.491476,7.1637235,-4.1074967,-17.944017,-30.203447,-37.815758,-39.967751,-38.029831,-34.34613,-30.661064,-27.147108,-22.609152,-15.702122,-6.3576713,3.5314724,10.677765,11.9559,6.0700955,-5.6381102,-19.711475,-32.120132,-39.94273,-42.278465,-40.006973,-34.735504,-27.727623,-19.516165,-10.351753,-1.0160463,6.7377148,10.586306,8.7341986,1.0259905,-10.688269,-23.251457,-33.598423,-40.03056,-42.614815,-42.525158,-40.838631,-37.653336,-32.169739,-23.708172,-12.962289,-2.5606108,3.6064367,2.0670965,-8.4406662,-26.106277,-46.659531,-65.1744,-78.106209,-84.493385,-85.762428,-84.383377,-82.249321,-79.736961,-75.926636,-69.732422,-61.158512,-51.862087,-44.655666,-42.229538,-45.826694,-54.60915,-66.038902,-77.025047,-85.193726,-89.626999,-90.764839,-89.648277,-87.023819,-82.85392,-76.499741,-67.435158,-56.044331,-44.005661,-33.985115,-28.725899,-29.939482,-37.517811,-49.445621,-62.468014,-73.219795,-79.318733,-79.963173,-75.835518,-68.462677,-59.439411,-49.94318,-40.746971,-32.59956,-26.594591,-24.152458,-26.504631,-33.940357,-45.307583,-58.177437,-69.7043,-77.761765,-81.708366,-82.315514,-80.899284,-78.227699,-73.966644,-67.112366,-57.196133,-45.454033,-35.046577,-29.924292,-32.79414,-43.31601,-57.680622,-70.010063,-74.966942,-70.199226,-57.278595,-40.62915,-25.099602,-13.599281,-6.1221361,-0.58823675,5.1920428,11.769284,17.630539,20.282701,18.030685,11.221802,2.145741,-6.2800579,-12.099298,-15.104509,-16.359854,-16.907948,-16.678799,-14.445965,-8.8894176,0.014901627,10.349623,18.94883,23.097319,22.16819,18.104151,14.367661,13.977761,17.851557,24.473038,31.051414,35.378498,37.176136,38.100632,40.471416,45.610237,52.885235,60.046482,64.583412,65.204216,62.52269,58.600689,55.724895,55.213493,56.923191,59.608685,61.762554,62.369213,61.206242,58.704948,55.638626,52.885845,51.305149,51.586578,53.981518,58.0173,62.468361,65.785591,66.874992,65.78492,63.791435,62.684887,63.592697,66.060448,68.049782,66.980148,61.262043,51.394466,39.909721,30.139057,24.510536,23.390705,25.140848,27.293587,28.066492,27.262512,26.057384,25.925219,27.497494,30.134794,32.451485,33.360233,32.862801,32.025986,32.179466,33.925228,36.671272,39.020447,39.737503,38.614384,36.632088,35.312939,35.716499,37.766838,40.354641,42.116051,42.333595,41.344444,40.205933,39.890747,40.597786,41.658783,42.083473,41.332958,39.758739,38.392262,38.234165,39.544861,41.635307,43.306904,43.640644,42.59808,41.029644,40.091537,40.469971,41.933159,43.502083,44.113586,43.327122,41.610096,40.026234,39.545605,40.431362,42.089764,43.455471,43.639046,42.413387,40.246494,37.899822,35.891819,34.195152,32.359081,29.952938,27.010098,24.153812,22.298952,22.105902,23.53112,25.767748,27.632175,28.178347,27.180222,25.200155,23.209003,21.990957,21.691879,21.778553,21.42448,20.077404,17.852949,15.505519,13.988687,13.874119,14.991815,16.523321,17.50012,17.402264,16.480844,15.592731,15.640972,16.969042,19.09688,20.977913,21.625553,20.715607,18.778767,16.858004,15.854736,15.995704,16.77512,17.406834,17.467888,17.270182,17.67104,19.421841,22.497295,25.901743,28.155285,28.200249,26.147795,23.337723,21.604073,22.16361,24.82523,28.050341,29.865358,29.073507,26.002047,22.305441,19.949871,20.034803,22.208168,25.030973,27.011099,27.5846,27.378113,27.601301,29.037315,31.387106,33.471043,34.166775,33.404297,32.453423,33.209839,36.902065,43.101868,49.779789,54.467243,55.813953,54.4986,52.817982,53.131771,56.121452,60.003506,61.272869,56.59325,44.713867,27.259306,7.932621,-9.3579798,-22.313946,-30.973572,-37.058636,-42.511421,-48.225418,-53.727806,-57.864223,-59.870781,-60.034359,-59.519768,-59.572319,-60.727299,-62.593258,-64.309372,-65.274391,-65.576675,-65.823891,-66.554367,-67.732994,-68.754257,-68.961639,-68.269798,-67.372284,-67.320473,-68.745148,-71.294685,-73.742577,-74.747581,-73.7668,-71.482727,-69.42421,-69.018982,-70.717415,-73.780739,-76.861778,-78.950485,-80.008095,-80.850624,-82.393974,-84.840836,-87.43325,-88.978531,-88.778328,-87.271179,-85.87825,-86.102814,-88.482231,-92.130219,-95.225906,-96.15876,-94.574623,-91.615196,-89.178314,-88.685944,-90.180107,-92.344643,-93.426796,-92.431534,-89.791382,-87.080963,-85.991745,-87.265251,-90.283745,-93.551468,-95.699059,-96.318016,-96.088013,-96.168282,-97.322083,-99.392715,-101.46733,-102.56805,-102.35289,-101.33025,-100.45734,-100.43221,-101.19373,-101.98189,-101.91009,-100.647,-98.73716,-97.336693,-97.521698,-99.584221,-102.71126,-105.1907,-104.99226,-100.41989,-90.58429,-75.610474,-56.629829,-35.624187,-15.12734,2.245981,14.40743,20.368664,20.528286,16.493162,10.477298,4.5589833,0.15940574,-2.0410893,-1.822293,0.91497147,6.2346401,13.919003,23.116732,32.257641,39.46492,43.344025,43.708099,41.752964,39.486271,38.675137,39.905296,42.313377,44.163536,43.930836,41.247948,37.164059,33.590919,32.29607,34.042072,38.330467,43.805111,48.980141,52.827477,54.943001,55.346836,54.211975,51.795944,48.611523,45.612747,44.102161,45.248703,49.417267,55.719673,62.137486,66.254044,66.262573,61.729515,53.716854,44.229286,35.325264,28.385674,23.884716,21.666393,21.423429,22.997364,26.302559,30.984488,36.13892,40.396564,42.432297,41.651764,38.644333,35.081852,33.041344,34.060726,38.404858,44.925846,51.59774,56.459686,58.498272,58.041553,56.493633,55.570065,56.43182,59.145939,62.719666,65.660408,66.75605,65.673706,63.083614,60.268406,58.445885,58.176357,59.16848,60.570213,61.557259,61.863689,61.936882,62.624748,64.58831,67.806915,71.494873,74.499901,75.95182,75.76442,74.673798,73.781982,73.887962,75.028503,76.52063,77.473259,77.425682,76.680298,76.09491,76.461266,77.885704,79.604492,80.39061,79.314087,76.366417,72.526764,69.199738,67.36689,66.993591,67.081039,66.341187,64.066612,60.63406,57.310295,55.475334,55.75227,57.593132,59.580563,60.254604,58.953262,56.161678,53.183399,51.363705,51.346817,52.791122,54.659801,55.857189,55.809048,54.670837,53.106384,51.831001,51.209209,51.11132,51.051933,50.484371,49.081863,46.888496,44.30603,41.942371,40.374519,39.897991,40.358051,41.162357,41.520203,40.835808,39.060745,36.781151,34.936096,34.290138,34.972675,36.400532,37.677677,38.239883,38.305168,38.773136,40.570831,43.84885,47.601204,50.061329,49.723793,46.379551,41.463364,37.396175,36.245495,38.505913,42.783138,46.624676,48.009754,46.566486,43.733475,41.747826,42.098232,44.434898,46.640095,46.018631,40.851849,31.339382,19.365183,7.2889085,-3.4263489,-12.875724,-22.293674,-32.903805,-44.840584,-56.851772,-66.939964,-73.484116,-76.106834,-75.77578,-74.161758,-72.741203,-72.224159,-72.585968,-73.530296,-74.941711,-76.97007,-79.731544,-82.936073,-85.812538,-87.463333,-87.428902,-86.051361,-84.341759,-83.39949,-83.755219,-85.076607,-86.436806,-86.964134,-86.434402,-85.409615,-84.837608,-85.389992,-86.985641,-88.814857,-89.84243,-89.456184,-87.843712,-85.868851,-84.543869,-84.439842,-85.39344,-86.662674,-87.400856,-87.140823,-86.007484,-84.568794,-83.458191,-83.017311,-83.16098,-83.507408,-83.655762,-83.426041,-82.92794,-82.447212,-82.246704,-82.414436,-82.842743,-83.332008,-83.738525,-84.067894,-84.457939,-85.06591,-85.932808,-86.909821,-87.69561,-87.970406,-87.558586,-86.535095,-85.219833,-84.060219,-83.456459,-83.607468,-84.441528,-85.654236,-86.831902,-87.609955,-87.809296,-87.504898,-87.001701,-86.71962,-87.021317,-88.04612,-89.625717,-91.334518,-92.667725,-93.268692,-93.087746,-92.382721,-91.561333,-90.96563,-90.736862,-90.838486,-91.186806,-91.734779,-92.36573,-92.598351,-91.296646,-86.674477,-76.779556,-60.360065,-37.720123,-11.0635,15.979109,39.522709,56.77626,66.907501,71.009285,71.245468,69.700241,67.576805,65.118042,62.136009,58.663414,55.21904,52.513592,50.864735,49.823078,48.364067,45.578026,41.395813,36.814781,33.406719,32.386574,33.849297,36.700264,39.352859,40.745968,41.003891,41.28717,42.921669,46.382042,50.814583,54.436527,55.57653,53.703781,49.802456,45.867638,43.843822,44.645039,47.799103,51.841331,55.136059,56.610916,56.036369,53.828079,50.637653,47.049381,43.526459,40.515491,38.507618,37.931271,38.929562,41.195755,44.009235,46.464333,47.745842,47.289452,44.77956,40.078819,33.230125,24.582186,14.939679,5.5603852,-2.1072247,-6.8734198,-8.2186918,-6.4393616,-2.4579868,2.5633118,7.5648661,11.719641,14.373897,14.971433,13.124475,8.8305941,2.6561131,-4.3298693,-10.927709,-16.298986,-20.254902,-23.121527,-25.255936,-26.567331,-26.440519,-24.20071,-19.854338,-14.57621,-10.50193,-9.8054619,-13.532502,-20.886702,-29.449829,-36.273605,-39.249962,-37.994373,-33.778755,-28.633526,-24.224804,-21.193981,-19.286592,-18.05242,-17.536818,-18.438089,-21.618412,-27.331079,-34.733967,-42.065834,-47.41069,-49.581867,-48.586079,-45.416809,-41.367626,-37.348309,-33.64053,-30.194016,-27.178347,-25.334032,-25.816679,-29.587324,-36.723892,-46.10022,-55.663208,-63.182304,-67.07856,-66.918953,-63.379185,-57.781399,-51.515835,-45.651829,-40.86771,-37.61158,-36.283134,-37.258678,-40.724293,-46.432507,-53.561981,-60.807922,-66.703072,-70.043304,-70.236389,-67.432114,-62.400219,-56.240654,-50.076469,-44.861763,-41.346256,-40.12941,-41.677727,-46.212841,-53.490696,-62.613953,-72.060822,-80.02597,-84.987473,-86.246605,-84.154305,-79.884865,-74.871803,-70.226349,-66.472084,-63.72287,-62.128723,-62.21661,-64.809143,-70.49543,-78.970413,-88.713852,-97.319023,-102.38652,-102.52023,-97.859375,-89.839882,-80.346298,-70.790039,-61.679039,-52.900604,-44.448421,-37.014748,-31.954723,-30.561832,-33.086792,-38.155159,-43.03503,-44.699375,-41.139061,-32.221298,-19.647709,-6.0759425,6.0889215,15.603539,22.600267,28.121655,33.32378,38.784714,44.209827,48.590599,50.696732,49.714561,45.842712,40.652103,37.010952,38.438213,47.946552,66.730118,93.278831,123.46273,151.7533,173.17732,185.14928,188.2977,185.86693,182.00694,179.84798,180.34135,182.37987,183.97043,183.66693,181.41115,178.38011,176.08681,175.40746,176.16524,177.45729,178.39783,178.71223,178.78957,179.2291,180.27757,181.59869,182.53343,182.62578,181.99185,181.23941,180.9955,181.4055,181.99702,182.03311,181.10893,179.54723,178.27283,178.21266,179.61554,181.76782,183.32957,183.10289,180.74872,176.99617,173.21475,170.62761,169.65805,169.79265,169.99707,169.37766,167.66341,165.2471,162.83371,160.98112,159.83356,159.16281,158.60422,157.87117,156.80888,155.31876,153.29697,150.69365,147.65326,144.57719,141.97562,140.14404,138.88145,137.5016,135.21683,131.69577,127.41665,123.51295,121.12437,120.62253,121.2262,121.32191,119.3657,114.83932,108.6506,102.68433,98.742104,97.515182,98.237206,99.243889,99.083771,97.455925,95.342911,94.213852,94.774551,96.054993,95.447205,89.746407,76.654533,55.939728,29.658148,1.3839873,-25.079376,-46.829243,-62.358234,-71.375481,-74.292267,-71.804153,-64.799316,-54.507992,-42.612354,-31.083715,-21.743643,-15.772988,-13.451852,-14.269603,-17.311548,-21.675489,-26.697632,-31.936039,-37.035824,-41.65369,-45.523518,-48.588783,-51.045357,-53.200943,-55.21912,-56.944523,-57.986664,-58.064877,-57.402893,-56.868782,-57.676693,-60.744888,-66.065971,-72.504593,-78.229454,-81.614975,-82.136627,-80.735046,-79.390266,-80.089272,-83.733795,-89.600746,-95.683205,-99.756668,-100.60259,-98.714905,-96.080872,-95.124359,-97.357574,-102.45702,-108.26828,-111.76381,-110.48294,-103.73419,-92.963783,-81.121857,-71.363052,-65.737717,-64.50441,-66.347183,-69.304085,-71.86145,-73.623573,-75.239761,-77.701233,-81.46534,-85.937111,-89.608864,-90.768654,-88.366615,-82.556526,-74.636421,-66.462852,-59.694061,-55.267429,-53.325294,-53.5084,-55.332294,-58.371422,-62.172382,-66.05146,-69.031441,-70.069908,-68.502121,-64.434593,-58.822117,-53.149109,-48.888611,-47.048515,-48.037865,-51.849728,-58.334385,-67.292488,-78.289207,-90.351471,-101.85995,-110.85755,-115.71125,-115.78302,-111.70018,-105.03544,-97.577553,-90.639297,-84.814774,-80.274048,-77.292747,-76.539391,-78.825447,-84.444565,-92.588776,-101.35039,-108.45375,-112.3442,-112.95853,-111.65075,-110.28015,-110.03541,-110.77168,-111.31165,-110.50557,-108.30222,-106.04021,-105.68367,-108.46455,-113.852,-119.60957,-123.00227,-122.43109,-118.4367,-113.37702,-109.9303,-109.35736,-110.65083,-111.15925,-108.33707,-101.53853,-92.719635,-85.575684,-83.598686,-88.18866,-97.89846,-109.19323,-118.21857,-122.54409,-121.96951,-118.11757,-113.25411,-109.13044,-106.47057,-105.20953,-105.10405,-106.18598,-108.75473,-112.99502,-118.57223,-124.53458,-129.59941,-132.62814,-132.99635,-130.68367,-126.12527,-120.00805,-113.16657,-106.58406,-101.37126,-98.594398,-98.953125,-102.46302,-108.34688,-115.23763,-121.61291,-126.24684,-128.47156,-128.1776,-125.64413,-121.36259,-115.96124,-110.2112,-105.00584,-101.2234,-99.490242,-99.967079,-102.29583,-105.7524,-109.51877,-112.91547,-115.47687,-116.87473,-116.80688,-114.98461,-111.26437,-105.84573,-99.390961,-92.961006,-87.773857,-84.892395,-84.969383,-88.116066,-93.880211,-101.28824,-108.94403,-115.23066,-118.65887,-118.31467,-114.23518,-107.49105,-99.852798,-93.137718,-88.544296,-86.326767,-85.982231,-86.807716,-88.435402,-90.951851,-94.480721,-98.498116,-101.39662,-100.72836,-94.15963,-80.690346,-61.441387,-39.477795,-18.650234,-2.0055077,9.4061222,16.697437,22.224754,28.133255,35.206066,42.651665,48.890808,52.808346,54.671379,56.136009,59.330536,65.570152,74.487854,84.125191,91.961296,96.304558,97.252106,96.662651,97.147919,100.64296,107.35297,115.66097,123.04212,127.46954,128.52751,127.61626,127.14265,129.15553,134.19064,140.96924,147.11661,150.49844,150.43073,148.09174,145.90854,146.2569,150.1871,156.86551,164.02129,169.1404,170.75453,169.14597,166.12529,164.04416,164.59592,168.03348,173.17622,178.14323,181.38148,182.43797,182.09575,181.84497,183.00223,185.95499,189.92685,193.38387,194.87209,193.85088,191.07486,188.29291,187.38043,189.33215,193.65166,198.49962,201.57326,201.28006,197.57489,191.98398,186.78381,183.79214,183.46748,184.83835,186.27939,186.6248,185.8961,185.17616,185.7294,187.98274,191.08763,193.39592,193.54721,191.42059,188.26749,185.89601,185.44916,186.63457,187.97679,187.94398,186.14549,183.68092,182.2738,182.69249,183.55304,181.46565,172.66267,155.2487,130.70998,103.67906,79.975708,63.990204,56.867737,56.444256,58.813213,60.468231,59.752781,56.942593,53.235077,49.565697,46.106297,42.643055,39.309517,36.906258,36.431831,38.152061,40.984989,42.810738,41.636349,36.861458,29.732685,22.594938,17.394974,14.454135,12.377481,9.1853304,3.8846848,-2.6352954,-8.0444946,-10.076602,-8.0697393,-3.4786737,0.99253774,3.0304618,1.994738,-1.0033995,-4.191422,-6.5168538,-8.2492571,-10.330805,-12.963068,-14.540434,-11.865731,-1.7146937,17.143215,42.738689,70.311295,94.135651,109.72152,115.20386,111.35289,100.53247,85.484352,68.67849,52.33086,38.592667,29.33428,25.427513,26.053564,28.77882,30.701168,30.15064,27.849319,26.59923,29.463633,37.468922,48.33046,57.191818,59.126163,51.969021,37.733269,21.660526,9.4097347,4.0521679,4.6721511,7.368917,7.9580026,4.6361933,-1.046683,-5.4472933,-5.4349785,-0.64241964,6.0613184,10.138418,7.9824395,-1.0455683,-14.318166,-27.445017,-36.576439,-40.12854,-39.035358,-35.604858,-31.873423,-28.535175,-25.022867,-20.51683,-15.082823,-10.123013,-7.8239408,-9.9482222,-16.725813,-26.528431,-36.535797,-44.026588,-47.585625,-47.585995,-45.721569,-43.887932,-43.05801,-42.792122,-41.669815,-38.414444,-33.070473,-27.512732,-24.883028,-28.122656,-38.307426,-53.689884,-70.064445,-82.406586,-87.037285,-83.224808,-73.380608,-61.737812,-52.226788,-46.710426,-44.533028,-43.570766,-42.084393,-40.19244,-40.006672,-44.284016,-54.376549,-68.74437,-83.03109,-91.823631,-91.232292,-80.909004,-64.381981,-47.483444,-35.677738,-31.680132,-34.572033,-40.783169,-46.301468,-48.847725,-48.841911,-48.715027,-51.058598,-56.730366,-64.017555,-69.334778,-69.06781,-61.550907,-48.112373,-32.645618,-19.952129,-13.721664,-15.144176,-22.752052,-33.422108,-43.902905,-52.06316,-57.32613,-60.261787,-61.746487,-62.240955,-61.555504,-59.126869,-54.549686,-48.029884,-40.545753,-33.688988,-29.282703,-28.894279,-33.334229,-42.239162,-53.893856,-65.479073,-73.836517,-76.596802,-73.235138,-65.504456,-56.892544,-51.220932,-51.003407,-56.396255,-65.318481,-74.698051,-82.157303,-87.183022,-91.120079,-96.026207,-103.1087,-111.71117,-119.47342,-123.56553,-122.25063,-115.85669,-106.62862,-97.619354,-91.323067,-88.823418,-89.822525,-93.33065,-98.428329,-104.57903,-111.38367,-118.10905,-123.47895,-125.99427,-124.62964,-119.44829,-111.70567,-103.34564,-96.191536,-91.316376,-88.925087,-88.716858,-90.38092,-93.831131,-99.020554,-105.51627,-112.20942,-117.45284,-119.62489,-117.82218,-112.2877,-104.3371,-95.839058,-88.538559,-83.552658,-81.220024,-81.272339,-83.153587,-86.301338,-90.284065,-94.779846,-99.435852,-103.67561,-106.55302,-106.78588,-103.08102,-94.736565,-82.294868,-67.852867,-54.675034,-46.064556,-43.906811,-47.626556,-54.233059,-59.61335,-60.52166,-56.229694,-48.891979,-42.355141,-40.032986,-43.039242,-49.642738,-56.336063,-59.852806,-58.922939,-54.759571,-50.084278,-47.393509,-47.576008,-49.673752,-51.783676,-52.374325,-51.114716,-48.758545,-46.339851,-44.391895,-42.788086,-41.239548,-39.921246,-39.582573,-40.929962,-43.722237,-46.374043,-46.597481,-42.862144,-35.743069,-28.106258,-23.722471,-24.937092,-30.771963,-36.74892,-36.783493,-26.251925,-4.5635891,24.220747,53.103268,75.270508,86.953384,88.594376,83.915695,77.64151,73.237427,71.800301,72.405319,73.364571,73.476463,72.581223,71.319344,70.487152,70.50621,71.288124,72.431473,73.500084,74.187363,74.353523,74.040535,73.529236,73.3731,74.276817,76.774696,80.844872,85.710938,90.011482,92.289673,91.536301,87.484604,80.536797,71.46167,61.133259,50.478481,40.557434,32.531368,27.347244,25.247778,25.473656,26.510227,26.890419,26.114429,25.038429,25.338987,28.270044,33.491299,38.831474,41.322948,39.002583,32.377697,24.548906,19.764051,21.171436,29.091299,40.845295,52.232277,59.729404,62.091042,60.473072,57.204151,54.177673,51.978329,50.221207,48.64629,47.957188,49.616295,54.643822,62.30228,69.758125,73.212662,69.976189,60.227512,47.28339,36.08165,30.694698,32.309341,38.828388,46.255959,50.966557,51.497494,48.902229,45.653175,43.949112,44.527504,46.612095,48.817902,50.248466,51.013439,51.904167,53.588799,55.986275,58.279026,59.515041,59.319561,58.184086,57.135536,57.044746,58.078144,59.667942,60.988327,61.568401,61.598309,61.729958,62.546482,64.104073,65.879471,67.150063,67.518974,67.198158,66.843163,67.058289,67.929115,68.924149,69.252472,68.445511,66.766914,65.154999,64.702553,65.982422,68.639,71.513626,73.250977,73.040703,71.062111,68.369522,66.280228,65.61525,66.228226,67.093605,66.906776,64.858849,61.150143,56.953819,53.8489,53.035637,54.759983,58.246376,62.146011,65.223137,66.888222,67.305489,67.072884,66.726212,66.400177,65.845947,64.752075,63.112724,61.367043,60.203068,60.158455,61.291771,63.145756,65.017212,66.336166,66.890587,66.759583,66.042862,64.630821,62.227219,58.634586,54.088734,49.356239,45.45512,43.131844,42.431232,42.670742,42.875042,42.407776,41.38073,40.549801,40.748779,42.236126,44.407486,46.091347,46.25005,44.623817,41.884048,39.191853,37.463711,36.845016,36.740135,36.348846,35.295208,33.86982,32.694157,32.055511,31.434399,29.641769,25.556494,18.997133,11.107645,3.9166663,-0.72478688,-2.1804004,-1.3682884,-0.16234626,-0.22497402,-2.0230632,-4.6655145,-6.6580377,-7.0576353,-6.2393594,-5.746717,-7.3142853,-11.711444,-18.181396,-24.855009,-29.870747,-32.466434,-33.336567,-34.046017,-35.917538,-39.145901,-42.717224,-45.157734,-45.581608,-44.324947,-42.751499,-42.380848,-43.933559,-46.919308,-50.009178,-51.907963,-52.132908,-51.206154,-50.188377,-49.920475,-50.503651,-51.344963,-51.687386,-51.220455,-50.341549,-49.904736,-50.651619,-52.719112,-55.540764,-58.178509,-59.845467,-60.289562,-59.83884,-59.145439,-58.834763,-59.269787,-60.509373,-62.395157,-64.651489,-66.941521,-68.911697,-70.284866,-71.000595,-71.312752,-71.732307,-72.789787,-74.732025,-77.34964,-80.074005,-82.308372,-83.788177,-84.729317,-85.660378,-87.054626,-89.021889,-91.278214,-93.407555,-95.210884,-96.869301,-98.786224,-101.22197,-104.00669,-106.578,-108.35477,-109.1969,-109.60747,-110.49317,-112.6065,-116.03405,-120.08837,-123.69865,-126.05479,-127.07894,-127.41129,-127.9281,-129.13213,-130.84004,-132.3788,-133.14186,-133.09996,-132.8931,-133.42572,-135.24055,-138.10701,-141.11794,-143.24147,-143.9657,-143.61314,-143.12735,-143.48384,-145.11433,-147.70261,-150.44968,-152.60078,-153.88356,-154.60207,-155.37932,-156.75731,-158.91327,-161.62549,-164.43948,-166.8819,-168.60117,-169.42256,-169.37979,-168.75993,-168.1091,-168.09454,-169.18338,-171.25525,-173.39503,-174.0867,-171.82085,-165.85364,-156.69662,-146.01144,-135.90071,-127.94454,-122.50307,-118.67053,-114.89715,-109.9136,-103.42944,-96.225586,-89.623123,-84.662384,-81.465439,-79.118851,-76.106194,-71.030746,-63.250443,-53.136497,-41.878357,-30.966114,-21.591887,-14.206865,-8.3862095,-3.0386274,3.1181157,10.991773,20.689707,31.43519,41.900532,50.83485,57.690845,62.916828,67.730118,73.467911,80.866188,89.682655,98.894012,107.35696,114.53196,120.81779,127.27989,134.93538,144.04544,153.86946,163.04858,170.38612,175.53877,179.188,182.59229,186.81285,192.1057,197.85297,203.05141,207.01807,209.84489,212.31345,215.34207,219.3421,223.90952,228.04958,230.7807,231.72285,231.29695,230.4225,229.92563,230.04475,230.3436,230.06778,228.69852,226.34256,223.71675,221.74951,221.05734,221.61525,222.80289,223.77121,223.89285,223.03719,221.54514,219.96735,218.75195,218.05884,217.76508,217.59985,217.28987,216.63332,215.50296,213.83813,211.67467,209.20055,206.77023,204.81683,203.67136,203.38252,203.65996,204.00432,203.97049,203.41216,202.54965,201.80415,201.48959,201.55434,201.54562,200.83537,198.97935,195.98843,192.33707,188.69444,185.53848,182.89023,180.33231,177.29572,173.4272,168.79755,163.81546,158.90767,154.18597,149.34074,143.85785,137.44136,130.37335,123.55762,118.17368,115.10381,114.44397,115.37328,116.45701,116.21552,113.65416,108.49798,101.07184,91.980263,81.833908,71.187103,60.65749,51.037357,43.196182,37.731716,34.54649,32.649754,30.405836,26.197495,19.196777,9.8200006,-0.41954455,-9.6214085,-16.405745,-20.53134,-22.897636,-24.958128,-27.905788,-32.102535,-37.052128,-41.872864,-45.931572,-49.231972,-52.339981,-55.9394,-60.339676,-65.261414,-70.01915,-73.95372,-76.8181,-78.878784,-80.70208,-82.799797,-85.372887,-88.288673,-91.24836,-93.984001,-96.34523,-98.26133,-99.680115,-100.59311,-101.15241,-101.7612,-102.99415,-105.31661,-108.7478,-112.71207,-116.24597,-118.50315,-119.2752,-119.18983,-119.42198,-121.05902,-124.49577,-129.23259,-134.19955,-138.39342,-141.41745,-143.59044,-145.58865,-147.89755,-150.46532,-152.79218,-154.37489,-155.17604,-155.77432,-157.07863,-159.78836,-163.94911,-168.87973,-173.49829,-176.83182,-178.4153,-178.39998,-177.39018,-176.16217,-175.41389,-175.59718,-176.80786,-178.72574,-180.66846,-181.8427,-181.76978,-180.68054,-179.57492,-179.76437,-182.04617,-185.99286,-189.90672,-191.65735,-190.03627,-185.80142,-181.60831,-180.61864,-184.43088,-191.54988,-197.47481,-196.62677,-185.23068,-163.58849,-136.39986,-110.82498,-93.255379,-86.498436,-88.842209,-95.390221,-100.79472,-101.81886,-98.40448,-92.903328,-88.201981,-85.987282,-86.107811,-87.164604,-87.691109,-87.042236,-85.487358,-83.653656,-81.908539,-80.212746,-78.513618,-77.264397,-77.525032,-80.422157,-86.271408,-93.99572,-101.34509,-105.90756,-106.34979,-103.12685,-98.204346,-93.948952,-91.861557,-91.91082,-92.825577,-93.092682,-91.984047,-89.965958,-88.283478,-88.05603,-89.510033,-91.839264,-93.740059,-94.226601,-93.179993,-91.301743,-89.558258,-88.529991,-88.107224,-87.707794,-86.827713,-85.522034,-84.479843,-84.640839,-86.60038,-90.172157,-94.361504,-97.746422,-99.043274,-97.576057,-93.477264,-87.616577,-81.362236,-76.276695,-73.784691,-74.816727,-79.475685,-86.857292,-95.181503,-102.29153,-106.37888,-106.62054,-103.40279,-98.001083,-91.88636,-86.051033,-80.736656,-75.691071,-70.740631,-66.2547,-63.150822,-62.399403,-64.335602,-68.237991,-72.480553,-75.20208,-75.104073,-71.90892,-66.238228,-59.053444,-51.077972,-42.602909,-33.780117,-25.134682,-17.846069,-13.488798,-13.300936,-17.406731,-24.50729,-32.295979,-38.411945,-41.403584,-41.161076,-38.606411,-34.888912,-30.62768,-25.682211,-19.563442,-12.1653,-4.283515,2.4710836,6.3609319,6.4163127,3.0046945,-2.2572105,-7.1847844,-9.8995514,-9.4243374,-5.7470069,0.55134922,8.7636223,18.286419,28.510946,38.55402,47.140877,52.848381,54.655079,52.505295,47.541328,41.827694,37.674759,36.887329,40.285442,47.668446,58.14019,70.542229,83.747742,96.724693,108.464,117.95794,124.35366,127.24878,126.95598,124.54197,121.55948,119.56638,119.65206,122.18817,126.89468,133.14023,140.28314,147.86444,155.57643,163.07375,169.78589,174.88303,177.4547,176.84218,172.98082,166.59697,159.15932,152.5762,148.72162,148.93344,153.64307,162.25883,173.34433,185.02788,195.49072,203.35335,207.83556,208.68739,206.01187,200.14975,191.73167,181.85301,172.1866,164.82234,161.75304,164.15321,171.78333,182.86494,194.57123,203.96306,208.95245,208.8519,204.29529,196.66338,187.40125,177.62112,168.14172,159.79285,153.63075,150.79218,152.00644,157.0762,164.71646,172.93468,179.77863,184.01732,185.3522,184.0719,180.45499,174.41151,165.68544,154.51537,142.25981,131.42561,124.8782,124.55753,130.41354,140.22714,150.49478,157.92378,160.71779,158.97314,154.07066,147.56465,140.33606,132.522,124.14544,115.86111,109.16137,105.79659,106.76303,111.56603,118.31164,124.61761,128.75832,130.28647,129.74455,127.73734,124.11468,117.95013,108.41904,95.976501,82.922661,72.776169,68.66333,71.64283,80.020233,90.134056,98.177185,101.95921,101.56871,98.629318,94.769501,90.414406,84.730621,76.706764,66.527267,56.170364,48.696228,46.617645,50.41526,58.198429,66.753731,73.286667,76.698288,77.574631,76.974739,74.955536,69.972237,59.693314,42.770721,20.391844,-3.4972725,-23.595856,-35.551163,-37.861347,-32.33017,-22.91341,-13.734972,-7.4447422,-4.7337079,-5.0057287,-7.4974637,-11.985223,-18.658159,-27.408953,-37.209686,-46.135887,-52.093746,-53.785316,-51.283611,-45.874805,-39.327675,-33.103928,-27.993862,-24.303175,-22.310503,-22.553633,-25.679956,-31.95772,-40.815815,-50.771523,-59.844143,-66.238045,-68.930756,-67.899323,-63.960541,-58.403217,-52.627468,-47.897026,-45.179115,-45.008934,-47.382648,-51.762726,-57.267735,-63.000431,-68.336342,-72.978943,-76.732971,-79.166542,-79.458229,-76.637642,-70.162552,-60.506889,-49.361118,-39.241718,-32.65287,-31.214056,-35.180874,-43.539742,-54.523991,-66.204994,-76.87001,-85.134758,-89.954712,-90.729996,-87.53669,-81.313156,-73.768631,-66.933189,-62.523403,-61.456551,-63.768593,-68.922401,-76.22963,-85.058052,-94.702538,-104.1078,-111.79536,-116.21991,-116.43638,-112.65948,-106.28905,-99.302612,-93.36377,-89.229179,-86.855385,-86.103203,-87.461884,-92.130539,-101.21211,-114.44322,-129.34174,-141.54193,-146.41476,-141.23471,-126.70286,-106.89258,-87.535645,-73.50499,-66.80545,-66.075874,-67.735588,-68.010918,-64.685524,-57.723686,-48.669926,-39.43137,-31.279472,-24.589516,-19.249802,-15.24035,-12.870319,-12.524797,-14.201169,-17.287996,-20.840776,-24.202227,-27.512072,-31.681837,-37.76226,-46.061535,-55.58305,-64.190742,-69.47773,-69.885368,-65.464294,-57.875675,-49.661983,-43.205273,-39.915665,-40.0056,-42.845928,-47.592541,-53.682915,-60.95013,-69.368286,-78.65934,-88.043701,-96.301918,-102.1228,-104.56162,-103.39294,-99.21669,-93.302933,-87.265289,-82.692017,-80.835846,-82.407028,-87.469826,-95.432594,-105.13585,-115.05228,-123.59158,-129.45285,-131.918,-130.97346,-127.20794,-121.53931,-114.91636,-108.15308,-101.96524,-97.130341,-94.581375,-95.256805,-99.681412,-107.46356,-117.02761,-125.84607,-131.19461,-131.14833,-125.35414,