Bandpass,0,0.22514,-154.20737,1044.637,1545.8932,1259.5831,461.02179,-318.91724,-624.466,-365.85693,149.53806,464.84384,312.64038,-202.61111,-702.86609,-830.25232,-512.52765,-7.1506052,298.8931,176.81493,-282.78784,-747.95435,-895.8927,-646.25391,-208.01981,86.001495,27.161369,-322.90509,-689.99542,-797.73358,-570.34113,-180.05963,88.684647,51.305855,-246.78148,-573.33978,-686.8233,-512.85541,-190.89288,37.357548,9.4069996,-242.29709,-522.20313,-621.49292,-471.27908,-186.76385,25.666307,24.907215,-162.15112,-365.3457,-401.22556,-209.97018,100.86127,334.8056,346.80807,142.66182,-131.6624,-298.20227,-271.06223,-107.58839,45.170322,63.777031,-63.68248,-236.88097,-324.77002,-264.95044,-107.10401,28.458899,42.455189,-71.249031,-225.10432,-306.05713,-259.3436,-125.79308,-7.4249959,10.201201,-79.993462,-205.02267,-269.215,-225.90244,-110.156,-10.095713,-0.26472366,-87.40815,-207.88757,-276.60123,-249.62474,-154.29305,-66.109383,-51.531788,-119.80713,-218.63686,-275.03622,-249.71461,-164.73621,-85.347679,-71.04232,-132.71425,-226.7939,-289.05948,-281.86099,-219.88329,-156.70618,-143.71407,-192.51694,-268.11508,-316.45261,-304.78406,-244.86372,-182.76161,-164.1167,-201.16281,-265.46127,-310.53876,-306.6637,-261.88571,-214.53557,-203.78467,-240.60033,-300.29727,-341.39441,-336.22192,-290.74875,-239.692,-221.22166,-249.92989,-307.11191,-354.26385,-359.17035,-315.99164,-246.43596,-183.36469,-150.13712,-150.25639,-172.46669,-204.30606,-241.62067,-286.42966,-336.29895,-376.13242,-381.72983,-334.7605,-238.63666,-122.36047,-27.161522,16.750658,7.9833298,-26.288967,-49.217339,-39.46151,-5.6186209,20.085918,4.7756238,-60.869621,-153.50374,-229.31458,-249.62976,-203.44196,-112.85812,-18.924129,42.265217,57.986061,41.44854,19.057257,12.332966,26.401705,51.011955,71.074539,78.049477,74.465355,69.858589,72.610985,84.207336,99.497589,111.49088,116.07385,112.95539,102.89451,84.571297,54.625278,11.403854,-40.617706,-89.945877,-122.57325,-129.60283,-112.95638,-84.962387,-61.610653,-53.603195,-60.910599,-74.200417,-81.882912,-77.85202,-64.795586,-51.233074,-44.809906,-46.770588,-51.394016,-50.480717,-39.441631,-20.609056,-1.5738999,10.055803,11.670832,7.029829,3.290118,6.0290742,15.772428,28.217411,37.628468,40.809574,39.010281,36.915451,39.99313,52.323517,76.113373,112.35256,161.04604,220.06012,283.34894,340.64365,380.2485,394.40622,384.27386,360.87094,340.34753,335.57651,348.96411,371.26801,387.75293,388.20694,374.38257,359.57367,359.91644,382.62567,418.96375,447.26474,445.0481,403.09506,332.47958,259.50497,211.06126,199.27699,215.22018,235.91515,240.40396,224.48233,204.22975,205.48759,245.65173,319.53836,398.96326,447.15512,439.58099,378.38028,291.36902,216.19135,179.50923,184.10973,211.50267,237.46214,249.64877,255.39984,274.62912,322.95624,396.89066,471.64337,513.74878,500.72534,435.1217,343.74875,262.42795,215.91069,205.61987,212.6216,213.25966,196.76111,173.1058,166.08223,196.25542,265.12244,350.87137,418.63614,438.97089,403.32486,327.52997,241.94934,174.92795,139.556,130.81099,133.23634,133.08302,127.02256,122.73267,132.25467,163.24832,213.71437,272.73969,325.80072,360.83112,371.7453,358.49677,325.04199,277.26495,221.94127,166.35091,117.50801,80.572159,57.155613,44.811905,38.418972,32.867054,25.481125,16.744898,9.0668745,4.6434135,3.9493308,5.7246366,8.1138096,9.82794,10.415368,9.6736593,7.0525036,1.8607589,-5.769021,-14.11615,-20.354992,-22.382711,-20.789932,-19.228308,-22.276299,-31.716146,-43.635532,-48.726185,-36.347324,-0.41625571,56.320965,122.45456,182.79405,225.38316,246.70135,252.18117,251.99557,254.85371,263.53436,274.54803,281.61548,280.36957,271.22629,258.85739,249.00563,244.9622,245.95416,248.19856,247.60202,242.19518,232.84541,222.10777,212.27562,204.01971,196.3813,187.87315,177.76567,166.67593,156.1783,147.82582,142.27061,138.98927,136.67409,133.96693,130.09291,125.08311,119.52376,114.00039,108.54904,102.45449,94.612183,84.385162,72.524994,61.497437,54.695698,54.599072,60.693935,68.429649,70.211571,58.418015,29.17387,-15.094974,-65.911026,-111.97666,-143.91008,-158.09486,-157.68565,-150.36928,-144.24408,-144.09933,-149.94728,-158.22285,-164.55698,-166.35025,-163.81802,-159.30296,-155.65454,-154.76456,-156.91252,-160.89392,-164.51938,-165.17097,-160.42455,-148.87161,-131.02223,-109.77369,-89.842339,-76.031471,-71.022202,-73.930519,-80.650864,-86.003342,-86.526764,-82.235535,-76.23278,-72.433502,-72.904671,-76.593765,-80.274651,-81.01252,-78.397842,-74.966148,-74.501419,-79.414787,-89.03846,-100.01706,-108.48743,-112.48633,-112.9093,-112.43611,-113.32781,-115.7919,-118.12244,-118.42248,-116.46182,-114.08145,-113.67138,-115.81603,-118.0267,-115.86745,-106.07126,-89.62516,-72.488396,-62.949677,-66.826111,-83.302246,-104.08163,-116.66835,-110.15434,-80.40432,-31.930073,24.273891,75.392097,111.26939,126.61958,120.6245,95.219582,53.802074,1.1877538,-55.793118,-108.46783,-148.194,-169.45422,-172.4313,-163.214,-151.04895,-143.9054,-144.80841,-151.05692,-156.72482,-156.82808,-150.53835,-141.49554,-135.17767,-135.17944,-140.89342,-148.07916,-151.8414,-149.93753,-144.16286,-138.91377,-137.97581,-141.79765,-147.16367,-149.5051,-146.23534,-138.74428,-131.58324,-129.32727,-133.27757,-140.37273,-145.20724,-143.87093,-136.9315,-129.32217,-126.97315,-132.38043,-142.28226,-149.39935,-147.45068,-136.17386,-122.63705,-117.25681,-126.44878,-146.48318,-163.00684,-157.59824,-118.35732,-48.594421,31.843227,94.20549,113.93913,82.440109,11.165546,-74.067848,-145.41702,-185.3326,-192.58585,-179.57199,-163.38383,-156.25233,-160.5771,-170.45981,-177.64449,-177.52284,-171.52756,-165.05638,-163.03076,-166.41277,-171.91499,-174.71916,-172.0101,-164.817,-157.06306,-152.73241,-153.25385,-156.84756,-160.07352,-160.29794,-157.30307,-153.04137,-149.92538,-149.0228,-149.44983,-149.27507,-147.13217,-143.29585,-139.46269,-137.47389,-137.97021,-139.95488,-141.52531,-141.17912,-138.73117,-135.22809,-132.01582,-129.71974,-127.91135,-125.68024,-122.64244,-119.59634,-118.30182,-120.48863,-126.73909,-135.96794,-145.81836,-153.71236,-157.93449,-158.18959,-155.45735,-151.36984,-147.50908,-144.91939,-143.90863,-144.07141,-144.47438,-144.00832,-141.89328,-138.18349,-133.97691,-131.06828,-131.06212,-134.34613,-139.53925,-143.86501,-144.39388,-139.54382,-129.99754,-118.47518,-108.44907,-102.50465,-101.24747,-103.30651,-106.32196,-108.25489,-108.25449,-106.68993,-104.51565,-102.51045,-100.89284,-99.453339,-97.951828,-96.388855,-94.941879,-93.682388,-92.388382,-90.682854,-88.438713,-86.13131,-84.804405,-85.570778,-88.912109,-94.222343,-99.918091,-104.09507,-105.37463,-103.47739,-99.241432,-94.133163,-89.563744,-86.369812,-84.657166,-83.976845,-83.657074,-83.110512,-82.022827,-80.410339,-78.561111,-76.87075,-75.607765,-74.706879,-73.734955,-72.121857,-69.582428,-66.469109,-63.743252,-62.431686,-62.77919,-63.602623,-62.36544,-56.146038,-43.133762,-23.8815,-1.5585269,19.072769,33.540359,39.489456,37.537388,30.754271,23.098768,17.661062,15.593609,16.156378,17.664434,18.679323,18.763113,18.472885,18.756443,20.221329,22.737741,25.560862,27.823431,29.056566,29.430696,29.608789,30.332405,31.99139,34.413376,36.980537,39.013844,40.233093,41.055534,42.555176,46.053444,52.495148,61.898605,73.173927,84.450867,93.804398,100.04295,103.16595,104.25543,104.86631,106.24986,108.82481,112.1506,115.35667,117.72874,119.09799,119.84236,120.56914,121.73022,123.41754,125.42305,127.45731,129.33717,131.02019,132.5081,133.74332,134.60548,135.00931,135.00606,134.7877,134.58324,134.53929,134.69667,135.08615,135.84677,137.22511,139.40355,142.2662,145.31177,147.85619,149.45541,150.26978,151.05888,152.70679,155.511,158.69598,160.5439,159.17719,153.59392,144.34302,133.39743,123.25562,115.77859,111.43504,109.36617,108.16123,106.79892,105.14557,103.74326,103.12598,103.21852,103.28526,102.47388,100.54724,98.238968,96.920433,97.753838,100.88414,105.22405,109.00368,110.75089,110.08521,107.83861,105.46487,104.15611,104.24202,105.21285,106.26014,106.88976,107.16122,107.42748,107.84501,108.09991,107.62298,106.17169,104.33448,103.50857,105.24142,110.28127,117.93761,126.21391,132.71416,135.834,135.54768,133.33003,131.26886,130.90291,132.46692,134.9537,136.89467,137.33562,136.40077,135.12714,134.71675,135.7029,137.55124,138.92723,138.45052,135.48026,130.48546,124.81966,120.06384,117.31817,116.80551,117.93621,119.7221,121.26981,122.09955,122.1839,121.77399,121.17342,120.5985,120.16474,119.94192,119.98558,120.29329,120.71193,120.88111,120.29678,118.51686,115.44131,111.53201,107.83314,105.72157,106.4362,110.5544,117.64378,126.27728,134.45967,140.3248,142.8167,142.04521,139.14201,135.68059,132.94867,131.44226,130.83055,130.3755,129.52757,128.31941,127.31327,127.14856,128.00574,129.36862,130.27739,129.93033,128.23578,125.92022,124.07928,123.44299,123.85021,124.32039,123.71821,121.58311,118.53725,115.93276,114.91537,115.5273,116.52268,116.14259,113.44058,109.29546,106.33612,107.63479,114.83398,126.83443,139.94705,149.58421,152.61842,149.06226,142.0507,136.0701,134.40771,137.26678,141.60977,142.79102,137.02382,123.30225,103.79017,82.61982,63.920338,50.20673,41.876358,37.799698,36.373035,36.293819,36.713123,36.967892,36.382206,34.466621,31.399826,28.323404,27.017626,28.953766,34.230373,41.106815,46.558857,47.657578,43.023563,33.510792,21.714588,10.601629,2.0759716,-3.7046385,-7.9502664,-12.152316,-17.040995,-22.229412,-26.676754,-29.554075,-30.8738,-31.4699,-32.402298,-34.254128,-36.827938,-39.425175,-41.461781,-42.94381,-44.453926,-46.675575,-49.825672,-53.430737,-56.625427,-58.766487,-59.920311,-60.86504,-62.588326,-65.61647,-69.631287,-73.635796,-76.558922,-77.900406,-78.003326,-77.802269,-78.241638,-79.754761,-82.118286,-84.720322,-87.007423,-88.789948,-90.2286,-91.574509,-92.903473,-94.060043,-94.843567,-95.275726,-95.731255,-96.824196,-99.126205,-102.90755,-108.05485,-114.17413,-120.75721,-127.27765,-133.1902,-137.93028,-141.03027,-142.35545,-142.30525,-141.77048,-141.76436,-142.88744,-144.96597,-147.15538,-148.51617,-148.72354,-148.41614,-148.87482,-151.16211,-155.26535,-159.86496,-162.99467,-163.26672,-160.89105,-157.75064,-156.33759,-158.09369,-162.16119,-165.40228,-163.8362,-154.78181,-138.51505,-118.46773,-99.79847,-87.081947,-82.345764,-84.456184,-90.069077,-95.503708,-98.4645,-98.745415,-97.723129,-97.137871,-97.970634,-100.02135,-102.27219,-103.64497,-103.61321,-102.34091,-100.39182,-98.315079,-96.413719,-94.792236,-93.54615,-92.872871,-92.988075,-93.91861,-95.356522,-96.716766,-97.388451,-97.030418,-95.739685,-94.019348,-92.602051,-92.244728,-93.567482,-96.925087,-102.26532,-108.98757,-115.91247,-121.50148,-124.35661,-123.82803,-120.40481,-115.60175,-111.30776,-108.89276,-108.56167,-109.34354,-109.74156,-108.66266,-106.06011,-102.8944,-100.45036,-99.464249,-99.635536,-99.837784,-98.871765,-96.238792,-92.404045,-88.378334,-84.926208,-81.976044,-78.671196,-74.048897,-67.877563,-61.046429,-55.190628,-51.75988,-51.137207,-52.403393,-53.919395,-54.347504,-53.432846,-52.030998,-51.386105,-52.178745,-54.015324,-55.712212,-56.161545,-55.150112,-53.535065,-52.63995,-53.297512,-55.228199,-57.212318,-57.947205,-56.98201,-55.053268,-53.56496,-53.572998,-55.005241,-56.696354,-57.237545,-56.040268,-53.827023,-52.142014,-52.168884,-53.666733,-54.807545,-53.115425,-46.959049,-36.648232,-24.416925,-13.28923,-5.5409226,-1.7045442,-0.67264408,-0.71372515,-0.64228362,-0.35941339,-0.49257362,-1.5265533,-3.154655,-4.3635406,-4.1748924,-2.4501452,-0.10362587,1.4902039,1.4966043,0.2955634,-0.70037574,-0.022270421,2.7179761,6.3008909,8.3647718,6.6003685,-0.04335811,-10.830468,-23.611845,-35.77713,-45.197456,-50.730755,-52.259632,-50.532349,-47.060505,-44.056229,-44.150749,-49.683723,-61.699566,-79.165565,-98.996361,-117.09189,-129.97722,-136.19524,-136.68533,-133.96997,-130.69151,-128.40233,-127.2687,-126.67996,-126.14381,-125.73473,-125.81116,-126.36816,-126.72528,-125.97856,-123.95757,-121.86137,-121.79922,-125.19276,-130.93846,-134.68323,-130.10507,-111.89713,-78.961075,-35.935513,8.045805,42.946152,61.984562,64.218575,54.291866,39.67384,27.04413,19.766071,17.547213,18.005121,18.828144,19.131462,19.393414,20.400103,22.210758,23.953114,24.508318,23.444805,21.412481,19.67696,19.166933,19.792234,20.583448,20.573048,19.759737,19.404411,21.369114,26.897093,35.649055,45.66256,54.293201,59.553909,61.029068,59.851208,57.85318,56.511219,56.347469,57.066719,58.171921,59.514439,61.367916,64.032547,67.34977,70.561363,72.661148,72.994865,71.667191,69.457985,67.316299,65.808487,64.915215,64.293533,63.761719,63.601089,64.423347,66.703949,70.356178,74.700676,78.875206,82.363457,85.186722,87.527367,88.995544,88.093887,82.405106,69.601624,48.81459,21.576128,-8.2961836,-35.939198,-57.236782,-70.275749,-75.768944,-76.327888,-75.07148,-74.33519,-75.065857,-77.012848,-79.377861,-81.428894,-82.760292,-83.21241,-82.696732,-81.160713,-78.723572,-75.810997,-73.086723,-71.146606,-70.167793,-69.798767,-69.441177,-68.78756,-68.243645,-68.860985,-71.669708,-76.683052,-82.112442,-84.310234,-78.644821,-61.069721,-29.80131,13.570462,64.02121,114.1879,156.31985,184.47816,196.26012,193.43684,181.224,166.38673,154.85585,149.7926,150.90913,155.31749,159.45171,161.05617,160.19331,158.77052,158.94844,161.46738,164.98703,166.89938,165.11829,159.6741,153.01277,148.70682,149.3331,154.86755,162.66653,169.09384,171.76096,170.91154,169.02327,168.88966,171.49348,175.16466,176.67157,173.56314,166.1631,157.76617,152.74879,153.72887,159.63098,166.01117,167.56122,161.27563,148.28566,133.18445,121.26644,115.43789,114.74583,115.3986,113.52567,107.82369,100.37108,95.151314,95.343697,101.21036,109.94218,117.47701,121.00256,120.47049,118.19589,116.94539,117.90172,119.8854,120.26899,116.83477,109.23033,99.052345,88.621628,79.439064,71.473709,63.745106,55.652565,47.929585,42.387787,40.553017,42.192558,44.912228,45.300713,40.992584,32.296944,22.237202,14.86924,12.906294,16.175674,21.904804,26.621677,28.377663,27.795841,27.264175,28.877375,32.605556,36.025158,35.873116,30.405518,20.933558,11.406275,6.1969395,7.4735665,13.865661,21.338255,25.761017,25.546799,22.664572,21.361328,25.390667,35.498043,48.744118,60.07893,65.171631,62.752975,55.094387,46.456272,40.587597,38.855019,40.047752,41.748722,42.171665,41.178082,39.879929,39.284687,39.109161,37.724052,33.330936,25.535667,16.135712,8.4384499,5.4365721,7.9907551,14.229676,20.611406,24.001324,23.441593,20.480961,17.881653,17.592911,19.360834,20.908314,19.558214,14.198704,6.2550502,-1.0070703,-4.4115725,-2.7860467,2.3660746,7.8276415,10.584097,9.4258966,5.2471752,-0.019520249,-4.967267,-9.6281071,-15.121083,-22.374031,-30.941517,-38.865181,-43.746784,-44.294224,-41.223034,-36.836784,-33.560604,-32.473656,-32.903011,-33.367065,-33.139328,-33.194439,-35.706074,-42.340027,-52.561428,-63.311462,-70.531433,-71.680321,-67.543388,-61.929081,-59.193237,-61.056984,-64.841698,-64.501114,-54.085804,-31.63488,-1.0547554,29.333763,50.882645,59.000992,55.288673,46.235832,39.378242,39.268875,45.590702,54.275951,60.603462,62.140736,59.733746,56.202583,53.940723,53.214493,52.2896,49.122005,43.249207,36.453552,31.727985,31.324438,35.302433,41.58786,47.43042,51.144707,52.858982,53.776745,54.591118,54.343777,50.705883,41.602108,27.063974,9.9424276,-5.1648583,-14.204004,-15.754651,-11.606681,-5.505064,-0.93549585,0.60336465,-0.18508549,-1.6298059,-2.73228,-3.9761407,-6.7671523,-12.017961,-19.027935,-25.572569,-29.197191,-28.792833,-25.298317,-21.001101,-17.940441,-16.590471,-15.806079,-14.076819,-11.129587,-8.6011391,-9.1356144,-14.427126,-23.587101,-33.115589,-38.706776,-37.819828,-31.316912,-22.998766,-17.249323,-16.307856,-19.003241,-21.840635,-21.727299,-18.445442,-15.067826,-15.866889,-23.01969,-34.371277,-43.98473,-45.452415,-36.078983,-19.304358,-3.6577435,1.4036677,-9.5106621,-34.75428,-66.403404,-94.278107,-110.89828,-114.62358,-109.43848,-101.87883,-97.17556,-96.890671,-99.136971,-100.7662,-99.800339,-96.510178,-92.694008,-90.006248,-88.735367,-87.92131,-86.584976,-84.968712,-84.69455,-87.608322,-94.136681,-102.44237,-109.15534,-111.33046,-108.34176,-102.37113,-97.065292,-95.205734,-96.969269,-100.00634,-101.33208,-99.744209,-97.049416,-97.137428,-103.40689,-116.23149,-132.22334,-145.91299,-152.85684,-152.1884,-146.94504,-141.95123,-140.66373,-143.08705,-146.14969,-146.25555,-142.21774,-136.48071,-133.6815,-137.44261,-147.58046,-159.74162,-167.90123,-168.19296,-161.51431,-153.00682,-148.4957,-150.03055,-153.44209,-149.75169,-129.95161,-90.538559,-36.570927,19.65955,63.778473,85.592125,83.193359,62.940578,35.664833,11.414954,-4.4480081,-12.094596,-15.195163,-17.713041,-21.534737,-26.056416,-29.465521,-30.495632,-29.404068,-27.680376,-26.923159,-27.796318,-29.763206,-31.653242,-32.542049,-32.2981,-31.483614,-30.792843,-30.501278,-30.314034,-29.65901,-28.149488,-25.864841,-23.281384,-20.956144,-19.216776,-18.054602,-17.235178,-16.490967,-15.649094,-14.650133,-13.518648,-12.35837,-11.368829,-10.808821,-10.853513,-11.403928,-12.007975,-12.027819,-11.019926,-9.0948849,-6.9635596,-5.5439134,-5.3165221,-5.8581762,-5.9484291,-4.3062139,-0.56848574,4.1231308,7.40451,6.8099933,1.1511248,-8.6590471,-19.878031,-29.211754,-34.398483,-35.200565,-33.255886,-30.926088,-29.872705,-30.223019,-30.782671,-30.077782,-27.500435,-23.804134,-20.650469,-19.535788,-20.81781,-23.474182,-25.732817,-26.150126,-24.443645,-21.570404,-19.043232,-17.957077,-18.350586,-19.274191,-19.462831,-18.137281,-15.418448,-12.13561,-9.2243481,-7.158668,-5.7910399,-4.6535316,-3.4414327,-2.2900681,-1.6357161,-1.7820927,-2.5299063,-3.1916084,-3.0271416,-1.8031549,-0.045292094,1.2645111,1.4034461,0.55961257,-0.086176664,0.97251791,4.471374,9.5164165,13.579121,13.506391,7.100574,-5.5657592,-21.857794,-37.543591,-48.57299,-52.782795,-50.683395,-44.980259,-39.147369,-35.825394,-35.831242,-38.167423,-40.867352,-42.123981,-41.11092,-38.180943,-34.507732,-31.488903,-30.239601,-31.333918,-34.756973,-39.951683,-45.903416,-51.308495,-54.89706,-55.879616,-54.332039,-51.263729,-48.224487,-46.566093,-46.727757,-47.976448,-48.82341,-47.949997,-45.137817,-41.632473,-39.649738,-41.218025,-46.961403,-55.510777,-63.918568,-68.911942,-68.358116,-62.198071,-52.396336,-41.980904,-33.705681,-29.009184,-27.715216,-28.487661,-29.67609,-30.070248,-29.241489,-27.442556,-25.265991,-23.308271,-21.975399,-21.420315,-21.538206,-21.98579,-22.260693,-21.88438,-20.649965,-18.795111,-16.94628,-15.802131,-15.712157,-16.419697,-17.166199,-17.119959,-15.854421,-13.54345,-10.731627,-7.8563576,-4.9098215,-1.5494077,2.3790619,6.3123045,8.9410782,8.8874531,5.7557163,0.82968575,-3.2289665,-3.7357819,0.31159201,7.2850666,13.539,15.478727,11.993667,5.7563515,2.4016879,7.8023505,24.8428,51.516167,81.510216,107.06181,122.55899,126.94498,123.68493,118.46568,116.05355,118.10007,122.98579,127.51162,129.19646,127.73237,124.84081,122.8531,123.09881,125.17887,127.50434,128.60843,128.26967,127.68697,128.63565,132.21753,138.05405,144.4389,149.32411,151.49327,151.19801,149.90997,149.39746,150.71822,153.71243,157.23193,159.8938,160.87315,160.28545,158.99359,158.01958,157.94389,158.6434,159.49168,159.86343,159.6058,159.1584,159.21432,160.10336,161.28535,161.33186,158.52388,151.8195,141.66211,130.10204,120.03976,113.90488,112.46719,114.47173,117.3562,118.67594,117.41611,114.41219,111.6348,110.8048,112.2326,114.63267,116.02248,115.09216,112.11046,108.74257,106.89893,107.40944,109.45531,111.17939,111.0736,109.17245,107.17285,107.31106,110.68968,116.1711,120.63655,120.54573,113.88674,101.33945,85.960098,71.608665,61.084743,55.04496,52.212353,50.560375,48.612499,46.06242,43.48362,41.529697,40.29557,39.275944,37.846836,35.808353,33.532066,31.613232,30.334661,29.389742,28.092928,25.913832,22.917595,19.771301,17.314482,16.021637,15.752259,15.944963,16.062412,15.909935,15.574635,15.059914,13.958051,11.493042,6.9788527,0.39475542,-7.3511443,-14.707868,-20.178024,-23.002064,-23.42388,-22.426592,-21.173567,-20.532227,-20.913723,-22.37505,-24.751432,-27.658066,-30.437323,-32.287243,-32.700016,-32.011265,-31.585554,-33.237247,-37.962803,-44.659966,-49.771469,-48.4207,-36.729153,-14.149835,15.581228,45.628357,68.925468,81.250847,82.84166,77.704262,71.118561,66.859962,65.728004,66.056244,65.599129,63.388157,60.321991,58.237049,58.290016,59.922859,61.194801,60.229332,56.689083,52.154133,49.062881,48.919601,51.032982,52.722519,50.93256,44.217606,33.782303,22.872143,14.897736,11.500418,11.779262,13.109674,12.940271,10.359243,6.4491601,3.3077297,2.4955711,3.9890256,6.2904186,7.5166373,6.6411777,4.0327959,0.9933995,-1.2802261,-2.5180163,-3.4098339,-4.8944612,-7.2950206,-9.975914,-11.779057,-11.900899,-10.54145,-8.8287792,-8.0632133,-8.8325357,-10.649739,-12.3851,-13.180231,-13.169107,-13.456056,-15.330201,-19.254587,-24.355751,-28.814779,-30.942499,-30.237505,-27.715073,-25.272156,-24.497152,-25.707087,-27.845909,-29.305773,-29.122026,-27.748291,-26.896692,-28.538603,-33.6978,-41.785881,-50.868095,-58.659771,-63.625629,-65.548653,-65.32309,-64.226891,-63.209057,-62.625416,-62.480358,-62.864555,-64.175133,-66.917213,-71.239639,-76.585175,-81.770897,-85.507973,-87.046715,-86.529213,-84.823402,-82.965607,-81.599915,-80.788666,-80.288185,-80.039467,-80.462959,-82.289093,-86.003677,-91.293556,-96.91832,-101.16911,-102.68079,-101.11218,-97.278084,-92.665977,-88.660194,-85.960922,-84.51342,-83.882668,-83.697227,-83.772644,-83.821243,-83.041328,-80.052116,-73.442268,-62.736378,-49.180267,-35.716061,-25.944868,-22.516424,-25.8255,-33.8102,-43.041813,-50.522533,-55.155094,-58.025448,-61.357456,-66.817261,-74.244576,-81.609634,-86.210327,-86.33593,-82.336418,-76.429832,-71.394974,-68.999832,-69.158058,-70.304932,-70.682777,-69.650848,-68.154503,-68.070107,-70.887535,-76.608833,-83.571793,-89.287209,-91.73497,-90.315201,-85.93306,-80.285316,-74.902351,-70.569046,-67.395294,-65.315063,-64.519157,-65.447372,-68.361191,-72.875504,-77.87587,-81.95591,-84.10582,-84.176117,-82.794655,-80.818047,-78.749687,-76.585541,-74.218277,-72.076553,-71.438782,-74.039612,-81.084679,-92.266373,-105.47971,-117.56157,-125.73787,-128.97537,-128.43483,-126.73359,-126.43956,-128.68187,-132.68332,-136.44379,-138.09988,-137.09581,-134.45944,-132.06825,-131.42575,-132.74899,-134.9304,-136.35452,-136.00603,-134.14008,-132.09186,-131.36449,-132.59464,-135.06569,-137.09027,-137.04089,-134.40512,-130.21576,-126.56229,-125.41483,-127.38517,-131.10358,-133.58417,-131.45702,-122.51141,-106.82995,-86.967201,-67.051933,-51.178295,-41.783367,-38.735428,-39.554596,-40.674179,-39.153843,-34.016579,-26.544634,-19.386381,-14.954283,-13.997248,-15.162586,-15.820678,-13.68846,-8.281002,-1.2711413,4.5394206,7.0791931,6.5675836,5.7447753,8.492281,17.550669,32.654861,50.241222,64.996902,72.435638,71.062065,62.921764,52.29266,43.361877,38.275757,36.624577,36.462517,36.006805,34.825562,33.799202,34.062809,35.850887,38.17749,39.604671,39.486366,38.665367,38.964935,41.712704,46.319138,50.017689,49.148281,41.30143,26.974628,9.6175203,-6.0547457,-16.477331,-20.896574,-21.288628,-20.695951,-21.160587,-22.633949,-23.500154,-22.195154,-18.652857,-14.488025,-11.797383,-11.516588,-12.635322,-12.957558,-10.92151,-7.1116138,-4.1798162,-4.9548993,-9.8610229,-15.446825,-15.305552,-3.2043967,23.242682,60.547054,100.31769,132.87376,151.58783,155.62099,149.6577,140.97411,135.62296,135.8499,139.94859,144.25163,145.78888,143.9785,140.53566,137.97311,137.86026,139.96788,142.69435,144.29961,144.03163,142.43784,140.78511,140.10011,140.51231,141.28432,141.40854,140.29852,138.1138,135.56914,133.44096,132.14597,131.651,131.70058,132.12672,132.9836,134.41621,136.38898,138.50919,140.1131,140.59496,139.78296,138.11447,136.46461,135.673,135.98491,136.68852,136.1577,132.33994,123.53218,109.14696,90.14444,68.914528,48.602703,32.10936,21.150259,15.764394,14.477079,15.038817,15.399092,14.470018,12.34834,9.9413071,8.2406473,7.651834,7.7303047,7.4380941,5.7479978,2.2440131,-2.6132979,-7.6911025,-11.734943,-13.96451,-14.404019,-13.789911,-13.12365,-13.114628,-13.801827,-14.540482,-14.351657,-12.454062,-8.7134752,-3.790113,1.0881686,4.6209197,5.9673429,5.069984,2.6260397,-0.26823342,-2.6196179,-3.9420481,-4.3769131,-4.4954119,-4.913271,-5.9382539,-7.4376831,-8.9783211,-10.131691,-10.74829,-11.034467,-11.396181,-12.161739,-13.369299,-14.758226,-15.96791,-16.810432,-17.434286,-18.26593,-19.75955,-22.108601,-25.096365,-28.173639,-30.710972,-32.273933,-32.773048,-32.435089,-31.655876,-30.847609,-30.356472,-30.441277,-31.247969,-32.738525,-34.615456,-36.346199,-37.361416,-37.374481,-36.633423,-35.889412,-36.008263,-37.398754,-39.61861,-41.4855,-41.735889,-39.888802,-36.741924,-34.052933,-33.426437,-34.982445,-36.663567,-34.806095,-25.916506,-8.8272781,13.971994,36.732746,52.602512,56.577991,47.773823,29.805923,9.0547857,-8.2979708,-18.917332,-23.306337,-24.739277,-26.870039,-31.435869,-37.341209,-41.557796,-41.229637,-35.726135,-27.480759,-21.180988,-21.781868,-32.386459,-52.997704,-80.5979,-110.32007,-137.03101,-156.63051,-166.6954,-166.49782,-156.66924,-138.7869,-115.02066,-87.846077,-59.793831,-33.24015,-10.262335,7.4607024,18.791777,23.409859,22.178787,17.388485,12.552749,11.57776,17.458231,31.029657,50.443386,71.779373,90.647545,104.05724,111.61111,115.38525,118.55772,123.55089,130.73927,138.4539,144.25786,146.71477,146.5701,146.59596,150.12352,159.05008,172.42236,186.39192,195.60472,195.3454,183.41148,160.8949,131.64003,100.77602,73.06073,51.701443,37.951786,31.376219,30.444208,33.133095,37.390079,41.470711,44.220253,45.296139,45.234737,45.248726,46.739151,50.667122,57.047073,64.811394,72.142899,77.151497,78.599854,76.352676,71.355309,65.174454,59.342346,54.827633,51.870293,50.20908,49.513168,49.724346,51.087795,53.857555,57.887024,62.411865,66.232803,68.255241,68.093819,66.365814,64.450333,63.802429,65.193443,68.315872,71.986259,74.821083,75.973274,75.490372,74.109436,72.673042,71.587418,70.687065,69.560921,68.052536,66.51815,65.611252,65.732239,66.566307,67.110031,66.25071,63.541321,59.617699,55.902653,53.726116,53.432705,54.121899,54.28178,52.965981,50.736504,49.666897,52.263489,59.871094,71.52066,83.974571,93.036148,95.43927,90.291183,79.316116,65.852692,53.24736,43.542454,37.06683,32.934795,29.953705,27.329102,24.841015,22.588049,20.645935,18.926844,17.265842,15.547311,13.690242,11.505092,8.618372,4.6461487,-0.42698374,-5.9553299,-10.753824,-13.702541,-14.509047,-14.081711,-14.134497,-16.142546,-20.271801,-25.036802,-28.048119,-27.508621,-23.565149,-18.617025,-16.275665,-19.504906,-29.011089,-42.833126,-57.367249,-69.203606,-76.696564,-80.414314,-82.34539,-84.488907,-87.74614,-91.717743,-95.353119,-97.863258,-99.236816,-100.08554,-101.06721,-102.40422,-103.86351,-105.14223,-106.25841,-107.548,-109.2107,-110.75697,-110.8584,-107.86076,-100.74426,-89.949898,-77.50824,-66.309349,-58.877964,-56.313816,-57.938816,-61.757011,-65.381363,-66.899994,-65.320259,-60.573093,-53.314636,-44.760628,-36.585625,-30.723833,-28.914572,-32.056244,-39.689735,-49.992367,-60.42926,-68.807083,-74.180733,-77.100464,-79.062294,-81.504807,-84.966866,-88.899185,-92.18943,-94.004051,-94.371796,-94.141144,-94.383301,-95.678513,-97.773987,-99.819389,-100.97997,-100.98366,-100.23401,-99.447716,-99.110703,-99.156769,-99.090263,-98.441437,-97.202354,-95.910835,-95.308823,-95.810646,-97.156708,-98.503914,-98.906937,-97.881462,-95.689194,-93.172569,-91.259308,-90.456314,-90.634941,-91.202248,-91.506058,-91.197563,-90.34127,-89.253242,-88.225029,-87.338371,-86.480789,-85.516914,-84.467758,-83.561661,-83.12291,-83.375832,-84.288628,-85.544106,-86.64373,-87.086044,-86.543465,-84.981758,-82.693565,-80.231384,-78.23777,-77.202927,-77.23288,-77.951057,-78.630707,-78.547791,-77.398392,-75.53656,-73.842125,-73.225998,-74.021812,-75.641808,-76.7808,-76.153831,-73.410194,-69.690704,-67.423119,-69.34053,-77.154732,-90.558113,-107.10658,-123.10005,-135.05905,-141.08528,-141.46205,-138.25734,-134.20288,-131.45763,-130.85127,-131.88345,-133.33122,-134.03943,-133.46535,-131.77867,-129.60175,-127.63335,-126.36434,-125.93974,-126.09908,-126.13395,-124.91452,-121.12631,-113.79551,-102.96104,-90.117348,-78.01284,-69.660706,-66.903008,-69.275978,-73.941582,-76.962219,-75.410957,-69.181824,-61.334709,-56.504738,-58.013435,-65.212212,-72.688965,-72.110039,-56.052994,-21.986961,25.705523,76.878555,119.54664,144.72786,149.86253,139.21954,121.28053,104.61089,94.361031,90.996552,91.513756,92.065872,90.345634,86.485062,82.289093,79.619957,79.10894,79.95845,80.768463,80.655724,79.840019,79.344833,80.121033,82.282715,85.006828,87.128075,87.953369,87.68647,87.173706,87.204826,87.937233,88.907837,89.628021,90.27166,91.838806,95.534073,101.71172,109.16814,115.4567,118.26273,117.09493,114.16139,113.63408,119.43847,132.69012,150.29749,165.73767,171.82245,164.08447,142.96069,113.54767,83.042938,57.288853,38.326,24.241774,11.239496,-3.4270403,-19.445787,-33.513241,-41.324799,-40.195847,-30.720327,-16.549173,-2.5487943,7.4775815,12.198999,12.666484,11.065495,9.2756681,8.1207838,7.5560894,7.3545671,7.6010718,8.6073151,10.425886,12.501858,13.876204,13.862742,12.668965,11.402351,11.348518,12.994345,15.53546,17.309393,16.922888,14.28392,10.751307,8.2185726,7.7469153,8.7616186,9.4938259,8.4695206,6.0289159,4.7114954,8.031992,18.273727,34.687393,53.347122,68.917458,77.359177,77.963287,73.493843,68.397568,66.234039,67.910843,71.712158,74.907776,75.739998,74.451859,72.785004,72.470116,73.889008,75.874245,76.725082,75.617447,73.318291,71.653595,72.11586,74.643539,77.494186,78.348816,75.895004,70.779785,65.255013,61.748573,61.339134,63.167355,65.152359,65.475517,63.780754,61.274212,59.702538,59.980198,61.462959,62.383835,61.130241,57.445351,52.695831,49.010033,47.880676,49.191746,51.325771,52.259285,50.888416,47.695518,44.344414,42.526512,42.864075,44.591824,46.172138,46.361668,44.978054,42.874527,41.208759,40.571239,40.594597,40.285126,38.793846,36.050671,32.815292,30.136744,28.635567,28.130112,27.859985,27.120859,25.833153,24.624702,24.363398,25.472239,27.51753,29.374884,29.881653,28.551222,25.878929,23.036011,21.145317,20.599403,20.850731,20.804115,19.568438,17.109264,14.408094,13.026291,14.310246,18.666714,25.286066,32.443653,38.210159,41.211769,41.084743,38.449032,34.474033,30.298653,26.605713,23.531876,20.890919,18.516573,16.484701,15.076265,14.526549,14.756114,15.296296,15.491842,14.867989,13.421262,11.626611,10.135874,9.3552923,9.1837816,9.0944099,8.5082045,7.2017059,5.4587517,3.8548038,2.828532,2.3590829,1.9997443,1.2584233,0.045455992,-1.1646607,-1.6200948,-0.85687375,0.85933977,2.565083,3.134526,1.9797565,-0.56979704,-3.4936974,-5.7747808,-7.0777526,-7.9205565,-9.2027597,-11.430434,-14.223522,-16.51008,-17.311272,-16.557001,-15.29786,-15.079997,-16.862612,-20.240458,-23.583151,-25.086334,-24.063919,-21.57708,-19.895962,-21.078701,-25.59024,-31.907623,-37.420605,-40.056255,-39.544212,-37.468601,-36.08408,-36.736053,-39.00705,-41.196522,-41.774929,-40.716763,-39.652031,-40.593037,-44.044018,-47.847095,-47.739895,-39.509289,-21.533121,3.851763,31.068872,53.773201,67.68692,72.228302,70.140854,65.544922,61.699909,59.765797,59.061153,58.315777,56.877647,55.059917,53.56303,52.602077,51.523449,49.24358,45.16367,39.827084,34.769543,31.614178,31.028782,32.276127,33.674206,33.648674,31.661808,28.413956,25.237207,23.151623,22.246635,21.772032,20.799509,18.932236,16.555807,14.497409,13.396191,13.26757,13.558658,13.604808,13.109719,12.288622,11.601124,11.321362,11.301547,11.109905,10.41535,9.2957678,8.213829,7.6744151,7.8338666,8.3720465,8.7327728,8.5491352,7.9238811,7.3460665,7.3076754,7.9180236,8.8177948,9.4628782,9.5593691,9.3074694,9.2525482,9.8413715,11.013749,12.145857,12.40824,11.296824,8.9656057,6.1318674,3.6307685,1.9390692,0.99034429,0.37301275,-0.28147262,-1.0347904,-1.6912621,-2.0842957,-2.3307078,-2.816186,-3.9039717,-5.5991154,-7.4557939,-8.8345289,-9.337575,-9.095542,-8.6769943,-8.6777124,-9.2981691,-10.234664,-10.968046,-11.216532,-11.177477,-11.341752,-12.012546,-12.926982,-13.337046,-12.560646,-10.614083,-8.4033852,-7.2256169,-7.8475285,-9.8133564,-11.569376,-11.469178,-9.0744514,-5.8557796,-4.6921172,-8.3222075,-17.63229,-30.865517,-44.331978,-54.278568,-58.830978,-58.841522,-57.134228,-56.622688,-58.46183,-61.352684,-62.388283,-58.884026,-50.068436,-37.649067,-24.985081,-15.418905,-10.746143,-10.622185,-13.092325,-15.79988,-17.13908,-16.7822,-15.449553,-14.208694,-13.764113,-14.098469,-14.575092,-14.372941,-12.99987,-10.63027,-8.1038399,-6.5659246,-6.8937721,-9.1834431,-12.592402,-15.687212,-17.169142,-16.589237,-14.605664,-12.57138,-11.663501,-12.106925,-13.039933,-13.166296,-11.775044,-9.3839426,-7.4565845,-7.2883139,-8.8322401,-10.435046,-9.9411755,-6.66399,-2.9431608,-4.0051942,-15.74827,-41.398186,-78.891968,-120.68642,-156.4455,-177.42053,-180.28731,-168.41501,-149.92537,-133.65163,-125.19272,-125.06467,-129.64598,-134.02327,-134.91492,-132.06535,-127.61618,-124.20901,-123.19435,-124.01841,-124.95068,-124.4476,-122.16331,-119.00864,-116.37473,-115.16349,-115.29104,-115.91071,-116.08772,-115.40349,-114.10432,-112.78159,-111.88797,-111.45061,-111.14177,-110.59109,-109.67618,-108.58777,-107.65634,-107.09308,-106.83143,-106.55886,-105.89439,-104.58995,-102.64708,-100.30716,-97.938484,-95.874718,-94.266495,-93.006416,-91.776573,-90.226334,-88.213501,-85.972763,-84.074127,-83.136742,-83.427017,-84.586121,-85.697678,-85.712723,-84.008232,-80.737854,-76.739746,-73.046806,-70.310814,-68.51358,-67.138275,-65.648788,-63.909843,-62.237911,-61.065678,-60.510735,-60.220566,-59.646339,-58.537689,-57.234211,-56.447803,-56.622082,-57.332069,-57.242596,-54.79071,-49.22163,-41.279133,-33.004986,-26.674034,-23.501535,-22.966282,-23.218784,-22.321295,-19.492792,-15.521272,-12.081648,-10.46445,-10.631028,-11.266112,-10.766582,-8.4174185,-4.8687301,-1.5543877,0.49851283,1.5328091,2.8795428,5.8054314,10.253786,14.523903,16.319075,14.58036,10.83606,8.9724321,13.318051,26.093399,45.809486,67.699753,86.028458,96.940063,100.17823,98.729713,96.752457,97.164673,100.35661,104.63495,107.84367,108.92149,108.37498,107.5384,107.37321,107.80381,108.0608,107.65137,107.06306,107.5228,109.90598,113.62276,116.42775,115.48401,109.09578,97.974174,85.135292,74.409996,68.464714,67.553337,69.725037,72.251816,73.281174,72.665733,71.569656,71.309639,72.346634,74.114647,75.676315,76.57634,77.176201,78.227394,80.079308,82.214539,83.531944,83.179558,81.272263,78.892807,77.33358,77.158272,77.847755,78.367081,78.25457,78.355759,80.509811,86.258682,95.447517,105.80074,113.96584,117.47907,116.35387,113.1064,111.01286,111.61649,113.12717,110.90524,99.931747,77.862717,46.811813,12.729437,-17.300499,-38.269863,-49.128044,-52.384872,-51.910072,-50.448887,-48.392937,-44.39188,-37.144001,-26.992744,-16.207321,-7.8041186,-3.7715883,-3.9234247,-6.1249719,-7.692224,-7.0097618,-4.3372908,-1.3734332,0.026072608,-0.91994435,-3.5076687,-6.1258755,-7.3441386,-6.7694421,-5.1666098,-3.861624,-3.8849747,-5.4012308,-7.7124019,-9.7367353,-10.612553,-10.081297,-8.5018301,-6.5726686,-4.9567738,-3.9902601,-3.5740304,-3.2662404,-2.5350583,-1.0783353,0.93422198,2.8505344,3.8279004,3.3247962,1.5220551,-0.62534904,-1.8231069,-1.164035,1.2871373,4.4561625,6.8528023,7.4556575,6.3173723,4.4722219,3.191612,3.0968094,3.7604795,4.0937285,3.2387342,1.2867415,-0.76475024,-1.8398191,-1.7809485,-1.667155,-3.0145969,-6.2406006,-9.4390936,-8.5095263,1.0866982,21.751429,51.84679,85.727119,115.90377,136.27347,144.67441,143.40842,137.55814,132.18839,130.06367,131.03778,133.13647,134.33299,133.75722,131.68298,128.61211,124.40456,118.26227,109.61062,99.136078,89.036507,82.087563,80.029518,82.36586,86.480354,89.1175,88.321106,84.560951,80.278114,78.125572,79.065109,81.596497,82.652618,79.58902,71.969139,61.979851,53.208042,48.564934,48.665581,51.636078,54.382446,54.448853,51.298977,46.318298,41.698586,39.037262,38.549068,39.268261,39.925045,39.79356,38.952538,37.908554,37.001194,36.10704,34.85268,33.104637,31.276506,30.147179,30.288189,31.532343,32.919651,33.221096,31.714359,28.683867,25.292307,22.898026,22.267868,23.194086,24.733047,25.857246,26.052965,25.476894,24.629292,23.848778,23.034288,21.793419,19.871153,17.492077,15.316902,14.014863,13.759042,14.030086,13.903204,12.644917,10.213912,7.3149061,4.9597287,3.8294585,3.865876,4.3569274,4.438664,3.6571493,2.210511,0.73084384,-0.20923784,-0.50050002,-0.53238064,-0.85917062,-1.7625396,-3.0386181,-4.1614041,-4.6932902,-4.634717,-4.4542904,-4.7763643,-5.9504161,-7.8072686,-9.7682333,-11.220815,-11.892487,-11.970217,-11.907517,-12.085764,-12.587433,-13.235147,-13.836883,-14.418101,-15.23694,-16.555864,-18.347294,-20.183292,-21.438969,-21.707483,-21.149343,-20.513468,-20.772295,-22.572771,-25.840237,-29.787632,-33.330746,-35.658401,-36.618744,-36.711414,-36.727539,-37.286472,-38.550488,-40.252159,-41.956371,-43.34774,-44.359463,-45.10405,-45.711983,-46.227623,-46.634727,-46.960285,-47.338326,-47.955574,-48.911324,-50.110542,-51.297169,-52.228703,-52.873642,-53.477207,-54.422878,-55.96492,-58.011139,-60.116573,-61.712059,-62.430912,-62.324181,-61.823921,-61.478905,-61.634636,-62.260384,-63.021278,-63.529987,-63.602139,-63.353981,-63.10038,-63.146603,-63.623577,-64.46386,-65.502441,-66.602173,-67.705872,-68.795227,-69.820663,-70.687637,-71.327713,-71.797005,-72.303757,-73.109718,-74.348099,-75.878609,-77.293945,-78.09919,-77.969276,-76.932281,-75.369957,-73.840736,-72.8349,-72.597748,-73.094482,-74.0933,-75.283104,-76.355812,-77.044479,-77.157066,-76.637558,-75.63253,-74.49604,-73.682281,-73.551163,-74.191498,-75.378532,-76.704643,-77.803734,-78.521294,-78.921844,-79.150192,-79.277061,-79.268288,-79.104637,-78.931938,-79.066772,-79.785416,-81.02285,-82.245293,-82.696312,-81.954239,-80.445229,-79.465332,-80.501167,-84.104851,-88.979561,-91.965706,-89.184143,-77.905602,-58.188465,-33.325081,-8.718605,10.327949,20.800499,23.021528,20.069275,15.979813,13.773625,14.346796,16.669098,18.936665,19.833879,19.141411,17.473169,15.531723,13.53249,11.220287,8.3918419,5.4326205,3.3671408,3.3029766,5.6308279,9.5684195,13.433633,15.538969,15.15941,12.948638,10.522951,9.4675694,10.388644,12.594751,14.580028,14.975323,13.363119,10.474728,7.7012753,6.2700057,6.6016912,8.1965199,10.037775,11.201003,11.290115,10.495015,9.3285761,8.2726116,7.55338,7.1244831,6.7853909,6.3103533,5.5152364,4.276885,2.5580869,0.45646197,-1.7664648,-3.7386248,-5.1237702,-5.7873974,-5.8679805,-5.6867571,-5.5397243,-5.5075393,-5.4178805,-4.992888,-4.0808725,-2.8043773,-1.5089316,-0.53612441,0.026314974,0.43809915,1.1622775,2.5602326,4.6151953,6.8657484,8.6070423,9.2568913,8.6842403,7.3157911,5.9564905,5.4112864,6.097178,7.8399925,9.9613991,11.623336,12.269655,11.945778,11.318121,11.350836,12.775368,15.622457,19.091429,21.878485,22.834051,21.606447,18.894537,16.126913,14.716497,15.31171,17.493351,20.108639,22.034904,22.881701,23.169226,23.863903,25.590139,28.073687,30.229673,30.867672,29.541948,26.943121,24.519489,23.548481,24.284557,25.79184,26.614656,25.845562,23.832544,21.969286,21.62579,22.89739,24.047318,22.128908,14.530285,0.56551737,-17.84589,-36.849693,-52.320389,-61.591755,-64.336029,-62.226288,-57.739674,-52.892292,-48.600105,-44.854988,-41.366722,-38.105167,-35.381454,-33.528969,-32.551956,-32.086273,-31.71493,-31.359304,-31.386337,-32.295486,-34.198509,-36.503033,-38.092659,-37.939682,-35.753281,-32.209225,-28.579502,-25.993038,-24.816525,-24.560144,-24.345137,-23.581083,-22.367413,-21.347681,-21.148815,-21.83708,-22.80323,-23.167606,-22.408216,-20.744617,-18.982964,-17.919983,-17.731979,-17.79896,-17.110922,-14.985659,-11.593703,-7.907752,-5.0917554,-3.7430451,-3.5158401,-3.4000864,-2.4739988,-0.60760134,1.3925766,2.3376048,1.5673327,-0.39192566,-1.9003584,-1.0285352,3.3354785,10.764069,19.403103,26.869318,31.414389,32.693523,31.733599,30.182364,29.327843,29.465393,29.927851,29.671516,27.997478,24.964437,21.297186,17.928089,15.509074,14.189753,13.735485,13.827185,14.299038,15.166085,16.477301,18.155771,19.970123,21.650537,23.033131,24.095314,24.84676,25.180109,24.842297,23.604353,21.539583,19.196938,17.487083,17.282322,18.947689,22.109804,25.848064,29.223824,31.822344,33.944511,36.295364,39.351246,42.825638,45.625122,46.390621,44.334873,39.865345,34.576675,30.563765,29.42049,31.489483,35.784409,40.605965,44.46516,46.765671,47.875713,48.616886,49.556416,50.584641,51.041683,50.2775,48.239937,45.67215,43.766273,43.485832,44.993748,47.560322,50.01712,51.469509,51.810349,51.702049,52.035084,53.212704,54.735638,55.385086,53.931263,49.957245,44.293114,38.768101,35.383518,35.352577,38.53685,43.583988,48.669674,52.408939,54.424427,55.284279,55.906124,56.833752,57.843918,58.111782,56.803951,53.705338,49.478672,45.399227,42.737804,42.171528,43.558136,46.157856,49.102047,51.779369,53.914478,55.365902,55.88308,55.083275,52.722275,49.075108,45.108234,42.224613,41.644169,43.756397,47.851799,52.438358,55.994556,57.730335,57.909885,57.556583,57.741932,58.912598,60.667789,62.094196,62.398647,61.393452,59.504372,57.3078,54.933933,51.776531,46.755985,39.016975,28.642855,16.929293,6.0063987,-2.0221479,-5.9750962,-6.0600405,-3.6906176,-0.78523701,1.0696713,1.1850669,-0.1538887,-2.0450377,-3.5088603,-3.9270723,-3.2116072,-1.7049861,0.06453342,1.6224761,2.684994,3.1751819,3.1582282,2.7519302,2.0567834,1.1280209,-0.0083743166,-1.3107278,-2.6772373,-3.9365759,-4.8950505,-5.4293728,-5.577971,-5.5686107,-5.7442479,-6.4052258,-7.6439991,-9.2685661,-10.874032,-12.041911,-12.569056,-12.599183,-12.572586,-13.004688,-14.201406,-16.063732,-18.097437,-19.640266,-20.200874,-19.733099,-18.689249,-17.803383,-17.700729,-18.535858,-19.866604,-20.858509,-20.73572,-19.24403,-16.861103,-14.610023,-13.549739,-14.21032,-16.292568,-18.817169,-20.65469,-21.141481,-20.427635,-19.356012,-18.949642,-19.818666,-21.841415,-24.297461,-26.34656,-27.537477,-28.029135,-28.408882,-29.260046,-30.783506,-32.717419,-34.576237,-36.006508,-36.991302,-37.768562,-38.557484,-39.336319,-39.869301,-39.970482,-39.777393,-39.759552,-40.362404,-41.474617,-42.09848,-40.541683,-35.145142,-25.201223,-11.540899,3.5893698,17.351049,27.426647,32.849213,34.149345,32.81868,30.460167,28.118267,26.10276,24.278227,22.516275,20.96451,19.973215,19.786688,20.264631,20.85602,20.854784,19.770781,17.582378,14.729149,11.872862,9.5825176,8.1100578,7.3364835,6.8618836,6.1615539,4.7468567,2.3102641,-1.1530826,-5.2813244,-9.3987589,-12.720257,-14.657813,-15.089658,-14.432556,-13.446938,-12.861273,-13.024656,-13.793501,-14.717875,-15.40182,-15.797753,-16.239248,-17.193165,-18.90263,-21.16675,-23.410231,-25.000885,-25.609205,-25.381903,-24.830564,-24.524071,-24.790113,-25.604029,-26.702089,-27.807037,-28.79854,-29.727831,-30.702848,-31.759417,-32.824398,-33.786652,-34.598766,-35.310776,-36.000057,-36.655052,-37.116997,-37.14505,-36.575306,-35.466614,-34.126442,-32.988903,-32.41658,-32.546253,-33.263046,-34.299774,-35.382568,-36.333141,-37.088764,-37.66703,-38.129833,-38.574894,-39.136097,-39.953461,-41.102337,-42.523476,-44.019417,-45.347034,-46.359982,-47.099823,-47.753338,-48.486103,-49.264694,-49.811111,-49.755035,-48.907627,-47.473358,-46.031219,-45.25684,-45.536007,-46.712284,-48.145279,-49.065018,-49.015778,-48.118786,-46.993393,-46.390152,-46.765419,-48.052673,-49.748779,-51.231812,-52.095028,-52.298641,-52.082237,-51.738422,-51.417183,-51.075188,-50.562641,-49.747589,-48.57753,-47.054783,-45.183441,-42.96199,-40.438202,-37.766586,-35.186188,-32.894558,-30.889235,-28.90065,-26.496876,-23.322695,-19.327581,-14.825536,-10.33252,-6.277946,-2.7770481,0.38753802,3.5706768,6.9995403,10.625519,14.188772,17.430052,20.275785,22.846567,25.281784,27.524572,29.256582,30.068123,29.769339,28.623077,27.310476,26.613224,26.99571,28.353075,30.093729,31.508648,32.191746,32.245365,32.152935,32.423923,33.260517,34.464817,35.627346,36.441448,36.911674,37.314819,37.958687,38.927273,40.001598,40.807682,41.073845,40.803505,40.24049,39.664104,39.179317,38.667183,37.933819,36.939247,35.919445,35.288921,35.374332,36.16209,37.246449,38.033119,38.07906,37.354198,36.260521,35.40147,35.249657,35.910961,37.103367,38.32655,39.095379,39.109463,38.311054,36.867172,35.129803,33.578148,32.692764,32.725365,33.423088,33.872967,32.647697,28.304289,20.065687,8.3441877,-5.2206831,-18.308323,-28.819843,-35.685223,-39.153301,-40.428013,-40.888302,-41.360615,-41.855453,-41.869583,-40.993172,-39.380768,-37.760471,-36.985451,-37.451797,-38.801369,-40.133801,-40.60054,-39.984852,-38.869617,-38.265556,-38.935951,-40.865807,-43.237091,-44.940025,-45.291641,-44.486465,-43.472771,-43.32452,-44.517021,-46.588081,-48.421616,-48.982441,-48.02589,-46.307396,-45.132202,-45.514488,-47.481213,-49.980656,-51.480621,-50.900597,-48.299206,-44.878906,-42.291256,-41.663456,-42.944241,-44.970642,-46.210411,-45.718338,-43.718979,-41.467426,-40.487984,-41.664143,-44.723568,-48.398487,-51.125034,-51.840858,-50.428532,-47.613262,-44.467625,-41.875954,-40.258793,-39.623966,-39.781933,-40.500309,-41.497089,-42.360268,-42.568916,-41.700813,-39.721222,-37.120396,-34.730038,-33.274757,-32.93911,-33.267254,-33.503769,-33.162041,-32.408459,-31.947655,-32.44709,-33.907711,-35.487907,-36.006691,-34.850861,-32.638882,-31.051649,-31.749228,-34.950436,-38.608967,-38.884167,-31.86227,-15.674845,8.1878843,35.19693,59.656425,77.14679,86.226295,88.525444,87.320152,85.533302,84.363358,83.244858,80.956245,76.987701,72.203056,68.385551,67.045891,68.357597,70.962006,72.768417,72.200569,69.066109,64.514366,60.178604,57.129009,55.341114,53.982319,52.237106,50.035187,48.150318,47.606541,48.826054,51.134151,52.990234,52.821312,49.936008,44.952488,39.493877,35.360405,33.677769,34.47995,36.87434,39.588066,41.5298,42.092201,41.155495,38.943172,35.902664,32.660328,29.964157,28.507547,28.641529,30.13076,32.153076,33.623856,33.714069,32.276516,29.919672,27.671471,26.427334,26.509241,27.586239,28.972601,30.085405,30.76116,31.248587,31.922419,32.944134,34.111149,34.986809,35.200741,34.693993,33.731194,32.672688,31.672794,30.526995,28.794922,26.141745,22.688332,19.137289,16.56263,15.943112,17.671389,21.297754,25.655018,29.320667,31.203102,30.975275,29.15254,26.785103,24.924229,24.131792,24.277538,24.716606,24.737749,24.026596,22.881144,22.057064,22.33268,24.045578,26.867579,29.941723,32.290501,33.251282,32.697552,30.956169,28.527094,25.82081,23.081108,20.49856,18.366867,17.104391,17.079552,18.350662,20.523836,22.866846,24.634058,25.393555,25.133427,24.082441,22.399755,20.000107,16.686323,12.514774,8.1017408,4.5675659,3.0475073,4.0265493,6.9399242,10.363796,12.749509,13.272266,12.246041,10.810706,10.076727,10.295487,10.634656,9.7462063,6.7717142,2.1056256,-2.6314285,-5.4430709,-5.1087427,-1.8973376,2.6168401,6.5034528,8.5563183,8.8020754,8.146328,7.4691038,6.8538895,5.5183616,2.4956503,-2.435899,-8.2675943,-13.108243,-15.170716,-13.755836,-9.5957775,-4.3642597,0.27502412,3.4287944,5.0816908,5.5971346,5.0988436,3.269063,-0.27074012,-5.3290572,-10.831354,-15.17339,-17.070797,-16.313608,-13.848968,-11.084974,-8.8992062,-7.0975018,-4.7718172,-1.3320304,2.5804822,5.1036735,4.2871161,-0.29995969,-6.6087413,-10.644711,-8.4233227,1.7041878,17.778679,34.902893,47.591209,52.491505,49.908901,43.270206,36.912449,33.573532,33.086956,32.974518,30.428614,24.34782,16.143753,8.8930159,5.4802384,6.9693942,12.202905,18.767069,24.575186,28.983849,32.755939,37.008335,41.964077,46.426594,48.371784,46.284485,40.360687,32.771107,26.765541,25.104719,28.700296,36.206543,44.755112,51.401737,54.511112,54.39621,52.954018,52.542866,54.67672,59.144314,63.931484,65.966019,62.370129,51.709686,34.7286,14.249028,-5.755734,-21.563101,-31.005512,-34.125172,-32.90649,-30.236067,-28.60148,-29.147343,-31.496626,-34.329464,-36.321674,-36.897236,-36.414516,-35.770626,-35.745098,-36.516323,-37.625668,-38.355843,-38.236496,-37.342369,-36.216354,-35.504173,-35.558781,-36.262493,-37.149857,-37.71748,-37.707508,-37.199306,-36.489109,-35.872742,-35.487244,-35.300087,-35.220547,-35.227901,-35.414349,-35.91362,-36.772011,-37.859348,-38.890106,-39.553001,-39.677872,-39.343575,-38.861317,-38.63596,-38.974377,-39.941029,-41.33802,-42.821346,-44.088478,-45.028568,-45.744095,-46.429596,-47.18755,-47.913513,-48.348495,-48.28619,-47.801243,-47.320095,-47.436077,-48.541489,-50.502666,-52.62326,-53.985645,-54.010708,-52.894844,-51.61026,-51.403778,-53.058365,-56.371937,-60.211975,-63.155994,-64.341408,-63.98447,-63.21764,-63.333542,-64.927063,-67.514618,-69.902115,-71.062119,-70.913383,-70.438057,-71.018356,-73.430855,-77.214058,-80.90406,-83.03627,-83.236275,-82.582573,-82.858231,-85.06337,-88.139954,-88.849464,-83.096443,-68.087387,-44.123959,-14.952054,13.623453,36.161251,49.762821,54.896748,54.560417,52.40406,50.941936,50.777,51.05109,50.589371,48.894604,46.404991,44.017902,42.371849,41.455719,40.779331,39.880547,38.708786,37.567814,36.686539,35.804939,34.165234,30.984241,26.091866,20.252747,14.881156,11.282465,9.9056664,10.111258,10.623403,10.372102,9.1631632,7.7283826,7.1291766,7.9249067,9.6739464,11.108076,10.86903,8.3275146,3.9629698,-0.91769427,-4.9149604,-7.2480245,-8.0213213,-7.9463787,-7.7738194,-7.8417659,-8.0141249,-7.9822025,-7.6555362,-7.336555,-7.5588422,-8.721817,-10.792594,-13.283306,-15.509969,-16.950874,-17.475691,-17.328659,-16.923693,-16.618399,-16.610392,-16.979631,-17.785366,-19.101107,-20.943245,-23.152128,-25.335266,-26.944769,-27.469139,-26.64336,-24.571651,-21.710253,-18.727215,-16.29747,-14.895315,-14.636341,-15.21951,-16.019846,-16.349659,-15.822108,-14.648803,-13.662714,-13.950396,-16.193316,-20.045286,-23.950348,-25.635197,-23.145721,-15.938403,-5.4186568,5.4472804,13.334344,15.997499,13.211729,6.7346349,-0.65368623,-6.4842157,-9.5902958,-10.289992,-9.7874584,-9.2520981,-9.1494408,-9.1610174,-8.6258898,-7.1344943,-4.878809,-2.5866964,-1.1573731,-1.2700225,-3.1811061,-6.7419319,-11.516625,-16.871094,-22.012819,-26.069736,-28.291664,-28.337027,-26.476772,-23.537458,-20.553156,-18.305544,-17.038563,-16.535591,-16.494392,-16.907715,-18.135679,-20.57778,-24.169621,-28.105551,-31.071205,-31.917484,-30.362274,-27.229183,-24.008963,-21.989115,-21.520857,-21.932783,-22.170811,-21.726257,-21.175795,-21.890169,-25.040304,-30.555073,-36.786713,-41.214455,-41.825943,-38.322399,-32.35112,-26.568365,-23.097418,-22.36133,-23.045179,-23.207821,-21.796564,-19.533232,-18.539448,-20.902592,-27.104803,-35.364971,-42.381363,-45.069588,-42.245422,-35.225163,-26.992451,-20.472305,-16.986816,-15.809842,-15.007586,-12.932597,-9.3591061,-5.5354729,-3.1755571,-3.1135058,-4.5508146,-5.4120698,-3.5837772,1.7693014,9.6617498,17.865658,24.239769,27.974142,29.987543,32.260803,36.549473,43.27779,51.267033,58.414513,62.866718,63.973095,62.497128,60.046848,58.146046,57.524578,57.996449,58.887127,59.64183,60.192501,60.884987,62.093395,63.849953,65.77272,67.33255,68.245171,68.683945,69.142349,70.032814,71.308716,72.396225,72.518547,71.223274,68.767067,66.083725,64.31958,64.202812,65.632607,67.749619,69.45266,70.046997,69.62558,68.953217,68.939133,70.043404,71.999496,74.023369,75.358063,75.781998,75.736496,75.987236,77.053711,78.804802,80.512039,81.340706,80.950974,79.788033,78.835884,78.970772,80.336784,82.176125,83.261055,82.673454,80.429703,77.528542,75.367271,74.889481,76.015381,77.728058,78.755424,78.384026,76.84465,74.996262,73.522453,72.214607,69.89267,65.102356,57.18652,47.019047,36.838802,29.160633,25.341368,24.65535,24.490181,21.638491,14.011365,1.8297842,-12.372093,-24.936329,-32.813744,-34.919971,-32.44746,-28.067181,-24.540354,-23.506174,-25.015057,-27.902712,-30.6504,-32.198578,-32.325531,-31.524778,-30.591576,-30.211464,-30.735464,-32.152542,-34.165291,-36.28904,-37.970089,-38.757156,-38.511364,-37.548714,-36.574131,-36.355362,-37.26408,-38.955463,-40.438759,-40.581684,-38.804569,-35.546623,-32.168999,-30.277903,-30.822363,-33.502686,-36.878845,-39.159882,-39.231293,-37.308811,-34.815048,-33.542454,-34.603848,-37.802151,-41.789268,-44.894032,-46.093719,-45.536488,-44.32832,-43.76963,-44.555748,-46.436749,-48.498398,-49.813896,-50.004818,-49.363876,-48.529739,-48.012268,-47.930202,-48.115082,-48.429302,-48.982723,-50.036125,-51.664524,-53.488152,-54.763763,-54.855988,-53.777416,-52.362469,-51.85099,-53.079971,-55.815357,-58.734486,-60.166813,-59.171017,-56.242287,-53.131756,-51.82555,-53.303444,-56.876282,-60.5425,-62.132023,-60.476162,-55.82756,-49.279324,-41.6423,-32.637146,-21.050566,-5.8187656,12.694718,32.169991,49.047096,60.161278,64.32682,62.88102,58.840492,55.202152,53.456745,53.212948,53.07214,52.059258,50.565811,50.127098,52.182854,56.694893,61.627708,63.748096,60.335808,50.785686,37.11953,23.076967,12.297676,6.6153264,5.3692212,6.0130258,5.5737224,2.1158333,-4.5178995,-12.929157,-21.060183,-27.200619,-30.616407,-31.610092,-31.129389,-30.202553,-29.470299,-28.975645,-28.248716,-26.621397,-23.629236,-19.31303,-14.254682,-9.2987909,-5.0927439,-1.7196457,1.3159958,4.694355,8.7093725,12.922788,16.345802,18.106468,18.185541,17.676296,18.279243,21.25408,26.479284,32.293217,36.337605,36.959778,34.298565,30.306393,27.611229,27.891481,30.806656,34.215885,35.594994,33.75843,29.74979,26.272552,25.979416,29.706358,35.807671,41.057175,42.569954,39.531658,33.640461,27.996128,25.16717,25.678566,27.861773,29.106327,27.650419,23.734383,19.401752,17.138632,18.283222,22.235455,26.91819,30.102163,30.675945,29.053846,26.556635,24.306229,22.463478,20.332157,17.19566,13.218541,9.7039223,8.4642954,10.698772,16.128057,22.976307,28.828585,31.825045,31.46018,28.551258,24.500444,20.410282,16.637144,12.996482,9.3520842,6.0733314,3.9888275,3.8725157,5.8591332,9.2370958,12.783028,15.402972,16.629456,16.645901,15.872144,14.470548,12.177754,8.5987816,3.7249637,-1.7579377,-6.6634808,-9.914176,-11.149137,-10.8854,-10.102177,-9.5476828,-9.2901001,-8.8642769,-7.9095297,-6.7852979,-6.6117368,-8.5789118,-12.940047,-18.431597,-22.667831,-23.421928,-20.046961,-14.082712,-8.5377083,-6.1817989,-7.8814573,-12.063774,-15.720313,-16.368164,-13.72346,-9.9762917,-8.4315748,-11.345866,-18.342873,-26.450518,-31.773298,-31.762291,-26.661549,-19.248022,-13.0852,-10.449308,-11.245317,-13.521292,-15.107761,-15.188543,-14.726431,-15.515138,-18.605125,-23.274561,-27.305042,-28.378166,-25.606943,-20.121225,-14.301106,-10.212437,-8.3596373,-7.6319623,-6.4507976,-4.2483301,-2.1545105,-2.330689,-6.3728766,-13.913602,-22.461454,-28.675779,-30.260511,-27.196127,-21.457375,-15.410362,-10.022058,-4.1825547,4.3082614,16.707367,31.655298,45.117386,52.17263,49.658577,38.067616,21.505882,5.707056,-4.7254572,-8.2499456,-6.4746118,-2.5640059,0.87774831,3.0959826,4.9754901,7.7082181,11.418606,14.749496,15.665071,12.862466,6.7900581,-0.41900736,-6.0351248,-8.1190834,-6.3528595,-1.8965964,3.4872813,8.387989,12.20319,14.977301,16.954357,18.300331,19.185986,20.021988,21.448711,23.873232,26.776085,28.334612,25.838448,16.900003,0.88785422,-20.260258,-42.432228,-60.870583,-72.098305,-75.2547,-72.179916,-66.285217,-60.889191,-57.911671,-57.506783,-58.617718,-59.937508,-60.646961,-60.584713,-59.944588,-58.882275,-57.379181,-55.42836,-53.312218,-51.658615,-51.142811,-52.002785,-53.723213,-55.171604,-55.177307,-53.229702,-49.855175,-46.405006,-44.344799,-44.452908,-46.403931,-48.986156,-50.817554,-51.124584,-50.117577,-48.753944,-48.062077,-48.465446,-49.532909,-50.299576,-49.934574,-48.312382,-46.11298,-44.387196,-43.875721,-44.533081,-45.574238,-46.015862,-45.353542,-43.92065,-42.681416,-42.587448,-43.922203,-46.072372,-47.883125,-48.36327,-47.270935,-45.194149,-43.089008,-41.612392,-40.724705,-39.839859,-38.400902,-36.44305,-34.703362,-34.160629,-35.314087,-37.72794,-40.207222,-41.528507,-41.235329,-39.929886,-38.828056,-38.872753,-40.044724,-41.401062,-41.857048,-41.152645,-40.232845,-40.614071,-43.017086,-46.149925,-46.582012,-40.061398,-23.723494,2.0079672,32.979073,62.714832,85.038742,96.573944,97.867188,92.651962,85.774574,80.953712,79.490051,80.386215,81.525352,81.071976,78.327728,73.757195,68.42778,63.357304,59.148243,55.977417,53.764465,52.313358,51.363678,50.630047,49.913322,49.244469,48.910534,49.246544,50.262318,51.36515,51.457844,49.473648,45.083237,39.113155,33.326393,29.598764,28.938488,30.947865,34.085934,36.593582,37.512337,37.158504,36.762932,37.529232,39.738194,42.485119,44.208752,43.648174,40.595852,35.974037,31.226055,27.461966,24.929193,23.120436,21.378107,19.525276,18.066051,17.826344,19.306532,22.211239,25.485592,27.833458,28.3748,27.030535,24.431,21.465389,18.797707,16.642939,14.877113,13.322934,11.971275,11.000672,10.636309,10.997897,12.050204,13.645018,15.554521,17.42754,18.721443,18.751829,16.95384,13.271989,8.4238939,3.7772207,0.78960258,0.27037573,1.9079039,4.4039373,6.1943345,6.3410769,5.0306964,3.3413298,2.4168744,2.5986714,3.1193736,2.6010323,0.049827833,-4.3229322,-9.0379534,-12.134258,-12.320649,-9.7473412,-5.893352,-2.6522567,-1.2329066,-1.6029658,-2.8130581,-3.9181654,-4.7975931,-6.2590289,-9.340066,-14.318233,-20.178591,-24.986771,-26.978207,-25.649815,-22.106592,-18.408865,-16.348074,-16.471022,-17.993368,-19.614601,-20.611849,-21.401527,-23.155115,-26.756586,-31.889591,-36.971832,-40.050697,-40.063675,-37.56781,-34.387726,-32.394806,-32.268963,-33.139233,-33.390171,-32.074066,-29.88829,-28.933203,-31.309917,-37.474831,-45.520378,-51.987907,-53.791626,-50.043613,-42.578651,-34.81094,-29.663021,-27.934893,-28.182817,-28.141504,-26.653687,-24.711254,-24.826221,-29.129177,-37.523479,-47.246445,-54.260616,-55.639248,-51.384842,-44.446087,-38.878765,-37.340763,-39.570236,-42.843494,-44.076065,-42.116974,-38.653923,-37.091656,-40.15094,-47.818577,-57.057194,-63.504761,-64.058372,-58.650665,-50.084061,-42.100231,-37.031952,-34.61758,-32.710625,-29.28582,-24.253534,-19.75654,-18.714428,-22.634655,-30.248705,-37.98,-41.989117,-40.447533,-34.522827,-27.434298,-22.251604,-19.953348,-19.056936,-17.023344,-12.402462,-6.1740985,-1.3073409,-0.8084237,-5.5885158,-13.623933,-21.008524,-24.217148,-22.091843,-16.27458,-9.8807354,-5.3876953,-3.1936643,-1.77294,0.79238653,5.0764146,9.6441965,11.93608,10.0665,4.2579489,-3.1000681,-8.806426,-10.681985,-8.6526413,-4.4283671,-0.13399658,3.0451477,5.2364745,7.1169548,8.7705336,9.2452955,7.3608632,3.3029175,-0.21211235,1.6766174,13.867857,38.501869,73.132126,111.10883,144.173,165.95206,174.49911,172.57277,165.65681,158.96254,155.1015,153.55702,151.93715,147.998,141.15489,132.71608,124.9547,119.79224,117.9353,118.85418,121.39457,124.48227,127.47174,130.05209,131.95433,132.77934,132.08881,129.65443,125.645,120.60795,115.27899,110.36833,106.44536,103.92186,103.0416,103.8047,105.86401,108.51614,110.87973,112.21814,112.2298,111.11795,109.38717,107.5034,105.65146,103.74969,101.68715,99.582794,97.855652,97.046494,97.524849,99.296165,102.0312,105.25278,108.49293,111.28368,113.02799,112.95607,110.35146,105.01786,97.703773,90.122055,84.400124,82.170197,83.799377,88.238968,93.615952,98.219856,101.27592,103.03641,104.18488,105.01887,105.02576,103.1816,98.779419,92.197731,85.036133,79.465286,77.172386,78.557297,82.661423,87.820122,92.569344,96.224457,98.841255,100.73055,101.98049,102.34931,101.51978,99.371284,95.907677,90.807503,82.979568,70.651535,52.220932,27.520109,-1.2981982,-29.991882,-53.713333,-69.084885,-75.736328,-76.385933,-75.354332,-76.32132,-80.588928,-86.802315,-92.192719,-94.498825,-93.361099,-90.377953,-87.891556,-87.365395,-88.429642,-89.196609,-87.614822,-82.975456,-76.607338,-71.315765,-69.889366,-73.542397,-81.173302,-89.833275,-96.125587,-97.784187,-94.63842,-88.534203,-82.318802,-78.428177,-77.758904,-79.334969,-80.900551,-80.151779,-76.029022,-69.441856,-63.02795,-59.983147,-62.469135,-70.376884,-81.125259,-90.698341,-95.48159,-93.987465,-87.556664,-79.63176,-73.971344,-72.770714,-75.715729,-80.462463,-84.208893,-85.39724,-84.537094,-83.697426,-85.0336,-89.286972,-95.177307,-100.03092,-101.23078,-97.610924,-90.014206,-80.787064,-72.616508,-67.425484,-65.878899,-67.582794,-71.632973,-77.061394,-82.959419,-88.397369,-92.428352,-94.337898,-94.005417,-92.047806,-89.510269,-87.212212,-85.184425,-82.665665,-78.780357,-73.504875,-68.219604,-65.308434,-66.861542,-73.195137,-82.164482,-89.877464,-92.586426,-88.749825,-80.032394,-70.550064,-64.680122,-64.643715,-69.266327,-74.67823,-76.591866,-72.854424,-64.789894,-56.536247,-52.744682,-55.954174,-65.132294,-76.190422,-84.150864,-85.728722,-80.907585,-72.70977,-65.397148,-62.181049,-63.707798,-68.060928,-72.128998,-73.456612,-71.519417,-67.788979,-64.685349,-64.116829,-66.456306,-70.46814,-74.11898,-75.730667,-74.813416,-72.174461,-69.340874,-67.695877,-67.820473,-69.345886,-71.303963,-72.706856,-73.022728,-72.337578,-71.19809,-70.287315,-70.120636,-70.879669,-72.400269,-74.266518,-75.957359,-77.014641,-77.208305,-76.651855,-75.798767,-75.273476,-75.572922,-76.775887,-78.439476,-79.790298,-80.148453,-79.354523,-77.922562,-76.775688,-76.676521,-77.687462,-79.02639,-79.471687,-78.124756,-75.074486,-71.513657,-69.161575,-69.281097,-71.869072,-75.542183,-78.2425,-78.381477,-75.747375,-71.620712,-68.018517,-66.527077,-67.440048,-69.721359,-71.782417,-72.543259,-72.078423,-71.441902,-71.823761,-73.638557,-76.179901,-78.075745,-78.221275,-76.5364,-74.021255,-72.076035,-71.566307,-72.287781,-73.194435,-73.206039,-71.997803,-70.194191,-68.830437,-68.491692,-68.790291,-68.604004,-66.933395,-63.753361,-60.197353,-57.872208,-57.742641,-59.380322,-61.162827,-61.350586,-59.3209,-56.072926,-53.589169,-53.445511,-55.638184,-58.506935,-59.894882,-58.782253,-56.20219,-54.640789,-56.132465,-60.230988,-63.287762,-59.767857,-45.074753,-18.328009,16.57325,52.345688,81.503036,99.605545,106.83035,107.11652,105.545,105.56878,107.65504,109.92809,110.15379,107.66389,103.99757,101.9577,103.80988,109.84142,118.18156,125.92579,130.78993,132.25166,131.54263,130.61942,130.85516,132.28853,133.82942,134.18065,132.80821,130.32848,128.10716,127.38017,128.4805,130.64491,132.48436,132.79779,131.23346,128.43236,125.61694,123.90198,123.72987,124.72306,125.99051,126.67887,126.44933,125.62933,124.97972,125.22465,126.61047,128.73613,130.74953,131.80757,131.55251,130.34152,129.09274,128.81802,130.08958,132.73198,135.91216,138.57796,139.9984,140.10304,139.43945,138.79509,138.72427,139.26469,139.99599,140.37498,140.11542,139.37053,138.61908,138.35147,138.77112,139.69611,140.70094,141.38206,141.5703,141.37512,141.07295,140.94505,141.1705,141.80252,142.77962,143.91368,144.86145,145.15424,144.35793,142.33781,139.47763,136.65939,134.91792,134.89795,136.42393,138.49442,139.79343,139.48018,137.78909,136.01451,135.783,137.9505,141.73668,144.6371,143.2531,134.67462,117.7394,93.554718,65.067665,35.962704,9.4693928,-12.379867,-28.829468,-39.992996,-46.346413,-48.449131,-46.969959,-42.849045,-37.347298,-31.851313,-27.505926,-24.884096,-23.884598,-23.902472,-24.15826,-24.007685,-23.108696,-21.434946,-19.20219,-16.771254,-14.538491,-12.793323,-11.55512,-10.472979,-8.9025002,-6.2050614,-2.1645737,2.7141647,7.260149,10.107339,10.388211,8.2744579,5.0206456,2.4210827,1.9296876,3.9119091,7.4508834,10.831271,12.443775,11.616117,8.9228868,5.8271155,3.8804951,3.9389405,5.810863,8.4859018,10.760056,11.872817,11.804623,11.110987,10.445519,10.088579,9.7674952,8.861762,6.8528261,3.7365425,0.14215152,-2.9274931,-4.6012473,-4.6135845,-3.4791098,-2.2589898,-2.0343382,-3.367923,-6.0484452,-9.258172,-12.065619,-13.956229,-15.089791,-16.134542,-17.784847,-20.265295,-23.135065,-25.517323,-26.606293,-26.123989,-24.433247,-22.246471,-20.148302,-18.282282,-16.436728,-14.471109,-12.752742,-12.224266,-13.953572,-18.390215,-24.812752,-31.399832,-35.99538,-37.181759,-35.027912,-31.028688,-27.230352,-25.052841,-24.53443,-24.480125,-23.427876,-20.811644,-17.549473,-15.629591,-16.904713,-21.828581,-28.940601,-35.463272,-38.695953,-37.393463,-32.325069,-25.712713,-19.929783,-16.272186,-14.527664,-13.533375,-12.278152,-10.780068,-10.151836,-11.824151,-16.460482,-23.299652,-30.381201,-35.533348,-37.512699,-36.592728,-34.256977,-32.222202,-31.42753,-31.619581,-31.755867,-30.91321,-29.071573,-27.243967,-26.864458,-28.835608,-32.858616,-37.486141,-40.876606,-41.787647,-40.205673,-37.248192,-34.434174,-32.800255,-32.410236,-32.530201,-32.307564,-31.478712,-30.629511,-30.835024,-32.909916,-36.751202,-41.199047,-44.5219,-45.254116,-42.908752,-38.173489,-32.509167,-27.412678,-23.774578,-21.669092,-20.632658,-20.196486,-20.311064,-21.399174,-24.02368,-28.398426,-34.061142,-39.922554,-44.677792,-47.355267,-47.704205,-46.222164,-43.830811,-41.401474,-39.401817,-37.848221,-36.558567,-35.518353,-35.102779,-35.980621,-38.716869,-43.285412,-48.787491,-53.590965,-55.893009,-54.474281,-49.284962,-41.560631,-33.388008,-26.913839,-23.567774,-23.653009,-26.455978,-30.75235,-35.396664,-39.680958,-43.325657,-46.206268,-48.071522,-48.481232,-47.013977,-43.591167,-38.675541,-33.186611,-28.171614,-24.437649,-22.369192,-22.011612,-23.30028,-26.207403,-30.651054,-36.218895,-41.949509,-46.434238,-48.310757,-46.931904,-42.809704,-37.504814,-32.941082,-30.487778,-30.328562,-31.491331,-32.521156,-32.38232,-31.035248,-29.34737,-28.431599,-28.875977,-30.386242,-32.068386,-33.129044,-33.476429,-33.770809,-34.865494,-37.030945,-39.549786,-41.056618,-40.497208,-38.12233,-35.827518,-36.494724,-42.588337,-54.73938,-71.11409,-87.958931,-101.08037,-107.5241,-106.64177,-100.09136,-90.882362,-82.022812,-75.431519,-71.540535,-69.611862,-68.463684,-67.189682,-65.558678,-63.991909,-63.210022,-63.752705,-65.596657,-68.050392,-70.00045,-70.432686,-68.996605,-66.300484,-63.70509,-62.632957,-63.718433,-66.29837,-68.628708,-68.816643,-65.991425,-61.002251,-56.129734,-53.864113,-55.41357,-59.857666,-64.544357,-66.589935,-64.624336,-59.701382,-54.750027,-52.831131,-55.235184,-60.605949,-65.675346,-67.201118,-63.933895,-57.399403,-51.004986,-48.017834,-49.65844,-54.467186,-59.294983,-61.260811,-59.449089,-55.332809,-51.740662,-51.086246,-53.976044,-58.991413,-63.653255,-65.862022,-64.908234,-61.543224,-57.26363,-53.42514,-50.775284,-49.55965,-49.875225,-51.784588,-54.971291,-58.185535,-59.023155,-54.451191,-42.006371,-21.083452,6.4347315,36.638607,64.971542,87.842819,103.68893,113.05221,117.80704,120.07597,121.41778,122.57411,123.67648,124.59834,125.18627,125.3129,124.86581,123.79375,122.20789,120.42527,118.86199,117.82378,117.36617,117.3724,117.81186,118.93967,121.16537,124.53399,128.103,129.71046,126.50742,116.1871,98.342117,75.161407,50.937981,30.486427,17.204515,11.759151,12.064943,14.527173,15.850574,14.461463,10.879427,7.0027981,4.8490276,5.4924011,8.7017298,13.303835,17.902676,21.485086,23.640472,24.426691,24.111849,23.010376,21.473507,19.938992,18.908739,18.810005,19.814312,21.737904,24.095839,26.280571,27.767235,28.255093,27.713984,26.356731,24.56632,22.785143,21.368839,20.442539,19.842899,19.224152,18.318008,17.209255,16.421747,16.685919,18.462807,21.503731,24.770847,26.859972,26.744331,24.405922,20.932421,17.959532,16.755903,17.503712,19.233948,20.470936,20.181925,18.422514,16.264479,15.065735,15.5767,17.476841,19.631889,20.865881,20.697956,19.540344,18.254263,17.426394,16.925053,16.079704,14.354191,11.997167,10.140237,10.196745,12.926029,17.801521,23.149332,27.013422,28.205763,26.865818,24.183798,21.511049,19.492237,17.818937,15.747169,12.965423,10.140703,8.6957197,9.9253216,14.052028,19.896473,25.435106,28.910097,29.76886,28.817667,27.506748,26.855913,26.769644,26.210951,24.098322,20.280289,15.882627,12.754993,12.367294,14.888649,19.060783,22.939814,25.000906,24.878046,23.291645,21.293873,19.425621,17.407444,14.568584,10.659953,6.4022989,3.3033562,2.8093638,5.3561935,9.9920759,14.870523,18.313932,19.744059,19.854427,19.916376,20.709972,21.837744,21.921198,19.571049,14.477767,7.8671412,1.9790066,-1.1222217,-0.65167266,2.570426,6.7441211,10.215613,12.349837,13.609408,14.87,16.528419,18.080093,18.482609,17.043373,14.180107,11.476501,10.937174,13.900035,20.304394,28.776793,37.449947,44.953259,50.930656,55.80077,60.015285,63.413666,65.179665,64.450157,61.136131,56.338039,52.002304,49.987862,51.128559,54.894672,59.860275,64.643364,68.674896,72.285973,76.089294,80.136169,83.504242,84.685516,82.585548,77.487366,71.292122,66.767555,66.155464,69.918472,76.367142,82.41803,85.087608,82.912552,76.544205,68.244759,60.623592,55.338184,52.445469,50.677872,48.394917,44.623772,39.616894,34.676727,31.416828,30.90958,33.177795,37.25227,41.693336,45.247017,47.282005,47.82259,47.239441,45.843567,43.652355,40.461792,36.153202,31.011076,25.818737,21.635532,19.358374,19.310205,21.090429,23.770229,26.312735,27.972052,28.457094,27.813061,26.16227,23.527113,19.874542,15.334076,10.387267,5.8264322,2.4446397,0.63389629,0.17222752,0.37862784,0.5629887,0.46863055,0.37711585,0.76267487,1.715239,2.5620136,2.0360498,-1.0115097,-6.7598948,-13.999868,-20.508703,-24.095224,-23.739799,-20.143938,-15.335698,-11.554738,-10.095409,-10.811468,-12.55444,-14.205549,-15.574528,-17.539129,-21.324789,-27.423393,-34.916767,-41.717751,-45.633121,-45.595383,-42.280502,-37.717167,-34.141296,-32.825706,-33.604725,-35.332561,-36.893372,-38.039101,-39.489075,-42.260876,-46.739445,-52.163452,-56.90686,-59.378345,-58.939404,-56.238258,-52.761047,-49.923298,-48.303841,-47.480053,-46.480663,-44.454151,-41.051861,-36.296936,-30.137222,-22.135176,-11.63974,1.6079886,16.864199,32.271469,45.444469,54.46534,58.684628,58.81448,56.255589,52.114403,46.583443,39.113037,29.253588,17.564075,5.9031234,-3.1901598,-7.7094126,-7.2531099,-3.2769651,1.6491922,5.1346793,6.0337853,4.6771154,2.2146909,-0.41738826,-3.1884346,-6.8805308,-12.328454,-19.566586,-27.508911,-34.409122,-38.805473,-40.321457,-39.792004,-38.642696,-37.951187,-37.825436,-37.507492,-36.112118,-33.476437,-30.520769,-28.849785,-29.832989,-33.753761,-39.576305,-45.481476,-49.832397,-51.969189,-52.36311,-52.08617,-51.988663,-52.140682,-51.890915,-50.471931,-47.720013,-44.410229,-41.96653,-41.713608,-44.12701,-48.532845,-53.425102,-57.198017,-58.864727,-58.379078,-56.443802,-53.994579,-51.70681,-49.802097,-48.204121,-46.867027,-46.014019,-46.115425,-47.626625,-50.665039,-54.837051,-59.32283,-63.167706,-65.615646,-66.316299,-65.331345,-62.989639,-59.71521,-55.938576,-52.118446,-48.808189,-46.660938,-46.304638,-48.111118,-51.971832,-57.220169,-62.781651,-67.516502,-70.608803,-71.819786,-71.487953,-70.294098,-68.936134,-67.899269,-67.431145,-67.68515,-68.875114,-71.275719,-75.023262,-79.841042,-84.91452,-89.082443,-91.312141,-91.211746,-89.255508,-86.537781,-84.16124,-82.622627,-81.600853,-80.320351,-78.2854,-75.900917,-74.515366,-75.761421,-80.531395,-88.21138,-96.701454,-103.30233,-106.01481,-104.5181,-100.25646,-95.586868,-92.500908,-91.680771,-92.423363,-93.411491,-93.781418,-93.768387,-94.509476,-97.147385,-101.84331,-107.37266,-111.6068,-112.61968,-109.76009,-104.04671,-97.652672,-92.78508,-90.603249,-90.763657,-91.79081,-92.002846,-90.447067,-87.356537,-83.951012,-81.765244,-81.8918,-84.497711,-88.779251,-93.299522,-96.519981,-97.318932,-95.343163,-91.105682,-85.801788,-80.88134,-77.499931,-76.050133,-75.987381,-76.067001,-74.918983,-71.699097,-66.486534,-60.212193,-54.150307,-49.250439,-45.677784,-42.806808,-39.647057,-35.432411,-30.02618,-23.926792,-17.912807,-12.577375,-8.0433216,-4.0070519,-0.037691701,4.0942121,8.2745743,12.156646,15.414502,17.946737,19.897871,21.511831,22.953011,24.239569,25.331369,26.284321,27.326439,28.771992,30.822357,33.402199,36.16663,38.692657,40.725929,42.302822,43.655514,44.97773,46.252766,47.318428,48.164303,49.245083,51.512283,56.006321,63.150623,72.158447,80.99987,87.108688,88.565765,85.143158,78.578239,71.824371,67.605789,67.048492,69.17942,71.632988,72.215271,70.448822,68.178787,68.814667,75.547249,89.482712,108.72579,128.95734,145.25476,154.23741,155.45009,151.31174,145.71725,142.0685,141.76357,143.87341,146.07175,146.22333,143.72867,139.9081,137.26292,138.06171,143.04419,150.94415,159.07257,164.63171,166.05252,163.65778,159.33575,155.44724,153.58977,153.89003,155.16832,155.81242,154.80153,152.26425,149.26553,147.00305,145.95833,145.56342,144.60303,142.08751,138.01526,133.50073,130.14633,129.03015,129.94806,131.40942,131.42343,128.61771,123.01919,116.03249,109.6435,105.34032,103.39232,102.87832,102.38116,100.87545,98.264427,95.290665,92.955208,91.860222,91.879768,92.30378,92.291046,91.312515,89.34111,86.755791,84.10656,81.915535,80.58403,80.352982,81.238098,82.943642,84.857422,86.230034,86.514244,85.678772,84.260277,83.056679,82.620056,82.893188,83.2826,83.168739,82.50415,82.006836,82.66687,84.754829,86.948425,86.259956,79.046974,62.728405,37.318901,5.8875446,-26.406822,-54.259018,-74.139481,-85.22628,-88.98233,-87.809555,-83.699127,-77.677658,-70.224129,-62.135895,-55.02597,-50.935879,-51.23418,-55.55864,-61.628071,-66.225822,-66.875618,-63.216602,-57.202728,-51.953125,-49.926918,-51.537254,-55.057629,-57.860874,-58.182434,-56.260639,-54.102562,-54.008972,-56.804596,-60.939308,-63.105179,-60.073212,-50.678757,-36.757858,-22.438757,-12.154984,-8.4864302,-11.016529,-16.786396,-22.011751,-24.050947,-22.550097,-19.238615,-16.644268,-16.564217,-19.163568,-23.111063,-26.523151,-28.062731,-27.54697,-25.799578,-23.963058,-22.769333,-22.21213,-21.752695,-20.845366,-19.403643,-17.91503,-17.164337,-17.766376,-19.798151,-22.729305,-25.659937,-27.711535,-28.364904,-27.602642,-25.832941,-23.671518,-21.697723,-20.281403,-19.529028,-19.347031,-19.580513,-20.158588,-21.17063,-22.820915,-25.266365,-28.413919,-31.799351,-34.649563,-36.140499,-35.745892,-33.499523,-30.020142,-26.270372,-23.170361,-21.271349,-20.656607,-21.0961,-22.326401,-24.257084,-26.966599,-30.50066,-34.625919,-38.725967,-41.935883,-43.457561,-42.88512,-40.369411,-36.555214,-32.356033,-28.700861,-26.358198,-25.853342,-27.425213,-30.973146,-36.01067,-41.702374,-47.045605,-51.164921,-53.581631,-54.296955,-53.626186,-51.8908,-49.194706,-45.47654,-40.840248,-35.936886,-32.066643,-30.792084,-33.153755,-38.880325,-46.082806,-51.72506,-52.757778,-47.417915,-36.05912,-21.083595,-5.9874206,6.0295987,13.236805,15.809202,15.391176,14.073723,13.322249,13.366487,13.301055,11.79038,7.9920878,2.2250285,-3.9637733,-8.3964071,-9.2733307,-6.1287289,-0.25735548,5.6440172,8.5142612,6.1958985,-1.657945,-13.476207,-26.509802,-38.035995,-46.412548,-51.471622,-54.129631,-55.531403,-56.281261,-56.205196,-54.716148,-51.465141,-46.803337,-41.74522,-37.48328,-34.807106,-33.820457,-34.114178,-35.219452,-36.976448,-39.538971,-43.025608,-47.104984,-50.862751,-53.099003,-52.893353,-50.078838,-45.324757,-39.794971,-34.626175,-30.561069,-27.91984,-26.824789,-27.414703,-29.828554,-33.959686,-39.202091,-44.450672,-48.441109,-50.254887,-49.67395,-47.161739,-43.509098,-39.417229,-35.315407,-31.505747,-28.448362,-26.868912,-27.500916,-30.579847,-35.4529,-40.653526,-44.497204,-45.880974,-44.789207,-42.17189,-39.275028,-36.880558,-34.980103,-33.098759,-31.006569,-29.245779,-28.996704,-31.261848,-35.863808,-40.965149,-43.557892,-40.781185,-31.382202,-16.491835,0.75216663,16.554945,28.069044,34.424706,36.718739,37.087658,37.456139,38.639164,40.186661,40.910213,39.698818,36.170803,30.892664,25.160696,20.526108,18.284662,19.09095,22.778482,28.415602,34.590027,39.856205,43.20142,44.339802,43.692196,42.058468,40.16412,38.344639,36.549591,34.638851,32.742081,31.400057,31.351011,33.074993,36.394222,40.413387,43.872719,45.717968,45.548603,43.687218,40.863415,37.751877,34.679241,31.67049,28.750404,26.230509,24.727974,24.865435,26.844177,30.193323,33.89439,36.833694,38.313908,38.313118,37.344482,36.030884,34.691338,33.218006,31.318384,28.943399,26.587795,25.222824,25.856838,28.965649,34.13459,40.142529,45.461933,48.904057,50.054707,49.27486,47.305454,44.75555,41.81916,38.410793,34.620663,31.143932,29.298323,30.461939,35.13295,42.122494,48.436817,50.11512,43.788475,28.278736,5.4306974,-20.324316,-43.567974,-59.954121,-67.76548,-68.244278,-64.594894,-60.230846,-57.197208,-55.551556,-53.922756,-50.812088,-45.82143,-40.09079,-35.723064,-34.570362,-37.109127,-42.055397,-46.931271,-49.257923,-47.722103,-42.710865,-35.98061,-29.696711,-25.38756,-23.352203,-22.772564,-22.388433,-21.311476,-19.52212,-17.806046,-17.212595,-18.375656,-21.093794,-24.402225,-27.080591,-28.291454,-27.971544,-26.744492,-25.407579,-24.306601,-22.996077,-20.430197,-15.619099,-8.3923922,0.18812303,8.0591326,12.974538,13.519721,9.7992086,3.433404,-3.1387148,-7.6929765,-9.0718718,-7.4624786,-4.0350404,-0.21290371,2.9981256,5.2856021,6.8432498,7.9251614,8.4680958,8.0273695,6.0548043,2.3333395,-2.7078519,-8.000782,-12.189579,-14.159637,-13.486917,-10.589741,-6.5128975,-2.4532537,0.73813194,2.8315787,4.1394386,5.1374764,6.0129671,6.4227772,5.6409941,3.0503771,-1.2961869,-6.4072247,-10.612372,-12.288634,-10.690191,-6.4055767,-1.1369123,3.1239243,5.0790524,4.7043748,3.0853057,1.6171564,1.0772949,1.1641884,0.80359346,-0.97856635,-4.2022963,-7.6949372,-9.6774654,-8.8428507,-5.2473869,-0.42284638,3.4070313,4.5553522,2.8040221,-0.52985013,-3.4295068,-4.3998451,-3.3327181,-1.510363,-0.77802622,-2.4106312,-6.3494596,-11.222736,-15.080707,-16.380995,-14.680059,-10.725612,-6.0133948,-2.1280751,-0.20677641,-0.69294149,-3.3502903,-7.4176803,-11.825392,-15.468021,-17.534498,-17.811821,-16.793333,-15.449773,-14.696793,-14.817801,-15.20489,-14.647268,-12.071737,-7.3213181,-1.4712939,3.5808823,6.0783534,5.3804898,2.3637614,-1.0198306,-2.7933054,-2.010972,0.78753173,3.9693334,5.7863746,5.3487821,3.0404904,0.18827139,-1.7558697,-2.0034478,-0.74885195,1.094384,2.5015638,2.8887622,2.309711,1.2616739,0.30089694,-0.26320407,-0.43766063,-0.40707865,-0.33824962,-0.27461836,-0.16418628,0.042577337,0.32252565,0.58771706,0.74694067,0.75801587,0.63017279,0.38821745,0.042783339,-0.4036431,-0.92791533,-1.4756811,-1.9948456,-2.493057,-3.0654652,-3.8520372,-4.9384718,-6.2676334,-7.632977,-8.7719126,-9.5037241,-9.8211126,-9.8770895,-9.8864803,-10.022861,-10.387408,-11.058022,-12.151163,-13.810433,-16.096588,-18.848627,-21.636267,-23.879982,-25.098513,-25.139774,-24.243443,-22.888491,-21.525583,-20.374088,-19.412186,-18.540731,-17.768471,-17.254482,-17.167889,-17.489838,-17.951967,-18.20892,-18.141956,-18.044371,-18.483784,-19.870295,-22.023144,-24.107826,-25.105061,-24.579138,-23.207279,-22.57065,-24.13611,-27.93861,-31.81764,-31.880032,-24.190987,-6.9091082,18.319418,46.603268,71.714455,88.739494,96.08963,95.819756,92.153687,89.113976,88.608368,89.971664,91.039818,89.92646,86.334373,81.64122,77.848022,76.202721,76.452148,77.179199,76.913521,75.191933,72.821396,71.185059,71.111664,72.130272,72.658173,71.017921,66.601051,60.384769,54.434555,50.696903,49.853149,50.960255,52.089958,51.541088,48.85688,45.038055,41.875008,40.868465,42.419296,45.737675,49.43457,52.348778,54.082657,54.98225,55.689308,56.64053,57.848812,59.041939,59.967113,60.586151,61.021469,61.339466,61.391151,60.87281,59.578289,57.646866,55.600399,54.117214,53.687256,54.380821,55.876076,57.698067,59.475067,61.02816,62.265049,63.021008,63.03669,62.140209,60.504475,58.741329,57.677597,57.890198,59.292606,61.08778,62.189728,61.894768,60.37801,58.660351,58.013863,59.146343,61.677559,64.262817,65.321724,63.943748,60.418003,56.055954,52.403076,50.300228,49.334179,47.973686,44.288017,36.838116,25.287077,10.488266,-5.8855748,-21.905111,-35.86676,-46.568184,-53.41116,-56.425682,-56.253376,-54.040306,-51.171001,-48.861687,-47.759277,-47.752872,-48.127754,-48.007404,-46.85207,-44.735081,-42.241524,-40.058895,-38.516747,-37.365364,-35.940392,-33.62722,-30.354902,-26.82078,-24.288475,-24.032393,-26.696346,-31.891188,-38.249031,-43.934486,-47.391743,-47.986317,-46.240616,-43.54985,-41.513191,-41.205906,-42.749733,-45.387035,-47.998436,-49.766056,-50.608475,-51.15065,-52.267014,-54.487583,-57.631283,-60.880466,-63.231567,-64.028572,-63.254555,-61.436039,-59.276485,-57.296238,-55.710033,-54.565277,-53.957745,-54.096241,-55.135742,-56.920452,-58.887684,-60.28064,-60.568531,-59.774109,-58.434757,-57.183773,-56.248035,-55.269066,-53.645943,-51.193256,-48.604572,-47.273319,-48.459324,-52.31636,-57.514488,-61.87759,-63.761749,-63.285763,-62.46307,-63.908936,-68.761627,-75.12603,-78.215042,-72.418358,-54.315029,-24.938864,10.094753,42.813774,66.323059,77.608589,78.273232,73.000298,66.829941,62.882771,61.682949,62.10276,62.951225,63.996761,65.826233,68.894058,72.700203,75.853554,77.006111,75.892113,73.560333,71.47567,70.062904,67.797173,61.681831,49.030079,29.505936,6.0656471,-15.967083,-31.313278,-37.302086,-35.111073,-28.986584,-23.943369,-23.2994,-27.402431,-34.097134,-40.419369,-44.362041,-45.688244,-45.504314,-45.113579,-45.031712,-44.787289,-43.509151,-40.773548,-37.084251,-33.691589,-31.935131,-32.576878,-35.519733,-39.990795,-44.968967,-49.555222,-53.127037,-55.327625,-56.035069,-55.385242,-53.784306,-51.794144,-49.870468,-48.098305,-46.143639,-43.528858,-40.099457,-36.362614,-33.407726,-32.378071,-33.783665,-37.096661,-40.923603,-43.685539,-44.400368,-43.087452,-40.563591,-37.804653,-35.331371,-33.042755,-30.590775,-27.994184,-26.004711,-25.896482,-28.745518,-34.632416,-42.290462,-49.470634,-53.866707,-54.11079,-50.316967,-43.923622,-36.98151,-31.308281,-27.934765,-27.033016,-28.214762,-30.911186,-34.579395,-38.670982,-42.496655,-45.195263,-45.926464,-44.226944,-40.324184,-35.187771,-30.22801,-26.750759,-25.429832,-26.072701,-27.814823,-29.650993,-31.019575,-32.109821,-33.702408,-36.616501,-41.078583,-46.401226,-51.200104,-54.060925,-54.278435,-52.218258,-49.066082,-46.114155,-44.047112,-42.707943,-41.508648,-40.189758,-39.34256,-40.21904,-43.836937,-49.938866,-56.591217,-60.895218,-60.570194,-55.500809,-48.191227,-42.617573,-41.942467,-46.358578,-52.41608,-54.429993,-47.360283,-29.630011,-4.2836027,22.228109,43.020123,53.898888,54.980793,50.040592,44.126774,40.900948,41.175388,43.283081,44.780678,44.263397,42.162655,40.172318,39.86097,41.49065,43.824371,44.982178,43.707031,40.178158,35.866955,32.589722,31.419662,32.159904,33.661144,34.700638,34.802067,34.467873,34.721954,36.318531,39.164944,42.329659,44.604939,45.239555,44.372025,42.910755,41.965832,42.20385,43.515625,45.166985,46.298836,46.446705,45.769924,44.885628,44.450996,44.774628,45.689274,46.730488,47.466961,47.747887,47.71418,47.601452,47.513786,47.361629,47.022213,46.59132,46.492062,47.278751,49.190666,51.729012,53.587791,53.096302,49.014374,41.260101,31.129259,20.826075,12.522559,7.4490037,5.5043907,5.5615096,6.2276115,6.5733728,6.4174914,6.0873919,5.9301286,5.9759774,5.9830542,5.7599039,5.4339142,5.3858747,5.8658752,6.6091657,6.8290663,5.7034879,3.0682056,-0.2069331,-2.5408688,-2.5817206,-0.20757499,3.1047192,4.8925939,3.0267162,-3.0363405,-11.857551,-20.764179,-27.326553,-30.690735,-31.988186,-33.617252,-37.867023,-45.701,-56.344063,-67.779442,-77.740158,-84.595245,-87.740936,-87.495323,-84.76162,-80.718575,-76.602119,-73.483452,-71.980171,-72.010399,-72.816063,-73.376129,-73.039406,-71.963989,-70.99929,-71.01992,-72.169342,-73.629677,-74.211685,-73.426796,-72.219368,-72.621864,-76.290138,-82.753654,-88.638756,-88.696571,-78.366104,-56.513695,-26.67111,4.1524439,28.592545,42.299198,45.678513,43.097828,40.160824,40.754551,45.562115,52.676426,59.583679,65.020668,69.506569,74.420052,80.537132,87.234619,92.947968,96.461487,97.972412,99.070244,101.62906,106.45716,112.73923,118.69968,122.97786,125.65318,128.11856,131.88454,137.23709,142.82086,146.54056,147.15611,145.35423,143.38515,143.37595,145.44864,147.03185,144.02596,133.23457,114.56342,91.552994,69.833237,54.388905,47.246742,46.880253,49.520454,51.416267,50.641155,47.514954,43.697998,40.813736,39.564476,39.753681,40.89933,42.766918,45.373726,48.566967,51.676971,53.672176,53.778114,52.070366,49.50304,47.252037,45.815723,44.569027,42.181408,37.670143,31.343969,24.904457,20.539474,19.570791,21.57729,24.625963,26.492002,26.061152,23.973083,22.083939,22.136438,24.55896,28.201784,31.151024,32.01757,30.800501,28.764153,27.481819,27.768221,29.25021,30.817167,31.538137,31.315306,30.782734,30.563173,30.504713,29.551844,26.433306,20.718859,13.472836,6.9624705,3.5126057,4.1958356,8.188796,13.209608,16.759714,17.393612,15.259306,11.660038,8.0261669,5.0262008,2.3802607,-0.58914649,-4.1459165,-7.6949105,-10.035254,-10.134627,-7.8792424,-4.2749128,-0.95249557,0.70340496,0.24617267,-1.7396302,-4.1589012,-6.1638274,-7.6459475,-9.1650915,-11.402666,-14.532984,-17.943155,-20.492001,-21.148251,-19.612505,-16.544504,-13.262291,-11.092312,-10.740738,-12.023185,-14.067788,-15.836808,-16.651674,-16.437778,-15.594316,-14.620013,-13.75409,-12.855769,-11.577106,-9.6932354,-7.3583879,-5.1123133,-3.6280174,-3.3603399,-4.3152666,-6.0754719,-8.0456486,-9.7402992,-10.92296,-11.528922,-11.474193,-10.545944,-8.5087337,-5.3829985,-1.6849537,1.6067755,3.4346075,3.2248542,1.2927719,-1.2026032,-2.7948179,-2.471225,-0.23005217,2.8966513,5.3761292,5.9603724,4.283401,0.96330833,-2.7895794,-5.7800927,-7.2996373,-7.2642946,-6.0700946,-4.3712935,-2.9511783,-2.6837962,-4.4423504,-8.8314018,-15.801064,-24.393213,-32.892479,-39.444191,-42.877884,-43.269455,-41.865627,-40.360485,-39.930904,-40.620209,-41.461285,-41.260494,-39.525932,-36.915245,-34.884296,-34.743996,-36.730762,-39.699715,-41.655533,-40.806046,-36.507118,-29.562035,-21.762188,-15.012468,-10.575407,-8.7967815,-9.3019457,-11.363061,-14.129951,-16.658783,-17.936529,-17.146748,-14.19526,-10.187974,-7.409502,-8.55935,-15.473499,-27.983831,-43.627148,-58.509243,-68.97377,-73.221291,-72.005074,-68.030571,-64.415176,-63.081993,-63.961941,-65.374001,-65.267456,-62.551567,-57.760815,-52.749626,-49.681797,-49.934071,-53.499134,-59.12524,-65.012154,-69.636284,-72.299438,-73.212975,-73.181664,-73.106697,-73.545578,-74.491837,-75.4328,-75.646378,-74.6147,-72.373672,-69.613403,-67.431572,-66.810883,-68.068054,-70.589317,-73.052956,-74.076385,-72.959335,-70.09996,-66.819328,-64.666588,-64.590408,-66.45179,-69.155121,-71.305603,-71.993484,-71.248047,-69.925247,-69.14286,-69.630867,-71.375717,-73.720764,-75.800743,-77.018448,-77.301048,-77.048264,-76.867599,-77.270981,-78.467323,-80.295113,-82.279778,-83.794075,-84.303413,-83.64209,-82.196716,-80.844391,-80.579132,-81.954262,-84.65152,-87.50206,-89.058578,-88.45533,-86.032768,-83.263779,-81.921768,-82.949203,-85.764015,-88.541824,-89.401749,-87.775169,-85.000565,-83.585388,-85.416664,-89.967972,-93.71698,-91.378769,-78.493431,-54.02356,-21.48349,12.137699,39.196407,54.537079,57.38126,51.108772,41.227055,32.726826,28.188671,27.418123,28.467175,29.212017,28.54904,26.699053,24.719004,23.719601,24.29468,26.387112,29.502251,33.038227,36.555401,39.931515,43.409313,47.516541,52.811306,59.475033,66.927994,73.750496,78.111298,78.618942,75.183861,69.354744,63.815922,61.211163,62.899708,68.346436,75.502357,81.94519,86.097191,87.818558,88.099419,88.15477,88.574524,89.073723,88.92408,87.669281,85.567009,83.453354,82.17907,82.077042,82.86132,83.993927,85.179512,86.557365,88.423035,90.719437,92.759148,93.487068,92.167717,89.010086,85.227547,82.409714,81.592239,82.664619,84.544891,86.005928,86.553749,86.703209,87.431892,89.215462,91.393524,92.408028,90.820297,86.403641,80.487175,75.217918,72.185661,71.361778,71.145233,69.560242,65.815224,61.114265,58.067287,58.996407,64.234436,71.589348,77.418022,78.686523,74.713669,67.473389,60.265411,55.632195,53.885544,53.182316,51.045315,46.265858,39.89156,34.638756,33.132408,36.147762,42.002598,47.468616,49.579285,47.171894,41.245422,34.037251,27.542906,22.481018,18.29892,14.050137,9.4008064,5.0126591,2.0660491,1.3262435,2.462224,4.1072607,4.5972238,2.8518224,-1.1941844,-6.8345857,-13.235298,-19.944597,-26.896011,-33.965366,-40.513741,-45.369259,-47.359047,-46.058239,-42.215473,-37.507744,-33.739471,-31.996447,-32.303242,-33.978275,-36.38472,-39.495846,-43.836426,-49.832268,-57.062035,-64.022362,-68.6884,-69.594933,-66.762115,-61.835217,-57.287174,-55.136211,-55.955574,-58.775909,-61.912827,-64.162773,-65.585083,-67.371002,-70.903671,-76.640938,-83.565346,-89.578247,-92.61232,-91.788574,-87.927361,-83.132698,-79.730499,-79.198952,-81.676788,-86.235313,-91.628807,-96.993683,-102.07977,-106.96079,-111.52733,-115.1841,-116.99835,-116.21425,-112.79093,-107.60313,-102.16052,-98.002556,-96.1119,-96.653603,-99.128334,-102.77827,-106.96129,-111.2774,-115.42789,-118.97611,-121.23689,-121.42173,-118.98251,-113.95036,-107.05219,-99.51078,-92.616447,-87.287521,-83.834549,-82.01548,-81.295616,-81.11692,-81.002441,-80.46154,-78.827934,-75.241302,-68.908218,-59.581207,-47.99268,-35.915062,-25.660604,-19.133841,-16.843592,-17.387573,-17.747879,-14.34834,-4.4274521,12.900826,36.377842,63.200432,90.137024,114.5895,135.13829,151.45645,163.83875,172.74655,178.64383,182.11194,183.99678,185.33003,186.97469,189.21007,191.58211,193.20235,193.36903,192.12575,190.36301,189.33987,189.88745,191.7963,193.80948,194.27715,192.10522,187.42619,181.5751,176.37473,173.1559,172.09424,172.2382,172.17398,170.89296,168.33434,165.3092,162.91017,161.81396,161.91029,162.44765,162.54773,161.72896,160.11459,158.2368,156.61311,155.39494,154.30574,152.87442,150.77829,148.06006,145.09039,142.32538,140.03307,138.16302,136.42302,134.48944,132.20634,129.65469,127.07011,124.68288,122.58864,120.72161,118.92714,117.07112,115.11243,113.10137,111.11986,109.21342,107.3609,105.49544,103.55206,101.50143,99.343224,97.066505,94.613411,91.884506,88.795357,85.351753,81.686844,78.020332,74.554016,71.374451,68.447601,65.73539,63.364239,61.696243,61.165337,61.868179,63.085163,63.035629,59.134327,48.791584,30.487501,4.6292195,-26.275585,-58.301224,-87.388481,-110.65405,-127.12211,-137.57715,-143.70212,-147.03009,-148.29016,-147.44753,-144.29922,-139.16151,-133.16113,-127.92463,-124.85654,-124.45971,-126.12085,-128.49261,-130.24158,-130.72235,-130.20088,-129.53143,-129.51265,-130.31841,-131.33307,-131.47377,-129.80667,-126.11078,-121.08284,-116.07204,-112.47477,-111.08759,-111.73703,-113.37425,-114.60069,-114.37879,-112.57698,-110.06113,-108.26132,-108.41695,-110.89381,-114.95504,-119.13705,-122.04057,-123.09115,-122.81699,-122.46231,-123.1579,-125.158,-127.63587,-129.19447,-128.79491,-126.51718,-123.64582,-121.98208,-122.77662,-125.93443,-129.99405,-132.91127,-133.18007,-130.61841,-126.36386,-122.12289,-119.17454,-117.75506,-117.17278,-116.51484,-115.43144,-114.45792,-114.66328,-116.8683,-120.95687,-125.73761,-129.45549,-130.64734,-128.83887,-124.70226,-119.63475,-115.05106,-111.80576,-110.0249,-109.3449,-109.32189,-109.7226,-110.54105,-111.79207,-113.27161,-114.46819,-114.68826,-113.31426,-110.04154,-104.9709,-98.531761,-91.305183,-83.854362,-76.640373,-70.033447,-64.367775,-59.964256,-57.069099,-55.713268,-55.560326,-55.845188,-55.487732,-53.390148,-48.823997,-41.737495,-32.820004,-23.26442,-14.324263,-6.8817267,-1.2436484,2.7500861,5.4131093,6.9291177,7.3044815,6.5863786,5.1665783,3.8998907,3.8719814,5.8970871,10.044962,15.524217,21.043953,25.461046,28.311966,29.884682,30.790503,31.349228,31.254221,29.809114,26.623693,22.293041,18.527014,17.51577,20.82209,28.448278,38.677517,48.841381,56.592766,60.94009,62.44603,62.524597,62.341885,62.060806,60.915962,58.031136,53.385498,48.232349,44.642952,44.434135,48.149143,54.725403,62.036549,67.946632,71.228401,71.84803,70.575073,68.309509,65.632988,62.838928,60.28648,58.672543,58.905006,61.608849,66.62719,72.928703,79.052345,83.816711,86.803802,88.275284,88.60038,87.660263,84.744865,79.108589,70.83709,61.372498,53.200199,48.744671,49.094746,53.370392,59.187122,63.980022,66.374504,66.73642,66.559608,67.120041,68.327415,68.589027,65.828766,59.015129,49.175365,39.170391,32.293526,30.521126,33.482613,38.771015,43.37495,45.324249,44.545895,42.471821,40.756397,40.012333,39.410946,37.379299,32.881981,26.391964,19.873175,15.758073,15.563311,19.017946,24.243477,28.854771,31.282145,31.503334,30.772951,30.576298,31.507671,32.795044,32.77039,29.993378,24.3388,17.380697,11.815093,10.204473,13.690468,21.321175,30.305239,37.041168,38.425838,32.877228,20.707045,3.8108475,-15.073961,-33.179127,-48.295567,-59.031326,-64.79895,-65.677155,-62.270622,-55.610073,-47.05809,-38.161728,-30.425907,-25.041185,-22.645788,-23.20719,-26.074455,-30.196259,-34.444538,-37.94463,-40.300129,-41.622742,-42.340374,-42.852703,-43.197514,-42.926914,-41.320522,-37.887489,-32.907825,-27.66324,-24.107744,-24.020838,-28.027012,-35.039749,-42.543022,-47.686855,-48.676388,-45.686806,-40.737217,-36.534424,-34.926178,-35.883129,-37.647644,-37.981895,-35.744133,-31.779491,-28.515778,-28.475233,-32.629799,-39.663387,-46.645493,-50.713448,-50.696125,-47.640423,-43.919868,-41.545559,-40.833477,-40.340237,-38.111889,-33.376621,-27.476292,-23.317677,-23.620089,-29.076193,-37.653812,-45.55698,-49.295311,-47.58802,-41.932827,-35.529705,-31.294891,-30.244473,-31.226763,-32.061562,-31.229811,-28.952484,-26.975899,-27.287954,-30.695398,-36.232285,-41.748356,-45.19986,-45.710197,-43.682449,-39.954952,-34.683125,-26.82233,-14.653763,2.950448,25.365559,49.964489,73.011925,91.209663,103.00705,108.96844,111.09415,111.60841,111.967,112.58353,113.24299,113.7401,114.22025,115.00747,116.12676,116.961,116.37573,113.29745,107.39565,99.42894,91.018677,83.96656,79.499695,77.850273,78.359947,79.992783,81.930527,83.916939,86.193604,89.108833,92.653702,96.204674,98.63559,98.768776,95.958275,90.515594,83.743225,77.517448,73.586609,72.913185,75.388992,80.068184,85.776337,91.727112,97.761711,104.05608,110.494,116.15865,119.36839,118.35891,112.28224,101.92986,89.688065,78.660149,71.388596,68.861061,70.317276,73.889915,77.62236,80.228195,81.20047,80.36544,77.364243,71.56295,62.529087,50.733624,37.893608,26.557154,19.036285,16.273809,17.34292,19.926514,21.524057,20.683361,17.551224,13.482197,10.038058,8.0580215,7.3620701,7.1692853,6.8179669,6.2080641,5.652133,5.3083186,4.7130866,2.8720706,-1.0587528,-6.9544911,-13.399172,-18.214624,-19.62491,-17.367205,-13.021002,-9.2773418,-8.5289783,-11.603022,-17.385227,-23.540977,-27.869703,-29.464611,-29.011225,-28.126509,-28.235884,-29.728579,-31.887413,-33.546463,-33.961838,-33.289131,-32.379955,-32.098331,-32.674202,-33.552406,-33.822441,-32.902458,-30.986214,-28.946886,-27.781763,-27.995775,-29.34449,-31.084951,-32.520519,-33.433308,-34.105865,-34.953579,-36.082558,-37.139156,-37.590027,-37.233021,-36.539585,-36.522442,-38.151688,-41.679886,-46.339481,-50.660091,-53.25407,-53.603115,-52.360516,-50.980263,-50.901466,-52.783379,-56.233704,-60.146698,-63.390297,-65.397087,-66.327347,-66.782913,-67.33725,-68.219864,-69.327606,-70.471352,-71.604645,-72.830132,-74.188217,-75.42968,-76.004883,-75.33976,-73.237862,-70.123711,-66.927574,-64.649757,-63.866108,-64.482727,-65.882729,-67.34697,-68.459068,-69.239296,-69.960823,-70.828499,-71.780632,-72.556824,-72.956032,-73.058426,-73.216339,-73.80645,-74.931183,-76.307442,-77.443161,-77.9804,-77.948288,-77.730446,-77.766747,-78.216591,-78.846703,-79.236153,-79.139854,-78.715096,-78.409805,-78.575974,-79.109009,-79.429062,-78.880768,-77.295723,-75.290474,-74.013222,-74.434288,-76.634315,-79.609039,-81.800575,-82.071632,-80.500839,-78.447266,-77.790161,-79.798538,-84.348106,-89.989044,-94.812004,-97.538521,-98.133888,-97.591072,-97.112434,-97.309013,-97.968338,-98.470703,-98.419434,-97.887924,-97.011803,-95.232422,-90.881157,-81.653839,-65.908501,-44.046738,-19.014582,4.5945063,22.480145,32.544262,35.637619,34.704128,32.888893,31.826212,31.166704,29.53389,26.1112,21.640484,18.066725,17.081839,18.680416,20.905817,21.146605,18.187843,13.552827,11.016252,14.36584,24.756647,39.451473,52.990887,60.303425,59.930374,55.30537,53.12048,59.586037,76.740952,101.01902,124.96441,141.11449,145.79076,140.63937,131.15707,123.23957,119.88786,119.96712,119.55259,114.81028,104.53397,90.837936,77.763901,68.850098,65.235863,65.382957,66.389999,65.907997,63.419273,60.192787,58.137157,58.427349,60.799854,63.86565,66.098793,66.779953,66.304436,65.746567,66.0495,67.382149,69.019341,69.738518,68.444221,64.678741,58.820004,51.958405,45.554337,40.989502,39.10704,39.854954,42.189205,44.372772,44.659477,42.11837,37.185776,31.583616,27.546432,26.704172,29.219112,33.682739,37.86298,39.892666,39.220528,36.786369,34.352211,33.426117,34.436554,36.62146,38.627129,39.380054,38.672333,37.142822,35.7537,35.165955,35.419788,36.060658,36.532505,36.515556,35.995003,35.095074,33.892097,32.395996,30.70023,29.11854,28.116434,28.024267,28.740484,29.701666,30.226931,30.046001,29.624508,29.98317,32.047153,35.927288,40.649395,44.593098,46.425201,45.941254,44.240551,43.077309,43.784328,46.471214,50.028961,52.926212,54.232491,54.141018,53.616989,53.430386,53.299641,51.829109,47.378376,39.323986,28.844007,18.625044,11.595569,9.4516125,11.896816,17.047373,22.669174,27.361975,30.874897,33.389877,34.390263,32.082821,23.990654,8.4996014,-13.609795,-38.741081,-61.64632,-77.659485,-84.768013,-84.334671,-80.074585,-75.932495,-74.132156,-74.492897,-75.263634,-74.772926,-72.747154,-70.466682,-69.763847,-71.641518,-75.499031,-79.484047,-81.69268,-81.366806,-79.267036,-76.990547,-75.736122,-75.390724,-74.579315,-71.651009,-65.931435,-58.385067,-51.222286,-46.685093,-45.784946,-47.792587,-50.783928,-52.861904,-53.251465,-52.573135,-52.158085,-52.902546,-54.456955,-55.315937,-53.77494,-49.139721,-42.391762,-35.84309,-31.948345,-31.976309,-35.341549,-39.996181,-43.635536,-44.979805,-44.361862,-43.291416,-43.301914,-44.822144,-46.784878,-47.21682,-44.443314,-38.167953,-29.77388,-21.675901,-16.121799,-14.147043,-15.254417,-17.923016,-20.556189,-22.262524,-23.040979,-23.368092,-23.568863,-23.449015,-22.43388,-20.078978,-16.555668,-12.743869,-9.8470373,-8.7752628,-9.6929255,-12.003634,-14.747605,-17.126154,-18.8186,-19.934166,-20.704597,-21.183084,-21.170773,-20.396059,-18.780094,-16.573948,-14.26999,-12.368886,-11.181836,-10.796376,-11.185064,-12.317798,-14.147747,-16.468884,-18.780035,-20.317104,-20.300068,-18.270208,-14.303473,-8.9574938,-2.9967825,2.899559,8.2398758,12.589309,15.373812,15.87093,13.51367,8.3740196,1.4902548,-5.2729468,-9.8752165,-10.961518,-8.4509563,-3.4954915,2.1796024,7.1626201,10.942704,13.873444,16.598461,19.368856,21.733418,22.810713,21.947208,19.300749,15.940259,13.376066,12.809477,14.563926,18.028437,22.105772,25.845221,28.853422,31.257736,33.308987,34.942791,35.627228,34.619419,31.480511,26.530451,20.955666,16.477785,14.726151,16.600113,21.899532,29.36865,37.120289,43.264446,46.504642,46.493393,43.834526,39.750652,35.555935,32.14518,29.697186,27.695454,25.231762,21.443697,15.898642,8.7856846,0.87475497,-6.708158,-12.798676,-16.514849,-17.506708,-16.066916,-13.04548,-9.5570068,-6.562345,-4.5056405,-3.2140048,-2.1590476,-0.96655124,0.13548605,0.26643708,-1.6314427,-6.0122819,-12.129339,-18.088066,-21.661963,-21.486414,-17.92635,-13.020947,-9.4283018,-8.9278669,-11.375965,-14.795467,-16.605911,-15.272191,-11.342286,-7.1848135,-5.5399852,-7.7631645,-12.870874,-18.02536,-20.199224,-18.009087,-12.581065,-6.9002166,-4.0341816,-5.3173103,-9.5996885,-14.000686,-15.682425,-13.551777,-8.8741922,-4.4699006,-3.020273,-5.5143013,-10.730327,-15.995884,-18.718735,-17.780418,-14.031974,-9.6942177,-7.0812554,-7.3875446,-10.16554,-13.692259,-15.948628,-15.665395,-12.923076,-9.0621071,-5.9984837,-5.29182,-7.3917751,-11.392252,-15.40492,-17.405199,-16.195377,-12.053556,-6.7423644,-2.8188801,-2.5147357,-6.6892929,-14.365353,-23.106049,-30.087997,-33.370052,-32.738163,-29.699156,-26.60957,-25.353466,-26.210358,-27.470467,-26.005421,-18.560099,-3.2024629,19.702948,47.424385,75.732979,100.35291,118.39034,129.15895,134.09007,135.82207,136.92389,138.85262,141.60031,144.11911,145.21295,144.36377,142.03911,139.35867,137.3813,136.48186,136.19656,135.59386,133.89093,130.90196,127.05665,123.04488,119.39817,116.3243,113.87135,112.19665,111.59643,112.12869,113.02229,112.34385,107.34888,95.551254,76.037888,50.282028,21.893038,-4.6841698,-25.884972,-40.252365,-48.548988,-52.790806,-54.872913,-55.65403,-55.001362,-52.619251,-48.950893,-45.415363,-43.740025,-44.829128,-47.996429,-51.197906,-52.237385,-50.222675,-46.303959,-43.12738,-43.252571,-47.489544,-54.230835,-60.276958,-62.717495,-60.726101,-56.119133,-52.252258,-51.859715,-55.140831,-59.3172,-60.040813,-53.91848,-40.700825,-23.811659,-8.8141794,-0.59974492,-0.8477478,-7.188735,-14.559465,-18.00399,-15.354498,-8.29286,-1.2123226,1.4526699,-2.1072841,-9.9437952,-17.405235,-19.784754,-15.057409,-5.1441541,5.0330181,10.197886,7.6052799,-1.4324085,-12.215924,-19.146673,-18.658558,-11.004619,0.026670862,9.2359905,12.757884,9.9226112,3.2887075,-3.0477786,-5.8213124,-4.2877803,-0.34815997,2.8481286,2.9168608,-0.3307521,-4.8394151,-7.6053162,-6.5056205,-1.5799617,4.9591875,9.9538784,11.028935,7.830976,2.1096644,-3.340791,-6.2190399,-5.8394027,-3.2403383,-0.30508745,1.4998013,1.9705262,2.0959628,3.1633658,5.65308,8.6650429,10.281464,8.6741333,3.2836723,-4.6670332,-12.666995,-18.147783,-19.732187,-17.779928,-13.952181,-10.122225,-7.3441043,-5.5138202,-3.8773263,-1.9743223,-0.32683995,-0.36441687,-3.5965753,-10.552364,-20.173611,-30.071259,-37.523205,-40.65443,-39.164951,-34.279144,-28.054461,-22.505602,-18.996336,-18.084158,-19.695488,-23.372868,-28.423168,-33.9823,-39.11879,-43.039497,-45.312035,-45.937492,-45.193253,-43.360302,-40.580105,-37.010712,-33.1945,-30.305866,-29.938753,-33.383965,-40.758648,-50.574432,-60.153736,-66.789284,-69.022255,-67.26738,-63.384724,-59.470158,-56.656822,-54.713333,-52.671165,-49.984955,-47.33839,-46.445248,-48.910889,-54.914078,-62.6451,-68.954323,-70.8554,-66.956795,-57.96463,-46.051331,-33.641933,-22.487986,-13.562417,-7.5950418,-5.539587,-8.3412428,-16.012215,-26.725834,-36.828892,-42.131084,-39.901733,-30.364168,-16.64897,-3.1093941,6.99863,12.990695,16.426136,19.23892,21.674128,21.562284,15.577312,1.7409289,-18.500536,-40.126278,-56.615009,-63.09668,-58.714642,-46.81266,-32.920361,-21.843006,-15.604226,-13.30124,-12.632195,-11.840902,-10.743286,-10.319845,-11.43337,-13.786473,-15.923296,-16.203459,-13.926474,-9.717206,-4.9125757,-0.49913302,3.4996378,7.6713462,12.197185,16.067055,17.316185,14.300618,7.1623783,-1.6521277,-8.3944941,-10.054955,-6.1571836,0.91978258,7.3903804,10.394259,9.6996403,7.6584716,7.4516516,10.806357,16.716448,22.016594,23.41836,19.657164,12.358581,5.1096644,1.3952595,2.7378838,8.1427526,15.019409,20.803377,24.171791,25.195456,24.601624,22.908926,20.141462,16.241964,11.68206,7.6061597,5.2571673,5.0752058,6.2088256,6.9328265,5.7903519,2.6771693,-0.96313864,-3.0860651,-2.5711572,-0.28914523,1.0956118,-1.4053397,-9.1942053,-20.882904,-32.532249,-39.217602,-37.066677,-24.738672,-3.7425053,22.32111,49.024094,72.275085,89.082794,97.948509,99.017624,93.991653,85.6707,77.077225,70.405045,66.297966,63.909756,61.770252,58.937714,55.664318,53.086254,52.129814,52.433659,52.156101,48.958115,41.596546,31.040222,20.248711,12.624639,10.080341,11.98295,15.693184,18.341768,18.632809,17.439173,16.800243,18.068249,20.572599,21.827461,19.218685,12.03089,2.3746262,-5.7253675,-8.5906162,-5.0928769,2.5815125,10.05885,13.055968,9.4141207,-0.2230645,-13.244542,-26.648296,-38.304821,-47.316055,-53.643768,-57.632298,-59.881561,-61.363739,-63.27272,-66.259041,-69.346535,-69.40641,-62.005814,-43.631092,-14.210211,21.676682,55.989227,80.535408,90.726692,87.663605,77.308708,67.204285,62.649761,64.52507,69.856209,74.486115,75.971962,74.861221,73.72216,74.846764,78.361473,82.065117,83.021584,79.701698,73.141685,66.341469,62.380585,62.583183,65.945198,70.087959,72.940277,73.930878,73.94619,74.271332,75.448578,76.945107,77.797165,77.57991,76.786346,76.195183,75.68383,73.509651,66.863945,53.603798,34.116581,11.982108,-7.2584014,-18.719036,-20.702904,-15.623621,-8.7050781,-5.1786294,-7.591886,-14.743505,-22.747438,-27.463903,-26.800329,-21.596247,-14.76015,-9.3799629,-7.0340195,-7.2428303,-8.1945448,-8.1079025,-6.3271875,-3.560045,-1.2813048,-0.80680752,-2.6229007,-6.2730961,-10.713116,-14.818013,-17.758007,-19.149645,-19.050808,-17.892706,-16.36413,-15.205169,-14.912955,-15.478112,-16.336517,-16.640837,-15.752958,-13.674212,-11.11939,-9.14394,-8.5290833,-9.3115368,-10.770692,-11.891481,-12.001362,-11.159891,-10.048321,-9.4517593,-9.705904,-10.496465,-11.139698,-11.123123,-10.497945,-9.8266392,-9.7208481,-10.315963,-11.088748,-11.18243,-10.028205,-7.8161945,-5.4512591,-3.9846489,-3.8937521,-4.7155027,-5.3160377,-4.6448364,-2.4744718,0.38377556,2.5547628,2.9624116,1.5079325,-0.8908174,-2.9207542,-3.7283204,-3.4241235,-2.9023776,-3.1201704,-4.35885,-5.997364,-6.9578094,-6.4957528,-4.750514,-2.6349821,-1.124916,-0.46791831,0.064073063,1.6051346,4.6190672,8.0465736,9.3529778,5.6263347,-4.805644,-21.167091,-40.198204,-57.412342,-69.024826,-73.544083,-72.211594,-68.130592,-64.634499,-63.801098,-65.8377,-69.499466,-73.122284,-75.591194,-76.733681,-77.061516,-77.184334,-77.345383,-77.353889,-76.871765,-75.782867,-74.363991,-73.157669,-72.664162,-73.07383,-74.199646,-75.6147,-76.873123,-77.674171,-77.908852,-77.624115,-76.976967,-76.212273,-75.635643,-75.531464,-76.022224,-76.939728,-77.813141,-78.031151,-77.12735,-75.04319,-72.212646,-69.402908,-67.383003,-66.590973,-66.968727,-68.037086,-69.153191,-69.807327,-69.81636,-69.343201,-68.764603,-68.470551,-68.68927,-69.402519,-70.373314,-71.268303,-71.825027,-71.991943,-71.967064,-72.0952,-72.653084,-73.628731,-74.633987,-75.040161,-74.303345,-72.315491,-69.566597,-66.984398,-65.500359,-65.568535,-66.91861,-68.705437,-69.984688,-70.239983,-69.646446,-68.914948,-68.82531,-69.754303,-71.501167,-73.504883,-75.268532,-76.649231,-77.754791,-78.470573,-77.938232,-74.413956,-65.750145,-50.364445,-28.213644,-1.2071964,27.248001,53.416088,74.557076,89.754105,99.86039,106.66522,111.78957,115.9245,118.77436,119.62749,118.12069,114.69708,110.49702,106.79704,104.38136,103.23495,102.71019,102.01066,100.66117,98.687614,96.454941,94.338043,92.478004,90.770424,89.040878,87.232208,85.449905,83.852592,82.514069,81.404709,80.52494,80.066376,80.410645,81.872681,84.297951,86.784576,87.78717,85.652519,79.360649,69.083221,56.242722,43.027134,31.615797,23.512459,19.277395,18.683599,21.078428,25.672123,31.61891,37.977158,43.752491,48.14679,50.919449,52.592113,54.253265,56.959496,61.033211,65.700722,69.368576,70.461777,68.374992,63.966309,59.254574,56.441166,56.786816,59.977242,64.33744,67.766876,68.859657,67.585922,65.184532,63.376755,63.379833,65.274025,68.035774,70.159019,70.477592,68.736572,65.644562,62.441135,60.256554,59.60751,60.25618,61.449116,62.366318,62.533634,62.001865,61.230808,60.765938,60.891026,61.443424,61.890408,61.627197,60.336643,58.211784,55.911495,54.264999,53.883148,54.888195,56.903309,59.287418,61.457771,63.102573,64.175468,64.719849,64.685555,63.892311,62.170235,59.560253,56.397873,53.18298,50.302551,47.801071,45.382778,42.67593,39.595219,36.545208,34.293011,33.553989,34.535908,36.732235,39.106014,40.559315,40.406662,38.583641,35.510521,31.759247,27.778502,23.84646,20.216873,17.261692,15.420389,14.939037,15.586899,16.606728,17.016779,16.124611,13.924356,11.085491,8.5003576,6.671113,5.3577962,3.7587419,1.1350105,-2.5369191,-6.3582172,-8.9467087,-9.2841816,-7.4279075,-4.590807,-2.4878702,-2.3354843,-4.1451182,-6.7873998,-8.8071012,-9.4641609,-9.3005972,-9.8217659,-12.458774,-17.473755,-23.547878,-28.384716,-30.016998,-28.032732,-23.94849,-20.457842,-19.967279,-23.272738,-29.152637,-35.104237,-38.770397,-39.209129,-37.281956,-34.98801,-34.199963,-35.582592,-38.314682,-40.714359,-41.323658,-39.770988,-36.922104,-34.301025,-33.202164,-34.055782,-36.389805,-39.320404,-42.177853,-44.833195,-47.53928,-50.452656,-53.221321,-54.969204,-54.728455,-52.058239,-47.450562,-42.246067,-38.08226,-36.17905,-36.856091,-39.52597,-43.120358,-46.66576,-49.673576,-52.161457,-54.36869,-56.406212,-58.088352,-59.04092,-58.982193,-57.962841,-56.393501,-54.844723,-53.761467,-53.285809,-53.297859,-53.627941,-54.273052,-55.449284,-57.429424,-60.270405,-63.622799,-66.77327,-68.925766,-69.571899,-68.736862,-66.957344,-65.008896,-63.549698,-62.890663,-63.011044,-63.77367,-65.161636,-67.347374,-70.524231,-74.605957,-79.013283,-82.738998,-84.720314,-84.345833,-81.812531,-78.106079,-74.581757,-72.356964,-71.845352,-72.687584,-74.101547,-75.423882,-76.501312,-77.689323,-79.472031,-81.968941,-84.678841,-86.664848,-87.093971,-85.794365,-83.453056,-81.286438,-80.351807,-80.917137,-82.297874,-83.293259,-82.975105,-81.340408,-79.399681,-78.612495,-79.99382,-83.439362,-87.703369,-91.069611,-92.325081,-91.446838,-89.574242,-88.266479,-88.477043,-89.847588,-90.733543,-88.943649,-82.771408,-71.756653,-56.808186,-39.704311,-22.323511,-6.0466495,8.4088116,20.769543,30.873995,38.509914,43.52248,46.065582,46.757328,46.574619,46.514866,47.222843,48.80798,50.950108,53.203217,55.288681,57.196995,59.062065,60.929573,62.603168,63.685001,63.784359,62.752888,60.792019,58.369396,56.006737,54.075367,52.713432,51.885693,51.512856,51.566544,52.070984,53.032532,54.371132,55.917656,57.481236,58.931118,60.225361,61.362614,62.29882,62.905396,63.020077,62.57114,61.691711,60.731617,60.132706,60.222916,61.04491,62.322605,63.589035,64.401955,64.523575,63.970058,62.924576,61.594276,60.117195,58.574615,57.075184,55.816757,55.046375,54.920868,55.360657,56.016705,56.40694,56.16045,55.218273,53.848728,52.449249,51.254425,50.149082,48.730503,46.600666,43.702023,40.458382,37.594475,35.721367,34.950127,34.804878,34.526001,33.589828,32.097431,30.730267,30.226849,30.651949,30.906958,28.841143,22.006229,8.7318373,-10.997974,-35.300758,-60.902592,-84.153519,-102.10178,-113.21371,-117.55011,-116.46602,-112.05151,-106.53249,-101.7647,-98.876373,-98.096764,-98.818665,-99.916168,-100.24147,-99.106026,-96.510437,-92.993393,-89.188026,-85.369232,-81.300507,-76.499008,-70.741653,-64.436714,-58.543514,-54.026093,-51.180222,-49.321453,-47.127327,-43.489395,-38.335632,-32.824413,-28.67235,-26.958364,-27.164246,-27.159208,-24.294058,-17.052244,-6.2714796,4.8887506,12.355318,13.213183,7.2812858,-2.7290957,-12.593976,-18.724865,-19.875753,-17.47452,-14.462659,-13.389692,-14.8991,-17.450153,-18.350573,-15.413139,-8.2432251,1.5409861,11.184916,18.185459,21.396627,21.325302,19.606915,18.078762,17.977016,19.57822,22.287271,24.966705,26.302443,25.130749,20.751368,13.223561,3.5273287,-6.5897965,-15.15825,-20.762461,-23.170378,-23.431911,-23.319609,-24.374365,-27.089088,-30.714664,-33.806973,-35.170395,-34.595551,-32.917492,-31.366476,-30.658125,-30.456335,-29.602875,-26.990446,-22.498501,-17.327015,-13.424468,-12.294227,-13.899177,-16.379265,-16.835754,-12.79865,-3.572232,9.2906628,22.63875,33.118389,38.548981,38.582886,34.41431,27.848425,20.345245,12.560675,4.5207777,-3.8402419,-12.220612,-19.874506,-25.909367,-29.690483,-31.053638,-30.212355,-27.491434,-23.135584,-17.350689,-10.517133,-3.3448184,3.2432783,8.5109892,12.363596,15.530922,19.286572,24.801506,32.486183,41.717056,51.129349,59.316422,65.525429,69.941643,73.410286,76.791458,80.36071,83.622131,85.630325,85.601509,83.432167,79.82785,76.003197,73.170242,72.12355,73.116997,76.007126,80.471283,86.106293,92.35984,98.421219,103.26436,105.93985,106.01953,103.94638,101.04454,99.111649,99.746323,103.71777,110.66974,119.28151,127.78697,134.60233,138.79935,140.26935,139.57468,137.60187,135.17574,132.774,130.42906,127.83803,124.63316,120.70093,116.40134,112.56231,110.21738,110.18684,112.69996,117.25267,122.77748,128.03331,132.00769,134.13812,134.29359,132.61641,129.39357,125.05655,120.25623,115.853,112.70028,111.27081,111.35444,112.0874,112.39734,111.65871,110.15253,108.9809,109.4047,111.96424,115.94118,119.56268,120.90341,118.98263,114.38805,109.01765,105.06644,103.85816,105.21928,107.7444,109.73378,110.16839,109.10209,107.27584,105.30178,103.05008,99.703796,94.447006,87.273842,79.29248,72.239319,67.482025,65.181374,64.21286,62.948315,60.395477,56.907494,53.918869,52.801872,53.555676,54.223225,51.533981,42.523991,26.250809,4.6018043,-18.322645,-37.968075,-51.300598,-57.961739,-60.045158,-60.707024,-62.436111,-65.929024,-70.106491,-73.132973,-73.759842,-72.191711,-70.009804,-69.253609,-71.232422,-75.760323,-81.23912,-85.525757,-87.088898,-85.814713,-83.029518,-80.743279,-80.543655,-82.754333,-86.317978,-89.455994,-90.720764,-89.833511,-87.824181,-86.393669,-86.876236,-89.422386,-92.898651,-95.573944,-96.18203,-94.709221,-92.41227,-91.039696,-91.727539,-94.256386,-97.146126,-98.549263,-97.401192,-94.114304,-90.377304,-88.174538,-88.626007,-91.360001,-94.795883,-97.146599,-97.508934,-96.370705,-95.24498,-95.69239,-98.361069,-102.63329,-107.05997,-110.26341,-111.71688,-111.92982,-111.97769,-112.73648,-114.33937,-116.18305,-117.42265,-117.57806,-116.83554,-115.87246,-115.3728,-115.5975,-116.30033,-117.00874,-117.42545,-117.6413,-118.01842,-118.86905,-120.20978,-121.79564,-123.38838,-124.98741,-126.73887,-128.47777,-129.19171,-126.87486,-119.09628,-104.18535,-82.485291,-56.946526,-32.578224,-14.845531,-7.6768951,-11.995596,-25.457668,-43.489609,-61.098816,-74.609169,-82.600578,-85.794975,-86.151321,-85.734245,-85.889946,-86.983757,-88.627838,-90.134041,-90.925415,-90.76326,-89.780296,-88.378326,-87.051498,-86.184677,-85.885864,-85.930016,-85.873627,-85.32048,-84.212234,-82.961632,-82.304558,-82.90818,-84.941978,-87.876923,-90.66777,-92.247078,-92.059319,-90.323441,-87.869484,-85.653824,-84.252838,-83.637657,-83.342964,-82.88562,-82.134918,-81.383591,-81.080688,-81.418358,-82.061653,-82.214508,-80.995865,-77.905212,-73.107681,-67.387207,-61.812016,-57.306393,-54.341511,-52.860455,-52.41634,-52.416058,-52.355358,-51.976627,-51.324883,-50.695068,-50.471451,-50.891087,-51.823082,-52.700207,-52.708702,-51.213238,-48.223732,-44.614399,-41.879147,-41.450298,-43.893978,-48.441906,-53.199303,-56.014282,-55.593906,-52.252525,-47.824986,-44.717434,-44.561352,-47.193058,-50.53817,-51.50507,-47.447262,-37.448666,-22.788345,-6.385572,8.4453278,19.282007,25.322771,27.312309,26.855595,25.578529,24.569315,24.278839,24.757792,25.948526,27.801884,30.18157,32.700756,34.684814,35.353619,34.152458,31.051985,26.652411,22.04121,18.479044,17.044382,18.336988,22.276304,28.001635,33.909748,37.905975,37.920052,32.612396,22.024712,7.836236,-7.0173397,-19.319162,-26.759968,-28.778086,-26.610291,-22.50865,-18.537769,-15.611659,-13.292974,-10.421391,-6.1341596,-0.60676455,4.9664807,9.127573,11.127915,11.447512,11.485796,12.612062,15.216259,18.429756,20.751003,21.188745,20.143764,19.371479,20.951807,25.871527,33.14711,40.143452,44.019917,43.503826,39.922878,36.811428,38.225185,46.661411,61.726044,80.269905,97.890732,110.95782,118.08434,120.35062,120.31162,120.46069,122.02167,124.64059,126.97878,127.72459,126.39815,123.54756,120.33877,117.8727,116.65244,116.4677,116.6921,116.76617,116.57013,116.48396,117.11823,118.87798,121.61207,124.56126,126.6655,127.09225,125.7025,123.17018,120.63925,119.06871,118.62901,118.52885,117.42628,114.22463,108.78632,102.10572,95.792053,91.149559,88.42392,86.70797,84.588898,81.128082,76.521973,71.981041,68.880325,67.745789,67.792908,67.401825,65.293625,61.668209,58.521477,58.830212,64.991776,77.390976,93.925377,110.77702,124.01051,131.13983,131.88567,127.85826,121.50311,114.97355,109.49023,105.34467,102.30381,100.02303,98.218849,96.623611,94.918159,92.800056,90.163689,87.220245,84.40419,82.085922,80.289185,78.641876,76.630524,73.996979,70.990288,68.271919,66.515472,65.965698,66.260017,66.636612,66.385323,65.234825,63.427528,61.464531,59.733368,58.293182,56.947601,55.503803,53.977856,52.567127,51.416843,50.393551,49.088604,47.095253,44.368427,41.37661,38.882366,37.462265,37.095467,37.137478,36.739777,35.448608,33.557083,31.926229,31.35428,31.911631,32.726124,32.429966,30.034216,25.677103,20.727331,17.110029,16.221224,18.082594,21.26837,23.676537,23.702414,21.125601,17.192127,13.852612,12.606411,13.609729,15.523772,16.139109,13.388879,6.1978149,-5.226943,-19.703663,-35.701931,-51.895714,-67.382004,-81.558296,-93.862053,-103.62475,-110.17805,-113.16273,-112.8493,-110.25654,-106.9501,-104.5589,-104.18795,-105.9734,-108.99338,-111.62233,-112.23402,-109.98378,-105.31487,-99.901146,-95.965813,-95.222412,-97.921738,-102.50864,-106.14303,-105.91303,-100.18082,-89.378433,-75.812271,-62.538754,-51.873474,-44.307796,-38.397076,-31.660032,-21.984058,-8.7762403,6.7242551,22.065794,34.720829,43.094635,46.92194,46.984367,44.473721,40.452747,35.681484,30.75032,26.241758,22.682022,20.289711,18.768635,17.419191,15.614137,13.365247,11.551807,11.543607,14.35317,19.823261,26.416222,31.837797,34.194897,33.007298,29.443426,25.622091,23.416336,23.512381,25.292442,27.540697,29.405048,30.881727,32.452229,34.148983,34.800167,32.150429,23.976875,9.5955086,-9.2143993,-28.568893,-44.054527,-52.680283,-54.099586,-50.425148,-44.81583,-39.745792,-36.001404,-32.918377,-29.537609,-25.782185,-22.810049,-22.316204,-25.304651,-31.212646,-38.015282,-43.260944,-45.363358,-44.326237,-41.483891,-38.505287,-36.368141,-34.965729,-33.523735,-31.439255,-28.901695,-26.86714,-26.44935,-28.195372,-31.752489,-36.109581,-40.174583,-43.247326,-45.094067,-45.684166,-44.916325,-42.63134,-38.914597,-34.387363,-30.136219,-27.199911,-25.921938,-25.668182,-25.214424,-23.632957,-21.091413,-18.952112,-18.993855,-22.197611,-27.904047,-33.973537,-37.937206,-38.442455,-36.048401,-32.817741,-30.943111,-31.308968,-32.959164,-33.846695,-32.371365,-28.656027,-24.661257,-23.009562,-25.268543,-30.832094,-37.164673,-41.279552,-41.505222,-38.405216,-34.280968,-31.623356,-31.55442,-33.269108,-34.782986,-34.408043,-31.916813,-28.618156,-26.352217,-26.161978,-27.593306,-29.095165,-29.191797,-27.555086,-25.201736,-23.697643,-23.986305,-25.7299,-27.656637,-28.633659,-28.607656,-28.625687,-29.847559,-32.2915,-34.379528,-33.858097,-29.637577,-23.236019,-18.505516,-19.310072,-26.26318,-34.581348,-34.837711,-16.902685,24.565872,85.921509,154.12231,210.82208,239.33267,231.26669,189.75427,127.82545,62.916908,10.227036,-22.086643,-34.106205,-31.930342,-23.758848,-16.421783,-13.732498,-16.751106,-25.033945,-37.726933,-53.882492,-72.151031,-90.467171,-106.26373,-117.25897,-122.37671,-122.21867,-118.77968,-114.55893,-111.55427,-110.63552,-111.5185,-113.21564,-114.64124,-115.07528,-114.35943,-112.85879,-111.28188,-110.42249,-110.85828,-112.66923,-115.29974,-117.69446,-118.72936,-117.77366,-115.07923,-111.72954,-109.10751,-108.14093,-108.75832,-109.90338,-110.13897,-108.5089,-105.14811,-101.26286,-98.472221,-97.886459,-99.459991,-101.99639,-103.8001,-103.59605,-101.19559,-97.548996,-94.183617,-92.365898,-92.454941,-93.77903,-95.061333,-95.128036,-93.506554,-90.61261,-87.463425,-85.102928,-84.057808,-84.104828,-84.453232,-84.226234,-82.97316,-80.931519,-78.892746,-77.739822,-77.909607,-79.086349,-80.316879,-80.505569,-79.024132,-76.088989,-72.677795,-70.01738,-68.929367,-69.409042,-70.676544,-71.654709,-71.571632,-70.322289,-68.394524,-66.457077,-64.923553,-63.798149,-62.880344,-62.119015,-61.771591,-62.153099,-63.077736,-63.383015,-60.964153,-53.474266,-39.417355,-19.053356,5.4323072,30.660105,53.344383,71.471207,84.769539,94.301033,101.50285,107.29823,111.77741,114.53868,115.3482,114.60593,113.2889,112.43448,112.54854,113.35938,114.07959,113.97898,112.86678,111.16766,109.57779,108.58223,108.1926,108.07779,107.95618,107.92171,108.43259,109.9544,112.52355,115.57535,118.20174,119.69238,119.99467,119.76447,119.95201,121.18722,123.37298,125.75957,127.45055,128.00145,127.71323,127.43075,127.98547,129.65077,131.95686,133.96837,134.83087,134.24002,132.56429,130.58795,129.06958,128.38725,128.44312,128.81691,129.02576,128.73372,127.8393,126.45934,124.8594,123.35225,122.15821,121.24373,120.21877,118.40645,115.1366,110.16421,103.97389,97.725121,92.769203,89.944466,89.050667,88.861908,87.746574,84.584831,79.452103,73.634666,68.925842,66.591026,66.608513,67.643219,67.77652,65.565712,60.81963,54.662479,48.889866,45.023708,43.604683,44.065704,45.159878,45.617954,44.654274,42.120289,38.361355,33.981602,29.685226,26.211216,24.25938,24.320332,26.448383,30.132397,34.409328,38.216671,40.801907,41.944557,41.863255,40.900902,39.239693,36.865856,33.794334,30.3328,27.099979,24.687931,23.158903,21.767227,19.216105,14.41365,7.3037033,-0.79977673,-7.7049251,-11.479575,-11.595647,-9.3588629,-7.2887712,-7.7515745,-11.636176,-17.873875,-24.105875,-28.100586,-29.058292,-28.013573,-27.112074,-28.238148,-31.857794,-36.77776,-40.923046,-42.594437,-41.394032,-38.260761,-34.65617,-31.485184,-28.480185,-24.444138,-18.173975,-9.446866,0.57581609,9.7904434,16.169949,18.746778,17.994114,15.424179,12.690355,10.743413,9.5124016,8.2319918,6.149189,3.1417189,-0.13212492,-2.6309545,-3.6244144,-3.2607546,-2.6543384,-3.403518,-6.7636085,-12.900584,-20.635504,-27.858891,-32.457184,-33.315308,-30.889643,-27.036356,-24.150745,-24.036903,-27.082811,-32.164215,-37.31041,-40.750961,-41.764172,-40.885063,-39.421703,-38.633095,-39.090401,-40.577015,-42.502048,-44.465515,-46.54594,-49.118382,-52.375397,-55.950428,-58.968391,-60.527405,-60.286076,-58.737621,-56.969337,-56.074291,-56.626282,-58.560406,-61.46817,-64.974937,-68.79718,-72.359711,-74.290939,-72.359833,-64.22657,-48.816349,-27.55761,-4.5826735,14.540931,25.122122,25.553082,18.173231,8.217639,1.3378049,1.003249,7.1589932,16.774778,25.82707,31.477144,33.210415,32.446365,31.109833,30.241158,29.565498,28.193251,25.815159,23.433887,23.033278,26.358461,33.62394,43.047775,51.580952,56.426956,56.441341,52.588825,47.236801,42.774799,40.413391,39.828526,39.739304,38.934048,37.050892,34.666588,32.744316,31.892914,31.950806,