Bandpass,0,0.27021,91.697716,-1136.8091,-1659.9749,-1386.1947,-593.6416,185.11723,495.9321,251.74817,-240.24031,-528.28949,-353.37183,172.55957,668.33551,777.66406,431.95862,-108.72636,-456.84915,-383.25232,24.530375,441.43692,553.37274,286.39264,-149.69592,-426.92975,-344.02997,31.520452,423.23935,554.86224,350.09003,-22.028809,-282.00537,-248.54837,34.447231,341.2883,438.664,257.42068,-63.470612,-287.2027,-256.30966,-4.3963866,276.29962,381.5564,244.07384,-23.988445,-221.06244,-207.18457,-3.1227584,232.29855,324.5961,211.92369,-14.627485,-184.18156,-174.21413,2.2843838,212.3515,305.30765,223.17661,38.329163,-105.79089,-103.12338,38.887226,209.74313,281.45129,203.30261,36.11235,-96.558571,-101.03206,19.529924,171.61142,243.35281,186.68971,49.271053,-64.867424,-73.954163,22.761742,148.20514,207.53331,158.60403,40.787361,-57.231251,-64.534195,20.637188,132.19772,187.18285,147.11061,44.461662,-43.708366,-53.687435,18.938488,118.3333,171.38858,141.62384,54.394882,-23.738569,-34.661583,29.764196,123.9221,183.42053,171.7903,104.69832,35.410671,14.069596,51.639393,114.37763,151.17546,132.09802,69.428558,6.757988,-14.273508,15.873175,69.499306,104.03385,94.079994,49.056198,4.0867295,-7.8823104,18.808979,58.860485,75.846306,50.100574,-6.3292451,-58.504017,-74.207031,-47.189808,-1.1113563,28.230772,18.919594,-21.859648,-64.045807,-77.19899,-52.539761,-8.7074146,22.337311,18.491899,-17.069923,-58.876083,-77.647987,-60.576607,-19.078098,20.682337,36.797798,26.205149,4.9013667,-5.3364635,6.6723981,33.956856,57.495193,60.715099,41.444454,12.875085,-6.493886,-6.0704541,10.078762,27.31024,31.657167,19.734364,0.36541355,-12.547558,-10.075988,6.2148619,26.818769,42.255939,50.02158,55.347591,65.658974,83.449028,103.3156,115.51031,113.2804,98.399773,80.674492,71.711044,77.4245,94.575706,113.57895,125.28603,126.77081,122.17064,118.44559,119.59591,123.75388,125.15481,119.22269,106.72984,93.814651,87.8414,92.200958,103.89193,115.61304,120.78079,117.81927,110.7146,105.62206,106.15563,110.82458,114.38326,111.95625,102.83083,91.154427,83.095123,82.576515,88.646706,96.278931,99.917168,97.193085,90.248932,83.90535,82.143921,85.446129,90.761246,93.920204,92.619316,87.831848,82.758675,80.214478,80.379898,80.465538,76.40937,65.341393,47.155376,24.309084,0.26389995,-22.184196,-41.588421,-57.380421,-69.003517,-75.628342,-76.823738,-73.638092,-69.059578,-67.165001,-71.204582,-81.72213,-95.944267,-108.96329,-116.1436,-115.42307,-108.24329,-98.666763,-91.283813,-89.130005,-92.69519,-100.36165,-109.77133,-119.18839,-128.09683,-136.86093,-145.87346,-154.86678,-162.86098,-168.75081,-172.09779,-173.55737,-174.59723,-176.6096,-179.92532,-183.35863,-184.66101,-181.75018,-174.08266,-163.35681,-153.02271,-146.72824,-146.49332,-151.66235,-159.31577,-165.97807,-169.62738,-170.73897,-171.62679,-174.42317,-178.99461,-182.27264,-179.67648,-167.95627,-147.74617,-124.1112,-104.49799,-95.101791,-97.721916,-108.97074,-122.30209,-131.60107,-134.14006,-131.17546,-126.035,-121.18398,-116.36584,-109.08669,-97.022018,-80.539085,-63.408089,-51.024342,-47.22073,-51.800827,-60.515579,-67.594818,-69.220261,-65.672821,-60.767235,-59.007523,-62.423069,-69.23175,-75.205574,-76.756844,-73.596107,-69.123238,-68.275177,-74.285355,-86.526802,-100.84869,-112.12173,-117.2598,-116.75426,-113.85543,-112.1569,-113.3456,-116.61449,-119.9416,-122.0893,-123.72976,-126.84984,-132.93774,-141.40204,-149.51436,-154.03139,-153.37248,-148.76828,-143.49875,-140.71799,-141.40518,-143.91718,-145.46208,-144.39131,-141.55722,-139.61841,-140.68527,-144.01427,-145.60689,-140.35484,-125.58048,-103.67503,-81.889709,-69.04039,-70.874962,-86.82029,-110.09937,-131.21581,-142.78673,-142.94463,-135.47163,-126.8578,-122.27638,-122.94673,-126.27464,-128.31136,-126.67183,-121.96782,-116.98991,-114.45139,-115.00611,-116.92193,-117.53162,-115.31595,-111.06897,-107.30154,-106.32121,-108.37642,-111.21341,-111.40797,-106.59908,-97.117691,-85.904289,-76.755318,-72.051254,-71.445,-72.328903,-71.711975,-68.228706,-62.962215,-58.591846,-57.492352,-60.067631,-64.390541,-67.320747,-66.318657,-60.787785,-52.178322,-42.939487,-35.120411,-29.52367,-25.81119,-23.256073,-21.444845,-20.403845,-20.169865,-20.299957,-19.850775,-17.941666,-14.488954,-10.488714,-7.516201,-6.6949873,-7.8273749,-9.3217573,-9.0219545,-5.4141517,1.5786695,10.707218,20.259531,29.012371,36.603836,43.164726,48.658646,52.611,54.554783,54.848667,55.075569,57.422241,63.208305,71.535278,79.210472,82.404045,79.294029,72.054886,66.658333,70.151291,86.680023,114.50704,145.91765,170.34769,179.19714,169.77074,146.25078,117.28885,91.677345,74.517181,65.816002,61.912926,58.521236,53.452854,47.562641,43.690937,44.555038,50.968044,61.329781,72.456825,81.096077,85.267906,84.876251,81.489677,77.538475,75.287804,75.932266,79.116638,83.117607,85.721748,85.484116,82.718048,79.536896,78.717216,81.90448,88.264175,94.599686,97.11953,93.898972,86.424965,79.003319,76.128906,79.363182,85.814026,89.46698,84.805962,70.543587,50.996807,34.001045,26.46228,30.256527,41.094406,51.141911,53.796841,47.618675,36.961475,28.999466,29.15873,37.924084,50.969761,62.286949,68.015686,68.357452,66.42186,65.074142,64.235382,60.691765,50.601135,32.886997,11.004377,-8.3531723,-18.916965,-18.51935,-10.360318,-1.0240678,3.4643512,1.017323,-5.7609973,-11.713401,-12.568214,-7.3941717,1.3504776,9.8748074,15.56779,18.225981,19.374113,20.494003,21.67905,21.750082,19.637608,15.818452,12.55021,12.583567,17.22788,25.19611,33.148888,37.661884,37.322727,33.555679,29.641796,28.623253,31.496401,36.831181,41.936172,44.655994,44.556595,42.79866,40.978481,39.906155,39.226879,38.077408,36.16795,34.38488,34.404404,37.570007,43.837975,51.546528,58.177185,61.602619,61.032696,57.147415,51.492764,45.666,40.827927,37.70229,36.801514,38.48698,42.716263,48.704605,54.904388,59.508083,61.264359,60.094398,57.07515,53.775841,51.387524,50.22113,49.858326,49.742599,49.679581,49.829483,50.230995,50.329041,49.026085,45.367611,39.41214,32.573284,27.015532,24.369589,24.61705,26.006725,26.22423,24.143307,20.971939,19.884367,24.180731,35.033123,50.262489,65.039902,74.234352,75.07988,68.596626,58.93634,51.070297,48.203735,50.392082,55.029335,58.724949,59.319157,56.851242,53.071751,50.026985,48.73151,48.737698,48.719769,47.530594,44.970558,41.820374,39.23698,38.012897,38.197067,39.25386,40.549183,41.7841,43.103745,44.876099,47.339626,50.348831,53.330379,55.430645,55.779285,53.807407,49.562794,43.915806,38.490028,35.196625,35.442238,39.345741,45.428116,51.088806,53.756805,52.159451,46.987274,40.520817,35.38826,33.169281,33.677761,35.334938,36.342487,35.848484,34.323254,32.925583,32.35994,32.10157,30.625685,26.566916,20.050814,13.24966,9.6790028,12.553514,23.134792,40.010433,59.660118,77.8908,91.282402,97.935654,97.395874,90.181625,77.477737,61.199917,44.1306,29.606472,20.527319,18.058498,20.843452,25.428003,27.915981,26.050381,20.523855,14.685099,12.738613,17.447622,28.64712,43.358505,57.313175,66.886726,70.329399,67.776794,60.381371,49.408978,35.974583,21.427725,7.7829967,-2.4898105,-7.469182,-6.9964614,-3.1569333,0.56501347,1.1792762,-1.9498267,-6.495574,-8.3483181,-4.0081286,7.1969109,22.424057,36.631321,45.165794,46.13546,41.217171,34.496525,30.078037,29.860914,32.68523,35.197186,33.811863,26.635929,14.378579,-0.059473667,-12.918082,-21.058939,-22.918968,-18.661379,-9.6758089,2.185338,15.25458,28.360134,40.77626,51.943382,61.175613,67.576759,70.288345,69.000351,64.440514,58.462421,53.493279,51.466141,52.760727,55.827042,57.894398,56.545708,51.326237,44.365715,39.448742,39.867348,46.221077,55.53294,62.41423,61.837761,52.050575,35.926743,19.838638,10.508151,11.494894,21.260109,33.917988,42.29895,41.660484,32.028324,17.936357,5.7917075,0.38377976,2.4616547,8.6265259,13.457294,12.57675,4.9409685,-6.8223886,-18.056557,-24.653629,-25.110405,-21.013357,-15.8541,-12.981233,-13.882132,-17.674305,-21.935091,-24.249155,-23.537672,-20.467699,-16.84465,-14.475892,-14.226406,-15.775501,-18.092714,-20.21666,-21.791906,-23.060614,-24.413506,-25.909378,-27.159084,-27.673937,-27.404491,-27.025717,-27.679354,-30.273752,-34.790039,-40.09943,-44.493919,-46.656223,-46.466274,-45.095909,-44.277916,-45.17532,-47.572506,-49.941288,-50.395821,-47.970173,-43.413902,-38.965965,-37.186043,-39.506416,-45.353065,-52.354546,-57.520214,-58.721375,-55.672241,-49.945446,-44.126194,-40.658897,-41.009998,-45.47364,-53.511574,-64.239998,-76.70253,-89.833717,-102.3023,-112.52646,-119.01446,-120.92559,-118.54918,-113.3998,-107.8105,-104.15628,-104.01496,-107.5946,-113.64787,-119.91479,-123.96024,-124.13273,-120.29764,-114.02409,-108.06496,-105.25333,-107.24242,-113.67844,-122.27256,-129.83162,-133.79524,-133.50092,-130.48225,-127.59673,-127.4275,-130.82912,-136.42712,-141.35103,-142.78659,-139.48495,-132.41891,-124.28437,-118.18545,-116.2394,-118.78714,-124.4844,-131.06303,-136.2803,-138.62283,-137.58981,-133.63045,-127.90228,-121.9553,-117.35605,-115.26434,-116.06242,-119.21493,-123.48647,-127.46585,-130.14716,-131.26724,-131.24341,-130.81203,-130.63985,-131.14532,-132.55124,-134.98167,-138.39391,-142.33499,-145.76413,-147.25211,-145.64008,-140.84784,-134.26768,-128.31906,-125.2528,-125.8606,-128.93919,-131.97113,-132.70241,-130.63689,-127.41003,-125.6724,-127.10426,-130.84932,-133.49614,-130.80083,-120.20283,-102.59746,-82.210037,-64.55983,-53.683224,-50.243446,-51.593727,-53.648396,-53.340923,-50.180473,-46.09026,-43.830048,-45.130169,-49.692348,-55.51366,-60.101082,-61.678299,-59.692928,-54.56535,-47.156368,-38.485012,-29.824766,-22.837255,-19.292637,-20.286369,-25.400181,-32.49762,-38.532951,-41.054081,-39.508148,-35.470436,-31.576685,-29.812698,-30.286484,-31.308041,-30.710325,-27.475988,-22.511517,-18.012339,-15.872468,-16.293804,-17.622393,-17.561272,-14.897311,-10.474038,-6.6547432,-5.6071801,-7.6276441,-10.752097,-12.022229,-9.5837641,-4.1435294,1.309292,3.4319899,0.84639192,-4.7498708,-9.5088472,-9.8512764,-4.7976208,3.3540647,10.480721,13.269383,11.286434,7.111753,4.4691133,5.6310077,9.8546267,13.901093,14.281709,9.7197247,2.1812625,-4.2100792,-5.6637607,-1.0094174,7.6533432,16.278711,21.250566,21.291849,17.805725,13.634157,11.215982,11.385143,13.460125,16.31496,19.475857,23.381977,28.662762,35.066807,40.964222,43.936073,42.172565,35.785519,27.13612,19.879581,17.229918,20.420671,28.197134,37.546162,45.174767,48.909962,48.362705,44.698399,39.837345,35.595669,33.142239,32.857628,34.467056,37.277134,40.429169,43.154083,45.004112,45.978333,46.450108,46.898743,47.587833,48.400696,48.953022,48.904537,48.22963,47.226788,46.250298,45.391685,44.418346,43.102459,41.749393,41.505939,44.098171,51.013042,62.562912,77.446136,93.173286,107.19318,118.07082,125.98695,132.23012,138.00261,143.32463,146.78679,146.35777,140.76379,130.55557,118.15345,106.78927,98.954933,95.26886,94.406334,94.083466,92.46283,89.141068,85.187874,82.30542,81.683792,83.246223,85.680504,87.165588,86.33007,82.919395,77.877235,72.887054,69.662613,69.324287,72.083366,77.284798,83.726135,90.102608,95.416481,99.209137,101.53712,102.71745,102.98916,102.30228,100.39037,97.106537,92.804085,88.460884,85.369171,84.494011,85.865807,88.426514,90.515121,90.782043,89.008385,86.304977,84.509377,85.094299,88.233856,92.615173,96.146927,97.162758,95.396484,92.128014,89.398003,88.760521,90.328873,92.693237,93.760063,92.010239,87.432716,81.598305,76.855911,75.136047,77.037582,81.66111,87.191849,91.821457,94.470764,94.979889,93.802551,91.528587,88.588402,85.279495,81.972267,79.211594,77.530182,77.052277,77.191933,76.756439,74.521637,70.00135,63.928741,58.070515,54.376595,53.904545,56.159508,59.296738,61.1301,60.375965,57.374104,53.813396,51.602589,51.586716,52.949139,53.735058,52.214828,48.225647,43.579342,41.171234,43.249008,49.881386,58.610268,65.585205,67.570457,63.662159,55.707207,47.199764,41.347027,39.473305,40.669441,42.779663,43.983196,43.909534,43.609364,44.505993,47.128799,50.534595,52.812214,52.307564,48.725948,43.377445,38.432159,35.712944,35.822506,38.115765,41.417404,44.889725,48.416702,52.285324,56.491611,60.274666,62.293381,61.36726,57.266644,50.987251,44.29726,38.849003,35.427029,33.779095,33.050392,32.440357,31.609732,30.62282,29.594997,28.420155,26.831203,24.713844,22.341177,20.243147,18.746939,17.556141,15.787175,12.565392,7.8182883,2.6549962,-1.0723853,-1.8658561,0.35593361,4.0088639,6.7050319,6.7600245,4.3676724,1.5955901,1.0962117,4.3072391,10.324639,16.256748,18.917339,16.813368,11.140578,5.1100907,2.0017962,3.1751385,7.3020482,11.295156,12.30734,9.5018177,4.4726,0.097969472,-1.374936,0.24610719,3.0535111,4.3343458,2.3119431,-2.7851529,-8.9449453,-13.644886,-15.306606,-14.043065,-11.35135,-9.0937004,-8.4854193,-9.6682472,-11.966458,-14.474829,-16.515867,-17.738087,-17.972097,-17.12616,-15.285309,-12.911151,-10.879422,-10.188303,-11.4512,-14.512546,-18.493124,-22.280756,-25.149523,-27.078812,-28.557846,-30.049507,-31.553743,-32.639355,-32.941311,-32.72707,-33.029102,-35.13216,-39.692738,-46.098537,-52.575188,-57.063801,-58.350285,-56.72345,-53.731712,-51.209766,-50.234428,-50.696926,-51.72369,-52.568661,-53.273731,-54.591331,-57.233395,-61.038937,-64.738586,-66.572899,-65.389961,-61.475224,-56.52734,-52.782654,-51.877182,-54.194,-59.059933,-65.517181,-72.987335,-81.27681,-89.952805,-97.698494,-102.36889,-101.98471,-96.141983,-86.849983,-78.029671,-73.729691,-76.010452,-83.780006,-93.362274,-100.52502,-102.77586,-100.55997,-96.69088,-94.459351,-95.658791,-99.735306,-104.46197,-107.53024,-107.92078,-106.19489,-103.68544,-101.34273,-99.158669,-96.561363,-93.374428,-90.473389,-89.503914,-91.771011,-97.10804,-103.63893,-108.74903,-110.6888,-109.70576,-107.84791,-107.47979,-109.48579,-112.43778,-113.41276,-110.031,-102.38506,-93.491302,-87.781471,-88.425476,-95.098114,-103.62597,-107.85437,-102.74137,-86.94503,-63.478848,-38.154655,-16.796803,-2.8225772,3.5759389,4.4648504,2.2753499,-1.7395667,-7.8299961,-16.867628,-29.032942,-43.022877,-56.28759,-66.093147,-70.713745,-70.065559,-65.527664,-59.210899,-53.185574,-49.047665,-47.852093,-50.166428,-55.996773,-64.576134,-74.258446,-82.798851,-88.068283,-88.906761,-85.63588,-79.879402,-73.739944,-68.774826,-65.356842,-62.767963,-59.923508,-56.236107,-52.067997,-48.510738,-46.680092,-47.017269,-49.051281,-51.741436,-54.120777,-55.777206,-56.857277,-57.643837,-58.076012,-57.621166,-55.638988,-51.992878,-47.43858,-43.435543,-41.412724,-41.925152,-44.265434,-46.840397,-48.130146,-47.641808,-46.230637,-45.53949,-46.874458,-50.223888,-54.076038,-56.207088,-54.9949,-50.45393,-44.326744,-39.132626,-36.719551,-37.188313,-38.847397,-39.24033,-36.638184,-31.109411,-24.534882,-19.568983,-18.168289,-20.545761,-25.12941,-29.497072,-31.697704,-31.187193,-28.888773,-26.436571,-25.129343,-25.235565,-26.012161,-26.330713,-25.44952,-23.439203,-21.045933,-19.160515,-18.28981,-18.371813,-18.993179,-19.776934,-20.608553,-21.526861,-22.395535,-22.675121,-21.571083,-18.558674,-13.964046,-9.1542225,-6.0708027,-6.2514496,-9.8564825,-15.304001,-19.818485,-20.67841,-16.514612,-7.9486485,2.7792044,12.963578,20.69927,25.557016,28.361467,30.327002,32.175556,33.807178,34.668358,34.466682,33.654572,33.297558,34.409904,37.241943,41.050396,44.538818,46.668896,47.269867,47.019047,46.829224,47.120438,47.539688,47.349442,46.17907,44.52459,43.543602,44.22868,46.561146,49.335407,50.894672,50.325031,48.236378,46.467396,46.801174,49.552334,53.098202,54.849449,53.129913,48.677715,44.581993,44.459518,49.929066,59.084599,67.174034,69.295601,63.518654,52.394802,41.726376,37.187851,40.834385,49.706684,57.477291,58.171963,49.673157,34.856121,19.724861,9.8187103,7.1941323,9.8040333,13.45148,14.821122,13.49696,11.713857,12.2244,15.942428,21.082666,24.367121,23.364496,18.244184,11.689198,7.0593338,6.1397715,8.0701952,10.164024,9.9600954,6.9911361,3.0047724,0.52948689,0.88296849,3.1064825,4.6107488,3.0630698,-1.8525147,-8.071291,-12.439194,-12.74529,-9.0810595,-3.6322522,0.86403054,2.8475127,2.6502306,1.8090836,1.6319534,2.1742291,2.3931441,1.2874614,-0.95356977,-2.7787821,-2.2997751,1.2292162,6.6282129,11.388678,13.316465,12.071397,9.4637718,8.2224007,10.048796,14.318035,18.372492,19.255175,15.721066,9.1574736,2.7888844,-0.29110268,1.0606608,5.5408225,10.466291,13.583487,14.362871,13.968723,14.073266,15.471189,17.507547,18.663342,17.777103,14.956508,11.531491,9.1535931,8.7656221,10.191613,12.547544,15.006645,17.21143,18.998066,19.779285,18.342165,13.57016,5.8198209,-2.0462508,-5.0321145,1.9308771,21.127434,50.065762,81.763527,107.5069,120.79074,120.33755,110.51126,98.883202,92.308243,93.668671,100.97327,109.0867,112.88747,109.98688,101.60546,91.417603,83.33506,79.628342,80.324875,83.892212,88.460594,92.707863,95.992447,97.960281,98.190659,96.283279,92.312004,87.183914,82.456055,79.56897,78.94577,79.598923,79.615524,77.317764,72.408737,66.354424,61.687603,60.583717,63.531734,68.900604,73.688087,75.047493,71.737831,64.70005,56.48217,49.893658,46.675732,46.897881,49.310524,52.306026,54.82407,56.655926,58.057919,59.065731,59.095966,57.200294,52.850742,46.704937,40.729259,37.419994,38.452316,43.531654,50.212769,54.94669,54.887955,49.481342,40.886826,32.917049,29.015987,30.401167,35.442497,40.663864,42.806625,40.758156,36.212009,32.676365,33.4356,39.700127,50.053001,61.490486,71.351974,78.876938,85.370193,92.864456,102.16839,111.63592,117.57864,116.20565,105.96349,88.814125,69.575729,53.614677,44.200188,41.065769,41.002716,40.078804,36.094929,29.780548,24.049023,21.867002,24.154249,29.079109,33.194099,33.661221,30.116331,24.956888,21.85203,23.411041,29.481943,37.15134,42.445797,42.675781,37.979328,31.137693,25.810127,24.290627,26.148584,28.543188,27.979767,22.43457,12.602942,1.5862695,-6.7467303,-9.7621126,-7.3284841,-1.7326133,3.6031449,5.8360181,3.9448514,-1.057168,-6.9046321,-11.330917,-13.108225,-12.40791,-10.426306,-8.5951004,-7.8490682,-8.3096056,-9.4635983,-10.635479,-11.423567,-11.847051,-12.169023,-12.57907,-13.000506,-13.181304,-13.004246,-12.765327,-13.157705,-14.88959,-18.143667,-22.254648,-25.901682,-27.796076,-27.491102,-25.78636,-24.39529,-24.99049,-28.173222,-33.022808,-37.568363,-39.952892,-39.591717,-37.584423,-36.078949,-36.949383,-40.608547,-45.720909,-50.026257,-51.772091,-50.847481,-48.88102,-48.215462,-50.388115,-55.068844,-60.131683,-62.833214,-61.393665,-56.041763,-48.930904,-43.020771,-40.611992,-42.365223,-47.276455,-53.480434,-59.297775,-63.894756,-67.261986,-69.687553,-71.189636,-71.326927,-69.495354,-65.477013,-59.852097,-53.989048,-49.593849,-48.049328,-49.867809,-54.497002,-60.537037,-66.254623,-70.186317,-71.615051,-70.760902,-68.622078,-66.523338,-65.548721,-66.104797,-67.822289,-69.848518,-71.370995,-72.07148,-72.238319,-72.476158,-73.216743,-74.38047,-75.446335,-75.90274,-75.761238,-75.730659,-76.856911,-79.808304,-84.275085,-88.934807,-92.09333,-92.658905,-90.847206,-88.147705,-86.531204,-87.361656,-90.66082,-95.140182,-98.914139,-100.391,-98.783394,-94.016457,-86.280441,-75.724785,-62.629387,-47.936642,-33.633411,-22.463516,-16.883604,-17.765518,-23.666937,-31.263332,-36.853992,-38.153118,-35.330845,-30.680199,-27.113487,-26.411224,-28.284678,-30.776735,-31.666803,-29.926439,-26.292282,-22.645988,-20.686941,-20.817293,-21.961128,-22.376657,-20.859789,-17.526381,-13.701818,-11.076757,-10.742322,-12.716052,-16.147692,-19.911636,-23.093697,-25.089527,-25.430161,-23.697298,-19.771687,-14.278639,-8.7861881,-5.3720469,-5.6164327,-9.5862141,-15.540804,-20.715424,-22.830057,-21.413866,-18.060925,-15.381139,-15.280867,-17.696831,-20.649002,-21.608757,-19.273907,-14.536159,-9.9491634,-8.0286369,-9.5324364,-12.910769,-15.328253,-14.577947,-10.579587,-5.4298081,-1.9718909,-1.8853229,-4.6342025,-8.0077219,-9.8499231,-9.7110901,-9.1835642,-10.615631,-15.085608,-21.124393,-25.231585,-24.011007,-16.57424,-5.562604,4.0378008,7.6796708,3.9377737,-4.6071534,-12.86883,-16.212355,-13.025897,-5.3446321,2.7539828,7.8336463,9.0727453,8.2900476,8.131237,9.7516785,11.629569,10.340585,2.7852113,-11.613968,-30.200191,-48.329155,-61.784176,-68.854744,-70.846497,-70.828049,-71.51989,-73.687927,-75.976555,-76.139503,-72.760796,-66.336418,-59.086246,-53.704601,-51.878143,-53.453968,-56.662888,-59.160213,-59.233261,-56.54417,-52.122757,-47.740906,-45.045364,-44.840202,-46.767994,-49.467838,-51.142948,-50.34959,-46.71096,-41.215488,-35.86742,-32.743534,-32.86858,-35.525902,-38.484497,-39.144588,-36.035297,-29.800835,-23.028996,-18.929619,-19.578909,-24.749479,-32.019939,-38.081795,-40.426197,-38.379204,-32.913116,-25.484375,-16.789301,-6.3422813,6.8311501,22.916895,40.427505,56.442165,67.92276,73.284508,73.180565,69.963547,66.176514,63.086323,60.234482,56.264393,50.379829,43.337292,37.199783,33.971455,34.065182,35.735661,35.984081,32.423794,24.889545,15.685194,8.2450724,5.0486197,6.1482534,9.2774258,11.452004,10.97329,8.4720249,6.2928629,6.6616096,9.9278193,14.137685,16.289751,14.454528,9.3099508,3.9873528,2.2345257,6.0359392,14.231429,23.0602,28.325331,27.83164,22.575457,15.972647,11.661349,11.303737,13.764049,16.121256,15.787967,12.327167,7.7962852,5.4249926,7.497695,13.793599,21.553905,26.981596,27.348763,22.465242,14.695527,7.5980263,4.0350895,4.8298812,8.6424561,13.000307,15.797331,16.400208,15.812161,15.909775,18.258352,23.179499,29.552597,35.413052,38.999084,39.681747,38.286964,36.632767,36.516724,38.692371,42.409584,45.814941,47.036209,45.356041,41.772175,38.547199,37.93449,40.794624,45.949806,50.736576,52.506012,50.215256,45.146484,40.2831,38.679058,41.777363,48.662441,56.649475,62.790497,65.350502,64.403229,61.330921,57.728054,54.523407,51.852741,49.585381,47.91153,47.410706,48.515301,50.857254,53.164627,53.979328,52.778976,50.640602,49.786358,52.122948,57.699158,64.228951,68.214424,67.108292,61.134205,53.464481,48.470547,49.067989,54.875526,62.453602,67.53389,67.783997,64.235695,60.370773,59.465374,62.042599,65.282234,64.927795,58.473164,47.417507,36.882645,32.614155,37.204018,48.029053,58.400898,61.371571,53.87764,38.609795,22.395918,12.089198,10.53211,15.099035,19.65881,18.63204,10.542144,-1.1354961,-10.248594,-11.824236,-5.0581408,6.3408675,16.494719,20.788908,18.262201,11.642894,5.2684326,2.3711405,3.4145858,6.3194137,8.1658792,7.1340156,3.4852519,-0.84532934,-3.5791137,-3.4181747,-0.6164003,3.3624799,6.7120562,8.1004686,7.0622611,3.9386842,-0.4206087,-4.9701867,-8.7014523,-10.818186,-10.887687,-8.9408054,-5.4594479,-1.2373731,2.819277,5.8549776,7.1601319,6.2624269,3.0980747,-1.761116,-7.005085,-10.836468,-11.641605,-8.8374014,-3.4088476,2.2969968,5.5721083,4.6881843,-0.16735627,-6.9425774,-12.782437,-15.510284,-14.673211,-11.568481,-8.3074999,-6.5603561,-6.7696347,-8.2465048,-9.9418049,-11.258833,-12.3259,-13.610734,-15.272853,-16.830763,-17.443789,-16.597809,-14.640296,-12.701358,-12.002136,-13.033047,-15.210274,-17.276644,-18.153603,-17.597649,-16.150547,-14.415677,-12.240351,-8.5130606,-1.8592598,8.1698236,20.275343,31.66264,39.377579,41.956455,40.314613,37.221405,35.61554,36.803917,39.713768,41.714581,40.505028,35.840923,29.948004,26.289049,27.411871,33.211918,40.712708,45.547295,44.298233,36.351124,24.225693,12.245457,4.3330121,2.1397016,4.441164,7.9879627,9.2471619,6.1111937,-1.2051146,-10.373638,-18.046051,-21.289993,-18.781591,-11.325598,-1.534585,7.2148652,12.167169,12.359401,9.0422535,5.0831599,3.5512002,6.1361904,12.221454,19.151798,23.610796,23.381062,18.504608,11.178081,4.4545298,0.53531885,-0.32393524,0.33255875,0.3826772,-1.4128028,-4.6686029,-7.7980618,-9.2522202,-8.6782541,-7.1780334,-6.4851089,-7.6464982,-10.153332,-12.168264,-11.738873,-8.1902351,-2.7373073,2.1362166,4.1581335,2.6460831,-1.1225129,-4.7903824,-6.4645786,-5.9057679,-4.5914674,-4.638905,-7.3247838,-12.183719,-17.252783,-20.250475,-19.870068,-16.330048,-10.871523,-4.6268125,2.2920125,10.813087,21.997406,35.829453,50.559792,63.10783,70.350151,70.555496,64.14666,53.396854,41.311382,30.376677,21.838779,15.755389,11.57182,8.7184868,6.8511848,5.7064214,4.8496857,3.6354218,1.480448,-1.7377886,-5.4781785,-8.7281094,-10.513659,-10.424896,-8.8386211,-6.7185702,-5.1354184,-4.7960362,-5.8190536,-7.8071661,-10.091037,-11.974432,-12.891073,-12.4995,-10.778795,-8.1269255,-5.3702507,-3.5784917,-3.6814458,-6.0397992,-10.207035,-15.046742,-19.171858,-21.477718,-21.49403,-19.411251,-15.857213,-11.638104,-7.6198897,-4.7417369,-3.9848242,-6.1207647,-11.256627,-18.445629,-25.725582,-30.766926,-31.925497,-29.156965,-24.211166,-19.869967,-18.547277,-20.993513,-25.855415,-30.388548,-31.961683,-29.517269,-24.162184,-18.557175,-15.463698,-16.277952,-20.364422,-25.514887,-29.210808,-29.937567,-27.828896,-24.354427,-21.323984,-19.835884,-19.759727,-19.980246,-19.176735,-16.643492,-12.692244,-8.4647455,-5.3235621,-4.1922846,-5.18929,-7.6956735,-10.752285,-13.530506,-15.627496,-17.070799,-18.089798,-18.830317,-19.199596,-18.934925,-17.848465,-16.08403,-14.200302,-12.98052,-13.034158,-14.40122,-16.413433,-17.951504,-18.01664,-16.319763,-13.530133,-10.9782,-9.9183779,-10.748464,-12.667928,-14.046974,-13.370483,-10.243042,-5.8432117,-2.4815671,-2.4279902,-6.6270065,-14.039538,-22.031765,-27.649302,-29.09873,-26.623936,-22.295332,-18.84185,-18.184961,-20.482054,-24.170452,-26.930292,-26.986336,-24.030622,-19.308685,-14.899366,-12.630337,-13.205379,-15.937815,-19.142952,-20.935781,-20.050215,-16.349291,-10.857945,-5.328939,-1.5049305,-0.34778515,-1.5561229,-3.6339192,-4.5771337,-2.9437995,1.1928229,5.9599471,8.3556604,5.6600747,-3.0961685,-16.425346,-30.916708,-42.819118,-49.854935,-52.264347,-52.480564,-53.617538,-57.643791,-64.297951,-71.347717,-75.985641,-76.487213,-73.141273,-67.951111,-63.376671,-60.947746,-60.593746,-61.025753,-60.828342,-59.504993,-57.812763,-57.220512,-58.884583,-62.806572,-67.681618,-71.502686,-72.55291,-70.240463,-65.369255,-59.760674,-55.448101,-53.817142,-55.039513,-58.011532,-60.826023,-61.621243,-59.486229,-55.018135,-50.200314,-47.539692,-48.788822,-53.881145,-60.708839,-65.990967,-66.878845,-62.468098,-54.357254,-45.885258,-40.434883,-39.751038,-43.223583,-48.503544,-53.011768,-55.376678,-55.937626,-56.098606,-57.078297,-58.966206,-60.727222,-61.097084,-59.672512,-57.369423,-55.886318,-56.535637,-59.278782,-62.677193,-64.838364,-64.726669,-62.929295,-61.316833,-61.785084,-64.901596,-69.36631,-72.675735,-72.593758,-68.511261,-61.849667,-55.276928,-51.23951,-50.702721,-52.807243,-55.550236,-56.992802,-56.254723,-53.787785,-50.91177,-49.011711,-48.890385,-50.554169,-53.391529,-56.513699,-59.052948,-60.363815,-60.174656,-58.704723,-56.648685,-54.891747,-53.94791,-53.357311,-51.446415,-45.76762,-34.180912,-16.104918,6.7532301,30.701418,51.381256,65.505737,72.135857,72.8293,70.593925,68.230171,66.96843,66.117622,63.855179,58.649296,50.475117,41.137135,33.533638,30.284378,32.464306,39.091373,47.583767,54.898129,58.749439,58.347237,54.394615,48.495121,42.369877,37.291233,33.924034,32.488945,32.995842,35.32373,39.105804,43.575344,47.599846,50.024117,50.222584,48.575474,46.558926,46.313698,49.834927,58.147934,70.865105,86.334793,102.2928,116.67993,128.22665,136.55972,141.85483,144.30081,143.71992,139.58063,131.40486,119.3426,104.57545,89.275124,76.049583,67.069672,63.255089,63.917034,67.071106,70.319595,71.899391,71.37085,69.579521,67.907494,67.248077,67.335495,66.886154,64.521362,59.91518,54.389156,50.442287,50.352489,54.62698,61.29427,66.61731,66.972313,60.874466,49.945728,38.177845,29.84255,27.236933,29.585443,33.741211,36.241699,35.449219,32.471992,30.330008,31.926903,38.110928,47.020615,55.081795,59.002041,57.534954,51.995918,45.324074,40.359436,38.395805,38.787506,39.675388,39.244503,36.722092,32.622841,28.2799,25.088282,23.926405,24.969442,27.815334,31.718607,35.802765,39.259884,41.58078,42.762962,43.330132,44.030117,45.287086,46.730225,47.183502,45.263187,40.31332,33.097599,25.724493,20.721823,19.7384,22.644194,27.599478,32.070816,34.172737,33.515827,31.083372,28.310978,26.055353,24.162464,21.876059,18.710245,15.087627,12.24278,11.453004,13.16691,16.678705,20.591848,23.727461,25.806904,27.410233,29.264542,31.427074,33.018814,32.752918,29.895746,24.946432,19.498594,15.334389,13.368712,13.184099,13.473657,13.045156,11.626734,9.8704329,8.5703955,7.7387252,6.3309016,2.9451728,-2.942384,-10.136498,-16.025728,-18.006899,-15.168871,-9.0786123,-3.0267715,-0.10087612,-1.2893226,-4.8727069,-7.5602241,-6.6772938,-1.9888629,4.0546732,7.838654,6.8972745,1.5085604,-5.4734464,-10.439837,-11.310697,-8.800746,-5.8661489,-5.7202559,-9.7156897,-16.430912,-22.48378,-24.48163,-20.851467,-12.468808,-1.8545463,8.3762541,16.751162,23.159912,28.134747,31.903524,33.98748,33.618572,30.592991,25.852953,21.303783,18.948753,19.916161,24.01619,30.070766,36.718605,43.106308,49.024929,54.50531,59.287338,62.640011,63.701752,62.087627,58.294071,53.576439,49.359222,46.565365,45.287964,44.963699,44.861988,44.529137,43.930172,43.293648,42.862019,42.741951,42.882019,43.070427,42.877995,41.63958,38.671944,33.799915,27.940485,23.236162,22.331779,26.910759,36.253986,46.855865,53.698895,52.783913,43.554863,29.644384,17.204905,11.559709,14.100899,21.407837,27.309874,26.761866,19.149456,8.8599768,2.6220605,5.1950889,16.137676,29.78302,38.536541,37.464046,27.272314,13.795226,4.3407831,3.2668014,9.6005945,18.124472,23.049862,21.750036,16.097111,10.669318,9.248579,12.141598,16.184534,17.337215,13.918038,8.0757103,4.3496194,6.2553649,13.282767,20.492807,21.169834,10.908749,-9.4906435,-34.206165,-55.550266,-68.111206,-71.336311,-69.11998,-66.919167,-68.412636,-73.796913,-80.529106,-85.643906,-87.848099,-87.993233,-87.847603,-88.335312,-88.693703,-87.190895,-82.793701,-76.430214,-70.788757,-68.692085,-71.166588,-76.595779,-81.617828,-83.218628,-80.645699,-75.887016,-72.423141,-73.085175,-78.379684,-86.25927,-93.345123,-96.734535,-95.304428,-89.909958,-82.643753,-75.811241,-71.215813,-69.905052,-72.135612,-77.287048,-83.757118,-89.159798,-91.087746,-88.268074,-81.466911,-73.421814,-67.577271,-66.197311,-68.970558,-73.061638,-74.716728,-71.524055,-63.941082,-55.103661,-48.999958,-48.135689,-52.141304,-58.153927,-62.659481,-63.563858,-61.182739,-57.619713,-55.095673,-54.446476,-54.801632,-54.567989,-52.912468,-50.613106,-49.63446,-51.718025,-56.989723,-63.58466,-68.581879,-69.638565,-66.238182,-59.743488,-52.266392,-45.158546,-38.157204,-29.746511,-18.464178,-4.2605247,10.988615,24.135258,32.148075,33.388359,28.083931,17.889629,4.9917245,-8.6107435,-21.301998,-31.671326,-38.409744,-40.619869,-38.441086,-33.492832,-28.604038,-26.711515,-29.408772,-35.990887,-43.672657,-49.004948,-49.766087,-46.240356,-41.085308,-37.795536,-38.621071,-43.169411,-48.557674,-51.082161,-48.456253,-41.297741,-32.951283,-27.697365,-28.34976,-34.622211,-43.210773,-49.55019,-50.237434,-44.749603,-35.521927,-26.426569,-20.611183,-18.971241,-20.074612,-21.43417,-21.220833,-19.31246,-17.082468,-16.186666,-17.246464,-19.342491,-20.642179,-19.69648,-16.492516,-12.528825,-9.8575964,-9.7403536,-11.818398,-14.340837,-15.278189,-13.571762,-9.7126389,-5.329483,-2.1366217,-0.98385584,-1.6051301,-3.114959,-4.7684031,-6.363812,-8.0160389,-9.571167,-10.251491,-8.9491663,-5.0556087,0.78076512,6.6266685,10.160591,10.013237,6.6846571,2.3759737,-0.2288612,0.51552033,4.3649011,9.5361128,13.980029,16.676939,18.069326,19.384373,21.409657,23.678638,24.714041,23.177458,19.071861,14.054769,10.539833,10.15121,12.613387,15.903959,17.628998,16.699797,14.135282,12.3921,13.646379,18.206413,24.1733,28.620459,29.504681,27.002832,23.352175,21.305655,22.269255,25.401306,28.273958,28.60458,25.832296,21.449442,17.899261,16.864723,18.184111,20.145142,20.895449,19.895306,18.320641,18.108295,20.352493,24.266344,27.538612,27.906277,24.852942,20.194508,17.056829,17.874245,22.754425,29.346395,34.343529,35.63718,33.682106,31.156258,31.144108,35.058933,41.682972,47.938465,50.843384,49.3326,44.753582,39.760735,36.406879,34.738003,32.823757,28.173395,19.568199,8.0858011,-3.3550632,-11.631547,-15.190587,-14.859354,-13.227954,-13.034507,-15.565886,-20.020664,-24.151072,-25.722412,-23.880653,-19.633699,-15.220672,-12.795806,-13.216081,-15.61239,-17.945595,-18.19244,-15.48047,-10.554266,-5.3471818,-1.9277288,-1.4173834,-3.4702122,-6.5766177,-8.9893532,-9.7289486,-9.0942764,-8.4015188,-9.1248598,-11.955566,-16.32909,-20.679159,-23.246132,-22.955757,-19.881554,-15.086111,-10.015229,-5.8414931,-3.1083214,-1.7697145,-1.464499,-1.7746307,-2.3304577,-2.809118,-2.9591887,-2.7089446,-2.2621152,-2.023495,-2.310595,-3.0278411,-3.5990844,-3.329989,-2.0377882,-0.49148729,-0.21414386,-2.5883873,-7.7486444,-14.039359,-18.58429,-18.818459,-14.120173,-6.4638329,0.47129968,3.3304007,1.0439377,-4.5370288,-9.7932482,-11.581182,-9.1298342,-4.3523698,-0.38424253,0.63935429,-0.97556007,-2.8298173,-2.326685,1.2356259,5.9066987,8.2950039,6.0003881,-0.3862673,-7.154438,-9.4369926,-4.0790038,8.4100094,24.070681,37.728104,45.814751,48.031982,46.927715,45.850708,46.737129,49.155533,51.069935,50.594681,47.427605,43.012875,39.465858,38.153099,38.961449,40.678337,42.045109,42.59774,42.672939,42.691898,42.434158,41.016525,37.690197,32.848167,28.362421,26.794075,29.845747,37.054161,45.668217,51.928741,53.048222,48.709702,41.193245,34.089615,30.40946,31.189528,35.299099,40.369675,44.150227,45.48793,44.529354,42.277096,39.942142,38.46159,38.271328,39.217491,40.522903,40.898724,38.971058,34.019569,26.696028,19.193077,14.513692,15.027206,21.053881,30.379057,39.158249,43.853958,43.152397,38.729416,34.366558,33.898346,39.178139,49.231541,61.024616,71.289986,78.247162,82.198624,84.753944,87.316086,89.887924,90.981384,88.648506,81.92186,71.706459,60.540596,51.359673,46.002232,44.324421,44.406525,43.700928,40.471024,34.762161,28.443607,24.3563,25.021318,31.517696,43.000046,57.004089,70.348396,80.221504,85.013145,84.597336,80.029648,72.873428,64.510521,55.757172,46.914986,38.137413,29.823929,22.756861,17.871254,15.783775,16.365747,18.628489,21.018787,22.000269,20.653578,17.029856,12.117597,7.4498658,4.5083995,4.1383572,6.1803823,9.4681921,12.235563,12.825782,10.439554,5.5752826,-0.10490268,-4.494791,-6.0391083,-4.4925399,-1.0120933,2.4936686,4.395844,4.1545348,2.4357033,0.50898033,-0.63453358,-0.83546424,-0.64089853,-0.66034901,-0.95891809,-1.016992,-0.33967394,0.75523281,0.87109691,-1.8198209,-8.2960854,-17.615589,-26.900219,-32.60218,-32.408428,-26.624786,-18.117579,-10.773135,-7.3926601,-8.3201027,-11.62339,-14.62291,-15.682118,-15.052317,-14.276963,-14.704804,-16.285942,-17.583267,-16.99437,-14.234215,-10.881981,-9.454566,-11.57865,-16.581043,-21.624197,-23.465233,-20.726542,-15.098826,-10.525102,-10.764685,-16.881298,-26.344637,-34.424564,-37.055183,-33.351448,-26.156204,-20.261852,-19.446552,-24.209263,-31.598091,-37.160671,-37.711544,-33.176495,-26.459023,-21.573195,-21.315664,-25.885786,-33.106998,-39.854744,-43.659977,-43.586155,-40.144501,-34.667137,-28.73756,-23.956417,-21.856333,-23.610605,-29.444584,-38.106354,-46.947819,-52.872375,-53.785229,-49.708664,-42.803883,-36.190384,-32.248947,-31.465158,-32.526585,-33.541279,-33.48951,-32.888958,-33.247902,-35.766209,-40.2831,-45.263626,-48.823605,-49.998165,-49.268066,-47.91901,-46.722424,-44.996132,-40.882591,-32.786983,-20.99094,-8.1951685,1.6041067,5.3428597,2.8037539,-3.1201661,-8.1235113,-9.1506214,-6.3166065,-2.7956159,-2.6792891,-8.1493301,-17.798342,-27.230404,-31.618328,-28.627592,-19.864895,-9.9331436,-3.6820951,-3.3674421,-7.4658623,-11.837114,-12.459039,-8.0122566,-0.7262848,4.9971056,5.3059511,-0.69965577,-10.314017,-18.677195,-21.451519,-17.172489,-7.9752431,1.6301131,7.1624331,6.3847322,0.16404893,-8.3608236,-15.68886,-19.792957,-20.877056,-20.748671,-21.321846,-23.237158,-25.448292,-25.991236,-23.404839,-17.870773,-11.31869,-6.3986068,-4.9446669,-6.8963919,-10.373993,-12.88118,-12.880252,-10.724683,-8.3269787,-7.7568555,-9.6805353,-12.696973,-14.071901,-11.464062,-4.5549479,4.496418,12.137917,15.431152,13.754972,9.1420422,5.0270038,4.1724415,7.0393758,11.573766,14.487343,13.2073,7.314189,-1.3232647,-9.6730137,-15.154013,-16.793768,-15.398904,-12.871929,-11.253422,-12.047132,-16.007025,-23.179834,-32.910919,-43.756199,-53.545105,-59.888775,-61.128571,-57.279621,-50.320618,-43.449223,-39.556717,-39.752254,-42.852814,-46.217445,-47.457546,-45.955193,-43.204243,-41.736305,-43.330765,-47.704239,-52.578541,-55.116184,-53.790478,-49.447414,-44.838009,-42.909763,-44.96986,-49.917072,-55.02813,-57.757336,-57.350876,-55.222683,-53.875866,-55.113457,-58.7304,-62.534019,-63.659401,-60.32159,-52.909653,-43.795563,-36.05439,-31.922295,-31.873352,-34.711376,-38.422279,-41.1576,-41.812717,-40.07362,-36.187668,-30.794245,-24.931581,-20.047388,-17.75482,-19.267548,-24.762524,-33.079426,-42.022503,-49.164463,-52.733707,-52.129234,-47.877769,-41.214043,-33.649334,-26.766119,-22.165918,-21.282953,-24.871431,-32.325607,-41.322636,-48.266563,-49.585854,-43.333813,-30.198532,-13.242235,3.5997066,17.454227,27.751883,36.030556,44.439899,53.910767,63.179104,69.318588,69.472725,62.706375,50.812984,37.564583,26.855011,20.842129,19.148783,19.4888,19.220139,16.829067,12.50577,7.617506,3.5817943,0.93993044,-0.80451077,-2.5855267,-4.9131417,-7.37394,-8.8259478,-8.1443129,-5.0283608,-0.36354291,4.0835028,6.4685698,5.742249,2.1466789,-2.8958476,-7.4344811,-9.8669701,-9.6368341,-7.4315801,-4.786346,-3.2727811,-3.6633828,-5.5045009,-7.3524065,-7.5899024,-5.4031324,-1.3641109,2.7599502,4.9234934,3.961602,0.32506716,-4.0597038,-6.7564301,-6.070673,-1.8790168,4.4092898,10.673819,15.14833,17.101215,16.817783,15.0588,12.485286,9.4743443,6.3741183,3.8580644,2.9386115,4.4767947,8.4674702,13.64994,17.856094,19.029615,16.355942,10.793392,4.6283598,0.28372139,-0.90876257,0.75706005,3.7957683,6.5810556,8.2952614,9.1854029,10.054389,11.446631,13.16337,14.447929,14.655812,13.856073,12.874504,12.726504,13.8678,15.845598,17.639267,18.453432,18.362556,18.290619,19.296343,21.672005,24.545029,26.340551,25.837551,23.083036,19.473808,16.875887,16.345371,17.347605,18.078819,16.751055,13.007081,8.4796638,6.0287452,8.0552502,14.921838,24.484818,33.060413,37.263645,35.639156,29.180048,20.553501,12.629823,7.2409353,4.8036571,4.7917652,6.5012879,9.4873772,13.44068,17.78418,21.49877,23.468166,23.160154,21.117283,18.803518,17.80287,18.863396,21.44025,24.07655,25.383526,24.953794,23.579662,22.631111,23.038136,24.597441,26.090038,26.122952,24.104309,20.679474,17.345039,15.528604,15.769917,17.526648,19.661955,21.20154,21.811033,21.717665,21.252342,20.46888,19.19442,17.471718,15.985618,16.020271,18.824566,24.732424,32.643417,40.3041,45.33601,46.460892,44.211472,40.701191,38.568047,39.669621,44.209011,50.69846,56.707573,59.983181,59.420769,55.511196,50.133873,45.802773,44.63287,47.397858,53.074757,59.164543,62.786392,62.134129,57.566971,51.639549,47.859058,48.699837,53.968578,60.581329,64.086792,61.217663,52.016098,40.18679,31.304567,29.799118,36.445656,47.86726,58.382416,63.130264,60.637951,53.362431,45.991543,42.638603,44.653702,50.272964,56.106602,59.348148,59.27438,57.229446,55.3545,55.089916,56.463203,58.48082,60.123524,61.095352,61.796089,62.670792,63.585068,63.808926,62.646011,60.17215,57.416508,55.741718,55.83532,57.087322,57.900192,56.792767,53.534752,49.459667,46.657787,46.560993,48.909203,51.86235,53.226543,51.954891,48.849506,45.921234,44.806835,45.340157,45.323154,41.758663,32.81155,19.239708,4.337851,-7.6284199,-13.577407,-13.092278,-8.4245996,-3.1424613,-0.31854582,-1.3017242,-5.6081967,-11.71038,-18.016459,-23.40329,-27.156569,-28.67046,-27.392757,-23.200941,-16.931398,-10.53813,-6.5427094,-6.9286494,-12.078835,-20.419424,-29.05418,-35.086395,-36.915894,-34.821968,-30.575483,-26.377003,-23.756788,-23.015697,-23.412832,-23.870445,-23.72448,-23.103651,-22.785219,-23.673052,-26.210037,-30.029099,-34.003178,-36.673592,-36.877533,-34.312614,-29.777361,-24.937538,-21.661764,-21.193207,-23.552645,-27.509718,-31.193232,-33.060249,-32.708023,-31.057728,-29.776239,-30.248045,-32.696186,-35.982624,-38.219677,-37.833366,-34.443302,-29.044407,-23.413584,-19.142321,-16.902088,-16.360592,-16.717113,-17.422087,-18.558647,-20.637293,-23.991482,-28.251463,-32.317451,-34.894306,-35.243675,-33.644279,-31.241089,-29.377575,-28.851768,-29.57658,-30.831678,-31.878981,-32.467564,-32.853943,-33.330696,-33.635418,-32.72049,-29.128918,-21.793316,-10.7634,2.6143973,16.193495,27.894573,36.413494,41.379692,42.972515,41.376045,36.53323,28.396227,17.456469,5.0837026,-6.6941791,-15.944237,-21.677298,-24.239071,-24.962753,-25.295511,-25.971991,-26.780827,-27.0543,-26.496363,-25.712881,-26.009838,-28.550201,-33.439823,-39.403702,-44.333736,-46.398346,-45.010002,-41.037197,-36.160099,-31.849857,-28.682781,-26.421804,-24.708075,-23.741268,-24.337814,-27.248117,-32.232128,-37.665672,-41.143761,-40.840221,-36.772457,-31.064806,-26.897903,-26.701077,-30.700077,-36.763451,-41.679211,-43.06123,-40.668129,-36.305584,-32.432198,-30.453522,-29.884018,-28.939016,-26.115297,-21.615648,-17.565662,-16.797615,-20.976496,-29.325096,-38.83263,-45.852646,-48.07671,-45.633072,-40.662216,-35.739311,-32.258381,-29.852844,-27.161188,-23.285517,-18.821383,-15.665158,-15.704591,-19.321377,-24.808886,-29.199276,-30.021936,-26.850801,-21.601629,-17.351913,-16.428219,-18.988266,-22.997986,-25.590706,-24.910389,-21.256227,-16.836058,-14.344357,-15.31008,-19.239155,-24.00528,-27.127588,-27.069195,-23.792652,-18.390985,-12.236163,-6.3194523,-1.1832082,2.6925952,4.5556087,3.536186,-0.71420234,-7.3732777,-14.375813,-19.159386,-19.890093,-16.43787,-10.466375,-4.5413952,-0.79152095,0.062972143,-1.2477485,-3.3634272,-5.3507986,-7.2544365,-9.8019123,-13.548057,-18.146364,-22.329903,-24.651012,-24.455206,-22.368347,-19.90801,-18.457211,-18.314445,-18.506657,-17.527773,-14.504134,-9.9616756,-5.6209831,-3.3155019,-3.7582898,-6.025053,-8.1642094,-8.5802135,-7.2862692,-6.1615324,-7.9668422,-14.670689,-26.091848,-39.687828,-51.628338,-58.539734,-58.954842,-53.742321,-45.427204,-36.921291,-30.403318,-26.843252,-26.187405,-27.84609,-31.076973,-35.091148,-39.003593,-41.869503,-42.930813,-41.965462,-39.489006,-36.617115,-34.612415,-34.343979,-35.936668,-38.760506,-41.712257,-43.616119,-43.5755,-41.202702,-36.728466,-30.995325,-25.295683,-21.017757,-19.156778,-19.883736,-22.419123,-25.344051,-27.232775,-27.268887,-25.485863,-22.4998,-18.943714,-15.025414,-10.54851,-5.3873086,-0.040718112,4.2249756,5.8753161,4.0121951,-0.9058392,-7.0735049,-12.178077,-14.601458,-14.229111,-12.326163,-10.546837,-9.7381392,-9.3664579,-7.993371,-4.5070958,0.73932606,5.7266521,7.7595267,5.1024051,-1.7619271,-10.099363,-16.227602,-17.43708,-13.417542,-6.3743262,0.19673157,3.330821,1.9805022,-2.7198458,-8.2856894,-12.176591,-12.785057,-9.70401,-3.4000194,5.2479033,15.154785,24.958735,32.981426,37.549778,37.694927,33.844345,27.969986,22.907358,21.082462,23.318417,28.425888,33.854492,37.053978,36.769798,33.549713,29.235117,25.821669,24.413647,24.862322,26.191021,27.40991,28.1341,28.637758,29.411905,30.631733,31.953003,32.768929,32.7019,31.939402,31.161016,31.116018,32.163116,34.086311,36.274998,38.083725,39.084995,39.062614,37.844456,35.225025,31.143303,26.024099,20.968124,17.501627,16.883528,19.336565,23.724249,27.989906,30.199287,29.598896,27.028564,24.394817,23.503595,24.973858,27.915415,30.563246,31.437449,30.261875,28.053074,26.363611,26.234133,27.584665,29.43918,30.768559,31.293228,31.62307,32.613506,34.420338,36.007118,35.578247,31.75621,24.74242,16.616701,10.437846,8.5901155,11.367659,16.714148,21.365198,22.780514,20.747173,17.701429,17.554886,23.666193,37.05957,55.807674,75.817078,92.509987,102.51172,104.59415,99.629585,89.827461,77.77224,65.685768,55.062408,46.595085,40.258232,35.494225,31.523569,27.758955,24.175678,21.408653,20.429295,21.898853,25.547646,29.996098,33.226681,33.529079,30.417183,24.972179,19.363386,15.768691,15.278017,17.388832,20.366976,22.251877,21.920256,19.608841,16.626253,14.462118,13.840936,14.282964,14.426129,12.918069,9.3602057,4.7507143,1.1435299,0.66351181,4.3704772,11.563019,19.908947,26.381805,28.577005,25.777336,19.248684,11.620617,5.667027,3.1024916,3.9952977,7.0547748,10.571458,13.428714,15.588069,17.785349,20.677675,24.03705,26.5742,26.579363,23.02985,16.467001,9.0341158,3.5473909,2.0701671,4.7913785,9.8666668,14.330299,15.572221,12.563524,6.1971965,-1.3476766,-7.7548256,-11.545365,-12.406203,-10.8726,-7.7611871,-3.8056953,0.32757166,3.8413663,5.7870574,5.412951,2.700223,-1.3598512,-5.1089683,-7.1287756,-7.1868019,-6.5410352,-7.2520022,-10.797353,-16.826082,-22.928171,-25.741112,-22.875761,-14.552538,-3.903301,4.3761287,6.3667502,0.98280972,-9.4085293,-20.153185,-26.608555,-26.31805,-19.942768,-10.586012,-2.043977,2.9818687,3.8075738,1.5383886,-1.9278134,-4.9585991,-6.7497239,-7.275661,-6.9033308,-6.0507922,-5.0882621,-4.4037051,-4.4171076,-5.411396,-7.2574449,-9.2567387,-10.284441,-9.2214127,-5.4629312,0.76553738,8.441185,16.082844,22.214563,25.763208,26.291763,24.063099,19.962587,15.28546,11.395766,9.3196316,9.4256954,11.362773,14.318138,17.46134,20.296352,22.685707,24.545162,25.479269,24.72291,21.555872,15.977154,9.1361656,3.0764239,-0.22629645,-0.015049965,2.6746662,5.5127363,6.2603683,4.2137513,0.73136765,-1.6046402,-0.74518722,3.2775764,8.0992813,10.366033,7.9053168,1.3376594,-5.9867949,-9.8075829,-7.4662619,0.44251847,10.329286,17.631964,19.352512,15.564849,9.0504618,3.4308839,1.0788443,2.1142278,4.9565477,7.824635,10.002341,11.991869,14.589117,17.743078,20.197474,20.269798,17.199522,11.996257,7.0364037,4.5748358,5.1856351,7.2767072,8.1113358,5.6994624,0.26692677,-5.7428179,-9.1766129,-8.1772118,-3.3187523,2.8861821,7.7187042,9.9684792,10.414651,10.781401,12.018045,13.275393,12.449383,7.9787517,0.56959867,-6.5623832,-9.372056,-5.6529932,3.0625176,11.773335,14.508257,7.648304,-7.9285755,-27.199438,-43.631241,-52.506409,-52.999306,-47.940403,-41.680161,-37.560207,-36.538273,-37.562721,-39.074997,-40.373173,-41.881977,-44.323288,-47.630577,-50.582939,-51.503712,-49.48922,-45.192188,-40.507423,-37.346043,-36.388424,-36.74419,-36.774998,-35.462193,-33.275658,-31.860342,-32.741337,-36.010593,-40.016056,-42.366589,-41.589428,-38.25098,-34.67923,-33.40427,-35.370243,-39.189968,-42.025593,-41.547337,-37.636898,-32.629719,-29.868809,-31.503927,-37.016186,-43.479801,-47.408871,-46.960258,-43.023567,-38.485485,-36.197254,-37.048523,-39.457554,-40.598221,-38.473579,-33.355595,-27.54261,-23.556465,-22.00646,-20.635221,-15.31996,-2.5203545,18.313099,43.880676,68.293579,85.72673,92.925598,90.194427,80.490967,67.405632,53.372349,39.123951,24.459566,9.506135,-4.5767932,-15.974721,-23.334763,-26.704554,-27.50469,-27.472462,-27.312628,-26.072752,-21.808756,-13.204877,-1.0875947,11.269139,19.431593,20.04866,12.73759,0.44080445,-12.038372,-20.523605,-23.559305,-22.921968,-22.297369,-24.940584,-31.697643,-40.50753,-47.609276,-49.699203,-45.788143,-37.745724,-29.301888,-24.124659,-24.034788,-28.25914,-34.010818,-37.993893,-38.018513,-33.94952,-27.609476,-21.779398,-18.832748,-19.651756,-23.300976,-27.570541,-30.112741,-29.626381,-26.516413,-22.682545,-20.506744,-21.516397,-25.41152,-30.005486,-32.191559,-29.501907,-21.476917,-10.110324,0.91108906,7.8312607,8.5116529,3.3439155,-5.0414829,-13.079396,-17.897118,-18.463242,-15.75989,-12.010378,-9.4470463,-9.2637281,-11.214218,-13.944231,-15.784731,-15.570716,-13.110638,-9.155798,-4.9632092,-1.7111394,-0.049921621,0.025325947,-1.0325581,-2.7146716,-4.7910986,-7.3874812,-10.750252,-14.844578,-19.055086,-22.230255,-23.121975,-21.020052,-16.227863,-10.073799,-4.4017434,-0.78294611,0.13837211,-1.1699693,-3.4749739,-5.4208598,-6.0959101,-5.2561512,-3.1904213,-0.42928874,2.4647307,4.9354749,6.4053884,6.3595405,4.6062088,1.5691425,-1.6550132,-3.6500072,-3.3486011,-0.65813375,3.3663118,6.9771361,8.6103764,7.6931815,4.9131441,1.80221,-0.093819663,0.047866989,2.0968933,5.3025126,8.8805952,12.417203,15.838846,19.05122,21.6073,22.742224,21.827213,18.952299,15.200993,12.339015,12.010641,14.870132,20.158157,25.998459,30.288012,31.719412,30.403385,27.776396,25.852676,26.206749,29.190052,33.757591,37.981625,40.008953,39.007648,35.643764,31.825481,29.788637,30.92255,34.905643,39.618176,41.951145,39.178577,30.245161,16.325296,0.3606458,-14.194398,-24.783028,-30.616602,-32.631832,-32.671059,-32.417728,-32.680321,-33.334648,-33.810207,-33.711334,-33.162926,-32.719837,-32.98661,-34.248238,-36.346619,-38.823715,-41.179092,-43.05159,-44.249611,-44.684193,-44.321434,-43.208996,-41.539471,-39.661461,-37.995708,-36.89431,-36.52956,-36.863583,-37.678185,-38.60461,-39.135719,-38.678001,-36.726467,-33.157394,-28.490385,-23.892872,-20.799305,-20.26297,-22.390722,-26.232498,-30.24766,-33.089561,-34.213177,-33.914474,-32.815613,-31.230564,-28.953747,-25.688351,-21.78599,-18.622726,-18.106543,-21.443594,-27.954311,-34.896503,-38.702061,-37.062542,-30.571207,-22.72205,-18.029135,-19.28887,-25.702068,-33.164204,-36.693451,-33.550259,-25.060839,-15.916963,-11.331143,-13.834132,-21.760506,-30.376841,-34.885338,-33.326908,-27.529915,-21.598665,-19.08642,-20.812376,-24.730967,-27.75881,-28.091789,-26.270264,-24.246799,-23.243967,-22.129026,-17.691254,-6.8090467,10.950546,32.197937,51.030853,62.105762,63.544426,57.804886,49.978481,44.672935,43.532825,44.937149,45.871891,44.500103,41.558689,39.648647,41.05077,45.765434,51.287067,54.331982,53.283909,49.553944,46.786507,48.363762,54.893799,63.438747,69.089989,67.917336,59.393997,46.747963,35.059605,28.372086,27.645279,30.732391,34.18568,35.557045,34.679962,33.247837,33.197636,35.143433,37.927494,39.483688,38.298882,34.43483,29.485594,25.620331,24.424143,26.244036,30.281664,35.156513,39.484627,42.226799,42.890148,41.777515,40.26664,40.799446,46.21677,58.453407,77.180412,99.292068,119.82674,134.07568,139.79192,138.18405,133.01807,128.30884,126.0079,125.13127,122.84467,116.72651,106.64148,94.932961,84.818489,78.138702,74.085617,69.86129,62.853027,52.79921,42.366894,35.627682,35.389404,41.185253,49.33445,55.104256,55.56488,51.234604,45.418148,41.710697,41.396564,42.546406,41.449226,35.397842,24.896173,13.722852,6.7347884,6.830061,13.077822,21.255337,26.442585,25.979433,20.89241,14.949416,12.072888,13.868858,18.852024,23.730709,25.729534,24.308058,21.168077,18.697527,18.083025,18.484236,17.83321,14.618121,9.2999067,4.2819047,2.398273,4.9547477,10.696169,16.452204,19.071396,17.379831,12.889017,8.8151054,8.0758963,11.56009,17.720285,23.636827,26.764984,26.230127,22.95055,18.705605,14.926853,12.048842,9.7373772,7.6383548,5.9525657,5.3526936,6.3244786,8.4910622,10.517815,10.774109,8.3652582,3.8475876,-0.88573533,-3.537405,-2.6307461,1.6736773,7.6136699,12.661101,14.688055,12.882349,8.0323896,2.1428494,-2.3843441,-3.6645811,-1.0368245,4.6513166,11.292788,16.282848,17.583838,14.683145,8.9680395,3.2198501,0.35063493,1.9549711,7.4472909,14.309532,19.375917,20.465063,17.435312,12.062768,6.8542056,3.5577536,2.30338,1.8674802,0.80074751,-1.410741,-3.9772294,-5.476512,-5.0602913,-3.288799,-1.930647,-2.7945571,-6.3773255,-11.30344,-15.039285,-15.499182,-12.509805,-8.1206522,-5.4629979,-6.8114581,-12.06555,-18.651953,-22.97188,-22.53643,-17.478182,-10.499008,-5.279685,-4.3269649,-7.5694561,-12.532555,-15.938287,-15.711211,-12.15668,-7.6271591,-4.9406385,-5.569252,-8.7203159,-11.852126,-12.281095,-8.8904076,-2.9182708,2.6282389,4.5791583,1.3081985,-6.3973584,-15.736856,-23.292608,-26.643402,-25.364166,-20.974005,-15.973143,-12.559108,-11.705357,-13.020123,-15.348562,-17.695374,-19.916426,-22.801023,-27.527859,-34.826694,-44.335701,-54.532421,-63.304214,-68.875084,-70.610825,-69.282539,-66.653717,-64.610519,-64.289543,-65.644058,-67.640503,-68.937683,-68.657585,-66.845245,-64.414734,-62.672611,-62.707726,-64.956871,-69.09758,-74.228767,-79.179092,-82.806084,-84.239555,-83.095306,-79.657219,-74.940872,-70.501122,-67.92482,-68.144012,-70.895599,-74.681152,-77.371468,-77.240211,-73.908791,-68.656464,-63.851894,-61.751995,-63.299744,-67.592834,-72.336906,-75.041656,-74.292297,-70.393799,-65.062187,-60.397514,-57.773216,-57.279865,-57.979473,-58.713585,-58.891815,-58.75602,-59.006786,-60.117188,-61.855854,-63.369419,-63.765095,-62.770874,-60.987988,-59.532146,-59.292767,-60.325161,-61.821224,-62.717312,-62.544624,-61.922115,-62.289799,-64.972969,-70.141556,-76.36483,-81.144997,-82.220444,-78.918419,-72.741539,-66.767807,-64.118584,-66.300034,-72.330627,-79.151985,-83.126579,-81.84066,-75.284027,-65.828178,-57.062614,-52.112949,-52.270443,-56.5355,-62.189075,-66.026711,-65.654152,-60.309689,-50.960896,-39.745491,-29.058439,-20.663158,-15.151236,-11.927184,-9.7000237,-7.2629466,-4.2003107,-1.1579703,0.5109092,-0.40543121,-4.0707402,-9.1796408,-13.363072,-14.310264,-11.045252,-4.6197038,2.2535198,6.5183387,6.3554835,2.1268799,-3.8872805,-8.833456,-10.929495,-10.425014,-9.2927046,-9.83881,-13.097587,-18.020672,-21.993122,-22.386307,-18.208973,-10.844825,-3.4128835,0.88036799,0.43426448,-3.9788032,-9.7678127,-14.012585,-14.982983,-12.826533,-9.1056776,-5.55229,-2.8274462,-0.0078562871,4.943192,14.022535,27.989902,45.731289,64.457703,80.606239,91.028969,93.99604,89.666603,79.905975,67.55442,55.43298,45.46373,38.253071,33.311703,29.800755,27.413334,26.882212,29.754526,37.46056,50.135063,65.872368,80.944702,91.032684,92.954437,86.059509,72.569695,56.662792,42.725754,33.617485,29.754002,29.394152,29.901461,29.302969,27.371693,25.737316,27.015779,33.398434,45.366928,61.125282,77.024193,88.829353,93.323982,89.573189,79.291656,66.119987,54.095123,45.987129,42.268291,41.202785,39.998432,36.418446,30.001242,22.244678,15.678829,12.378234,12.781584,15.505697,18.249607,19.231239,18.272884,16.85837,17.109444,20.299114,25.827793,31.336519,33.959106,32.018391,26.168234,19.263607,14.955352,15.741544,21.542795,29.601944,35.794449,36.668121,31.145861,21.020752,10.035252,2.0801072,-0.52706099,2.160203,8.1334848,14.689333,19.768007,22.671263,23.903061,24.406368,24.768791,24.889723,24.234402,22.404154,19.578695,16.522543,14.173427,13.113267,13.27783,14.072564,14.780131,14.967284,14.640791,14.106279,13.693851,13.571472,13.752653,14.222161,15.011999,16.130169,17.413189,18.485207,18.948948,18.730146,18.310835,18.58773,20.327919,23.516726,27.064095,29.184149,28.345192,24.264357,18.301085,12.911878,10.405584,11.713319,15.929258,20.92503,24.665941,26.400419,26.967871,28.045147,30.851246,35.193241,39.505165,41.862778,41.288918,38.458504,35.307041,33.786854,34.595589,36.732895,38.191853,37.335735,34.048653,29.897821,27.19663,27.58008,31.012878,35.850266,39.874668,41.605385,41.038902,39.391914,38.098465,37.785282,37.918751,37.318077,35.128006,31.545496,27.793863,25.375675,25.132095,26.75494,29.065998,30.843367,31.604057,31.801178,32.314785,33.613708,35.197334,35.736248,33.853004,29.04331,22.12842,14.923415,9.3054504,6.2467275,5.3949594,5.4359455,4.9882665,3.4626575,1.3631495,-0.13209513,-0.024659211,1.757774,4.184454,5.624012,4.7297344,1.1964122,-4.0380888,-9.246973,-12.760584,-13.740783,-12.486206,-10.149142,-8.0641651,-7.0780058,-7.2290378,-7.9030237,-8.3175001,-8.0244513,-7.1441922,-6.2289209,-5.8796501,-6.3707957,-7.5060463,-8.7643366,-9.6138906,-9.7837782,-9.3408737,-8.5697088,-7.7864194,-7.2394838,-7.1494632,-7.7982731,-9.5128603,-12.461472,-16.353947,-20.279316,-22.901489,-23.035179,-20.34885,-15.774197,-11.286134,-9.0467491,-10.303319,-14.646483,-20.103107,-24.097549,-24.803976,-22.141232,-17.818558,-14.366291,-13.685248,-15.963376,-19.624035,-22.370211,-22.714554,-21.045639,-19.512312,-20.699787,-25.837654,-33.64146,-40.601997,-42.714905,-37.759407,-26.817629,-14.069056,-4.843915,-2.9414306,-8.7005186,-18.92981,-28.747335,-34.258038,-34.491795,-31.468586,-28.409481,-27.27261,-27.235394,-25.157171,-17.784456,-4.2937856,12.528909,27.371162,35.207661,34.159649,26.601603,17.761236,12.62924,13.088166,17.062016,20.211054,19.053469,13.451387,6.7935767,3.7124109,6.8231492,14.679653,22.402784,24.703545,19.404385,9.1397924,0.0046917079,-2.1413746,4.5466542,16.445482,26.357342,27.697464,18.468903,2.6005492,-12.18704,-18.727652,-14.386114,-2.3533564,10.405781,17.216661,15.318415,6.9844694,-2.3211281,-7.4406333,-6.4864764,-1.5785534,2.8738186,3.0938168,-1.7938634,-9.4389019,-15.890336,-18.005531,-15.12705,-9.1144905,-2.9136453,1.2823534,3.0958982,3.6849649,4.4729519,5.8525953,6.7790284,5.5227084,1.0621706,-5.8418393,-12.665415,-16.330246,-14.94758,-9.0732594,-1.686291,3.1908848,2.5380573,-4.0433345,-14.027134,-23.168343,-27.600992,-25.732065,-18.94973,-10.804283,-5.1356263,-4.1625118,-7.5288453,-12.746249,-16.703606,-17.364656,-14.734461,-10.641659,-7.5595303,-7.1897297,-9.5899143,-13.258015,-16.033716,-16.272421,-13.678833,-9.4412699,-5.6856437,-4.5597277,-7.3456416,-13.918946,-22.716106,-31.226147,-36.879326,-38.066181,-34.893902,-29.286978,-24.243479,-22.46217,-24.962065,-30.457228,-35.949207,-38.34277,-36.23946,-30.843992,-25.352011,-23.073416,-25.367384,-30.67099,-35.305519,-35.660412,-30.459915,-21.701502,-13.634422,-10.355741,-13.472939,-21.249067,-29.718445,-35.033596,-35.56839,-32.522175,-28.77844,-26.886021,-27.521475,-29.36256,-30.292318,-28.967445,-25.62224,-21.604382,-18.082085,-14.939345,-10.704325,-3.5805712,7.1460218,20.309433,33.212067,42.854908,47.21423,45.785542,39.221012,28.562675,14.809208,-0.81703556,-16.213284,-28.103481,-32.704544,-27.265284,-11.672691,10.902397,34.872601,54.281837,64.990372,65.88369,58.602394,46.163322,31.411871,16.175325,1.3861722,-12.232985,-23.632814,-31.520561,-34.994152,-34.219341,-30.611889,-26.340889,-23.428738,-22.961313,-24.807415,-27.908583,-30.891891,-32.66814,-32.793709,-31.55452,-29.823425,-28.740572,-29.253529,-31.627661,-35.152798,-38.302101,-39.415203,-37.639088,-33.58382,-29.194796,-26.764477,-27.582792,-31.057604,-34.939228,-36.615818,-34.723209,-30.038889,-25.039188,-22.362131,-23.16328,-26.453531,-29.862772,-31.303905,-30.382748,-28.564968,-27.976757,-29.689758,-32.736671,-34.62381,-33.065041,-27.773584,-21.041536,-16.608204,-17.457314,-23.922878,-33.319958,-41.359097,-44.484386,-41.726921,-35.01833,-27.896324,-23.491333,-23.013193,-25.513922,-28.848585,-31.076254,-31.43257,-30.437468,-29.300613,-29.137457,-30.446634,-32.979912,-35.864368,-37.80241,-37.32531,-33.18988,-24.925995,-13.313734,-0.42100865,11.029687,18.7938,22.159128,22.268751,21.43247,21.773878,24.016968,27.17087,29.312952,28.960007,26.130373,22.408892,19.99037,20.349497,23.40551,27.687912,31.321886,33.1297,33.12558,32.159817,31.075195,30.047041,28.583197,26.132914,22.792721,19.533899,17.744623,18.393839,21.407061,25.693829,29.804148,32.756386,34.480114,35.61425,36.86343,38.412682,39.825073,40.473774,40.163723,39.462662,39.469563,41.142124,44.607075,48.890091,52.240528,52.877537,49.773827,43.11927,34.307056,25.503439,18.98175,16.415953,18.305597,23.703625,30.408651,35.690277,37.39064,34.977188,29.990669,25.505999,24.695755,29.128407,37.711758,46.966316,52.640411,51.904747,44.952789,35.071869,27.052208,24.734976,29.017775,37.421082,45.465389,49.10125,46.846004,40.453369,33.775993,30.491249,31.979767,36.522362,40.217957,39.061108,31.012836,16.965342,0.1730632,-15.415912,-26.941137,-33.581284,-36.307999,-36.799343,-36.31089,-35.210949,-33.362377,-30.930241,-28.91069,-28.885553,-32.070713,-38.266552,-45.471233,-50.561855,-50.789032,-45.282684,-35.682667,-25.469069,-18.30612,-16.289755,-19.050114,-24.165199,-28.593493,-30.275232,-29.016056,-26.244341,-23.918179,-23.319244,-24.45133,-26.307346,-27.702536,-28.058058,-27.633734,-27.138077,-27.074123,-27.323196,-27.250113,-26.211029,-24.057735,-21.253012,-18.518116,-16.288597,-14.401582,-12.267944,-9.4202833,-6.0397415,-3.0551996,-1.6975893,-2.7727118,-6.1249976,-10.651239,-14.86256,-17.636778,-18.688221,-18.49115,-17.76623,-16.923227,-15.847465,-14.145041,-11.618407,-8.5861902,-5.7904363,-3.959909,-3.3611038,-3.6865509,-4.3684006,-5.0754809,-5.9876223,-7.5968666,-10.14552,-13.1275,-15.293264,-15.275064,-12.487088,-7.6843057,-2.7013037,0.61018378,1.6763519,1.9221833,4.3730874,12.219712,27.052719,47.708862,70.370674,89.902039,101.7715,103.66256,96.105301,82.000214,65.412918,50.23299,39.171249,33.27943,31.939577,33.20274,34.407253,33.028111,27.608438,18.455374,7.7147589,-1.3857654,-5.9359879,-4.7817664,0.74899149,7.3135085,11.095434,9.6969585,3.402987,-4.8823891,-11.04814,-11.836617,-6.4969325,2.8199697,12.118259,17.512995,17.086391,11.728069,4.5847321,-0.55102396,-1.0793315,3.2405717,10.319176,16.876827,20.078865,18.84741,14.232081,8.7163296,4.8646779,4.029129,5.7719445,8.2739277,9.4737511,8.303503,5.3399453,2.5122421,2.0208497,5.0567145,11.025839,17.717007,22.343103,22.914862,19.227131,12.945642,6.7613564,3.0668089,2.8469684,5.3441234,8.6358356,10.783158,10.918057,9.6860199,8.8128958,10.035252,13.979902,19.618397,24.632179,26.541714,24.028011,17.734844,10.082359,4.1388836,2.1223235,4.3396249,9.1608181,14.055895,17.101309,18.065365,18.404442,20.154644,24.399603,30.306246,35.410568,37.066353,34.194241,28.200409,22.376465,20.022982,22.382584,27.683393,31.991171,31.484804,24.86113,14.420417,5.11201,2.0098338,7.6222596,20.548157,36.205345,49.164093,55.735741,55.413139,50.519146,44.491634,39.946564,37.624054,36.631218,35.554127,33.56205,30.808876,28.043863,25.910772,24.548965,23.76652,23.534731,24.27417,26.576591,30.50004,34.994892,38.026379,37.506691,32.546181,24.212589,15.214293,8.5800571,6.0711408,7.2796545,9.9726095,11.478348,10.26575,6.7614183,2.9391706,0.98745906,1.9042854,4.8655381,7.6838231,8.0006437,4.4617224,-2.7616086,-12.258305,-22.128677,-30.67478,-36.70834,-39.528572,-38.863548,-34.994244,-28.988791,-22.729033,-18.453415,-17.871065,-21.287355,-27.307257,-33.411545,-37.172886,-37.448517,-34.856564,-31.26568,-28.633369,-27.92312,-28.749662,-29.904358,-30.336361,-29.895697,-29.352245,-29.730417,-31.473394,-34.047344,-36.264969,-37.089912,-36.348652,-34.849419,-33.829643,-34.118526,-35.588799,-37.26009,-37.962379,-37.093704,-34.96228,-32.508888,-30.634264,-29.614948,-29.007004,-28.084261,-26.483677,-24.591175,-23.379917,-23.784748,-26.011086,-29.234339,-31.914885,-32.584446,-30.674147,-26.916887,-23.079433,-21.135489,-22.28635,-26.325947,-31.683788,-36.151882,-37.953751,-36.629333,-33.272861,-29.975618,-28.733721,-30.388105,-34.176903,-38.171276,-40.373314,-39.859596,-37.299736,-34.530804,-33.435936,-34.816078,-37.966061,-41.229412,-43.171112,-43.581749,-43.60865,-44.871277,-48.110405,-52.282242,-54.778458,-52.751255,-44.791882,-31.933287,-17.320744,-4.6983004,3.4165595,6.8106813,7.317874,7.4590111,8.8613701,11.415247,13.608791,13.727436,11.096054,6.5835986,2.1078115,-0.48563924,-0.44985822,1.527444,3.8067806,4.7447157,3.5404716,0.55932748,-2.9472501,-5.4902906,-6.0136476,-4.3136134,-1.1002959,2.277977,4.3506308,4.1349378,1.6310875,-2.0400085,-5.0211229,-5.5649328,-2.9894271,1.7773297,6.4660335,8.5376854,6.5545249,1.0809926,-5.4704123,-10.060649,-10.678429,-7.4814644,-2.7262495,0.51928103,0.15533614,-3.7215755,-8.8812952,-12.295834,-11.971459,-8.1960554,-3.4558859,-1.0497985,-3.1852009,-9.639761,-17.752769,-23.764391,-24.774973,-20.263672,-12.348871,-4.6499295,-0.3438938,-0.428056,-3.0862999,-4.4931393,-0.65979189,10.595048,28.526493,49.739594,69.696831,84.675369,93.183609,96.160347,95.952034,94.72599,93.260803,90.791946,85.935234,78.047523,68.115868,58.561268,52.025574,49.858704,51.234074,53.454464,53.299076,48.644627,39.454212,27.634079,15.94194,6.6506958,0.72008401,-2.1816635,-3.0295668,-2.7256846,-1.7901247,-0.53578329,0.58517987,0.87427086,-0.31461617,-3.08003,-6.6963573,-9.8418941,-11.248351,-10.364244,-7.5943956,-3.9743128,-0.54182905,2.1274433,3.9067838,4.713655,4.1338873,1.4959779,-3.5471008,-10.333894,-17.014435,-21.21731,-21.318851,-17.556973,-12.188722,-8.4152346,-8.5899982,-12.768943,-18.553501,-22.435232,-21.909187,-17.08893,-10.795779,-6.9992194,-8.500948,-15.247367,-24.298052,-31.483015,-33.760361,-30.87203,-25.341063,-20.871119,-20.162832,-23.465513,-28.674755,-32.808281,-33.871254,-31.953243,-28.955389,-27.232779,-28.086267,-31.050161,-34.341118,-36.064877,-35.333565,-32.586357,-28.999754,-25.495367,-22.087111,-18.020706,-12.57084,-5.891314,0.72082764,5.3730292,6.599143,4.1895165,-0.70704263,-6.2617049,-10.967644,-14.323877,-16.803629,-19.209221,-21.914421,-24.53529,-26.231596,-26.38114,-25.106314,-23.253748,-21.833004,-21.323784,-21.369263,-21.106871,-19.927755,-18.12538,-16.93038,-17.823351,-21.516424,-27.260717,-32.982574,-36.255737,-35.591972,-31.305149,-25.430677,-20.723061,-19.286884,-21.593403,-26.390471,-31.482456,-34.872501,-35.606358,-33.909561,-30.685717,-26.825932,-22.832191,-18.957371,-15.641831,-13.774148,-14.422955,-18.099754,-24.043245,-30.132854,-33.714581,-33.018196,-28.352768,-22.250656,-18.279364,-19.064939,-24.66136,-32.325706,-37.989948,-38.670547,-34.385117,-28.323938,-25.024906,-27.552441,-35.39608,-44.47818,-49.420071,-46.789074,-37.344345,-25.806591,-18.155188,-18.002926,-24.249743,-31.50741,-33.128181,-25.069372,-8.2926273,11.723337,28.02817,35.946705,35.315311,30.007353,25.252129,24.551449,28.088413,33.411522,37.648449,39.58186,40.180161,41.375816,44.155296,47.48008,48.906734,46.498581,40.636532,34.342335,31.726841,35.479282,45.018818,56.547897,65.033562,66.911217,61.873306,52.732288,43.587715,37.543411,35.371067,35.765743,36.75423,37.147141,37.070641,37.394878,38.679771,40.52581,41.802494,41.506668,39.532402,36.75325,34.393108,33.22337,33.229343,33.96928,35.252541,37.482044,41.276459,46.616566,52.239223,55.925949,55.69989,51.20697,44.284687,38.173832,35.742256,37.82262,42.773838,47.595001,49.868172,49.215664,47.271313,46.197323,46.823215,47.792881,46.430653,40.812817,31.605974,22.278257,17.325556,19.515003,27.906879,38.032921,44.287632,43.171631,35.433033,25.777004,20.271755,22.9466,33.524113,47.505936,58.44178,61.02,53.312992,37.174397,16.908535,-2.8027465,-18.580894,-29.012478,-34.377663,-35.965313,-35.455166,-34.518169,-34.508976,-36.126469,-39.131336,-42.378666,-44.330589,-43.886986,-41.068031,-37.07692,-33.632378,-31.954617,-32.061581,-32.851734,-32.92149,-31.549316,-29.155346,-26.915503,-25.820768,-25.884373,-26.105,-25.246031,-22.879257,-19.910547,-18.142578,-19.107042,-22.945835,-28.132599,-32.283875,-33.569107,-31.811237,-28.559439,-26.094929,-26.028349,-28.396797,-31.803488,-34.433929,-35.216747,-34.359241,-32.971321,-32.141918,-32.179256,-32.546486,-32.467407,-31.668118,-30.632334,-30.141155,-30.446722,-30.756668,-29.528616,-25.495932,-18.776217,-11.258516,-5.8671927,-5.0036702,-9.0268946,-15.670755,-20.793097,-20.108126,-11.032606,6.2434063,28.892643,52.602261,73.118942,87.518906,94.806664,95.809441,92.578522,87.570091,82.834396,79.40052,77.031059,74.474083,70.182556,63.232613,53.989697,44.121216,35.868797,30.931942,29.58827,30.584026,31.876665,31.78117,29.806736,26.674728,23.558176,21.114433,19.018307,16.337595,12.46527,7.8849015,4.1231337,2.8169966,4.4947414,7.9567671,10.798241,10.844424,7.5934281,2.6760409,-1.0504193,-1.2430551,2.4790223,8.3483086,13.655046,16.517902,16.988752,16.714922,17.41017,19.266825,20.539873,18.729433,12.618029,3.7041292,-4.1332912,-6.743535,-2.3262365,7.175621,16.958702,22.106602,20.52,14.150729,7.7064805,5.6265783,9.2660933,16.098814,21.428358,21.455641,15.684699,7.1288772,0.26850086,-1.8087338,0.82599807,5.3586068,8.3981943,8.2967424,6.0137534,4.0212183,4.160511,6.0814285,7.4236188,5.6031399,-0.11444819,-7.7893476,-13.871278,-15.436427,-12.042438,-5.9190526,-0.39402047,2.3091505,2.3550646,1.8144935,2.8553054,5.9843545,9.6369286,11.385287,9.8299837,5.737689,1.5601786,-0.31257513,0.74632454,3.2405443,4.8298287,4.3016758,2.7178807,2.7766676,6.741466,14.406899,22.664558,27.172262,25.139994,17.366858,8.0614853,2.4164147,3.433265,10.049543,17.810009,21.6717,19.143879,11.75983,3.9875267,0.35034564,2.6466448,9.0102291,15.295613,17.770475,15.34531,10.001938,5.3319216,4.2832103,7.57658,13.641303,19.847803,24.043688,25.406685,24.286907,21.469345,17.58252,13.068346,8.5372524,4.9755402,3.4330103,4.3382263,7.0123196,9.8972788,11.490387,11.383945,10.63296,11.094678,14.123507,19.514999,25.469479,29.644794,30.586369,28.538244,25.080881,21.899113,19.627163,17.651499,15.006401,11.612121,8.7667484,8.3086424,10.898058,14.672927,15.474611,8.8634176,-7.1299286,-30.248684,-54.531601,-73.028442,-81.218338,-79.128548,-70.912315,-62.211746,-56.987724,-55.762897,-56.228775,-55.596016,-52.962738,-50.065144,-49.957504,-54.620171,-63.217911,-72.256813,-77.563148,-76.763031,-70.621048,-62.398964,-55.74324,-52.566513,-52.313473,-52.977036,-52.999725,-52.612724,-53.627365,-57.845081,-65.277969,-73.540932,-78.978737,-78.873589,-73.292274,-65.310326,-59.383659,-58.828312,-63.939617,-71.868988,-78.28112,-79.750298,-75.489296,-67.506241,-59.279118,-53.863033,-52.528858,-54.549278,-57.996071,-60.891285,-62.033417,-61.202194,-58.88884,-55.904617,-53.115238,-51.310009,-51.071136,-52.568825,-55.378277,-58.508942,-60.746468,-61.188271,-59.686787,-56.936684,-54.152245,-52.519775,-52.711758,-54.659977,-57.602837,-60.306694,-61.378963,-59.676922,-54.818398,-47.663559,-40.454624,-36.290016,-37.897579,-46.160599,-59.210342,-72.800018,-82.04277,-83.748962,-78.079399,-68.462967,-59.670731,-55.065639,-54.634506,-55.023872,-51.618042,-41.433655,-25.070894,-6.5258408,9.0059776,17.960228,20.131748,18.310345,16.191147,15.999019,17.363884,18.075459,16.067097,11.193817,5.5815201,2.3469429,3.6000886,9.0863314,16.339535,22.172016,24.468218,23.136404,19.740211,16.251406,13.890348,12.805929,12.620343,13.19561,14.874722,17.962782,21.919519,25.065554,25.271626,21.331783,14.093336,6.4349694,1.8975081,2.7093685,8.4473486,16.242392,22.462431,24.82394,23.577417,21.010141,19.631779,20.300713,21.603313,20.958715,16.739788,9.9672089,4.3492146,4.4839931,13.238179,29.889782,50.195076,68.38179,79.914948,83.451408,80.940781,75.974854,71.50515,68.31881,65.071602,59.650242,50.848404,39.268475,26.984005,16.356863,8.9089575,4.9962187,4.3741617,7.0681162,13.754112,25.247452,41.409698,60.293457,78.282471,91.359222,96.863228,94.70977,87.311325,78.219627,70.292313,64.461777,59.775417,54.547115,47.772556,39.855545,32.232342,26.271376,22.318735,19.608952,17.084698,14.458744,12.637117,13.077447,16.476534,21.763842,26.269135,27.147768,23.212503,15.905997,8.6120214,4.5946531,4.8562179,7.3963742,8.5304422,5.5668197,-0.85854775,-6.428082,-5.2411289,6.7263193,28.847963,55.504349,78.504417,90.95015,90.370064,79.417747,63.921974,49.615982,39.520634,33.345287,28.886162,24.174202,18.842579,13.936817,10.589288,8.7528486,7.035923,3.7634442,-1.5807154,-7.6866493,-12.113547,-12.915571,-10.044254,-5.4878101,-1.9825681,-1.1553639,-2.3913212,-3.2535584,-1.2206393,4.4141011,11.780295,17.36838,18.110491,13.295242,5.1149168,-2.481194,-5.9020615,-3.7307281,2.7542121,10.492327,16.292219,18.219398,16.073082,10.978284,4.6187534,-1.3437963,-5.4893327,-6.7196736,-4.5004368,0.71373767,7.2182302,12.401028,13.795862,10.397832,3.4402194,-3.9946756,-8.493536,-8.1734934,-3.7873609,1.6513571,4.5727673,2.9083791,-2.7180018,-9.3717442,-13.517644,-13.020711,-8.2642488,-1.7896492,3.223139,4.6611519,2.3784752,-2.1112463,-6.7831473,-10.273058,-12.37196,-13.68883,-14.887865,-16.115948,-16.989017,-17.038994,-16.188978,-14.85465,-13.608634,-12.708622,-11.900806,-10.68309,-8.8360405,-6.792594,-5.5142026,-5.9019551,-8.1366491,-11.430536,-14.412862,-15.93221,-15.755863,-14.694798,-14.060118,-14.803796,-16.909777,-19.432978,-21.153872,-21.411783,-20.572912,-19.833902,-20.491772,-23.135082,-27.237949,-31.372437,-33.890202,-33.688793,-30.688457,-25.847593,-20.782032,-17.187515,-16.269213,-18.31842,-22.528341,-27.119524,-29.807074,-28.531147,-22.219028,-11.251903,2.6191089,16.91567,29.344536,38.532024,44.239399,47.033501,47.71199,46.893661,45.004177,42.551998,40.345165,39.344189,40.149632,42.46925,45.014416,46.037891,44.282078,39.775307,33.944889,28.921003,26.42326,26.898813,29.419764,32.354782,34.340973,34.929138,34.551167,33.948837,33.553204,33.268867,32.750786,31.85828,30.848423,30.121496,29.746687,29.233431,27.854969,25.374783,22.621611,21.352272,23.296951,28.907679,36.664524,43.545818,46.544258,44.37999,38.339104,31.647896,27.700069,28.19478,32.319977,37.456848,40.913605,41.555218,40.300854,39.232681,39.977001,42.472511,44.944427,45.075581,41.573395,35.093594,27.933794,22.723799,20.967836,22.34042,25.10733,27.317562,27.9646,27.408974,26.878962,27.455772,29.232565,31.172756,31.731064,29.845848,25.717707,20.931164,17.826593,18.399481,23.216768,30.845667,38.095467,41.059906,36.607944,23.732571,4.1517267,-18.179829,-38.511177,-53.078636,-60.412037,-61.559513,-59.180355,-56.054146,-53.83585,-52.682961,-51.810333,-50.467686,-48.636757,-47.027321,-46.489632,-47.367111,-49.300861,-51.596733,-53.79932,-55.952671,-58.300812,-60.67971,-62.173397,-61.466003,-57.785084,-51.79512,-45.696297,-42.255711,-43.252922,-48.322178,-55.018875,-60.17432,-61.731052,-59.878044,-56.732182,-54.773899,-55.099823,-56.695896,-57.245197,-54.922428,-49.92244,-44.626183,-42.225342,-44.691566,-51.443588,-59.614799,-65.752213,-67.821831,-66.206604,-63.083466,-60.674606,-59.617466,-58.589092,-55.431759,-48.982765,-40.316868,-32.497761,-28.928844,-31.323265,-38.566982,-47.179878,-53.086845,-53.639713,-48.754219,-40.635624,-32.426296,-26.664108,-24.390528,-25.209976,-27.982414,-31.536531,-34.950729,-37.378716,-37.758614,-34.79562,-27.359488,-15.094263,1.1422604,19.308569,36.707359,50.776608,59.804504,63.308334,61.994827,57.37405,51.182705,44.794025,38.79866,32.924412,26.391279,18.628241,10.060596,2.5287647,-1.0330269,2.2883515,13.871905,32.377525,53.599468,71.644363,81.066788,79.051552,66.614639,48.204597,29.84062,16.636612,10.858824,11.384468,14.720208,16.973621,15.747199,11.045845,4.8650422,-0.1711928,-2.3056803,-1.4812269,0.84004694,2.6416252,2.4777644,0.13493167,-3.4530425,-6.8628354,-8.9548206,-9.3278656,-8.2977133,-6.5549636,-4.8031106,-3.5869682,-3.2993016,-4.1941991,-6.2627692,-9.0140953,-11.384487,-12.000115,-9.80165,-4.7407179,1.8981187,7.8585992,10.882831,9.8161354,5.2297816,-0.82362467,-5.8183823,-7.978435,-7.0405407,-4.165432,-1.111798,0.79208469,1.269568,0.99569863,0.92425805,1.5227404,2.4047835,2.5620959,1.0163224,-2.5212538,-7.3617129,-12.062459,-15.024158,-15.164375,-12.379307,-7.6321206,-2.6512754,0.66141349,0.93389285,-2.0963895,-7.3726716,-12.837416,-16.238615,-16.121759,-12.545331,-7.1185884,-2.2809925,-0.15382016,-1.562668,-5.7554259,-10.948639,-15.350916,-18.045912,-19.239399,-19.807386,-20.528313,-21.548443,-22.409143,-22.536905,-21.771896,-20.522806,-19.45866,-19.021193,-19.171486,-19.567595,-19.986265,-20.567133,-21.589117,-22.906013,-23.545301,-21.970589,-17.059948,-9.2441387,-0.94750142,4.2231789,3.3084188,-4.1588035,-15.485174,-25.917688,-31.03137,-29.064316,-21.806107,-13.485141,-8.3220234,-8.2352486,-12.059696,-16.647997,-19.022575,-18.129072,-15.103889,-12.040836,-10.27,-9.4418612,-8.0604162,-5.0118237,-0.87631792,2.0576189,1.2214304,-4.2978759,-12.700547,-20.155148,-22.918295,-19.586504,-12.022511,-4.3243523,-0.46377483,-2.0732167,-7.7401447,-14.167127,-18.353046,-19.342138,-18.456808,-17.991016,-19.365364,-22.048361,-23.962332,-23.047159,-18.869848,-13.161703,-8.904273,-8.5568781,-12.562766,-19.062458,-24.947138,-27.559292,-26.008438,-21.399508,-15.989202,-11.910725,-10.248672,-10.892123,-13.032222,-15.80864,-18.644203,-21.161144,-22.93553,-23.453226,-22.413382,-20.172943,-17.91754,-17.256351,-19.320948,-23.843609,-28.829367,-31.179619,-28.104746,-18.657852,-4.5526633,10.285512,21.351168,25.640945,23.143326,16.922972,11.670628,11.39232,17.400684,27.659773,37.848255,43.593178,42.688732,36.119179,27.37011,20.468288,17.889082,19.499577,23.053183,25.815262,26.25474,24.769875,23.090982,22.867369,24.444984,26.658308,27.740503,26.688696,24.120789,22.016985,22.495899,26.421589,32.74041,38.962837,42.470589,41.842426,37.444729,31.049917,24.845821,20.483984,18.649347,19.195995,21.539618,24.950148,28.629253,31.721245,33.466785,33.513607,32.157364,30.233498,28.618797,27.644308,26.881516,25.547642,23.307999,20.871733,19.824837,21.646086,26.495201,32.654449,37.180107,37.52512,33.167332,26.146749,20.042572,17.930529,20.574841,26.019485,30.859457,32.378036,30.156391,26.117901,23.021992,22.468191,23.7871,24.566572,22.419212,16.73344,9.1664886,2.5219069,-1.2053416,-2.235055,-2.840589,-5.6851549,-11.774666,-19.45085,-25.178909,-25.696808,-20.173449,-10.991089,-2.6249969,0.72133976,-2.67255,-11.236448,-21.062344,-27.942369,-29.289934,-24.980368,-16.906734,-7.7789235,0.03965839,5.1359243,7.0766935,6.1906676,3.3976772,0.099244751,-2.078522,-1.8339002,1.1383457,5.7988834,10.150014,12.349435,12.010537,10.874097,12.284747,19.572676,34.139477,54.317024,75.711502,92.943871,101.92287,101.49574,93.67614,82.430092,71.741844,63.979324,59.299686,56.202404,52.735168,47.616173,40.732281,32.92033,25.344437,18.914404,14.037774,10.701874,8.6741438,7.5978899,6.9344726,5.8926635,3.5495491,-0.76403004,-6.9697323,-13.963065,-19.830694,-22.587555,-21.122753,-15.847151,-8.6279554,-1.9628168,2.2081058,3.4020243,2.676789,1.8284532,2.1702955,3.6460335,4.8552756,4.0161977,0.28075057,-5.453135,-10.821509,-13.28472,-11.680068,-7.063683,-2.2564056,-0.29575479,-2.6959736,-8.5731344,-15.186367,-19.575567,-20.295637,-18.182863,-15.698129,-15.279216,-17.746006,-21.745447,-24.556076,-23.722687,-18.507099,-10.30217,-1.8336815,4.2923288,6.8074031,6.115087,3.6984248,1.1073396,-0.81125462,-2.0575161,-3.0830235,-4.2588668,-5.5968285,-6.8329458,-7.6925449,-8.0661297,-7.9747896,-7.4266372,-6.365097,-4.8019357,-3.0201404,-1.6155003,-1.2433577,-2.182966,-4.0326157,-5.8184814,-6.5346551,-5.8056636,-4.2260985,-3.1035111,-3.7142222,-6.5176301,-10.825378,-15.144645,-17.99004,-18.671188,-17.59539,-15.941994,-14.947192,-15.238195,-16.57086,-18.046801,-18.616447,-17.573883,-14.831734,-10.927159,-6.8215041,-3.5788677,-1.9903828,-2.2272372,-3.6604199,-5.0035963,-4.830399,-2.2991118,2.283998,7.4394622,11.152243,11.895272,9.4747562,5.177,1.0888062,-1.0291597,-0.6478163,1.3802863,3.4777508,4.3497753,3.691927,2.1937797,0.93038923,0.62812763,1.3086679,2.473567,3.5658145,4.2736688,4.4423599,3.7591977,1.6297415,-2.4632635,-8.2612782,-14.237993,-17.871347,-16.78027,-10.178041,0.26777354,10.848083,17.43548,17.475578,11.212593,1.4380372,-8.0646725,-14.435082,-16.904051,-16.647415,-15.613987,-15.210702,-15.689311,-16.480526,-17.03038,-17.395473,-18.136744,-19.658512,-21.597973,-22.833164,-22.184673,-19.322609,-15.187757,-11.555012,-9.9765778,-10.794921,-12.884356,-14.288026,-13.325138,-9.4628744,-3.4594109,3.1978531,9.0965834,13.423887,16.000498,17.014328,16.808046,15.900589,15.093186,15.347274,17.29323,20.619522,23.852623,24.902205,22.229549,15.963374,8.158123,1.8515099,-0.62951463,0.92294478,4.4407258,6.8829141,6.235579,2.9115884,-0.4282797,-0.60940647,3.8417575,11.461234,18.478872,21.018642,17.530148,9.9100266,2.558702,-0.10197001,3.8355305,12.686861,22.158464,27.734682,27.008213,20.62122,11.419613,2.534683,-4.3153543,-9.290267,-13.543983,-17.769165,-21.260101,-22.153553,-18.663355,-10.450229,0.81086719,12.057122,20.2784,23.89164,23.258659,20.127918,16.451853,13.359569,10.87805,8.44841,5.7606163,3.2665837,2.0057025,2.8837836,5.9319844,10.091833,13.717996,15.50701,15.262494,13.987419,13.203989,13.883222,15.628864,16.638498,14.53049,7.6277037,-3.9876413,-18.233374,-31.767342,-41.364151,-45.257942,-43.806011,-39.181168,-34.290989,-31.489136,-31.706589,-34.369293,-38.035816,-41.323154,-43.580452,-44.970551,-45.999538,-46.873291,-47.156944,-46.006516,-42.856812,-38.114105,-33.340988,-30.688164,-31.791618,-36.735603,-43.732521,-49.822388,-52.313988,-50.216614,-44.836864,-39.132317,-36.105656,-37.104424,-40.997978,-44.746574,-45.091682,-40.438156,-31.860073,-22.646023,-16.631536,-16.257767,-21.433634,-29.782751,-38.035381,-43.68005,-45.913654,-45.443375,-43.456585,-40.581055,-36.590385,-31.024202,-24.201582,-17.781559,-14.305098,-15.856313,-22.642696,-32.452229,-41.469238,-46.100491,-44.803314,-38.84964,-31.553669,-26.384027,-25.026426,-26.479891,-27.656996,-25.101011,-16.836378,-3.3600507,12.679961,27.835384,39.44416,46.63002,50.29512,52.248772,54.023037,56.003139,57.264912,56.131203,51.12645,41.853725,29.375153,15.906894,3.9529507,-4.7217927,-9.7661276,-12.184508,-13.525328,-14.722401,-15.256733,-13.204679,-6.2767115,6.6454749,24.339815,43.19725,58.466602,66.219643,65.016335,56.385643,43.895042,31.372019,21.278574,14.070062,8.7189093,3.8878322,-1.0700366,-5.8588672,-9.7281685,-12.195489,-13.418859,-13.98245,-14.344666,-14.446343,-13.815292,-12.078827,-9.4487038,-6.7508936,-4.9293981,-4.3846388,-4.6700654,-4.8275762,-4.1645918,-2.9171822,-2.2858348,-3.751359,-8.0870552,-14.706176,-21.771055,-26.990101,-28.611591,-26.061707,-19.989506,-11.889786,-3.6703525,2.6256104,5.045578,2.1697686,-6.1574411,-18.154345,-30.117716,-37.562759,-37.250393,-29.120152,-16.891998,-6.6510611,-3.8698015,-10.379225,-23.052706,-35.143509,-39.725548,-33.409088,-18.243252,-0.69321221,11.76353,14.517362,8.0359087,-2.7448144,-11.361095,-13.331147,-8.2713356,0.40607345,7.7985067,10.333768,7.50319,1.7071255,-3.4325671,-5.147758,-2.8102324,2.1099446,7.1338811,10.123285,10.144706,7.5451674,3.4357545,-0.97078496,-4.7995234,-7.6199365,-9.3356915,-10.033206,-9.8858099,-9.1033134,-7.8819108,-6.3495998,-4.5510755,-2.5086849,-0.33241874,1.7056382,3.2090592,3.8051705,3.3153715,1.837785,-0.30444643,-2.6982288,-4.957582,-6.7587538,-7.8206601,-7.9179134,-6.9835582,-5.2569118,-3.3454952,-2.0855122,-2.2110798,-3.9942305,-7.0731502,-10.590968,-13.574287,-15.329282,-15.63434,-14.66652,-12.792188,-10.429187,-8.0857983,-6.4808002,-6.5216842,-8.9906731,-14.032299,-20.773968,-27.431883,-31.999159,-33.21299,-31.240044,-27.606216,-24.329094,-22.721298,-22.587362,-22.334055,-19.961926,-14.344049,-6.0012803,3.1166875,10.714047,15.431342,17.54738,18.700441,20.836626,25.047827,30.977421,37.079853,41.49522,42.987022,41.450459,37.833988,33.663811,30.494036,29.499237,31.227797,35.448135,41.091301,46.426495,49.596199,49.431332,46.171463,41.598106,38.315708,38.420483,42.266884,48.115608,53.001495,54.413273,51.812363,47.030235,43.232716,43.033489,46.910534,52.921627,57.910507,59.441635,57.232231,53.17638,49.978065,49.316509,50.76123,52.141205,51.096657,46.761406,40.451019,34.913284,32.655941,34.464417,39.060658,44.067883,47.575394,49.234852,50.188213,51.955448,55.115223,58.723,60.867477,59.96907,55.918442,50.283298,45.45565,43.321617,44.317585,47.429577,51.029099,53.900955,55.760002,56.993027,57.948086,58.408623,57.704876,55.391636,51.944374,48.861618,47.963486,50.267727,55.182743,60.614189,64.015022,63.790203,60.207565,55.250771,51.49036,50.645542,52.673527,55.876221,57.881336,56.853256,52.21772,44.560936,34.919262,24.036577,12.121169,-0.77291465,-14.081518,-26.346989,-35.50103,-39.75164,-38.581207,-33.237888,-26.362024,-20.884909,-18.761892,-20.209105,-23.831551,-27.538488,-29.712357,-29.987425,-29.24218,-28.876902,-29.849239,-32.060448,-34.452728,-35.742332,-35.324818,-33.778652,-32.625061,-33.446102,-36.862167,-41.984833,-46.715126,-48.775558,-46.926277,-41.674156,-35.046371,-29.524263,-26.728395,-26.612272,-27.646025,-27.896921,-26.366705,-23.762915,-22.18549,-23.850897,-29.576487,-37.948273,-45.746365,-49.488628,-47.276543,-39.895065,-30.487658,-22.906929,-19.597197,-20.159105,-21.409225,-18.951458,-9.4707575,7.4249611,28.744589,49.250458,63.61134,68.534744,63.923946,52.637714,39.099895,27.475645,20.213671,17.479136,17.559235,17.930809,16.479401,12.377887,6.316257,0.040177468,-4.5743041,-6.4882545,-6.0456967,-4.7933054,-4.6051702,-6.5212851,-9.9301176,-12.623762,-11.82971,-5.7666411,5.0953798,17.822659,28.086592,32.041813,28.060093,17.409981,3.5424893,-9.5879574,-19.22566,-24.65099,-26.836464,-27.324913,-27.139158,-26.38883,-24.670528,-21.78191,-18.08836,-14.217115,-10.344028,-5.736382,0.90556997,10.351844,21.681583,31.966198,37.274803,34.62986,23.826042,7.9547577,-7.8340659,-18.750629,-22.626162,-20.72683,-16.678444,-14.191743,-14.980062,-18.090681,-20.947279,-21.319956,-18.900805,-15.487904,-13.737965,-15.382753,-20.114569,-25.844408,-30.093733,-31.537189,-30.663858,-29.173445,-28.606337,-29.214338,-29.871477,-29.066359,-26.239285,-22.475164,-20.001511,-20.772112,-25.064251,-31.04369,-35.634281,-36.186909,-31.929987,-24.334801,-16.227825,-10.259455,-7.6895385,-8.166851,-10.48464,-13.662265,-17.553528,-22.584801,-28.885826,-35.527821,-40.522411,-41.706444,-38.00663,-30.269743,-21.073353,-13.549999,-9.873065,-10.266466,-13.087882,-15.89258,-16.819366,-15.491514,-12.966972,-10.871719,-10.325972,-11.343525,-13.029242,-14.367861,-15.030022,-15.642304,-17.343145,-20.922237,-26.112494,-31.506109,-35.176174,-35.651863,-32.689964,-27.415821,-21.779692,-17.648865,-16.019436,-16.711422,-18.616049,-20.284576,-20.537148,-18.845295,-15.412957,-11.017774,-6.7190089,-3.5128746,-1.9968307,-2.1272058,-3.186049,-4.0443769,-3.6777275,-1.721505,1.242038,3.8805425,4.7544112,3.0848684,-0.78682488,-5.5340652,-9.5153008,-11.597952,-11.664541,-10.535786,-9.4165611,-9.2519474,-10.390961,-12.696445,-15.909265,-19.915276,-24.685848,-29.965984,-35.026234,-38.779877,-40.294765,-39.397602,-36.939682,-34.478241,-33.517239,-34.762188,-37.851383,-41.710968,-45.264122,-48.002697,-50.056282,-51.778889,-53.223507,-53.943306,-53.289951,-50.989445,-47.547882,-44.152828,-42.097496,-42.098228,-43.947392,-46.698479,-49.213894,-50.68874,-50.849411,-49.815853,-47.867722,-45.362564,-42.829639,-41.022263,-40.68758,-42.064987,-44.448421,-46.253937,-45.756901,-42.161488,-36.301899,-30.385939,-26.77578,-26.499989,-28.490238,-30.162886,-29.097111,-24.771082,-19.16803,-15.727867,-17.196659,-23.71113,-32.388813,-38.783695,-39.379116,-33.611073,-24.189949,-15.552361,-11.418144,-12.927506,-18.381344,-24.557903,-28.631742,-29.490005,-27.795151,-25.040257,-22.436001,-20.3962,-18.787867,-17.491146,-16.649578,-16.36768,-16.189266,-14.967297,-11.468592,-5.4280143,1.7186455,7.1259947,7.9121304,2.8860161,-6.4643998,-16.453781,-22.995497,-23.716488,-19.162504,-12.396989,-7.2513461,-6.2517834,-9.3668079,-14.164673,-17.143818,-15.419126,-7.9171519,4.3424377,18.770985,32.138992,41.533062,45.151714,42.860847,36.384262,28.933506,24.179127,24.799158,31.215528,41.240421,50.996635,56.786522,56.961189,52.73175,47.406139,44.445976,45.461056,49.319748,52.895481,52.985977,48.250656,40.032055,31.627066,26.500463,26.506773,31.098381,37.84486,43.831203,47.0788,47.258785,45.464767,43.348118,42.172058,42.252666,42.95406,43.122688,41.701916,38.273865,33.340286,28.237831,24.678616,24.050316,26.75598,31.930851,37.74258,42.184605,43.970413,43.038433,40.388939,37.38509,34.989445,33.429611,32.45787,31.923597,32.140118,33.698112,36.837322,40.892818,44.347351,45.596825,43.969105,40.256458,36.292469,33.764896,33.05162,32.926662,31.421379,27.303434,21.149212,15.217039,12.156479,13.436921,18.618494,26.005537,34.203224,43.37796,55.161282,71.098572,90.672173,110.3998,124.91723,129.63814,123.42423,109.52509,94.046516,82.757256,78.129425,78.383606,79.047234,75.952873,67.751572,56.428524,45.682949,38.419666,35.08149,33.848751,32.380928,29.732307,27.035208,26.496126,29.481878,35.119926,40.462032,42.158646,38.543556,30.749651,22.132286,16.384401,15.538472,19.044811,24.366941,28.578419,29.918869,28.443495,25.578081,23.060583,21.998201,22.517574,24.010742,25.637238,26.725372,26.931086,26.228432,24.852173,23.216185,21.750582,20.65366,19.701887,18.329746,16.05304,13.018945,10.25783,9.3063831,11.283298,15.958272,21.507378,25.291935,25.325228,21.538153,15.966632,11.611012,10.598935,12.808546,15.886932,16.723351,13.471363,6.8176022,-0.34467801,-4.64256,-4.239388,0.15459433,5.8899126,10.138803,11.603344,11.054274,10.428652,11.210129,13.278343,15.029979,14.642792,11.533343,6.934669,3.15888,2.0575542,3.7681396,6.6415296,8.420907,7.8670053,5.7077866,4.2421508,5.834044,11.273162,19.065306,26.111048,29.354506,27.410984,21.248573,13.61536,7.6337562,5.379889,7.1419253,11.574008,16.481155,19.757591,20.096846,17.322546,12.363257,6.9317746,2.9606745,1.8924588,4.051959,8.4111061,12.95954,15.593561,15.098323,11.676431,6.7023296,1.8577933,-1.7913225,-4.1728606,-5.8218784,-7.0695,-7.4782128,-6.0361133,-2.0507748,3.8957913,9.7267818,12.74207,11.178851,5.4880991,-1.5861851,-6.3369002,-6.1292753,-0.92277306,6.6845298,12.956181,15.157844,13.019955,8.6302452,4.8597245,3.3547602,3.3900356,2.3151534,-2.6949251,-12.696925,-26.069483,-39.2108,-48.435165,-51.95079,-50.785271,-48.16861,-47.772179,-51.804741,-59.971214,-69.761787,-77.81057,-81.549728,-80.327019,-75.513664,-69.66967,-65.269157,-63.633671,-64.552399,-66.696083,-68.540535,-69.281586,-69.248405,-69.600098,-71.488884,-75.188789,-79.73333,-83.329292,-84.350151,-82.332443,-78.35022,-74.48848,-72.686287,-73.630257,-76.375725,-78.93264,-79.452789,-77.276878,-73.208046,-68.890602,-65.756073,-64.248856,-63.807804,-63.527996,-62.960091,-62.447426,-62.779896,-64.467415,-67.213234,-69.999016,-71.716103,-71.861412,-70.779716,-69.301201,-68.101784,-67.322021,-66.747673,-66.36039,-66.716583,-68.711243,-72.79216,-78.220154,-83.074074,-85.227997,-83.77636,-79.915504,-76.51516,-76.459183,-80.743713,-87.623573,-93.506477,-95.141846,-91.71685,-85.434952,-80.111145,-78.660179,-81.164635,-84.885406,-86.282753,-83.702126,-78.828255,-75.751892,-78.08699,-85.970573,-95.01635,-98.152786,-89.456146,-67.752632,-37.791428,-8.1900234,12.736461,20.918972,18.089449,10.235646,4.0314703,3.3706324,7.8723083,13.924995,17.346663,15.952279,10.608402,4.4057875,0.68923837,1.1980174,5.3065314,10.591748,14.218666,14.31442,10.676764,4.616508,-1.8294276,-6.8585544,-9.6020603,-10.308207,-9.988699,-9.7301416,-10.022237,-10.471573,-10.097854,-8.0878572,-4.560452,-0.79451019,1.3778279,0.79136485,-1.922977,-4.1020141,-2.075115,6.9478025,23.149242,43.607437,63.458408,78.167397,85.655846,87.072708,85.801231,85.361572,87.521965,91.737549,96.123871,99.15313,100.81847,102.44261,105.30868,109.16561,111.79017,110.06611,101.95908,88.073715,71.677414,57.057838,47.194309,42.214035,39.619823,36.131496,29.929731,21.838404,14.691817,11.336185,12.606076,16.614782,19.817234,19.143751,13.830112,5.8088403,-1.5146382,-5.2546134,-4.5414262,-0.67412585,3.9944396,7.5793443,9.5891905,10.781775,12.25525,14.543883,17.355881,20.011942,22.100338,23.749062,25.301203,26.718763,27.305656,26.096933,22.704586,17.96999,13.826365,12.314136,14.341422,19.044052,24.246975,27.777897,28.764786,28.023849,27.263578,27.67474,28.939219,29.419441,27.445799,22.792849,17.227585,13.61399,14.07585,18.449163,24.15402,27.707991,26.977514,22.69512,18.174568,17.304518,22.042149,31.003338,40.081982,44.75502,42.664356,34.903969,25.273422,18.031004,15.57149,17.407106,20.931513,23.310793,23.217493,21.361368,19.650949,19.713739,21.827124,24.908909,27.428829,28.495878,28.346064,27.962711,28.202713,29.117548,29.953999,29.786917,28.279646,26.0068,24.123692,23.641987,24.829304,27.118868,29.528925,31.242178,31.937204,31.705143,30.720404,29.002335,26.487009,23.340652,20.215956,18.17119,18.21472,20.728306,25.136349,30.049299,33.81805,35.199303,33.800297,30.137774,25.369717,20.884478,17.908504,17.195801,18.805704,22.009611,25.427761,27.470566,27.001076,23.932581,19.400146,15.311181,13.433694,14.501715,17.866806,21.925226,25.068855,26.563259,26.795568,26.757177,27.151861,27.787113,27.711939,26.029547,22.806105,19.379463,17.751009,19.369577,24.070683,29.884766,33.90641,33.747089,28.736294,20.199839,10.729057,2.9422317,-1.5282893,-2.3480744,-0.12779331,4.155055,9.4995022,14.849016,18.925661,20.303017,17.873856,11.483994,2.2691741,-7.6456432,-16.014156,-21.428312,-23.801582,-24.108152,-23.599649,-23.049164,-22.506838,-21.649511,-20.366035,-19.072832,-18.497017,-19.113472,-20.716463,-22.518913,-23.753241,-24.320896,-24.944868,-26.620857,-29.709761,-33.353001,-35.743252,-35.202789,-31.40732,-25.892511,-21.383167,-20.25502,-23.064415,-28.114344,-32.404896,-33.428417,-30.697887,-26.034761,-22.418879,-22.119013,-25.285229,-29.886415,-33.020115,-32.754963,-29.351513,-25.122562,-23.05949,-25.097616,-31.063452,-38.867718,-45.725372,-49.604347,-50.068954,-48.152012,-45.513645,-43.509232,-42.708443,-43.000221,-44.011333,-45.431889,-47.029724,-48.454445,-49.11924,-48.368206,-45.86895,-41.943665,-37.5494,-33.854954,-31.655815,-31.000645,-31.267775,-31.622524,-31.533043,-31.000767,-30.392572,-30.057842,-30.064831,-30.268822,-30.63719,-31.515009,-33.528355,-37.094265,-41.851204,-46.47472,-49.153122,-48.566463,-44.815086,-39.677605,-35.921043,-35.955761,-40.561684,-48.422436,-56.758556,-62.711952,-64.697823,-62.974739,-59.168949,-55.111748,-51.72686,-48.614151,-44.499489,-38.184864,-29.36953,-18.87458,-8.230566,1.0116276,7.7894564,11.622125,12.410076,10.262717,5.5841856,-0.65765482,-6.8089061,-10.868589,-11.287567,-7.8335013,-1.9484111,3.7543139,6.7017879,5.6464667,1.2761624,-4.2417083,-8.532609,-10.345927,-10.132773,-9.5255737,-10.066266,-12.018015,-14.052461,-14.054827,-10.568731,-3.9705527,3.4041097,8.3363008,8.422617,3.4258764,-4.5084867,-11.905084,-15.691071,-14.64797,-9.8075514,-3.6347613,1.4851089,4.5855203,6.5689635,9.587121,15.762953,25.984976,39.398693,53.790455,66.572723,75.80735,80.766785,81.850899,80.046059,76.313362,71.248451,65.118423,58.132435,50.681549,43.359108,36.760925,31.23794,26.806898,23.308075,20.71122,19.350191,19.893122,23.020477,28.976883,37.258163,46.625011,55.44532,62.180542,65.76947,65.760178,62.223156,55.610798,46.714233,36.72282,27.229403,19.989822,16.389387,16.815556,20.303228,24.762676,27.805805,27.817257,24.707167,19.8995,15.517017,13.196455,13.209857,14.413601,15.063464,14.005651,11.504991,9.1693583,8.969883,11.918101,17.203478,22.357817,24.429573,21.554697,14.057534,4.449326,-3.7108757,-7.5117984,-6.0612926,-0.83395994,5.1553416,8.8908386,8.7972279,5.3623834,0.67703128,-2.7977424,-3.5430853,-1.6792206,1.2835796,3.4445474,3.6626441,2.1922367,0.44366941,0.017512552,1.5905924,4.3369851,6.273747,5.3844171,0.89387667,-6.0651021,-12.844314,-16.583704,-15.736571,-10.959206,-4.8395662,-0.58483088,-0.38318887,-4.3393869,-10.550845,-16.232485,-19.211151,-18.937065,-16.492264,-13.695472,-11.92098,-11.363418,-11.141846,-10.090799,-7.6739521,-4.4314337,-1.7064055,-0.86387837,-2.5025721,-6.124126,-10.408186,-13.884143,-15.595487,-15.421761,-13.957899,-12.096213,-10.566326,-9.6489954,-9.1498518,-8.5980263,-7.5592847,-5.9313455,-4.0899343,-2.7956226,-2.8579929,-4.689497,-7.9873896,-11.772707,-14.840854,-16.41091,-16.575701,-16.210752,-16.322903,-17.221622,-18.102213,-17.43848,-14.063716,-8.2865705,-2.232718,1.0054047,-0.92316914,-8.034193,-17.572201,-25.165339,-27.045624,-22.105656,-12.583453,-2.9394627,2.4516997,1.4862993,-4.8042889,-13.085771,-19.633129,-22.163572,-20.63516,-16.79814,-13.029714,-11.252963,-12.442768,-16.676256,-23.342625,-31.221382,-38.509983,-43.137535,-43.549713,-39.670898,-33.352993,-27.722876,-25.502676,-27.189222,-30.318756,-30.546337,-24.145857,-10.507195,6.9891801,22.455078,30.609253,29.6959,22.408484,14.217204,10.122206,11.843111,17.153788,21.672672,21.849957,17.190958,10.354196,5.2279348,4.3964467,7.70227,12.732958,16.694304,18.234028,17.962246,17.469181,17.762804,18.412773,18.054787,15.7984,12.34262,9.8140869,10.335114,14.356826,20.052839,24.340998,24.895159,21.729136,17.178215,14.240233,14.441606,16.788267,18.606131,17.704384,14.276939,11.076197,11.594738,17.453924,26.861824,35.353088,38.468876,34.643913,26.33534,18.555653,15.715021,18.845581,25.053013,29.557989,28.949232,23.459484,16.747063,13.358995,15.614917,22.023369,28.285419,30.185022,26.406143,19.395113,13.72444,13.090309,17.957153,25.380569,31.051134,32.129513,28.967485,24.618855,22.558935,24.222509,28.051081,30.687849,29.493088,24.652676,19.397726,18.075249,23.209059,33.384529,43.346764,46.409954,37.9128,17.82943,-8.9089575,-34.584671,-52.234367,-58.744442,-55.960457,-49.331032,-44.870121,-46.045357,-52.182781,-59.156052,-61.931206,-57.571125,-47.06612,-34.973114,-27.022909,-26.973177,-34.446442,-44.999969,-52.469147,-52.337551,-44.264259,-32.316776,-22.737051,-20.477943,-26.477337,-37.224716,-46.848148,-50.481045,-46.936386,-39.161362,-32.290623,-30.539719,-34.818546,-42.429508,-48.903286,-50.743587,-47.388691,-41.287468,-36.205082,-34.925007,-37.757008,-42.622131,-46.438858,-46.793835,-42.872608,-35.277271,-25.145533,-13.364751,-0.42705241,13.144686,26.357609,37.839596,46.516369,52.3689,56.58588,60.80582,65.828964,70.668724,72.712585,69.085449,58.484844,42.349712,24.545158,9.6221752,0.60224187,-2.4344008,-2.1295226,-2.1296079,-4.8786302,-10.190125,-15.378571,-16.811079,-11.956851,-0.80420446,14.047106,28.545811,38.899216,42.965775,40.767971,34.087425,25.519625,17.489603,11.585997,8.3280315,7.2984543,7.5090451,7.8661766,7.605238,6.5541639,5.1142607,3.9534078,3.5620673,3.9263265,4.5265512,4.6747355,3.9747002,2.5919809,1.1403481,0.26186159,0.20673196,0.7325238,1.4107323,2.1113918,3.2686648,5.657146,9.7612572,15.154299,20.366556,23.439476,22.907795,18.635368,11.981203,5.1754494,0.27299181,-1.6990031,-0.94363415,1.5625198,4.7756753,8.0309315,10.988943,13.268626,14.203014,13.04052,9.5219002,4.395895,-0.60631543,-3.480958,-2.9944327,0.58048344,5.5341182,9.5980549,11.117674,9.8209286,6.7588158,3.5324178,1.3525821,0.51936376,0.55947053,0.79548055,0.87244904,0.88990301,1.1433949,1.7791497,2.6754367,3.6135063,4.5170503,5.4800019,6.5192246,7.2902408,7.1115475,5.4191146,2.3779807,-0.86608595,-2.6453645,-1.7827272,1.4937431,5.4509172,7.7948694,7.1362977,3.9853065,0.49218795,-1.0242186,0.1754341,2.4785187,2.8081682,-1.2652718,-9.5542421,-18.83375,-24.441633,-23.021021,-14.692397,-3.207983,6.0987501,9.3415337,6.2117782,-0.0788619,-4.9246459,-5.0957775,-0.40138501,6.6728959,12.888585,16.301069,17.070658,16.685392,16.409111,16.246553,15.197623,12.495285,8.7228966,5.7981157,5.716548,8.9664764,13.862139,17.412308,17.199474,12.951046,6.6573887,1.1376935,-1.894112,-2.8214979,-3.4325824,-5.0881171,-7.2143211,-7.4081511,-3.2437508,5.4873991,15.861346,23.161709,23.793728,17.825188,9.271616,3.6802006,4.4529939,10.350566,15.975505,15.098479,4.7463589,-12.639139,-30.470827,-41.974064,-44.300732,-40.136448,-35.772175,-36.927166,-45.059093,-56.529419,-65.075539,-65.882813,-58.578297,-47.289131,-37.901947,-34.460247,-37.055172,-42.40976,-46.489685,-47.198505,-45.346996,-43.438831,-43.372673,-44.83511,-45.53648,-43.041706,-36.798889,-28.867676,-22.813738,-21.534275,-25.491802,-32.494225,-39.074574,-42.480698,-41.99868,-38.915138,-35.39436,-33.181011,-32.956085,-34.526112,-37.389587,-41.069473,-44.997269,-48.266529,-49.767765,-48.863914,-46.179184,-43.755985,-44.150249,-48.804501,-56.722225,-64.480438,-67.858864,-64.277985,-54.579731,-42.952782,-34.892975,-34.312008,-41.466084,-52.89246,-63.327095,-68.416809,-66.6604,-59.614513,-50.520782,-42.410374,-36.860294,-33.947948,-33.072048,-33.816708,-36.195026,-40.224884,-45.335979,-50.197296,-53.154629,-52.952282,-49.189751,-42.207504,-32.57983,-20.716009,-6.9576006,7.8999381,22.168041,33.448795,39.555801,39.689911,35.089127,28.618809,23.435017,21.475008,22.672302,25.337397,27.403011,27.707197,26.528349,25.139467,24.808117,25.978827,28.147757,30.389553,32.041752,33.018486,33.591671,33.930164,33.856316,33.048473,31.48974,29.710533,28.51474,28.325895,28.671579,28.313765,26.082537,21.899973,17.22983,14.495425,15.703625,21.113943,28.853968,35.811634,39.30418,38.493744,34.674973,30.299244,27.425764,26.629025,27.022205,27.249123,26.632008,25.607075,25.159784,25.749897,26.618879,26.093451,22.746197,16.589951,9.3916931,3.7724216,1.624486,2.9004893,5.6284962,7.1966648,6.0811887,2.8678489,-0.12881964,-0.41057834,3.0133059,8.9105968,14.565481,17.501326,17.087976,15.032432,14.484874,18.356062,27.875746,42.174698,58.964928,75.721451,90.572479,102.45554,110.69814,114.57935,113.36198,106.83413,95.92646,82.836143,70.394493,60.945221,55.369801,52.84811,51.496624,49.493217,46.022141,41.533962,37.274151,34.479408,33.776443,35.089886,37.962147,41.913395,46.509457,51.110428,54.595482,55.44339,52.314537,44.884304,34.407703,23.562963,15.514312,12.609459,15.378425,22.357674,30.809015,37.917122,41.831284,42.078831,39.295635,34.603363,29.085327,23.618427,18.990734,16.014532,15.392937,17.35387,21.321154,25.939701,29.557676,30.947662,29.850885,27.017525,23.729019,21.12042,19.725519,19.482718,20.094505,21.391027,23.383726,25.982077,28.659101,30.438763,30.35025,28.108004,24.52224,21.24704,19.894985,21.016836,23.616457,25.59197,24.915485,20.863445,14.53261,8.2963524,4.5108151,4.2449651,6.7805724,10.132881,12.216631,11.929763,9.5598049,6.402019,3.96334,3.2875409,4.7167139,8.0196552,12.588358,17.489769,21.448891,23.038754,21.245152,16.207342,9.6096945,4.2418051,2.7221291,6.0139756,12.677471,19.490374,23.242943,22.687586,19.387667,16.807991,18.098257,23.931814,31.831253,37.527992,37.594135,31.704151,23.045994,16.543312,15.954934,21.660383,30.517263,37.848061,40.248978,37.415897,31.875607,26.92874,24.290485,23.069002,20.74852,15.426451,7.6626492,0.55701321,-2.0968206,1.6290275,10.284354,19.68063,25.355099,25.285797,21.074179,16.79422,16.237366,20.344271,26.503784,30.184511,27.84725,19.256054,7.6988502,-2.0245202,-6.5660853,-6.0789294,-4.0857611,-5.2795768,-12.636591,-25.596964,-40.358612,-52.023609,-57.263191,-55.951645,-50.931087,-46.206894,-44.733284,-47.053738,-51.434875,-55.221127,-56.497005,-55.102215,-52.537308,-50.969994,-52.00156,-55.873165,-61.450245,-66.870178,-70.433144,-71.282463,-69.614006,-66.427147,-63.02803,-60.551777,-59.686012,-60.636402,-63.245007,-67.125832,-71.718941,-76.265816,-79.801598,-81.28672,-79.926971,-75.589958,-69.103539,-62.207375,-57.064877,-55.472038,-58.097889,-64.130562,-71.5364,-77.848,-81.130882,-80.694107,-77.243416,-72.45575,-68.216362,-65.880417,-65.854721,-67.61277,-70.064667,-72.087639,-73.000832,-72.813896,-72.158707,-71.920792,-72.709602,-74.417625,-76.136864,-76.572517,-74.824104,-71.129601,-67.075363,-64.990677,-66.711723,-72.35936,-79.911095,-85.995651,-87.633392,-83.999825,-77.130142,-71.001488,-69.369041,-73.549294,-81.488052,-88.775703,-91.124596,-86.900635,-78.189476,-69.696655,-66.056686,-69.091843,-76.614548,-83.470833,-84.218697,-75.918114,-59.513412,-39.172276,-20.127865,-6.3292193,0.87268281,2.5470326,0.97005254,-1.6953037,-4.0873737,-5.5766926,-5.8614326,-4.7587557,-2.3856764,0.53274012,2.6733239,2.6516354,-0.16892433,-5.1541753,-10.603708,-14.639879,-16.239204,-15.724668,-14.384376,-13.48144,-13.34882,-13.208516,-11.846005,-8.663291,-4.3543563,-0.69462448,0.4587135,-1.6835653,-6.2939453,-11.338713,-14.689364,-15.243337,-13.39365,-10.62626,-8.5631123,-8.0525761,-8.7941294,-9.5953178,-8.9922915,-5.8414741,0.35860765,9.411787,20.487564,32.205868,42.789726,50.403908,53.701252,52.390755,47.505058,41.113655,35.509872,32.219475,31.333673,31.540487,30.882868,27.900591,22.616238,16.891045,13.950251,17.219719,28.890577,48.754246,73.799393,98.838326,118.06871,127.06997,124.44876,112.36761,95.601624,79.449341,67.447052,60.029552,54.850391,48.595013,39.261353,27.577814,16.703762,10.37966,10.650384,16.574945,24.746109,31.320019,34.299675,34.640247,35.476452,39.951935,49.009552,60.518894,70.270226,74.206696,70.533821,60.493023,47.46806,35.121456,25.755003,19.791374,16.431684,14.776291,14.505635,15.691936,18.053225,20.412586,20.957834,18.248573,12.28023,4.7783651,-1.6166809,-4.8303328,-4.5380721,-2.2256541,-0.027706107,0.91503406,1.4648309,4.1168633,11.392088,23.967258,39.740517,54.489475,63.812279,65.25927,59.454792,49.619801,39.842354,33.117226,30.206278,29.794857,29.639482,27.910728,23.98122,18.384918,12.212854,6.4640794,1.737978,-1.7021496,-3.7387338,-4.346076,-3.7201145,-2.4152877,-1.2655022,-1.0476356,-2.0868711,-4.1027675,-6.4436111,-8.5654173,-10.401537,-12.321893,-14.679131,-17.271896,-19.165487,-19.092209,-16.238581,-10.909275,-4.5771461,0.79513299,3.7883353,4.2741165,3.3885052,2.731988,3.3005707,4.8339748,5.9985185,5.2790537,1.9965658,-3.2029352,-8.6853132,-12.750714,-14.539811,-14.369636,-13.34496,-12.567516,-12.488388,-12.798624,-12.849629,-12.24087,-11.13994,-10.140515,-9.8201885,-10.364383,-11.538467,-12.991956,-14.60664,-16.563131,-19.033592,-21.734537,-23.741861,-23.831205,-21.236683,-16.369478,-10.965316,-7.4230218,-7.5909581,-11.651857,-17.777306,-22.837713,-23.86482,-19.522146,-10.804558,-0.5922094,7.7011218,11.668621,10.850686,6.6450181,1.3360424,-3.1470885,-6.0420165,-7.7501211,-9.1486053,-10.751678,-12.302526,-13.05475,-12.515033,-11.085926,-10.088919,-11.052626,-14.666382,-20.088978,-25.147184,-27.427458,-25.668701,-20.597738,-14.613665,-10.406323,-9.2806396,-10.215328,-10.308699,-6.4498186,2.7186086,15.718569,28.741468,37.523693,39.556881,35.380077,28.229284,22.277267,20.497196,23.352123,28.958862,34.472668,37.750443,38.292011,37.019966,35.242889,33.630749,31.921486,29.48715,26.246183,23.16256,21.882421,23.695509,28.524935,34.67775,39.608322,41.273064,39.250038,34.926743,30.64769,28.364693,28.629902,30.520981,32.471451,33.403229,33.400139,33.507214,34.846062,37.692749,41.17218,43.786911,44.420315,43.123718,41.134514,40.084141,40.899979,43.12487,45.122028,45.071777,42.156483,37.201092,32.364754,30.053593,31.684982,36.996246,44.242939,51.101673,55.722748,57.369312,56.407047,53.817879,50.64069,47.662159,45.405815,44.221725,44.255947,45.271172,46.521534,46.935623,45.655216,42.653515,38.974918,36.294254,35.931507,37.903057,40.692387,42.04974,40.453167,36.330383,32.138897,31.029121,34.723198,41.870182,48.025021,47.536793,36.486664,15.088082,-11.869602,-36.927799,-53.30315,-57.934837,-52.652176,-42.924931,-34.973789,-32.849129,-36.967842,-44.667053,-52.17342,-56.700031,-57.511711,-55.590919,-52.428425,-48.909206,-45.028191,-40.490021,-35.598431,-31.66214,-30.511211,-33.369259,-39.808067,-47.5219,-53.185696,-54.014751,-49.20565,-40.471649,-31.351011,-25.607632,-25.502531,-30.775043,-38.811558,-45.90414,-48.983452,-47.000774,-41.311958,-34.899944,-30.830105,-30.704765,-33.885731,-37.872326,-39.638535,-37.236252,-30.831654,-22.640251,-15.816455,-12.908989,-14.706229,-20.044239,-26.591923,-32.092495,-35.344196,-36.438271,-36.265587,-35.72718,-35.179539,-34.391247,-32.887489,-30.314863,-26.519156,-21.331648,-14.341303,-4.9738102,7.0467277,21.118679,35.506088,47.696156,55.276493,56.880322,52.672249,44.121468,33.242607,21.789246,10.85298,0.99488622,-7.3443255,-13.570299,-17.053268,-17.549109,-15.56798,-12.348669,-9.3768787,-7.7211881,-7.6028075,-8.4608669,-9.4382353,-9.9387159,-9.8870411,-9.5612574,-9.1807718,-8.5946836,-7.3196626,-4.9050345,-1.3625456,2.648452,6.019217,7.6653714,7.009376,4.2301841,0.18934254,-3.8913584,-6.851562,-7.973947,-7.2285876,-5.3018384,-3.3513482,-2.5063331,-3.2817419,-5.2143373,-7.014329,-7.2836695,-5.4720187,-2.4741955,-0.36146665,-1.2205366,-5.6921368,-12.138561,-17.127174,-17.155313,-10.710244,0.58792543,12.56964,20.620005,22.127296,17.823088,11.199166,6.3655944,5.6805992,8.6024485,12.399278,14.14529,12.631524,8.9541121,5.4982219,4.1408448,4.9886327,6.519033,6.9474373,5.749289,4.1689186,4.3048172,7.4265723,12.775244,17.787495,19.674265,17.295399,12.013267,6.8832207,4.681869,6.0889039,9.2499876,11.01443,9.0106621,3.1732864,-4.2608824,-10.212836,-12.635533,-11.544798,-8.6073074,-5.7203608,-3.6893599,-1.9547356,0.51708019,3.9546521,7.1810465,8.2411127,5.8626237,0.68393534,-4.7277007,-7.2255831,-4.9952602,1.2209228,8.425231,13.052193,13.00212,8.7706709,3.0220995,-1.0513746,-1.5152662,1.4485546,6.0130587,10.046244,12.381049,13.247211,13.741595,14.849611,16.74288,18.776087,20.063747,20.133928,19.179771,17.786592,16.413128,15.053023,13.324698,10.893124,7.8851709,4.9785509,3.086179,2.8296394,4.1186023,6.0711665,7.31636,6.5453649,3.1002851,-2.6117208,-9.0599499,-14.009691,-15.407856,-12.487616,-6.5936427,-1.1549302,-0.50434601,-7.8416715,-23.265173,-43.032269,-60.761944,-70.282356,-68.781578,-58.516727,-45.939129,-38.482563,-40.655704,-51.622456,-65.712677,-75.651474,-76.678612,-69.159294,-58.154911,-50.24041,-49.523975,-55.302711,-62.765907,-66.258636,-63.026985,-55.080097,-47.997993,-47.438503,-55.532726,-69.41687,-82.800636,-89.588638,-87.327202,-78.412956,-68.425194,-62.716469,-63.396973,-68.494659,-73.63678,-75.028854,-71.786201,-66.210815,-61.998173,-61.676708,-64.994034,-69.24868,-71.241043,-69.464966,-65.059151,-60.916191,-59.600361,-61.51627,-64.585312,-65.661232,-62.737076,-56.448662,-49.826347,-46.40303,-47.889828,-52.957829,-57.978806,-59.315281,-55.717682,-49.267204,-44.193592,-44.247803,-50.258759,-59.43301,-66.89106,-68.535332,-63.498459,-54.668175,-46.978695,-44.539467,-48.369781,-56.079983,-63.580822,-67.62738,-67.541481,-65.085258,-62.740021,-61.710094,-61.101875,-58.847771,-53.660408,-46.51672,-40.446247,-38.578053,-41.690247,-46.999859,-49.240299,-43.598061,-28.786234,-8.2939653,11.113164,22.886524,24.165665,17.18845,7.84585,2.311059,3.7914319,11.269728,20.78109,28.186789,31.578262,31.860031,31.38159,31.795532,32.746086,32.297417,28.715885,22.238148,15.457459,11.933263,13.889608,20.552628,28.308895,32.693024,31.008657,23.95203,15.220538,9.3480024,9.0997124,13.99647,20.797731,25.55394,25.916355,22.320372,17.432344,14.343141,14.711851,17.998428,22.16712,25.307417,27.084906,29.10026,33.95023,43.585278,57.963528,74.796242,90.524948,101.96647,107.7156,108.57333,106.84137,104.9455,104.17997,104.23557,103.68919,101.07756,95.872337,88.777519,81.211655,74.348198,68.362419,62.404205,55.358536,46.940968,38.425541,32.475216,32.056511,38.963173,52.729877,70.525963,88.100609,101.30757,107.48321,106.10094,98.555145,87.354034,75.192451,64.273933,55.994869,50.898407,48.762592,48.775024,49.817318,50.853199,51.294106,51.1497,50.850143,50.840786,51.231373,51.770199,52.175949,52.558498,53.538292,55.86808,59.762047,64.446747,68.388031,70.199753,69.689293,68.266357,68.267593,71.479286,77.778152,84.871391,89.471519,89.273094,84.467888,77.732132,72.586075,71.143242,72.760925,74.574783,73.646629,69.306625,64.037216,62.149876,66.982033,78.409248,92.367477,102.83383,105.11583,98.416656,86.078278,73.386681,64.378731,59.690067,56.745377,52.023449,43.788956,33.4468,24.667553,20.947021,23.275337,29.447372,35.398174,37.606636,34.981281,29.095806,22.805492,18.32131,16.056013,14.893342,13.490227,11.550205,10.127714,10.79573,14.336314,19.924543,25.385546,28.343409,27.494017,23.209526,17.177259,11.407623,7.2754726,5.1185322,4.47051,4.6114659,5.0195003,5.5084147,6.111115,6.9017329,7.8791413,8.896203,9.5757551,9.2542849,7.1091933,2.5861042,-3.995708,-11.054495,-16.016153,-16.370613,-11.099236,-1.6550082,8.2471981,14.162765,13.090795,5.1091261,-6.5166197,-16.911869,-22.03817,-20.657331,-14.738143,-8.1463652,-4.4524498,-5.1556678,-9.2857857,-14.451613,-18.534367,-20.914734,-22.523783,-24.822121,-28.488453,-32.727585,-35.643047,-35.405109,-31.445171,-24.924496,-18.203619,-13.65193,-12.498006,-14.345419,-17.549152,-20.16081,-20.883045,-19.552137,-16.987822,-14.404817,-12.766501,-12.414796,-13.098195,-14.289476,-15.559167,-16.792957,-18.168756,-19.954105,-22.26716,-24.937801,-27.52828,-29.486338,-30.348734,-29.918039,-28.367382,-26.260506,-24.472939,-23.992052,-25.587971,-29.422018,-34.760723,-40.016224,-43.248726,-43.030754,-39.298107,-33.679726,-28.96693,-27.82262,-31.332161,-38.222927,-45.326385,-49.183899,-47.979637,-42.675003,-36.583866,-33.513592,-35.492573,-41.435833,-47.608631,-49.687477,-45.234047,-35.115036,-23.028103,-13.445311,-9.238204,-10.393661,-14.487133,-18.449486,-20.391621,-20.33222,-19.512211,-18.974697,-18.547203,-16.988783,-13.152458,-7.2344198,-1.0999411,2.6544077,2.3071606,-1.825371,-7.5076981,-11.940119,-13.448805,-12.379626,-10.629517,-10.194607,-11.779141,-14.420806,-16.338852,-16.336317,-14.722243,-13.097086,-13.183199,-15.559811,-19.208408,-22.172573,-22.842554,-20.959255,-17.67448,-14.69688,-13.179542,-13.122079,-13.624107,-13.689394,-12.927565,-11.660311,-10.455593,-9.5549679,-8.6969738,-7.4627929,-5.8121514,-4.3089848,-3.798526,-4.7655926,-6.8955407,-9.2241983,-10.803491,-11.390004,-11.625792,-12.567101,-14.922146,-18.583134,-22.789379,-26.739262,-30.097788,-32.947357,-35.232197,-36.247162,-34.770874,-29.946955,-22.326242,-14.173249,-8.5354233,-7.4777832,-10.640644,-15.266518,-17.940474,-17.062597,-14.385955,-14.392084,-21.641996,-37.661678,-59.392593,-80.361176,-94.00396,-97.157417,-91.557594,-82.448425,-75.250893,-72.468178,-72.771721,-72.700302,-69.642967,-63.967663,-58.829731,-57.858353,-62.407578,-70.346413,-77.270927,-79.324562,-75.695641,-69.08091,-63.798203,-62.822849,-65.738121,-68.955551,-68.042747,-60.618519,-47.944008,-34.223816,-24.107412,-19.977739,-20.663013,-22.258945,-20.464123,-13.016804,-0.90261513,12.182773,21.652662,24.089743,18.563271,6.7404871,-8.0536242,-22.270878,-33.427456,-40.764313,-45.086193,-47.90237,-50.279713,-51.983673,-51.413105,-46.477787,-36.040154,-21.125759,-5.1002841,7.490859,12.950171,10.265608,1.7010825,-8.2642727,-15.115251,-16.412977,-12.709333,-6.8557696,-2.2370291,-1.0201052,-3.3676996,-7.8674378,-12.669712,-16.50135,-18.986454,-20.297541,-20.624098,-19.962845,-18.356009,-16.266695,-14.64747,-14.521097,-16.327597,-19.533438,-22.844099,-24.918633,-25.101326,-23.660032,-21.387957,-18.901291,-16.192017,-12.786747,-8.3826914,-3.4399071,0.78180259,2.8453734,2.0138197,-1.2415521,-5.4841633,-9.1538668,-11.420452,-12.45601,-12.962175,-13.345418,-13.199006,-11.530307,-7.6109381,-1.838295,4.0652623,7.7635231,7.5531468,3.3838522,-2.997472,-8.8883524,-11.966767,-11.354288,-7.8481784,-3.2907486,0.46807015,2.4026511,2.5517983,1.6866256,0.73665303,0.34616739,0.74631286,1.8830006,3.6100161,5.7871013,8.2448339,10.683759,12.604799,13.344196,12.243896,8.9497471,3.7639589,-2.1106553,-6.6600723,-7.6409392,-3.5720537,5.272213,16.467045,26.087719,30.336706,27.447208,18.824818,8.6471643,1.9403142,2.06638,8.9994068,19.407297,28.535162,32.81522,31.675619,27.512945,23.929792,23.41297,25.933567,29.303631,30.943432,29.79925,27.093967,25.429022,26.893444,31.507442,37.077171,40.558079,39.996685,35.749683,30.199776,26.219755,25.45437,27.545044,30.709419,33.140545,34.179432,34.474792,35.148178,36.71442,38.638428,39.857624,39.811798,39.097313,39.14146,41.062916,44.568314,47.79237,48.345181,44.935375,38.448421,31.666552,27.728369,28.315653,32.771515,38.728264,43.777607,46.98938,49.20826,51.948059,55.743805,59.248482,59.85886,55.545418,46.635914,36.228592,28.782808,27.671942,33.234402,42.588261,51.344349,56.121468,56.266727,53.753239,51.465366,51.140774,52.395046,53.422722,52.745872,50.631569,49.053951,50.150093,54.256798,59.001114,60.259323,54.527,41.222809,23.395428,6.2782626,-5.4862566,-10.260121,-9.9806051,-8.5692282,-9.2234745,-12.322438,-15.26415,-14.315772,-7.2931728,4.6189828,17.057425,24.607397,23.652664,14.339941,0.59411848,-11.773465,-17.810318,-15.599752,-6.8521714,4.226059,13.075862,16.832903,15.348221,10.83619,6.4654269,4.6523695,5.8791552,8.5620079,9.9870071,7.8294396,1.4909563,-7.4381366,-15.864673,-20.712202,-20.49436,-16.085768,-10.231741,-6.0285382,-5.2091804,-7.2227817,-9.664875,-9.8314772,-6.4813147,-0.73654109,4.455358,6.0109611,2.5538971,-4.69561,-12.526957,-17.479891,-17.685398,-13.733369,-8.1143818,-3.6521208,-1.9221619,-2.588048,-3.9519672,-4.2468739,-2.7820399,-0.24272458,1.9398953,2.6142485,1.5963221,-0.40356016,-2.4606726,-4.1527505,-5.7668686,-7.8751388,-10.651253,-13.497516,-15.307006,-15.189025,-13.111197,-9.947772,-6.8554254,-4.4100862,-2.1505654,1.0948064,6.2876997,13.318588,20.858856,27.098013,30.892414,32.513725,33.420692,35.150303,38.078072,40.949398,41.599949,38.459793,31.846249,24.11887,18.491943,17.203051,20.206007,25.249775,29.306257,30.416323,28.747723,26.197481,24.868261,25.518084,27.089212,27.650126,26.061655,23.125874,21.294626,23.017065,28.804344,36.388786,41.704151,41.219604,34.208443,23.475828,13.982814,10.114143,13.210784,20.852316,28.317589,31.332943,28.465605,21.777529,15.436064,13.188282,16.216721,22.582008,28.472229,30.451078,27.413923,21.234861,15.869455,15.478287,22.538469,36.786839,55.360638,73.961006,88.496674,96.551392,98.129974,95.408401,91.579567,89.264175,89.199089,89.870209,88.352135,81.99688,70.091118,54.526955,39.02013,27.243608,20.928165,19.066195,18.725836,16.995697,12.848907,7.7357545,4.5057707,5.3402267,10.040488,15.820062,18.792248,16.246294,8.2811699,-2.2343214,-11.338996,-16.224771,-16.648905,-14.691054,-13.120217,-13.511823,-15.35041,-16.638502,-15.508134,-11.689594,-6.8367071,-3.5128298,-3.5364103,-6.7834649,-11.201145,-13.980346,-13.110656,-8.3698997,-1.239013,6.0572662,11.689878,14.867143,15.743113,14.871566,12.708718,9.4937134,5.4556251,1.0241903,-3.2365658,-6.965488,-10.320877,-13.954154,-18.565796,-24.313915,-30.503895,-35.832073,-39.07774,-39.815491,-38.684498,-37.036694,-36.192223,-36.773731,-38.512756,-40.586266,-42.199604,-43.011993,-43.170891,-43.026764,-42.811916,-42.537739,-42.142673,-41.703102,-41.473495,-41.690128,-42.298313,-42.865795,-42.816631,-41.864231,-40.329697,-39.074459,-39.033756,-40.632889,-43.476921,-46.534389,-48.703636,-49.387508,-48.708378,-47.254707,-45.587883,-43.888481,-41.995781,-39.77211,-37.46999,-35.771172,-35.427193,-36.749817,-39.339737,-42.281487,-44.687798,-46.20451,-47.098747,-47.855637,-48.583008,-48.694958,-47.170784,-43.279541,-37.303368,-30.745235,-25.810787,-24.4119,-27.243755,-33.444542,-40.996208,-47.608227,-51.603535,-52.406628,-50.513477,-47.094715,-43.487553,-40.767838,-39.474968,-39.50684,-40.216202,-40.738232,-40.482208,-39.561409,-38.860077,-39.575172,-42.40694,-46.887234,-51.369553,-53.841557,-53.154427,-49.873268,-46.084518,-44.136494,-45.058727,-47.747314,-49.607754,-48.391701,-44.06757,-39.377953,-38.479126,-44.313873,-56.319847,-70.03511,-79.073685,-78.455528,-67.355019,-49.606956,-31.649281,-19.137299,-14.241886,-15.145156,-17.82041,-18.775129,-16.955797,-13.733203,-11.256418,-10.538267,-10.691514,-9.8032961,-6.7032404,-2.2384748,0.9572252,0.11036393,-5.7464852,-14.880798,-23.655416,-28.51244,-27.870804,-22.77323,-15.989359,-10.289243,-7.0505877,-6.0007324,-6.0358515,-6.3441973,-6.9707804,-8.4963408,-11.217561,-14.564563,-17.250351,-18.038456,-16.529396,-13.369784,-9.7534504,-6.6341805,-4.2665682,-2.3983884,-0.88752186,-0.16209537,-1.0621929,-4.1182051,-8.8232889,-13.543946,-16.282637,-15.861797,-12.722853,-8.7305136,-6.0343819,-5.7080774,-7.0820584,-8.2482119,-7.4318213,-4.3289528,-0.51120758,1.4024818,-0.69175494,-7.0475154,-15.768304,-23.697004,-27.945538,-27.192532,-22.100388,-14.764433,-7.6296,-2.4893556,0.0061277212,0.26742455,-0.68349528,-1.7510718,-2.2012525,-1.9033754,-1.3329575,-1.30961,-2.5218899,-5.0364008,-8.0890951,-10.378722,-10.789683,-9.1342325,-6.3796053,-4.0873876,-3.3272288,-3.7844529,-3.7872589,-1.4348205,3.780755,9.9586992,13.255386,9.8218231,-1.8223697,-19.463589,-37.90752,-51.503742,-57.077839,-55.514984,-51.001034,-48.365009,-50.159229,-55.284645,-59.974716,-60.440498,-55.424374,-47.013088,-39.234207,-35.427654,-36.162468,-39.061016,-40.587112,-38.542591,-33.571308,-28.67198,-27.074806,-29.927267,-35.341312,-39.436298,-38.697895,-32.140739,-21.927305,-12.11297,-6.3578272,-6.0226603,-9.725956,-14.467975,-17.487284,-17.682545,-15.843181,-13.745103,-12.82862,-13.310587,-14.187325,-13.992236,-11.76186,-7.6396561,-2.8329771,0.9959529,2.582442,1.7823273,-0.12754096,-0.72502136,2.7227728,12.094256,27.356348,46.141796,64.319733,77.478523,82.717178,79.856674,71.38031,61.069019,52.051834,45.380054,39.946846,33.758183,25.696522,16.593868,8.8761368,5.0055866,5.7903137,9.7730627,14.216369,17.104397,18.815937,22.233131,31.016172,46.994102,68.300262,89.538467,104.08073,107.29279,98.877411,83.003372,66.160995,53.977112,48.755337,48.999191,50.973305,51.215923,48.493198,44.170841,40.998009,41.202442,45.073658,50.7808,55.37962,56.318134,52.594574,45.055134,35.853088,27.489021,21.925283,20.079777,21.742231,25.799995,30.641575,34.648106,36.687592,36.477528,34.653103,32.451706,31.109327,31.251175,32.611019,34.255501,35.198296,35.038208,34.220482,33.738796,34.444313,36.387207,38.620338,39.629604,38.182163,34.122368,28.6537,23.915306,22.037941,24.139429,29.750801,36.951893,43.155994,46.190182,45.196686,40.973728,35.621273,31.652981,30.954645,34.032776,39.869877,46.440193,51.639881,54.192715,54.100113,52.431961,50.594101,49.489056,49.0452,48.38118,46.503677,43.113228,39.014523,35.845043,35.239388,37.889545,43.046398,48.769653,52.816555,53.701332,51.369965,47.157959,43.094662,40.951611,41.524395,44.459141,48.614647,52.686535,55.743912,57.454411,57.985241,57.736904,57.101227,56.359329,55.713856,55.373341,55.59594,56.64476,58.662842,61.520893,64.718613,67.422966,68.698486,67.900002,65.084335,61.206417,57.892109,56.761002,58.549622,62.500046,66.455391,67.785194,64.779846,57.785599,49.366947,43.245361,42.455967,47.682796,56.7304,65.510635,70.070107,68.563599,62.080849,53.886696,47.554108,45.098309,46.172382,48.697193,50.414028,50.323284,49.126144,48.48671,49.701363,52.697311,55.987572,57.526459,55.818439,50.537586,42.337719,32.145683,20.569721,7.8913202,-5.4185662,-18.186539,-28.596315,-34.9533,-36.698616,-34.928764,-31.942959,-30.000425,-30.060705,-31.356617,-32.119804,-30.990662,-28.14707,-25.35169,-24.85054,-27.861134,-33.69416,-40.134087,-44.835976,-46.784859,-46.812408,-46.820618,-48.271378,-51.022152,-53.35067,-53.173473,-49.612122,-43.799118,-38.332012,-35.722523,-36.88628,-40.68882,-44.82682,-47.398479,-48.059376,-47.981094,-48.701504,-50.744724,-53.043434,-53.604946,-50.958595,-45.348545,-38.80479,-34.007694,-32.703423,-34.729637,-38.275806,-41.146137,-42.131618,-41.583195,-40.894485,-41.381207,-43.419678,-46.430805,-49.601875,-52.670235,-56.074875,-60.326126,-65.114357,-68.957687,-69.829765,