Bandpass,0,0.27021,-247.44672,-487.28616,-638.11243,-684.50391,-652.73187,-592.62091,-549.42822,-541.85248,-557.42133,-566.05627,-541.87512,-479.77695,-397.52155,-323.74612,-280.66602,-272.46133,-285.74664,-300.32892,-302.33914,-291.29211,-277.41635,-272.37778,-280.28784,-295.06674,-305.23901,-302.19336,-285.9285,-264.58054,-248.50468,-243.38922,-247.10492,-252.08904,-251.12971,-242.28032,-229.61308,-219.70038,-216.69691,-219.63597,-223.65846,-223.95935,-219.31026,-212.60779,-208.17979,-208.09486,-210.33623,-210.25938,-204.20422,-192.5152,-179.63783,-171.13004,-169.72624,-173.32507,-176.40744,-173.93681,-164.94421,-153.23967,-144.70795,-143.07785,-147.2054,-151.79767,-151.11357,-143.05389,-130.73517,-120.41982,-117.20539,-121.456,-128.45679,-131.54057,-126.56505,-114.69109,-101.61493,-93.825684,-94.442627,-101.411,-109.13233,-112.26955,-109.06999,-102.01517,-95.550362,-92.667389,-92.828255,-92.612541,-88.521965,-79.818031,-69.310783,-61.535328,-59.605759,-62.993191,-67.784676,-69.248398,-64.933289,-56.196846,-47.180706,-42.012665,-42.172688,-45.771305,-49.084393,-49.15638,-45.629063,-40.622341,-36.910698,-35.822788,-36.381195,-36.208393,-33.429264,-28.112852,-22.204844,-18.067686,-16.755932,-17.335608,-17.724016,-16.381931,-13.535504,-10.969675,-10.508003,-12.319826,-14.377029,-13.600275,-7.9954548,1.6983408,12.067519,18.901402,19.730392,15.395043,9.6012745,6.7284718,9.2799053,16.570845,25.408306,32.217373,35.176239,35.019855,34.123779,34.634964,36.987965,39.77774,40.977261,39.5672,36.417248,33.823395,34.05426,37.900185,44.190075,50.530956,54.731834,55.971962,55.012081,53.435059,52.522327,52.528732,52.766048,52.326706,50.877235,48.973743,47.751495,48.248638,50.827217,55.019947,59.791553,63.984173,66.671799,67.331093,65.903534,62.856113,59.231972,56.553345,56.423481,59.88678,66.80941,75.670135,83.982567,89.24408,89.974396,86.335388,80.011482,73.442398,68.802528,67.230637,68.612366,71.924591,75.866684,79.453484,82.311417,84.613403,86.729225,88.758057,90.140984,89.564468,85.288643,75.897598,61.218575,42.968128,24.651842,10.518135,3.8721287,5.4944544,13.037777,21.867378,27.097195,25.857597,18.622356,8.8685379,1.2150668,-0.95416933,2.8854823,10.368658,17.712938,21.777573,21.531292,18.188633,14.126708,11.379763,10.657547,11.375405,12.473271,13.326293,14.099924,15.378255,17.444567,19.830971,21.497873,21.526815,19.798143,17.147606,14.862725,13.865414,14.151155,14.861569,14.924598,13.804657,11.834969,9.9425983,8.9945955,9.2630081,10.380247,11.774919,13.205928,14.948582,17.458101,20.759295,24.054155,25.925888,25.101282,21.315569,15.694901,10.348048,7.3459015,7.6741772,10.761449,14.839967,17.900805,18.673622,17.099966,14.118687,10.992805,8.6323347,7.2782764,6.6212978,6.1716537,5.5893598,4.8022075,3.9281933,3.1274545,2.504458,2.0727813,1.7433653,1.3087126,0.46838391,-1.037833,-3.2053707,-5.5962572,-7.4144258,-7.9040627,-6.8951955,-5.1227636,-3.967381,-4.5921946,-6.8690658,-8.7670565,-6.7326937,2.9249632,22.243193,50.341179,83.402824,115.97486,142.93063,161.0923,169.77115,170.1259,163.95279,152.75035,137.57091,119.56528,100.58796,83.201759,69.89724,61.957832,58.752708,58.010784,57.028759,54.117741,49.410187,44.526569,41.327862,40.553143,41.220554,41.160446,38.32703,32.04192,23.395773,14.595347,7.7055874,3.5993094,1.7373049,0.81818974,-0.21043092,-1.4841187,-2.3107162,-1.8867211,-0.087638512,2.2420106,3.7104557,3.217634,0.64774138,-3.0518548,-6.4464316,-8.4724989,-9.0261068,-8.9355316,-9.3687067,-11.084355,-13.99707,-17.297989,-20.016169,-21.636005,-22.387157,-23.059111,-24.483711,-27.015762,-30.312088,-33.508533,-35.662094,-36.199211,-35.14571,-33.054794,-30.716837,-28.832077,-27.800201,-27.701885,-28.424816,-29.824154,-31.801769,-34.267422,-37.018585,-39.66013,-41.662361,-42.583298,-42.348507,-41.411423,-40.637306,-40.908821,-42.631527,-45.437359,-48.315853,-50.162132,-50.459202,-49.665997,-49.021759,-49.810375,-52.511387,-56.377251,-59.771561,-61.12035,-59.913219,-57.094337,-54.540203,-53.896229,-55.510406,-58.183731,-59.960472,-59.490364,-57.068352,-54.607166,-54.473743,-57.890213,-63.942909,-69.925484,-72.882721,-71.420914,-66.612175,-61.357674,-58.564007,-59.284866,-62.062214,-63.966625,-62.725567,-58.589417,-54.685074,-55.516502,-64.449318,-81.66774,-103.85101,-125.76533,-142.84914,-153.27739,-158.39528,-161.41885,-165.31705,-171.19792,-178.02147,-183.62251,-186.17529,-185.15443,-181.32222,-176.00359,-170.3537,-165.15318,-161.12932,-159.28848,-160.72501,-165.83308,-173.4344,-180.61809,-183.71196,-180.07518,-169.7037,-155.62126,-142.65117,-135.131,-134.83847,-140.28972,-147.78711,-153.53445,-155.556,-154.33804,-151.98151,-150.58516,-150.97035,-152.54155,-154.19135,-155.45311,-156.96434,-159.85712,-164.51736,-169.67441,-172.59401,-170.45296,-162.08727,-149.03343,-135.12102,-124.75517,-120.81908,-123.36648,-129.78973,-136.30273,-139.86037,-139.49747,-136.44394,-133.14235,-131.78963,-133.17332,-136.25659,-138.5696,-137.11916,-129.49048,-114.83812,-94.541763,-72.272141,-53.245262,-42.661152,-43.704933,-55.912594,-74.785957,-93.121857,-103.70747,-102.21593,-88.884605,-68.062057,-45.823402,-26.917624,-12.711031,-1.2366579,10.789939,25.282562,41.138393,54.674515,61.920475,61.340313,55.266392,49.089695,48.602299,57.018517,73.388268,93.274277,111.20384,123.395,129.18623,130.49591,129.88744,128.66618,126.25892,121.22448,113.04814,103.36932,95.603203,93.0653,96.736397,104.16921,110.41799,110.62735,102.84854,89.416313,75.990944,68.716484,71.041771,81.959366,96.618065,108.934,114.70126,113.53883,108.67762,104.88692,105.80601,112.17803,121.85963,131.40234,138.15164,141.62158,143.44638,146.08141,151.1407,158.36633,165.77557,170.82056,171.82991,168.9157,163.89357,159.35283,157.42497,158.89345,163.0463,168.20703,172.61,175.13818,175.64215,174.76009,173.46196,172.57541,172.52025,173.3251,174.85741,177.08199,180.17352,184.42784,189.97844,196.51813,203.2067,208.89838,212.60614,214.0144,213.6944,212.88986,212.88911,214.33563,216.87378,219.38914,220.75345,220.64053,219.89926,220.19316,223.04863,228.85573,236.47533,243.73851,248.61496,250.37799,250.06317,249.89864,252.03339,257.30188,264.77576,272.33289,277.88705,280.50211,280.73596,280.0762,279.91165,280.79221,282.36584,284.00427,285.5314,287.48019,290.65759,295.35944,300.87375,305.72327,308.54288,309.01346,308.09879,307.39185,307.95441,309.49539,310.56253,309.67117,306.6424,303.03857,301.26587,302.75153,306.46744,309.00845,306.52985,297.56967,284.94696,275.26251,275.81277,290.41623,316.47397,345.12482,364.73868,365.98547,345.91339,308.84427,263.76712,219.82069,182.40575,151.9194,125.42462,99.81736,74.330864,50.854099,32.104008,19.112076,9.8496828,0.001975365,-14.591827,-35.402344,-60.21928,-84.32914,-103.13066,-114.57764,-120.0423,-123.19341,-127.72417,-135.33911,-145.12943,-154.49472,-160.85631,-163.02583,-161.50789,-157.76093,-153.119,-148.12003,-142.62511,-136.47173,-130.09483,-124.6296,-121.42677,-121.31042,-124.06405,-128.43546,-132.64539,-135.10742,-135.04556,-132.77855,-129.61548,-127.40007,-127.79585,-131.51974,-137.81931,-144.53691,-148.94615,-149.10565,-145.12837,-139.52158,-136.14827,-138.11891,-145.65541,-155.24638,-160.88289,-156.96675,-141.46773,-117.52887,-92.476654,-74.613747,-69.473198,-77.574287,-94.856506,-115.38567,-134.6152,-151.23547,-166.64085,-182.63586,-199.14888,-213.63306,-222.66441,-224.64371,-221.67052,-219.11052,-222.87744,-235.96745,-256.4559,-278.26758,-294.40979,-300.74982,-298.12103,-291.49899,-286.87097,-287.6824,-293.07657,-298.81006,-300.19269,-295.1192,-285.36502,-275.47165,-270.06882,-271.29532,-277.84631,-285.97342,-291.65948,-292.57211,-288.78143,-282.10718,-274.78735,-268.38333,-263.48038,-260.01132,-257.7095,-256.27643,-255.24257,-253.82188,-251.15773,-246.87364,-241.55492,-236.69115,-233.92294,-234.01151,-236.16042,-238.25195,-237.90308,-233.74017,-226.11388,-216.81273,-208.01036,-201.14952,-196.45128,-193.28528,-190.97957,-189.42346,-189.00125,-189.95564,-191.75839,-193.05569,-192.31882,-188.76797,-182.85571,-175.91249,-169.14328,-162.7234,-155.72211,-146.99789,-136.51132,-126.04201,-118.652,-117.00215,-121.51098,-129.55817,-136.41183,-137.47937,-130.67123,-117.48757,-102.19318,-89.559746,-82.480286,-80.779305,-81.791298,-82.211502,-80.050507,-75.578598,-70.893814,-68.539276,-70.107948,-75.568146,-83.473145,-91.693253,-98.12159,-101.0713,-99.437889,-92.892754,-82.185616,-69.345711,-57.38699,-49.349854,-46.990257,-49.81311,-55.125362,-59.260788,-59.402195,-54.991554,-47.894432,-41.201214,-37.365456,-36.814575,-37.836365,-37.776733,-34.748886,-28.778032,-21.700958,-15.955828,-13.088007,-12.92129,-13.85854,-14.024654,-12.443743,-9.4987841,-6.4483733,-4.4168382,-3.5791652,-3.0707185,-1.6116488,1.6228315,6.4873366,11.995674,16.927559,20.470156,22.479692,23.30942,23.444992,23.276886,23.155537,23.570776,25.178291,28.515638,33.547775,39.398815,44.558304,47.546753,47.679436,45.445057,42.245949,39.66153,38.704659,39.534561,41.751465,44.971802,49.185287,54.593166,61.039055,67.529739,72.328873,73.737564,71.141029,65.634354,59.723804,56.160439,56.550625,60.562653,66.216721,71.071243,73.578636,73.777153,72.960564,72.626114,73.437675,74.908783,75.938652,75.776772,74.684959,73.827942,74.478645,77.121483,81.096741,85.02829,87.712463,88.814507,88.872032,88.636765,88.301636,87.274284,84.765404,80.819695,76.990318,75.993622,80.331802,90.61097,104.66907,118.21584,126.84908,128.38963,124.17207,118.45152,116.14509,120.12231,129.58751,140.49648,147.81935,148.36948,142.59843,134.32761,128.57971,128.72455,134.58272,142.52834,147.54764,146.08267,138.07692,127.09892,118.47048,116.44649,121.95741,132.13773,141.8367,146.29623,143.53612,135.22032,125.601,119.17358,118.34789,122.34837,127.88656,131.13206,129.85805,124.56968,118.05891,113.70263,113.52687,117.11708,121.95168,124.89822,123.96947,119.3577,113.21661,108.40331,106.94477,109.09238,113.39037,117.59652,119.83962,119.3718,116.61492,112.654,108.59743,105.17761,102.69661,101.16119,100.38587,99.988434,99.398659,98.033752,95.65435,92.684578,90.18605,89.342247,90.68119,93.521858,96.11837,96.548943,93.888222,88.905602,83.744698,80.647026,80.472794,81.975502,82.427414,79.317139,72.129082,63.035587,55.953671,54.412006,59.478874,69.004387,78.685638,84.31411,83.863403,78.174126,69.907227,61.565414,53.930737,45.950863,36.074593,24.013929,11.599464,2.0020211,-2.2423267,-1.0884786,2.6238415,4.659162,1.9186668,-5.5884228,-14.664116,-20.890484,-21.466702,-17.129068,-11.881054,-10.636466,-16.201229,-27.472792,-40.005165,-48.609001,-50.392265,-46.372715,-40.68972,-37.929523,-40.238953,-45.99683,-50.830132,-50.313107,-42.694843,-30.036646,-17.151953,-9.0652618,-8.5124626,-14.886683,-25.059605,-35.393452,-43.637821,-49.622051,-54.507542,-59.270428,-63.504013,-65.334137,-62.508476,-53.959534,-40.892715,-26.702621,-15.71356,-11.349859,-14.624786,-23.660524,-34.439392,-42.431694,-44.373352,-39.440258,-29.340755,-17.335541,-6.6508341,0.96746945,5.8709245,9.9991674,15.517602,23.346363,32.429585,40.227322,44.218914,43.576702,39.964172,36.862068,37.663944,43.58942,52.695602,60.719826,63.443031,59.296852,50.67181,43.028931,42.138031,50.886585,67.427437,85.750847,98.457092,100.28539,90.568359,73.368256,55.342815,42.557079,37.913094,40.389362,46.225174,51.169994,52.509716,49.913746,44.928757,39.67865,35.619061,32.967113,30.92931,28.395588,24.632313,19.634314,14.068982,8.9447622,5.1958456,3.3361819,3.2717879,4.3383412,5.5775647,6.1722589,5.8453135,4.967247,4.2305622,4.0249352,3.9058704,2.6155968,-1.1681039,-7.6693497,-15.159393,-20.134052,-18.729958,-8.810833,8.4122477,28.305902,44.607056,52.326141,50.26149,41.677147,32.644802,28.836912,32.497868,41.258678,49.486385,51.425278,44.391594,30.254234,14.424898,2.9653375,-0.54399484,3.3160837,10.405537,15.449056,14.871273,8.5260439,-0.49477768,-7.6980085,-9.5788393,-5.3071089,3.0450866,11.668278,16.850325,16.545561,11.021012,2.4344862,-6.30758,-12.834522,-16.198902,-17.06665,-17.209841,-18.563663,-22.254072,-28.009323,-34.220276,-38.643562,-39.46246,-36.236794,-30.306492,-24.452412,-21.9625,-25.505022,-36.268726,-53.642414,-75.449883,-98.535072,-119.47775,-135.29094,-144.05876,-145.45018,-140.95169,-133.5815,-126.97057,-123.99224,-125.49869,-129.8,-133.31827,-132.22939,-124.33665,-110.21834,-92.993797,-76.826958,-64.976349,-58.470802,-56.104671,-55.631863,-55.344208,-55.019794,-55.695538,-58.510109,-63.477184,-69.053856,-72.830208,-72.862328,-68.772522,-61.869366,-54.249321,-47.493416,-41.858795,-36.470509,-30.329039,-23.373062,-16.81245,-12.472714,-11.601013,-13.968099,-17.898296,-21.223633,-22.51178,-21.745798,-20.027428,-18.566822,-17.712559,-16.729807,-14.476471,-10.463729,-5.5077415,-1.4425925,-0.052832883,-1.9252682,-6.0145941,-10.224451,-12.627015,-12.520577,-10.669337,-8.6452417,-7.7984543,-8.5739317,-10.57013,-13.140141,-15.95205,-19.02009,-22.222376,-24.812817,-25.519772,-23.372097,-18.747402,-13.794303,-11.673661,-14.859249,-23.49325,-34.94239,-45.025982,-50.309795,-50.069565,-46.634335,-43.804794,-44.329201,-48.091103,-52.270916,-53.440739,-50.234245,-44.731785,-41.492306,-44.69632,-55.198364,-69.476448,-81.319946,-85.358147,-80.2733,-69.664268,-59.959557,-56.627483,-61.025455,-69.818405,-77.272369,-78.912376,-74.209389,-66.648933,-61.247913,-61.211636,-65.934235,-71.568214,-73.702087,-70.312805,-63.045319,-56.05056,-53.221359,-55.703014,-61.301136,-66.10643,-67.187668,-64.54216,-61.040527,-60.447044,-64.851501,-73.163239,-81.584953,-85.683899,-82.753372,-73.05101,-59.371445,-45.427956,-34.159592,-26.904499,-23.622383,-23.635532,-26.157709,-30.2614,-34.546288,-37.096432,-36.075684,-30.744633,-22.184519,-13.095871,-6.5799499,-4.5544376,-6.7617278,-11.009608,-14.506797,-15.438743,-13.793903,-10.961041,-8.4672422,-6.7892246,-5.08248,-2.0025768,3.0093694,8.940671,13.555811,14.720095,11.837214,6.4287276,1.4194071,-0.46756348,1.7666351,6.8686585,12.072814,14.610516,13.080374,7.9526229,1.0817499,-5.3200631,-9.5869532,-10.978714,-9.575613,-6.0089059,-1.3073548,3.1609597,5.883894,5.7020917,2.4639964,-2.6091723,-7.2664347,-9.2850876,-7.7185698,-3.5436428,0.81441897,2.9063859,1.7917395,-1.3202096,-3.8219309,-3.4395597,0.15455551,4.9482694,7.778059,6.408267,1.1750095,-4.9355407,-7.9414496,-5.2991567,2.3852646,11.477682,17.273384,16.649601,9.8507795,0.35410663,-7.0637474,-8.8943119,-4.6185832,3.3126719,11.056016,15.454694,15.419605,11.974199,7.2212591,3.0711453,0.52821636,-0.20759155,0.80868816,3.6568956,8.4217024,14.702641,21.276739,26.347038,28.359655,26.891846,22.980013,18.5963,15.545577,14.476972,14.645956,14.575331,13.155142,10.438041,7.5859003,6.0151615,6.3360257,7.8260303,8.8258915,7.8177071,4.4918199,0.08496175,-3.2463045,-3.6532664,-0.67790467,4.4540982,9.4823961,12.295269,11.95207,9.0046329,5.0268407,1.7144862,0.10162973,0.27771914,1.6383927,3.3891053,4.9511995,6.0752735,6.7046404,6.7925887,6.2471218,5.0427165,3.3701005,1.6769651,0.52149016,0.30318931,1.0332849,2.2732987,3.2987258,3.4080238,2.2439959,-0.0098271109,-2.6386487,-4.6165595,-4.9733095,-3.1779907,0.60424346,5.5143356,10.291112,13.752389,15.257698,14.916423,13.440632,11.725431,10.411626,9.6898775,9.4484844,9.6154423,10.399229,12.195457,15.176586,18.857117,22.020899,23.20101,21.514683,17.352386,12.416548,8.9513712,8.5423994,11.183253,15.221824,18.285292,18.664026,16.304548,12.77436,10.194134,9.8083839,11.115828,12.155103,10.785934,6.1531663,-0.62858355,-7.0448942,-10.680527,-10.695112,-8.3321829,-6.1201553,-6.2737474,-9.3067894,-13.747063,-17.11294,-17.523775,-14.902098,-11.01772,-8.3703222,-8.6368523,-11.666339,-15.621763,-18.125732,-17.660324,-14.36098,-9.7565584,-5.6787171,-3.0132866,-0.99275446,2.6504669,10.82541,25.963091,49.062054,79.130951,113.08975,146.16031,172.77979,188.02127,189.19638,177.0237,155.6823,131.39984,110.00831,94.578354,84.419891,76.14035,66.307365,54.232601,43.147366,38.855289,46.412872,66.663933,94.717728,121.48218,137.62589,137.90465,123.49859,101.11012,79.362976,64.583893,58.256599,57.374718,57.16032,54.278503,48.580288,42.496902,38.790539,38.362595,39.668907,40.092415,38.251854,35.55283,35.79459,42.927578,58.342094,79.415779,100.3191,114.69781,118.69721,112.63084,100.42066,87.292938,77.153854,71.113792,67.804314,64.964935,61.135544,56.378582,51.787102,48.340416,46.064445,44.079632,41.417423,37.89983,34.359184,32.011925,31.447594,32.029102,32.207932,30.601004,27.082733,23.062103,20.635689,21.074869,23.621696,25.451708,22.97514,13.806525,-1.7168479,-20.372763,-37.376068,-48.493378,-51.828693,-48.419594,-41.468018,-34.768639,-31.195375,-31.917881,-36.469662,-43.341572,-50.620335,-56.424957,-59.191093,-58.006012,-53.039738,-45.835522,-39.073795,-35.627579,-37.194611,-43.21719,-50.844204,-56.19669,-56.412617,-51.353359,-43.87117,-38.261269,-37.599255,-41.460728,-45.467194,-43.206795,-29.697248,-4.5745831,26.860857,55.541412,72.694397,74.015747,61.745857,43.483421,28.325863,22.391731,26.117191,34.753601,41.690659,42.669586,38.442951,34.358192,37.090954,50.41404,72.450874,96.044167,112.11948,114.2379,101.85571,80.531334,59.020645,44.875801,40.94334,44.56493,49.726788,50.784901,45.601795,36.398148,28.003422,24.691914,27.518017,33.692818,38.276035,37.130768,29.392471,18.048729,8.346035,4.9620109,9.5315685,19.843588,31.066561,38.252533,38.752594,33.308651,25.377106,19.166916,17.492319,20.524157,25.972921,30.481693,31.436172,28.277658,22.711771,17.792601,16.362347,19.615303,26.446177,33.876091,38.365295,37.42334,30.79533,20.670099,10.79942,4.8962398,5.0342188,10.778612,19.450161,27.378906,31.536837,30.764994,26.039274,19.724928,14.282495,11.130706,10.220977,10.453209,10.587667,10.080904,9.3779736,9.550395,11.562839,15.612541,20.918768,26.037004,29.509077,30.508902,29.199352,26.681124,24.569624,24.346649,26.678432,30.913364,34.981556,35.858776,30.571091,17.450111,-2.8913815,-27.407888,-51.539455,-70.908447,-83.038376,-88.216354,-89.010025,-88.683502,-89.40062,-91.25972,-92.708046,-92.051613,-89.019989,-85.309891,-83.642548,-85.889,-91.502625,-97.41127,-99.634087,-95.742149,-86.63842,-76.409416,-70.177284,-71.149673,-78.652367,-88.428009,-95.091019,-95.290863,-89.629593,-82.147232,-77.680191,-78.779816,-84.140053,-89.548492,-90.732719,-86.259277,-78.581779,-72.547684,-72.302559,-78.603981,-88.275696,-96.164207,-98.325272,-94.38987,-87.607384,-82.595963,-82.318962,-86.285072,-91.090645,-92.878227,-89.968819,-83.896004,-78.161751,-75.643524,-76.491165,-78.019516,-76.710907,-70.932053,-62.439419,-55.509377,-54.166695,-59.327038,-67.829262,-74.145432,-73.782043,-66.213486,-55.420113,-47.594315,-47.415062,-55.209648,-66.775597,-75.935577,-78.169846,-73.038681,-63.948078,-55.56744,-50.703751,-48.698685,-46.315353,-40.387703,-30.344667,-18.882318,-10.357864,-8.0494442,-12.159961,-19.890863,-27.461149,-32.598122,-35.746838,-39.16378,-44.589664,-51.231136,-55.613064,-53.587475,-43.26722,-26.891329,-10.258396,0.13145995,0.56042963,-7.9058318,-20.135187,-29.912413,-33.379105,-30.879135,-26.225904,-24.009275,-26.72122,-33.451172,-40.794556,-45.199879,-45.147427,-41.821556,-38.026279,-36.250645,-37.222919,-39.833809,-42.273666,-43.435158,-43.543995,-43.640598,-44.426941,-45.434689,-45.219536,-42.475899,-37.255817,-31.336781,-27.361614,-27.227322,-30.775906,-35.691902,-38.751514,-37.672268,-32.415592,-25.118931,-18.706644,-15.056345,-13.869993,-12.945227,-9.6605673,-2.756439,6.6692038,15.536395,20.299833,18.738144,11.049545,-0.27967015,-11.674241,-20.056902,-24.036911,-24.207396,-22.553852,-21.364231,-22.179792,-25.204729,-29.342216,-32.763538,-33.73563,-31.380053,-26.061056,-19.258347,-12.971052,-8.9118013,-7.8494277,-9.4034395,-12.36569,-15.350809,-17.407938,-18.276033,-18.206043,-17.552675,-16.469765,-14.926404,-13.00091,-11.159057,-10.226699,-10.975118,-13.569794,-17.279869,-20.72929,-22.607445,-22.420359,-20.786495,-19.052591,-18.454098,-19.365141,-21.136431,-22.621658,-23.02314,-22.43903,-21.723257,-21.740479,-22.579416,-23.335293,-22.698095,-19.976936,-15.830159,-12.094521,-10.706815,-12.371926,-15.885014,-18.668064,-18.299726,-14.117146,-7.8397875,-2.727761,-1.7093183,-5.5926118,-12.491701,-18.854017,-21.499941,-19.438313,-14.351463,-9.4760065,-7.5738926,-9.2364683,-12.513462,-14.026317,-10.832248,-1.9246716,11.423734,26.494015,40.463253,51.395817,58.429333,61.324841,59.971455,54.365765,45.089756,33.833714,23.365484,16.704306,15.837333,20.716026,29.186865,37.980034,44.228455,46.681305,45.962013,43.829292,41.979767,41.149834,41.005917,40.754169,39.954689,38.954311,38.682293,40.008038,43.146492,47.499847,51.997803,55.634632,57.823795,58.380028,57.254501,54.351383,49.643757,43.538589,37.15694,32.196537,30.292757,32.175861,37.135456,43.185589,47.936691,49.740452,48.489567,45.619987,43.310181,43.31356,46.043995,50.375446,54.218369,55.542442,53.331154,48.039333,41.399612,35.715881,32.970928,34.087902,38.60947,44.890148,50.733795,54.263077,54.695831,52.713364,50.235249,49.660824,52.892849,60.587093,71.96582,85.242744,98.398949,109.87307,118.84618,125.09491,128.6468,129.59721,128.2085,125.1544,121.57674,118.73518,117.34238,117.02348,116.36375,113.6853,108.17887,100.66177,93.36837,88.736725,87.855209,89.59256,91.120598,89.714149,84.824394,79.087646,77.402748,84.329002,101.12543,124.142,145.66484,157.02287,152.48643,131.98555,101.25974,69.361374,44.782726,32.099655,30.641563,35.577953,40.624638,40.935738,34.914558,24.392651,13.453832,6.6460743,7.3234806,16.563019,32.796909,52.147217,69.410454,79.566078,79.461441,69.084694,51.78212,33.11792,18.679195,11.768858,12.109139,16.249331,19.504431,18.413689,12.402364,3.7883198,-3.7770572,-7.4623842,-6.7260718,-3.307863,0.12804852,1.7554858,1.6231382,1.360144,2.8250501,6.6406641,11.594729,15.286503,15.589197,11.971489,5.8430734,-0.27483961,-4.2144852,-5.3444872,-4.7666554,-4.4620466,-5.9440517,-9.233882,-12.717938,-13.891558,-10.525825,-1.6484978,12.049494,28.399328,44.29932,56.379509,61.685898,58.393574,46.4818,28.113571,7.364974,-10.884192,-22.661774,-26.513731,-24.170259,-19.773531,-17.896494,-21.285669,-29.505594,-39.239429,-46.107616,-47.027103,-41.806339,-33.126945,-24.974758,-20.473642,-20.370852,-22.986595,-25.5397,-25.957176,-24.056503,-21.436695,-20.264936,-21.80216,-25.615328,-29.921875,-32.76664,-33.217995,-31.822237,-30.090023,-29.435881,-30.328138,-32.200027,-34.11586,-35.651451,-37.309063,-40.139236,-44.816704,-50.849907,-56.537647,-59.807392,-59.457619,-56.018879,-51.6325,-48.955933,-49.717796,-53.771027,-59.213261,-63.4856,-64.796127,-63.027523,-59.640194,-56.705181,-55.698708,-56.77594,-58.885616,-60.55101,-60.755882,-59.390373,-57.062862,-54.519867,-52.134274,-49.81139,-47.322792,-44.756187,-42.70649,-42.035915,-43.353645,-46.575378,-50.866505,-55.012112,-57.972855,-59.290188,-59.121246,-57.970146,-56.339207,-54.558731,-52.830841,-51.343433,-50.230476,-49.315964,-47.805763,-44.229111,-36.862366,-24.548368,-7.5408726,12.123938,31.021482,45.409657,52.501995,51.365009,43.05389,30.006502,15.068976,0.63274699,-11.795167,-21.570425,-28.65513,-33.383217,-36.359016,-38.422741,-40.533829,-43.502571,-47.653763,-52.62801,-57.467808,-60.998135,-62.31881,-61.17189,-58.007469,-53.757473,-49.45562,-45.887981,-43.40181,-41.885963,-40.891277,-39.831787,-38.220352,-35.88686,-33.079735,-30.365547,-28.311935,-27.100058,-26.31959,-25.161726,-22.996048,-19.999966,-17.350504,-16.65489,-18.744951,-22.499701,-24.544216,-20.342548,-6.4161196,17.367115,46.775272,74.298004,92.067101,95.268845,84.285172,64.394669,43.154003,26.862785,18.001978,14.938046,13.83765,11.464168,7.1022701,2.5167103,0.17359763,1.0631794,3.6737826,4.8437691,1.9219339,-5.236692,-13.843057,-19.688314,-19.689135,-13.852573,-5.3751001,1.2166536,2.7347572,-0.85412782,-6.5862198,-10.496988,-10.173493,-6.2608452,-2.0150435,-1.2263399,-5.8414664,-14.739044,-24.352539,-30.684872,-31.455311,-27.131058,-20.353148,-14.246241,-10.701181,-9.6012125,-9.305068,-7.9264207,-4.5690165,0.19196311,4.7555895,7.5332375,7.9794908,7.1104765,7.306993,11.48991,21.95437,39.242935,61.45496,84.351433,102.41144,110.65147,106.56413,91.330994,69.584747,47.650211,30.972481,21.960745,19.349472,19.397554,18.242355,14.050197,7.7701859,2.1421123,-0.30904949,1.0255059,4.5045667,7.403388,7.7275491,5.4242821,2.2139122,0.22987451,0.47336099,2.1836872,3.5305552,3.076304,0.90102214,-1.4588956,-2.2188683,-0.78861284,1.6637487,3.0124369,1.795504,-1.5606482,-4.924396,-6.062418,-4.5827756,-2.7592647,-4.4408937,-12.583811,-27.005196,-43.976006,-58.145657,-65.702042,-66.727646,-65.099846,-65.858627,-71.67337,-80.789604,-87.958092,-87.935196,-79.332138,-66.193512,-56.006657,-55.112797,-64.293922,-77.404968,-84.17791,-75.800392,-50.086399,-13.205278,23.113661,47.343967,53.665508,44.231865,27.192173,11.919757,4.3155732,4.7228055,9.1891956,12.800923,12.786305,9.6014767,5.7281952,3.4062498,3.0036583,3.0438585,1.623992,-1.9837641,-6.7514267,-10.687493,-12.329597,-11.785075,-10.576273,-10.441269,-12.016567,-14.374118,-15.74788,-14.89759,-12.114688,-9.1244116,-7.9439802,-9.4906168,-12.910982,-16.098927,-17.040907,-15.082846,-11.281281,-7.6449347,-5.8209133,-6.1183872,-7.4820318,-8.3673029,-7.8603535,-6.2763281,-4.8699589,-4.9096885,-6.7755308,-9.678606,-12.137457,-12.85613,-11.428014,-8.4701738,-5.2009368,-2.7963917,-1.9199662,-2.5971241,-4.358572,-6.453311,-8.022027,-8.2737446,-6.7561331,-3.6798117,-0.080376677,2.435936,2.4073303,-0.61600089,-5.5917034,-10.314673,-12.51647,-11.159762,-7.1276441,-2.7933753,-0.63724518,-1.7110502,-4.9238086,-7.6528559,-7.3606133,-3.2257378,3.2447617,9.0467768,11.456797,9.6554079,5.1866336,0.98576802,-0.38380155,1.8340868,6.3527808,10.871177,13.619832,14.380415,14.361338,15.100345,17.233822,20.006025,21.834867,21.487528,18.989283,15.593437,12.832685,11.352886,10.40635,8.4357681,4.3966503,-1.1107566,-5.7694616,-6.7320633,-2.4152269,6.2255898,15.81407,22.122877,22.257765,16.216267,6.9285631,-1.2523992,-4.7551074,-2.4937823,3.8044386,10.713291,14.965256,15.021092,11.597379,7.02037,3.8901994,3.8104692,6.7802525,11.424137,15.806808,18.350048,18.420649,16.370993,13.100793,9.4046555,5.4537263,0.68438119,-5.8229551,-14.64711,-25.381962,-36.459229,-45.642349,-51.038624,-52.113625,-50.09877,-47.440163,-46.498283,-48.185089,-51.391815,-53.62722,-52.594238,-47.774109,-40.997349,-35.538464,-34.192005,-37.497341,-43.292706,-47.995544,-48.902401,-46.046379,-42.304806,-41.47353,-45.368351,-51.754765,-54.61322,-46.930958,-24.657919,10.363352,50.279408,84.211288,102.92013,102.79704,87.185204,64.512764,44.374096,33.661739,34.541542,44.858345,60.189816,76.07164,89.230209,97.604828,99.847839,95.188499,84.021614,68.742538,53.885983,44.934776,46.042587,57.819317,76.520996,95.35067,107.37444,108.58849,99.531532,84.627426,69.727066,59.266796,54.573353,54.049225,54.826916,54.69342,53.111031,50.90752,49.12693,48.02647,46.952415,45.10405,42.485661,40.215405,39.842323,42.101261,46.035858,49.256237,49.341972,45.581615,39.878746,36.060535,37.80423,46.283298,58.952423,70.297585,74.298409,67.344727,50.068928,27.11795,5.0036721,-10.813818,-18.124353,-18.424784,-15.586244,-13.60498,-14.665508,-18.432583,-22.734528,-25.078276,-24.101606,-20.248793,-15.452326,-12.122626,-12.007604,-15.448276,-21.288992,-27.395267,-31.524975,-32.200592,-29.275299,-23.984484,-18.463436,-14.893796,-14.628754,-17.682703,-22.841162,-28.350029,-32.823273,-35.867088,-38.057961,-40.27916,-42.851292,-45.040661,-45.345703,-42.468208,-36.398602,-28.885408,-22.867493,-21.04674,-24.358805,-31.237118,-38.179291,-41.412102,-38.795128,-30.946457,-20.971373,-12.940298,-9.9392109,-12.700297,-19.469368,-27.066471,-32.482346,-34.155125,-32.361671,-28.699997,-25.100119,-22.954275,-22.729479,-24.083391,-26.232834,-28.295429,-29.48737,-29.227888,-27.263094,-23.823935,-19.698,-16.074083,-14.125,-14.496864,-16.981878,-20.589817,-24.00547,-26.193695,-26.809841,-26.216511,-25.135656,-24.197342,-23.657412,-23.420372,-23.279245,-23.156736,-23.179443,-23.568211,-24.472166,-25.886269,-27.687647,-29.70694,-31.72212,-33.377235,-34.154427,-33.558128,-31.50643,-28.704575,-26.628067,-26.904076,-30.251627,-35.554176,-39.742565,-38.836842,-29.815048,-12.421068,10.162903,32.303398,48.235603,54.585327,51.790531,43.676945,35.436333,31.121567,31.976261,36.38203,41.247311,43.884472,43.283726,40.194607,36.233147,32.782852,30.421085,29.12067,28.839561,29.888971,32.711128,37.228767,42.343884,46.10648,46.593769,42.994869,36.179501,28.315123,21.744535,17.827185,16.473501,16.631189,17.292891,18.257414,20.062811,23.156021,26.976519,29.75691,29.366442,24.752802,17.008913,9.2177553,4.9829903,6.428401,12.887117,21.135607,27.108517,28.095865,24.11466,17.667259,12.103543,9.6497955,10.328208,12.341165,13.54169,12.929004,11.186899,9.9829082,10.616595,13.014165,15.769876,17.175594,16.462614,14.364133,12.579663,12.520389,14.212422,16.134394,16.119888,12.733733,6.2277737,-1.5286664,-8.0544977,-11.521154,-11.499566,-8.8264809,-4.8434958,-0.63529307,3.2246253,6.3883104,8.3272486,8.2984915,5.8310814,1.3855273,-3.4152288,-6.3437304,-5.7228022,-1.4806969,4.6178212,9.8239155,11.881009,10.234602,6.219985,2.1197953,-0.28541565,-0.73070908,-0.41848621,-0.9959988,-3.3046486,-6.7716732,-9.8459187,-11.137837,-10.443073,-8.9135418,-8.2482653,-9.4644976,-12.110941,-14.476323,-14.672879,-11.874062,-6.8899846,-1.7178015,1.6164746,2.1659651,0.43943304,-2.102129,-4.0065212,-4.58248,-4.013772,-2.9122403,-1.7732633,-0.77791029,-0.032586608,0.085241891,-1.0855267,-4.0155454,-8.3359184,-12.588955,-14.769716,-13.483296,-9.0068169,-3.4627359,0.21836661,0.057076752,-3.5454996,-7.6880622,-8.3985338,-2.8856955,8.6858091,22.982809,35.043674,40.724846,38.67205,30.741896,20.730949,12.254472,7.0326295,4.4896116,2.7016945,-0.07655704,-4.3119354,-9.1192474,-13.086331,-15.313105,-15.952285,-15.981177,-16.491892,-18.06308,-20.607626,-23.659979,-26.729885,-29.336161,-30.700701,-29.446901,-23.764799,-12.21918,5.1464815,26.080273,46.380257,61.215431,66.969795,62.692734,50.438072,34.330502,18.876694,7.3626866,1.0307707,-0.76660943,0.24297237,2.1824419,3.6483901,3.9279451,2.9536052,1.184101,-0.53906214,-1.2329426,-0.17399628,2.6634028,6.393919,9.4782591,10.440289,8.6997652,5.0225015,1.2465941,-0.63486946,0.45749134,4.1001711,8.611599,11.98462,12.937966,11.461982,8.576519,5.5295734,3.0167606,0.92125666,-1.3066517,-3.9867911,-6.8011312,-8.968564,-9.8801365,-9.7104778,-9.5020208,-10.600715,-13.778951,-18.652977,-23.817974,-27.645876,-29.220396,-28.776323,-27.351183,-25.90992,-24.60512,-22.752815,-19.596119,-15.318535,-11.495452,-10.468486,-13.846678,-21.00853,-28.655079,-31.939159,-26.769218,-12.1014,9.1067219,30.937479,47.125309,53.905045,51.60083,44.134686,36.779819,33.439247,34.919514,39.064789,42.498753,42.841896,40.078495,36.327065,34.287449,35.408939,38.956375,42.536034,43.72084,41.710152,37.952805,35.298042,36.163116,40.839825,46.999126,50.772083,48.832031,40.302784,27.390703,14.363398,5.4356847,2.7303202,5.419754,10.442471,14.303001,14.880026,12.248901,8.1712599,4.722455,2.988065,2.6431568,2.5940442,2.1457567,1.8320944,3.2769709,8.1068239,16.592714,26.914015,35.58799,38.927917,34.76186,23.486103,7.9031973,-8.0317421,-20.859999,-28.832699,-32.188641,-32.542976,-31.883522,-31.739342,-32.839684,-35.216141,-38.476982,-42.01115,-45.081432,-46.930069,-47.01416,-45.317387,-42.524727,-39.849251,-38.49881,-39.050362,-41.122627,-43.600861,-45.308613,-45.721767,-45.250271,-44.879265,-45.403385,-46.770885,-48.013657,-47.860821,-45.651241,-41.946175,-38.396767,-36.904938,-38.581848,-43.144379,-49.117313,-54.677361,-58.589558,-60.644238,-61.385796,-61.409889,-60.801254,-59.132809,-56.028294,-51.826778,-47.797134,-45.640091,-46.535667,-50.358345,-55.629631,-60.326309,-63.092098,-64.111053,-65.075905,-68.232452,-75.03582,-85.206978,-96.717346,-106.69326,-112.72629,-113.89893,-111.0696,-106.3848,-102.37476,-101.06223,-103.39876,-109.08961,-116.74632,-124.2911,-129.57347,-131.12044,-128.78525,-123.97346,-119.1783,-116.89445,-118.37983,-122.95071,-128.30717,-131.81804,-132.06918,-129.7308,-127.11414,-126.58121,-128.74146,-131.5856,-131.26114,-124.16768,-109.23077,-88.973732,-68.671501,-53.964817,-48.209068,-51.025715,-58.783222,-66.652992,-71.003349,-70.822533,-67.551025,-63.676121,-61.127094,-60.431538,-60.966324,-61.847073,-62.664028,-63.512543,-64.41288,-64.726265,-63.188843,-58.700024,-51.353268,-42.914829,-36.229954,-33.752171,-36.013954,-41.007401,-44.92709,-43.925156,-35.913418,-21.422445,-3.1199458,15.620648,32.21674,45.621334,56.077095,64.279099,70.630272,75.086098,77.548401,78.368271,78.461777,78.895912,80.244858,82.22464,83.919098,84.473724,83.751884,82.47036,81.690819,82.014839,83.080704,83.758873,82.956062,80.481735,77.355011,75.288635,75.654419,78.610916,82.976631,86.964195,89.282196,89.876816,89.807198,90.353996,91.980019,93.893074,94.538452,92.732391,88.664223,84.042068,81.211777,81.734512,85.322403,89.83242,92.391541,91.016487,85.775909,78.800224,73.130058,71.078346,73.062233,77.53363,81.999352,84.469925,84.48085,83.123878,82.150589,82.756996,84.805115,86.93277,87.443909,85.403297,81.269035,76.672791,73.509094,72.87632,74.496292,76.954605,78.587631,78.490288,77.030945,75.554703,75.461815,77.204277,79.85305,81.5476,80.629761,76.837753,71.814896,68.554222,69.96019,77.261642,89.144753,102.1357,112.10744,116.15411,113.84627,107.2205,99.523514,93.449944,89.852699,87.616928,84.691689,79.601807,72.489044,65.07737,59.612022,57.476353,58.354477,60.457703,61.643364,60.700817,57.987965,55.03756,53.414253,53.587448,54.558422,54.481884,51.879295,46.653072,40.246307,34.837807,32.081173,32.181648,33.880417,35.340816,35.358521,34.123707,33.061226,33.85371,37.265938,42.500805,47.489468,49.949326,48.593933,43.812138,37.460003,31.923273,28.986567,29.099874,31.358244,34.09861,35.72287,35.313427,32.806072,28.76705,24.003464,19.256617,15.091458,11.931976,10.117404,9.869998,11.175282,13.663196,16.600458,19.05381,20.186813,19.569923,17.369951,14.314189,11.423244,9.6038847,9.2603245,10.106351,11.284334,11.771116,10.903857,8.7706203,6.2463455,4.6059604,4.8739862,7.224834,10.76825,13.875854,14.925182,13.108331,8.8925905,3.8871417,0.1668202,-0.61652857,2.0922873,7.5878801,14.27895,20.361443,24.448517,25.900711,24.799377,21.704357,17.387957,12.677439,8.3820353,5.2185798,3.6479719,3.6628151,4.6542783,5.5196714,5.0353303,2.374053,-2.4835398,-8.6766443,-14.80026,-19.506001,-22.073074,-22.652826,-22.06628,-21.258247,-20.708988,-20.131025,-18.625002,-15.24219,-9.6598158,-2.6074178,4.2119703,8.7174978,9.3104954,5.5937781,-1.4027288,-9.6229687,-16.827881,-21.49316,-23.334158,-23.220892,-22.568483,-22.538517,-23.481232,-24.889158,-25.840725,-25.637291,-24.24341,-22.285542,-20.630548,-19.840563,-19.850849,-20.071508,-19.837221,-18.892527,-17.588213,-16.647995,-16.650593,-17.576988,-18.73041,-19.116467,-18.062548,-15.690286,-12.926449,-11.01455,-10.797202,-12.195886,-14.202612,-15.409002,-14.776874,-12.210643,-8.6168928,-5.4175529,-3.814286,-4.2119865,-6.117733,-8.5338936,-10.585668,-12.000054,-13.159101,-14.714287,-17.025492,-19.782934,-22.079113,-22.905981,-21.801107,-19.227774,-16.421043,-14.721686,-14.750998,-15.930714,-16.711683,-15.492577,-11.785443,-6.9457121,-3.9324791,-6.04774,-15.195369,-30.572828,-48.603725,-64.31781,-73.610641,-75.238197,-71.457222,-66.858734,-65.929298,-70.60598,-79.190208,-87.254181,-90.121521,-85.562714,-75.206589,-63.824856,-56.853661,-57.491291,-64.978699,-75.015701,-82.078239,-82.357552,-75.730576,-65.735275,-57.655743,-55.797546,-61.427608,-72.361115,-84.243179,-92.715004,-95.286324,-92.092476,-85.377663,-78.218117,-73.225174,-71.774376,-73.893944,-78.584442,-84.271576,-89.209503,-91.84304,-91.183571,-87.158676,-80.754021,-73.794739,-68.324875,-65.829529,-66.65892,-69.944824,-74.043266,-77.253647,-78.441124,-77.29599,-74.217239,-70.006508,-65.601669,-61.9338,-59.837677,-59.884117,-62.11208,-65.822838,-69.657791,-72.065849,-71.987206,-69.383873,-65.251953,-61.053497,-57.881123,-55.878017,-54.313278,-52.286114,-49.598625,-47.175907,-46.669544,-49.419075,-55.398464,-62.853119,-68.950325,-71.148827,-68.525711,-62.309372,-55.307156,-50.55938,-49.961948,-53.553772,-59.734146,-66.144028,-70.659958,-72.032722,-70.057404,-65.434715,-59.570091,-54.330341,-51.616806,-52.606949,-56.829025,-61.582699,-62.316029,-54.205765,-34.476238,-4.3765163,30.371975,61.213249,79.980492,82.272758,69.332726,47.449165,25.157209,9.6185856,3.9522612,6.6970305,13.427304,19.42662,21.931467,20.883503,18.107327,15.707567,14.777266,15.10936,15.859426,16.496386,17.296444,19.049881,22.258036,26.455772,30.198681,31.776133,30.218369,25.948818,20.664478,16.499479,14.956932,16.215836,19.157558,22.036146,23.378183,22.620909,20.222912,17.293465,15.02146,14.214052,15.106328,17.427317,20.583839,23.854225,26.542536,28.116364,28.339504,27.358009,25.667732,23.92543,22.662613,22.035345,21.764385,21.323032,20.293934,18.696457,17.10128,16.432278,17.536905,20.721392,25.478991,30.559364,34.36684,35.544453,33.505978,28.709324,22.553772,16.920835,13.522793,13.288737,16.02916,20.512444,24.948271,27.685682,27.860664,25.710182,22.420059,19.566389,18.396452,19.265766,21.491911,23.682858,24.390879,22.784859,19.031048,14.218377,9.8705559,7.2971931,7.0904703,8.9958715,12.18274,15.731436,19.049706,21.992336,24.644724,26.962517,28.549673,28.788662,27.290342,24.382504,21.268669,19.624447,20.751589,24.72654,30.087992,34.365883,35.28685,32.053284,25.958427,19.917496,17.087347,19.283842,26.070513,35.026131,43.03928,47.872387,49.113216,48.014931,46.421162,45.523396,45.25201,44.631878,42.774708,39.742336,36.636948,34.842445,34.964809,36.283813,37.183529,36.343315,33.880554,31.583225,31.942135,36.501862,44.57975,53.255638,58.770397,58.564678,52.742462,44.051071,36.373528,32.628841,33.319595,36.543083,39.339432,39.470425,36.531582,31.831327,27.308039,24.335405,23.2129,23.536764,24.977659,27.724953,32.189453,38.216366,44.523678,48.983845,49.751431,46.54808,41.16925,36.712769,35.880772,39.377552,45.453136,50.932175,53.10191,51.257202,46.912746,42.584446,40.006657,39.014599,37.853718,34.670712,29.105179,22.815025,18.506281,18.095493,21.266403,25.461248,27.37528,25.000828,18.858446,11.599088,6.2460661,4.2746606,4.8325977,5.6231112,4.8325882,2.760258,2.000998,6.0018706,16.903097,34.048153,54.093216,72.595703,86.034027,93.027023,94.156868,90.794975,83.945839,73.990166,61.397331,47.671928,35.566277,28.125452,27.046152,31.461906,38.101494,42.908878,43.207951,39.087517,33.129795,28.67388,27.739771,29.938152,33.000484,34.477627,33.415325,30.871769,29.014601,29.494358,32.267441,35.664188,37.586205,36.932076,34.227169,31.060289,28.818888,27.701015,26.752529,24.863464,21.913525,19.118584,18.235691,20.176756,24.112761,27.856236,29.395046,28.52426,27.31214,28.840816,34.88044,44.02261,51.681564,52.266579,42.377754,23.093174,-0.17248586,-20.326952,-32.290638,-35.549305,-34.03429,-33.431,-37.573475,-46.142139,-55.037643,-59.151169,-55.765091,-46.471134,-36.440716,-31.521503,-34.92905,-45.489902,-58.397148,-67.919548,-70.414482,-65.949196,-57.774124,-50.183716,-46.164738,-46.152393,-48.41502,-50.555859,-51.061035,-49.968342,-48.413784,-47.553391,-47.656368,-47.953556,-47.24612,-44.794952,-40.87685,-36.674908,-33.621262,-32.635403,-33.723236,-36.124744,-38.853321,-41.241821,-43.167953,-44.855247,-46.441841,-47.648354,-47.806747,-46.286522,-43.071594,-39.115932,-36.174232,-36.074326,-39.743073,-46.495747,-54.056534,-59.439812,-60.34919,-56.407505,-49.526512,-43.101162,-40.369968,-42.749783,-49.088459,-56.27837,-60.962875,-61.393265,-58.380669,-54.763149,-53.666523,-56.564346,-62.275024,-67.509392,-68.672806,-63.887428,-54.081959,-42.554424,-33.311588,-29.159292,-30.598003,-36.007343,-42.835068,-48.958904,-53.448456,-56.450794,-58.541866,-60.153912,-61.489052,-62.838409,-64.852745,-68.317879,-73.436333,-79.085442,-82.71637,-81.232231,-72.538872,-56.937855,-37.473156,-18.885326,-5.6170111,0.10497576,-0.89542484,-5.4084439,-9.5757637,-10.73397,-8.4053669,-4.0515113,0.09345445,2.3301482,2.2351935,0.56999862,-1.384449,-2.5487592,-2.4109552,-0.96746427,1.5380441,4.7903876,8.3823776,11.717609,14.046739,14.742449,13.682973,11.472274,9.2877655,8.3689013,9.4101343,12.206741,15.753215,18.732265,20.106237,19.493269,17.178646,13.834888,10.186192,6.8068185,4.112689,2.4322801,2.0172946,2.9238486,4.851346,7.0858941,8.6655645,8.7358313,6.9401817,3.6452997,-0.12727724,-3.0427244,-3.9353096,-2.2321982,1.8283621,7.2653613,12.677646,16.716284,18.547745,18.123821,16.148251,13.732265,11.889547,11.126807,11.342996,12.098544,13.065292,14.342144,16.373981,19.480858,23.306911,26.629185,27.793081,25.640446,20.399151,13.9238,8.9813929,7.8679066,11.111707,17.071426,22.765604,25.545244,24.664135,21.810137,20.23345,22.941889,30.995213,42.882767,55.304893,64.867058,69.653343,69.798004,66.837784,62.383446,57.049179,50.318169,41.372383,30.248911,18.47274,8.6796827,3.3986518,3.712986,8.6036787,15.365721,20.865999,22.961823,21.360247,17.553658,13.963418,12.76422,14.924497,19.809591,25.429152,29.193317,28.924925,23.806177,14.914915,5.0638094,-2.1462536,-3.7977467,0.94654614,10.234092,20.139072,26.353783,26.183386,19.826241,10.227107,1.5498451,-2.914067,-2.2621868,1.867457,6.5084472,9.145195,9.0020399,7.1564479,5.562727,5.7118583,7.7791152,10.695639,12.919589,13.297177,11.460557,7.6752157,2.469197,-3.5268288,-9.4127827,-13.82105,-15.133141,-12.262855,-5.6193781,2.484266,8.5204201,9.4010744,4.2306037,-4.9645782,-14.123043,-19.280293,-18.708153,-13.757494,-7.8624563,-4.3363724,-4.3802695,-6.5730515,-8.1159639,-6.9206681,-3.0644083,1.3918967,4.0492716,4.046205,2.7372184,2.6132081,5.200016,9.5111952,12.331256,10.349025,2.769871,-7.4656119,-14.93569,-14.901285,-6.4354653,6.5916319,17.493801,20.639435,14.824939,3.9964514,-5.2043262,-7.5548396,-2.4191513,6.03374,11.681653,10.492722,3.1396539,-5.4940038,-9.549202,-6.0186601,3.3410614,13.227088,18.297836,16.639091,10.924438,6.5487289,7.9903526,15.786354,26.062296,32.880627,31.874958,22.882032,10.001504,-0.83221078,-5.1625094,-2.2035959,5.2344632,12.760302,16.913427,16.646749,13.132344,8.3922834,3.899142,0.071520664,-3.2393181,-5.9179792,-7.2340741,-6.2988582,-2.9401124,1.7683902,5.8631444,7.5909114,6.5448303,4.0333099,2.3849165,3.5966265,8.1612196,14.779456,21.074244,24.819904,24.941076,21.789438,16.710863,11.312737,6.8924394,4.2261252,3.5972128,4.8444591,7.3343639,9.9831572,11.513625,10.949993,8.1073008,3.7218328,-0.92924827,-4.693769,-7.0273018,-7.9213142,-7.3443594,-4.7276444,0.91241109,10.030748,21.335484,31.260248,34.889084,28.224646,10.68499,-13.72252,-37.558651,-53.170101,-56.381557,-48.629639,-36.245953,-27.183571,-26.945595,-35.945633,-49.695789,-61.563339,-66.41906,-63.098274,-54.449978,-45.254333,-39.469517,-38.461391,-41.042564,-44.922073,-48.358795,-50.922104,-53.062904,-55.089912,-56.507141,-56.257797,-53.662838,-49.259731,-44.813942,-42.399536,-43.146523,-46.529377,-50.697929,-53.627262,-54.312592,-53.217628,-51.745781,-51.177322,-51.850021,-53.127319,-54.068398,-54.227703,-53.927742,-53.824268,-54.137997,-54.22686,-52.898746,-49.310917,-43.793228,-37.948151,-33.857193,-32.881611,-34.854744,-38.225346,-41.06419,-42.249855,-42.039406,-41.673878,-42.354889,-44.367931,-46.973904,-49.11359,-50.336189,-51.191116,-52.730431,-55.463322,-58.56501,-60.048859,-57.931423,-51.683338,-42.966412,-35.059792,-31.205015,-32.860874,-38.942829,-46.531487,-52.601028,-55.673409,-56.374115,-56.596405,-57.870094,-60.03056,-61.050583,-58.116646,-49.273849,-34.62825,-16.44492,1.8185463,16.9114,26.850815,31.229237,30.864973,27.231098,22.035412,17.024935,13.81598,13.554996,16.454636,21.514727,26.758415,30.027737,29.992006,26.799347,21.966923,17.552668,15.096398,14.954023,16.370499,18.158651,19.470093,20.16494,20.612492,21.186335,21.904278,22.489412,22.758526,22.956753,23.691721,25.457855,28.121925,30.829741,32.560482,33.037384,33.399384,36.071312,43.738518,57.894691,77.744987,100.09033,120.28817,133.8363,137.84477,131.82631,117.62322,98.70166,79.168594,62.782169,52.105652,47.873627,48.760254,51.768867,53.319553,50.75222,43.592346,33.875301,25.213873,20.976999,22.536283,28.566156,35.825474,40.964725,42.269463,40.302578,37.118435,34.656174,33.432899,32.414825,30.095181,25.939499,21.088314,17.742424,17.617022,20.58143,24.527908,26.691328,25.567455,22.08869,19.128748,19.549269,24.050909,30.345276,34.358318,32.814079,25.55579,16.006969,9.3294029,9.3339005,16.076307,25.708181,32.755772,33.424747,27.873096,20.005396,14.928868,15.696049,21.400141,27.814016,30.133305,26.052582,17.22591,8.2246113,3.7036901,5.5931687,12.056458,18.788216,21.746212,19.567408,14.197173,9.4597063,8.5744667,12.212328,18.250229,23.243893,24.597052,22.050888,17.643616,14.290063,13.941678,16.452303,19.754963,21.130407,18.762217,12.705457,4.8291783,-2.1075466,-5.685936,-4.7671514,0.19434746,7.4619384,14.712675,19.823679,21.508993,19.653612,15.275139,10.119037,6.02598,4.2950597,5.314477,8.5996017,13.181829,18.093519,22.660683,26.472082,29.135761,30.106163,28.807247,25.038639,19.393528,13.33315,8.7458792,7.1606321,9.0404978,13.578538,19.124916,23.987061,27.118753,28.322828,27.933401,26.306498,23.544674,19.666689,15.048232,10.710335,8.0953493,8.3529634,11.553526,16.397081,20.726353,22.639959,21.571255,18.654232,16.098186,15.901737,18.656977,23.170336,27.132336,28.444546,26.409868,22.103855,17.727961,15.365992,15.869087,18.48764,21.382778,22.654444,21.279478,17.479229,12.426686,7.5732746,4.0171089,2.2232754,2.1220679,3.3942442,5.7043729,8.7521696,12.186049,15.521777,18.179342,19.644926,19.661734,18.332066,16.065798,13.41258,10.865783,8.7452469,7.1950607,6.2735596,6.0547471,6.6539721,8.1330538,10.313885,12.618368,14.079886,13.630605,10.613459,5.3046947,-0.88733095,-5.7829399,-7.3290181,-4.6637392,1.2352334,7.7799273,11.921445,11.703031,7.3747711,1.3715878,-2.9590461,-3.236887,0.52608275,5.8428106,9.1473618,7.9144206,2.2632909,-4.9424644,-9.6162672,-8.7314749,-2.0321319,7.8259993,16.758266,21.441572,20.911852,16.691992,11.528629,7.6527095,5.6916237,4.8183937,3.8456576,2.3498359,0.98259705,0.79550314,2.1700044,4.262404,5.4755483,4.673707,2.2227197,-0.030435713,-0.0051071839,2.8915119,6.7875648,7.9600906,2.8724196,-9.5423746,-26.816267,-43.907967,-55.757122,-59.963383,-57.991379,-54.155941,-53.009937,-56.699356,-63.868248,-70.703941,-73.395874,-70.459106,-63.542469,-56.324814,-52.309555,-52.909534,-56.937332,-61.641621,-64.480659,-64.476997,-62.395973,-59.846901,-58.077457,-57.308487,-56.971958,-56.515701,-56.059254,-56.365318,-58.142921,-61.237843,-64.371346,-65.717506,-64.013878,-59.484791,-53.949642,-49.972599,-49.509964,-52.825508,-58.292393,-63.185074,-65.019958,-62.740734,-57.167999,-50.563934,-45.586975,-44.174171,-46.824936,-52.533646,-59.311424,-65.018959,-68.164078,-68.365822,-66.349457,-63.505169,-61.235481,-60.378651,-60.966133,-62.391026,-63.848614,-64.787949,-65.107918,-65.038589,-64.848473,-64.634819,-64.342659,-63.986004,-63.824184,-64.292389,-65.678673,-67.777565,-69.838654,-70.94342,-70.609436,-69.193108,-67.72496,-67.210472,-67.854271,-68.802032,-68.703903,-66.789986,-63.697678,-61.336628,-61.703445,-65.355049,-70.651787,-74.511574,-74.395638,-70.271812,-65.059242,-62.884838,-65.956985,-72.023109,-74.362503,-64.913635,-39.111012,0.33677149,43.263363,76.097878,88.287804,77.647369,51.567001,23.263668,5.0778823,2.5181248,12.293702,25.226614,32.087337,28.826256,18.242718,7.4359426,2.9571462,6.8000531,15.597586,23.208347,24.762291,19.492491,10.714408,3.2825174,0.44249582,2.1831241,5.9691715,9.0439005,10.494316,11.619851,14.482792,19.858805,26.184586,30.325705,29.618311,23.721397,14.963351,6.9593039,2.492754,2.1327198,4.4636598,7.6042771,10.772182,14.675207,20.455973,28.067965,35.447868,39.317539,37.22562,29.45262,19.356312,11.738183,10.157345,14.897585,22.911913,29.791452,32.466953,30.896112,27.686111,26.020966,27.361519,30.496407,32.529049,31.046556,25.928585,19.547417,15.262945,15.283877,19.346895,25.051386,29.504002,31.070181,30.053967,27.971416,26.123466,24.61614,22.554918,19.181307,14.970083,11.716456,11.446511,14.904745,20.77832,26.333145,29.10132,28.467134,26.006021,24.305275,25.096891,28.075129,31.300539,32.954266,33.153198,34.419556,40.270447,52.744957,70.523743,89.005814,102.46431,106.99707,102.42999,92.009178,80.15947,69.852699,61.310883,52.785522,42.671463,31.309843,21.119644,14.979792,14.107749,17.11124,21.0462,23.811548,26.110306,31.361753,43.318516,62.820984,85.930244,104.97278,112.2017,104.01025,83.11998,57.320213,35.429333,22.867208,19.44672,20.55127,20.738201,17.346634,11.838484,8.1973763,9.6821804,16.249664,24.400118,29.484055,28.822531,23.473753,17.448658,14.936646,17.456978,22.86495,26.874199,26.026163,20.085032,12.239884,6.9931092,7.1665568,12.039854,17.850628,20.315248,17.486891,11.077536,5.3915048,4.5854168,10.026336,19.412933,28.154779,32.083122,29.778252,23.156763,16.096624,12.099974,12.467343,15.974293,20.02743,22.36577,22.207838,20.254705,17.815496,15.816925,14.406342,13.275979,12.28992,11.797389,12.350077,14.070019,16.229435,17.477495,16.650257,13.61869,9.5465574,6.2886992,5.2761269,6.6064024,8.9812651,10.57327,10.287012,8.5795174,7.2670522,8.387413,12.811603,19.482883,25.801598,28.96483,27.490646,22.040981,15.075201,9.5616817,7.5015254,9.0872231,12.893851,16.884314,19.560936,20.587996,20.604242,20.462219,20.469967,20.145273,18.62307,15.408967,10.953303,6.646904,4.2116423,4.8455591,8.629076,14.520804,20.903551,26.326517,29.996548,31.78684,31.871298,30.328766,27.057096,22.059328,15.873903,9.7499027,5.3286991,3.9307299,5.8583646,10.181076,15.193065,19.295547,21.76141,22.878956,23.39073,23.635571,23.061323,20.555788,15.472259,8.6593523,2.6477537,0.59767163,4.4131956,13.105541,22.543179,27.03121,22.07996,6.9062996,-14.812718,-36.504341,-51.856869,-57.876797,-56.150211,-51.624973,-49.639435,-52.946381,-60.424568,-68.150734,-72.057953,-70.509987,-65.220856,-60.04324,-58.477093,-61.498634,-67.050781,-71.424873,-71.591843,-66.985168,-59.672108,-52.931145,-49.240467,-48.988083,-50.639809,-52.096134,-52.21656,-51.454659,-51.248863,-52.689774,-55.48698,-58.008629,-58.367256,-55.789513,-51.279839,-47.061951,-45.149734,-45.997658,-48.162849,-49.247265,-47.53846,-43.276482,-38.711483,-36.858246,-39.700317,-46.924042,-55.945415,-63.212891,-66.015587,-63.79211,-58.27459,-52.498055,-49.307564,-50.165512,-54.767391,-61.472332,-68.159531,-73.023293,-75.035118,-74.033272,-70.595222,-65.803268,-60.945866,-57.148014,-54.996674,-54.328892,-54.346058,-54.093636,-53.077477,-51.670654,-50.99725,-52.293949,-56.078659,-61.610661,-67.027084,-70.155815,-69.609962,-65.57428,-59.859592,-55.140728,-53.738335,-56.498779,-62.28233,-68.269386,-70.955811,-67.45192,-56.606171,-39.560814,-19.523195,-0.78752363,12.68967,18.667799,17.406061,11.489348,4.714251,0.49802834,0.53150237,4.321178,9.8142586,14.725576,17.797192,19.274927,20.378838,22.16946,24.592712,26.363003,25.791492,22.017664,15.810237,9.3528767,5.0901184,4.3256354,6.4611211,9.3676462,10.676102,9.1844997,5.5280418,1.7333263,-0.0072710603,1.4498821,5.7168708,11.312433,16.61377,20.636024,23.186256,24.457853,24.539251,23.312851,20.837166,17.82099,15.653291,15.753233,18.563782,22.91802,26.373049,26.505829,22.457685,15.706648,9.4481897,6.8210855,9.0066204,14.409492,19.498432,20.86396,17.237133,10.22583,3.2942691,-0.35610279,0.33269367,3.809159,7.1050348,7.8559618,5.8112016,2.8655598,1.6550899,3.7014019,8.3734436,13.33187,16.124001,15.825267,13.629118,12.035114,13.249335,17.922215,25.066799,33.149307,41.494068,50.937721,63.201015,79.369453,98.536156,117.59803,132.436,139.79628,138.73387,130.75705,118.69793,105.13066,91.369225,77.599648,63.84761,50.894024,40.347828,33.748245,31.3598,31.609858,31.730862,29.304174,23.742266,16.695482,11.057955,9.1647606,11.333879,15.690467,19.37229,20.307705,18.39044,15.318152,13.264672,13.343324,14.926512,16.262049,15.8987,13.87763,11.811224,11.76746,14.748269,19.85112,24.752531,27.222788,26.637108,24.408234,22.993507,24.102743,27.351681,30.341642,30.216621,25.729225,18.427948,12.090484,10.615638,15.629122,25.273748,35.005573,39.979301,37.658482,29.140129,18.461411,10.353152,7.7716565,10.589523,16.064684,20.638723,21.919786,19.726238,15.764111,12.340254,11.010643,11.937433,14.167524,16.46187,18.046829,18.866777,19.324682,19.836889,20.561243,21.422667,22.289074,23.069393,23.634174,23.686998,22.799267,20.696991,17.638306,14.542947,12.656712,12.846031,14.946959,17.657377,19.165268,18.221279,14.988398,11.087779,8.7080908,9.2705574,12.485181,16.444023,18.765799,18.113787,15.128578,12.125667,11.694674,15.03106,21.063576,26.960155,29.741705,28.02511,22.808332,16.799942,12.723251,11.67352,12.58332,13.134272,11.518318,7.8612862,4.3331938,3.7846391,7.749341,15.091972,22.263828,25.137447,21.389936,12.014235,1.0015481,-6.6907449,-7.7382178,-2.1360929,6.9770026,15.19807,19.28956,18.737825,15.591617,12.818141,12.290598,13.689101,14.951831,13.890988,9.8542385,4.3136015,0.0043498115,-0.80873263,2.2324018,7.3916407,12.02486,14.331963,14.473713,14.268803,15.644686,18.90337,22.061016,21.869398,16.001198,5.0206232,-7.2579246,-15.507547,-15.895249,-8.6205149,1.619562,7.7336783,3.8838508,-11.324494,-33.93063,-56.564125,-72.199089,-77.630379,-74.765396,-69.091835,-66.328957,-69.243271,-76.439659,-83.680321,-86.761696,-84.121529,-77.606834,-71.08094,-67.864014,-68.718491,-71.615295,-73.352638,-71.876091,-67.74408,-63.764786,-63.069969,-66.896683,-73.564507,-79.353035,-80.757484,-76.700569,-69.298103,-62.66082,-60.462486,-63.746944,-70.312653,-76.023575,-77.229301,-72.828476,-64.789063,-56.885803,-52.50639,-52.85133,-56.53418,-60.681389,-62.733601,-61.819344,-58.952126,-56.09021,-54.790558,-55.333496,-56.788845,-57.832558,-57.677139,-56.491909,-55.111408,-54.359825,-54.512444,-55.274036,-56.203396,-57.198151,-58.602272,-60.835331,-63.821533,-66.689224,-68.064384,-66.843925,-62.99865,-57.850643,-53.590309,-52.240597,-54.635201,-59.965328,-66.138115,-70.715973,-71.940895,-69.349632,-63.777096,-56.879322,-50.488976,-46.083813,-44.483364,-45.740005,-49.166634,-53.510555,-57.323116,-59.492687,-59.754673,-58.864475,-58.216606,-58.971516,-61.116993,-63.038391,-61.991955,-55.389023,-42.273312,-24.175512,-4.7803912,11.529969,21.551821,24.585335,22.535376,18.768301,16.402073,16.960119,20.049669,24.09123,27.521021,29.687737,30.955816,32.10207,33.521427,34.854572,35.276371,34.203358,31.868927,29.319475,27.792171,27.891211,29.126192,30.166143,29.665257,27.142565,23.331127,19.76877,17.877439,18.122866,19.794727,21.539782,22.286095,21.949219,21.441675,21.965805,24.043854,26.934052,28.857059,27.967712,23.531002,16.611513,9.8177404,6.1852875,7.7448945,14.515523,24.442451,34.306992,41.156624,43.541061,41.989254,38.536179,35.582951,34.683632,35.839195,37.617886,37.993282,35.465897,29.895203,22.630068,15.889386,11.70276,10.955478,13.022015,16.163647,18.477644,18.877775,17.58679,15.881324,15.263442,16.552433,19.450682,22.850008,25.703197,27.932007,30.785097,36.370762,46.561398,61.849808,80.798767,100.39287,117.13422,128.3093,132.81601,131.21161,125.08392,116.20495,105.91725,95.010475,83.957649,73.204018,63.241261,54.442562,46.869709,40.31226,34.623508,30.160227,27.947496,29.320766,35.117355,44.832317,56.293617,66.176956,71.237625,69.693871,62.058647,50.957806,39.999943,32.243355,29.0128,29.600092,31.909641,33.636845,33.334221,30.875692,27.19664,23.580166,20.94729,19.523426,18.968744,18.787931,18.713913,18.826195,19.371008,20.443056,21.759121,22.684233,22.511381,20.844385,17.880791,14.43223,11.653702,10.588138,11.725673,14.774818,18.762852,22.423586,24.718737,25.247942,24.36087,22.911179,21.781826,21.423283,21.655319,21.836397,21.307823,19.850937,17.88649,16.287664,15.900476,17.042532,19.268124,21.541002,22.71648,22.073141,19.60919,15.972825,12.100886,8.7890854,6.4147587,4.9182673,3.9826331,3.2721877,2.5936022,1.9510155,1.5272025,1.6432681,2.696579,5.0429287,8.8006725,13.645616,18.736099,22.891588,25.020849,24.619354,22.059454,18.467325,15.212577,13.276809,12.867776,13.505587,14.508106,15.532094,16.783979,18.7356,21.547459,24.637487,26.77902,26.758259,24.195858,19.959797,15.797751,13.317671,12.930863,13.470379,12.831811,9.3342657,2.9650583,-4.3295751,-9.6023884,-10.614369,-7.2616959,-1.7824382,2.4761529,3.0362837,-0.19404452,-4.8438563,-7.5541525,-6.1200953,-0.96086073,5.0512614,8.3587542,7.0115886,2.0356774,-3.0399122,-4.2896881,0.11888458,8.57899,16.703188,19.643341,14.714502,2.7951548,-12.278259,-25.886663,-35.02272,-39.496178,-41.35244,-43.041599,-45.622169,-48.169338,-48.695038,-45.866306,-40.280571,-34.38483,-31.062202,-31.816898,-35.795059,-40.338867,-42.765617,-42.229145,-40.416698,-40.551029,-45.238644,-54.480492,-65.124992,-72.21376,-71.54203,-62.004189,-46.39064,-30.15155,-18.799446,-15.333558,-19.040379,-26.22032,-32.338375,-34.377121,-32.150379,-27.983765,-25.079039,-25.550152,-29.22031,-33.776421,-36.125671,-34.165485,-28.017469,-20.078241,-13.883232,-12.377645,-16.473877,-24.611645,-33.528378,-39.837925,-41.614197,-39.185673,-34.76001,-31.118738,-30.114008,-31.794729,-34.629993,-36.65847,-36.838543,-35.755302,-35.210415,-36.928013,-41.186745,-46.297794,-49.355648,-47.908882,-41.562286,-32.48777,-24.439388,-20.760403,-22.543648,-28.055611,-33.807346,-36.64835,-35.623158,-32.446068,-30.307007,-31.754625,-36.993835,-43.671429,-48.294502,-48.39312,-44.04929,-37.847889,-33.270962,-32.581345,-35.52227,-39.633915,-41.935104,-40.837715,-37.03405,-32.789204,-30.119158,-29.090446,-27.400791,-21.598785,-9.2400055,9.3206625,30.598116,49.333771,60.775063,62.636524,55.753994,43.269165,28.981123,15.840659,5.278995,-2.5640802,-8.1751366,-12.125839,-14.918806,-17.082775,-19.188639,-21.624189,-24.276747,-26.461624,-27.292625,-26.307384,-23.871294,-20.947445,-18.243153,-15.302581,-10.291986,-0.89088005,14.046031,33.040882,51.810875,64.773148,67.605057,59.486794,43.674995,25.966335,11.834137,3.854583,0.91290808,-0.3938787,-3.0501015,-7.3334041,-10.39805,-8.0303326,2.4676492,20.048962,39.746086,54.736359,59.523617,52.476765,36.389439,16.884542,-0.3165251,-11.739846,-16.996597,-17.983568,-17.227089,-16.481049,-16.280066,-16.402443,-16.624369,-17.103807,-18.16044,-19.756056,-21.213243,-21.503878,-19.94836,-16.811623,-13.315203,-10.983168,-10.733554,-12.319296,-14.509334,-15.876902,-15.657586,-14.083464,-11.987822,-9.991744,-7.9006615,-4.7900743,0.22237343,7.038444,14.15801,19.161535,19.902159,15.726059,7.9911513,-0.45352504,-6.5472546,-8.3484144,-5.7174549,-0.064920716,6.5647516,12.482481,16.889584,19.79109,21.536482,22.400303,22.482582,21.908339,21.062115,20.604994,21.217972,23.253361,26.558649,30.591356,34.718822,38.446167,41.395603,43.095505,42.836182,39.861343,33.910446,25.807438,17.627174,12.124413,11.554678,16.444969,25.023174,33.733879,38.693695,37.381641,29.714931,17.943775,5.4758902,-4.7093134,-11.205463,-14.333538,-15.371427,-15.4554,-14.866715,-13.123797,-9.7385063,-5.0538611,-0.549941,1.6708297,-0.041236632,-5.8627028,-14.153481,-22.031445,-26.606457,-26.249784,-21.275005,-13.726507,-6.42419,-1.7642765,-0.82839674,-3.1520004,-7.1563773,-10.957329,-13.159075,-13.316014,-11.943459,-10.157047,-9.1432648,-9.6918058,-11.946323,-15.441809,-19.361341,-22.894567,-25.51757,-27.097401,-27.787704,-27.812599,-27.290016,-26.203342,-24.543898,-22.501728,-20.532684,-19.206654,-18.886627,-19.447458,-20.255972,-20.513189,-19.797747,-18.475992,-17.658831,-18.61511,-21.910189,-26.786266,-31.242401,-32.916245,-30.387362,-24.174709,-16.786369,-11.640588,-11.318746,-16.071821,-23.428806,-29.24053,-29.683174,-23.206945,-11.377946,1.8545958,12.097678,16.618341,15.514769,11.365785,7.6387324,6.7959118,9.1552334,13.072404,16.210537,17.056927,15.76509,13.871397,13.151444,14.40486,16.945377,19.094303,19.313025,17.2183,13.815725,10.819534,9.5257435,9.9904375,11.067335,11.277641,9.9489431,7.8416748,6.8190517,8.6990538,13.988357,21.290167,27.815155,30.760489,28.799353,22.841524,15.616929,10.313834,9.0033522,11.697261,16.495153,20.68078,22.121323,20.228474,16.021029,11.377272,7.9689946,6.4962573,6.5889134,7.3314276,7.9965668,8.5141153,9.3929272,11.180075,13.845448,16.52566,17.859209,16.77335,13.288494,8.8234205,5.7294917,6.1808171,10.946545,18.721045,26.44829,30.608191,28.902754,21.506168,11.19039,2.1878583,-1.7204673,1.047876,9.1613035,19.05533,26.648947,29.205622,26.412828,20.198099,13.508464,8.7974377,7.0403275,7.7007794,9.4755363,11.2185,12.45469,13.262193,13.790251,13.893304,13.223532,11.696895,9.901433,9.0064135,10.091637,13.295911,17.410168,20.33329,20.236404,16.75555,11.406971,6.86554,5.4594879,7.8082809,12.480901,16.945984,19.219946,19.131001,18.322723,18.939096,21.860926,25.720295,27.501093,24.478783,16.310333,5.8659897,-1.9376519,-2.7722464,4.5055208,16.906347,28.697771,34.430584,31.863104,23.091928,13.22095,7.3743701,7.8409557,13.000673,18.600252,20.509384,17.234636,10.704355,4.9293365,3.4638426,7.250813,14.137626,20.247297,22.290751,19.389687,13.39661,7.6458602,5.0092473,6.4241924,10.656822,15.253325,17.965961,17.806772,15.242374,11.650327,8.5188951,6.8773022,7.1266823,9.1246223,12.281006,15.585883,17.689205,17.23567,13.454629,6.7302084,-1.2533224,-8.0530205,-11.527012,-10.896123,-7.1788712,-2.6986465,0.1189504,0.0092908228,-2.497812,-5.4148698,-6.3948922,-3.9731612,1.689253,8.8912392,15.182139,18.404825,17.520123,12.918005,6.2057014,-0.37128338,-4.6658568,-5.3233933,-2.2417367,3.387953,9.5743723,14.455187,17.289965,18.97621,21.666775,27.5229,37.195644,48.925453,58.948517,63.187729,59.398586,48.533192,34.43644,21.922768,14.301419,11.830569,12.089265,12.0751,10.704665,10.041931,14.292625,27.013414,48.197506,73.149719,94.090225,103.80469,99.351082,83.675018,64.142349,48.73867,42.069958,43.366478,47.506306,48.323147,42.181728,29.791134,15.384356,4.0000205,-1.3619856,-1.0400878,2.0990407,4.7962012,5.3546786,4.2057095,2.9148765,2.5243354,2.4888549,0.96552259,-3.7916255,-11.955131,-21.651525,-29.874487,-34.230701,-34.3993,-32.364845,-31.274876,-33.634083,-39.920795,-48.405579,-56.188801,-60.756454,-61.143604,-58.129734,-53.542515,-49.220856,-46.269547,-44.91291,-44.807518,-45.465263,-46.482697,-47.54126,-48.358959,-48.737385,-48.69025,-48.485691,-48.456425,-48.655342,-48.633457,-47.613255,-45.068748,-41.357822,-37.885651,-36.513523,-38.420013,-43.097748,-48.235222,-50.766258,-48.619534,-42.151054,-34.297047,-29.173849,-29.820992,-36.372017,-45.796043,-53.452282,-55.629517,-51.608501,-44.043541,-37.444519,-35.659477,-39.834526,-47.9925,-56.374443,-61.637135,-62.553112,-60.274017,-57.174107,-55.156658,-54.567432,-54.343895,-53.151138,-50.618698,-47.767811,-46.343128,-47.539795,-51.047741,-55.091793,-57.476807,-56.941513,-53.917988,-50.208176,-47.796356,-47.603584,-49.000507,-50.374313,-50.341343,-48.769676,-46.922359,-46.604706,-48.868374,-53.093517,-57.041996,-57.861671,-53.476933,-43.608456,-29.936176,-15.424367,-3.2323358,4.2523441,5.9436574,2.1393447,-5.6807218,-15.18694,-23.641481,-28.512962,-28.195927,-22.622423,-13.413727,-3.3792136,4.529202,8.3497362,7.7741609,4.0316544,-0.90449083,-5.2998514,-8.2814493,-9.8449688,-10.401588,-10.299569,-9.7010145,-8.839468,-8.341013,-9.2035809,-12.282936,-17.565256,-23.76899,-28.704437,-30.327993,-27.927849,-22.672909,-17.092018,-13.699257,-13.564605,-15.728048,-17.8549,-17.770239,-14.902448,-10.703916,-7.7354484,-7.9728351,-11.41017,-15.897773,-18.371569,-16.76156,-11.379992,-4.9016204,-0.89055777,-1.7348727,-7.2231274,-14.620447,-20.187569,-21.239569,-17.523596,-11.1526,-5.197947,-1.8482112,-1.2327795,-1.5707777,-0.47657683,3.4174654,9.5064211,15.455707,18.467556,16.811066,10.770037,2.53508,-4.8360548,-8.7993011,-8.3529072,-4.2758369,1.4260056,6.5142579,9.4588041,9.9352884,8.7414684,7.2341142,6.583395,7.1764383,8.4384222,9.1621284,8.1989727,5.1754222,0.8359651,-3.2415874,-5.4773059,-5.2583089,-3.4587271,-2.1077118,-3.2525887,-7.5756588,-13.57962,-17.952417,-17.099161,-9.1487303,4.6623249,20.085367,31.568092,34.81728,28.929813,16.955372,4.5417519,-2.6928496,-1.7402102,6.5452371,18.11134,27.859522,32.12138,30.205738,24.325754,18.105577,14.587395,14.826506,17.724123,21.028759,22.807384,22.512171,21.099949,20.248713,21.229925,24.143089,27.934887,31.143909,32.865417,33.330231,33.742294,35.486897,39.183331,44.173569,48.761631,51.08984,50.151993,46.363068,41.359703,37.151062,35.117695,35.429405,37.189491,39.162457,40.584503,41.522003,42.551628,44.010197,45.374313,45.287453,42.332386,36.129444,28.035536,20.879925,17.713551,20.180292,27.435884,36.30629,42.716206,43.68821,38.843369,30.590967,22.892876,19.274752,21.160109,27.360626,34.921043,40.742321,43.068199,42.074051,39.395149,36.99786,36.113377,36.764427,37.993294,38.502171,37.266369,33.854931,28.454784,21.774254,14.949128,9.4174662,6.6206241,7.4762645,11.798905,18.051857,23.747015,26.473957,25.113409,20.550615,15.369189,12.575021,13.976409,19.156799,25.697441,30.621971,32.291935,31.652531,32.036552,37.506012,50.566002,70.46154,93.001076,112.06903,122.08547,120.24017,107.44704,87.679176,66.13987,47.22879,33.240551,24.225332,18.83374,15.494596,13.26623,12.001183,11.938325,13.13158,15.164047,17.31592,19.04376,20.376904,21.901051,24.261683,27.469429,30.478445,31.403522,28.404636,20.803797,9.7986126,-1.7583719,-10.546095,-14.392852,-13.454583,-10.229119,-8.2800016,-10.297567,-16.563484,-24.725523,-31.091341,-32.742908,-29.251842,-22.966728,-17.648767,-16.248812,-19.153803,-23.977081,-27.055689,-25.744003,-20.099869,-12.915312,-8.0606422,-8.1690941,-13.090889,-20.05118,-25.372532,-26.649975,-24.014738,-19.761162,-16.679777,-16.26623,-17.977331,-19.946051,-20.553894,-19.679037,-18.713451,-19.34672,-22.018749,-25.211962,-26.205046,-22.863911,-15.282083,-6.1199985,0.69996047,2.1683984,-2.1158223,-9.8136339,-17.333593,-21.965017,-23.284731,-22.993801,-23.410049,-25.716476,-29.165812,-31.737843,-31.686766,-28.841583,-24.714279,-21.372343,-19.932249,-19.798471,-19.229942,-16.824284,-12.810301,-9.1380043,-8.2017412,-11.056315,-16.407139,-21.201918,-22.544643,-19.68964,-14.732125,-11.428679,-12.820669,-19.195381,-27.751192,-34.259552,-35.690926,-32.128838,-26.717045,-23.657152,-25.52536,-31.619602,-38.374146,-41.539539,-38.729065,-30.739954,-20.893257,-12.918166,-8.7884769,-7.8584528,-7.720861,-6.0828447,-2.3656282,1.9815454,4.5503869,3.608979,-0.79040933,-6.8811517,-12.254626,-15.132554,-15.040706,-12.595254,-8.7760515,-4.3210497,0.32152665,4.6214066,7.6521301,8.290226,5.907877,1.0773679,-4.3259063,-7.8684645,-7.7969332,-4.016202,1.8348422,7.2948012,10.428038,10.765261,9.303709,7.6396751,6.8860168,7.0857763,7.4591498,7.1776919,6.0378857,4.5206213,3.2389371,2.2696376,0.95953035,-1.5744555,-5.5897584,-10.188732,-13.60568,-14.245289,-11.812801,-7.7269998,-4.4427834,-4.0110574,-6.7735534,-11.056242,-14.122766,-13.846076,-10.073211,-4.8283587,-1.2001303,-1.5692109,-6.2176042,-13.103075,-18.884483,-20.539661,-16.663586,-7.7949862,4.2489328,17.487858,30.640379,43.3069,55.518929,67.074104,77.133858,84.314697,87.193588,84.907127,77.554344,66.236061,52.758434,39.136108,27.072361,17.561483,10.748005,6.1000447,2.8400748,0.44516265,-1.0732881,-1.2970616,0.08654508,2.7080686,5.2989292,6.1091442,3.8254869,-1.5310956,-8.3434811,-14.062859,-16.517921,-15.117489,-11.181756,-7.1344347,-5.0235281,-5.2974792,-6.6540771,-7.086226,-5.4389944,-2.4051487,-0.21052563,-1.1101805,-5.6675057,-12.002395,-16.642132,-16.54867,-11.076715,-2.5874991,4.769989,7.4083824,4.3599358,-2.2483854,-8.5853701,-11.477215,-10.240047,-6.8414879,-4.3554606,-4.770453,-7.6201396,-10.325884,-9.9959335,-5.4778252,1.6985085,8.1038322,10.409135,7.3276753,0.29675025,-7.4470868,-12.750423,-14.169706,-12.408079,-9.4651175,-7.2101021,-6.3825946,-6.5789418,-7.0647511,-7.6582193,-8.9785719,-11.879526,-16.53159,-21.900951,-26.086176,-27.362989,-25.255644,-20.908167,-16.484024,-13.956776,-14.046302,-15.935955,-17.899185,-18.377783,-16.824303,-13.819888,-10.4943,-7.7092991,-5.5612731,-3.5121455,-0.99762654,1.927389,4.3507314,4.8546586,2.2635615,-3.6164632,-11.656537,-19.659595,-25.120934,-26.191681,-22.456886,-15.178444,-6.8533025,-0.19664119,3.0519567,2.9353895,1.2288628,0.44446358,2.3159416,6.5850687,10.865805,11.834311,7.20612,-2.6026359,-14.207523,-22.722687,-24.274691,-18.168215,-7.397553,2.8925869,8.1574669,6.850986,1.0648111,-4.9196382,-7.2288847,-4.5399461,1.4923217,7.6292477,11.209333,11.607915,10.102151,8.4331589,7.2660704,5.7615762,2.5924399,-2.4270718,-7.4691901,-9.4756575,-6.2467041,1.5849706,10.257033,14.771934,11.979194,2.8382676,-7.801434,-14.043073,-12.774148,-6.018466,-0.1465677,-2.1788869,-15.367891,-36.797733,-58.613926,-72.268799,-73.26152,-63.525581,-50.053009,-40.653286,-39.485306,-45.045101,-51.683659,-53.509003,-48.115479,-37.86253,-28.079227,-23.556038,-25.64921,-31.765642,-37.349918,-38.895477,-35.999165,-31.261024,-28.340073,-29.597742,-34.863262,-41.91423,-48.073608,-51.699051,-52.626678,-51.558331,-49.156174,-45.694309,-41.498962,-37.625015,-35.926575,-38.129803,-44.410595,-52.547134,-58.524826,-58.535477,-51.263512,-38.987793,-26.652731,-19.311703,-19.434898,-25.707308,-34.036648,-40.098579,-41.79969,-40.156879,-38.16494,-38.536903,-41.872196,-46.428062,-49.498959,-49.357876,-46.381294,-42.648529,-40.409218,-40.563114,-42.226082,-43.585453,-43.326458,-41.507645,-39.271263,-37.676994,-36.648548,-34.946373,-31.275473,-25.714897,-20.299427,-18.130409,-21.429253,-29.821533,-40.092587,-47.766289,-49.595798,-45.400772,-38.030025,-31.446703,-28.180876,-27.853865,-27.746704,-25.04924,-19.221033,-12.803455,-10.0186,-13.987906,-24.388655,-37.156788,-46.577129,-48.542828,-42.982944,-33.908329,-27.003483,-26.195976,-31.277773,-38.005486,-40.597767,-35.124264,-21.785748,-4.8046632,9.9251719,18.005985,18.71146,15.043405,11.791784,12.814026,19.055502,28.280539,36.493027,40.140102,37.900772,31.220284,23.460609,18.218418,17.659058,21.633648,27.889858,33.218197,34.977448,32.310585,26.515856,20.411018,16.964016,17.847239,22.628651,29.019882,34.071823,35.688217,33.624699,29.435526,25.420967,23.256498,23.176264,24.23996,25.502787,27.276861,31.549118,41.108829,57.788548,80.850266,106.58781,129.53052,144.68932,149.63289,145.23804,134.75624,121.82726,108.66292,95.47728,81.374962,65.959274,50.47995,37.643219,30.158642,28.956465,32.322052,36.645325,38.467239,36.643871,33.262684,32.66433,39.007599,53.727253,74.33873,95.304581,110.53187,116.15258,112.12237,101.83804,90.112679,80.685089,74.646683,70.55677,66.037315,59.813549,52.96656,48.673954,50.557831,60.553627,77.461571,96.970215,113.19252,120.9954,118.05106,105.6841,88.214264,71.136299,58.984119,53.780037,54.629246,58.503426,61.755802,61.670609,57.427822,50.170589,42.266335,36.166641,33.381241,33.971325,36.715485,39.797398,41.664413,41.656281,40.149311,38.189228,36.84227,36.612328,37.226608,37.885715,37.820503,36.82362,35.434505,34.647205,35.289276,37.429863,40.172657,41.992931,41.473763,38.052086,32.370064,26.038626,20.927216,18.360451,18.617142,20.931738,23.93939,26.264263,26.967854,25.707787,22.67351,18.456409,13.953556,10.279005,8.5560846,9.5475264,13.231723,18.601887,23.905651,27.340624,27.882856,25.785957,22.416761,19.466084,17.986902,17.84956,17.974941,17.20624,15.242405,12.976888,11.954472,13.253119,16.523722,19.895582,20.909307,17.977713,11.465778,3.6761794,-2.3280838,-4.378943,-2.3425024,1.9513316,5.9151158,7.7596045,7.4000607,6.1838403,5.6842513,6.4493084,7.5852737,7.4864397,5.1682124,1.2536377,-2.1753654,-2.8392978,0.16211271,5.5272956,10.338093,11.753012,8.7874575,3.020443,-2.2547174,-3.9635222,-1.0624768,4.8811936,10.681093,13.451077,12.223208,8.2841349,4.095962,1.583566,0.95179439,0.78287882,-0.71839476,-4.2475858,-8.7392588,-12.017004,-12.314957,-9.6420059,-6.0046697,-4.2835503,-6.4272423,-12.114933,-18.782864,-23.049404,-22.692345,-17.983738,-11.565523,-6.9376397,-6.4689512,-10.091538,-15.424036,-19.189411,-19.075687,-14.959355,-8.86166,-3.7522023,-1.9467379,-4.0068526,-8.6597548,-13.659975,-17.007675,-17.842869,-16.608707,-14.552683,-12.957185,-12.565538,-13.446972,-15.241468,-17.511847,-19.961502,-22.399412,-24.592928,-26.182261,-26.810982,-26.413342,-25.474632,-25.032434,-26.328308,-30.223871,-36.675129,-44.57653,-52.126919,-57.589638,-60.085907,-60.009907,-58.81221,-58.243137,-59.432121,-62.301174,-65.628021,-67.732414,-67.402527,-64.546921,-60.220963,-56.044231,-53.371426,-52.695194,-53.598511,-55.195313,-56.718307,-57.851772,-58.630974,-59.074448,-58.898628,-57.616898,-54.989498,-51.51503,-48.521652,-47.674152,-50.095448,-55.615387,-62.655289,-68.896271,-72.388489,-72.490578,-70.086731,-66.976204,-64.825333,-64.31916,-64.980583,-65.704208,-65.576118,-64.439949,-62.871483,-61.661556,-61.219707,-61.335846,-61.432011,-61.075653,-60.348755,-59.778675,-59.904423,-60.800262,-61.939873,-62.513172,-61.985184,-60.50116,-58.839821,-57.939293,-58.329941,-59.835491,-61.736225,-63.243958,-63.952477,-63.97538,-63.73661,-63.630989,-63.815632,-64.252869,-64.872643,-65.629837,-66.370979,-66.634079,-65.668472,-62.829914,-58.193424,-52.91935,-48.972809,-48.132446,-50.787876,-55.286171,-58.408421,-56.872963,-49.096256,-36.151283,-21.294401,-8.2665043,0.61496222,5.4196415,8.0445452,10.54474,13.510531,15.61955,14.683394,9.4785118,1.0680774,-7.3846684,-12.30972,-11.868281,-7.1408062,-1.5219716,1.3331037,-0.30042723,-5.2944374,-10.587178,-13.299663,-12.596681,-10.062021,-8.3774834,-9.286088,-12.309685,-15.136814,-15.435894,-12.773105,-9.2217302,-8.1259241,-11.776435,-19.589872,-28.111225,-32.960243,-31.527369,-24.63579,-16.047667,-10.083767,-8.8961535,-11.193065,-13.266277,-11.646192,-5.6287789,2.044143,6.8248973,5.2907662,-2.5334897,-12.988348,-20.860624,-22.428457,-17.565353,-9.6302948,-3.3017802,-1.7825185,-5.1119571,-10.538661,-14.525912,-15.005393,-12.42677,-9.0713215,-7.2489967,-7.6784992,-9.1094942,-9.3416653,-6.8434453,-1.857639,3.7223694,7.5259347,8.123414,5.7787757,2.1691718,-0.60166216,-0.99476725,1.53693,6.7439046,14.023707,22.648209,31.63685,39.523094,44.44257,44.723228,39.744106,30.520329,19.55291,9.9245214,4.0886879,2.9852643,5.9012723,11.024425,16.252419,19.825813,20.603409,18.160435,12.962686,6.659596,2.156528,3.058203,12.322681,30.594301,55.11961,80.088219,98.574928,105.32599,99.011284,82.741783,62.516983,44.425213,32.095139,25.704998,22.912279,20.922699,18.337826,15.680957,14.445983,15.507413,18.08041,20.008459,19.17654,15.077262,9.4186306,5.2827511,5.3235016,10.115344,17.704401,24.67149,28.064915,27.051933,23.308294,19.957596,19.711473,23.308001,29.123058,34.098591,35.418709,31.991455,24.983212,17.217419,11.819525,10.827692,14.393345,20.846306,27.517597,31.897408,32.648735,30.085466,25.953606,22.5898,21.80661,23.9774,27.769215,30.72142,30.465717,26.030989,18.544588,10.892721,6.4060593,7.1924205,12.966865,21.03853,27.516142,29.151455,24.89073,16.343653,6.9597836,0.35857159,-1.3157402,1.7847866,7.5442333,13.092542,16.213736,16.246258,14.122224,11.638463,10.43021,11.186465,13.447929,16.022211,17.72509,18.055765,17.463654,17.092819,18.140287,21.166197,25.721123,30.504936,34.018867,35.370308,34.796803,33.554123,33.192505,34.576103,37.231327,39.473541,39.333134,35.813808,29.747509,23.665348,20.640467,22.664761,29.455275,38.40276,45.76833,48.519463,45.817459,39.355129,32.362461,27.860579,27.117052,29.123911,31.292271,30.912571,26.529327,18.533079,8.7671022,-0.49531281,-7.5669141,-11.846544,-13.671521,-13.780818,-12.802413,-11.048081,-8.6263027,-5.6850872,-2.5493164,0.32527089,2.5060773,3.7024612,3.7636368,2.6068721,0.1877721,-3.4167931,-7.8619285,-12.455154,-16.281252,-18.496822,-18.667341,-16.933374,-13.911962,-10.393974,-7.0178528,-4.1335735,-1.8786391,-0.37657315,0.14350168,-0.56966877,-2.5505517,-5.3963137,-8.2738562,-10.219207,-10.596382,-9.4681368,-7.6327729,-6.2754946,-6.389164,-8.2519236,-11.24325,-14.082457,-15.394206,-14.319466,-10.89629,-6.0468688,-1.1810302,2.3944776,3.9917383,3.7633774,2.5310428,1.3241856,0.8502602,1.1773406,1.7686522,1.8585097,0.92382807,-1.0178386,-3.4692771,-5.8246613,-7.7841921,-9.5046186,-11.35545,-13.43109,-15.199016,-15.618409,-13.777837,-9.7005281,-4.754529,-1.2558143,-1.3242091,-5.5640464,-12.378383,-18.441038,-20.216728,-15.75706,-5.7807274,6.6052351,17.415581,23.697395,24.784683,22.259531,18.772488,16.515665,16.283783,17.569876,19.438427,21.431999,23.83432,27.167862,31.397596,35.552708,38.15097,38.16209,35.806568,32.504803,29.92753,28.746428,28.017357,25.751982,20.412354,12.358798,4.1857381,-0.44908631,1.0881205,8.6900311,19.305111,28.479811,32.772243,31.558064,27.118061,22.964914,21.503378,22.538914,23.584644,21.751431,15.933599,7.8434424,1.1621329,-0.66809899,3.3769279,11.142459,18.433348,21.350651,18.408501,11.210519,3.3941281,-1.4105437,-1.3539532,3.0612738,9.7049227,16.173943,20.863153,23.230892,23.397297,21.627069,18.173178,13.540009,8.7642422,5.2916579,4.3436337,6.1639733,9.7214508,13.191531,15.007423,14.834346,13.82673,13.983214,17.015862,23.43919,32.403927,42.252499,51.296688,58.251122,62.127502,61.917606,56.593208,45.686432,30.147514,12.748951,-2.5612481,-12.271903,-15.066347,-12.595769,-8.6100311,-6.8310328,-8.7955456,-13.045877,-16.235296,-15.465378,-10.314681,-3.1464453,2.6063867,5.0957518,5.8328304,9.2227154,19.922159,39.556339,64.894165,88.78199,103.48824,104.58143,93.10199,74.772652,56.791061,44.136398,37.53661,34.112255,30.017216,23.241459,14.793411,7.6734085,4.5232186,5.6440773,8.7176962,10.329633,8.1933661,2.5361884,-4.2294397,-9.2445526,-11.098693,-10.588844,-9.8922033,-10.809564,-13.344304,-15.636559,-15.268476,-11.048351,-4.023458,2.9696283,6.9209657,6.3862786,2.2276812,-3.0544472,-6.905386,-8.1614037,-7.4867601,-6.6311564,-7.125258,-9.3207207,-12.352253,-14.93171,-16.316385,-16.75839,-17.153671,-18.218754,-19.832895,-21.035471,-20.687914,-18.336845,-14.686447,-11.353739,-10.05673,-11.712482,-15.952784,-21.265127,-25.633556,-27.322262,-25.489677,-20.462,-13.657742,-7.2176247,-3.3651888,-3.6205058,-8.0812321,-15.143353,-21.953932,-25.587471,-24.478973,-19.368246,-13.104872,-9.2536106,-10.157839,-15.543167,-22.55311,-27.314259,-27.196127,-22.435696,-16.107931,-12.375295,-14.02289,-20.753815,-29.294914,-35.280323,-35.781525,-30.955437,-23.839252,-18.448544,-17.397272,-20.484068,-25.071022,-27.899038,-27.145666,-23.413704,-19.117201,-16.774395,-17.397953,-20.018122,-22.575991,-23.47649,-22.695971,-21.684422,-22.179808,-24.791019,-28.37631,-30.666758,-29.737297,-25.323746,-19.115932,-13.818162,-11.588695,-12.865917,-16.284746,-19.643505,-21.22933,-20.623144,-18.559301,-16.120583,-13.970563,-12.22906,-11.022973,-11.135473,-14.050962,-21.129078,-32.354118,-45.5966,-57.129009,-63.365761,-62.91592,-57.635345,-51.863079,-50.078674,-54.273888,-62.639,-70.475632,-72.92923,-67.982079,-57.902382,-48.19096,-44.540497,-49.538284,-61.043713,-73.238281,-79.782791,-77.28772,-67.126587,-54.586544,-45.88768,-44.805912,-50.781578,-59.502975,-65.494179,-65.161713,-58.597576,-49.249168,-41.831291,-39.770134,-43.605373,-51.06778,-58.572563,-63.115227,-63.517063,-60.511169,-55.885727,-51.384613,-48.024986,-46.071453,-45.425247,-45.976871,-47.629963,-50.036697,-52.379879,-53.499725,-52.417542,-48.952282,-44.034534,-39.428844,-36.964458,-37.669056,-41.271824,-46.352734,-51.031631,-53.825802,-54.229836,-52.778248,-50.632946,-48.974804,-48.517429,-49.337212,-51.010555,-52.923359,-54.55801,-55.67588,-56.339199,-56.822479,-57.443295,-58.371559,-59.467068,-60.238453,-59.97625,-58.061604,-54.341114,-49.370514,-44.358582,-40.762577,-39.669132,-41.249153,-44.571033,-47.912037,-49.4772,-48.207481,-44.310814,-39.242798,-35.104637,-33.686592,-35.567814,-39.668362,-43.513908,-44.170643,-39.522594,-29.355639,-15.733202,-2.3936181,6.6878176,8.9953184,4.6565161,-3.5095522,-11.205438,-14.618657,-12.205413,-5.3667169,2.3497863,7.155148,7.0174222,2.6908295,-2.7839568,-5.806447,-4.1873627,1.7502403,9.5125303,15.949454,18.983236,18.532896,16.155834,13.757117,12.298675,11.354405,9.7618341,6.8376956,3.2195101,0.69170117,1.0346686,4.6914845,10.20728,14.933896,16.64362,15.022612,12.042717,10.86347,13.883328,21.134445,30.055429,36.837299,38.566029,34.876633,28.127499,22.019997,19.507189,21.246387,25.445494,29.086157,29.696579,26.617859,21.117876,15.512527,11.975689,11.801564,15.406241,22.776348,33.806911,48.188435,64.962746,82.245903,97.574829,108.82751,115.21338,117.62311,117.98317,117.93027,117.63648,115.59896,109.63096,98.509354,83.222305,66.97036,53.787479,46.528084,45.381874,47.794434,49.857273,48.365334,42.401386,33.620518,25.199154,20.133427,19.855993,23.808733,29.993492,36.014095,39.970856,40.879368,38.649982,33.900116,27.818941,22.043093,18.36895,18.185434,21.799372,28.055168,34.604481,38.869087,39.271263,36.079185,31.335352,27.861713,27.820309,31.619587,37.71537,43.392235,46.048904,44.322983,38.522881,30.289135,21.789337,14.898766,10.708585,9.436552,10.607041,13.344563,16.674519,19.807917,22.37277,24.497818,26.637384,29.166843,31.941236,34.147289,34.653214,32.762585,28.929497,24.916658,23.103693,25.207479,31.095097,38.475113,43.7859,43.937454,37.969597,27.690052,16.88203,9.4837513,7.7508588,11.389285,18.068064,24.89418,29.912775,32.77552,34.318451,35.514427,36.607903,37.040401,36.14296,34.012619,31.850048,31.423174,33.95068,39.157459,45.162621,49.361618,49.807571,46.263691,40.311295,34.474373,30.915722,30.469191,32.517056,35.645317,38.576805,40.777512,42.447777,44.041225,45.754211,47.340839,48.322971,48.350163,47.387329,45.618423,43.204235,40.182312,36.662716,33.168137,30.765676,30.718529,33.72226,39.16539,45.002277,48.507862,47.665318,42.421593,35.021503,29.064613,27.66328,31.682756,39.068359,45.727184,47.57053,42.653618,32.260899,20.334007,11.537028,8.9746017,12.742508,20.022858,26.619858,29.075459,26.29038,19.87245,13.137698,9.3592291,10.185371,14.964755,21.231894,26.006062,27.214104,24.553598,19.449354,14.21199,10.866644,10.257455,11.803304,13.987202,15.26369,14.904066,13.355308,11.949226,12.136965,14.660837,19.101074,24.019371,27.63765,28.687407,27.005926,23.598434,20.128693,18.130592,18.314011,20.300194,22.873251,24.596914,24.475237,22.357487,18.93446,15.375876,12.816486,11.935069,12.77396,14.818909,17.230501,19.075573,19.468611,17.638149,12.999427,5.329865,-4.9734893,-16.686388,-27.814482,-36.054173,-39.598423,-37.964344,-32.421661,-25.680897,-20.84193,-20.040098,-23.434059,-29.123371,-34.116295,-35.889111,-33.727722,-29.099188,-24.81496,-23.445194,-25.875751,-30.858671,-35.799419,-38.301071,-37.520859,-34.51144,-31.368582,-29.755465,-29.783474,-29.984713,-28.4202,-24.186394,-18.324989,-13.477651,-12.441778,-16.48506,-24.464325,-33.287899,-39.462223,-40.795944,-37.296986,-30.843857,-23.979963,-18.647137,-15.603703,-14.688868,-15.496813,-17.808878,-21.435284,-25.672979,-28.991186,-29.423357,-25.624037,-17.936916,-8.6727295,-1.2189209,1.6520021,-0.71832913,-6.5026498,-12.438975,-15.694091,-15.409042,-12.987652,-11.007183,-11.513968,-14.838928,-19.659342,-24.163168,-27.408247,-29.868067,-32.772594,-36.768417,-40.956059,-43.144096,-41.286728,-35.184402,-27.2108,-21.390474,-21.227865,-27.573599,-37.881863,-47.410507,-51.693386,-48.835068,-40.277283,-29.649641,-20.52347,-14.501228,-10.78336,-7.3263736,-2.6752913,2.8296967,7.2594151,8.4953737,5.792768,0.38976887,-5.243525,-8.9739141,-10.300856,-10.496786,-11.528187,-14.554241,-19.053783,-23.181999,-25.096212,-24.298561,-22.051939,-20.570202,-21.530653,-24.917322,-28.981499,-31.340069,-30.484991,-26.710123,-21.895611,-18.329945,-17.37608,-18.813488,-21.201317,-22.901825,-23.04669,-21.83383,-20.091539,-18.545828,-17.370958,-16.299927,-15.109437,-13.998871,-13.497205,-13.967253,-15.115058,-15.977389,-15.49653,-13.312958,-10.176095,-7.5933886,-6.8431287,-7.9866972,-9.572093,-9.3027649,-5.3112531,2.754626,13.531207,24.751616,34.530029,42.26368,48.5546,54.238514,59.227085,62.017109,60.303471,52.358959,38.328712,20.574017,2.7684739,-11.737826,-21.349768,-26.604601,-29.321257,-31.098166,-32.107292,-30.949501,-25.636871,-15.103138,-0.30747056,15.733344,29.038258,36.295113,36.187443,29.763308,19.740454,9.1670933,0.1503495,-6.7650137,-12.339224,-17.734598,-23.470789,-28.774876,-31.658108,-29.695166,-21.178736,-6.129117,13.306304,33.301594,49.497616,58.410954,58.514729,50.576225,37.149517,21.532207,6.6712785,-5.5207033,-14.302211,-19.823366,-22.751015,-24.013809,-24.688099,-25.844339,-28.222399,-31.803143,-35.566555,-37.749763,-36.668915,-31.757942,-24.225338,-16.822695,-12.684937,-13.78186,-19.826473,-28.315125,-35.733105,-39.276489,-38.132103,-33.603718,-28.087175,-23.592602,-20.747953,-18.856544,-16.85685,-14.414377,-12.327055,-11.926909,-13.908666,-17.482681,-20.56311,-21.020195,-18.222626,-13.81701,-11.077562,-13.07317,-20.686174,-31.750603,-41.914791,-46.860035,-44.62336,-36.686462,-27.193056,-20.755636,-20.102114,-24.90564,-32.352375,-39.003834,-42.773338,-43.85741,-44.183151,-45.854134,-49.647076,-54.490112,-58.184128,-58.829258,-56.017384,-51.069366,-46.203388,-43.225136,-42.555473,-43.161007,-43.366852,-41.985806,-39.040558,-35.668827,-33.309383,-32.729111,-33.497932,-34.233913,-33.456764,-30.519354,-26.069145,-21.757185,-19.38575,-19.969912,-23.240343,-27.84153,-32.085991,-34.814354,-35.899731,-36.11729,-36.520065,-37.703648,-39.417622,-40.7467,-40.735077,-39.060917,-36.318005,-33.71524,-32.360874,-32.58432,-33.734562,-34.618484,-34.322418,-32.898556,-31.437561,-31.424671,-33.736111,-37.911102,-42.214886,-44.538776,-43.660927,-40.103081,-36.023773,-34.119236,-36.126308,-41.785118,-48.879425,-54.369507,-55.975746,-53.325394,-48.020859,-42.633991,-39.244671,-38.383232,-38.95816,-39.161396,-37.747292,-34.936165,-32.423431,-32.534061,-37.019882,-46.141983,-58.473434,-71.426491,-82.191872,-88.647568,-89.941048,-86.644592,-80.524292,-74.031456,-69.577118,-68.723824,-71.501755,-76.16291,-79.616821,-78.536133,-70.757668,-56.356396,-37.833347,-19.22584,-4.501245,4.0182881,6.4422808,4.9606643,2.5882282,1.7003754,3.097543,5.9935446,8.8052721,10.191951,9.757494,8.1023102,6.3131099,5.2941418,5.3635502,6.2999721,7.7453551,9.6690931,12.596099,17.477375,25.27454,36.460575,50.638905,66.445091,81.748566,94.136322,101.5422,102.82332,98.096947,88.65876,76.499619,63.607712,51.385757,40.469486,31.000954,23.152761,17.496866,14.905288,15.980187,20.360474,26.415537,31.681896,33.929249,32.326523,28.012367,23.638828,22.048693,24.765255,31.140823,38.67445,44.348904,46.250481,44.561867,41.374779,39.453648,40.665741,44.967175,50.472939,54.524075,55.097004,51.763382,45.740292,39.09296,33.630005,30.137377,28.31077,27.316069,26.545435,26.083885,26.630192,28.962934,33.311592,39.014584,44.67115,48.698334,50.003353,48.439045,44.820602,40.527367,36.897369,34.699673,33.941654,34.065395,34.390553,34.553169,34.663975,35.10495,36.095852,37.327732,37.962433,37.069538,34.277863,30.222849,26.417503,24.508802,25.291267,28.087168,30.96314,31.776693,29.504057,25.007778,20.696655,19.146694,21.478634,26.544971,31.579857,34.081123,33.857254,33.877407,39.169247,54.105408,79.489914,111.13403,140.93156,160.09941,163.02411,149.75174,125.85201,99.785034,79.182137,67.953827,65.515282,68.194199,71.707893,73.212852,71.941002,68.468079,63.498299,57.178623,49.401058,40.675598,32.701092,27.959955,28.407753,34.083122,42.660332,50.429226,54.263657,53.399315,49.897785,47.383617,48.781452,54.415859,61.699001,66.673103,66.510483,61.436737,54.819607,51.275185,53.819492,61.760689,70.627739,74.278763,68.087349,51.457508,28.307507,5.2816887,-11.304269,-18.15295,-15.976317,-8.4776745,-0.098561153,6.1042104,9.3701859,10.673136,11.323218,11.772423,11.373321,9.1224184,4.7547784,-0.66186684,-5.0819426,-6.5940323,-4.5537548,0.00129115,4.9305887,8.1943998,8.9127254,7.6345439,5.6944923,4.1731544,3.1979198,2.098845,0.30241024,-1.6968725,-2.0683751,1.5570172,10.603868,24.258322,39.281918,51.200336,56.35844,53.729561,45.446941,35.737762,28.806644,26.844437,29.224627,33.2374,35.846172,35.383656,32.244404,28.293949,25.508036,24.768444,25.551687,26.589888,26.938147,26.672203,26.713032,27.963957,30.383545,32.728264,33.18985,30.566971,25.20537,19.065674,14.821959,14.507196,18.491783,25.376513,32.79607,38.604347,41.74366,42.370934,41.333729,39.463749,37.188889,34.643181,32.041485,29.922407,28.988476,29.653687,31.676649,34.22506,36.408562,37.920143,39.284233,41.467152,45.023518,49.394913,52.894104,53.542938,50.308838,43.958447,36.904228,32.013218,31.016607,33.476974,36.967472,38.427116,35.918457,29.768888,22.418415,17.066887,15.915217,18.986227,24.156475,28.281462,28.709528,24.34852,15.816918,4.8174148,-6.7216754,-17.191149,-25.352804,-30.15657,-30.735283,-26.79368,-19.182636,-10.162294,-2.9418414,-0.50619364,-4.2523746,-13.208053,-24.342396,-33.903828,-39.109455,-39.296047,-35.942364,-31.603966,-28.432863,-27.135733,-26.930752,-26.421005,-24.766312,-22.395409,-20.810106,-21.650223,-25.590612,-31.78779,-38.19389,-42.546932,-43.476154,-41.080093,-36.73122,-32.262085,-29.048326,-27.489178,-27.104069,-27.096773,-26.983774,-26.91737,-27.549995,-29.587009,-33.31221,-38.363613,-43.837719,-48.620926,-51.764565,-52.736629,-51.512367,-48.54002,-44.650146,-40.91177,-38.412834,-37.948051,-39.700138,-43.060188,-46.759918,-49.345608,-49.837391,-48.264862,-45.766529,-44.115681,-44.840061,-48.336403,-53.437416,-57.701481,-58.35603,-53.466244,-42.831234,-28.178555,-12.605952,0.46476004,8.356925,9.8305826,5.2123537,-3.942318,-15.405478,-26.826401,-36.166855,-42.042435,-43.997318,-42.66396,-39.66148,-37.101982,-36.742523,-39.068172,-42.754139,-44.904366,-42.121552,-32.061779,-14.763983,6.9068022,28.041342,43.417103,49.449722,45.478722,33.809963,18.55102,3.8226993,-7.7744617,-15.770899,-21.350477,-26.191967,-31.346327,-36.736595,-41.480343,-44.708805,-46.293076,-47.006031,-48.015919,-50.057175,-52.852276,-55.190365,-55.690475,-53.795685,-50.384537,-47.54882,-47.58004,-51.683453,-59.151154,-67.520691,-73.70594,-75.527672,-72.807236,-67.424469,-62.274685,-59.707706,-60.321224,-62.7826,-64.768822,-64.454468,-61.663177,-57.992977,-55.829369,-56.844082,-60.864326,-65.829506,-68.868011,-67.90696,-62.873688,-55.80695,-49.794308,-47.355602,-49.163853,-53.78056,-58.509243,-60.817226,-59.553432,-55.328655,-49.990776,-45.580025,-43.402969,-43.667065,-45.748074,-48.770607,-52.10107,-55.48735,-58.865204,-62.061829,-64.641556,-66.001518,-65.623978,-63.334633,-59.413258,-54.542263,-49.641636,-45.653904,-43.31953,-42.9701,-44.395435,-46.882008,-49.481312,-51.450962,-52.645489,-53.615181,-55.253517,-58.163712,-62.102657,-65.920746,-68.12468,-67.779968,-65.183479,-61.797138,-59.395649,-58.913715,-59.773029,-60.215958,-58.53754,-54.446125,-49.586937,-46.728474,-47.977627,-53.13908,-59.368153,-62.562046,-59.798706,-51.369915,-41.0522,-34.262749,-35.06197,-43.761353,-56.600231,-67.753517,-72.512306,-69.733398,-62.135883,-54.33289,-49.93026,-49.524258,-50.818157,-50.63657,-47.406643,-42.383884,-38.812759,-39.625832,-45.285809,-53.263172,-59.553204,-61.205074,-58.174725,-53.232018,-49.988346,-50.36816,-53.237507,-55.130524,-52.569485,-44.451958,-32.870773,-21.851206,-14.839889,-12.636063,-13.114739,-12.881712,-9.6924553,-3.9874477,1.4830014,3.6394417,1.2798395,-4.0058265,-8.8281813,-10.196467,-7.4327149,-2.5152464,1.3336682,1.8179919,-0.99095356,-4.8790321,-7.1693516,-6.6403975,-4.3568845,-2.8643775,-4.3415003,-9.0127363,-14.90014,-19.058338,-19.407917,-15.923223,-10.406825,-5.1036992,-1.1889539,1.804866,5.276144,10.153723,15.889586,20.627562,22.449144,20.812649,17.114185,13.932958,13.421035,15.93792,19.865658,22.733299,22.911016,20.708536,18.171329,17.703524,20.456043,25.536036,30.516411,32.871925,31.390226,26.702129,20.725912,15.501064,12.243005,11.121099,11.70964,13.575148,16.490414,20.162527,23.841663,26.315708,26.478653,24.143604,20.486698,17.655731,17.675154,21.290806,27.51679,34.224178,39.400429,42.260399,43.483547,44.46825,46.167645,48.362926,49.889931,49.608196,47.366226,44.190388,41.519226,40.021042,38.921452,36.424175,31.047543,22.974102,14.407004,8.5411196,7.678576,11.67946,17.777803,21.979683,21.241545,15.141737,6.0458612,-2.2747617,-6.6985431,-6.2464018,-2.2466002,2.7474155,6.4611726,7.8806486,7.2883186,5.6126313,3.7383528,2.2883863,1.8443565,3.1793702,7.0582347,13.606139,21.729923,29.201883,33.600922,33.651684,30.096594,25.412775,22.429607,22.663971,25.482891,28.677855,30.113014,29.326008,27.938696,28.518642,32.623985,39.390053,45.733055,48.182804,45.218151,38.524967,32.234947,30.477413,34.743752,42.761433,49.684776,50.954323,45.081703,34.635609,24.786743,20.291214,22.740833,29.738827,36.45562,38.575077,34.829933,27.647654,21.611637,20.738575,26.211523,35.827709,45.368168,50.976791,51.203953,47.653187,44.084286,44.566734,51.695858,65.632332,84.210518,103.85253,120.79333,132.16817,136.68358,134.76288,128.2007,119.41045,110.53733,102.73759,95.953041,89.282616,81.759285,73.103767,64.04071,56.016483,50.52153,48.422871,49.682507,53.51165,58.740719,64.100403,68.298782,70.06208,68.395233,63.156929,55.635075,48.596176,45.425438,48.536781,57.835873,70.222603,80.690132,84.65892,80.343018,69.796715,57.906067,49.821205,48.25169,52.199112,57.849747,61.040585,59.762939,55.168606,50.534035,48.940266,51.235455,55.603554,58.967243,59.227772,56.777756,54.253307,54.678745,59.25602,66.307495,72.117722,73.170486,68.336914,59.635696,51.085289,46.431091,47.203831,52.298492,59.204102,65.949463,72.382004,79.924858,90.022148,102.40559,114.42518,122.02246,121.81306,113.03452,98.183525,81.938896,68.990707,61.978249,60.598907,62.216511,63.480659,62.007412,57.319065,50.747131,44.569633,40.917763,40.935204,44.418144,49.940472,55.347301,58.479973,57.937069,53.635437,46.88343,39.85984,34.645599,32.295704,32.458309,33.790722,34.939552,35.45116,35.979794,37.605419,40.7094,44.223949,45.917271,43.690712,37.133251,28.277985,20.8871,18.518856,22.434858,30.657312,38.83012,42.510139,39.568504,31.338827,21.807011,15.382522,14.544137,18.736597,25.048796,30.124693,32.072697,31.240208,29.528881,28.868719,29.92156,31.813869,32.954376,32.252892,29.861507,26.975994,24.908617,24.13242,23.969105,23.091795,20.447943,15.953981,10.532576,5.5395889,2.0525577,0.49763563,0.78160089,2.6826222,6.0892382,10.856087,16.432735,21.672628,25.153465,25.937225,24.297562,21.849867,20.842888,22.92205,28.086678,34.522305,39.475132,40.714157,37.732967,31.985176,26.045044,22.193226,21.26757,22.391598,23.647886,23.216265,20.295935,15.352286,9.6934061,4.7473521,1.495392,0.28510258,0.94791985,2.9950058,5.7055006,8.1464529,9.282093,8.271328,4.8727446,-0.29867208,-5.8975348,-10.366279,-12.611071,-12.443314,-10.557384,-8.0860529,-6.0343328,-4.9269133,-4.8223505,-5.5633478,-6.9788017,-8.8662443,-10.814109,-12.115697,-12.007153,-10.177834,-7.2315054,-4.6669555,-4.2173796,-6.8128691,-11.779947,-16.860069,-19.201073,-16.869356,-10.050788,-1.2030603,6.0031428,8.45469,5.1209307,-2.4600117,-10.969763,-16.915892,-18.203367,-14.914165,-9.032197,-3.3969471,-0.49048492,-1.5863143,-6.4929028,-13.81638,-21.493635,-27.419922,-30.053564,-28.921726,-24.876417,-19.916599,-16.49317,-16.489456,-20.336159,-26.753149,-33.374046,-37.975204,-39.662346,-39.306252,-38.939987,-40.457855,-44.419807,-49.717426,-54.351349,-56.837799,-57.346664,-57.804874,-60.847534,-68.218452,-79.604172,-92.597412,-103.83436,-110.59764,-111.96485,-108.91055,-103.44973,-97.48793,-92.116493,-87.69265,-84.430336,-82.869682,-83.769051,-87.437164,-93.056999,-98.635559,-101.81468,-101.163,-97.135239,-92.017685,-88.784676,-89.477631,-94.091438,-100.63242,-106.31073,-109.12666,-108.85375,-106.87478,-105.02966,-104.2959,-104.18517,-103.20864,-100.07754,-94.780754,-88.813354,-84.422272,-83.374992,-86.071945,-91.55114,-98.291664,-105.20809,-112.10712,-119.33389,-126.93228,-134.02512,-138.96536,-140.24887,-137.5714,-132.26199,-126.67973,-122.88771,-121.45255,-121.19409,-120.11341,-116.94579,-112.28682,-108.48485,-108.25214,-112.82504,-120.85969,-128.87167,-133.07307,-131.55792,-125.52122,-118.70123,-115.34146,-117.82795,-125.4065,-134.71806,-141.78902,-144.26254,-142.51784,-139.05382,-136.57953,-136.04692,-135.88159,-132.88397,-124.26289,-109.54758,-91.23214,-73.770294,-61.507206,-56.725155,-58.860428,-65.193886,-72.49321,-78.61425,-83.205307,-87.309624,-92.273979,-98.717712,-106.12199,-113.13228,-118.23652,-120.37694,-119.23013,-115.18872,-109.25834,-102.9782,-98.273163,-97.053162,-100.48784,-108.22235,-118.03136,-126.34854,-129.66574,-126.22561,-117.1097,-106.0007,-97.575188,-95.279434,-99.639526,-108.07217,-116.30146,-120.61835,-119.69711,-114.97683,-109.4333,-105.53441,-103.63262,-101.76314,-96.948669,-87.222687,-73.142838,-57.896111,-45.945679,-40.952988,-44.137417,-53.86998,-66.589233,-78.428566,-86.648682,-90.258942,-89.745041,-86.334824,-81.343384,-75.918304,-71.11171,-67.986717,-67.480667,-70.05249,-75.340759,-82.136208,-88.770256,-93.736496,-96.208961,-96.210152,-94.388451,-91.620804,-88.698143,-86.22361,-84.641716,-84.24868,-85.056,-86.627708,-88.081757,-88.406319,-86.990067,-84.057404,-80.661095,-78.125618,-77.220688,-77.592522,-77.870361,-76.498093,-72.809662,-67.674774,-63.213562,-61.656425,-63.988815,-69.209152,-74.726738,-77.701706,-76.580238,-71.886795,-65.792137,-60.737885,-57.977402,-56.945698,-55.856041,-53.100845,-48.521473,-43.686218,-40.937416,-41.80677,-45.811649,-50.465,-52.564152,-50.014805,-43.087315,-34.314476,-27.072338,-23.679476,-24.159384,-26.37505,-27.431349,-25.450554,-20.64996,-15.101962,-11.391085,-11.047596,-13.727318,-17.600891,-20.619764,-21.787205,-21.596201,-21.379808,-22.048298,-23.103296,-22.647417,-18.445585,-9.4050674,3.4854753,17.386076,28.94813,35.992645,38.554703,38.685692,39.168266,41.925655,47.076847,53.131657,58.112301,60.821884,61.45192,61.190121,61.199345,61.73196,62.042019,61.173794,59.063545,57.113415,57.706432,62.830578,72.632858,84.864677,95.707893,101.61671,101.15875,95.761223,88.900803,84.193405,83.517204,86.261681,90.124397,92.880127,93.956413,94.806755,97.825752,104.53868,114.27742,124.24919,131.04744,132.6683,129.77002,125.34013,122.93341,124.553,129.49272,134.86519,137.49994,136.01376,131.76263,128.07994,128.2599,133.57352,142.51241,151.72652,158.04665,160.3082,159.86055,159.4921,161.49132,166.10704,171.3821,174.45049,173.45235,168.86469,163.38237,160.43361,162.22064,168.48851,176.72398,183.64439,187.05286,186.96828,185.41431,185.0757,187.68486,193.1134,199.6579,205.28023,208.97226,211.39091,214.36922,219.61398,227.37085,235.91211,242.21652,243.5257,238.97815,230.38727,221.67836,217.1655,219.46603,228.09167,239.45831,248.38022,250.40378,243.87224,230.73505,215.69211,204.09088,199.59456,202.73212,210.99092,220.29161,227.02336,229.53581,228.43272,225.65225,223.0356,221.30865,220.0118,218.33696,216.1642,214.54755,215.26237,219.66403,227.63326,237.32442,245.96529,251.27966,252.68985,251.57759,250.43689,251.40579,255.08246,260.27652,264.85846,267.16809,267.1843,266.80206,269.06543,276.77863,291.18158,311.25891,333.93344,355.00012,370.38422,377.34772,375.24673,365.71017,352.10324,338.44272,328.02133,322.31857,320.59546,320.48276,319.32672,315.62778,309.8638,304.16727,301.09106,302.10001,306.72134,312.82449,317.85541,320.22668,319.98459,318.42093,316.87936,315.72046,314.11084,310.86813,305.68738,299.86337,295.8555,295.8504,300.24673,307.10129,313.03851,315.13669,312.67682,307.59348,303.2966,302.54474,305.69449,310.41318,313.04633,310.78854,303.2955,292.77435,282.56226,275.11728,270.72083,267.58316,263.19653,255.94987,245.94267,234.59883,223.45525,213.08105,202.82599,191.53787,178.56337,164.28957,149.78429,135.8586,122.31442,108.00674,91.796829,73.69545,55.353172,39.397999,27.934959,21.150761,16.947569,11.956763,3.3414807,-9.6764469,-25.516981,-41.308113,-54.654423,-64.989792,-73.743393,-83.302475,-95.525795,-110.76545,-127.93949,-145.49908,-162.51057,-179.13763,-196.22687,-214.39478,-233.2878,-251.59555,-267.74274,-280.81735,-291.03564,-299.48248,-307.28488,-314.84421,-321.63519,-326.71692,-329.57617,-330.76147,-331.84741,-334.74454,-340.73724,-349.81949,-360.6235,-370.99835,-378.88373,-383.08698,-383.68234,-381.92422,-379.77985,-379.23495,-381.62497,-387.16837,-394.94327,-403.3208,-410.7561,-416.59921,-421.396,-426.51678,-433.17245,-441.40836,-449.71841,-455.6521,-457.21262,-454.21625,-448.77567,-444.43069,-444.35498,-449.59021,-458.42599,-467.33618,-472.97897,-474.03195,-471.83725,-469.38669,-469.38455,-472.57941,-477.46487,-481.43869,-482.66492,-481.33536,-479.51239,-479.67844,-482.9743,-488.36292,-493.25427,-495.1691,-493.28616,-488.82385,-484.00388,-480.36026,-477.64508,-474.10547,-468.03415,-459.3974,-450.33365,-443.97379,-442.19501,-443.84061,-444.69818,-439.55823,-425.27246,-402.9852,-378.09717,-357.79959,-347.4873,-348.06812,-355.67581,-363.9231,-367.32526,-363.95212,-355.86642,-347.31918,-341.93433,-340.64841,-341.54758,-341.5015,-338.37161,-332.38217,-325.80643,-321.31863,-320.16846,-321.39508,-322.54559,-321.35638,-317.22705,-311.50351,-306.38971,-303.22925,-301.35138,-298.29462,-291.34909,-279.43671,-264.13364,-249.0486,-237.86549,-232.16258,-230.35402,-228.4883,-222.50356,-210.6701,-194.7359,-179.05128,-168.1153,-163.94717,-164.88622,-166.53157,-164.3674,-156.47281,-144.68954,-133.47914,-127.09777,-126.82299,-129.94131,-131.24258,-126.18253,-113.80453,-97.584183,-83.548981,-76.720863,-78.017868,-83.535675,-86.767418,-82.452126,-69.766022,-52.859291,-38.380634,-31.497887,-32.840034,-38.272858,-41.604259,-38.496803,-29.081377,-17.615568,-9.4228172,-7.1440463,-8.7866592,-8.9347057,-2.4080064,11.996634,30.167404,44.787525,49.714783,43.95129,32.669655,24.521048,26.72858,40.865517,61.824875,80.597824,89.217545,84.979942,71.584999,56.702545,47.576218,47.270542,53.623043,61.230495,65.024208,63.242294,58.175503,54.520668,56.549561,65.792236,80.400047,96.267532,109.04811,115.93021,116.44928,112.24618,106.20177,101.40898,100.29493,103.97298,111.90688,122.02254,131.39027,137.38156,138.84134,136.65117,133.30573,131.62053,133.28255,138.10271,144.40428,150.2742,154.79793,158.41853,162.17218,166.37737,169.81995,170.17877,165.57259,156.26723,145.28969,137.34843,136.48283,143.83578,156.87856,170.64487,180.29813,183.52547,181.38045,177.21735,174.45291,174.62657,176.85081,178.84183,178.67085,176.05977,172.44754,169.96628,170.11722,173.03827,177.69708,182.67436,186.87636,189.74191,191.02165,190.56802,188.51567,185.70631,183.91341,185.33644,191.46352,201.95314,214.40263,225.41083,232.43175,235.24171,235.9668,237.46791,241.08679,245.29102,246.32928,240.65962,227.65715,210.72821,195.85721,188.30292,189.44846,195.87079,201.37964,200.81921,193.29576,182.69547,175.15599,175.05254,182.11423,191.52997,197.00372,194.78017,186.04254,176.18796,171.4787,175.29865,186.39949,200.13564,211.68176,218.98434,223.48822,228.31334,235.33902,243.3528,248.62885,247.50064,239.0677,226.05766,213.18396,204.10904,199.14323,195.31503,188.80154,178.01044,165.11607,154.89098,151.55164,155.74397,163.77197,169.69426,168.94991,161.1463,150.16374,141.56227,139.0119,142.12154,147.0172,149.15645,146.36314,140.01453,133.68288,130.32158,130.10535,130.47786,128.36917,122.88623,116.44867,113.37292,116.78954,126.03005,136.42339,141.87303,138.64551,127.90217,115.23415,107.37366,108.13712,116.14813,125.7843,130.71513,127.74001,118.54298,108.34712,102.47248,103.07043,108.04979,112.70186,112.78011,106.97408,97.31514,87.519394,80.602989,77.405975,76.810829,77.151367,77.545235,78.103271,79.024994,79.523399,77.727692,71.882622,62.074123,51.070572,43.350548,42.621906,49.326416,59.858307,68.251686,69.502831,62.539463,50.954693,40.949505,37.681259,42.237053,51.062843,58.163239,58.663376,51.547424,39.98011,29.179205,23.30397,23.298473,26.882547,30.426641,31.33042,29.352423,26.237206,24.141365,24.102226,25.562178,27.094845,27.610882,27.065689,26.192425,25.611721,25.134483,23.891651,21.208063,17.473291,14.203358,13.072303,14.546432,17.174444,18.235693,15.50967,9.0490208,1.6695627,-2.3869116,0.051157434,8.9441528,20.6924,29.938597,32.543354,27.95496,19.510828,12.47074,10.961213,15.670245,23.637924,30.182735,31.689199,27.561087,20.220192,13.336382,9.5261822,8.9867792,9.8077412,9.5723267,7.0668168,2.9657238,-0.85937601,-2.7905192,-2.5995054,-1.4802437,-1.0273972,-1.95169,-3.4957955,-3.9872243,-2.1467423,1.7888575,5.9631672,7.9482131,6.2929955,1.5351422,-4.0242548,-7.6956863,-8.0800428,-5.9918103,-4.021791,-4.9881029,-10.204979,-18.609356,-27.263041,-32.919331,-33.724548,-30.100849,-24.358759,-19.35535,-17.02351,-17.596872,-19.883196,-22.288054,-23.895979,-24.939938,-26.436686,-29.283892,-33.454926,-37.822384,-40.751678,-41.123043,-39.156521,-36.521,-35.592213,-38.216736,-44.630539,-53.127914,-60.703049,-64.380203,-62.576485,-55.827362,-46.498749,-37.66571,-31.728428,-29.473972,-30.034849,-31.678728,-32.935162,-33.390846,-33.721069,-34.99617,-37.740231,-41.368061,-44.377121,-45.194828,-43.170063,-39.086067,-34.854877,-32.55154,-33.333435,-36.860043,-41.512394,-45.247307,-46.567921,-45.089443,-41.483231,-36.983635,-32.874405,-30.270535,-30.205667,-33.741261,-41.771095,-54.458996,-70.620171,-87.557808,-101.71011,-109.97987,-111.15789,-106.63571,-99.921455,-95.097733,-94.965881,-99.841515,-107.61335,-115.00417,-119.29469,-119.56554,-116.84233,-113.18338,-110.35566,-108.90832,-108.14259,-106.8634,-104.33821,-100.82115,-97.338348,-94.94696,-94.019516,-94.041451,-94.014732,-93.167015,-91.421982,-89.315353,-87.40844,-85.651306,-83.160324,-78.62352,-71.118271,-60.816597,-49.137051,-38.222248,-30.052425,-25.708565,-25.179081,-27.72908,-32.519539,-39.035389,-47.088913,-56.485317,-66.690605,-76.799408,-85.831718,-93.125336,-98.455612,-101.75293,-102.60985,-100.01629,-92.687279,-79.954521,-62.752831,-44.024345,-28.090151,-19.12092,-19.412971,-28.365257,-42.758068,-58.214451,-71.081955,-79.755836,-84.801193,-87.961983,-90.760841,-93.574768,-95.67704,-96.091347,-94.571632,-92.001801,-89.934959,-89.633705,-91.287277,-93.970749,-96.366745,-97.72451,-98.352722,-99.275566,-101.28751,-104.0948,-106.23936,-105.94025,-102.36638,-96.457733,-90.649246,-87.562332,-88.424057,-92.234703,-96.28051,-97.742165,-95.434837,-90.567162,-86.013863,-84.522285,-86.959602,-91.710571,-95.625061,-95.929741,-91.929253,-85.45507,-79.800758,-77.837166,-80.456093,-86.255486,-92.533302,-96.88974,-98.401352,-97.719749,-96.224892,-94.938652,-93.997795,-92.972244,-91.666206,-90.664597,-91.126221,-93.907356,-98.659058,-103.63534,-106.46427,-105.45447,-100.56096,-93.329048,-85.789177,-79.020134,-72.360764,-63.87746,-51.857788,-36.397278,-20.028839,-6.9040284,-0.92834365,-3.9009171,-14.701567,-29.922058,-45.500828,-58.393433,-67.420837,-73.041275,-76.44104,-78.650002,-80.170685,-81.132286,-81.603928,-81.704742,-81.449944,-80.603874,-78.832581,-76.17717,-73.477379,-72.267708,-73.977394,-78.826691,-85.198204,-90.098267,-90.687881,-86.042694,-78.01561,-70.466995,-67.141678,-69.396233,-75.208084,-80.20356,-80.202637,-73.777481,-63.239571,-53.413254,-48.894043,-51.467289,-59.232635,-67.906227,-73.385254,-73.927078,-70.623337,-66.05658,-62.225277,-59.269051,-55.844555,-50.764515,-44.541557,-39.503933,-38.170448,-40.918785,-44.655781,-43.738525,-32.955463,-10.96117,17.964962,45.109356,61.071095,60.130836,42.909672,15.940209,-11.510646,-31.562672,-40.671165,-40.123688,-34.318382,-28.146942,-24.99387,-26.134689,-31.270658,-39.362957,-49.047131,-58.571491,-65.739174,-68.386421,-65.387627,-57.582317,-47.834545,-39.876152,-36.417477,-37.603592,-40.803684,-41.959351,-37.760197,-27.387487,-12.836761,2.2819614,14.63987,22.62038,26.518799,27.633026,27.046675,25.015234,21.299032,16.040487,10.37931,6.2229872,5.2607055,7.9102054,12.97965,18.332853,22.135406,23.826941,24.178684,24.439745,25.240952,26.095917,25.881994,23.956314,21.045334,19.177279,20.581484,26.247437,35.114494,44.489891,51.471889,54.467361,53.839268,51.306797,48.580112,46.232391,43.592857,39.711346,34.614235,29.844856,27.76148,29.963066,35.924599,42.870941,47.16766,46.471546,41.310421,35.023399,31.973358,35.029831,43.810059,54.744122,62.954472,64.868675,60.087387,51.495255,43.647835,40.413342,43.185913,50.526081,59.229622,66.049103,69.112251,68.397217,65.280624,61.640594,59.066265,58.496681,60.218113,63.992176,69.146271,74.628723,79.185425,81.708649,81.662926,79.317772,75.584221,71.481216,67.51297,63.357647,58.097099,50.915047,41.852955,32.174328,24.051117,19.67802,20.241747,25.27116,32.715263,39.748577,43.938419,44.236809,41.340397,37.252121,34.2533,33.775967,35.726311,38.605896,40.385914,39.689693,36.650379,32.934696,30.862408,32.071503,36.479141,42.183407,46.43652,47.179169,44.248127,39.49474,35.696381,34.874214,37.049137,40.232929,41.70945,39.829132,35.170517,30.292376,28.170307,30.286612,35.598965,41.099697,43.662193,42.032204,37.681648,33.955849,34.012863,38.842785,46.615047,53.76368,57.126076,55.789707,51.523285,47.584,46.720821,49.648926,54.900944,60.010151,63.145123,64.071754,63.895447,63.898083,64.404358,64.550858,63.101261,59.683178,55.471508,52.704617,53.274944,57.304558,62.729965,66.292191,65.415489,59.866089,52.136784,46.290043,45.875175,52.078232,63.107033,75.075806,83.84964,86.852623,83.99736,77.412254,70.27655,65.384735,64.059593,65.764,68.446754,69.465126,66.750275,59.83646,50.315258,41.422894,36.773319,38.704651,47.023533,58.887104,70.044952,76.897331,78.293823,76.025894,73.67762,74.465149,79.351219,86.585487,92.963898,95.995155,95.571968,94.039917,94.586983,98.999718,106.27793,113.07247,115.71838,112.58873,105.24718,97.642227,93.83139,95.665764,101.87698,109.06031,113.8483,114.85664,113.18372,111.29149,111.12757,112.79296,114.59724,114.35432,110.95374,105.15321,99.128899,95.22039,94.777092,97.799316,103.42468,110.65767,118.69214,126.62225,132.98593,135.79915,133.40228,125.66296,114.64162,103.98746,97.147072,95.417641,97.130638,98.680382,96.893196,91.256889,84.49337,80.949814,83.731018,92.420883,102.9675,109.94576,109.85596,103.34135,94.833374,89.759735,91.052879,97.193146,103.09501,103.33183,95.676575,82.711143,70.459793,64.868324,68.308167,78.233238,88.760483,94.129951,91.892982,83.953621,74.983681,69.369751,68.657913,71.007103,72.805069,71.255623,66.234924,60.30563,57.004177,58.578243,64.598335,72.223755,77.856949,79.120583,76.01194,70.663498,65.98587,64.041016,65.048592,67.471489,69.041588,68.126755,64.733246,60.651653,58.649033,61.042957,68.284607,78.254211,86.75972,89.204491,82.804337,68.307999,50.223557,35.189075,29.065802,34.115582,47.746601,63.595856,74.511856,75.942627,67.963257,54.914444,42.917984,36.695705,37.411301,42.568867,47.77758,49.181385,45.173317,36.644714,26.018692,15.963795,8.6106272,5.4783688,7.6589584,15.66226,28.785862,44.505493,58.680473,66.945091,66.79509,59.163445,48.321209,39.852139,37.657219,41.728752,48.08614,51.045322,46.549076,34.572552,19.158575,6.0674038,-0.49457136,-0.080716811,4.1408448,7.667552,7.5366268,3.9657347,-0.18334812,-1.6250894,1.0069522,6.2382622,10.787503,11.785477,8.6484699,3.3983488,-0.73586583,-1.4506061,1.1636453,4.7171259,6.0414395,3.0988703,-3.9069009,-12.816004,-20.881813,-26.294241,-28.961636,-30.227945,-31.882677,-35.146976,-40.188061,-46.260693,-52.201828,-56.910965,-59.649933,-60.175297,-58.829857,-56.564056,-54.754158,-54.732079,-57.148888,-61.553387,-66.535645,-70.498032,-72.645317,-73.558403,-74.895638,-78.309441,-84.259041,-91.509087,-97.743004,-100.95438,-100.72137,-98.51252,-96.767776,-97.361664,-100.4761,-104.6632,-108.04662,-109.80316,-110.85216,-113.21101,-118.44458,-126.30838,-134.60468,-140.44406,-142.08073,-140.02611,-136.59435,-134.11211,-133.01094,-131.22058,-125.44459,-113.63645,-97.046425,-80.390366,-69.794304,-69.615524,-80.023323,-96.820793,-113.66113,-125.32362,-130.14679,-130.25754,-129.66362,-131.55428,-136.54018,-142.80466,-147.84966,-150.48088,-151.65553,-153.66121,-158.28963,-165.34663,-172.55664,-176.94957,-176.81705,-172.91504,-168.13831,-165.86887,-168.03996,-174.10236,-181.45715,-186.98541,-188.71361,-186.63773,-182.40683,-178.20158,-175.62892,-175.20396,-176.5578,-178.99014,-181.90681,-184.87544,-187.43532,-188.98801,-188.98088,-187.28471,-184.44896,-181.51865,-179.39362,-178.06842,-176.25485,-171.71091,-162.25467,-147.00439,-127.2253,-106.3216,-88.859169,-78.978371,-78.821365,-87.6427,-102.02211,-117.16693,-128.8271,-135.00172,-136.64148,-136.90639,-139.20905,-144.96767,-152.25618,-156.24637,-151.47214,-134.88536,-108.14522,-77.747261,-52.692051,-40.683926,-44.73518,-61.911053,-84.868561,-105.34795,-117.78626,-121.22075,-118.71383,-114.90968,-113.28996,-114.66791,-117.521,-119.62516,-119.75152,-118.36179,-117.06097,-117.39552,-119.93393,-124.19577,-129.28969,-134.63275,-140.14397,-145.82666,-151.2094,-155.24599,-156.89714,-156.03896,-153.93042,-152.77449,-154.49377,-159.47946,-166.19518,-171.96465,-174.5029,-173.19557,-169.31314,-165.06128,-162.16003,-160.9713,-160.73433,-160.61716,-160.70375,-162.02904,-165.58476,-171.0199,-176.17969,-178.06322,-174.77684,-167.17867,-158.92801,-154.62639,-157.01936,-165.04678,-174.12219,-178.67268,-175.50543,-165.85777,-154.78806,-148.15591,-149.02379,-155.73181,-162.90884,-164.81715,-158.96593,-147.71683,-136.8759,-132.13197,-135.57339,-144.41783,-152.7198,-154.9489,-149.23778,-138.34904,-127.87727,-122.87889,-125.01144,-131.83,-138.5125,-140.81937,-137.48688,-130.68896,-124.49053,-122.34802,-125.16105,-130.9183,-135.96815,-137.05734,-133.00139,-125.1582,-116.62536,-110.70041,-109.394,-112.63113,-118.41254,-123.75881,-126.01125,-123.95435,-118.29974,-111.3111,-105.70216,-103.29082,-104.06584,-106.20866,-107.1201,-104.94982,-99.772408,-93.654465,-89.486412,-89.193947,-92.388237,-96.347748,-97.459236,-93.361053,-84.531395,-74.325333,-67.335152,-66.918861,-73.251381,-82.970726,-90.622643,-91.132576,-82.04744,-64.509453,-42.648331,-21.868103,-6.9105234,-0.47547826,-2.7396278,-11.666455,-23.807005,-35.298019,-42.890484,-44.824734,-41.326351,-34.444935,-27.162458,-22.047335,-20.067669,-20.218882,-20.236374,-18.047838,-13.12456,-6.8802609,-1.8091302,0.18005489,-0.7825346,-2.231488,-0.52060378,7.1583743,21.0294,38.281902,54.220085,64.420906,66.778038,62.390461,54.942711,48.975708,47.983528,53.199974,63.501385,76.241058,88.488045,98.085587,104.19469,107.2632,108.6085,109.80892,112.14061,116.18206,121.71049,127.89257,133.69392,138.34422,141.63152,143.92815,145.97592,148.58134,152.36031,157.60059,164.1749,171.44118,178.19978,182.85538,183.94594,180.94977,174.95354,168.6937,165.62871,168.32877,176.98514,188.97293,199.94963,206.0703,206.10316,202.15787,198.45885,198.7865,204.1369,212.11902,218.5686,220.43016,218.04024,215.20016,216.81387,225.51855,239.51556,253.2438,260.75507,259.82944,254.19992,252.20462,262.34988,288.19009,325.55844,363.90659,391.1806,399.60938,389.24359,367.40323,344.57892,329.1846,324.08749,326.50882,330.89929,332.70239,330.75476,327.20065,325.37589,327.36267,332.741,339.14349,343.96198,345.90253,345.47256,344.2782,343.83203,344.78699,346.9534,349.89505,353.41223,357.49854,361.8385,365.38092,366.53955,364.0434,357.95627,350.10001,343.47202,340.83789,343.29382,349.6488,357.04593,362.48395,364.44211,363.68945,362.88776,365.16879,372.46393,384.38974,398.22464,410.01114,416.30197,415.77579,410.00607,402.95557,399.28174,402.17487,411.68774,424.492,435.38315,439.88879,436.71716,428.66153,421.24341,419.7641,426.29465,438.4155,450.54877,457.20764,456.26584,450.25079,444.79919,445.18509,453.08759,465.66299,477.50845,484.28259,485.60693,485.26129,488.56128,498.57993,513.75317,528.53723,536.74323,535.36829,526.4704,515.73346,508.7767,507.67633,509.98602,510.92908,507.22012,499.75327,493.33615,493.53128,502.78546,518.59668,535.00568,546.50842,551.68042,553.98566,559.00726,570.04053,584.93372,596.646,597.33374,583.51434,558.94531,533.21063,516.76923,515.3501,527.1012,544.09418,557.0293,560.27502,554.11896,543.34143,533.35303,526.73651,522.24542,516.59143,507.36926,494.86368,481.46786,469.39371,458.46335,445.815,427.79755,402.72116,372.47113,341.71436,315.14719,294.58417,277.80725,259.93198,236.32503,205.14903,167.95445,128.16869,88.723198,50.541607,12.856094,-25.141247,-62.760284,-97.712189,-127.6355,-152.13036,-173.71001,-196.7765,-225.13443,-259.63742,-297.57617,-334.26428,-365.84332,-391.47021,-413.50784,-435.69324,-460.60663,-488.12964,-515.90369,-541.29065,-563.37396,-583.46869,-603.8667,-625.62891,-647.15308,-664.61005,-674.12494,-674.3606,-667.81952,-659.99951,-656.82751,-661.93542,-675.27789,-693.7511,-713.2547,-730.82043,-745.65649,-758.72125,-771.4361,-784.53455,-797.70081,-810.02936,-820.73969,-829.48767,-836.21313,-840.67963,-842.37384,-840.85809,-836.38776,-830.28809,-824.66077,-821.46271,-821.52673,-824.11005,-827.23737,-828.69196,-826.98938,-821.82874,-813.86523,-804.06702,-793.15338,-781.51172,-769.47809,-757.70654,-747.25824,-739.24469,-734.23523,-731.74072,-730.17596,-727.3028,-721.05029,-710.39386,-696.00513,-680.36011,-667.20459,-660.36664,-662.263,-672.60541,-687.99835,-702.85663,-711.44415,-710.2829,-699.6665,-683.50281,-667.35272,-655.71973,-650.01666,-648.3548,-647.26398,-644.10669,-638.63843,-632.73578,-628.39459,-625.53827,-621.27063,-611.26221,-592.63763,-566.38129,-537.58673,-513.12372,-497.97107,-492.5032,-492.45532,-491.64862,-485.76935,-474.83875,-462.74521,-454.28189,-451.63947,-452.75046,-452.58289,-446.52356,-433.60162,-417.3378,-403.67114,-397.28357,-398.73511,-404.22165,-408.03622,-406.07483,-398.06631,-387.24136,-377.85974,-372.40878,-370.38025,-369.27261,-366.84323,-362.85504,-358.98749,-357.06604,-357.05368,-356.4278,-351.60135,-340.43298,-324.04788,-306.55081,-292.66483,-284.83765,-281.77103,-279.38705,-273.62836,-263.14365,-250.06667,-238.36211,-230.94441,-227.6032,-225.1985,-219.96271,-210.25858,-197.79378,-186.4032,-179.22021,-176.25493,-174.14258,-168.33162,-156.23474,-139.16368,-121.62431,-108.38664,-101.27772,-97.911209,-93.282974,-83.236076,-67.487755,-50.162178,-37.402817,-33.558037,-38.385303,-47.075207,-53.055279,-51.790531,-43.182926,-31.160606,-20.836914,-15.136988,-12.990876,-10.09517,-1.5880793,15.122128,39.058968,66.474792,92.978241,115.52881,133.19971,146.53073,156.28033,162.5696,164.95702,163.21008,158.02646,151.11188,144.55186,139.96489,138.0174,138.56319,141.14647,145.39909,151.01817,157.42738,163.55365,168.03452,169.84306,168.88281,166.10229,162.96107,160.61761,159.40753,159.02118,159.23131,160.59685,164.5233,172.50186,184.99222,200.71971,216.94934,230.66505,239.92566,244.58315,245.92583,245.56635,244.39258,242.30893,238.88831,234.36292,230.12843,228.24846,230.24632,236.00922,243.64629,250.53955,254.96681,257.25449,259.66428,265.02316,274.91641,288.55417,303.04013,314.80951,321.38818,322.44629,319.60522,315.34695,311.74539,309.81223,309.65945,311.10693,314.16983,319.02777,325.64438,333.42917,341.31958,348.28705,353.85471,358.2132,361.78036,364.58719,366.00632,365.13321,361.67624,356.64413,352.27368,351.00452,354.05658,360.50708,367.56406,372.0209,372.07104,368.40237,363.86996,361.86304,364.35709,370.81369,378.59598,384.6532,387.41977,387.75549,388.3154,391.74112,398.73596,407.31604,413.70239,414.51077,408.92947,399.64624,391.79947,390.4231,397.69849,411.56128,426.61472,436.9794,439.64273,436.41562,433.21463,436.81775,450.75064,472.62881,494.70731,507.61212,505.42303,489.15613,466.54477,447.92633,440.52332,444.51926,453.41376,458.67795,455.845,448.08386,444.59958,454.43015,479.4057,511.008,533.83917,534.27948,509.30157,469.76782,435.36191,423.59457,439.20316,470.64737,496.43787,497.93292,470.96786,428.84381,394.39697,385.57983,403.46463,430.56219,441.05679,417.12302,361.1821,296.04382,252.16473,249.41382,284.54803,332.45676,360.89191,349.93307,304.20007,250.08234,219.45828,229.82494,273.20181,320.8096,340.69333,317.40323,261.41254,202.41594,170.73405,178.52539,212.56898,243.07426,242.81631,204.43456,145.01108,95.208191,80.009178,103.38177,146.43044,179.89523,182.70515,154.59583,114.92921,88.913597,90.587944,113.86173,137.35651,139.60851,114.28117,75.052132,46.733658,48.383259,79.664185,119.7385,139.86745,121.80528,70.070038,9.8919458,-28.200182,-27.487722,4.3508496,40.116119,50.513264,23.137028,-29.124245,-75.756271,-87.696365,-55.877586,2.4517357,53.655777,67.758347,36.19611,-23.595642,-79.312508,-103.40909,-88.92498,-51.922409,-19.594891,-12.108666,-29.929356,-54.545143,-61.740219,-38.556358,7.1385999,50.678658,65.682419,40.641109,-13.436487,-69.104889,-98.519676,-89.589973,-52.519135,-13.040163,3.2406139,-14.170497,-55.146523,-95.729301,-112.71142,-97.197205,-59.407593,-22.459433,-9.2199163,-29.866978,-76.807922,-129.08003,-163.20175,-164.49307,-133.39134,-84.37767,-38.88279,-15.934772,-24.65099,-61.302517,-111.61388,-157.05255,-182.59433,-182.95688,-164.68166,-142.89029,-133.73979,-145.86621,-175.16426,-206.11504,-219.70799,-204.2191,-162.92628,-113.9077,-81.248474,-82.032127,-116.43628,-166.99638,-208.02661,-220.10764,-201.21307,-167.69397,-144.20526,-148.42435,-179.73639,-218.98334,-239.74567,-224.60178,-176.5766,-118.71406,-81.705528,-86.688065,-133.23901,-199.55823,-254.63452,-275.29828,-258.34564,-221.10545,-190.56895,-187.71626,-215.95328,-259.84482,-294.18365,-297.91095,-265.16092,-207.93437,-149.70876,-113.9365,-113.40907,-145.32314,-193.66652,-237.0679,-258.25641,-251.0914,-222.52415,-188.94766,-168.51041,-172.53831,-199.76031,-236.22665,-261.53995,-259.04343,-225.2019,-173.06238,-127.18879,-111.78176,-137.76799,-195.91536,-260.35416,-301.34787,-300.80594,-262.02927,-207.94812,-168.57231,-164.44527,-195.47346,-241.49133,-274.23981,-273.81165,-240.06828,-192.47545,-158.63113,-158.25136,-191.90947,-240.87659,-277.91217,-282.63272,-252.70973,-204.84521,-165.33391,-155.75606,-181.64276,-229.93645,-276.09357,-296.66235,-280.7453,-234.86809,-179.31873,-138.2933,-128.73941,-153.00069,-198.29971,-242.99979,-266.63,-259.24844,-225.92918,-184.33344,-156.26341,-156.99164,-187.35683,