Bandpass,0,0.27021,-275.33981,2292.6267,3379.499,2797.0811,1134.9938,-482.93555,-1100.9231,-540.17633,544.3576,1191.9325,849.13269,-252.45512,-1309.9061,-1569.3162,-881.15967,211.88257,897.84351,697.72339,-200.48048,-1108.0343,-1358.9247,-793.33215,149.18863,776.95215,660.72949,-66.907272,-835.64203,-1074.7268,-629.93854,143.28377,663.68726,560.40967,-64.300461,-730.29883,-947.26807,-574.03619,92.960808,555.0354,484.33936,-44.019508,-624.44458,-831.83002,-533.50549,25.906485,419.08084,356.00076,-109.64952,-633.56116,-843.54321,-611.2782,-134.55444,221.66338,198.79634,-171.74753,-604.88232,-781.81342,-584.94885,-175.51135,136.0392,123.20902,-194.45183,-575.7052,-742.69525,-584.86102,-232.19405,49.906666,59.794872,-196.47101,-518.81689,-667.52222,-539.55743,-237.46622,14.541847,39.251591,-166.87126,-439.36261,-573.60638,-476.02179,-227.23117,-15.122222,7.418788,-167.20206,-402.1076,-522.32526,-444.29645,-232.85603,-47.245205,-20.509289,-163.3718,-361.80353,-465.99918,-401.74399,-221.74956,-61.944969,-38.666462,-164.34946,-342.52325,-442.43237,-395.49295,-242.35646,-98.461853,-66.783089,-163.69044,-311.32703,-398.98624,-365.51971,-241.62611,-122.94455,-96.775017,-178.17357,-301.87482,-373.60266,-340.65988,-229.21808,-122.27552,-96.757896,-167.40825,-278.24637,-345.97763,-321.61255,-224.63397,-125.94893,-94.193604,-146.06714,-236.71007,-295.40472,-278.57962,-200.65117,-121.07365,-98.8554,-149.10976,-233.33342,-289.21878,-276.73776,-206.30524,-129.25432,-99.078148,-132.78958,-200.42213,-249.04851,-242.34189,-186.24472,-122.70609,-97.464127,-126.46917,-185.45665,-229.26375,-225.55042,-177.76405,-121.09622,-95.52581,-116.53094,-164.8622,-201.99316,-198.92339,-156.84537,-105.03011,-78.458359,-92.304367,-131.89983,-164.75043,-164.90251,-131.45471,-88.085663,-64.8172,-76.02861,-110.78361,-141.86292,-146.0686,-120.5957,-83.87265,-61.081898,-65.624512,-90.128998,-112.98264,-114.81833,-92.489449,-60.559158,-39.911816,-42.432602,-63.041687,-84.398689,-90.110619,-76.368423,-53.693623,-38.176342,-39.267906,-53.248344,-66.745239,-67.02005,-50.965611,-26.238016,-4.2271991,9.2739697,18.407665,33.440868,62.013062,102.35262,143.7175,173.71436,186.93164,188.3998,189.35869,198.59187,215.83185,232.09425,236.58966,225.01788,203.12915,183.01537,174.93315,180.61337,192.75339,200.78352,198.51045,188.11383,177.88011,175.7103,183.37498,195.65517,204.69437,206.03345,201.74193,198.44824,201.98921,212.8678,225.94962,234.51968,235.52193,231.97911,230.79201,237.61743,252.68465,270.64383,284.48721,290.56094,290.93896,291.46426,297.01486,307.586,318.11823,322.18164,316.77142,304.68057,292.73099,287.18158,289.64502,296.39172,301.39578,300.7785,295.39621,289.80728,288.56738,292.72214,299.1076,302.89194,301.35733,296.03067,291.552,292.12421,298.18988,305.81198,309.25168,304.91461,293.86584,281.16888,272.57455,270.9166,274.67133,279.50906,281.53619,279.84103,276.62851,275.08008,276.70593,280.19897,282.55569,281.49002,277.23785,272.38184,269.86484,270.72278,273.25235,274.23218,271.29059,264.6897,257.25208,252.51828,252.466,256.36163,261.43576,264.77231,265.03732,262.94382,260.36612,258.96606,259.38202,261.40778,264.72128,269.33459,275.30957,282.05609,288.01682,291.28717,290.90756,287.85767,284.81821,284.60797,288.25272,294.08026,298.64084,298.98199,294.76627,288.70523,284.88617,286.04327,291.63181,298.07953,301.11533,298.62323,292.07016,285.5119,282.84326,285.17001,290.09421,293.38333,291.85657,285.50937,277.45737,271.80127,270.92499,274.0712,278.09381,279.76147,277.95563,274.26068,271.63074,272.16653,275.60437,279.54584,281.19177,279.30124,274.99084,270.85587,269.08212,269.89081,271.37564,270.7955,266.39825,258.54498,249.44171,241.74786,237.03735,235.08803,234.33571,233.04025,230.31648,226.401,222.13206,218.15492,214.4678,210.58554,206.1075,201.2023,196.63049,193.29398,191.64308,191.3497,191.45155,190.85625,188.89096,185.59869,181.66437,178.05952,175.60149,174.61578,174.81479,175.42429,175.51518,174.4218,172.06389,168.98775,166.05383,163.90005,162.48904,161.05479,158.54839,154.34656,148.76172,142.96378,138.29124,135.36407,133.6022,131.53317,127.75224,121.92767,115.1618,109.41508,106.32222,106.15432,107.60123,108.51053,107.09177,102.81165,96.45993,89.457458,82.976128,77.486931,72.944061,69.281639,66.676651,65.288345,64.71431,63.754086,60.921001,55.550137,48.760422,43.431416,42.914814,49.082859,60.897846,74.5028,84.931686,88.494873,84.424889,74.825569,63.067055,51.772713,41.753132,32.512062,23.785343,16.806025,14.169857,18.198895,28.851677,42.688053,53.810928,56.448509,47.74984,29.181211,5.7502418,-16.413462,-32.688473,-41.415787,-43.683899,-42.022472,-39.102558,-37.218254,-38.4963,-45.123196,-58.905354,-80.149353,-106.62299,-133.58942,-155.34637,-167.68974,-169.9649,-165.44012,-159.65608,-157.6113,-161.35745,-169.33437,-177.72325,-182.9093,-183.556,-181.13771,-178.78322,-179.29056,-183.56627,-190.34625,-197.19301,-202.01691,-204.17276,-204.57924,-204.96672,-206.83788,-210.76697,-216.33121,-222.54025,-228.39265,-233.23898,-236.85565,-239.33598,-240.95413,-242.07503,-243.08197,-244.27582,-245.76318,-247.41594,-248.96684,-250.20813,-251.16025,-252.07558,-253.25558,-254.80916,-256.54581,-258.11221,-259.29745,-260.28448,-261.63434,-263.9646,-267.50879,-271.85455,-276.06744,-279.16074,-280.63751,-280.76932,-280.43417,-280.61258,-281.85214,-284.01877,-286.4585,-288.4314,-289.52283,-289.78482,-289.56363,-289.18326,-288.7334,-288.10858,-287.246,-286.35608,-285.94147,-286.55045,-288.40765,-291.16788,-293.98264,-295.88025,-296.2666,-295.2659,-293.70132,-292.70941,-293.18222,-295.32617,-298.5668,-301.85056,-304.1918,-305.18744,-305.2326,-305.31445,-306.46994,-309.16809,-312.93375,-316.43097,-318.00928,-316.47983,-311.75256,-305.00461,-298.26306,-293.57117,-292.12347,-293.78214,-297.20264,-300.49454,-302.07825,-301.31744,-298.64413,-295.17316,-292.06293,-289.98242,-288.94312,-288.52011,-288.26678,-288.03943,-288.03952,-288.57507,-289.72229,-291.12341,-292.0654,-291.80801,-289.97809,-286.80701,-283.07779,-279.81006,-277.84827,-277.55832,-278.75949,-280.87924,-283.198,-285.02423,-285.71753,-284.60733,-280.95105,-274.06857,-263.67047,-250.2375,-235.20963,-220.78743,-209.33409,-202.59637,-201.10117,-204.03143,-209.65141,-216.06227,-221.89499,-226.599,-230.2381,-233.00409,-234.8175,-235.29726,-234.10612,-231.39807,-228.00185,-225.14206,-223.82146,-224.24847,-225.705,-226.98709,-227.17467,-226.24367,-225.09799,-224.9438,-226.34979,-228.56303,-229.53407,-226.70506,-218.17154,-203.60748,-184.4731,-163.42288,-143.25829,-125.9794,-112.37872,-102.27469,-95.117493,-90.529221,-88.441444,-88.79213,-91.044785,-93.922531,-95.625443,-94.502167,-89.838394,-82.300705,-73.710892,-66.1819,-61.023647,-58.014889,-55.491982,-51.275719,-43.963631,-33.84964,-22.889032,-13.657743,-7.8708272,-5.3466091,-4.0925989,-1.5309682,3.8422081,11.394267,18.59972,22.500555,21.504446,16.390842,9.8731394,4.9912548,3.3781831,4.5324354,6.5512934,7.7808905,8.1962156,9.5024986,13.8457,22.030918,32.552361,42.225758,48.102856,49.403469,48.104168,47.686058,50.803078,57.419022,64.703224,68.809387,67.369034,61.004528,52.799812,46.052608,41.836746,38.087036,30.930929,17.476917,-1.7549881,-22.410187,-38.27602,-44.523518,-40.280594,-29.032608,-16.692551,-8.5549383,-6.8843117,-10.326015,-15.127291,-17.148682,-13.439593,-2.7516091,14.777883,38.068077,65.163345,93.039612,117.71746,135.14305,142.68262,140.44446,131.51729,120.76936,112.73878,109.7551,111.32291,115.02566,118.28564,119.85463,120.19301,120.69279,122.44505,125.45289,128.76231,131.28496,132.62878,133.33762,134.44365,136.75175,140.41252,145.03816,150.14716,155.47798,160.87923,165.90924,169.59654,170.73465,168.65053,163.92865,158.47661,154.71121,154.26923,157.05367,161.27954,164.54921,165.28842,163.6088,161.0388,159.3372,159.2384,160.02132,160.2052,158.85954,156.5549,155.21033,156.87425,162.26398,170.12776,177.98201,183.83986,187.81062,192.42705,201.30333,216.7843,237.9494,260.22369,276.97562,282.36044,273.96335,253.90112,227.87688,202.74149,183.81836,173.23863,169.89796,170.77946,172.77435,174.04617,174.39265,174.66957,175.80545,178.04295,180.79276,183.07242,184.16664,184.0602,183.37883,182.89731,182.9505,183.14899,182.62317,180.69211,177.5687,174.63965,174.06143,177.79112,186.52104,199.09451,212.77307,224.29108,231.21194,232.9196,230.75197,227.21834,224.70885,224.35439,225.60213,226.69415,225.77725,222.062,216.43813,211.22549,209.16194,212.09279,219.9765,230.68718,240.74361,246.67458,246.43082,240.21315,230.3396,220.21191,212.86331,209.76122,210.39705,212.78787,214.55931,214.02423,210.74963,205.44994,199.43379,194.02023,190.23138,188.77196,190.06117,194.08231,200.06093,206.27158,210.34143,210.1524,204.98267,196.20343,186.94655,180.70599,179.52846,182.82683,187.60414,190.08862,187.90291,181.49152,173.90654,169.01996,169.20465,173.88754,179.86734,183.20952,181.54962,175.38634,167.58719,161.46248,158.65869,158.21184,157.33116,153.36406,145.64673,136.05058,127.89647,123.96015,124.83869,128.66583,132.26224,132.91083,129.62683,123.22993,115.371,107.33001,99.444016,91.463509,83.407295,76.127281,71.051849,69.248283,70.519272,73.293602,75.528877,76.098984,75.722229,76.725388,81.689011,91.786102,105.87311,120.94239,133.6814,142.17967,146.74251,149.35751,152.22321,156.31544,160.88815,164.15273,164.61456,162.15912,158.20387,154.87325,153.76837,155.10252,157.67004,159.56538,159.1449,155.68332,149.46745,141.4525,132.79855,124.54127,117.43355,111.857,107.72881,104.47452,101.20876,97.167831,92.211914,87.061279,83.015038,81.217232,81.87867,83.969604,85.651283,85.247391,82.182793,77.307526,72.404892,69.20546,68.535179,70.103531,72.977043,76.315475,79.806511,83.514008,87.337334,90.598091,92.17688,91.182098,87.674194,82.853607,78.461128,75.710754,74.461014,73.232513,70.132751,64.12117,55.779934,47.053307,40.09359,35.949036,33.940746,32.121464,28.499775,22.226868,14.001485,5.4924927,-1.7751497,-7.3130307,-11.794213,-16.418705,-22.026424,-28.571062,-35.249393,-41.097874,-45.578712,-48.766144,-51.100796,-53.008369,-54.726078,-56.435352,-58.487587,-61.404987,-65.543121,-70.649994,-75.750648,-79.623184,-81.691826,-82.759453,-84.971252,-90.830223,-101.72733,-116.8678,-133.34746,-147.48514,-156.73848,-161.1149,-163.23225,-166.94456,-175.28279,-188.84433,-205.49367,-221.47478,-233.26569,-239.15964,-239.80171,-237.54221,-235.09261,-234.24754,-235.27211,-237.11826,-238.20535,-237.29439,-234.04688,-229.08594,-223.62241,-218.87129,-215.53278,-213.56129,-212.31754,-211.02332,-209.27795,-207.3334,-205.93279,-205.76997,-206.8959,-208.49266,-209.25275,-208.21074,-205.51797,-202.5955,-201.4389,-203.40678,-208.239,-214.00546,-218.14992,-219.07384,-217.27806,-215.26579,-216.14651,-221.71799,-231.1955,-241.41838,-248.47432,-249.79941,-245.50438,-238.15161,-231.16545,-226.88547,-225.44751,-225.1026,-223.65591,-220.03291,-214.97696,-210.51138,-208.61296,-210.00165,-213.78633,-218.08463,-221.10889,-221.99521,-220.94055,-218.7435,-216.21611,-213.90358,-212.19527,-211.54839,-212.47089,-215.17068,-219.1467,-223.14925,-225.72049,-226.07796,-224.76591,-223.55507,-224.52554,-228.83012,-235.90668,-243.67865,-249.67735,-252.43036,-252.27586,-251.11119,-251.23753,-254.00603,-259.06308,-264.60013,-268.40268,-269.04889,-266.58325,-262.35245,-258.18826,-255.44981,-254.44409,-254.4726,-254.40263,-253.41792,-251.55667,-249.77353,-249.47908,-251.74063,-256.49698,-262.19171,-266.1051,-265.36932,-258.27695,-245.24619,-228.86598,-212.86983,-200.47948,-192.98433,-189.36528,-187.20535,-184.35341,-180.31076,-176.44711,-174.88451,-176.77087,-181.11334,-185.02351,-185.31395,-180.46205,-171.65665,-162.1918,-155.54291,-153.3374,-154.52466,-156.26807,-155.9445,-152.90207,-148.80339,-146.34804,-147.27362,-151.01926,-154.97206,-156.12354,-152.99736,-146.53658,-139.37053,-134.00717,-131.22736,-129.78958,-127.6088,-123.52038,-118.31975,-114.27908,-113.42964,-115.80247,-118.90619,-118.91637,-112.89903,-100.67234,-85.11013,-70.672829,-61.06065,-57.397156,-57.959663,-59.473114,-59.049191,-55.572895,-49.831215,-43.549728,-38.147152,-34.04274,-30.822498,-27.921789,-25.182545,-22.860855,-21.173128,-19.856487,-18.188419,-15.507948,-11.837029,-8.0745773,-5.5323997,-5.0838866,-6.5196886,-8.5969086,-9.7916336,-9.2599354,-7.3459587,-5.2776003,-4.2527533,-4.5477905,-5.2705693,-4.9368119,-2.4800234,1.9947472,7.2271566,11.576475,14.031985,14.78717,15.012959,16.009418,18.321569,21.405195,24.036812,25.15913,24.580647,23.079069,21.881475,21.910334,23.309658,25.534615,27.877911,30.013809,32.16095,34.770908,38.009834,41.455963,44.276752,45.7915,46.026691,45.845913,46.511398,48.923595,53.024166,57.76627,61.701389,63.832172,64.199715,63.831863,64.07917,65.751831,68.598358,71.454826,72.975937,72.498825,70.509293,68.424881,67.823654,69.576691,73.389496,78.003525,81.916412,84.187332,84.869583,84.85643,85.278038,86.834038,89.449265,92.417015,94.892464,96.40683,97.093185,97.520668,98.282738,99.624176,101.34151,102.99846,104.29078,105.30492,106.49355,108.38155,111.19381,114.64979,118.06643,120.71781,122.23775,122.82114,123.09922,123.76083,125.14484,127.04708,128.85606,129.93445,130.01649,129.38397,128.71764,128.71704,129.71837,131.53616,133.61371,135.37766,136.57133,137.3642,138.18375,139.39626,141.05606,142.89088,144.52817,145.80034,146.90933,148.32178,150.44928,153.31955,156.46411,159.11588,160.61156,160.75752,159.93481,158.88028,158.28067,158.42758,159.13177,159.92551,160.40199,160.47176,160.39017,160.56985,161.32294,162.69733,164.48058,166.32333,167.87392,168.85059,169.06474,168.46024,167.20114,165.75098,164.82591,165.15077,167.08798,170.3488,174.01065,176.90758,178.21529,177.88492,176.63173,175.45082,174.95464,174.97629,174.73581,173.49065,171.23599,168.939,168.07286,169.69745,173.68701,178.67119,182.81259,184.9707,185.48363,185.98763,188.3038,193.06953,199.03607,203.59032,204.28609,200.47411,193.97432,188.27138,186.62511,190.19725,197.3353,204.47107,208.10353,206.66577,201.15904,194.22409,188.30933,184.15004,180.5347,175.46448,167.88043,158.75269,150.74921,146.64973,147.52237,151.87003,156.35356,157.68971,154.55879,148.33359,142.1739,139.05133,139.92827,143.20259,145.72809,144.74887,139.55002,131.84456,124.72046,120.84022,120.98447,123.74883,126.46308,126.69019,123.40906,117.29032,110.08643,103.65836,99.255913,97.362503,97.97377,100.92365,105.9508,112.50616,119.57365,125.79523,129.94768,131.50571,130.89546,129.20993,127.5184,126.20316,124.77038,122.28696,118.17329,112.82446,107.61572,104.23322,103.70953,105.75257,108.79604,110.769,110.1498,106.70241,101.48981,96.189751,92.137512,89.652786,88.009064,86.011024,82.799911,78.405396,73.744324,70.104301,68.436081,68.856453,70.609901,72.461693,73.26841,72.412682,69.91378,66.235062,61.974037,57.643345,53.638966,50.329685,48.108688,47.286121,47.848011,49.254185,50.483723,50.412296,48.38311,44.654514,40.407169,37.20882,36.159527,37.182369,38.911385,39.332329,36.897251,31.517727,24.845196,19.605642,18.276905,21.789509,28.950989,36.921638,42.504982,43.585995,39.990089,33.373657,26.279959,20.905794,18.204243,17.694887,17.944197,17.365393,14.916967,10.436887,4.5873384,-1.4520718,-6.3801765,-9.1594915,-9.3422098,-7.2774758,-4.1013746,-1.4290787,-0.78680158,-2.9907017,-7.7776499,-13.915822,-19.781876,-24.118488,-26.563601,-27.665205,-28.402777,-29.534119,-31.180986,-32.893303,-34.106541,-34.65028,-34.948406,-35.780384,-37.782757,-41.044872,-45.073086,-49.128704,-52.681664,-55.655369,-58.306976,-60.867664,-63.244595,-65.035309,-65.857796,-65.745995,-65.28833,-65.36058,-66.601547,-68.986855,-71.815483,-74.1521,-75.451576,-75.950417,-76.550163,-78.249809,-81.485481,-85.803009,-90.076843,-93.140488,-94.4394,-94.319183,-93.806374,-94.054466,-95.806931,-99.168602,-103.74312,-108.95802,-114.32167,-119.46677,-124.03349,-127.57401,-129.62794,-129.95901,-128.78717,-126.81939,-125.00596,-124.13663,-124.51081,-125.87744,-127.67239,-129.39745,-130.90805,-132.45149,-134.46342,-137.27322,-140.8981,-145.02008,-149.11354,-152.61533,-155.04756,-156.07899,-155.57152,-153.65004,-150.77023,-147.70177,-145.35909,-144.5015,-145.4324,-147.86566,-151.05634,-154.14406,-156.52794,-158.06924,-159.0238,-159.77193,-160.533,-161.24467,-161.66377,-161.59293,-161.05949,-160.3217,-159.71075,-159.43822,-159.51704,-159.85052,-160.40601,-161.31572,-162.79529,-164.91359,-167.38225,-169.55487,-170.70366,-170.44554,-169.05403,-167.42189,-166.63533,-167.37074,-169.46994,-171.97997,-173.68224,-173.82977,-172.65271,-171.29413,-171.16116,-173.03915,-176.49533,-179.9707,-181.57358,-180.16338,-176.10228,-171.20013,-167.82037,-167.60809,-170.55124,-174.93216,-178.2352,-178.52489,-175.52046,-170.74895,-166.67984,-165.33234,-167.15186,-170.79181,-173.90341,-174.44879,-171.76585,-166.7933,-161.3918,-157.23824,-154.98961,-154.18643,-153.85786,-153.34052,-152.72542,-152.65198,-153.65308,-155.5793,-157.56599,-158.59941,-158.27856,-157.18999,-156.55847,-157.35165,-159.44261,-161.4599,-161.52751,-158.48795,-152.81891,-146.58072,-142.31818,-141.5217,-143.586,-145.95334,-145.43097,-139.95921,-129.82185,-117.61317,-107.00007,-100.99699,-100.69657,-105.06694,-111.77463,-118.44061,-123.60051,-126.94722,-128.93172,-130.14647,-130.92361,-131.3078,-131.25276,-130.77242,-129.90294,-128.56174,-126.51202,-123.5512,-119.81716,-115.9455,-112.86916,-111.30894,-111.2725,-111.94057,-112.0948,-110.86717,-108.33028,-105.50591,-103.73299,-103.77287,-105.23503,-106.72567,-106.65668,-104.21071,-99.839813,-94.970192,-91.102898,-88.897118,-87.830765,-86.646553,-84.2677,-80.557907,-76.411522,-73.116638,-71.428162,-70.989113,-70.510605,-68.61554,-64.801674,-59.883453,-55.594055,-53.562786,-54.28727,-56.738125,-58.856392,-58.666489,-55.360542,-49.731247,-43.71698,-39.335518,-37.618206,-38.129349,-39.300369,-39.344913,-37.216576,-33.085594,-28.114109,-23.713514,-20.740713,-19.090719,-17.887791,-16.124008,-13.344139,-9.9648132,-7.0400805,-5.6133976,-6.0381818,-7.6715598,-9.1342773,-9.0069408,-6.5797977,-2.2373781,2.7388749,6.8406401,9.1030951,9.5548544,9.1184177,9.0499277,10.261862,12.915987,16.487494,20.205517,23.556162,26.52285,29.435848,32.572502,35.816147,38.634903,40.416016,40.936047,40.634453,40.467388,41.385757,43.737236,46.969372,49.852406,51.135204,50.279655,47.852192,45.331753,44.4189,46.212997,50.698586,56.808582,63.00901,68.067108,71.577446,73.977531,76.086517,78.475204,81.06179,83.182106,84.089722,83.574898,82.306068,81.648788,83.019432,87.112907,93.439751,100.45688,106.25628,109.46529,109.88557,108.53283,107.06152,106.89234,108.51662,111.34564,114.16397,115.90968,116.32915,116.13573,116.58975,118.74722,122.809,127.9425,132.6801,135.67635,136.40941,135.44594,134.13152,133.88188,135.46265,138.64061,142.3784,145.44199,147.06911,147.32536,146.96449,146.89946,147.61702,148.89566,149.99995,150.22899,149.46994,148.39108,148.12033,149.57623,152.85088,157.04115,160.6698,162.48161,162.1554,160.50349,159.02528,159.06866,161.09325,164.46666,167.89796,170.2196,171.026,170.78455,170.38875,170.48343,171.02849,171.38791,170.86319,169.2841,167.2327,165.73401,165.621,167.00961,169.24663,171.36276,172.70914,173.32504,173.77525,174.57809,175.65263,176.22015,175.28676,172.41145,168.22534,164.29015,162.30545,163.12085,166.17889,169.77724,172.03244,171.9756,170.1062,168.05286,167.53899,169.28511,172.52046,175.40361,176.09509,173.83389,169.37851,164.56897,161.29489,160.4937,161.75459,163.71558,164.96173,164.85426,163.79976,162.83705,162.84309,163.87868,165.08942,165.22264,163.43866,159.91399,155.8588,152.92105,152.31624,154.18649,157.56136,160.93861,163.13702,163.90976,163.95039,164.29175,165.4774,167.04231,167.66798,165.96759,161.44849,155.04933,148.86639,145.15543,145.14684,148.35855,152.82945,156.16628,156.81526,154.83298,151.72992,149.51714,149.55627,151.90652,155.52193,159.10094,161.98363,164.49001,167.49252,171.54636,176.209,180.05826,181.44357,179.49825,174.73869,168.82532,163.59796,159.97816,157.43178,154.33948,149.04996,140.95975,130.9493,120.91235,112.67989,107.00359,103.20612,99.67836,94.888084,88.280975,80.561432,73.243736,67.794716,64.887619,64.159584,64.52861,64.808479,64.245972,62.725533,60.623882,58.484554,56.720768,55.46349,54.551502,53.602436,52.124165,49.668194,46.024273,41.397484,36.452213,32.127514,29.246069,28.090508,28.192873,28.501194,27.877974,25.674786,22.05895,17.899612,14.280105,11.924957,10.871855,10.552482,10.186478,9.2109718,7.4823089,5.1733065,2.5091007,-0.42083654,-3.6285024,-7.0258598,-10.262424,-12.790533,-14.16784,-14.400479,-14.058143,-14.023468,-14.99204,-17.036381,-19.538563,-21.570787,-22.506924,-22.481649,-22.398891,-23.475586,-26.602764,-31.913242,-38.795212,-46.289894,-53.569553,-60.174519,-65.897568,-70.483116,-73.449562,-74.241249,-72.64489,-69.166016,-65.039078,-61.7715,-60.44912,-61.225182,-63.330368,-65.617943,-67.308228,-68.457207,-69.84713,-72.373566,-76.33448,-81.093071,-85.342514,-87.810852,-87.96566,-86.291901,-84.002388,-82.402084,-82.319893,-83.929832,-86.98381,-91.192421,-96.416618,-102.5184,-109.01939,-114.90734,-118.86264,-119.88338,-117.96735,-114.39079,-111.31101,-110.81222,-113.87296,-119.82617,-126.64114,-131.91058,-134.03838,-133.01176,-130.36971,-128.40622,-129.03622,-132.8954,-139.09123,-145.67326,-150.54591,-152.3712,-151.06445,-147.71275,-144.0152,-141.53375,-141.08887,-142.53912,-145.004,-147.39915,-149.02419,-149.92375,-150.84729,-152.82214,-156.5515,-161.95155,-168.08691,-173.56216,-177.17915,-178.51088,-178.0784,-177.03439,-176.53999,-177.19647,-178.85139,-180.85915,-182.59033,-183.83543,-184.83862,-185.96669,-187.28593,-188.39572,-188.69035,-187.89966,-186.51866,-185.75551,-186.92206,-190.57925,-195.97392,-201.18625,-203.99867,-203.03485,-198.50507,-192.0843,-185.95097,-181.52673,-178.66158,-175.76607,-170.83679,-162.78766,-152.30785,-141.73755,-134.01837,-131.29881,-133.95032,-140.48814,-148.36765,-155.16257,-159.48831,-161.26241,-161.32045,-160.75258,-160.39462,-160.69867,-161.89491,-164.16638,-167.60699,-171.96681,-176.41913,-179.63226,-180.24934,-177.5854,-172.14737,-165.619,-160.22874,-157.774,-158.79478,-162.33356,-166.41238,-168.97806,-168.82697,-166.05542,-161.85532,-157.82582,-155.19951,-154.37502,-154.93379,-156.04118,-156.94977,-157.32532,-157.26868,-157.1013,-157.09718,-157.33051,-157.69962,-158.06949,-158.41847,-158.89873,-159.7878,-161.36662,-163.78052,-166.92973,-170.42377,-173.62892,-175.82784,-176.4697,-175.42212,-173.08476,-170.24908,-167.71234,-165.8252,-164.25598,-162.18858,-158.9279,-154.59207,-150.42511,-148.40652,-150.23697,-156.21812,-164.72704,-172.73737,-177.24979,-176.89549,-172.75816,-167.81654,-165.18477,-166.07863,-168.69046,-168.71394,-161.34473,-143.72348,-116.50438,-83.707748,-50.972549,-23.192383,-2.7879078,10.594435,19.041971,24.811239,29.216356,32.495644,34.46983,35.323021,35.875847,37.193295,39.900101,43.776886,47.960041,51.582394,54.350964,56.618797,58.917011,61.349342,63.373627,64.198044,63.523327,62.045944,61.261681,62.606915,66.492561,71.929016,77.074081,80.393082,81.655403,82.05571,83.328743,86.437828,90.756546,94.367683,95.347298,93.194695,89.409355,86.745049,87.554207,92.281067,99.115967,105.09007,107.94073,107.54533,105.97529,106.11139,109.7085,116.17527,122.88271,126.82404,126.56152,123.20055,119.75663,119.32089,123.20465,130.24542,137.68497,142.99094,145.37157,145.93956,146.38988,147.07829,145.85283,138.57922,121.25459,92.567329,55.390888,16.236082,-17.177994,-39.018089,-47.520432,-45.22007,-37.267025,-28.86203,-23.188221,-20.769417,-20.281881,-20.052603,-19.241344,-18.091829,-17.331125,-17.326174,-17.660425,-17.399374,-15.786348,-12.820513,-9.2920179,-6.2647614,-4.3921146,-3.5501261,-3.0227602,-2.0709207,-0.45381576,1.4703525,3.1129375,4.1935511,5.03092,6.3594518,8.8014784,12.385552,16.473917,20.168173,22.912407,24.862152,26.745665,29.301744,32.682049,36.240166,38.868816,39.673122,38.541279,36.247597,34.038925,32.98954,33.533405,35.425667,38.075237,40.956924,43.811623,46.55658,49.071777,51.113037,52.465229,53.210743,53.849911,55.097733,57.438969,60.750988,64.307594,67.226509,69.08744,70.280128,71.790749,74.521431,78.593468,83.143639,86.812263,88.638992,88.761955,88.404198,89.093735,91.601051,95.314407,98.525032,99.503853,97.704613,94.300346,91.655495,92.009956,96.167534,102.99765,110.06065,114.9721,116.67657,115.88321,114.45768,114.20932,115.84803,118.721,121.40927,122.728,122.47009,121.45974,120.95858,121.86507,124.2254,127.31568,130.16577,132.13922,133.20825,133.8132,134.47662,135.46614,136.70866,137.95001,138.98817,139.79509,140.46355,141.06253,141.54384,141.77951,141.69089,141.35133,140.96971,140.76086,140.80171,140.98303,141.09177,140.95822,140.55743,139.99741,139.42198,138.92447,138.55466,138.4127,138.73392,139.85173,142.00917,145.11638,148.63014,151.68877,153.48552,153.69518,152.69832,151.43582,150.93542,151.75806,153.68423,155.84053,157.21349,157.25882,156.23778,155.05754,154.68689,155.48885,156.892,157.64473,156.55304,153.28812,148.76543,144.81003,143.23326,144.81451,148.78273,153.14095,155.70071,155.26521,152.28146,148.56551,146.23604,146.4648,148.77542,151.3119,151.9278,149.45763,144.42076,138.74525,134.68365,133.56868,135.13805,137.79958,139.63786,139.5329,137.72591,135.53525,134.45181,135.20091,137.33719,139.57487,140.59538,139.80487,137.59055,134.96887,132.89995,131.72098,131.03563,130.08469,128.32587,125.84628,123.36354,121.83501,121.91816,123.5874,126.10003,128.30772,129.14621,128.07895,125.31928,121.76127,118.65508,117.14081,117.79801,120.37603,123.82884,126.67956,127.60181,125.9855,122.22398,117.56193,113.54594,111.32642,111.15116,112.30601,113.5294,113.67889,112.29507,109.77058,107.05189,105.05875,104.1554,103.96941,103.65443,102.44146,100.1599,97.417259,95.30275,94.732559,95.755798,97.187843,96.802429,92.056526,81.061081,63.375092,40.261845,14.283811,-11.583272,-34.916187,-54.466507,-70.204491,-82.850906,-93.213326,-101.7079,-108.29673,-112.79995,-115.31708,-116.44592,-117.14081,-118.29865,-120.34169,-123.06491,-125.84205,-128.05486,-129.47679,-130.38513,-131.35783,-132.90764,-135.18982,-137.94948,-140.7103,-143.06447,-144.88852,-146.38531,-147.96695,-150.06644,-152.96436,-156.67175,-160.87869,-164.98369,-168.23695,-170.00545,-170.08806,-168.92033,-167.49997,-166.98511,-168.12288,-170.82184,-174.15829,-176.87579,-178.12289,-177.98618,-177.46179,-177.84677,-179.91371,-183.39957,-187.15776,-189.89323,-191.00395,-190.96562,-190.99474,-192.21466,-194.89626,-198.29834,-201.21596,-202.84312,-203.32713,-203.60815,-204.65495,-206.65839,-208.79565,-209.77701,-208.81024,-206.28513,-203.64803,-202.50537,-203.56577,-206.17897,-208.82906,-210.25294,-210.38072,-210.39177,-211.8107,-215.2906,-220.01117,-224.21286,-226.54639,-227.23465,-228.05301,-230.90056,-235.78362,-239.62968,-237.01544,-222.75038,-195.00339,-157.12312,-116.89771,-83.424965,-63.170044,-57.303623,-61.707558,-69.529121,-74.767052,-74.907776,-71.327332,-67.55117,-66.657066,-69.426727,-74.195702,-78.21743,-79.482887,-77.821404,-74.72139,-72.177299,-71.418419,-72.313148,-73.700592,-74.294067,-73.518059,-71.798401,-70.241959,-70.003479,-71.734772,-75.353729,-80.13356,-84.973564,-88.721466,-90.492355,-89.955971,-87.514664,-84.243568,-81.517151,-80.419106,-81.218758,-83.237083,-85.240341,-86.175629,-85.813721,-84.880211,-84.559364,-85.6623,-87.992012,-90.334511,-91.113823,-89.318947,-85.130043,-79.859703,-75.25872,-72.625824,-72.25592,-73.510773,-75.384857,-77.144371,-78.627098,-80.070694,-81.675865,-83.270401,-84.326279,-84.298561,-83.017776,-80.843155,-78.475075,-76.575981,-75.472099,-75.121071,-75.313759,-75.904945,-76.870102,-78.154167,-79.472488,-80.28241,-80.013474,-78.422577,-75.805199,-72.865639,-70.290329,-68.305977,-66.549789,-64.37812,-61.419556,-57.971035,-54.908058,-53.108376,-52.754662,-53.021439,-52.43858,-49.776073,-44.907261,-39.059875,-34.218803,-31.992521,-32.636627,-34.87381,-36.667622,-36.495121,-34.319122,-31.625383,-30.473516,-32.146492,-36.255718,-40.882828,-43.683155,-43.262245,-39.963909,-35.589886,-32.259037,-31.156387,-31.967827,-33.319962,-33.869896,-33.267929,-32.32716,-32.297913,-33.775787,-36.03941,-37.332153,-35.956833,-31.478865,-25.221022,-19.667679,-17.097986,-18.276653,-22.01354,-25.867914,-27.565781,-26.269077,-22.94945,-19.687609,-18.372232,-19.60166,-22.41552,-24.943905,-25.515821,-23.546946,-19.729395,-15.504009,-12.204325,-10.387544,-9.6821032,-9.1457701,-7.8624916,-5.4418712,-2.2052605,0.97136015,3.0473249,3.2766097,1.575888,-1.3358597,-4.1193123,-5.313498,-3.9926174,-0.28067824,4.5911784,8.8156605,10.93329,10.669749,9.1732101,8.4319773,10.136606,14.630209,20.59997,25.753275,28.121979,27.224974,24.373901,21.918905,21.887571,24.850447,29.7001,34.447361,37.496204,38.573822,38.745785,39.560326,41.929993,45.504189,48.929825,50.793995,50.599537,49.129147,47.981586,48.611202,51.501564,55.973705,60.686306,64.444046,66.782822,68.01339,68.799774,69.638084,70.602356,71.473267,72.071716,72.499916,73.111725,74.273582,76.137138,78.6063,81.492142,84.678345,88.115135,91.629189,94.736359,96.695358,96.875793,95.243584,92.602829,90.331268,89.673111,90.993553,93.497803,95.668686,96.213669,94.937645,92.939705,91.92067,92.957474,95.490723,97.214142,95.056053,86.790443,72.403778,54.431347,37.024406,24.201889,18.180151,18.614672,23.076803,28.427752,32.313587,34.01532,34.309471,34.562435,35.671837,37.478886,38.936356,38.848644,36.68161,32.941036,28.914808,25.970591,24.855394,25.411983,26.842459,28.29973,29.394392,30.287434,31.338852,32.598774,33.546825,33.320148,31.32375,27.819412,24.052774,21.746485,22.200825,25.53063,30.526728,35.267269,38.141117,38.680573,37.712372,36.758446,37.079823,38.959991,41.641834,43.895668,44.801296,44.232563,42.782413,41.266624,40.207577,39.652939,39.386288,39.279636,39.455547,40.122555,41.251495,42.418888,43.016102,42.705338,41.754498,40.926167,40.928753,41.816158,42.833736,42.922005,41.581551,39.453384,38.082848,38.893166,42.024166,45.914539,48.08857,46.774899,42.301441,37.206978,34.782383,36.844555,42.212601,47.072067,47.267742,41.25214,31.815647,25.304087,28.508892,44.892281,72.33683,103.80318,130.60457,146.48314,150.24022,145.58269,138.51013,133.94197,133.54842,135.81665,137.92265,137.94621,135.97321,133.56802,132.26294,132.30412,132.56702,131.61191,128.99997,125.82809,124.04929,125.05593,128.55405,132.56207,134.57793,133.14035,128.73604,123.4539,119.63744,118.44542,119.25856,120.27053,119.80241,117.42854,114.18169,111.76408,111.35753,112.85563,115.00208,116.27905,115.89395,114.19092,112.24715,110.98656,110.45683,109.77763,107.79193,103.97549,98.993195,94.526283,92.457947,93.891373,98.555267,104.9058,110.83598,114.5966,115.46873,113.90519,111.1424,108.52267,106.85979,106.12155,105.54456,104.10807,101.14089,96.767578,91.955383,88.10025,86.32695,86.860008,88.828705,90.663246,90.907494,89.007118,85.6073,82.159309,80.046921,79.752136,80.573936,81.08094,80.016968,77.087212,73.126381,69.549316,67.449432,66.932716,67.10775,66.709862,64.920853,61.835873,58.293278,55.230309,53.043373,51.399368,49.598274,47.181271,44.308559,41.616165,39.663212,38.402401,37.10577,34.849026,31.233889,26.820488,22.911463,20.771296,20.773203,22.051655,22.930096,21.890368,18.490063,13.65686,9.1798744,6.7158985,6.911078,9.1345587,11.919677,13.784085,13.920724,12.40223,9.8869133,7.1088848,4.4997416,2.121804,-0.15226759,-2.4215543,-4.6704974,-6.8307409,-8.8799391,-10.860347,-12.801057,-14.632409,-16.193836,-17.34763,-18.104443,-18.64142,-19.180712,-19.8234,-20.489788,-21.040991,-21.500288,-22.182335,-23.578047,-26.021997,-29.359718,-32.879868,-35.622124,-36.908657,-36.762997,-35.921318,-35.398655,-35.876633,-37.313358,-39.036812,-40.256332,-40.639339,-40.554432,-40.8153,-42.108837,-44.509998,-47.419346,-49.956787,-51.523434,-52.13451,-52.304329,-52.597042,-53.198303,-53.836239,-54.106457,-53.938473,-53.819427,-54.560253,-56.731186,-60.158039,-63.859238,-66.513962,-67.184708,-65.832703,-63.296753,-60.764217,-59.098366,-58.465298,-58.476089,-58.691418,-59.088482,-60.135696,-62.419147,-66.099068,-70.605133,-74.815819,-77.629448,-78.561745,-77.986015,-76.873268,-76.217262,-76.519127,-77.636253,-79.037903,-80.24424,-81.13736,-81.961472,-83.064644,-84.601868,-86.411346,-88.122826,-89.386612,-90.049828,-90.180031,-89.967506,-89.615082,-89.295219,-89.162605,-89.349617,-89.902466,-90.706055,-91.502335,-92.05632,-92.387337,-92.872589,-94.06237,-96.238785,-98.9841,-101.11648,-101.18948,-98.396721,-93.394646,-88.491364,-86.93811,-91.561234,-103.39048,-121.00433,-140.96526,-159.1494,-172.31624,-179.17462,-180.5137,-178.47504,-175.44432,-173.13139,-172.18916,-172.37619,-173.01468,-173.44781,-173.32095,-172.66412,-171.83353,-171.36188,-171.74037,-173.17287,-175.40112,-177.72777,-179.29247,-179.50215,-178.37944,-176.59445,-175.11757,-174.67825,-175.36456,-176.62872,-177.70239,-178.14346,-178.13533,-178.32277,-179.29213,-181.06161,-182.95337,-183.95908,-183.36522,-181.21536,-178.29303,-175.63635,-173.91371,-173.07666,-172.50275,-171.49948,-169.80315,-167.73746,-165.95723,-164.9959,-164.94658,-165.47188,-166.07481,-166.3835,-166.23724,-165.56581,-164.24701,-162.14297,-159.33461,-156.35156,-154.13019,-153.60693,-155.15285,-158.23892,-161.62387,-164.01059,-164.76808,-164.22942,-163.34724,-162.93974,-163.06664,-162.99516,-161.78659,-159.06114,-155.34215,-151.68163,-148.82771,-146.5925,-143.98793,-140.13554,-135.30811,-131.22411,-130.13292,-133.07849,-138.444,-141.91629,-138.2438,-124.02283,-99.959351,-71.178734,-45.189949,-28.468216,-23.46834,-27.685879,-35.239735,-40.039604,-38.762169,-32.067348,-23.573551,-17.393209,-15.749729,-17.981739,-21.304529,-22.659328,-20.455256,-15.23778,-9.0694714,-4.1721044,-1.7090945,-1.3606691,-1.7849357,-1.5469329,0.081999816,2.8631513,5.9019384,8.2536802,9.4501438,9.691391,9.6644955,10.135479,11.541417,13.781166,16.300335,18.430674,19.81909,20.716459,21.937958,24.462488,28.85017,34.802589,41.161549,46.415054,49.469353,50.243805,49.70639,49.286118,49.993797,51.796986,53.666782,54.299187,53.066547,50.573486,48.41571,48.245342,50.712738,54.970436,59.096252,61.215874,60.647579,58.353863,56.401676,56.746162,60.074188,65.405449,70.677483,73.936737,74.403282,72.785614,70.71254,69.697449,70.309135,72.043259,73.903816,75.242439,76.260033,77.833015,80.799774,85.215675,90.111168,93.955017,95.553391,94.814705,92.875389,91.475639,91.945885,94.418556,97.752403,100.22643,100.58965,98.832687,96.211601,94.505798,94.955902,97.523674,100.924,103.41432,103.86768,102.48064,100.68271,100.29292,102.42512,106.79916,111.87537,115.73547,117.18259,116.40119,114.78525,114.04994,115.17701,117.83963,120.64993,122.05936,121.33952,119.03111,116.59413,115.502,116.36942,118.66634,121.17502,122.85556,123.52068,123.86089,124.81281,126.72585,128.93874,130.11366,129.15668,126.12415,122.47199,120.39712,121.60658,126.25053,132.69933,138.34935,141.01254,140.07628,136.75226,133.28429,131.61221,132.30142,134.35576,135.97061,135.71019,133.368,130.01373,127.26678,126.31128,127.28372,129.37094,131.47015,132.91382,133.76849,134.55321,135.63988,136.81068,137.31458,136.39481,133.91223,130.6093,127.79847,126.65188,127.54557,129.88402,132.51721,134.47464,135.53616,136.27278,137.54266,139.78554,142.588,144.8139,145.22968,143.23956,139.2811,134.64513,130.83601,128.85117,128.78146,129.91734,131.24123,131.98299,131.92432,131.32924,130.61557,130.01776,129.45662,128.67114,127.49442,126.07574,124.8998,124.58593,125.58009,127.90823,131.12218,134.46811,137.19949,138.88889,139.59346,139.79179,140.11328,140.98305,142.35922,143.71198,144.28177,143.50539,141.38805,138.60295,136.2317,135.25853,136.08528,138.34033,141.0952,143.3634,144.58562,144.81296,144.4948,144.0332,143.41978,142.21237,139.87358,136.23448,131.7448,127.30522,123.76448,121.41241,119.83022,118.23501,116.11398,113.71308,111.99422,111.99418,113.91706,116.5148,117.1999,112.94177,101.54736,82.689499,58.163033,31.251463,5.5403652,-16.238319,-32.827496,-44.362766,-51.795124,-56.229626,-58.532078,-59.308544,-59.105309,-58.568142,-58.386368,-59.045837,-60.580124,-62.529438,-64.184662,-65.001114,-64.941856,-64.535667,-64.597641,-65.762527,-68.10083,-71.050163,-73.71772,-75.391762,-75.967903,-76.030075,-76.516068,-78.140068,-80.90271,-83.991661,-86.168045,-86.453362,-84.739532,-81.960793,-79.694542,-79.379036,-81.564194,-85.610466,-90.010368,-93.161667,-94.16893,-93.239563,-91.475929,-90.208725,-90.265388,-91.581215,-93.342178,-94.535057,-94.560226,-93.554161,-92.263023,-91.575813,-92.00972,-93.443687,-95.23629,-96.641151,-97.27478,-97.371902,-97.68293,-99.058121,-101.9303,-105.9749,-110.15559,-113.18084,-114.17493,-113.21788,-111.42593,-110.45486,-111.628,-115.14969,-119.88705,-123.92743,-125.66426,-124.79457,-122.58345,-121.14198,-122.07946,-125.35337,-129.11621,-130.79469,-128.8365,-124.02795,-119.41446,-118.64194,-123.54594,-132.41373,-140.10527,-140.21346,-128.23857,-104.07736,-72.422752,-40.796112,-16.239302,-2.409503,1.465224,-0.59662151,-3.8763738,-5.3557501,-4.7273698,-3.712239,-4.3761206,-7.5957479,-12.544445,-17.31839,-20.128468,-20.254917,-18.25956,-15.493715,-13.339581,-12.658134,-13.650415,-16.024561,-19.228752,-22.601818,-25.468672,-27.283304,-27.836943,-27.402208,-26.642132,-26.25024,-26.51351,-27.11142,-27.348482,-26.715029,-25.395685,-24.321756,-24.646336,-26.935213,-30.616358,-34.116554,-35.681641,-34.410015,-30.849298,-26.755058,-24.135172,-24.159903,-26.601027,-30.117777,-33.165615,-34.923542,-35.660728,-36.359646,-37.904327,-40.403049,-43.088802,-44.835636,-44.926155,-43.564312,-41.816814,-41.036507,-42.125454,-45.056881,-48.890503,-52.230251,-53.863899,-53.284817,-50.899662,-47.87907,-45.729523,-45.732693,-48.432533,-53.358887,-59.134247,-63.983849,-66.479836,-66.186035,-63.856289,-61.031357,-59.207428,-59.02211,-59.936226,-60.624439,-59.864201,-57.389011,-54.167076,-51.903858,-52.047256,-54.894119,-59.347557,-63.480213,-65.56633,-64.967171,-62.361744,-59.232014,-56.965054,-56.13905,-56.399136,-56.926785,-57.133224,-57.098965,-57.487518,-59.02689,-61.929218,-65.637245,-69.054008,-71.099403,-71.248108,-69.745811,-67.421318,-65.25396,-63.965668,-63.838314,-64.781746,-66.52668,-68.780235,-71.261917,-73.65477,-75.571953,-76.6129,-76.499565,-75.211372,-73.029716,-70.458069,-68.057526,-66.277138,-65.345459,-65.24437,-65.747581,-66.497421,-67.106041,-67.275055,-66.912201,-66.196541,-65.535843,-65.397469,-66.067558,-67.459351,-69.095345,-70.310425,-70.595322,-69.899086,-68.704872,-67.805817,-67.880821,-69.102455,-71.013504,-72.766693,-73.609161,-73.333015,-72.412498,-71.720154,-71.968872,-73.210693,-74.716774,-75.352577,-74.261551,-71.460007,-67.963402,-65.318748,-64.770676,-66.529221,-69.580887,-72.188728,-72.827423,-71.030907,-67.661736,-64.434456,-62.955273,-63.822662,-66.300117,-68.74041,-69.509018,-67.876183,-64.382645,-60.50106,-57.819386,-57.224323,-58.527878,-60.697536,-62.502018,-63.174114,-62.726227,-61.788666,-61.121574,-61.117073,-61.578682,-61.880646,-61.387089,-59.873821,-57.707584,-55.67897,-54.576553,-54.732483,-55.794785,-56.872959,-57.008358,-55.733227,-53.403362,-51.080582,-49.975277,-50.72467,-52.919361,-55.197033,-55.9156,-54.063309,-49.877388,-44.770653,-40.56144,-38.441124,-38.310833,-38.922409,-38.761055,-37.115269,-34.622898,-32.893021,-33.407322,-36.413582,-40.583046,-43.737473,-44.237644,-42.130749,-39.233082,-37.969234,-39.611401,-43.027813,-44.825504,-40.958092,-28.954401,-9.48244,13.704789,35.47472,51.744926,61.296722,66.007721,69.467224,74.849281,83.273918,93.50695,103.00588,109.54913,112.44022,112.65597,112.01649,112.02898,113.15804,114.89487,116.4323,117.38612,118.05144,119.07108,120.82664,123.0443,124.92763,125.73402,125.38268,124.64462,124.74087,126.57463,130.07986,134.11507,137.00314,137.42458,135.15652,131.2399,127.48729,125.61311,126.45788,129.69598,134.12698,138.33578,141.34056,142.90593,143.42012,143.47881,143.45068,143.26634,142.51932,140.79114,138.00742,134.63208,131.59666,129.98334,130.58582,133.52806,138.11131,142.98848,146.63962,147.98285,146.85898,144.1391,141.35114,139.95461,140.60416,142.7946,145.11789,146.03778,144.78043,141.83379,138.73993,137.26302,138.39796,141.80524,146.02388,149.34749,150.83029,150.79343,150.50529,151.23781,153.31975,155.83478,157.20778,156.32977,153.4733,150.32399,148.98665,150.495,153.74059,155.5656,152.11281,140.7701,121.65068,97.764275,73.748619,53.827587,40.077251,31.87797,26.744753,21.969418,16.114176,9.5667648,3.9653966,0.95209628,1.0422744,3.250092,5.6172996,6.2714891,4.3853068,0.52896672,-3.7098489,-6.5675359,-6.9371738,-4.7957034,-1.0882611,2.7868674,5.5923514,6.6789598,6.0821781,4.3206229,2.0524065,-0.22340539,-2.2919791,-4.1533871,-5.8435731,-7.2825112,-8.2605553,-8.5786543,-8.2463026,-7.5832214,-7.115109,-7.2873755,-8.1626549,-9.3172417,-10.052079,-9.8308287,-8.6780005,-7.2503448,-6.4752254,-6.9361057,-8.3893652,-9.7639217,-9.7136173,-7.428443,-3.2030115,1.6280686,5.3955903,7.0277348,6.620625,5.2673974,4.2438655,4.0871902,4.2033648,3.3083162,0.44647101,-4.0923696,-8.6236029,-10.882911,-9.3658609,-4.3637805,1.9991045,6.8268051,8.0205173,5.4229388,0.84340745,-3.0515134,-4.3012371,-2.716543,0.17964646,2.2494361,2.1450105,0.12269819,-2.2247179,-3.0996976,-1.7270464,1.1311834,3.6959054,4.3638058,2.7746708,0.048186805,-1.9614146,-1.8975881,0.19282155,2.8791692,4.2865438,3.3504717,0.57406288,-2.2097526,-2.9350536,-0.577016,4.1902432,9.3574924,12.733047,13.168151,11.110204,8.1744318,6.0425396,5.40593,5.6200085,5.2663822,3.2352901,-0.38865709,-4.2248421,-6.3650374,-5.5433331,-1.9788729,2.6438153,6.0674415,6.7087302,4.5282845,1.0217215,-1.6477345,-1.8578535,0.61709863,4.5650468,8.0821295,9.6363993,8.8356647,6.5037084,4.0944118,2.8415906,3.1465533,4.511405,5.9782696,6.7516007,6.619421,5.9585171,5.3801179,5.2761693,5.5523176,5.6910882,5.0815296,3.4056444,0.86001325,-1.9006553,-4.0553908,-4.9869065,-4.5464215,-3.0953958,-1.3174672,0.09905038,0.75325853,0.65958214,0.15480424,-0.36121505,-0.70603782,-1.0526506,-1.8323842,-3.4433191,-5.9279914,-8.8218899,-11.291442,-12.514776,-12.10604,-10.340901,-8.0435514,-6.1878948,-5.4326644,-5.8464823,-6.9618468,-8.100564,-8.7617998,-8.8496122,-8.6387386,-8.5471649,-8.8873377,-9.746417,-11.030685,-12.593537,-14.331833,-16.193768,-18.131657,-20.075819,-21.968245,-23.818085,-25.701317,-27.670343,-29.634081,-31.329763,-32.463917,-32.965363,-33.166122,-33.723854,-35.254726,-37.870899,-40.942905,-43.317699,-43.939827,-42.526657,-39.852097,-37.397758,-36.529373,-37.691547,-40.145779,-42.454151,-43.427883,-42.934074,-42.017689,-42.226986,-44.555992,-48.68832,-53.053257,-55.691235,-55.405022,-52.485004,-48.564667,-45.705265,-45.274055,-47.274471,-50.472393,-53.166939,-54.104347,-53.030178,-50.67168,-48.298958,-47.188835,-48.232758,-51.72002,-57.195862,-63.352551,-68.081238,-68.89492,-63.783592,-52.232666,-35.861938,-18.179895,-3.3617449,5.4588714,7.5196915,4.6324978,0.10424659,-3.0434752,-3.5575776,-2.3163033,-1.4258883,-2.6665986,-6.2720919,-10.776313,-13.963377,-14.264383,-11.697306,-7.7840095,-4.557929,-3.3458052,-4.1048951,-5.6856871,-6.7667065,-6.7897239,-6.2746453,-6.3495378,-7.8687472,-10.748612,-13.971,-16.233995,-16.793104,-15.926304,-14.725273,-14.369716,-15.37045,-17.265438,-18.939106,-19.333195,-18.088621,-15.735563,-13.356574,-11.971417,-12.026608,-13.258467,-14.936958,-16.277426,-16.757236,-16.20043,-14.676455,-12.365613,-9.5109749,-6.4548597,-3.6595311,-1.6175147,-0.66133451,-0.79325449,-1.67637,-2.8285525,-3.9085374,-4.8956509,-6.0187731,-7.4638858,-9.0641346,-10.222114,-10.178308,-8.4996958,-5.4773169,-2.1314206,0.25450307,0.84136432,-0.23984165,-1.9031588,-2.7141953,-1.7633991,0.7222563,3.4413493,4.776104,3.8270848,1.0894289,-1.7032018,-2.5678523,-0.58119577,3.2544146,6.1624246,4.7948055,-3.0801229,-17.285444,-35.056854,-52.129086,-64.573471,-70.471199,-70.590065,-67.755836,-65.286896,-65.329491,-67.946411,-71.379539,-73.27079,-72.130806,-68.247498,-63.562771,-60.620651,-61.18697,-65.29879,-71.245674,-76.467354,-78.857903,-77.765152,-74.166092,-69.972397,-66.902756,-65.583115,-65.374123,-64.980225,-63.425251,-60.768829,-58.108288,-56.864105,-57.803001,-60.429928,-63.159866,-64.194099,-62.574516,-58.761497,-54.365402,-51.185902,-50.147972,-50.789379,-51.60688,-51.028378,-48.392048,-44.328114,-40.337246,-37.875141,-37.545048,-38.886272,-40.818943,-42.367985,-43.141914,-43.274094,-42.964069,-42.061794,-40.092209,-36.750141,-32.483162,-28.638876,-26.917406,-28.371414,-32.58469,-37.634998,-40.988758,-40.866493,-37.26804,-32.007336,-27.696369,-26.266582,-27.904465,-31.021599,-33.24374,-32.796803,-29.46699,-24.62011,-20.357639,-18.375731,-19.189571,-22.07616,-25.620626,-28.439316,-29.66527,-29.04505,-26.780554,-23.351395,-19.441605,-15.906027,-13.630365,-13.234857,-14.756532,-17.543865,-20.504395,-22.611,-23.373686,-22.98292,-22.045874,-21.117258,-20.363285,-19.584833,-18.545082,-17.311228,-16.311941,-16.043806,-16.65447,-17.754501,-18.653669,-18.884617,-18.62077,-18.625765,-19.695889,-21.951557,-24.504673,-25.821272,-24.629333,-20.808777,-15.647835,-11.225194,-9.2491455,-10.069488,-12.501693,-14.595367,-14.866869,-13.205746,-10.869633,-9.5757608,-10.287526,-12.496077,-14.472532,-14.335853,-11.253319,-6.012383,-0.61164761,2.8560405,3.3250475,1.2092083,-2.0352087,-4.8901792,-6.6422091,-7.6043763,-8.6220198,-10.263603,-12.276919,-13.677841,-13.39294,-11.005382,-7.0947304,-2.9414833,0.21053094,1.8569872,2.4565487,3.0472102,4.5162663,6.9950686,9.7583504,11.68067,11.956636,10.636707,8.656539,7.3507748,7.7462249,10.042035,13.552549,17.108524,19.659248,20.73712,20.564489,19.808134,19.174252,19.082855,19.563135,20.354578,21.09248,21.454473,21.223894,20.306618,18.756451,16.813843,14.901358,13.512486,13.000039,13.367189,14.206637,14.868735,14.795739,13.832576,12.313801,10.856566,9.9836321,9.8247948,10.102743,10.416698,10.621217,11.014839,12.17349,14.516921,17.905113,21.570944,24.479162,25.901604,25.824207,24.892075,23.908989,23.230635,22.493198,20.908424,17.959299,14.016806,10.400417,8.7492342,10.042775,13.89125,18.593576,21.992569,22.63522,20.522068,16.969524,13.674949,11.603226,10.450394,9.0777597,6.667891,3.8443899,2.9611022,7.2454915,19.189571,39.07703,64.505692,91.217194,114.81199,132.44409,143.63785,149.89922,153.47577,156.04527,158.05576,158.97203,158.11778,155.48573,151.98499,149.00891,147.653,148.11119,149.62837,151.008,151.32368,150.38242,148.68044,146.94009,145.58115,144.4957,143.26355,141.62683,139.8566,138.71458,138.99391,140.92621,143.86177,146.47745,147.43416,146.10645,142.94099,139.21832,136.36023,135.20557,135.68529,137.05769,138.49516,139.5941,140.45999,141.34386,142.14856,142.23438,140.74374,137.27049,132.39774,127.65341,124.79276,124.78832,127.16158,130.13252,131.56645,130.17822,126.25868,121.46529,117.80074,116.41702,116.98862,118.02615,117.896,115.87139,112.54991,109.413,107.86604,108.40791,110.44149,112.77372,114.39629,115.00153,114.93674,114.73037,114.60982,114.37753,113.68575,112.4214,110.84383,109.35466,108.12368,106.94746,105.53493,104.01655,103.18591,104.07504,106.93849,110.26278,110.61112,103.7367,86.620308,59.392609,25.976288,-7.1135044,-33.356117,-48.919594,-54.069126,-52.585648,-49.584553,-48.969837,-51.872223,-56.764999,-60.961887,-62.475674,-61.15295,-58.562832,-56.901653,-57.692581,-61.045303,-65.790192,-70.254135,-73.142075,-74.052521,-73.466049,-72.354424,-71.69043,-72.076744,-73.575714,-75.728897,-77.738686,-78.784149,-78.396553,-76.738525,-74.600914,-73.035774,-72.761047,-73.66684,-74.763527,-74.681007,-72.477974,-68.280968,-63.331779,-59.370735,-57.707546,-58.545979,-60.974579,-63.606758,-65.433022,-66.325302,-66.890022,-67.825569,-69.278053,-70.67205,-71.135773,-70.201088,-68.252365,-66.371483,-65.6576,-66.479561,-68.178719,-69.437416,-69.077377,-66.768105,-63.199635,-59.644234,-57.231693,-56.41811,-56.946941,-58.235279,-59.837296,-61.635902,-63.669098,-65.801559,-67.569244,-68.372299,-67.894142,-66.417976,-64.760796,-63.818211,-64.009872,-65.009804,-65.962669,-66.052094,-65.040398,-63.4175,-62.066063,-61.679325,-62.325314,-63.434227,-64.185822,-64.009857,-62.864822,-61.148029,-59.361256,-57.810905,-56.555199,-55.590004,-55.067562,-55.321854,-56.642033,-58.957695,-61.699036,-63.9883,-65.079369,-64.767654,-63.49102,-62.0438,-61.089962,-60.800652,-60.854397,-60.784191,-60.413082,-60.058025,-60.34409,-61.744869,-64.160309,-66.829117,-68.657127,-68.775322,-66.992897,-63.879185,-60.436928,-57.572262,-55.67086,-54.50491,-53.487152,-52.092018,-50.190952,-48.125725,-46.506626,-45.869858,-46.384918,-47.753979,-49.334927,-50.411465,-50.476604,-49.404968,-47.450802,-45.090389,-42.795815,-40.852482,-39.30471,-38.042229,-36.961063,-36.089882,-35.595745,-35.662868,-36.325699,-37.37561,-38.417267,-39.051365,-39.070915,-38.543823,-37.729977,-36.895683,-36.15963,-35.476398,-34.753845,-33.990303,-33.296028,-32.75666,-32.240734,-31.33506,-29.530695,-26.60104,-22.933588,-19.541271,-17.645117,-18.003183,-20.37693,-23.509016,-25.71242,-25.787563,-23.737829,-20.820906,-18.845467,-19.085545,-21.451881,-24.444839,-25.966431,-24.548695,-20.281879,-14.875075,-10.778379,-9.8462591,-12.299247,-16.577158,-20.169973,-20.959558,-18.32818,-13.438807,-8.5675907,-5.8887086,-6.3826108,-9.4278994,-13.232164,-15.804909,-15.922774,-13.60027,-9.8889132,-6.1929884,-3.5130033,-2.0121474,-1.086674,0.15697961,2.3111105,5.2824311,8.3039045,10.319813,10.536161,8.8514338,5.946424,2.9818285,1.0517309,0.67178613,1.5736889,2.923665,3.8527102,4.0011144,3.752264,3.9942811,5.5262218,8.45858,11.99562,14.782752,15.659945,14.38608,11.874085,9.7445927,9.4217005,11.303691,14.533337,17.545866,19.083782,19.043274,18.578465,19.327486,22.181568,26.347965,29.33366,27.955557,19.869068,4.7792478,-15.336917,-37.106026,-57.222858,-73.696571,-86.258308,-95.847595,-103.6306,-110.20885,-115.45121,-118.9112,-120.40804,-120.30293,-119.29309,-117.93913,-116.3419,-114.2483,-111.50613,-108.48433,-106.06821,-105.15182,-105.95487,-107.68549,-108.88037,-108.29081,-105.76194,-102.48724,-100.38784,-100.9427,-104.19371,-108.58439,-111.78091,-111.99477,-108.99195,-104.16359,-99.630493,-96.96537,-96.343681,-96.630226,-96.285431,-94.450325,-91.486649,-88.647034,-87.146317,-87.291649,-88.256927,-88.625862,-87.308235,-84.208603,-80.231789,-76.676773,-74.46553,-73.710953,-73.840416,-74.089058,-73.958366,-73.337105,-72.296707,-70.836212,-68.858604,-66.414276,-63.964329,-62.342121,-62.311779,-63.975883,-66.487411,-68.37735,-68.386589,-66.283348,-63.077129,-60.40477,-59.442711,-60.08593,-61.018642,-60.714523,-58.718147,-56.261204,-55.611851,-58.376518,-63.751354,-67.923546,-65.255226,-50.84631,-23.186911,14.56258,55.449978,91.404579,116.38602,128.47212,129.97141,125.71667,120.59292,117.59507,117.23808,118.30289,119.21188,119.14611,118.36036,117.72861,117.98937,119.2282,120.87251,122.10285,122.35322,121.58745,120.2365,118.90076,118.02715,117.73106,117.81284,117.91184,117.70049,117.03886,116.04694,115.07753,114.58989,114.953,116.24706,118.16106,120.06439,121.25384,121.27579,120.16202,118.44383,116.92004,116.29019,116.84171,118.35111,120.23849,121.87376,122.85589,123.11575,122.80792,122.08582,120.92197,119.10106,116.40262,112.8643,108.95415,105.51564,103.47136,103.41231,105.28263,108.34013,111.43838,113.50513,113.97842,112.97894,111.14031,109.21254,107.67886,106.60549,105.78502,105.03883,104.44279,104.30395,104.90505,106.21376,107.7934,109.01124,109.41491,109.00322,108.17364,107.36174,106.63457,105.56961,103.5659,100.40594,96.651924,93.513466,92.168869,92.937752,94.888634,96.247139,95.453125,92.231415,87.943085,84.886238,84.893715,88.08625,92.618416,95.667076,95.114174,90.885635,85.074646,80.721909,79.983803,82.829628,87.089287,89.81768,89.101242,85.156685,80.042252,76.209824,74.873093,75.265244,75.2519,72.861267,67.69516,61.279247,56.126179,54.135715,55.382183,58.070068,59.668194,58.475853,54.620338,49.880779,46.497395,45.755623,47.236343,49.16161,49.562424,47.505421,43.627659,39.698086,37.527325,37.90871,40.199711,42.731583,43.749859,42.323956,38.742764,34.243095,30.286512,27.805738,26.805779,26.483067,25.752716,23.884909,20.918392,17.644592,15.173589,14.307819,15.05781,16.575159,17.564934,16.970947,14.553114,11.010977,7.5574656,5.1788754,4.0274835,3.3357296,1.9269698,-0.98364413,-5.2095327,-9.6226568,-12.797667,-13.871155,-13.065567,-11.536577,-10.643746,-11.123672,-12.70681,-14.417628,-15.336676,-15.294363,-15.02,-15.646584,-17.911715,-21.598625,-25.593647,-28.52183,-29.545069,-28.819292,-27.350573,-26.383303,-26.726761,-28.412518,-30.81889,-33.099239,-34.614616,-35.153748,-34.92004,-34.402447,-34.236755,-35.059208,-37.292847,-40.874916,-45.077511,-48.639877,-50.297977,-49.510715,-46.944061,-44.30925,-43.506783,-45.508415,-49.67461,-54.018631,-56.353405,-55.650112,-52.729141,-49.780636,-48.968563,-51.007214,-54.665108,-57.562565,-57.761604,-55.08868,-51.284546,-48.861485,-49.43718,-52.689785,-56.659134,-59.183498,-59.454857,-58.578346,-58.717571,-61.424053,-66.36293,-71.403343,-74.082443,-73.438049,-70.866165,-69.27269,-70.96888,-75.700668,-80.229637,-79.927986,-71.521889,-55.298168,-35.348942,-17.622787,-6.9150972,-4.5790868,-8.2605238,-13.677514,-17.22348,-17.757559,-16.588648,-15.889512,-16.76565,-18.324877,-18.320147,-14.83797,-7.8206453,0.62629008,7.3407879,9.8874063,7.8757958,3.0301418,-1.9438592,-4.9135046,-5.3377423,-4.2290511,-3.2446065,-3.5885608,-5.4076529,-7.9382854,-10.151248,-11.3859,-11.587508,-11.111292,-10.352733,-9.5142574,-8.6345453,-7.7693901,-7.1106939,-6.9217286,-7.349997,-8.2933292,-9.4482899,-10.512261,-11.376165,-12.148273,-12.986392,-13.876284,-14.54756,-14.619144,-13.888341,-12.555238,-11.203217,-10.519002,-10.91715,-12.305783,-14.142167,-15.740922,-16.639622,-16.800011,-16.538729,-16.257076,-16.160583,-16.151854,-15.958076,-15.398177,-14.602574,-14.023102,-14.197847,-15.391541,-17.328144,-19.207966,-20.05781,-19.265663,-17.007908,-14.28336,-12.453259,-12.473795,-14.242525,-16.499128,-17.465899,-15.983858,-12.538239,-9.5132227,-10.36468,-17.997498,-33.148888,-53.679073,-75.24704,-93.106995,-104.12333,-107.95737,-106.83505,-104.10152,-102.43235,-102.70314,-104.05529,-104.94077,-104.36546,-102.52052,-100.47961,-99.29351,-99.191505,-99.462219,-99.062157,-97.471039,-95.150841,-93.27137,-92.9039,-94.267059,-96.562981,-98.511139,-99.186371,-98.559219,-97.364616,-96.419662,-95.911484,-95.193703,-93.254707,-89.524887,-84.433334,-79.291183,-75.551834,-73.939919,-74.038109,-74.606377,-74.405251,-72.957176,-70.740227,-68.7174,-67.568748,-67.188782,-66.805771,-65.627258,-63.536884,-61.325871,-60.26392,-61.271023,-64.233231,-67.921844,-70.592545,-70.913437,-68.676132,-64.889847,-61.234329,-59.207138,-59.433723,-61.467136,-64.107323,-66.010101,-66.262985,-64.689491,-61.812122,-58.551506,-55.809608,-54.089214,-53.274155,-52.650402,-51.179039,-47.932819,-42.514629,-35.250328,-27.038343,-18.918661,-11.595563,-5.1933532,0.60747015,6.1464186,11.360561,15.664234,18.238153,18.554159,16.784977,13.802146,10.728457,8.3098688,6.5079246,4.5847797,1.6424208,-2.7160184,-8.0138426,-13.045757,-16.444098,-17.320084,-15.613229,-11.992411,-7.4394507,-2.8169928,1.3256425,4.6666718,6.9165053,7.741785,6.9119096,4.5629225,1.3485538,-1.6980597,-3.5682654,-3.7237246,-2.307492,0.016626693,2.4931927,4.6941209,6.6605291,8.693531,10.962651,13.226672,14.883378,15.335767,14.436166,12.703156,11.143235,10.763602,12.063074,14.806808,18.212185,21.417738,23.937351,25.825922,27.479057,29.22736,31.01189,32.363514,32.702366,31.760645,29.848986,27.784416,26.509514,26.623833,28.100668,30.348743,32.572739,34.217525,35.24485,36.101986,37.422878,39.645329,42.754562,46.273151,49.475227,51.694221,52.572147,52.157528,50.849598,49.250607,48.000706,47.641571,48.521004,50.735977,54.118801,58.278942,62.704697,66.900726,70.511177,73.375565,75.496315,76.944763,77.766998,77.948174,77.453987,76.317886,74.713928,72.966217,71.486412,70.672462,70.817307,72.059204,74.372528,77.576599,81.345795,85.227737,88.695656,91.253128,92.575188,92.631851,91.728767,90.429871,89.383514,89.123589,89.927597,91.779419,94.427963,97.492661,100.56448,103.28101,105.38526,106.78056,107.56718,108.01881,108.46587,109.10888,109.85786,110.32171,110.01205,108.69296,106.67965,104.86203,104.35336,105.88965,109.30276,113.41585,116.51382,117.20956,115.25069,111.7767,108.79736,108.09602,110.118,113.46404,115.31123,112.58819,103.31651,87.44371,66.780701,44.149933,22.253267,2.8536777,-13.3963,-26.567709,-36.90691,-44.536037,-49.552666,-52.345772,-53.777523,-54.98843,-56.882633,-59.618896,-62.47509,-64.230675,-63.872509,-61.205433,-56.996529,-52.572731,-49.133762,-47.209496,-46.576702,-46.635887,-46.949295,-47.553986,-48.841629,-51.110722,-54.131905,-57.062431,-58.808517,-58.624931,-56.570217,-53.51651,-50.693806,-49.043568,-48.775436,-49.386589,-50.106724,-50.463879,-50.598724,-51.127419,-52.651638,-55.246933,-58.277973,-60.682064,-61.560505,-60.714138,-58.783596,-56.894386,-56.014153,-56.412159,-57.551956,-58.480515,-58.465759,-57.475819,-56.191441,-55.541138,-56.059937,-57.494537,-58.925987,-59.34441,-58.306995,-56.241535,-54.181557,-53.095417,-53.253193,-54.064468,-54.510502,-53.885811,-52.334759,-50.792339,-50.346672,-51.463306,-53.642532,-55.802593,-57.15596,-57.932255,-59.315464,-62.451241,-67.056198,-70.573708,-68.643684,-56.927185,-33.459526,-0.24488483,36.918297,70.482681,94.138733,105.26447,105.63066,100.09109,94.050049,91.07682,91.826698,94.60183,96.963364,97.327553,95.668655,93.119835,90.949944,89.684021,88.905983,87.75251,85.653809,82.780785,79.930626,77.994118,77.408035,77.951523,78.969048,79.81089,80.173866,80.14534,79.985909,79.854271,79.674835,79.209251,78.237305,76.698578,74.711082,72.495247,70.29174,68.330444,66.829361,65.95871,65.743187,65.961487,66.153046,65.795265,64.589104,62.679428,60.636852,59.161953,58.660984,58.951988,59.30497,58.820969,56.940441,53.781868,50.110832,46.96212,45.140652,44.882622,45.841011,47.356617,48.820248,49.913811,50.627739,51.101341,51.422581,51.512466,51.139954,50.032288,48.012413,45.106472,41.588722,37.943283,34.730076,32.373005,30.946196,30.08333,29.11577,27.432623,24.897932,22.064684,19.988621,19.66481,21.36919,24.307222,26.844791,27.266151,24.666328,19.464121,13.217752,7.8337922,4.6257133,3.7634401,4.397707,5.3111405,5.6282525,5.1217995,3.9738133,2.2553895,-0.40723363,-4.6611195,-10.82562,-18.298504,-25.462309,-30.279448,-31.295044,-28.455336,-23.219046,-17.859667,-14.35439,-13.506033,-14.782054,-16.895576,-18.701187,-19.827431,-20.697342,-22.022852,-24.194435,-27.005342,-29.862989,-32.271011,-34.181736,-35.94294,-37.890156,-39.91959,-41.405235,-41.575867,-40.121212,-37.602627,-35.344509,-34.816025,-36.853008,-41.187981,-46.573483,-51.422703,-54.58704,-55.830574,-55.770832,-55.384357,-55.414196,-56.028469,-56.884243,-57.492424,-57.619862,-57.484398,-57.654289,-58.741192,-61.070129,-64.489029,-68.386589,-71.889259,-74.152359,-74.64753,-73.359245,-70.82119,-67.958336,-65.76413,-64.921661,-65.532524,-67.09594,-68.772797,-69.817772,-69.957886,-69.509056,-69.161179,-69.551834,-70.875107,-72.754196,-74.450844,-75.283867,-75.005974,-73.918205,-72.664131,-71.841782,-71.678398,-71.969536,-72.315384,-72.499046,-72.754219,-73.725792,-76.105186,-80.125244,-85.210037,-90.024429,-92.971107,-92.935272,-89.910553,-85.154701,-80.73333,-78.622162,-79.79213,-83.749283,-88.792435,-92.878319,-94.644043,-94.032166,-92.174141,-90.612907,-90.339043,-91.235535,-92.277191,-92.352936,-91.162292,-89.56311,-89.08419,-90.873413,-94.767586,-99.1567,-101.84092,-101.42319,-98.364807,-94.952927,-94.055252,-97.300438,-103.74547,-109.88217,-111.09094,-103.80762,-87.240616,-63.724815,-37.575493,-13.136868,6.888514,22.005754,33.281292,42.083111,49.072441,54.016472,56.375267,56.107445,54.059834,51.667133,50.204556,50.140835,51.034977,52.008152,52.414001,52.21793,51.844967,51.670059,51.59269,51.06287,49.564934,47.190826,44.828289,43.743961,44.78334,47.722973,51.256954,53.696861,53.976135,52.314964,50.093449,48.987194,49.906895,52.426052,55.072746,56.30167,55.515701,53.470959,51.797428,51.94194,54.212738,57.536995,60.080688,60.330925,57.960041,53.951752,49.955219,47.317242,46.414104,46.66647,47.149632,47.330704,47.419136,48.121094,50.015408,53.023869,56.362358,59.006363,60.339428,60.530754,60.387177,60.795376,62.149963,64.155457,66.112221,67.450508,68.113884,68.523262,69.175468,70.202995,71.244301,71.729416,71.3592,70.395325,69.512558,69.301292,69.796684,70.421555,70.43306,69.560112,68.312927,67.618843,67.908844,68.235817,66.111641,58.384228,42.831203,19.628006,-8.1917076,-35.661072,-57.801441,-71.5811,-76.926132,-76.33165,-73.388329,-71.082817,-70.747787,-72.062172,-73.862541,-75.121315,-75.490318,-75.209457,-74.634232,-73.837769,-72.595383,-70.709435,-68.356049,-66.127281,-64.692513,-64.310944,-64.561447,-64.518082,-63.290684,-60.590382,-56.951572,-53.461796,-51.164463,-50.496483,-51.082314,-51.970432,-52.136024,-50.951149,-48.39761,-44.986835,-41.511364,-38.786415,-37.459911,-37.872398,-39.928562,-43.009895,-46.034809,-47.75901,-47.275146,-44.496605,-40.331776,-36.366886,-34.141846,-34.370239,-36.539112,-39.146725,-40.481861,-39.526855,-36.479332,-32.600418,-29.485746,-28.187504,-28.689154,-30.009727,-30.835371,-30.275026,-28.294804,-25.610559,-23.160751,-21.522024,-20.629889,-19.941862,-18.889671,-17.296913,-15.490006,-14.054109,-13.42649,-13.618041,-14.250992,-14.873811,-15.317719,-15.82723,-16.851244,-18.620581,-20.803013,-22.502241,-22.660841,-20.661562,-16.768152,-12.109488,-8.1663694,-6.0193954,-5.778831,-6.5351577,-6.8808517,-5.7219791,-2.9210646,0.60218149,3.3790255,4.226512,2.9364407,0.43004403,-1.7040309,-2.0217907,0.067261316,4.0691972,8.7385674,12.742003,15.258545,16.205318,16.033077,15.297556,14.31604,13.115864,11.654867,10.104061,8.9505701,8.8184509,10.111332,12.713926,15.961069,18.91853,20.828117,21.473156,21.270432,21.051243,21.655325,23.53974,26.572578,30.079096,33.099701,34.752571,34.573631,32.719158,29.949532,27.37319,26.020481,26.412663,28.335121,30.960768,33.300045,34.756191,35.465515,36.190624,37.79039,40.569237,43.926514,46.579178,47.282635,45.635773,42.455841,39.439312,38.26247,39.646458,42.964767,46.650997,49.16354,49.901863,49.493294,49.272175,50.302448,52.597275,55.064087,56.223644,55.235432,52.549538,49.742924,48.62838,50.197811,54.065189,58.745853,62.569847,64.635498,65.2145,65.402588,66.30127,68.290779,70.846054,72.955719,73.809288,73.280548,71.924187,70.556664,69.755295,69.610237,69.835526,70.077332,70.14994,70.043488,69.767174,69.230637,68.31266,67.072716,65.897125,65.386826,65.992599,67.63456,69.613388,70.950623,70.989243,69.865814,68.508698,68.116333,69.426399,72.246902,75.559975,78.128227,79.196167,78.822433,77.646873,76.297783,74.896477,73.031845,70.222893,66.512863,62.723698,60.128986,59.722137,61.562916,64.659996,67.499275,68.898956,68.657417,67.604477,67.061684,68.085136,70.957199,75.168488,79.774193,83.785286,86.318001,86.498642,83.371117,76.067795,64.262672,48.620373,30.84556,13.148591,-2.6501231,-15.844888,-26.908613,-36.812325,-46.032066,-53.934628,-59.026764,-59.98225,-56.797993,-51.267696,-46.343693,-44.664333,-47.102173,-52.244209,-57.184845,-59.211636,-57.396904,-53.13953,-49.323513,-48.591454,-51.761246,-57.320889,-62.286781,-63.907394,-61.220367,-55.591354,-49.977623,-47.382301,-49.37484,-55.443226,-63.424824,-70.66835,-75.248367,-76.631401,-75.577133,-73.487679,-71.649437,-70.757164,-70.858757,-71.598648,-72.519081,-73.239113,-73.485237,-73.070984,-71.931709,-70.22892,-68.429321,-67.232468,-67.301727,-68.898285,-71.626328,-74.482933,-76.256348,-76.107971,-74.034073,-70.931519,-68.19265,-67.022942,-67.852348,-70.17598,-72.917458,-75.091286,-76.350548,-77.071739,-77.929253,-79.26123,-80.693398,-81.335007,-80.464478,-78.23439,-75.824257,-74.768608,-75.739128,-77.517677,-76.933029,-70.057076,-54.204826,-29.703527,-0.37857169,27.681227,48.582672,59.099907,59.886421,54.812569,48.827534,45.530735,45.743591,47.746185,48.868443,47.381828,43.552902,39.312183,36.871956,37.247894,39.636467,42.00602,42.469875,40.525738,37.358551,35.024113,35.052959,37.382729,40.316071,41.551331,39.654484,35.054573,29.926235,26.996412,27.967218,32.487228,38.286869,42.411449,42.844707,39.592323,34.615509,30.673988,29.761446,32.03236,35.812046,38.640812,38.709167,35.8391,31.463144,27.662386,25.878077,26.084959,26.911242,26.602612,24.212711,20.269964,16.497057,14.744184,15.785554,18.724131,21.393511,21.55052,18.173542,12.106137,5.658709,1.3825607,0.70697439,3.2028453,6.8697147,9.2561493,8.7617836,5.3947687,0.60145664,-3.6688371,-6.0785704,-6.5501199,-6.1208034,-6.1670485,-7.5205121,-10.020497,-12.73833,-14.67592,-15.458131,-15.57284,-16.028103,-17.677074,-20.664042,-24.343641,-27.701134,-29.972198,-31.047327,-31.413595,-31.715919,-32.278244,-32.936703,-33.294418,-33.186825,-32.978142,-33.422237,-35.142574,-38.090118,-41.397808,-43.802753,-44.408897,-43.290527,-41.497459,-40.402,-40.781548,-42.247078,-43.433842,-42.875271,-40.004471,-35.604172,-31.361769,-28.780228,-28.154692,-28.325281,-27.432205,-24.230406,-19.11109,-14.115973,-11.850987,-13.921639,-19.853163,-27.193182,-32.776009,-34.41095,-31.995377,-27.412653,-23.32169,-21.604218,-22.40119,-24.258331,-25.198784,-23.99855,-20.883902,-17.293137,-14.944736,-14.840399,-16.790066,-19.654638,-22.050993,-23.043802,-22.456844,-20.745251,-18.637598,-16.818151,-15.781972,-15.812892,-16.962124,-18.983232,-21.308474,-23.191746,-24.036751,-23.753275,-22.894047,-22.419043,-23.17219,-25.371561,-28.441143,-31.312035,-33.018353,-33.219845,-32.332684,-31.213648,-30.632498,-30.885181,-31.769978,-32.876289,-33.925095,-34.899277,-35.900112,-36.897938,-37.629234,-37.761772,-37.211239,-36.339348,-35.826218,-36.253059,-37.67202,-39.488815,-40.785465,-40.899437,-39.874836,-38.468662,-37.689907,-38.171654,-39.792431,-41.79282,-43.291988,-43.841301,-43.642986,-43.311359,-43.378544,-43.911205,-44.502831,-44.619991,-44.030499,-43.001381,-42.144127,-42.045635,-42.959888,-44.753265,-47.079548,-49.590481,-52.000469,-53.996918,-55.162029,-55.084457,-53.662212,-51.375656,-49.243008,-48.356422,-49.224495,-51.366257,-53.511452,-54.373714,-53.533741,-51.816391,-50.828316,-51.883465,-55.009594,-58.746693,-60.962955,-60.2197,-56.787598,-52.5732,-49.894745,-49.819511,-51.124458,-50.611267,-44.685913,-31.320618,-11.261895,12.206194,34.777164,53.024689,65.648788,73.496414,78.546478,82.600868,86.454071,89.878105,92.202087,92.962532,92.201973,90.350487,87.935783,85.41301,83.203934,81.793427,81.669479,83.058289,85.643906,88.552391,90.719391,91.459648,90.856056,89.666451,88.775246,88.561081,88.643578,88.219826,86.770164,84.615189,82.875717,82.797287,84.871269,88.373161,91.692169,93.2939,92.705879,90.861748,89.542274,90.2444,93.199081,97.174377,100.19759,100.73886,98.60968,95.026062,91.828522,90.378815,90.827805,92.177414,93.037994,92.558662,90.940247,89.245209,88.673515,89.786003,92.147629,94.575027,95.806549,95.194489,93.047852,90.477348,88.856926,89.181084,91.607925,95.370064,99.078857,101.30113,101.18454,98.869255,95.477776,92.631142,91.665848,92.916214,95.461761,97.545998,97.51638,94.798744,90.321236,86.047112,83.768311,83.782166,84.231575,81.599831,72.241577,54.234322,28.596594,-0.80075109,-28.644903,-50.247349,-63.273773,-68.34549,-68.323174,-66.74691,-66.270279,-67.821465,-70.750954,-73.680069,-75.45433,-75.671326,-74.605667,-72.748322,-70.374023,-67.452774,-63.926857,-60.093033,-56.746693,-54.910866,-55.269268,-57.655285,-60.956749,-63.568516,-64.192123,-62.549564,-59.592682,-57.054302,-56.554749,-58.73642,-62.89677,-67.323456,-70.152023,-70.284164,-67.879852,-64.181961,-60.802139,-58.882156,-58.587154,-59.173588,-59.538517,-58.896751,-57.191906,-55.036713,-53.268803,-52.425014,-52.45393,-52.811516,-52.836731,-52.142933,-50.778946,-49.087013,-47.392628,-45.764317,-44.018902,-41.963844,-39.692375,-37.696289,-36.67503,-37.12458,-38.953999,-41.389057,-43.266418,-43.587952,-42.036465,-39.158031,-36.095486,-34.010929,-33.511528,-34.388794,-35.799076,-36.760777,-36.671719,-35.556698,-33.932148,-32.408901,-31.3018,-30.488586,-29.582947,-28.276068,-26.59428,-24.886845,-23.551708,-22.699215,-22.01088,-20.928055,-19.075979,-16.64418,-14.434125,-13.474199,-14.382656,-16.856255,-19.63747,-21.06069,-19.933136,-16.275124,-11.475471,-7.713171,-6.8994894,-9.6782875,-15.019643,-20.643976,-24.080004,-23.826071,-20.032055,-14.373696,-9.2097816,-6.4693322,-6.8249798,-9.5280533,-12.92249,-15.318628,-15.765154,-14.362453,-12.033046,-9.944046,-8.9189892,-9.1266088,-10.14671,-11.305957,-12.059745,-12.216706,-11.923716,-11.472177,-11.070201,-10.718655,-10.249061,-9.4820251,-8.3991976,-7.2176075,-6.311305,-6.008842,-6.3706346,-7.0755358,-7.508081,-7.0401516,-5.3889136,-2.8616796,-0.32298157,1.1549424,0.81992519,-1.3222467,-4.4212976,-7.1426725,-8.3199224,-7.5546412,-5.4164519,-3.1065392,-1.7628978,-1.8137648,-2.7733004,-3.6091969,-3.4511523,-2.1818352,-0.517744,0.4833644,0.16665618,-1.2267666,-2.6657112,-2.9807539,-1.6306709,0.94109201,3.6144574,5.3603959,5.9325743,5.9829316,6.4987993,7.9478464,9.7559261,10.541808,9.0141163,4.9483347,-0.44356903,-5.0656624,-7.1124568,-6.1242461,-3.2303901,-0.40900424,0.75751412,0.014412405,-1.549082,-2.3794682,-1.6075268,0.33277515,2.0321527,2.12919,0.29217693,-2.5392802,-4.8180456,-5.4746351,-4.6384063,-3.4732842,-3.2493043,-4.3322511,-5.846571,-6.2897301,-4.6844983,-1.4431083,1.7105678,2.7672377,0.73938411,-3.6409554,-8.3292189,-11.229731,-11.477141,-9.8894787,-8.3084192,-8.2972679,-10.09117,-12.502067,-13.813446,-13.023546,-10.573649,-8.0701752,-7.2059455,-8.6224871,-11.474422,-13.966803,-14.48983,-12.611856,-9.3310966,-6.4966793,-5.8184881,-8.0619888,-12.798024,-18.66777,-23.843451,-26.392982,-24.503672,-16.735516,-2.4511101,17.677267,41.430523,65.420525,86.110931,101.07037,109.80656,113.70025,115.06466,115.87982,116.93606,117.83576,117.73515,116.24341,113.84444,111.58878,110.33852,110.1562,110.30061,109.83317,108.38749,106.53371,105.46085,106.1869,108.8391,112.49448,115.68143,117.19874,116.7202,114.83244,112.55534,110.72035,109.61777,109.07124,108.772,108.5505,108.37746,108.15387,107.54218,106.05535,103.38729,99.736305,95.834862,92.600601,90.612976,89.774597,89.404587,88.70845,87.297089,85.392029,83.586952,82.363983,81.742378,81.327255,80.709938,79.885635,79.325134,79.595367,80.78743,82.202263,82.606094,80.975143,77.273163,72.718948,69.287872,68.674957,71.313278,76.042252,80.649506,82.997208,82.108711,78.627983,74.434303,71.65712,71.626404,74.270813,78.200813,81.369621,81.97364,79.209755,73.612411,66.861206,61.116512,58.086288,58.145172,59.874611,60.309578,55.929165,44.083721,24.272409,-1.3455446,-28.53091,-52.457058,-69.474709,-78.351662,-80.440804,-78.762924,-76.517624,-75.771164,-76.906364,-78.971298,-80.598892,-80.934563,-80.09803,-79.022797,-78.859146,-80.315521,-83.281616,-86.887199,-89.923134,-91.39637,-90.955307,-88.998833,-86.429527,-84.173515,-82.707573,-81.847885,-80.938423,-79.361443,-77.083366,-74.878616,-74.0196,-75.534393,-79.43895,-84.442551,-88.403694,-89.374458,-86.67572,-81.357719,-75.715889,-72.084389,-71.585594,-73.571335,-76.093903,-77.123566,-75.773895,-72.796799,-70.068542,-69.413712,-71.506004,-75.503311,-79.585869,-82.004692,-81.97052,-79.882469,-76.86187,-73.992432,-71.787125,-70.161575,-68.799271,-67.541306,-66.487831,-65.786865,-65.36261,-64.878326,-64.010925,-62.818596,-61.859261,-61.882683,-63.260445,-65.569115,-67.690315,-68.442673,-67.358231,-65.059929,-62.931767,-62.254543,-63.374786,-65.485909,-67.197906,-67.519897,-66.570824,-65.499176,-65.639862,-67.486908,-70.222328,-72.178413,-71.959198,-69.45858,-66.042961,-63.71854,-63.810444,-66.051689,-68.737961,-69.891914,-68.673508,-66.062157,-64.289177,-65.332069,-69.440529,-74.697174,-77.976524,-76.763687,-70.715576,-61.981876,-54.068596,-49.933994,-50.471458,-54.264095,-58.679596,-61.543396,-62.315472,-62.079014,-62.454243,-64.240723,-66.724678,-68.104881,-66.728134,-62.295036,-56.229179,-50.959126,-48.561268,-49.60387,-52.88377,-56.178535,-57.525093,-56.256966,-53.231571,-50.194332,-48.723148,-49.383751,-51.532494,-53.789051,-54.833744,-54.063251,-51.787437,-48.940659,-46.52948,-45.129894,-44.67012,-44.567966,-44.125408,-42.980476,-41.39727,-40.238323,-40.593235,-43.201103,-47.935276,-53.64114,-58.482185,-60.695435,-59.40892,-55.089096,-49.345436,-44.163223,-40.968361,-40.040203,-40.590496,-41.424839,-41.748447,-41.599075,-41.649639,-42.550724,-44.297001,-46.083351,-46.774757,-45.678543,-43.080013,-40.147446,-38.238274,-38.054977,-39.216499,-40.539379,-40.843296,-39.735596,-37.84082,-36.320423,-36.017601,-36.824635,-37.721962,-37.477234,-35.534344,-32.479801,-29.748131,-28.733316,-29.871931,-32.288887,-34.238811,-34.075378,-31.165564,-26.226089,-20.934063,-17.09136,-15.834679,-17.27524,-20.64323,-24.728527,-28.328049,-30.530594,-30.851887,-29.313358,-26.492376,-23.453625,-21.447784,-21.39776,-23.397371,-26.545723,-29.307333,-30.269661,-28.870739,-25.621738,-21.627302,-17.661556,-13.389467,-7.2910461,2.5651064,17.295465,36.244167,56.899616,75.790359,89.891815,97.787132,99.997078,98.402321,95.194252,91.990105,89.53756,87.991089,87.380798,87.849792,89.501892,92.058189,94.694206,96.296104,96.040077,93.919411,90.833893,88.13327,86.879318,87.293755,88.743866,90.259293,91.217659,91.729897,92.471802,94.095932,96.651199,99.431808,101.37971,101.7777,100.76205,99.294563,98.592354,99.376358,101.4252,103.72447,105.11575,105.0265,103.81353,102.50413,102.10631,102.93183,104.36406,105.22168,104.49954,102.03905,98.725273,96.087738,95.523521,97.565224,101.57893,106.0365,109.20807,109.92323,108.04203,104.44019,100.55105,97.702499,96.561089,96.926605,97.949844,98.647614,98.44899,97.490196,96.499336,96.329529,97.402023,99.393753,101.38363,102.40318,102.06858,100.8765,99.916763,100.11942,101.49651,102.9228,102.72102,99.80574,94.701126,89.694504,87.817657,91.059006,98.779625,107.34882,111.42964,106.42132,90.833656,67.291924,41.547649,19.946611,6.6641808,2.1477978,3.5172598,6.5647693,8.1246443,7.4575353,5.9732628,5.6619139,7.3653851,10.038884,11.442777,9.7426081,4.9038773,-1.0806642,-5.3126831,-5.7480655,-2.4624193,2.3929367,5.915947,6.2136817,3.4851108,-0.23499747,-2.469203,-1.9098601,0.77913278,3.4536128,3.9166989,1.3410809,-3.2189329,-7.5179963,-9.5291939,-8.6538582,-5.9829779,-3.502331,-2.8091857,-4.1845527,-6.5802464,-8.4510374,-8.8146935,-7.8141742,-6.4348984,-5.6237993,-5.4600887,-4.9778271,-2.7840917,1.9303353,8.6632376,15.654338,20.717239,22.354452,20.491573,16.417124,12.008917,8.7440462,7.0747561,6.4776807,6.0483503,5.2014008,4.0303359,3.1526949,3.2137527,4.417573,6.3879795,8.4091635,9.8413734,10.42142,10.276293,9.699048,8.8953753,7.9015737,6.7194862,5.5327334,4.7957788,5.0730782,6.6894464,9.4054613,12.347504,14.287043,14.160739,11.576515,7.0453372,1.8143635,-2.6257262,-5.133347,-5.3447824,-3.7599354,-1.4623606,0.39312753,1.0991813,0.69541192,-0.08541064,-0.20822026,1.1071985,3.9259815,7.4765115,10.462902,11.691212,10.707039,8.1029072,5.3002176,3.8833075,4.8175793,7.967113,12.176882,15.872923,17.842178,17.756758,16.171907,14.050763,12.152016,10.676179,9.3684111,7.9524102,6.5421267,5.7004342,6.0751038,7.8608146,10.487924,12.807877,13.710393,12.795527,10.653581,8.5409641,7.630713,8.304697,9.9385204,11.314945,11.391161,9.9177485,7.5136929,5.173996,3.5672026,2.6132472,1.6241455,-0.10913058,-2.7147701,-5.5622554,-7.6453805,-8.2624779,-7.5145326,-6.2651944,-5.5825438,-6.0479064,-7.4107699,-8.825551,-9.493659,-9.2484865,-8.663681,-8.6094561,-9.5819349,-11.298765,-12.867245,-13.416517,-12.742331,-11.48819,-10.710403,-11.117887,-12.527787,-13.944736,-14.241379,-12.985184,-10.831321,-9.1806841,-9.3023005,-11.496825,-14.867033,-17.862717,-19.248117,-18.854168,-17.621637,-16.917639,-17.593832,-19.421562,-21.27737,-21.943119,-20.973589,-19.045462,-17.554264,-17.727863,-19.840179,-23.034651,-25.862024,-27.176554,-26.815104,-25.638901,-24.929493,-25.532,-27.279156,-29.042498,-29.373148,-27.355688,-23.193045,-18.207174,-14.26183,-12.906506,-14.661943,-18.779606,-23.574905,-27.171957,-28.319059,-26.90526,-23.942234,-21.019194,-19.49424,-19.829018,-21.419207,-23.022106,-23.549917,-22.769005,-21.47047,-20.974144,-22.236462,-25.108587,-28.23938,-29.745213,-28.285881,-23.900772,-18.070316,-12.929631,-10.094426,-9.8220196,-11.039512,-12.23315,-12.641418,-12.984658,-15.23716,-21.539648,-32.8895,-48.393806,-65.536316,-81.304787,-93.527779,-101.67853,-106.75572,-110.41106,-113.90813,-117.52956,-120.70789,-122.68461,-123.19791,-122.73885,-122.24017,-122.44486,-123.39697,-124.39539,-124.43845,-122.87108,-119.82632,-116.19161,-113.1308,-111.46117,-111.26219,-111.93594,-112.65518,-112.89848,-112.72888,-112.64729,-113.13366,-114.2019,-115.29561,-115.63246,-114.79527,-113.16756,-111.86731,-112.13337,-114.49155,-118.22808,-121.57284,-122.58575,-120.2841,-115.33928,-109.86929,-106.36999,-106.3577,-109.50475,-113.78636,-116.56764,-116.00301,-111.94411,-105.86801,-99.939735,-95.827682,-93.981339,-93.724335,-93.969704,-93.999298,-93.793549,-93.78344,-94.323715,-95.345551,-96.443176,-97.264725,-97.823677,-98.426826,-99.259895,-99.999336,-99.847534,-98.068344,-94.665596,-90.650093,-87.577446,-86.57563,-87.529259,-89.077515,-89.557053,-88.312233,-86.415276,-86.120834,-89.204445,-95.176552,-100.62528,-100.37061,-90.009689,-68.485672,-39.154369,-8.608036,16.2057,31.038227,35.940136,34.63456,32.16333,32.221313,35.631252,40.613007,44.412354,45.151581,42.817715,38.985237,35.678734,34.208977,34.665554,36.215111,37.840889,38.981743,39.727207,40.582943,42.068024,44.41066,47.44651,50.669373,53.353767,54.736507,54.285316,52.017117,48.698616,45.712902,44.512547,45.859364,49.279743,53.138699,55.409924,54.772816,51.40176,46.939037,43.616631,43.022057,45.239536,48.871407,51.898357,52.824791,51.414658,48.628643,45.907848,44.339996,44.244495,45.350182,47.299896,50.01685,53.636639,58.09639,62.771458,66.530991,68.260986,67.525558,64.89473,61.675858,59.199726,58.12796,58.232754,58.762016,59.087063,59.142277,59.340645,60.059303,61.126778,61.756927,61.043266,58.690842,55.442009,52.824062,52.303593,54.363781,58.116764,61.745056,63.534485,62.871208,60.585445,58.432182,58.0359,59.949265,63.383507,66.736946,68.561081,68.36586,66.805412,65.188759,64.660736,65.557213,67.28672,68.753052,69.027206,67.874199,65.865936,64.064728,63.482403,64.604645,67.197853,70.457016,73.39212,75.259575,75.844086,75.476906,74.798271,74.390099,74.466881,74.785469,74.821541,74.113564,72.576469,70.59935,68.867607,68.016624,68.325745,69.629379,71.474907,73.394638,75.095078,76.447495,77.328773,77.48661,76.588303,74.460091,71.348541,67.973152,65.259499,63.869812,63.824806,64.491302,64.988014,64.771843,64.016411,63.501617,64.049408,65.859993,68.204491,69.726402,69.214073,66.38134,62.155479,58.259102,56.30949,56.965492,59.628674,62.863697,65.261772,66.209984,66.112831,65.973785,66.649193,68.270569,70.190857,71.448044,71.404419,70.127487,68.277771,66.614868,65.486526,64.660957,63.609386,62.023308,60.180805,58.874924,58.919144,60.547409,63.122864,65.39064,66.163605,65.040703,62.710369,60.627918,60.22823,62.119621,65.721802,69.554092,72.004074,72.139862,70.122887,67.026978,64.210167,62.61731,62.385967,62.915794,63.288757,62.763519,61.087925,58.533405,55.723785,53.401878,52.230412,52.634869,54.657932,57.844784,61.256184,63.714413,64.271828,62.709732,59.764259,56.857193,55.381119,55.897003,57.731949,59.287552,58.952389,56.107922,51.599537,47.330635,45.175388,45.860462,48.524944,51.263527,52.328831,51.224785,48.97118,47.352993,47.648232,49.699024,51.983963,52.678093,50.990211,47.823204,45.209904,44.794506,46.328144,47.241901,43.747967,32.957542,14.801549,-7.4369674,-28.403051,-43.129955,-49.343891,-48.360634,-44.134331,-41.066044,-41.832291,-46.389141,-52.549824,-57.616341,-60.015232,-60.019886,-59.28698,-59.655144,-62.015274,-65.897987,-69.906464,-72.611649,-73.324677,-72.334984,-70.583,-69.058159,-68.302376,-68.255424,-68.443237,-68.338753,-67.690063,-66.67955,-65.872978,-65.987221,-67.552467,-70.588242,-74.447426,-77.961166,-79.902702,-79.603302,-77.404633,-74.642418,-73.072235,-73.974335,-77.414383,-82.112251,-86.056496,-87.565186,-86.20314,-83.02005,-79.960503,-78.786934,-80.144989,-83.303574,-86.682358,-88.803917,-89.077843,-87.972862,-86.54789,-85.711914,-85.710999,-86.13649,-86.371841,-86.112381,-85.584579,-85.339722,-85.809898,-86.967041,-88.325813,-89.268562,-89.444405,-88.963928,-88.279594,-87.871208,-87.970909,-88.490829,-89.131577,-89.511299,-89.175095,-87.502129,-83.680557,-76.924789,-66.932907,-54.347782,-40.878948,-28.878059,-20.47916,-16.713137,-17.075069,-19.795156,-22.671528,-24.012476,-23.20322,-20.669127,-17.37591,-14.245026,-11.829856,-10.348494,-9.8999596,-10.596696,-12.476045,-15.28692,-18.387609,-20.923105,-22.224449,-22.169905,-21.235153,-20.163988,-19.467642,-19.102608,-18.565109,-17.345491,-15.41494,-13.375792,-12.13361,-12.294476,-13.70423,-15.471189,-16.488987,-16.127245,-14.628654,-12.939735,-12.082042,-12.480919,-13.696004,-14.723183,-14.654024,-13.247359,-11.045525,-8.9886837,-7.8201857,-7.6963167,-8.2451239,-8.9882488,-9.7868252,-10.97138,-13.057273,-16.254911,-20.135633,-23.71134,-25.901295,-26.098713,-24.483383,-21.895918,-19.365572,-17.586311,-16.637955,-16.075565,-15.285711,-13.882146,-11.937165,-9.9751339,-8.7804203,-9.1258478,-11.506275,-15.926735,-21.790714,-27.954748,-33.005215,-35.729168,-35.618633,-33.156334,-29.676497,-26.791727,-25.630051,-26.27632,-27.741499,-28.50886,-27.376682,-24.13686,-19.711926,-15.681044,-13.470296,-13.66158,-15.781927,-18.641718,-20.980141,-22.03644,-21.761269,-20.631681,-19.265158,-18.103369,-17.329964,-16.994638,-17.176228,-18.019306,-19.603079,-21.748636,-23.932741,-25.413292,-25.530602,-24.028044,-21.213463,-17.869543,-14.957351,-13.259193,-13.121325,-14.388545,-16.523754,-18.832373,-20.694693,-21.736099,-21.905914,-21.463013,-20.878651,-20.676394,-21.247129,-22.698261,-24.799992,-27.06341,-28.927345,-29.97558,-30.08497,-29.439939,-28.418808,-27.425138,-26.755913,-26.560129,-26.870909,-27.645195,-28.753208,-29.922476,-30.709795,-30.589855,-29.182648,-26.528118,-23.232479,-20.334749,-18.882957,-19.400923,-21.54035,-24.159575,-25.847355,-25.640953,-23.537167,-20.481848,-17.817926,-16.507322,-16.602556,-17.308676,-17.607901,-17.043671,-16.128305,-16.058634,-17.876753,-21.61198,-26.007685,-29.099638,-29.360838,-26.717299,-22.754557,-19.902969,-20.032354,-23.296877,-27.963575,-31.376957,-31.507057,-28.149981,-23.048691,-18.864094,-17.637512,-19.690636,-23.61599,-27.307638,-29.329165,-29.729603,-29.813688,-31.076012,-34.054119,-37.884514,-40.851875,-41.544632,-39.825207,-36.956066,-34.795296,-34.597645,-36.21431,-38.212749,-38.829674,-37.132172,-33.64526,-30.065481,-28.269056,-29.245867,-32.593506,-36.814827,-40.162582,-41.488285,-40.634884,-38.260845,-35.333797,-32.661285,-30.690401,-29.560085,-29.228409,-29.528681,-30.160702,-30.737999,-30.971155,-30.906429,-31.010548,-31.940865,-34.066265,-37.047516,-39.836159,-41.217827,-40.633274,-38.729969,-37.165195,-37.609898,-40.447735,-43.962833,-44.630035,-38.525475,-23.207809,0.90711278,30.426823,60.204266,85.281525,102.59505,111.68508,114.24139,112.92199,110.15553,107.47634,105.51099,104.34725,103.89651,104.02531,104.50091,104.95214,104.99055,104.44946,103.55176,102.84008,102.87677,103.90282,105.68763,107.66674,109.25699,110.11765,110.18638,109.50967,108.05708,105.71746,102.51225,98.852486,95.583328,93.685883,93.763908,95.641289,98.375778,100.74225,101.91848,101.94193,101.62799,101.98209,103.4762,105.6628,107.38979,107.49023,105.51171,102.02473,98.324974,95.731583,94.927086,95.728966,97.379669,99.106483,100.55988,101.86925,103.34773,105.11594,106.93559,108.35201,108.99815,108.80119,107.93568,106.59244,104.79553,102.46252,99.688568,97.011238,95.370926,95.679863,98.224503,102.31554,106.49953,109.29034,109.99878,109.1134,107.93678,107.67133,108.55225,109.64664,109.52295,107.39246,103.93623,101.14959,101.13124,104.46165,109.18681,111.17513,105.85255,90.48867,65.812721,36.042709,7.2519369,-15.109262,-28.288763,-32.923595,-32.149025,-29.75845,-28.456337,-29.04653,-30.768089,-32.339176,-32.970043,-32.777554,-32.502449,-32.869503,-34.081261,-35.75486,-37.267376,-38.212048,-38.639725,-38.948132,-39.532532,-40.455242,-41.353374,-41.634514,-40.832611,-38.91642,-36.3871,-34.121807,-33.037792,-33.716228,-36.127361,-39.560486,-42.801399,-44.525421,-43.791843,-40.461201,-35.348064,-30.000513,-26.148825,-25.02755,-26.859388,-30.739162,-34.984158,-37.805866,-38.014271,-35.460197,-31.048664,-26.345926,-22.961683,-21.953995,-23.469549,-26.730177,-30.355389,-32.903027,-33.437595,-31.912645,-29.200142,-26.721476,-25.80467,-27.041473,-29.958912,-33.204353,-35.1996,-34.965626,-32.695873,-29.753288,-28.050402,-29.100325,-33.215405,-39.269394,-45.151737,-48.687679,-48.566322,-44.835205,-38.762264,-32.19265,-26.756977,-23.31041,-21.809433,-21.586464,-21.801086,-21.817657,-21.362617,-20.468437,-19.313719,-18.079355,-16.87742,-15.739034,-14.618681,-13.39637,-11.899059,-9.9759979,-7.6283584,-5.1342406,-3.073596,-2.1815619,-3.0443876,-5.7552657,-9.7071171,-13.668673,-16.171083,-16.075907,-13.081176,-7.9170146,-2.1030347,2.659775,5.2039022,5.3833284,4.088984,2.7664258,2.6624377,4.1782589,6.6700597,8.8138485,9.3535204,7.8336606,4.9130402,2.0734587,0.87274128,2.1514926,5.6378932,10.171944,14.412224,17.602394,19.934572,22.287222,25.497507,29.626419,33.69928,36.131573,35.631821,32.062286,26.727566,21.870371,19.608969,20.883776,24.993649,29.978765,33.636051,34.60416,32.933052,29.861612,26.984056,25.319759,24.825809,24.600954,23.609552,21.452763,18.707165,16.627293,16.397228,18.381861,21.822603,25.157253,26.785456,25.857162,22.665247,18.45697,14.797865,12.843494,12.887538,14.3725,16.292141,17.728735,18.243267,17.960739,17.37549,17.034863,17.282177,18.164032,19.495176,20.998278,22.42593,23.616665,24.489697,25.012722,25.171371,24.94965,24.31847,23.234346,21.659864,19.613173,17.231182,14.804053,12.735673,11.417611,11.062894,11.588857,12.632881,13.717145,14.487753,14.892374,15.180817,15.71031,16.662512,17.850266,18.757746,18.823944,17.822712,16.108704,14.550348,14.140811,15.471875,18.358845,21.844387,24.611885,25.609371,24.558077,22.071754,19.320644,17.421452,16.881901,17.392307,18.059999,17.938688,16.552362,14.131431,11.449043,9.3626909,8.3104258,8.010788,7.4914541,5.4053988,0.47990102,-8.0750093,-20.313126,-35.491722,-52.19405,-68.611237,-82.949715,-93.893326,-100.99059,-104.8052,-106.71412,-108.37461,-111.05269,-115.11063,-119.90931,-124.18967,-126.75022,-127.07359,-125.57729,-123.3682,-121.65288,-121.13807,-121.74322,-122.75113,-123.26897,-122.7123,-121.0479,-118.70654,-116.28152,-114.23159,-112.75603,-111.85976,-111.49279,-111.62318,-112.19177,-113.01811,-113.77988,-114.12878,-113.88181,-113.14102,-112.22573,-111.43651,-110.81396,-110.08971,-108.91005,-107.21053,-105.47707,-104.6602,-105.71786,-109.02121,-113.99231,-119.24232,-123.18983,-124.83408,-124.23867,-122.43385,-120.78781,-120.21719,-120.70322,-121.39049,-121.18818,-119.49436,-116.60492,-113.57803,-111.66051,-111.63013,-113.42332,-116.21455,-118.84101,-120.30141,-120.08365,-118.23836,-115.27362,-111.99204,-109.32166,-108.10513,-108.81459,-111.2673,-114.5343,-117.22141,-118.10715,-116.84432,-114.27924,-112.07956,-111.76715,-113.69133,-116.63275,-118.42555,-117.34724,-113.44132,-108.82431,-106.55132,-108.5174,-113.60999,-117.37846,-113.72506,-97.932281,-69.436035,-32.731133,4.2563477,33.585114,50.721081,56.156235,54.438583,51.298523,50.591873,52.765511,55.529015,56.048794,53.127148,47.991165,43.332272,41.405716,42.553398,45.126377,46.766624,46.078606,43.507057,40.850945,39.828232,40.76181,42.337463,42.593376,40.413204,36.438847,32.739243,31.459394,33.395294,37.488934,41.584732,43.905666,44.215736,43.876698,44.795578,48.03109,53.038662,58.052074,61.285511,62.080235,61.205551,60.168617,60.106613,61.100765,62.383701,63.202469,63.591904,64.395775,66.483185,69.780342,72.944633,74.065231,71.987068,67.312538,62.271133,59.41235,59.945599,62.885311,65.678421,65.985077,63.442875,60.174549,59.591263,64.187424,73.744072,85.149246,94.021744,97.15963,94.300255,88.125648,82.570816,80.544853,82.47345,86.457832,89.767662,90.578934,88.83889,85.847191,83.04586,80.983955,79.176392,76.84845,73.899979,71.303909,70.618851,72.97213,78.252037,85.074074,91.513824,96.06794,98.198723,98.185532,96.541092,93.538582,89.230278,83.874352,78.307411,73.817947,71.484848,71.425209,72.555824,73.157944,71.953323,68.980713,65.636375,63.788654,64.52372,67.365051,70.516304,71.993721,70.910622,68.069687,65.482567,65.148346,67.893288,72.993576,78.746864,83.52832,86.595764,88.15937,88.794655,88.73748,87.635071,84.938499,80.610947,75.571114,71.470634,69.879143,71.377144,75.136673,79.261063,81.68116,81.089996,77.427834,71.747887,65.655617,60.686451,57.899887,57.745712,60.090698,64.291306,69.306877,73.927818,77.142113,78.515968,78.360954,77.524704,76.867111,76.716721,76.658821,75.816673,73.463058,69.565216,64.896461,60.634724,57.714809,56.365776,56.12746,56.300278,56.482452,56.803555,57.702805,59.44611,61.774082,63.975346,65.35701,65.771469,65.790192,66.349113,68.069695,70.714523,73.180939,74.094223,72.658463,69.229355,65.223206,62.380806,61.805138,63.337692,65.639626,66.928986,65.946777,62.606686,57.980732,53.658463,50.861153,49.807278,49.662609,49.07518,46.980553,43.230583,38.708042,34.870377,32.969406,33.36237,35.281742,37.190071,37.538193,35.529034,31.483835,26.619999,22.370314,19.625212,18.319437,17.583097,16.34967,14.048386,10.967989,8.083478,6.4668736,6.6500721,8.3250093,10.544604,12.273479,12.931041,12.597115,11.787081,10.985907,10.275167,9.3032856,7.6029062,5.0200906,1.947359,-0.81074607,-2.4619272,-2.6715055,-1.7495617,-0.4725126,0.3361243,0.2004362,-0.86501515,-2.5124767,-4.3732147,-6.298512,-8.3794594,-10.763502,-13.426077,-16.073856,-18.250198,-19.564043,-19.879271,-19.336945,-18.208208,-16.697332,-14.846492,-12.613782,-10.063778,-7.5191898,-5.5396762,-4.7080741,-5.3390422,-7.2880363,-9.9870272,-12.700993,-14.871853,-16.37376,-17.566023,-19.147923,-21.914747,-26.529636,-33.371433,-42.448532,-53.346542,-65.213982,-76.843483,-86.9095,-94.347054,-98.738739,-100.50574,-100.7507,-100.77129,-101.46456,-102.93918,-104.56573,-105.45406,-105.08963,-103.74989,-102.43713,-102.34788,-104.18061,-107.68958,-111.75404,-114.93147,-116.18302,-115.3677,-113.24686,-111.02728,-109.72392,-109.69789,-110.59471,-111.66599,-112.25383,-112.15881,-111.71218,-111.55264,-112.25954,-114.04581,-116.65647,-119.50003,-121.92512,-123.49333,-124.11228,-123.97123,-123.33125,-122.31059,-120.82102,-118.72667,-116.14575,-113.68221,-112.36261,-113.20536,-116.60087,-121.87482,-127.38453,-131.22166,-132.20299,-130.57384,-127.93772,-126.35703,-127.10477,-129.83156,-132.71796,-133.58389,-131.29013,-126.52375,-121.41332,-118.17786,-117.6852,-118.90691,-119.68996,-118.36383,-115.0736,-111.83576,-111.13659,-113.91463,-118.29534,-120.07412,-114.86356,-100.70959,-79.579704,-56.733746,-38.248356,-28.089415,-26.393896,-29.869909,-33.938717,-35.249043,-33.098606,-29.10774,-25.628372,-24.082918,-24.292707,-25.043879,-25.264273,-24.84893,-24.558208,-25.178001,-26.688391,-28.136295,-28.32015,-26.739403,-24.04336,-21.596214,-20.463953,-20.59445,-20.844961,-19.882895,-17.313496,-14.174741,-12.366548,-13.350254,-17.013945,-21.530575,-24.370672,-23.82943,-20.055912,-14.898773,-10.682421,-8.7457848,-8.7134418,-8.9425364,-7.7750511,-4.6968732,-0.61784393,2.8604341,4.6092138,4.7194166,4.3262753,4.6958642,6.2818599,8.447443,10.02704,10.270952,9.4438238,8.6259394,8.8804245,10.433597,12.508372,13.954976,14.208191,13.829597,14.176731,16.386013,20.389996,24.715958,27.289318,26.753506,23.420946,19.181847,16.387129,16.418365,18.881702,21.95368,23.642149,23.120951,21.259417,20.013544,21.100397,24.835985,29.885153,34.059502,35.62471,34.284882,31.264359,28.508972,27.567286,28.849501,31.648935,34.793434,37.426163,39.412594,41.188595,43.253036,45.706291,48.140568,49.908409,50.541458,50.028107,48.792641,47.429722,46.384731,45.764164,45.34959,44.769432,43.725822,42.181812,40.445717,39.112198,38.844414,40.037994,42.496525,45.313889,47.120094,46.675915,43.567909,38.613609,33.665054,30.803913,31.2925,34.849468,39.695744,43.40509,44.12603,41.506279,36.80706,32.158031,29.397308,29.162491,30.720106,32.562527,33.355923,32.658722,31.026836,29.529018,29.043005,29.783899,31.309431,32.917988,34.124989,34.9049,35.585625,36.5233,37.807652,39.190281,40.256535,40.703842,40.543659,40.117332,39.939243,40.468243,41.920086,44.186314,46.867203,49.390018,51.172447,51.785912,51.070053,49.155907,46.389645,43.19976,39.987503,37.103382,34.903259,33.799141,34.201836,36.324924,39.945637,44.302986,48.276546,50.827248,51.491734,50.639168,49.303089,48.645477,49.343372,51.251797,53.535271,55.173157,55.51741,54.567635,52.833176,50.931492,49.231586,47.78355,46.53809,45.631443,45.462337,46.455109,48.661369,51.507633,53.924026,54.835266,53.735016,50.986877,47.656979,44.975079,43.744293,44.027645,45.242813,46.541832,47.216686,46.925755,45.709679,43.905094,42.069801,40.922615,41.204384,43.393513,47.363361,52.215698,56.514435,58.923054,58.948547,57.331059,55.75713,55.967529,58.74221,63.382633,68.050621,70.800949,70.695374,68.315643,65.364182,63.621265,63.931171,65.84874,68.119751,69.610123,70.02166,69.922218,70.131065,70.965309,71.937035,72.133873,70.980804,68.763939,66.444954,64.815964,63.573498,61.030869,54.814419,43.227695,26.470812,6.9198961,-11.780841,-26.333225,-35.189346,-38.972031,-39.758961,-39.763744,-40.255722,-41.311134,-42.381962,-43.132,-43.878872,-45.343178,-47.955421,-51.309502,-54.2383,-55.51944,-54.736809,-52.679379,-50.95472,-51.027634,-53.292587,-56.780857,-59.697269,-60.453896,-58.567913,-54.900536,-51.14109,-48.890598,-48.892757,-50.804504,-53.537109,-55.882351,-57.050671,-56.891983,-55.799683,-54.447071,-53.508202,-53.432678,-54.285103,-55.676151,-56.855335,-57.013214,-55.718529,-53.267353,-50.685413,-49.281166,-49.934456,-52.530041,-55.923447,-58.526245,-59.194046,-57.869995,-55.561619,-53.654911,-53.016846,-53.49295,-54.14238,-54.037819,-53.048347,-52.020409,-52.193153,-54.244591,-57.659943,-60.918049,-62.421181,-61.547916,-59.083912,-56.695564,-55.783932,-56.51897,-57.759644,-57.954056,-56.39856,-53.925995,-52.437195,-53.482613,-56.810047,-59.918594,-59.07534,-51.317558,-36.284409,-16.756027,2.4813221,16.836729,23.960541,24.540709,21.522821,18.332003,17.165388,18.244411,20.248419,21.457756,20.834297,18.474798,15.362961,12.755831,11.629596,12.407996,14.931323,18.517628,22.061594,24.261028,24.06521,21.25103,16.800978,12.714852,11.153965,13.265858,18.361395,24.03583,27.319733,26.296795,21.261429,14.683512,9.9279165,9.4317913,13.39653,19.75832,25.4359,28.08729,27.32299,24.687981,22.500196,22.321642,24.017776,25.943464,26.070889,23.312382,18.224499,12.71296,8.9837952,8.404829,10.921348,15.272119,19.76516,23.100489,24.799868,25.117188,24.623573,23.792545,22.814814,21.664928,20.283422,18.717205,17.147892,15.83533,15.034795,14.914235,15.463583,16.404993,17.167892,17.018095,15.365057,12.13375,7.9735818,4.1004133,1.7561319,1.5290648,2.9309852,4.541543,4.7218251,2.5404005,-1.6203827,-6.1679344,-9.1032381,-9.0945473,-6.2099757,-1.8825305,1.8739089,3.5410566,2.8448331,0.7642895,-1.1646115,-1.8045056,-1.0579451,0.16200702,0.57024044,-0.65955538,-3.3767979,-6.5380325,-8.8132992,-9.3374119,-8.1707716,-6.2279205,-4.7460136,-4.6134543,-5.9306788,-8.0228071,-9.8681803,-10.691653,-10.401946,-9.6496315,-9.4848309,-10.796111,-13.818776,-17.964346,-22.062199,-24.897343,-25.774347,-24.819386,-22.864508,-20.980993,-19.921459,-19.783594,-20.080891,-20.163717,-19.718367,-19.017941,-18.750582,-19.521763,-21.350447,-23.505236,-24.82748,-24.380013,-22.036972,-18.641273,-15.605557,-14.170294,-14.748343,-16.74028,-18.924124,-20.180618,-20.12178,-19.263369,-18.666012,-19.286898,-21.436152,-24.641659,-27.961134,-30.518347,-31.935455,-32.433899,-32.596394,-32.976643,-33.799107,-34.898029,-35.88345,-36.400673,-36.329639,-35.83918,-35.303349,-35.144596,-35.672543,-36.963852,-38.808678,-40.744125,-42.184586,-42.626839,-41.857826,-40.065372,-37.779034,-35.655041,-34.212662,-33.666302,-33.938259,-34.816212,-36.118599,-37.731056,-39.486118,-41.003273,-41.672112,-40.881393,-38.409122,-34.722656,-30.929869,-28.309814,-27.634258,-28.67938,-30.272818,-30.92239,-29.703209,-26.87569,-23.825756,-22.309353,-23.418444,-26.883364,-31.149616,-34.207047,-34.690155,-32.597679,-29.21244,-26.292948,-25.048874,-25.524305,-26.732859,-27.403767,-26.825453,-25.246719,-23.618523,-22.903189,-23.444994,-24.816549,-26.201265,-26.997324,-27.194841,-27.267706,-27.692194,-28.482464,-29.120956,-28.96249,-27.823204,-26.292156,-25.463734,-26.180696,-28.240499,-30.097277,-29.324478,-23.652674,-12.049248,4.7227225,24.332119,43.733593,60.192669,72.020988,78.799339,81.163437,80.392136,78.004951,75.434906,73.741287,73.352829,73.936554,74.5401,74.058281,71.858391,68.221992,64.284889,61.424515,60.40556,60.810745,61.171593,59.806564,55.908936,50.213104,44.771854,41.9021,42.883827,47.187572,52.718285,56.960258,58.356983,57.108719,54.919876,53.865807,55.080399,58.063061,61.011696,61.954113,59.970379,55.761044,51.234818,48.389397,48.172623,49.990566,52.112762,52.681973,50.707485,46.485165,41.279652,36.551476,33.240376,31.501173,30.944826,31.106516,31.765299,32.914696,34.484566,36.113205,37.22076,37.38036,36.713772,35.965431,36.104374,37.647491,40.147671,42.250778,42.389053,39.744759,34.877651,29.546356,25.719521,24.294609,24.289944,23.068226,17.58103,6.019558,-11.021382,-30.531412,-48.275406,-60.587563,-65.854355,-64.966644,-60.599339,-55.796398,-52.65052,-51.718307,-52.328388,-53.429409,-54.384098,-55.253323,-56.502434,-58.436646,-60.803726,-62.837437,-63.690952,-62.950199,-60.883144,-58.274662,-55.97274,-54.444263,-53.606102,-52.998024,-52.142818,-50.840572,-49.220261,-47.554981,-46.004185,-44.475258,-42.690449,-40.390022,-37.511738,-34.219193,-30.774527,-27.368162,-24.043623,-20.771677,-17.603365,-14.760689,-12.566401,-11.23912,-10.698248,-10.538414,-10.228578,-9.4290152,-8.2192116,-7.0653424,-6.5187073,-6.8185019,-7.6526523,-8.2446222,-7.7340355,-5.6300974,-2.0672932,2.2850001,6.5902381,10.253701,13.126552,15.40997,17.370184,19.094082,20.46697,21.376501,21.967155,22.719213,24.243629,26.892509,30.437344,34.053181,36.666576,37.492126,36.450848,34.222206,31.896925,30.433771,30.232264,31.049934,32.274326,33.348446,34.073044,34.610989,35.223515,35.943771,36.429127,36.11372,34.584145,31.948414,28.952467,26.731709,26.29122,27.974323,31.210878,34.712578,37.05883,37.404911,35.954208,33.925709,32.987465,34.405651,38.334145,43.634228,48.364433,50.730007,50.013794,46.986786,43.549374,41.767139,42.807182,46.356361,50.845577,54.355293,55.685925,54.980244,53.542572,52.969475,54.110004,56.473541,58.439259,58.15242,54.595806,48.229622,40.846558,34.731083,31.585281,31.780703,34.285362,37.237434,38.815651,37.955528,34.606281,29.501171,23.658579,17.918095,12.730756,8.2390585,4.5173082,1.7747313,0.37548396,0.65307087,2.6263702,5.7911291,9.1381168,11.442019,11.723402,9.6760626,5.8351922,1.3639359,-2.4815505,-4.9687386,-6.2765923,-7.433393,-9.8065157,-14.387806,-21.244526,-29.433746,-37.436714,-43.888145,-48.21233,-50.828625,-52.826653,-55.301857,-58.722164,-62.668133,-66.074478,-67.825737,-67.374657,-65.054031,-61.926498,-59.264782,-57.940147,-58.034874,-58.871376,-59.438557,-58.997311,-57.556374,-55.966934,-55.563488,-57.500923,-62.098656,-68.524002,-75.004173,-79.509125,-80.609291,-78.107147,-73.133522,-67.653557,-63.617931,-62.169178,-63.275719,-65.936317,-68.802254,-70.865112,-71.860237,-72.224396,-72.702591,-73.871803,-75.85006,-78.30806,-80.706688,-82.569923,-83.626907,-83.782295,-83.002296,-81.246574,-78.512054,-74.940353,-70.865311,-66.699997,-62.673897,-58.555363,-53.549091,-46.494286,-36.33683,-22.686052,-6.1877446,11.50156,28.18247,41.856335,51.429775,57.058769,59.960339,61.767277,63.729141,66.153389,68.372887,69.25811,67.997009,64.704491,60.502396,57.002029,55.470119,56.159824,58.208504,60.174557,60.896957,60.154057,58.713223,57.742302,57.963963,59.110661,60.055824,59.560246,57.160522,53.610096,50.553616,49.604633,51.392269,55.179073,59.299145,62.144165,63.075863,62.694004,62.309288,62.98423,64.77803,66.686974,67.310928,65.804527,62.495953,58.782761,56.382053,56.410557,58.846428,62.650108,66.397713,68.992409,70.038551,69.745049,68.547638,66.782623,64.62854,62.276798,60.102066,58.622383,58.237747,58.946133,60.284264,61.580887,62.365791,62.639961,62.799534,63.261024,64.070137,64.804504,64.869942,63.985764,62.489674,61.201027,60.901852,61.796066,63.355625,64.699409,65.246582,65.138527,65.034386,65.318214,65.223465,62.549671,54.352684,38.388603,14.555606,-14.526392,-44.23138,-69.651299,-87.466965,-97.028038,-100.16908,-99.997955,-99.408302,-100.09451,-102.41724,-105.90266,-109.83978,-113.54621,-116.2732,-117.07875,-115.03259,-109.79956,-102.2345,-94.453773,-89.103027,-88.080574,-91.429596,-97.133324,-102.06196,-103.61073,-101.09259,-96.043854,-91.237839,-88.994011,-89.810875,-92.150337,-93.478325,-91.881821,-87.238266,-81.225021,-76.21492,-73.809418,-73.960541,-75.207947,-75.80603,-74.939102,-73.198929,-72.026802,-72.537292,-74.557083,-76.557976,-76.548424,-73.336517,-67.324631,-60.30851,-54.414978,-50.87595,-49.431465,-48.72226,-47.373856,-45.024731,-42.608875,-41.712818,-43.448467,-47.598442,-52.604767,-56.414822,-57.644749,-56.32766,-53.793457,-51.785625,-51.387726,-52.421616,-53.650688,-53.608692,-51.506596,-47.665924,-43.260239,-39.58252,-37.319023,-36.254539,-35.530022,-34.232002,-31.927288,-28.841169,-25.628563,-22.92926,-20.990238,-19.552452,-18.019836,-15.776915,-12.475672,-8.1702747,-3.2765124,1.5915245,5.8294883,9.0267963,11.076614,12.178669,12.728349,13.128202,13.605316,14.131701,14.502154,14.531007,14.245627,13.938128,14.018643,14.746449,16.015772,17.360188,18.20941,18.260942,17.731625,17.307581,17.79092,19.640125,22.681765,26.178236,29.216875,31.18515,32.042072,32.230534,32.309036,32.56216,32.854687,32.82056,32.241367,31.330528,30.697195,30.982821,32.398499,34.481857,36.268646,36.811199,35.740639,33.521793,31.22546,29.938782,30.162785,31.560442,33.205872,34.17588,34.11507,33.424202,32.961391,33.45269,34.993309,36.963058,38.418312,38.717892,37.984615,37.095135,37.176559,38.895016,41.962574,45.176704,47.004009,46.403378,43.436459,39.320465,35.878372,34.666634,36.231941,39.877071,44.046635,47.123936,48.227592,47.609348,46.466946,46.282818,48.03109,51.652023,56.053391,59.635365,61.07745,59.997345,57.152954,54.083817,52.36784,52.866432,55.340786,58.633266,61.310791,62.419502,61.939201,60.695583,59.798096,59.946842,61.026558,62.229256,62.619205,61.775478,60.095631,58.559238,58.100983,59.004375,60.723602,62.265228,62.888027,62.654606,62.449913,63.425537,66.213837,70.423775,74.762253,77.723816,78.420853,77.034294,74.615433,72.395584,71.0746,70.55101,70.233185,69.661888,68.963196,68.788696,69.784828,71.992958,74.651756,76.596672,77.015152,76.034233,74.697281,74.292961,75.45388,77.629593,79.311241,78.887932,75.580215,69.827606,62.861816,55.745247,48.526722,40.106247,28.941267,14.167229,-3.5821316,-22.194889,-38.958462,-51.781902,-60.052887,-64.669838,-67.310364,-69.444199,-71.69471,-73.863174,-75.472664,-76.373268,-76.970833,-77.952217,-79.747833,-82.142555,-84.321304,-85.321953,-84.595062,-82.317131,-79.288094,-76.518913,-74.787155,-74.406754,-75.272133,-77.049629,-79.33448,-81.688965,-83.625946,-84.66983,-84.553558,-83.456619,-82.087723,-81.467316,-82.452499,-85.245872,-89.188782,-93.001221,-95.368309,-95.558929,-93.735596,-90.799889,-87.893028,-85.860374,-84.974022,-85.012772,-85.564713,-86.303055,-87.058189,-87.698822,-87.99205,-87.619118,-86.37645,-84.41114,-82.270035,-80.654037,-79.988815,-80.093666,-80.209526,-79.429214,-77.29351,-74.171646,-71.150383,-69.460411,-69.776962,-71.831886,-74.586388,-76.851761,-77.950027,-77.983498,-77.556465,-77.182251,-76.842201,-76.061935,-74.486267,-72.523705,-71.494377,-72.984573,-77.646667,-84.145119,-89.009415,-87.721512,-76.661003,-54.971554,-25.35256,6.7123795,34.975395,54.734753,64.355911,65.377769,61.329353,55.994389,52.012081,50.362293,50.71336,52.171803,53.899998,55.332066,56.081997,55.835583,54.433704,52.099724,49.559479,47.830116,47.696655,49.175247,51.349461,52.772842,52.26281,49.620663,45.807755,42.421322,40.751877,40.98914,42.076183,42.326645,40.449142,36.367172,31.339952,27.31078,25.86853,27.426128,31.068851,35.114014,38.012379,39.059689,38.553288,37.39426,36.459213,36.149822,36.349541,36.717266,37.039421,37.371365,37.898209,38.672409,39.475159,39.938442,39.846268,39.372162,39.034828,39.352982,40.416428,41.687244,42.220947,41.22213,38.60421,35.181736,32.327503,31.257343,32.350143,34.910137,37.522827,38.804115,38.110504,35.811687,32.997307,30.826288,29.918688,30.129866,30.786802,31.184498,31.010832,30.459856,30.02194,30.144115,31.001951,32.503078,34.455276,36.718628,39.200638,41.702824,43.771172,44.723648,43.909618,41.078075,36.627094,31.552858,27.091024,24.228622,23.341856,24.132795,25.8592,27.692726,29.004566,29.468897,29.017754,27.76498,25.990309,24.1688,22.94383,22.95191,24.520927,27.395573,30.68996,33.170399,33.778893,32.13863,28.756508,24.785988,21.458063,19.481958,18.741095,18.443874,17.630943,15.742863,12.929586,9.9436274,7.7024398,6.7866921,7.1591463,8.2423811,9.2791834,9.7449989,9.5734358,9.0864525,8.7041206,8.6328049,8.7264891,8.5948324,7.8733654,6.4732838,4.6472745,2.8275833,1.3377731,0.16138922,-1.0798444,-2.910522,-5.6652231,-9.2269964,-13.002694,-16.170162,-18.081627,-18.618559,-18.311916,-18.15756,-19.205219,-22.105629,-26.814365,-32.574238,-38.174568,-42.374687,-44.324783,-43.832901,-41.394753,-37.993076,-34.751556,-32.573727,-31.894201,-32.622089,-34.277176,-36.242229,-38.011299,-39.32943,-40.184273,-40.691525,-40.964348,-41.046513,-40.928661,-40.604122,-40.09927,-39.451019,-38.665352,-37.723347,-36.666748,-35.714634,-35.298935,-35.926704,-37.888237,-40.967674,-44.369846,-46.987843,-47.929024,-47.020138,-44.967857,-43.020527,-42.277298,-43.037594,-44.601551,-45.682873,-45.216824,-43.077087,-40.241627,-38.273262,-38.410534,-40.824432,-44.508793,-47.881981,-49.728565,-49.892212,-49.289421,-49.249901,-50.621243,-53.221924,-55.992119,-57.731602,-57.9291,-57.131268,-56.604626,-57.510708,-60.132889,-63.660301,-66.67067,-68.002739,-67.459938,-65.899178,-64.654869,-64.670197,-65.889786,-67.298271,-67.582916,-66.010803,-62.979416,-59.89703,-58.447491,-59.652683,-63.257523,-67.774536,-71.155647,-71.723183,-68.869148,-63.177883,-55.946308,-48.393661,-41.001305,-33.336884,-24.44779,-13.600535,-0.95388657,12.221668,23.934412,32.30991,36.467098,36.980701,35.670509,34.796921,36.049625,39.831028,45.185402,50.388504,53.866711,54.95451,54.108376,52.513145,51.354565,51.197121,51.806911,52.467014,52.531055,51.836151,50.718735,49.65836,48.829487,47.900352,46.246624,43.455441,39.780399,36.21159,34.056145,34.237385,36.719246,40.414806,43.667557,45.062046,44.125935,41.543999,38.777359,37.30555,37.898586,40.283169,43.335556,45.65773,46.228371,44.832798,42.127956,39.37685,37.997906,39.089214,43.048222,49.371174,56.703091,63.184216,67.057716,67.364708,64.432587,59.864697,55.926525,54.532856,56.308941,60.238552,64.153145,65.865799,64.364975,60.401573,56.111309,53.856316,54.930492,58.867378,63.742733,67.277206,68.069435,66.222534,63.00864,59.812946,57.037888,53.66124,47.727093,37.473763,22.425573,3.8198943,-15.842159,-33.820889,-48.148983,-58.125481,-64.157974,-67.206444,-68.243408,-68.01506,-67.099464,-66.040558,-65.333794,-65.229118,-65.524872,-65.581802,-64.63781,-62.266598,-58.682587,-54.667305,-51.139832,-48.641373,-47.074188,-45.869553,-44.469105,-42.787415,-41.330444,-40.872574,-41.889538,-44.111816,-46.493843,-47.641106,-46.464233,-42.705826,-37.073044,-30.934483,-25.759146,-22.568714,-21.620556,-22.40193,-23.887579,-24.945942,-24.764732,-23.173878,-20.753971,-18.656763,-18.153502,-20.059093,-24.284994,-29.766584,-34.854729,-38.017281,-38.503845,-36.617439,-33.4412,-30.179615,-27.504421,-25.294121,-22.912733,-19.833326,-16.188105,-12.865187,-11.053248,-11.486929,-13.848784,-16.710865,-18.094109,-16.369974,-11.03371,-2.9491956,6.048892,13.977898,19.53845,22.564581,23.917797,24.927567,26.680109,29.498407,32.841637,35.647964,36.945164,36.434593,34.763462,33.333786,33.708481,36.876427,42.733025,50.056587,57.029785,62.071819,64.563171,65.075363,64.969986,65.576958,67.408669,69.860474,71.579094,71.294991,68.638481,64.459,60.449978,58.282116,58.731464,61.286911,64.442383,66.490204,66.364357,64.083504,60.596249,57.174259,54.728367,53.420986,52.73967,51.923855,50.460659,48.37125,46.165272,44.537182,43.999256,44.641838,46.110153,47.765514,48.924976,49.071205,47.970993,45.695908,42.571804,39.089977,35.804619,33.231285,31.756123,31.563139,32.58691,34.500389,36.75264,38.671482,39.630249,39.243595,37.519161,34.880329,32.014454,29.587133,27.951832,27.015366,26.353884,25.532875,24.446419,23.450861,23.171043,24.058981,25.965202,28.017715,28.947351,27.728897,24.186357,19.189325,14.279741,10.902866,9.6687069,10.075284,10.862594,10.787821,9.3516665,7.032629,4.89292,3.8182509,3.8901453,4.3071132,3.9161296,2.0129914,-1.1179845,-4.2991209,-6.157373,-5.9950767,-4.2738023,-2.3815548,-1.8025736,-3.1922505,-5.9311152,-8.4425278,-9.0905848,-7.1208844,-3.0878613,1.4683467,4.8792243,6.2204628,5.7038665,4.4090772,3.5728829,3.8856077,5.1881957,6.682724,7.4615955,7.0112748,5.4227743,3.2564776,1.20904,-0.20207734,-0.79433012,-0.70240527,-0.2607044,0.13770607,0.17265299,-0.28600654,-1.0984683,-1.8682021,-2.094022,-1.4311926,0.067699991,1.897415,3.3151188,3.7430882,3.1311779,2.0418077,1.3736031,1.8675799,3.6856925,6.3098269,8.7985086,10.205313,9.8725395,7.434907,2.6118481,-4.9524369,-15.570322,-29.115467,-44.620529,-60.232082,-73.705833,-83.270096,-88.395218,-90.000237,-89.939034,-90.04789,-91.313629,-93.639771,-96.292274,-98.657524,-100.75083,-103.11107,-106.17501,-109.62378,-112.24865,-112.53763,-109.66697,-104.24649,-98.26358,-94.15641,-93.515526,-96.188187,-100.34888,-103.52213,-103.96307,-101.58461,-97.902893,-95.072021,-94.618439,-96.63147,-99.848106,-102.50539,-103.38512,-102.41132,-100.49326,-98.799423,-97.980766,-97.840462,-97.615112,-96.624153,-94.825623,-92.909081,-91.877457,-92.398605,-94.338669,-96.75988,-98.375626,-98.196564,-96.017883,-92.516296,-88.946892,-86.61866,-86.391617,-88.379883,-91.931,-95.854866,-98.8228,-99.831345,-98.599976,-95.752678,-92.660172,-90.927925,-91.687447,-94.99836,-99.687531,-103.7821,-105.39211,-103.6255,-99.047432,-93.404755,-88.733902,-86.334457,-86.191811,-87.184052,-87.936165,-87.768707,-87.098495,-86.969368,-87.950363,-89.096573,-87.720871,-80.300552,-64.167389,-39.102993,-7.921936,24.37101,52.488045,72.87178,84.797119,90.061935,91.559158,91.617302,91.048424,89.337761,85.679489,80.06398,73.656136,68.224403,65.035606,63.990288,63.612373,61.938969,57.761646,51.434715,44.738461,39.88055,38.251091,39.678913,42.601521,44.989246,45.426949,43.717972,40.729099,37.686527,35.437054,34.130215,33.432369,33.010498,32.877266,33.345596,34.666252,36.668499,38.720184,40.080326,40.419266,40.142101,40.269497,41.919651,45.69632,51.344761,57.861439,63.962006,68.613747,71.345085,72.227058,71.640205,70.041557,67.879585,65.64035,63.884628,63.149319,63.721329,65.43779,67.69735,69.746361,71.104385,71.861938,72.624306,74.084793,76.460922,79.153763,80.89502,80.369286,76.99836,71.436928,65.450653,61.175507,60.109669,62.36507,66.592819,70.648857,72.667732,71.985519,69.426369,66.806953,65.934036,67.641708,71.384453,75.587891,78.536644,79.287743,78.101379,76.173424,74.86245,74.888405,75.97644,77.133804,77.357346,76.310692,74.53978,73.090271,72.769653,73.523376,74.333008,73.729973,70.644768,65.102287,58.352211,52.340401,48.794235,48.404064,50.523228,53.526852,55.628548,55.735825,53.930172,51.362473,49.641689,50.022511,52.772038,57.001118,61.035442,63.167084,62.457798,59.230888,55.006516,51.873692,51.555042,54.590168,60.039719,65.883423,69.944321,70.891151,68.811058,65.057846,61.466251,59.369026,58.9604,59.345367,59.214218,57.71854,55.018108,52.18013,50.512321,50.752625,52.611904,54.932964,56.343784,55.989021,53.904671,50.851482,47.775043,45.276268,43.428314,42.004906,40.890949,40.327171,40.779739,42.517078,45.214619,47.91798,49.461758,49.118534,47.06321,44.322361,42.194923,41.479362,41.990921,42.691818,42.377838,40.502449,37.611351,35.083939,34.306534,35.769321,38.653446,41.199001,41.678753,39.426544,35.313282,31.367807,29.728468,31.49831,36.136787,41.720467,45.921955,47.167007,45.352306,41.771358,38.340332,36.583424,36.928417,38.648705,40.407516,41.041191,40.129955,38.076992,35.724861,33.796524,32.512508,31.589136,30.570679,29.247093,27.873547,27.04567,27.303905,28.707766,30.643484,32.000488,31.651115,29.004906,24.365051,18.905451,14.257894,11.870272,12.393694,15.35046,19.233086,22.027988,21.994839,18.415413,11.999373,4.724988,-0.90648401,-2.9724114,-1.1542965,2.7873447,5.3897638,2.6682842,-8.32827,-28.239952,-54.980026,-84.405716,-111.80516,-133.5451,-148.15266,-156.39326,-160.41188,-162.45758,-163.87347,-164.82544,-164.79094,-163.39891,-161.04483,-158.8889,-158.25392,-159.823,-163.16048,-166.87773,-169.36415,-169.65491,-167.92032,-165.29083,-163.13158,-162.20821,-162.24567,-162.13782,-160.67381,-157.33955,-152.71571,-148.23938,-145.47462,-145.31671,-147.57645,-151.15038,-154.63727,-157.01863,-158.02328,-158.02202,-157.59641,-157.10608,-156.53529,-155.67838,-154.48051,-153.24953,-152.55891,-152.89297,-154.27881,-156.17084,-157.68674,-158.05505,-156.9902,-154.76266,-151.94193,-149.01233,-146.13701,-143.22313,-140.20949,-137.32761,-135.10687,-134.0907,-134.46172,-135.86198,-137.56447,-138.89302,-139.59055,-139.85844,-140.03146,-140.14137,-139.73697,-138.15887,-135.11671,-131.13959,-127.49216,-125.49817,-125.66357,-127.21892,-128.49562,-128.00589,-125.55817,-122.6029,-121.41743,-123.49027,-128.07143,-131.89177,-130.42873,-120.15809,-100.56115,-74.702271,-47.966251,-25.600956,-10.407067,-1.8226033,3.1785376,8.0092201,14.485988,22.064695,28.608227,32.054642,31.862362,29.345499,26.783045,25.971691,27.197168,29.260723,30.471598,29.892807,27.999907,26.338465,26.441727,28.750565,32.261143,35.140636,35.921612,34.51228,32.371628,31.712473,34.190609,39.852306,46.965664,52.850975,55.255638,53.518902,48.898773,43.905296,41.022797,41.514961,44.926514,49.491184,53.160046,54.656479,53.99773,52.263165,50.823418,50.525925,51.307255,52.40818,52.992481,52.744068,52.066208,51.783962,52.571236,54.48455,56.894665,58.839767,59.559727,58.880283,57.240219,55.395607,54.02224,53.456444,53.675419,54.442318,55.460052,56.436382,57.090134,57.20142,56.756531,56.104366,55.952438,57.091377,59.933002,64.140205,68.647232,72.157898,73.878395,74.024162,73.718338,74.267616,76.235062,78.927277,80.70311,79.992714,76.41552,71.254326,66.901459,65.544052,67.875473,72.655426,77.433365,80.013718,79.749916,77.845703,76.471443,77.270325,80.229797,83.658478,85.286171,83.767258,79.604042,74.888123,72.033661,72.327972,75.227707,78.820038,81.099197,81.193512,79.752014,78.296196,78.043541,79.040192,80.188026,80.108032,78.201523,75.150406,72.509285,71.684677,73.018684,75.605286,77.942543,78.939331,78.565392,77.71006,77.394951,77.946426,78.749191,78.761047,77.397621,75.10627,73.162376,72.787872,74.210342,76.366379,77.528572,76.483078,73.463234,70.162193,68.746979,70.477715,74.833977,79.746704,82.819847,82.772682,80.179459,77.036064,75.445061,76.278618,78.680061,80.704529,80.65374,78.219276,74.695305,72.14357,72.074036,74.499092,77.953049,80.433014,80.637764,78.723198,76.135445,74.67688,75.419617,78.125977,81.475693,83.891647,84.428024,83.212357,81.255371,79.824661,79.783775,81.240936,83.616211,86.001289,87.581673,87.936226,87.140892,85.692368,84.299507,83.597366,83.863434,84.852028,85.861969,86.06234,84.947701,82.669922,80.014458,77.979958,77.182602,77.462181,77.979225,77.788292,76.533997,74.788376,73.743073,74.394257,76.731712,79.502136,80.784355,79.086571,74.29866,67.874672,62.082779,58.75462,58.302086,59.612736,60.874569,60.781116,59.327385,57.689404,57.298107,58.755478,61.335976,63.406311,63.467697,61.107201,57.225334,53.419498,50.985237,50.236973,50.58371,51.220295,51.832912,52.712173,54.132061,55.456234,54.724667,49.213436,36.796856,17.328039,-6.8667789,-31.79196,-53.493984,-69.707809,-80.500038,-87.609192,-93.005013,-97.645142,-101.20302,-102.82718,-102.2718,-100.5066,-99.324188,-100.21416,-103.32821,-107.32097,-110.24039,-110.88717,-109.70222,-108.5374,-109.42339,-113.14809,-118.61288,-123.42702,-125.37655,-123.81763,-120.09455,-116.72638,-115.90546,-118.27197,-122.70482,-127.17738,-130.0463,-130.92191,-130.62334,-130.37048,-130.8519,-131.81448,-132.39023,-131.84015,-130.1411,-128.01547,-126.44485,-126.07145,-126.92159,-128.59109,-130.66554,-132.99355,-135.59576,-138.32509,-140.61987,-141.62753,-140.67305,-137.74892,-133.65062,-129.62563,-126.75771,-125.50039,-125.65314,-126.73444,-128.41393,-130.64958,-133.44817,-136.505,-139.10432,-140.45457,-140.25114,-139.0098,-137.82779,-137.65218,-138.55766,-139.60974,-139.51143,-137.64294,-134.74249,-132.65079,-133.18025,-136.83876,-142.33257,-147.2961,-149.83147,-149.78976,-148.79372,-148.81357,-150.15822,-150.29861,-144.55981,-128.56725,-101.13037,-65.795189,-29.949598,-1.7690545,13.41187,15.337068,8.4957533,-0.49299836,-6.2353067,-6.8150434,-3.884613,-0.86065704,-0.5272578,-3.5051618,-8.320591,-12.741904,-15.336483,-16.231052,-16.716209,-18.126089,-20.828896,-23.981956,-26.130507,-26.182903,-24.114304,-20.995888,-18.398378,-17.570599,-18.856215,-21.609148,-24.573566,-26.488144,-26.629969,-25.094225,-22.727934,-20.751284,-20.199633,-21.402771,-23.747797,-25.892641,-26.395046,-24.476164,-20.501598,-15.861357,-12.252179,-10.738268,-11.144799,-12.17683,-12.221946,-10.35451,-6.9065828,-3.2293849,-0.78859895,-0.18194407,-0.73380673,-0.95156717,0.44444686,3.5996959,7.3402376,9.874155,9.9412127,7.6654868,4.5464296,2.5792048,3.0574486,5.8138523,9.3648939,11.843307,12.108988,10.345653,7.8140545,5.990715,5.6968341,6.7799206,8.4953499,10.246264,12.109176,14.750518,18.79063,24.081305,29.446796,33.13847,33.771797,31.173765,26.597008,22.136684,19.67424,19.956465,22.326769,25.22451,27.117334,27.305313,26.157778,24.714428,23.959108,24.23085,25.101175,25.731237,25.436832,24.100555,22.207064,20.527449,19.677681,19.814466,20.613504,21.496622,21.949255,21.757549,21.073383,20.318014,19.997589,20.511002,22.004183,24.300982,26.929394,29.251953,30.6805,30.910923,30.080442,28.760504,27.763697,27.83231,29.341282,32.145695,35.634735,38.956787,41.310307,42.183968,41.473198,39.463055,36.712322,33.88752,31.587126,30.189445,29.757008,30.030888,30.530037,30.733334,30.281101,29.116291,27.509058,25.959574,25.024672,25.133398,26.444298,28.769402,31.576012,34.078251,35.431141,35.008968,32.690556,29.0177,25.099115,22.227957,21.337652,22.548395,25.061689,27.508591,28.614899,27.850147,25.704687,23.423841,22.325649,23.069237,25.277136,27.720951,28.964228,28.105295,25.218437,21.274939,17.61956,15.31117,14.679762,15.300319,16.339067,17.037952,17.063221,16.55769,15.917375,15.4578,15.171462,14.70742,13.575141,11.45932,8.4770803,5.2346373,2.6301839,1.470646,2.0711977,4.0407333,6.3930125,7.9738498,8.0231085,6.5873623,4.5408993,3.1589496,3.4344893,5.4967103,8.4675474,10.87097,11.402954,9.6515503,6.3637424,3.0948546,1.4177891,2.1157815,4.7922831,8.0989294,10.445747,10.807801,9.2151794,6.7067261,4.8206797,4.9182005,7.6807003,12.987362,20.163774,28.41608,37.20977,46.419209,56.209972,66.744484,77.874008,88.976128,99.030174,106.91785,111.83154,113.60952,112.83089,110.60351,108.12617,106.23112,105.13455,104.51839,103.88079,102.93764,101.82773,101.00079,100.87296,101.48866,102.42699,103.02941,102.80897,101.77368,100.44695,99.564194,99.637024,100.66087,102.14449,103.42725,104.06875,104.06404,103.77008,103.62556,103.86999,104.44106,105.08401,105.55833,105.77895,105.80762,105.73878,105.60079,105.36029,105.01243,104.65652,104.46906,104.5836,104.98323,105.51625,106.04275,106.59046,107.35677,108.49747,109.82843,110.68864,110.15474,107.56424,103.0502,97.707008,93.190155,90.910431,91.280518,93.490532,95.984619,97.364662,97.154739,95.93145,94.733559,94.145004,93.677223,91.890419,87.206039,78.894608,67.592667,55.001724,42.953285,32.434155,23.180834,14.068366,3.9987936,-7.3137951,-19.163155,-30.351011,-39.98946,-48.050888,-55.313782,-62.775272,-70.949448,-79.512527,-87.49305,-93.834404,-97.942924,-99.89933,-100.28141,-99.805168,-99.060387,-98.471901,-98.397644,-99.165375,-100.93175,-103.44674,-105.94762,-107.36401,-106.80408,-104.06544,-99.847923,-95.500465,-92.415947,-91.404961,-92.387848,-94.542732,-96.776886,-98.226715,-98.526634,-97.772034,-96.289886,-94.404915,-92.322906,-90.132675,-87.85305,-85.468048,-82.955826,-80.345955,-77.798798,-75.633095,-74.217819,-73.73407,-73.947746,-74.196747,-73.697838,-72.052879,-69.632652,-67.514343,-66.894974,-68.269104,-70.891861,-72.954773,-72.491447,-68.545547,-61.897392,-54.849369,-50.117043,-49.432606,-52.671261,-58.013653,-63.03125,-66.024673,-66.811966,-66.538918,-66.714905,-68.152618,-70.504288,-72.648071,-73.5942,-73.244667,-72.47049,-72.460182,-73.80394,-75.958473,-77.47966,-76.891815,-73.640556,-68.521271,-63.314899,-59.85825,-59.107479,-60.721577,-63.347363,-65.371078,-65.674919,-64.014404,-60.917194,-57.288837,-54.014805,-51.748425,-50.880363,-51.560482,-53.661556,-56.699516,-59.82888,-62.024117,-62.432457,-60.740276,-57.342537,-53.19413,-49.397511,-46.733006,-45.368462,-44.88171,