Bandpass,0,0.20029,-597.613647,1177.99988,1933.48022,1512.76379,297.92569,-948.778259,-1554.35718,-1350.599,-728.310303,-302.478638,-446.544403,-1037.53101,-1583.75244,-1619.46826,-1061.69434,-267.107239,240.324127,156.658203,-389.776428,-950.819336,-1100.80164,-748.996643,-194.417786,107.412697,-115.600487,-757.562561,-1421.45667,-1713.11658,-1520.53186,-1076.91687,-771.883606,-859.546753,-1280.3855,-1720.91003,-1856.36926,-1590.9519,-1120.23145,-778.124634,-789.436951,-1112.49963,-1482.52173,-1615.0929,-1414.42822,-1034.48657,-755.129883,-771.955566,-1056.88171,-1387.93738,-1518.99353,-1359.54517,-1033.21399,-777.925659,-767.703308,-989.428589,-1261.74854,-1375.71985,-1248.9967,-980.455811,-769.899231,-767.466248,-965.70105,-1211.02844,-1320.91443,-1216.67249,-974.675781,-762.713257,-713.435852,-830.173401,-992.19165,-1050.62122,-940.407898,-725.374512,-546.268494,-514.136108,-629.633484,-786.455383,-852.993835,-769.290833,-587.753784,-430.177826,-395.920471,-490.313629,-624.753296,-685.453674,-617.883728,-464.677307,-331.317322,-307.585602,-403.785492,-547.477173,-640.474304,-632.021118,-554.178894,-495.215271,-532.836731,-677.295532,-865.084106,-1005.57977,-1044.73389,-999.408569,-939.470398,-933.555847,-999.659424,-1095.81458,-1155.04138,-1136.35315,-1053.55518,-961.989746,-915.354858,-926.168579,-959.175598,-961.32373,-904.672485,-809.799438,-732.616089,-724.807678,-796.993042,-910.827881,-1004.67523,-1033.57422,-995.299622,-925.882202,-870.52063,-852.516724,-862.11438,-870.741638,-857.156799,-824.479187,-795.756714,-793.073608,-817.686157,-847.149841,-851.669678,-816.883484,-755.4245,-698.30719,-672.535034,-681.639282,-703.521667,-706.998352,-674.68219,-615.459412,-557.778992,-529.100769,-536.650391,-563.142029,-579.848145,-566.894226,-526.008911,-477.169312,-442.614471,-430.559418,-430.375427,-421.936951,-391.344971,-341.059875,-287.325226,-247.576172,-227.793167,-219.237244,-206.464096,-179.920929,-143.262878,-109.94146,-92.0119858,-90.0136719,-91.8076782,-81.3112717,-50.5091362,-5.65339184,37.0455437,63.0705833,69.9940033,69.0122757,76.5959549,102.462799,142.651184,182.597427,207.775192,214.06282,210.421387,212.218384,230.293182,263.714386,301.208588,329.807251,344.142395,349.667114,357.789185,376.875275,405.925323,435.495758,454.977112,460.707916,458.959412,461.722534,478.484924,509.953552,548.06311,581.958984,605.433044,620.51416,634.961548,655.885376,684.335876,714.685059,738.915222,752.373779,756.716187,758.092896,762.241455,770.313416,778.476807,781.343506,776.413269,766.120178,756.064514,750.978149,751.635437,755.059937,757.724121,759.074158,762.444946,772.46051,790.793335,813.564514,832.622437,840.170898,833.740601,818.114319,802.810303,796.696594,803.171814,818.861206,836.360596,848.947632,854.142517,854.104248,853.161316,854.599304,858.969299,864.734558,870.256287,875.289429,880.818848,887.569031,894.631165,899.523499,899.792969,894.967773,887.30896,880.668274,878.168701,880.312317,884.821228,888.269836,888.308228,884.933472,880.045959,875.811523,873.166443,871.564514,870.013062,868.413635,868.006836,870.476196,876.378296,884.176941,890.769836,893.293701,890.997864,885.847412,881.364258,880.440063,883.572021,888.672119,892.509216,892.744934,889.189758,883.536011,877.92511,873.478821,869.834717,865.897644,861.096802,856.10022,852.413086,851.174683,852.098206,853.400146,852.82605,849.065308,842.556213,835.119629,828.696838,824.084534,820.526489,816.384827,810.353394,802.341125,793.451233,785.165222,778.385132,773.015625,768.298523,763.53186,758.562134,753.688049,749.138794,744.648682,739.56134,733.429138,726.610596,720.293762,715.783142,713.482422,712.330811,710.219055,705.249512,697.061096,687.299438,678.806519,673.93634,673.016052,673.940552,673.212646,667.846619,657.017029,642.494873,627.655029,615.684998,608.048035,604.024658,601.461304,598.149902,592.97699,586.228149,579.01355,572.298767,566.186646,559.860901,552.158752,542.380615,530.846924,518.891357,508.293152,500.431641,495.567413,492.598663,489.44043,483.908142,474.744934,462.317902,448.599396,436.353027,427.846863,423.71814,422.60907,421.833008,418.768066,412.231262,403.046967,393.458374,385.709564,380.640015,377.147736,372.859222,365.601044,354.769348,341.760742,329.225098,319.637665,314.088837,311.99585,311.801086,312.07428,312.225952,312.391785,312.695374,312.565826,310.730591,305.963623,298.044861,288.14975,278.249756,269.824921,262.758698,255.258057,244.988159,230.751465,213.58255,196.430588,182.511002,173.330383,167.687454,162.381241,154.258987,142.328201,128.558228,116.799988,110.452789,110.318367,113.974762,117.043114,115.54216,107.890724,95.4176483,81.2348404,68.3384476,58.1670952,50.3807678,43.7159576,37.0862961,30.0929489,22.7231369,14.733717,5.46531487,-5.58303785,-17.8391438,-29.2949753,-37.3523788,-40.6840973,-41.0378342,-43.67136,-55.7713432,-83.4184036,-128.642456,-188.19809,-254.774445,-319.988434,-377.54129,-424.936707,-463.112793,-494.587738,-521.467224,-544.494507,-563.442505,-578.207336,-589.590698,-599.144531,-608.241638,-617.135742,-624.76062,-629.448425,-630.065613,-626.776245,-620.930481,-614.214172,-607.696777,-601.43927,-594.874329,-587.604187,-579.989075,-573.096008,-568.069397,-565.398499,-564.59375,-564.458008,-563.707703,-561.495178,-557.52771,-551.828552,-544.448181,-535.415588,-524.951843,-513.70105,-502.684418,-492.908234,-484.860992,-478.267303,-472.304688,-466.147339,-459.448425,-452.4104,-445.404877,-438.451782,-430.981598,-422.093811,-411.146393,-398.254791,-384.344055,-370.725403,-358.509277,-348.252136,-340.014923,-333.67157,-329.131378,-326.272095,-324.69812,-323.654907,-322.334717,-320.447754,-318.608948,-318.109009,-320.056915,-324.412415,-329.644196,-333.411133,-333.952576,-331.28714,-327.337524,-324.78183,-325.337921,-328.656647,-332.637848,-334.988861,-334.918671,-333.698975,-333.611938,-336.011139,-339.964172,-342.619843,-341.208435,-335.306854,-327.646149,-322.6633,-323.61499,-330.231598,-338.687927,-344.138031,-344.226196,-341.165039,-340.839844,-349.426483,-369.799866,-400.232635,-436.291626,-474.497528,-514.916321,-560.515747,-613.516541,-671.451233,-726.349548,-768.6521,-794.129028,-809.462952,-832.192932,-883.720581,-978.366455,-1114.35168,-1272.08643,-1421.35352,-1534.02954,-1595.83887,-1611.172,-1598.88635,-1581.91187,-1576.53149,-1586.76514,-1605.87744,-1622.89209,-1629.59814,-1624.07751,-1609.55518,-1590.40625,-1568.55676,-1542.64221,-1510.02698,-1469.79016,-1424.33923,-1378.5321,-1337.05774,-1302.01428,-1272.36328,-1245.52515,-1219.86182,-1196.21753,-1177.39331,-1165.89368,-1161.48108,-1160.22009,-1155.73145,-1141.95007,-1115.72986,-1077.73779,-1031.1571,-979.069336,-922.187988,-858.397217,-784.455627,-698.918396,-604.572327,-508.891571,-422.077484,-353.539429,-308.496368,-286.299866,-281.178558,-284.893494,-289.931061,-291.764526,-289.367554,-284.137238,-278.123657,-272.607788,-267.636871,-262.458313,-256.318848,-249.044174,-241.123398,-233.405411,-226.70665,-221.551666,-218.063248,-215.894592,-214.153549,-211.420242,-206.020493,-196.582504,-182.651001,-164.980133,-145.246307,-125.27964,-106.262909,-88.4110947,-71.3306961,-54.7690659,-39.1590919,-25.4985867,-14.6088295,-6.32918596,0.676956177,8.23506451,17.4819298,28.017046,38.0465622,45.5145836,49.4970398,50.8968506,51.9269791,54.7046852,59.9078026,66.4023743,72.060997,75.1554794,75.3367844,73.5759811,71.2458115,69.1513214,67.2878952,65.4525833,64.0888672,64.5218277,68.2407608,75.7241821,85.7843628,96.0928192,104.622299,110.922028,116.136711,121.592743,126.974937,129.649445,126.02655,114.351074,97.0332108,80.6085892,72.8406525,78.4642105,96.2261505,119.281944,138.927048,149.429825,150.919357,148.496384,148.208923,152.607086,158.838287,160.498779,151.920349,131.992569,105.051941,78.451149,58.6482468,48.4800949,47.2070007,52.8146286,64.5062332,83.4095154,111.095169,147.295563,188.839645,230.826279,269.243988,303.036957,333.97583,364.36264,394.310486,420.760437,439.167938,446.792725,445.247314,440.36618,439.281799,446.521942,461.598206,479.512085,493.656281,499.148651,494.651642,482.038513,464.772095,446.444092,430.288757,419.335449,416.256866,422.421417,436.711487,455.308167,473.166595,486.59259,495.248901,502.067108,510.974518,524.019531,540.042175,555.922302,569.410767,581.197144,594.347412,611.323547,630.893677,647.620361,654.805481,649.034973,632.94928,613.921265,599.338745,591.91217,588.638306,584.35553,577.149597,571.106689,573.693115,589.275085,613.784729,635.339905,641.440369,628.086853,603.903442,585.302917,585.223877,603.313171,625.273499,632.889099,618.078003,590.31842,570.596924,574.703308,597.573975,611.562683,583.033081,498.540375,383.143677,295.967346,301.549316,431.621216,660.016846,907.334473,1074.92017,1090.2533,939.081421,667.915588,358.233307,89.3892059,-88.9107285,-163.043411,-144.282135,-53.3766518,87.1339493,251.152039,406.13913,518.932068,571.630249,577.494568,582.240845,643.502869,796.459839,1025.82471,1263.79248,1418.93628,1421.35779,1257.94763,976.741882,658.319336,372.627899,147.983109,-30.1778812,-193.411514,-357.27597,-504.312164,-593.453613,-587.504822,-478.602325,-294.549683,-83.4318008,111.184502,267.483429,386.039032,478.250793,555.035522,624.997559,700.229736,798.980042,935.988708,1103.01257,1254.55859,1315.83154,1217.22229,939.707153,542.705322,151.454254,-96.2083511,-117.381424,72.4229126,366.571869,622.681641,734.578857,679.776428,517.321411,341.889252,225.877182,185.568726,188.496826,190.71434,174.23558,158.15979,178.219406,252.825165,362.588928,459.226715,497.500153,466.858154,399.746155,350.446442,359.25235,426.741821,515.190002,574.84668,575.977661,524.941162,455.220428,402.396149,382.317291,387.337311,400.607971,414.721893,438.697693,487.659332,564.173401,647.597168,702.136475,699.807556,642.182739,564.203918,515.37384,529.719543,604.40155,701.418762,771.296082,782.939575,740.300476,676.270447,629.988831,624.158936,657.013123,711.447815,771.081116,829.127686,883.495972,924.09906,925.854492,857.046021,700.209656,471.075806,219.754181,9.32066441,-116.992371,-159.251297,-158.600021,-169.274979,-222.053146,-302.758728,-360.233215,-339.178955,-217.103317,-21.9659214,180.330093,320.26004,359.319061,304.663849,197.435272,85.3375549,-1.39176667,-56.2822533,-84.7315979,-86.2909088,-46.5972519,53.7936478,219.605957,424.754883,613.048645,718.157532,693.014404,532.796326,279.331757,5.23478174,-213.557327,-323.743011,-309.001343,-189.812912,-12.3556013,167.278152,298.335907,347.229889,304.40451,184.939713,22.0731792,-145.147766,-285.832245,-386.722321,-452.516998,-497.103394,-531.129395,-553.744751,-553.776794,-519.429016,-449.800751,-360.087067,-276.369965,-222.826843,-209.322159,-227.21608,-255.908585,-275.733398,-278.949371,-272.220703,-269.838318,-282.929962,-312.05777,-347.708679,-377.523407,-394.684052,-401.596954,-406.752136,-417.550629,-434.49704,-450.82196,-457.524048,-450.023895,-431.712524,-412.084869,-400.979095,-402.956451,-415.441132,-431.427399,-444.479828,-452.521851,-458.159424,-465.886475,-478.526215,-495.380432,-512.969177,-527.309448,-535.830566,-537.712463,-532.912048,-521.167786,-502.0802,-476.236938,-446.28186,-416.730103,-392.278412,-375.593658,-366.090057,-360.594482,-355.499542,-348.981232,-341.862305,-336.692932,-335.849335,-340.023956,-348.044434,-357.916443,-368.150726,-378.399078,-389.116669,-400.775635,-413.418518,-426.898712,-441.429169,-457.70813,-476.236389,-496.221466,-515.016663,-528.850464,-534.721008,-532.384888,-525.098389,-518.440979,-517.761414,-525.698853,-541.210205,-560.581726,-579.671875,-595.96228,-609.283325,-621.070984,-632.953735,-645.72699,-659.252319,-673.00647,-686.552795,-699.443604,-710.719482,-718.673035,-721.419434,-718.139771,-710.170654,-700.99939,-694.866272,-694.65271,-700.339478,-709.064636,-716.819214,-720.757629,-720.697815,-718.927856,-718.545593,-721.468201,-727.360291,-734.014526,-738.724121,-739.618896,-736.142151,-728.597473,-717.380615,-702.632996,-684.565002,-664.046753,-642.790833,-622.779907,-605.247131,-589.957703,-575.386047,-559.735962,-542.103577,-522.96106,-503.646698,-485.312286,-468.189117,-451.757751,-435.638062,-420.366302,-407.247437,-397.205872,-389.470764,-381.285278,-369.242859,-351.661499,-330.444916,-310.926025,-299.351746,-299.253418,-308.879181,-321.435455,-328.261932,-323.249054,-305.969727,-281.71405,-258.456543,-242.594391,-235.941544,-235.581787,-236.381927,-234.410278,-229.135498,-223.230316,-220.372955,-222.600922,-228.86441,-235.523102,-238.310608,-234.526428,-224.275208,-210.25972,-196.427872,-186.226028,-181.209167,-180.483932,-181.144608,-179.591034,-173.336395,-162.607956,-150.877396,-143.701096,-146.009476,-158.9785,-178.226883,-194.740646,-198.586243,-183.791824,-151.805984,-111.447563,-75.1229477,-53.2624168,-50.0426445,-62.7183876,-84.666153,-109.932495,-136.204529,-164.304062,-194.803711,-224.493027,-245.689423,-249.509338,-231.385254,-195.245941,-153.233612,-120.465988,-107.54364,-115.176949,-134.291809,-151.795288,-158.765747,-156.286194,-155.432709,-171.286942,-214.259247,-283.498932,-365.954315,-441.549927,-491.788239,-507.5466,-492.537354,-461.195435,-432.296448,-421.197845,-433.760712,-464.037903,-496.341064,-510.880005,-491.087555,-430.154602,-334.364044,-221.70575,-115.918892,-38.0354729,1.1894393,4.69498014,-13.1524801,-33.41539,-40.7491302,-29.0592155,-2.27755928,29.499424,55.9634857,71.3623047,75.9441528,74.1077805,71.0970078,70.4959946,73.7417831,81.2479477,93.6850204,112.135635,136.973785,166.488846,196.597137,222.22818,239.70932,248.636948,251.940643,253.994934,257.929626,263.847107,269.086212,270.353119,266.334167,259.098602,253.364777,254.040131,263.496918,280.184235,299.355743,315.457184,324.812866,327.175995,325.428223,323.760071,325.421509,331.232452,339.510193,347.269775,351.932587,352.628876,350.509338,348.05307,347.856018,351.561188,359.405884,370.450623,383.176605,396.00058,407.431946,415.944397,419.915863,417.977539,409.787323,396.803894,382.417633,371.021301,366.224701,369.069794,377.327728,386.503662,392.213379,392.687347,389.907196,388.552002,393.202576,405.376892,422.209229,437.711823,446.032654,444.86496,436.971069,428.831451,427.11618,434.984558,450.345306,467.065094,478.395752,480.631531,474.949066,466.510803,461.5047,463.887421,473.593109,486.971527,498.911957,505.292511,504.471436,497.321533,486.206238,473.744812,462.03299,452.441193,445.667908,441.686096,439.53775,437.276764,432.409027,422.8573,408.031677,389.369507,369.928497,353.159149,341.48941,335.482849,333.979919,335.039673,337.04718,339.331909,342.034668,345.480133,349.600647,353.838501,357.543701,360.495514,363.090637,366.007935,369.576599,373.328003,376.110504,376.757385,374.891693,371.317657,367.691986,365.628906,365.768829,367.378204,368.724274,367.995819,364.22522,357.700073,349.693604,341.757263,335.036011,329.97229,326.453857,324.166931,322.838135,322.21579,321.903229,321.298706,319.80954,317.253876,314.149475,311.593384,310.690063,311.822784,314.239563,316.290619,316.261932,313.346039,308.150238,302.38327,297.855804,295.372406,294.193817,292.425354,288.127045,280.490417,270.369446,259.837585,251.032364,244.983856,241.128326,237.784149,233.272675,226.974258,219.66037,212.904877,207.962463,204.845764,202.216309,198.197586,191.626663,182.954712,174.182373,167.784805,165.209686,165.839005,167.088913,165.68631,159.461441,148.647873,135.907394,124.996246,118.773148,117.662323,119.46537,120.663742,118.489655,112.573822,105.199547,99.9964676,99.8330078,105.156792,113.776398,122.211113,127.775246,130.104675,131.174377,133.801117,139.591446,147.664246,155.001526,158.244217,155.808868,148.965942,141.158722,135.957825,134.924683,136.726044,138.048584,135.714279,128.639465,118.401894,108.098953,100.288429,95.3760834,91.4857941,85.8514023,76.7739487,64.8495941,52.6932793,43.3895111,38.7095375,38.2191391,39.7459106,40.7616348,39.6958389,36.3700142,31.4530983,25.5436783,18.6752949,10.6097994,1.58946097,-7.19214869,-13.9423828,-17.3259125,-17.488636,-16.2301273,-16.0581131,-18.6655064,-23.8396416,-29.5743885,-33.3471107,-33.7061615,-31.0811882,-27.2626095,-23.9337387,-21.312788,-17.8864689,-11.4364986,-0.633060157,13.9391193,30.048275,45.1749878,57.988266,68.9058456,79.401062,90.6441803,102.53315,113.829254,123.231735,130.480194,136.549133,142.731232,149.336639,155.124847,158.082977,157.102814,153.293945,149.776276,149.837189,154.600403,161.886108,167.262436,166.790848,159.688751,149.035217,139.889313,135.972855,137.140366,139.414505,137.648331,129.052231,115.178719,100.983704,91.5920715,88.9888306,90.9047241,92.6218567,90.3783569,83.9537277,76.644371,72.7293701,74.3100739,79.8003082,85.085495,86.4051743,82.7984695,76.3686829,70.3264771,66.4513779,63.9841919,60.7508621,55.472683,49.2039909,44.4997673,42.7911186,42.0788193,37.0905685,22.3141899,-3.96338415,-37.5571251,-70.0803299,-93.6709213,-105.688507,-110.105515,-114.484024,-124.531662,-140.036087,-155.102951,-162.592865,-159.604614,-150.012512,-142.117264,-142.988693,-153.523087,-167.792938,-177.202103,-176.480103,-167.206406,-156.359985,-151.037674,-153.288132,-158.878448,-160.8349,-154.997009,-143.314484,-132.35556,-128.185364,-131.600403,-137.474457,-138.805237,-132.353409,-121.417824,-113.426514,-114.077682,-122.606926,-132.073242,-134.716553,-128.333282,-118.506531,-114.497574,-121.566986,-135.640961,-144.929733,-138.024536,-112.851547,-79.6733627,-55.3354454,-52.4239883,-71.1016159,-99.785675,-124.410332,-139.452087,-152.311554,-177.593658,-225.839966,-296.14502,-379.598694,-471.868439,-584.786743,-745.478882,-979.540649,-1287.20166,-1629.25903,-1936.04065,-2138.57959,-2205.33496,-2161.35938,-2075.51807,-2020.84802,-2031.06409,-2080.30762,-2099.75952,-2021.62769,-1823.19092,-1542.96484,-1258.60876,-1040.71497,-912.124634,-838.640442,-756.390076,-617.230591,-422.169708,-221.152603,-79.9497375,-36.3433418,-74.352562,-132.968628,-143.344315,-70.4991608,66.3433456,206.225891,282.453186,259.317566,148.348251,-2.78634739,-138.739578,-223.699203,-252.616623,-243.858795,-222.150223,-204.297913,-195.110641,-192.219727,-192.852386,-196.380615,-201.839081,-204.623962,-197.250488,-175.223145,-144.180847,-122.553528,-136.513855,-209.057373,-348.887115,-544.843872,-768.239685,-981.263245,-1147.36377,-1240.01953,-1248.24866,-1178.66479,-1053.98511,-907.541565,-773.995056,-678.509521,-628.740051,-613.958679,-612.53125,-604.183044,-580.22998,-545.811035,-513.059998,-490.038574,-473.075104,-447.804291,-398.19458,-317.3349,-212.632416,-102.102013,-4.67391491,68.6291733,116.965645,144.970566,155.929443,148.97525,122.791512,82.5532303,43.547451,26.842535,48.3281288,108.034233,187.514435,258.223022,296.439606,295.60376,268.363098,237.351456,221.068695,224.139832,237.760529,248.884598,250.876617,247.971588,250.953262,268.055542,298.329224,332.367737,359.350311,374.480347,380.812286,384.184021,385.774414,379.07016,354.780426,310.770325,259.328156,224.945175,232.122971,290.211945,385.436218,486.393555,560.676453,592.620178,590.908569,581.012146,587.216431,615.831726,650.466431,662.417175,629.437622,550.818298,449.230621,358.351318,304.197388,291.681,304.115662,315.06488,304.544006,269.690063,224.309235,188.951279,178.566223,195.255829,229.476227,267.470398,299.362427,322.968048,341.947021,360.712433,380.098511,396.552155,404.841095,401.993317,389.738251,374.03421,362.194489,359.398987,366.434479,379.622101,392.767456,400.164093,399.378204,392.658386,386.26712,387.780396,402.328278,429.475159,462.465179,490.619324,504.072815,498.635651,478.25061,453.640198,437.716858,440.030823,462.9422,501.139862,544.320007,581.398987,604.310791,610.142212,601.3797,584.668152,568.5578,560.63562,564.662476,578.829712,596.41626,609.319336,613.207153,611.383545,614.2547,633.265686,671.574402,716.536377,739.193787,702.769897,577.172363,352.628662,45.3743973,-307.78833,-663.351379,-986.251648,-1258.86487,-1480.29211,-1658.03882,-1798.11914,-1899.60742,-1956.04797,-1961.52222,-1916.53223,-1829.66931,-1714.35461,-1583.29724,-1444.46606,-1300.81775,-1153.15417,-1003.45874,-856.200684,-717.018433,-590.266174,-477.554901,-378.297485,-291.44165,-216.600266,-153.457535,-100.050262,-51.8167915,-2.98623157,49.9478912,104.895081,153.692169,185.608582,193.241882,177.282288,146.966965,115.606911,93.7147369,83.8656235,80.3608475,73.7095566,56.9325256,29.7120628,-1.95199561,-29.8650322,-48.4619675,-57.1342316,-58.9147034,-57.0396118,-52.2682648,-43.0068245,-27.9689732,-9.07531452,7.94973373,16.1152573,11.2745552,-5.05651283,-26.2772369,-44.4616814,-54.8525887,-58.0824127,-58.6459618,-60.7189865,-64.2475739,-64.0620041,-52.7198639,-25.261591,17.2268448,67.5648117,115.972961,154.90506,182.275513,201.320557,217.54538,234.961044,254.009247,272.216614,286.736542,296.806274,304.440582,313.060425,325.186218,340.843719,357.679871,372.531006,383.24527,389.546021,392.545807,393.514618,392.952515,390.649231,386.573029,381.773193,378.478821,379.200989,385.405029,396.656921,410.826263,425.205627,437.804657,448.013794,456.320862,463.427002,469.474548,473.930481,476.127594,475.966888,474.186218,471.957886,470.101044,468.497467,466.158386,461.920319,455.293518,446.876678,438.058502,430.22226,424.001587,419.073669,414.58139,409.836395,404.786407,399.936432,395.833771,392.5448,389.539032,386.070465,381.756256,376.889313,372.216339,368.321655,365.080627,361.633118,356.967987,350.748169,343.778351,337.706818,334.059265,333.188385,333.848358,333.75296,330.854889,324.589264,316.291229,308.471039,303.326569,301.363007,300.958069,299.173157,293.388855,282.867859,269.399078,256.695709,248.895218,248.940018,257.597687,273.465179,293.778687,315.51593,336.273468,354.653137,370.193298,383.055237,393.669922,402.449768,409.588623,414.967224,418.207489,418.902649,416.955505,412.846252,407.625763,402.554199,398.522736,395.572052,392.812866,388.844055,382.467651,373.314636,362.043976,350.038757,338.818848,329.528259,322.749084,318.631531,317.110168,317.961029,320.643402,324.114349,326.893951,327.509644,325.147797,320.11731,313.766602,307.806915,303.384918,300.452423,297.835785,293.988678,287.98056,280.113342,271.784546,264.681458,259.803253,256.897858,254.626495,251.315781,245.822708,238.022079,228.708298,219.073395,210.132248,202.405365,195.926453,190.418839,185.439514,180.424744,174.736954,167.849503,159.666687,150.779556,142.391129,135.806152,131.690842,129.541977,127.759865,124.378403,118.068237,108.799973,97.7186966,86.2665482,75.0881042,63.4267235,49.4292908,31.1971073,7.93050289,-19.551342,-49.2234001,-78.8920593,-107.144836,-133.589645,-158.284439,-180.853317,-200.030136,-214.077713,-221.890564,-224.041183,-222.976746,-222.079193,-224.05397,-229.603302,-237.221207,-244.270294,-248.691483,-250.288086,-250.791977,-252.698563,-257.643616,-265.377441,-273.986908,-281.192078,-285.843048,-288.622925,-291.496887,-296.276672,-303.253693,-310.807495,-316.26593,-317.490204,-314.204041,-308.261688,-302.720642,-300.309845,-302.204437,-307.758545,-315.214569,-322.8255,-329.66394,-335.707001,-341.327667,-346.703735,-351.634094,-355.874756,-359.671417,-363.990967,-370.16449,-379.095367,-390.53891,-402.965912,-414.169891,-422.296539,-426.690918,-428.063263,-427.900085,-427.513763,-427.329559,-426.829102,-425.133392,-421.808105,-417.361694,-413.137146,-410.697784,-411.108215,-414.525543,-420.267548,-427.205872,-434.16925,-440.129333,-444.182129,-445.531189,-443.664459,-438.704865,-431.680145,-424.399445,-418.829254,-416.209259,-416.398926,-417.894501,-418.598389,-416.961365,-412.855896,-407.660278,-403.48761,-402.005219,-403.540802,-406.997223,-410.603912,-413.027161,-414.157227,-415.10434,-417.430084,-422.098114,-428.777069,-435.894226,-441.383179,-443.68158,-442.430817,-438.54303,-433.670532,-429.411743,-426.664246,-425.388794,-424.805267,-423.849884,-421.661224,-417.91568,-412.930542,-407.535126,-402.766022,-399.484406,-398.048187,-398.17395,-399.062073,-399.737976,-399.44223,-397.865143,-395.110413,-391.44574,-387.041656,-381.905701,-376.070251,-369.882172,-364.129364,-359.81723,-357.648071,-357.496429,-358.241791,-358.143799,-355.623108,-350.046387,-342.085022,-333.447388,-326.133484,-321.605865,-320.271637,-321.448425,-323.706909,-325.331482,-324.68869,-320.464752,-311.865662,-298.859589,-282.401428,-264.454742,-247.648026,-234.590393,-227.102234,-225.712952,-229.650406,-237.264572,-246.590515,-255.728134,-262.923584,-266.517395,-265.055328,-257.722748,-244.945068,-228.739792,-212.427383,-199.644104,-193.045135,-193.337784,-199.14537,-207.739426,-216.185791,-222.255676,-224.686188,-222.866364,-216.423676,-205.19986,-189.721375,-171.77066,-154.437592,-141.285446,-134.869873,-135.396576,-140.385147,-145.704407,-147.534821,-144.206436,-136.867996,-128.598862,-122.491402,-119.843933,-119.523773,-118.836334,-115.31781,-108.327072,-99.4709167,-91.6392899,-87.2768707,-86.9527359,-89.0627747,-90.7863693,-89.6759186,-84.9344177,-77.6907501,-70.2150803,-64.6200562,-61.8178787,-61.2634506,-61.5047417,-61.1115723,-59.4093666,-56.6407661,-53.5529671,-50.7280121,-48.075985,-44.7793961,-39.713562,-32.1165619,-22.154932,-11.0706692,-0.780080497,6.94445515,11.3476362,13.1688023,14.4056406,17.3785305,23.5042038,32.4248199,42.0411224,49.5565109,53.0588264,52.7835732,51.2809677,52.2657623,58.6770401,70.9802628,86.6785355,101.366669,110.810448,112.960815,108.858696,102.016685,96.6969223,96.0478745,101.024498,110.474281,122.099648,133.616501,143.503174,151.140518,156.55423,160.117279,162.413422,164.198822,166.271683,169.172577,172.871841,176.725754,179.855392,181.789703,182.957626,184.637756,188.302719,194.717834,203.363968,212.583832,220.397903,225.505737,227.879776,228.640625,229.371475,231.353104,235.165741,240.768768,247.809326,255.805573,264.063019,271.514526,276.82666,278.929321,277.731476,274.50177,271.496613,270.89032,273.592224,278.716156,284.115082,287.705566,288.74942,288.244293,288.150452,289.972534,293.672913,297.68396,300.031219,299.799957,297.917664,296.682404,298.326111,303.572021,311.150818,318.585358,323.693115,325.794708,325.863312,325.611725,326.235596,327.708862,329.056061,329.282135,328.179871,326.391693,324.734222,323.400635,321.7612,318.993591,315.068085,311.246582,309.547028,311.397278,316.390259,322.113342,325.35611,324.034912,318.594269,311.897614,307.579346,307.857147,312.196503,317.686249,320.874908,319.874054,315.393219,310.109619,306.883179,307.044403,309.846771,313.317749,315.784943,316.960144,317.870941,319.80542,323.13501,326.913177,329.525543,329.871368,328.174011,325.816376,324.331055,324.294098,324.920502,324.617645,322.039612,316.834167,309.542877,300.793396,290.487793,277.711548,261.532959,242.144226,221.454727,202.562317,188.300232,179.74176,175.645493,173.245209,169.913818,164.657028,158.509323,153.633759,151.767563,153.048584,155.955048,158.324219,158.715851,157.210938,155.171432,154.200836,155.046707,157.159317,159.127884,159.624115,158.193115,155.40274,152.333542,149.816971,147.938354,146.082993,143.423019,139.485779,134.453903,129.067169,124.245216,120.67099,118.531616,117.486588,116.827278,115.749718,113.65818,110.406372,106.370094,102.278305,98.8416443,96.363327,94.5851898,92.9161148,90.9378204,88.842659,87.4295425,87.542366,89.2468033,91.3195724,91.5304108,87.7291718,79.1853409,67.3556442,55.5106087,47.3196182,45.162323,49.1510124,57.4377594,67.5831604,78.0926971,89.1305008,101.970329,117.583725,135.339752,152.722626,166.312943,173.46553,173.680847,168.871796,162.412399,157.558533,156.120377,158.010529,161.719299,165.277924,167.138046,166.618011,163.907806,159.826401,155.503357,152.028183,150.057053,149.456039,149.18692,147.627014,143.287704,135.589584,125.217644,113.785706,102.992722,93.8458176,86.5275345,81.0353241,78.0991516,79.5515442,87.590416,103.135902,124.245956,145.759583,160.747849,163.275589,151.08371,126.704201,96.3377609,67.085083,44.0450172,28.8013973,19.9196339,14.8533382,11.8966055,10.9651737,12.8963785,17.9824219,24.915432,30.953846,33.2220192,30.2639198,22.8176594,13.3258772,4.53917885,-1.87679875,-5.90240908,-8.67842579,-11.4504147,-14.7214985,-18.1419601,-21.0883884,-23.4091454,-25.7508984,-29.2309952,-34.6980247,-42.0884399,-50.2875519,-57.5534096,-62.230793,-63.3789978,-61.0746803,-56.3712006,-51.0232315,-47.0703087,-46.3107605,-49.7174797,-56.972229,-66.4029007,-75.5318375,-82.1362762,-85.3442383,-86.1209335,-86.7401352,-89.4117279,-94.8134613,-101.449844,-106.350037,-106.816071,-102.229118,-94.786705,-88.6151352,-87.6620483,-93.5385742,-104.560844,-116.56546,-125.048523,-127.42466,-124.174118,-118.334785,-113.760422,-113.211288,-117.310814,-124.771309,-133.507553,-141.816025,-148.929855,-154.804581,-159.535324,-162.984253,-164.926895,-165.545898,-165.780869,-167.117615,-170.814041,-177.011612,-184.343323,-190.39415,-192.853455,-190.752716,-185.092819,-178.490311,-174.013107,-173.808868,-178.213608,-185.738312,-193.859543,-200.156754,-203.23613,-203.069839,-200.717194,-197.682129,-195.267944,-194.201721,-194.606354,-196.215866,-198.645172,-201.555725,-204.661758,-207.635971,-210.037018,-211.365829,-211.270889,-209.809174,-207.594604,-205.686813,-205.197266,-206.764221,-210.169052,-214.343597,-217.83165,-219.506851,-219.165878,-217.641586,-216.330124,-216.371246,-217.953018,-220.172684,-221.572525,-221.057434,-218.643127,-215.554062,-213.56546,-213.947403,-216.633865,-220.134323,-222.277954,-221.386154,-217.205109,-211.062271,-205.159149,-201.411041,-200.493851,-201.617462,-203.109406,-203.427338,-201.99852,-199.423492,-196.97876,-195.759201,-195.982254,-196.843369,-196.968216,-195.167831,-191.058289,-185.222198,-178.870468,-173.236053,-169.04744,-166.342255,-164.666962,-163.496368,-162.610962,-162.222824,-162.795883,-164.671051,-167.701797,-171.096664,-173.570221,-173.771515,-170.84137,-164.887375,-157.173599,-149.902863,-145.603439,-146.283676,-152.636459,-163.606552,-176.544937,-187.974457,-194.744873,-195.162933,-189.644455,-180.590958,-171.501007,-165.658432,-164.939774,-169.243042,-176.761719,-184.934723,-191.591278,-195.739334,-197.661057,-198.363632,-198.779602,-199.21991,-199.393555,-198.93187,-198.019699,-197.652771,-199.269211,-203.914719,-211.437027,-220.247284,-227.884552,-232.143036,-232.158493,-228.833084,-224.337921,-220.962448,-219.964035,-221.068954,-222.882614,-223.918182,-223.58551,-222.523819,-222.086639,-223.329117,-226.166321,-229.263748,-230.755829,-229.356857,-225.169525,-219.673737,-214.883041,-212.174011,-211.498505,-211.456421,-210.181091,-206.498138,-200.660965,-194.2314,-189.190765,-186.814896,-186.963989,-188.168182,-188.417801,-186.181137,-181.09285,-173.998886,-166.433258,-159.892395,-155.308456,-152.920471,-152.466095,-153.452179,-155.297287,-157.314789,-158.672668,-158.498398,-156.174332,-151.687836,-145.801285,-139.870834,-135.338882,-133.128143,-133.24408,-134.793076,-136.405518,-136.844009,-135.496429,-132.535553,-128.713242,-124.934998,-121.840958,-119.576599,-117.818504,-115.998695,-113.601906,-110.40432,-106.561134,-102.505943,-98.686676,-95.2260284,-91.6477661,-86.8242645,-79.2434692,-67.5604019,-51.2382126,-30.9833679,-8.71952438,12.9636297,31.6859856,46.0834541,56.1524811,62.9596405,67.8763275,71.7603531,74.5397186,75.4253769,73.6147842,69.0553665,62.7963753,56.6980515,52.6516991,51.7618828,53.971405,58.3470345,63.8441658,70.0724564,77.5745926,87.4172745,100.310638,115.771255,131.846191,145.616318,154.269943,156.22612,151.764648,142.886841,132.527039,123.532516,117.877693,116.378204,118.867783,124.582542,132.478256,141.363174,149.929779,156.863693,161.134659,162.391647,161.231903,159.113342,157.851334,158.885376,162.663101,168.456451,174.707489,179.720703,182.343094,182.303558,180.097076,176.561111,172.442429,168.207367,164.149155,160.629639,158.206635,157.492981,158.805069,161.837708,165.62352,168.873459,170.55069,170.361069,168.866516,167.139359,166.150894,166.253677,167.06636,167.825058,167.974152,167.613815,167.501526,168.581879,171.323059,175.281342,179.199875,181.631836,181.750504,179.867355,177.325409,175.789658,176.31839,178.747253,181.757553,183.613373,183.162872,180.53656,177.14151,174.949158,175.476593,179.027206,184.595703,190.451202,195.030151,197.622299,198.49614,198.4711,198.271667,198.093292,197.62796,196.47171,194.587738,192.483994,190.981201,190.738586,191.868729,193.902039,196.113724,197.974899,199.413727,200.716385,202.160843,203.666351,204.729874,204.712555,203.285919,200.726364,197.843506,195.57605,194.514145,194.655457,195.540817,196.658463,197.829926,199.313217,201.558212,204.785538,208.676132,212.382111,214.866119,215.38121,213.838684,210.893097,207.729263,205.657425,205.660889,208.014603,212.067032,216.276031,218.577591,217.081772,210.917786,200.874146,189.441895,180.070419,175.837418,178.110901,185.891586,196.238983,205.620499,211.493423,213.27182,212.172424,210.094666,208.269592,206.540176,203.715775,198.732773,191.808289,184.75444,180.15477,179.855301,183.704681,189.37088,193.42308,193.096634,187.740417,179.137268,170.556274,165.116745,164.379532,167.859802,173.563843,179.085968,182.599701,183.302231,181.302597,177.260834,172.096024,166.850861,162.564636,159.984543,159.149429,159.124985,158.20874,154.668182,147.678528,137.885239,127.155937,117.568985,110.211487,104.556213,98.8775024,91.5105133,82.1752167,72.476799,65.1701279,62.5586128,64.9906769,70.4202423,75.3815689,76.864006,73.9993515,68.5613708,63.9773827,63.4347458,68.1869049,77.013504,87.0740585,95.5687714,101.186417,104.519409,107.301949,111.039536,115.915276,120.618828,123.13752,121.973137,117.043968,109.783424,102.453743,97.1246719,94.8802414,95.5959473,98.261528,101.55571,104.34552,105.942673,106.145615,105.182442,103.620148,102.210457,101.619728,102.084953,103.170006,103.835922,102.903839,99.7363205,94.7579956,89.4477768,85.7012634,84.8452911,86.8458557,90.1974945,92.616951,92.1919022,88.3486176,82.0916901,75.3935165,70.1157303,67.1119003,66.0236969,65.8260117,65.6979828,65.6052246,66.1991806,68.1235962,71.2410049,74.365799,75.7580109,74.1094894,69.3919296,62.9851227,56.9462013,52.8341331,50.806675,49.5542336,47.1196022,42.1030083,34.5210304,25.818943,18.071106,12.8928022,10.719655,10.8223114,11.9284363,12.9619389,13.4128838,13.1893234,12.2114601,10.1857033,6.81594086,2.31261492,-2.24768996,-5.12975407,-4.75810242,-0.721764743,5.68297005,11.813549,14.8532915,13.179595,7.15017509,-1.14832377,-9.03256607,-14.561368,-17.3143158,-18.2263718,-18.6985397,-19.6344376,-21.0383911,-22.3798828,-23.3838806,-24.6152725,-27.3791542,-32.946949,-41.6083374,-52.2105865,-62.5676346,-70.5796356,-75.4429779,-78.2425919,-81.5545959,-88.2419128,-100.06739,-116.831337,-136.438889,-155.809891,-172.141647,-183.920563,-191.273727,-195.61113,-198.830215,-202.494308,-207.326111,-213.156189,-219.250015,-224.798996,-229.335434,-232.907486,-235.978104,-239.140045,-242.812103,-247.072281,-251.693161,-256.322449,-260.666443,-264.544525,-267.788788,-270.096985,-271.012482,-270.137543,-267.512024,-263.918762,-260.840942,-259.955811,-262.329803,-267.719604,-274.409485,-279.779358,-281.408356,-278.19812,-270.944183,-262.042786,-254.461502,-250.478699,-250.800537,-254.444901,-259.370911,-263.46756,-265.38623,-264.857269,-262.452362,-259.045258,-255.327576,-251.625,-248.025452,-244.634705,-241.721863,-239.627045,-238.489944,-237.999817,-237.377945,-235.674652,-232.269089,-227.310593,-221.828735,-217.382965,-215.361938,-216.253983,-219.274277,-222.595917,-224.139893,-222.574783,-218.028076,-212.116287,-207.229401,-205.394058,-207.277527,-211.84169,-216.827789,-219.823624,-219.369324,-215.557327,-209.868225,-204.388046,-200.846085,-199.947266,-201.259125,-203.600662,-205.653122,-206.477341,-205.752823,-203.736023,-201.052612,-198.449432,-196.580063,-195.849854,-196.339035,-197.829468,-199.93782,-202.29628,-204.666428,-206.893738,-208.724304,-209.645264,-208.955109,-206.143753,-201.414017,-195.976059,-191.775543,-190.621979,-193.111343,-197.998337,-202.538025,-203.793488,-200.278458,-192.982361,-185.06929,-180.276138,-180.838867,-186.144623,-192.962021,-197.203674,-196.247803,-190.464767,-183.023621,-178.057541,-178.24736,-183.239304,-189.823044,-193.754089,-192.141296,-185.014328,-175.204208,-166.679657,-162.36438,-162.698837,-165.698746,-168.348221,-168.412201,-165.59108,-161.41806,-158.082626,-156.970444,-157.803192,-158.838821,-157.944778,-153.874786,-147.0159,-139.216141,-132.82547,-129.487839,-129.315155,-130.846176,-131.787766,-130.162949,-125.311028,-118.264709,-111.318115,-106.970848,-106.727867,-110.321198,-115.743912,-120.112854,-120.968727,-117.386169,-110.339508,-102.139313,-95.2388,-91.0469894,-89.379509,-88.8174744,-87.728653,-85.3290558,-82.1524048,-79.6573181,-79.2239838,-81.1601028,-84.3288574,-86.6368942,-86.107872,-81.9247437,-74.8522644,-66.8200226,-59.9262505,-55.4273491,-53.2436943,-52.1845627,-50.6882858,-47.6270561,-42.7593765,-36.6695824,-30.3328705,-24.6098671,-19.9375134,-16.3087349,-13.4548025,-11.0684204,-8.9476347,-7.03607988,-5.40050936,-4.18623686,-3.5535295,-3.57995152,-4.14373732,-4.85520887,-5.1172924,-4.33670664,-2.20035243,1.14341629,5.13059378,9.05192566,12.3886194,14.9915771,16.9778214,18.422821,19.10112,18.530468,16.3754311,12.9810333,9.63788891,8.27469635,10.6135426,17.2067242,26.9397392,37.3852806,45.9115982,50.9711304,52.8348732,53.3285904,54.7137299,58.3799744,64.1365585,70.5139313,75.8445435,79.3961411,81.8114166,84.5847702,88.9653244,95.0698624,101.842888,107.901962,112.661118,116.889702,122.225922,129.901627,139.545532,148.973984,155.276886,156.631287,153.708817,149.696167,148.767517,153.83017,164.873947,178.93811,191.743607,200.02417,203.173843,203.271851,203.563324,206.411026,211.999496,218.523087,223.608826,225.963455,226.171524,226.208649,228.108658,232.740295,239.484406,246.912369,253.860275,260.067657,265.941223,271.70697,276.699493,279.451141,278.635132,274.237335,268.0755,263.167908,262.227997,266.191833,273.724945,282.04657,288.5578,292.232483,293.896149,295.26828,297.475586,300.09317,301.399017,299.682556,294.703033,288.25647,283.379974,282.626678,286.480988,292.930328,298.493652,300.096375,296.661987,289.488586,281.2547,274.342163,269.543213,265.910828,261.745911,255.996506,249.125092,242.893555,239.236908,238.974442,241.18457,243.627609,243.945328,240.913559,235.032837,228.170166,222.519547,219.493179,219.119019,220.174835,220.879517,219.723282,216.044525,210.173065,203.190628,196.485886,191.280319,188.24324,187.273346,187.516403,187.66658,186.511093,183.536835,179.309906,175.370941,173.595856,175.267975,180.320633,187.185226,193.394135,196.680145,196.018921,192.064011,186.743759,182.250458,179.984375,180.021591,181.348434,182.645782,183.094849,182.703247,181.992844,181.326736,180.396866,178.283722,174.099945,167.802841,160.592514,154.534607,151.535675,152.247406,155.585144,159.218887,160.813187,159.312744,155.503983,151.492691,149.387878,149.973602,152.171906,153.627075,152.05928,146.569611,138.119232,128.927612,121.205254,116.028389,113.029877,111.01786,109.018127,106.976616,105.627136,105.641571,106.715775,107.327873,105.463478,99.918602,91.3311615,82.184166,75.640831,73.8265915,76.5736694,81.4107513,84.8430481,84.1862717,78.8876724,70.5984879,62.0386353,55.4171257,51.3836899,49.0736618,47.0637894,44.4838791,41.500103,38.8942642,37.1392097,35.7353477,33.3737335,28.8702354,22.2147961,14.933466,9.39131737,7.3917222,8.95435524,12.105505,13.8954659,12.0647039,6.33659124,-1.47600543,-8.62400532,-13.1144695,-14.8853445,-15.7450075,-18.1498375,-23.6224689,-31.8147831,-40.7768402,-48.2075233,-52.8496094,-55.1393585,-56.7410545,-59.3317146,-63.4670448,-68.2662048,-72.0851593,-73.6951218,-73.17173,-71.9180527,-71.8265305,-74.1380081,-78.7285767,-84.2539063,-89.0256577,-92.0481796,-93.5796127,-94.909523,-97.5330124,-102.238014,-108.6241,-115.27771,-120.452141,-122.868202,-122.26059,-119.48394,-116.208801,-114.366066,-115.519951,-120.328102,-128.236832,-137.55101,-145.948013,-151.334518,-152.730164,-150.744904,-147.33075,-144.836838,-144.808685,-147.186447,-150.39537,-152.327759,-151.668991,-148.769119,-145.497467,-144.130264,-145.936966,-150.351639,-155.273987,-158.33699,-158.351929,-156.008621,-153.374786,-152.511444,-154.10379,-157.008667,-159.030228,-158.431976,-155.202362,-151.238083,-149.301071,-151.392029,-157.55191,-165.819565,-173.335526,-177.876923,-178.890152,-177.472427,-175.455566,-174.284286,-174.414597,-175.504639,-177.084488,-179.093643,-181.85675,-185.564651,-189.746567,-193.243256,-194.799774,-193.893402,-191.183212,-188.203476,-186.461258,-186.546936,-187.881531,-189.277588,-189.894867,-189.866409,-190.095688,-191.338181,-193.245407,-194.141602,-191.82666,-184.965118,-174.148361,-161.860382,-151.2715,-144.569595,-141.873657,-141.412415,-140.822418,-138.681519,-135.251266,-131.957108,-130.011154,-129.179932,-127.60527,-122.862434,-113.579041,-100.528717,-86.4362946,-74.5703888,-66.9893494,-63.5242996,-62.092762,-60.0796432,-55.8707962,-49.5955505,-42.7122154,-36.8404694,-32.6850128,-29.7395935,-26.859211,-23.1855717,-18.7206173,-14.1673269,-10.2294464,-6.95762396,-3.66890621,0.487419516,5.74881411,11.3552742,15.9004936,18.2257652,18.2573833,17.1974525,16.8999596,18.8076668,23.1182365,28.6954708,33.754879,36.8654251,37.641655,36.7448692,35.2824516,34.0656319,33.2216492,32.3601151,31.0932159,29.4827957,28.0757179,27.5077705,27.9717026,28.9421196,29.3758183,28.2914772,25.3887901,21.3423138,17.5965271,15.7628679,16.9148941,21.1044254,27.2967453,33.7343445,38.5755196,40.5651512,39.4878426,36.2226105,32.3552399,29.4836674,28.5094414,29.2538891,30.6095467,31.165844,29.9697628,26.9749241,22.8951187,18.543108,14.0837994,8.72506332,1.11687577,-9.73273087,-23.5925961,-38.7878418,-52.8472672,-63.6971893,-70.7128754,-74.9995499,-78.7366562,-83.9865875,-91.6752701,-101.303383,-111.456818,-120.690727,-128.188309,-133.836014,-137.812775,-140.125626,-140.506149,-138.74942,-135.194824,-130.912552,-127.368446,-125.735794,-126.300385,-128.357864,-130.662827,-132.111038,-132.197495,-130.987137,-128.70816,-125.343781,-120.562752,-114.032127,-105.83773,-96.649971,-87.4796829,-79.2044678,-72.2370987,-66.5986557,-62.3278351,-59.86689,-60.0493164,-63.6026764,-70.4608459,-79.3655472,-88.0800934,-94.1495743,-95.8030777,-92.540123,-85.1881104,-75.5472183,-65.8995895,-58.5602112,-55.4365082,-57.4897346,-64.1690216,-73.1724319,-80.9676056,-84.1728439,-81.282547,-73.7516251,-65.5751343,-61.2943535,-63.4023819,-70.6997147,-78.7618637,-82.4432831,-78.9990463,-69.872757,-59.9266853,-54.492897,-56.0770149,-62.8481941,-69.9315338,-72.6747437,-69.721199,-63.8200607,-59.8176613,-61.195961,-67.5396347,-74.6991806,-77.5724487,-73.6109161,-64.6341934,-55.6841888,-51.6861687,-54.1962929,-60.4505997,-65.3338089,-64.8748779,-58.8546143,-50.7793503,-45.3408089,-45.2142067,-49.4308281,-54.3602371,-56.4512138,-54.6811714,-50.9944954,-48.5822906,-49.4689178,-53.315033,-58.3013,-63.2375717,-68.99189,-77.8084183,-90.7815704,-105.401436,-115.370186,-113.454803,-95.9214478,-65.6855011,-31.8261681,-5.34346485,6.47745037,3.70100999,-6.82894421,-15.8119259,-16.7701797,-9.02467442,3.19748116,14.4546347,21.7670689,25.7766724,28.9365139,32.5175972,35.0112991,33.2968864,25.6763554,14.2761049,4.63093472,2.32588387,8.89296913,19.9943504,27.5541325,24.7873669,10.9035788,-7.78327703,-21.3773079,-22.5293789,-11.3062983,4.39956617,13.3368893,7.56180334,-12.76478,-39.3314819,-60.3112335,-66.8053818,-57.3211823,-37.9397011,-18.5393696,-7.64194155,-8.85219002,-20.445116,-37.554554,-55.0518456,-69.3184662,-78.3602371,-81.0262375,-76.5358124,-64.903183,-47.8097992,-28.8944607,-12.7758217,-3.10398936,-0.782633901,-3.54562211,-7.25309372,-8.16484356,-4.82803583,1.50359011,8.03705692,12.3360586,13.7317343,13.4735308,13.7108479,16.0849819,20.8112049,26.6738663,31.7380142,34.2277603,33.1026382,28.2101688,20.1870804,10.3170414,0.378929496,-7.64034748,-12.0562296,-12.0893469,-8.23223305,-2.08316183,4.35914898,9.5866251,13.1481981,15.5649595,17.6854267,19.935751,21.9738674,22.9615669,22.23489,19.8848782,16.8400784,14.4001083,13.5455265,14.4808521,16.6790199,19.338068,21.8964005,24.2567215,26.6159763,29.0908623,31.4544697,33.1839867,33.7698174,33.0486336,31.3299885,29.2639885,27.5950222,27.0078907,28.1592331,31.800703,38.7992477,49.932251,65.5280762,85.1829681,107.778381,131.837448,156.023361,179.469437,201.735062,222.441772,240.881516,255.934967,266.444824,271.876343,272.869537,271.299469,269.719727,270.414551,274.517792,281.632019,290.11734,297.872162,303.200867,305.365814,304.637756,301.937256,298.344391,294.747375,291.743164,289.714203,288.911926,289.428864,291.08313,293.354584,295.50647,296.896423,297.315491,297.12326,297.03949,297.670837,299.052307,300.52179,301.067505,299.984436,297.441223,294.560059,292.883606,293.487549,296.257721,299.797974,302.079529,301.493164,297.705841,291.828094,285.810883,281.449188,279.582123,279.913513,281.454742,283.20343,284.579193,285.387665,285.4758,284.479523,281.966431,277.916351,273.1409,269.201599,267.706604,269.341492,273.265106,277.349091,279.221161,277.527649,272.641602,266.360626,260.775726,257.020599,254.675629,252.155533,247.757614,240.634537,231.057739,219.866974,207.579285,193.84877,177.685715,158.277359,135.813293,111.718407,88.1191025,66.9003296,48.9676628,34.1436005,21.6587086,10.8053856,1.28350389,-6.91767311,-13.8618793,-19.8392067,-25.1798916,-29.8949184,-33.5479202,-35.6103363,-36.1236954,-36.1331177,-37.3960724,-41.3504143,-47.930645,-55.0867767,-59.5226746,-58.3917618,-50.9803734,-39.2925034,-27.067627,-17.7526226,-12.6559124,-10.4424658,-8.29006195,-3.95841169,2.57176757,8.94902325,11.87465,9.16239929,1.10743678,-9.67669678,-19.7765465,-26.8177319,-30.453455,-31.9755554,-32.9747658,-34.0807991,-34.673336,-33.7047462,-30.9588413,-27.75807,-26.5244083,-29.4069538,-36.8486671,-47.0331268,-56.601162,-62.2393112,-62.2338219,-57.1560326,-49.4039192,-41.9795113,-37.2274055,-36.1386642,-38.3920097,-42.8827286,-48.3268509,-53.65205,-58.1305542,-61.3713799,-63.2854385,-64.0379105,-63.9400063,-63.2751846,-62.1506233,-60.5000725,-58.2753487,-55.7069473,-53.4210205,-52.2706413,-52.9408302,-55.5738602,-59.679245,-64.4102325,-69.0298996,-73.2507095,-77.2254944,-81.2315292,-85.3241425,-89.2540054,-92.7213593,-95.7458572,-98.803894,-102.545105,-107.247086,-112.434586,-117.045166,-120.153114,-121.811844,-123.381493,-126.964119,-134.150269,-144.810303,-156.754776,-166.623428,-171.59996,-170.977356,-166.611618,-161.932449,-160.052673,-162.083847,-166.654495,-170.897247,-172.276688,-170.131424,-166.009445,-162.643829,-162.252533,-165.228302,-169.991791,-174.026474,-175.390579,-173.759537,-170.413391,-167.281845,-165.731873,-165.877411,-166.782394,-167.31752,-167.025833,-166.40329,-166.442017,-167.803848,-170.236938,-172.668945,-173.935913,-173.659775,-172.663315,-172.591858,-174.915695,-179.898361,-186.174316,-191.245346,-192.676239,-189.357895,-182.149277,-173.540955,-166.510651,-163.169968,-163.896194,-167.362671,-171.388031,-174.099106,-174.771225,-173.935989,-172.785248,-172.295898,-172.625549,-173.122864,-172.891434,-171.495438,-169.316452,-167.311325,-166.328964,-166.453796,-166.847855,-166.245667,-163.813889,-159.81102,-155.569473,-152.740112,-152.229919,-153.506989,-154.760574,-153.884354,-149.716476,-142.771545,-134.984009,-128.588867,-124.814835,-123.199547,-121.956688,-119.163002,-114.011261,-107.33252,-101.059868,-96.985939,-95.6171112,-95.8560333,-95.7001648,-93.4870605,-88.8777237,-82.9647751,-77.4827194,-73.6840744,-71.6375427,-70.3848801,-68.7912216,-66.4553833,-64.0287399,-62.7256508,-63.3859253,-65.7652206,-68.566185,-70.198761,-69.7445984,-67.4597168,-64.4802475,-61.965519,-60.3144493,-59.0375404,-57.3858948,-55.2693291,-53.7442741,-54.615284,-59.3068504,-67.7095871,-77.7985153,-86.3740997,-90.5667877,-89.2402267,-83.465477,-75.8041306,-68.8663406,-64.0313721,-61.0663948,-58.7696228,-56.1059074,-53.0282516,-50.4500427,-49.4462318,-50.2925186,-52.0463753,-52.9839058,-51.6125793,-47.589222,-41.9426155,-36.4685478,-32.7054558,-31.1482601,-31.1661453,-31.6067123,-31.6324329,-31.2296791,-31.1018753,-32.0941086,-34.5903549,-38.2893486,-42.456665,-46.4079247,-49.8465958,-52.8338356,-55.4723282,-57.6035995,-58.7917252,-58.6253738,-57.1066055,-54.8105736,-52.6596947,-51.4386024,-51.3719368,-52.0496826,-52.7425575,-52.8786888,-52.3499794,-51.4522667,-50.5354309,-49.6480293,-48.4566727,-46.509388,-43.6515732,-40.2812614,-37.2354698,-35.3543205,-34.9960785,-35.8173904,-36.9636803,-37.5540199,-37.1647415,-36.0278358,-34.842453,-34.3269882,-34.7753334,-35.8592606,-36.7731819,-36.6415405,-34.9907112,-32.0638542,-28.8216877,-26.5929394,-26.4845238,-28.7894726,-32.6847839,-36.4339676,-38.0918999,-36.4313736,-31.6249905,-25.2677212,-19.6409607,-16.5509586,-16.3650131,-17.8065929,-18.6515026,-16.9256573,-11.8872652,-4.20773983,4.71541595,13.808526,22.9930725,33.0131836,44.563633,57.3831673,70.0283661,80.5679092,87.7595444,91.8806305,94.5832443,97.8205414,102.571213,108.269302,113.364616,116.614449,118.132271,119.342163,121.767647,125.488899,128.46756,127.442436,120.027489,106.717606,91.4057083,79.8732986,77.0116272,84.3992233,99.6958084,118.184334,135.433899,149.370499,160.493896,170.2659,178.944855,184.505417,183.511353,173.42926,154.825089,131.888199,110.788689,96.7798462,91.7767258,93.835228,98.7440796,102.634438,103.956421,103.694595,103.902901,105.714096,108.231636,109.029572,105.871284,98.459938,89.0469208,81.4862442,79.2987823,83.8764725,93.8063812,105.591698,115.272659,120.057098,119.215446,113.992271,106.791008,100.133644,95.8399734,94.6447296,96.2513962,99.6948242,103.838501,107.819794,111.270569,114.218353,116.727745,118.510643,118.79744,116.633575,111.490547,103.828331,95.2094421,87.8054504,83.5193863,83.214798,86.4947662,92.1255875,98.782692,105.605499,112.223328,118.333435,123.264206,125.9739,125.589912,122.136078,116.874733,111.897301,109.111229,109.231598,111.445961,114.006905,115.384583,115.214584,114.397377,114.280701,115.499245,117.306091,117.914871,115.681503,110.358513,103.563698,98.0916595,96.4394073,99.4260941,105.726715,112.564964,117.106766,117.721077,114.442711,108.530251,101.562378,94.7030563,88.5142441,83.2350311,79.1301193,76.5474091,75.6459656,76.081871,77.0048218,77.4728165,77.032692,76.0310822,75.373436,75.8401184,77.41436,79.1117477,79.4809418,77.4836349,73.1818924,67.7669296,62.891201,59.7266884,58.3510284,57.8402405,56.974678,55.0662918,52.3553391,49.7357368,48.0303078,47.335968,46.8977699,45.6018867,42.7548561,38.6230583,34.3630257,31.3691502,30.437582,31.2589607,32.5458603,32.7160683,30.7307892,26.6156158,21.3953514,16.5144844,13.0888624,11.3970013,10.8566923,10.4546137,9.35995102,7.37691975,4.99985266,3.06018329,2.1769104,2.32908964,2.80563426,2.58311582,0.937754869,-2.05542755,-5.44995928,-7.87401247,-8.28570747,-6.61773252,-3.91179705,-1.81118751,-1.65825605,-3.70893025,-6.94994068,-9.67262936,-10.5013981,-9.27101421,-7.20088768,-6.2175808,-7.79881573,-12.0300512,-17.4671307,-21.9258938,-23.7519836,-22.8120289,-20.594017,-19.3309174,-20.6515121,-24.5557346,-29.3278847,-32.4509735,-32.0000725,-27.7214756,-21.1988621,-15.0403156,-11.5673656,-11.7343931,-14.8309174,-19.0495892,-22.5280304,-24.2585278,-24.4013042,-23.9171829,-23.8180485,-24.5060406,-25.5659008,-26.0808754,-25.2442722,-22.8970089,-19.6930733,-16.8171597,-15.4198494,-16.0704651,-18.4999523,-21.7446728,-24.5981827,-26.134058,-26.0456486,-24.659687,-22.6584721,-20.6949348,-19.1273727,-18.0128632,-17.3310337,-17.2600307,-18.2874928,-21.0403748,-25.904047,-32.6591492,-40.390461,-47.7856483,-53.7145271,-57.7940979,-60.6195297,-63.502037,-67.8184662,-74.2946854,-82.5917511,-91.4106293,-99.0642166,-104.229622,-106.513977,-106.574966,-105.765175,-105.493484,-106.610283,-109.085785,-112.100395,-114.481728,-115.284607,-114.26297,-112.032249,-109.844147,-109.051704,-110.479736,-113.979599,-118.397247,-122.018852,-123.334175,-121.778122,-118.078156,-113.994865,-111.535843,-112.006287,-115.373566,-120.286011,-124.7528,-127.137047,-126.937103,-124.94194,-122.69265,-121.571144,-122.044525,-123.494415,-124.709831,-124.724449,-123.472298,-121.846642,-121.113823,-122.03746,-124.264053,-126.382637,-126.673523,-124.137848,-119.205696,-113.67971,-109.899071,-109.558685,-112.826851,-118.248039,-123.483536,-126.483192,-126.456245,-124.141975,-121.282219,-119.631042,-120.055481,-122.181709,-124.704948,-126.121025,-125.455238,-122.635567,-118.399849,-113.873024,-110.062782,-107.4757,-105.930885,-104.556068,-101.941002,-96.456398,-86.7383499,-72.2474136,-53.6864243,-33.0177231,-12.9447231,4.00938225,16.4303131,24.4784355,29.6218319,33.7564621,38.18573,43.0218468,47.3259506,49.8631821,49.9855232,48.0985146,45.4531212,43.4415436,42.8797264,43.7335243,45.4185829,47.4055214,49.6665421,52.6366005,56.7291756,61.781395,66.8685226,70.675209,72.2161331,71.4378586,69.2910156,67.2036057,66.2799301,66.7302933,67.8813782,68.7336273,68.6776505,67.8913498,67.1663818,67.298439,68.4629822,70.0005264,70.7631378,69.8099518,67.021225,63.2573433,59.9710617,58.5032158,59.4572792,62.4739265,66.4793243,70.2219696,72.7896423,73.8611984,73.6330872,72.5464478,71.0220413,69.3580093,67.8077545,66.7238007,66.6063843,67.9601898,71.0006027,75.3796463,80.136734,83.9820709,85.8303223,85.3251114,83.0502319,80.2656937,78.2768707,77.7838593,78.6015396,79.9301529,81.0022736,81.6624222,82.4518814,84.096405,86.7322617,89.450798,90.588913,88.7010574,83.6336517,76.956604,71.3528214,69.2361832,71.419754,76.6878815,82.5710907,86.8300018,88.6657639,88.8539047,88.7505951,88.9331055,88.5231171,85.7657013,79.5075073,70.4953842,61.4497833,55.6818428,55.0721474,58.7603836,63.4923477,65.4745789,62.5545197,55.3153419,46.4336853,38.8641281,34.2085457,32.412487,32.8562622,35.7792587,42.669014,55.045414,72.4158936,91.0435791,104.81974,108.105621,98.8868103,80.1107712,58.1176414,39.0025902,25.2364807,14.8104477,3.50085282,-11.3256512,-28.0980186,-41.5931816,-46.4141998,-40.9976578,-29.2170315,-18.2042732,-13.6593971,-15.8190584,-19.0138035,-15.4045238,-0.587697268,22.7091255,45.5570145,58.1137085,56.0433197,43.9020958,33.0993729,35.4352112,56.0487671,90.057251,124.942116,147.269089,149.790161,134.894516,112.684731,95.1299438,89.8426208,96.8999405,110.078011,121.278862,125.348457,122.653732,118.351517,119.160942,129.594925,149.570511,174.364319,196.66011,209.55423,209.133453,195.590424,172.571457,145.255707,118.222885,94.2080688,74.2880859,59.1331787,50.2145233,49.8216934,59.5629997,78.2447815,100.792976,119.504761,127.451042,122.200096,107.417023,90.9628296,80.3548431,78.3829193,81.843689,84.4146423,81.8184204,75.6264572,72.7506561,80.6010895,101.101151,127.907295,149.240677,154.85878,142.563904,119.623581,97.8273239,85.4224396,81.624527,77.8301544,64.9333954,41.5283623,16.6996498,4.64803171,14.3207121,41.3292122,68.5386505,76.0043106,54.1484489,11.0469751,-32.0365601,-54.9441452,-53.6415253,-45.4063301,-59.3934097,-117.361023,-216.475708,-325.820831,-400.25296,-404.426147,-333.043396,-215.166443,-99.7674103,-30.8327904,-26.2921886,-72.2733994,-134.661819,-179.809631,-191.718597,-176.478729,-153.395157,-140.252792,-142.632126,-153.165466,-159.42131,-153.740509,-138.093369,-121.415154,-112.394341,-113.443977,-120.007645,-125.029335,-124.698112,-121.056099,-119.806732,-125.394989,-137.340042,-150.608185,-159.598892,-162.577103,-163.129135,-167.529999,-179.983032,-199.243164,-219.082535,-232.254807,-235.141632,-229.877289,-222.62767,-219.406219,-222.391617,-229.132202,-234.836716,-235.819962,-231.597336,-224.381851,-216.765579,-209.621109,-201.868225,-192.12883,-180.746429,-170.366714,-164.443451,-164.721024,-169.643051,-175.041992,-176.806625,-173.724899,-168.476379,-165.986069,-170.179398,-181.304672,-195.622421,-207.664932,-213.555832,-213.214417,-210.071457,-208.598251,-211.348312,-217.42215,-223.224243,-224.854065,-220.493134,-211.304352,-200.44635,-191.026321,-184.372604,-179.617966,-174.620697,-167.411621,-157.170181,-144.230682,-129.370377,-113.093719,-95.5223618,-76.9663162,-58.6958656,-43.2361031,-33.7777557,-32.8466797,-40.8602943,-55.3502617,-71.3760757,-83.1257095,-86.1367645,-79.2182312,-65.1721573,-49.8423195,-39.7276649,-39.1118851,-48.0265579,-62.1208801,-74.6689606,-79.8611145,-75.7698441,-65.430336,-55.3987694,-52.4987411,-60.4812126,-78.3867264,-101.429939,-123.777802,-141.530472,-154.189255,-163.911484,-173.25914,-183.045395,-191.712463,-196.577591,-196.006241,-190.963394,-184.842255,-181.648254,-183.718552,-190.446396,-198.78775,-205.146362,-207.373642,-205.637558,-201.756409,-197.643356,-194.037903,-190.379593,-185.776703,-180.211761,-174.980988,-171.972137,-172.283936,-175.220901,-178.46756,-179.419632,-176.809708,-171.516937,-165.977142,-162.557968,-161.980103,-162.854843,-162.671844,-159.598419,-153.894989,-147.977432,-145.018997,-146.922806,-152.912827,-159.632675,-162.743759,-159.135071,-148.515686,-133.533325,-118.397255,-106.788483,-100.174957,-97.3725586,-95.4951019,-91.7127914,-84.8550873,-76.0196152,-67.8927002,-63.1665001,-62.9158249,-65.8349686,-68.7988892,-68.5046616,-63.3282127,-54.3456726,-44.8684502,-38.6534119,-37.7427902,-41.1819038,-45.431469,-46.3272972,-41.4964256,-31.8013649,-20.9103985,-13.2021732,-11.2394114,-14.33424,-19.0696335,-21.4325809,-19.2184067,-13.2212896,-6.5241785,-2.41807532,-2.32098341,-4.99675846,-7.47260523,-6.94876909,-2.42222404,4.94846058,12.7963285,19.0207424,22.7684784,24.4120617,24.8121662,24.6228409,24.2216377,24.2108192,25.8825226,31.0275497,41.0114975,55.7053642,73.0941544,89.975975,103.395012,111.908897,115.901398,116.842995,116.150269,114.524117,112.183807,109.633621,108.136482,109.316513,114.086502,121.766663,130.241745,137.243851,141.912415,145.436768,150.182632,157.856781,168.090561,178.619995,187.061005,192.974503,198.525833,206.981445,219.953522,235.451904,248.462387,254.030121,250.882294,242.952118,237.417648,240.292496,252.491257,269.187256,283.100342,289.557068,289.77182,289.920654,296.542175,311.519379,330.355774,345.200073,350.619293,347.967407,344.996613,350.678253,368.724274,394.451202,417.455872,428.506012,425.955963,417.138733,413.56134,423.007172,443.822357,465.183777,473.085175,458.020111,419.519226,365.252106,306.309784,252.59198,211.313919,188.449524,190.183792,221.521683,282.14505,362.978241,447.644806,519.887085,573.024292,614.533447,660.806641,723.566467,796.203674,850.338684,847.807129,763.489136,606.095581,423.134003,284.313263,250.300842,343.234406,535.485596,763.300598,957.866821,1076.59863,1117.91479,1113.0271,1101.78418,1108.12646,1129.35303,1143.6958,1129.20166,1080.83594,1015.26208,961.475952,944.303467,971.194397,1029.34766,1093.04907,1135.28369,1136.65332,1088.18127,989.418701,845.775208,667.800476,471.876251,279.476715,112.829391,-12.1063623,-91.5076599,-134.338013,-156.646332,-172.498932,-186.860672,-194.542862,-185.377182,-151.802475,-93.7897415,-18.2501507,65.9263535,153.156998,242.923111,337.116028,435.53891,533.485535,623.618774,700.93219,766.99231,829.895752,899.325989,979.680054,1065.86829,1144.84839,1202.2417,1230.01733,1230.50024,1214.33728,1193.89465,1176.30347,1160.26733,1138.03186,1100.55786,1042.203,962.116028,862.228516,744.167969,607.894287,453.175446,282.550293,103.068489,-75.1037979,-242.752151,-395.709259,-535.987732,-668.81897,-797.295715,-918.143494,-1021.64581,-1096.15796,-1134.65649,-1139.36169,-1121.59607,-1096.95642,-1078.69092,-1073.07874,-1079.10059,-1091.86536,-1107.0127,-1123.09045,-1140.70007,-1159.68127,-1176.99524,-1187.35303,-1186.48877,-1174.87439,-1159.0907,-1149.47144,-1155.06165,-1178.75659,-1215.48132,-1254.43958,-1284.01379,-1296.42358,-1289.63232,-1265.87854,-1228.30957,-1178.15161,-1114.17773,-1034.51807,-939.335938,-832.517822,-721.398987,-614.909058,-521.378723,-447.092468,-395.794464,-368.548431,-363.281372,-374.024261,-390.686768,-400.415649,-390.882507,-354.621613,-292.614929,-215.356201,-140.653549,-88.8564377,-77.2125549,-115.203308,-202.080063,-326.93576,-470.97699,-611.343262,-725.669556,-796.409424,-813.792908,-776.499512,-689.884338,-562.700256,-404.05307,-222.160629,-25.2611828,176.56546,370.724091,543.954834,686.190308,794.07135,871.449402,925.900513,963.040894,982.338013,977.58429,942.244446,876.33374,789.855164,699.599121,620.473755,556.697693,499.126801,431.605621,343.332855,239.599167,143.21759,84.0792236,81.6666489,130.421066,197.135284,233.100494,195.28418,65.4746323,-142.611008,-391.439331,-637.769653,-850.578186,-1019.83679,-1153.39441,-1266.22437,-1369.79871,-1467.60034,-1557.58606,-1637.60254,-1708.52649,-1772.64746,-1829.14941,-1871.12195,-1887.49133,-1869.4646,-1817.41675,-1743.33899,-1666.65906,-1605.58105,-1569.05603,-1554.0791,-1549.55371,-1543.86438,-1531.27747,-1513.53125,-1496.42554,-1484.40894,-1477.02551,-1469.29333,-1455.15015,-1431.15027,-1397.8606,-1358.41296,-1315.79102,-1271.09534,-1223.91724,-1174.08765,-1122.95618,-1072.84961,-1024.97852,-977.508179,-925.592224,-863.808167,-789.61731,-705.579773,-618.753357,-537.519836,-467.735809,-410.456451,-362.359222,-318.238281,-273.784515,-227.01886,-177.944305,-127.252121,-75.3540649,-22.419117,30.9223175,83.1189423,132.095764,176.261871,215.24086,249.59436,279.672363,304.582306,322.363983,331.606964,333.535522,332.954956,336.980408,351.899261,379.887604,417.614532,457.722076,492.406219,517.011475,531.572754,539.580444,545.003723,549.616211,552.292297,550.505493,542.774109,530.270508,516.518677,505.494263,499.507172,498.285431,499.741943,501.713806,503.370453,505.356628,508.735657,513.66449,518.854187,522.212891,522.157959,518.603027,512.903137,506.833466,501.384216,496.254242,490.376312,483.029205,474.66748,466.824127,461.135651,458.184387,456.991028,455.532715,451.955688,445.690491,437.772064,430.213593,424.887207,422.616516,422.958832,424.660126,426.36615,427.124603,426.479553,424.294617,420.582306,415.494568,409.394135,402.806305,396.157257,389.441071,382.105743,373.351593,362.741333,350.744873,338.815826,328.868439,322.421631,319.915222,320.606476,323.077271,325.989258,328.589386,330.684113,332.203247,332.770935,331.674377,328.297699,322.706421,315.916199,309.571716,305.168457,303.280365,303.277283,303.708191,303.105682,300.71579,296.740753,292.022644,287.451172,283.508728,280.205536,277.348206,274.857544,272.864349,271.527954,270.763916,270.146088,269.108063,267.326263,265.010132,262.874908,261.791229,262.331177,264.495453,267.770599,271.433899,274.869446,277.68988,279.638306,280.426941,279.711456,277.269592,273.257629,268.317108,263.383698,259.262604,256.221863,253.874619,251.446228,248.270203,244.204315,239.708969,235.552902,232.348557,230.21347,228.749542,227.313141,225.372162,222.726059,219.495667,215.959305,212.394638,209.033646,206.114059,203.925446,202.771835,202.876968,204.340744,207.231598,211.777191,218.492538,228.079803,241.078064,257.445679,276.366364,296.475861,316.446716,335.608368,354.211975,373.140137,393.209442,414.488922,436.069183,456.445648,474.29071,489.141815,501.585358,512.836365,523.989746,535.404541,546.568909,556.470337,564.185791,569.310059,572.000244,572.693726,571.757507,569.315308,565.319153,559.729309,552.604553,544.015686,533.876953,521.889465,507.716858,491.319824,473.215546,454.430634,436.102295,418.927216,402.787781,386.803253,369.804688,350.975677,330.301514,308.586243,287.045959,266.714264,247.970078,230.402206,213.035965,194.783783,174.915329,153.372833,130.838913,108.549049,87.9150009,70.0870743,55.6190224,44.3787117,35.7482834,29.0084572,23.6868877,19.6608372,16.9600353,15.4299173,14.536088,13.510231,11.7859297,9.42212009,7.16148138,5.99505043,6.47092342,8.22889328,10.1523476,11.1209803,10.8880033,10.4390869,11.4864569,15.3504934,21.9714527,29.7914753,36.6909103,41.3991585,44.3745842,47.4197693,52.1544533,58.3475723,63.3675423,63.3781471,55.7330666,41.0800171,23.6719913,9.410779,2.61456537,3.44561815,7.67400312,9.07345581,3.08889079,-10.4426298,-27.2021503,-40.9930382,-47.4224091,-46.3884659,-41.8978386,-39.4530411,-42.7612839,-51.8439751,-63.5982132,-74.2060013,-81.6313171,-86.5389252,-91.187149,-97.2952576,-104.545784,-110.818916,-113.916565,-113.409157,-111.14856,-109.995033,-111.664635,-115.309494,-117.959206,-116.6035,-110.454567,-101.71283,-94.1729355,-90.5590897,-90.4662399,-90.4649277,-86.469574,-76.8582687,-64.1980743,-54.2607803,-52.7890244,-62.0069084,-79.1117325,-97.7477951,-111.5588,-117.605347,-117.575844,-116.192581,-118.012634,-124.753731,-134.763153,-144.711044,-152.114883,-156.880478,-160.898895,-166.195572,-173.133881,-180.040436,-184.496063,-185.277786,-183.463852,-181.853287,-183.109772,-187.986191,-194.922928,-201.297943,-205.387405,-207.57579,-209.916794,-214.384094,-221.150833,-228.251709,-232.978073,-234.050461,-232.960739,-233.384903,-238.909012,-250.548584,-265.779572,-279.833282,-288.481567,-290.506134,-288.236084,-285.83551,-286.53833,-290.719666,-296.079041,-299.724274,-300.616058,-300.589966,-303.177612,-311.006897,-323.582794,-337.027557,-346.045258,-346.874146,-339.335419,-326.712677,-313.658203,-303.60611,-297.401245,-293.904633,-291.898895,-291.715271,-295.265228,-304.388763,-318.739716,-334.875977,-347.459961,-352.015503,-347.533844,-337.19458,-326.619141,-320.656891,-320.66745,-323.960449,-325.687469,-321.943176,-312.122223,-299.131958,-287.474487,-280.543732,-278.877808,-280.362183,-282.046722,-282.224823,-281.372345,-281.424896,-284.040344,-289.142792,-294.775208,-298.329041,-298.264984,-295.131836,-291.209656,-289.052155,-289.924408,-293.147003,-296.702698,-298.607178,-298.080109,-295.759735,-292.904053,-290.2146,-287.142975,-282.175537,-273.914612,-262.245667,-248.829727,-236.590958,-228.474869,-226.160461,-229.397995,-236.270401,-244.187332,-251.084885,-256.257294,-260.46106,-265.272522,-272.003601,-280.679718,-289.594971,-295.755249,-296.13678,-289.253906,-276.259552,-260.892487,-248.086365,-241.763748,-242.877579,-248.772125,-254.330231,-254.433685,-246.516479,-231.891388,-215.168228,-202.102921,-197.026764,-201.144409,-212.413879,-226.822815,-240.205704,-249.661118,-254.073639,-253.843491,-250.273911,-245.008057,-239.619888,-235.255692,-232.278305,-230.077377,-227.310074,-222.634949,-215.599503,-207.071701,-198.774048,-192.070755,-186.790588,-181.029236,-172.333054,-159.697723,-145.077393,-133.183426,-129.329071,-136.373123,-152.571152,-171.774918,-186.084732,-189.57312,-181.023178,-164.214432,-145.760132,-131.896912,-126.061684,-128.351028,-136.634964,-148.134964,-160.303452,-170.720963,-176.699295,-175.548309,-165.812836,-148.748154,-128.750366,-111.931183,-103.277931,-103.981194,-110.653343,-117.09153,-117.623489,-110.022888,-96.2501831,-80.7112579,-67.349411,-57.5704613,-50.2850609,-43.769043,-37.7438507,-33.9984932,-35.0513,-41.8950958,-52.6243515,-63.1273003,-69.485321,-70.3995209,-67.8711853,-65.6058731,-66.301857,-69.8616257,-73.9369278,-76.4861298,-78.4309692,-84.2465134,-99.6691055,-127.770576,-165.968933,-206.143158,-238.091721,-254.396317,-253.799255,-241.132431,-224.021088,-208.561447,-196.639328,-186.277908,-174.321259,-159.32164,-142.628632,-127.166611,-115.093391,-106.231865,-98.4260712,-89.4249115,-78.7302551,-67.9229355,-59.202816,-53.298027,-48.4239922,-41.2012825,-28.9421558,-11.6174011,8.04070282,26.5225925,42.2816811,57.2470856,75.8846436,102.255013,136.946365,175.939651,212.252411,239.419113,254.702423,260.149078,261.015717,262.719513,268.243744,277.415619,288.121185,298.301117,307.2771,315.676514,324.336823,333.251892,341.432007,347.723267,351.846985,354.77301,358.100342,362.918915,369.033203,375.140808,379.812775,382.506256,383.831512,384.893494,386.27066,387.495056,387.515442,385.836365,383.431854,382.608459,385.721161,393.518524,404.270294,414.401001,420.37735,420.734985,416.977142,412.760193,411.850342,416.091156,424.572174,434.392609,442.41806,446.883575,447.924103,446.905029,445.20816,443.386108,441.202667,438.362488,435.228912,432.88504,432.433502,434.048431,436.526398,437.76593,435.961761,430.782013,423.764313,417.643005,414.983765,416.917511,422.676727,430.124573,436.880829,441.357025,443.164581,442.812073,441.037842,438.268463,434.504181,429.58429,423.537109,416.715179,409.627045,402.61377,395.61731,388.193756,379.737671,369.752289,358.013763,344.597778,329.849792,314.387451,299.12854,285.235657,273.869995,265.775787,260.885437,258.206421,256.136169,253.106125,248.230835,241.601257,234.056107,226.579742,219.706985,213.304092,206.842178,199.949188,192.839661,186.309616,181.287384,178.245193,176.883118,176.317657,175.660233,174.59462,173.549515,173.331497,174.455353,176.629715,178.76944,179.562485,178.244781,175.08548,171.261353,168.190475,166.741638,166.80719,167.481125,167.688492,166.835327,165.07048,163.043228,161.392883,160.367615,159.835098,159.623962,159.866287,161.002975,163.37825,166.697601,169.790207,170.961243,168.824036,163.136841,155.095779,146.832703,140.356522,136.539963,134.746201,133.304886,130.529053,125.648659,119.119377,112.184723,106.03923,101.155617,97.1744003,93.345192,89.1460495,84.6333542,80.3173141,76.7230988,74.0135117,71.9672089,70.3019257,69.044014,68.5978088,69.4005432,71.3897476,73.6990356,74.8796616,73.5878754,69.3309784,62.7823143,55.4313049,48.7659264,43.4966698,39.307209,35.2675018,30.6067753,25.3142776,20.1684456,16.1944675,13.938056,13.0557356,12.4892445,11.0848618,8.2244339,4.05333281,-0.803100228,-5.77721691,-10.7308941,-15.894475,-21.4539623,-27.1495132,-32.2508926,-35.9901619,-38.1654816,-39.45504,-41.1422997,-44.3556061,-49.2918663,-54.9583435,-59.6629906,-61.9993973,-61.7294121,-60.0031242,-58.761055,-59.6781006,-63.2963638,-68.8646927,-74.9424744,-80.3387604,-84.7648849,-88.8012695,-93.2578735,-98.4163361,-103.703819,-108.028885,-110.53376,-111.21843,-110.978699,-111.014549,-112.017677,-113.718826,-115.137756,-115.387222,-114.476524,-113.528702,-114.205254,-117.674995,-123.798264,-131.08638,-137.499435,-141.592133,-143.2827,-143.767761,-144.673203,-147.031662,-150.767197,-154.987061,-158.797913,-161.994095,-165.078384,-168.596146,-172.317291,-174.972519,-174.887115,-171.188873,-164.770416,-158.24324,-154.741562,-156.223022,-162.324966,-170.550919,-177.732086,-181.870346,-183.194641,-183.760437,-185.879868,-190.448669,-196.302734,-201.035355,-202.705231,-201.250595,-198.623032,-197.534866,-199.674362,-204.61412,-210.160263,-213.890152,-214.801758,-213.926254,-213.490829,-215.247223,-219.175018,-223.505264,-226.064621,-225.981934,-224.509003,-224.309433,-227.650589,-234.739883,-243.394974,-250.345703,-253.337006,-252.620728,-250.80484,-251.125473,-255.275803,-262.235931,-268.883911,-271.980469,-270.210815,-264.949402,-259.284119,-255.998123,-255.874435,-257.425507,-258.160339,-256.468903,-252.821579,-249.485168,-248.978287,-252.328079,-258.295044,-264.062988,-266.920959,-265.842682,-261.983704,-257.848145,-255.717712,-256.342773,-258.647034,-260.514252,-260.07663,-256.708099,-251.216049,-245.266159,-240.494537,-237.82724,-237.276215,-238.14798,-239.418701,-240.07077,-239.338898,-236.911713,-233.095459,-228.838776,-225.482895,-224.224731,-225.497742,-228.620972,-231.992142,-233.811905,-232.991364,-229.739288,-225.475555,-222.097397,-221.005249,-222.43541,-225.456818,-228.589798,-230.646118,-231.288269,-231.013031,-230.635696,-230.649261,-230.880646,-230.648285,-229.293274,-226.719193,-223.575653,-220.947205,-219.719803,-220.003418,-220.971619,-221.248459,-219.659256,-215.942551,-211.016495,-206.615341,-204.444397,-205.273254,-208.44429,-212.07991,-213.91571,-212.353882,-207.202484,-199.718262,-191.933685,-185.626602,-181.478058,-178.851807,-176.278671,-172.337662,-166.415375,-158.916122,-150.830597,-142.952408,-135.236649,-126.703873,-115.964035,-102.063568,-85.1629639,-66.6457596,-48.5853996,-32.8658638,-20.4511528,-11.2119093,-4.39184093,0.585714877,3.48956299,3.27093625,-1.23626018,-10.2496977,-22.2302589,-33.8956642,-41.2238617,-41.068264,-32.6100883,-17.8695221,-0.931024909,13.7962914,23.4265594,27.610321,28.212141,27.8945789,28.466608,29.9717522,31.0206718,30.0900326,26.8951416,22.8936749,20.5394268,21.7331524,26.4789524,32.6704102,37.2308464,37.9531059,34.8957748,30.4278507,27.8410892,29.3498745,34.6943474,41.1979828,45.2360992,44.2186546,37.9139977,28.3958035,18.7649231,11.5125513,7.510571,6.10906553,6.06789684,6.56155491,7.56997633,9.49849033,12.4484243,15.7778978,18.3222675,19.115366,18.066061,16.0780754,14.5139666,14.3818178,15.8138552,18.1787739,20.7010384,23.0994129,25.7634697,29.3471184,34.1002426,39.458744,44.2278633,47.2644272,48.203598,47.740654,47.2837906,48.2137184,51.2226295,56.1080856,62.0597763,68.1586304,73.7305679,78.3896637,81.8895493,84.0437775,84.8676987,84.838028,84.9865417,86.6098328,90.6590729,97.1607208,105.076378,112.761833,118.788483,122.625839,124.755714,126.164818,127.588348,129.049164,130.024429,130.113327,129.696396,130.047989,132.724716,138.566422,146.959396,155.896973,162.889252,166.230988,165.88829,163.476746,161.344406,161.301376,163.729935,167.555573,171.034836,172.844849,172.82254,171.953613,171.678085,172.971313,175.756302,178.975372,181.252411,181.744949,180.696335,179.379303,179.458878,182.111404,187.36058,193.979065,200.016953,203.702118,204.267822,202.296173,199.407318,197.455902,197.645599,200.008087,203.49292,206.588699,208.124496,207.832733,206.415237,205.138367,205.214798,207.288101,211.218567,216.182907,220.976059,224.390717,225.602539,224.509094,221.92038,219.440338,218.928177,221.639343,227.422806,234.48436,240.037521,241.676392,238.786362,233.125473,228.073563,226.819595,230.483505,237.342026,243.750443,246.31488,244.016693,238.914856,234.877579,235.049866,239.640839,245.503036,247.88237,243.311752,231.821457,217.006882,203.838776,195.570572,191.725891,188.493103,181.312805,168.009109,150.433289,133.525024,122.355637,119.022758,121.367393,124.317184,122.985176,115.554756,104.156044,93.2502136,86.6199493,84.9037323,85.2006989,82.9220657,74.6662521,60.3257828,43.2011719,28.172472,19.1257992,17.1574955,20.4639034,25.7428608,30.0949821,32.2927361,32.8523598,33.1448936,34.2890167,36.5230789,39.2939529,41.8023834,43.5350418,44.4603767,44.8819656,45.1670914,45.5660019,46.1752014,46.9539185,47.7012939,48.0165977,47.3598061,45.2885818,41.7865982,37.4567642,33.3766975,30.6210308,29.7073021,30.3199387,31.5109558,32.2575569,32.00383,30.8227501,29.1160049,27.1223793,24.6618462,21.364275,17.2336178,13.0763464,10.3445711,10.3383427,13.2212715,17.5519123,20.792284,20.632719,16.3704948,9.43298244,2.60368228,-1.66569817,-2.82436228,-2.62710118,-4.01913309,-9.13185501,-17.6635418,-26.7628422,-32.6236877,-32.8877907,-28.3541603,-22.8364773,-21.1196232,-26.170166,-37.2829742,-50.3346405,-60.0523911,-62.9712868,-59.3194771,-52.7223282,-47.9488983,-48.1042938,-52.9619102,-59.3630447,-63.2947617,-62.239666,-56.3140106,-47.5912209,-38.2397346,-28.8611565,-18.2053242,-4.4257865,13.0697851,32.5588036,50.5772133,63.821312,71.1044998,73.9955063,75.6288452,78.4379044,82.3532486,84.7628555,82.370163,73.7674255,60.9646454,48.7108688,41.8700905,42.4497986,48.2241669,53.9695473,54.6849174,48.8503113,39.6503067,33.282692,35.2644234,46.9200935,64.1844635,79.4856033,85.6356125,79.4705505,63.1683769,42.5955467,23.7998123,9.80037689,-0.471610874,-10.6237211,-23.7861423,-40.0986023,-56.2636909,-67.3939056,-69.9676132,-64.0717697,-53.589119,-44.2394028,-40.6309471,-43.9953461,-51.8143959,-59.4352951,-62.682251,-60.0099335,-53.1065483,-45.7670555,-41.7777824,-42.9945641,-48.5792351,-55.669899,-61.0035019,-62.5762749,-60.4993668,-56.6944847,-53.6943741,-53.2471542,-55.4700775,-58.9598198,-61.7348709,-62.4427986,-61.1422195,-59.2280769,-58.5667763,-60.3654442,-64.4524536,-69.3980026,-73.3926849,-75.3343658,-75.4406281,-75.0028534,-75.4503479,-77.3507538,-80.0284042,-82.080513,-82.4593048,-81.3720551,-80.3286819,-81.2173996,-84.9692383,-90.7171783,-96.1030807,-98.6544189,-97.4080353,-93.7031784,-90.520401,-90.6555176,-94.8186569,-100.894005,-104.943008,-103.454834,-95.5173264,-83.5512619,-72.0815277,-65.2209854,-64.366272,-67.5142212,-70.6327591,-70.2522964,-65.6738586,-59.4125595,-55.5836906,-57.2243423,-64.2225189,-73.1693497,-79.270752,-79.1804886,-73.0344009,-64.4357376,-58.3771248,-58.3286476,-64.2214661,-72.5142899,-78.2856598,-78.1008911,-71.9681244,-63.2647896,-56.7254448,-55.707798,-60.3390656,-67.5872116,-73.1551132,-74.0429611,-70.2710724,-64.782959,-61.6244354,-63.4873772,-70.0489349,-78.0557556,-83.0918121,-82.0160446,-74.6971893,-64.0941696,-54.6734962,-50.076088,-51.3298454,-56.5508194,-62.2096558,-65.167038,-64.299057,-60.8387184,-57.3499184,-56.0444603,-57.4868202,-60.4273262,-62.7740936,-63.0180511,-61.187706,-58.7575531,-57.6248665,-58.855526,-62.0129585,-65.4715958,-67.4632645,-67.1447449,-64.999054,-62.3583565,-60.4291382,-59.5118675,-58.9369583,-57.7193298,-55.4304886,-52.6464462,-50.6420479,-50.54216,-52.528862,-55.6704216,-58.5075455,-60.0056,-60.2229462,-60.2332993,-61.3434639,-64.1227112,-67.8866501,-70.9790878,-71.6790619,-69.1732178,-64.0195999,-57.8721466,-52.6868744,-49.8936043,-49.9487724,-52.3795929,-56.1284294,-59.9110832,-62.4357376,-62.538723,-59.3858833,-52.7893181,-43.4952888,-33.1966972,-24.1287251,-18.3662567,-17.1646271,-20.6908512,-28.2545319,-38.8279228,-51.4758797,-65.4268723,-79.8264694,-93.4880447,-104.975204,-113.087318,-117.465317,-118.866753,-118.830536,-118.865181,-119.658585,-120.842438,-121.493721,-121.044823,-119.96122,-119.670837,-121.729836,-126.752365,-133.834976,-140.910812,-145.859756,-147.686966,-147.019089,-145.606476,-145.167023,-146.327271,-148.327347,-149.628708,-148.965607,-146.120453,-141.944717,-137.698669,-134.245926,-131.68808,-129.645218,-127.876663,-126.680313,-126.700592,-128.26709,-130.800537,-132.829956,-132.735153,-129.764694,-124.608116,-119.049767,-114.860497,-112.651917,-111.504784,-109.68557,-106.003021,-100.859741,-96.2005463,-94.2907486,-96.0951614,-100.385353,-104.29126,-105.063995,-101.951782,-96.9130096,-93.5708466,-94.9479141,-101.373795,-109.944672,-115.994125,-115.765465,-108.669998,-97.7131882,-87.7774124,-82.7835846,-83.467926,-87.1392746,-89.5478287,-87.6724167,-81.6591873,-74.6877594,-70.8591995,-72.4597626,-78.3565063,-84.569252,-86.6875534,-82.6292419,-74.0070724,-65.2266006,-60.8445854,-62.7972031,-69.192482,-75.4065552,-76.8236465,-71.5736237,-61.639843,-51.7013626,-46.4187851,-47.7608871,-53.8902779,-60.1700439,-61.6220207,-55.3946457,-41.901226,-24.1444492,-5.79379416,10.7905607,25.5081482,40.0687943,56.5890694,76.1303711,97.9537506,119.743179,138.499237,151.555725,157.292145,155.426651,147.008652,134.24205,120.13002,107.839485,99.7944412,96.7771988,97.5270767,99.238884,98.9303131,95.0864334,88.6750107,82.8352203,81.2411118,85.9531097,95.9886703,107.546829,115.914986,118.072975,114.508011,109.115654,107.126579,112.163963,124.101341,138.986374,151.127579,156.181717,153.478638,146.24939,139.64035,137.686508,141.013412,146.588745,149.620819,146.43924,136.642181,123.274361,111.003212,103.453781,101.327667,102.403648,103.336395,102.065659,99.2925339,98.0784454,101.80072,111.731895,125.768394,139.162262,146.912155,146.464493,139.161621,129.577271,123.085266,123.012032,128.950317,137.140717,142.659637,142.157349,135.626221,126.270691,118.637924,116.122757,119.254158,125.664757,131.656754,134.383774,133.368942,130.523087,128.732239,129.919083,133.766571,137.872711,139.237961,136.183746,129.532593,122.308533,118.089386,118.951248,124.208199,130.704239,134.514069,133.083023,126.577148,117.682686,110.013138,106.10041,106.166573,108.361702,110.22892,110.400414,109.415176,109.152939,111.308372,115.978714,121.372124,124.893356,124.915283,122.03344,118.889763,118.578903,122.617126,129.808838,136.820892,140.180618,138.45636,133.201965,128.001801,126.173332,128.584503,133.016144,135.537811,133.07019,125.517647,116.091904,109.575294,109.571373,116.427605,127.084244,136.887543,142.194778,142.162582,138.707169,134.833923,132.551895,131.760284,130.747238,127.807816,122.746208,117.161957,113.314789,112.386589,113.403496,113.644043,110.340729,102.577324,92.109169,82.5134277,77.1605911,77.2718887,81.2800674,85.8777771,88.0643997,86.8848877,83.7807312,81.3833694,81.5770264,84.1056137,86.6261597,86.1743011,81.1114273,72.3255463,62.9290009,56.6220741,55.6930199,59.8207474,66.3431625,71.7805252,73.6920624,71.803215,67.8210449,64.142334,62.2806473,61.9480782,61.2918816,58.0886192,51.1512985,41.1139832,30.1526337,20.8327541,14.772645,11.8924351,10.6512518,9.07953358,5.94758844,1.34863663,-3.64419675,-7.99223757,-11.6757708,-15.9379978,-22.5340672,-32.3914909,-44.5421486,-56.1207504,-63.6303558,-64.8794098,-60.4829712,-53.9467201,-50.102108,-52.6284599,-62.0078659,-75.1107178,-86.7401047,-92.3503418,-90.4512253,-83.3510361,-75.8207245,-72.4466553,-75.1836548,-82.4822693,-90.4280777,-95.1579056,-95.1053391,-91.7865219,-88.7464676,-89.3798599,-94.9604645,-104.013702,-113.307182,-119.763519,-122.103088,-121.267982,-119.467552,-118.515182,-118.500977,-117.581291,-112.967438,-102.502106,-85.9171371,-65.0980225,-43.2590294,-23.5105782,-7.57597446,4.71831799,14.9833384,25.1319828,36.1755867,47.5772171,57.5062065,63.8880959,65.7179337,63.9101448,61.1233673,60.4998665,63.8797493,70.4559174,76.7403793,78.0761032,71.040741,55.4593773,34.8096619,14.6299515,-0.290271699,-8.34830379,-11.7144194,-14.6412144,-20.483263,-29.2975407,-37.6287766,-40.7497177,-36.0210609,-25.1991043,-14.0586023,-9.35137081,-14.8680449,-29.0651722,-45.8462143,-58.1353645,-62.0851746,-59.2929497,-55.618,-57.3456573,-67.1516571,-82.4566422,-97.2117691,-105.91835,-107.222267,-104.708549,-104.375092,-110.468643,-122.459724,-135.187149,-142.107468,-139.530258,-129.068115,-116.709969,-109.144318,-109.741615,-116.776237,-124.942169,-129.033386,-127.283737,-122.187469,-118.390511,-119.228287,-124.347046,-130.024551,-131.902267,-128.174271,-120.988007,-115.073402,-114.548737,-120.113693,-128.575134,-135.04483,-136.310623,-133.069,-129.473175,-130.27124,-137.451614,-148.665161,-158.523865,-161.967392,-157.516251,-148.293884,-140.148331,-138.07048,-143.176956,-152.127045,-159.270081,-160.109375,-153.908646,-143.893433,-135.05452,-131.023392,-131.960587,-134.649063,-134.565353,-128.530258,-116.314972,-100.354584,-83.9404297,-69.1479492,-55.8042336,-42.0578957,-26.0933037,-7.85777998,10.2951908,24.4752789,31.1846237,29.2555504,20.7306366,10.1672764,2.66068125,1.54442537,6.91862965,15.7718754,23.672821,27.1894093,25.7668133,22.0203686,20.2126408,23.6892567,32.6906204,43.83078,51.645565,51.4286575,41.7865829,25.4556694,7.9123683,-5.40114689,-11.616848,-11.329113,-7.49347782,-3.25154591,-0.200455114,1.81982839,3.52092767,4.7091012,3.92746663,-0.316561282,-7.57014322,-14.3321896,-15.0834141,-5.29336262,15.2766285,41.204361,63.2612267,72.8318329,66.5005188,48.0545158,26.5332375,11.2915154,6.9038496,10.9190044,15.8085108,13.9298191,2.49365282,-14.4792395,-28.397501,-31.1819229,-20.139822,0.265194237,20.7657223,32.3459396,31.0473347,19.8112526,6.44222403,-0.984541237,1.42213702,11.5150385,22.7171421,27.9781876,23.7406082,11.7299128,-2.27184534,-11.8021679,-13.2600536,-7.66625595,0.215659767,4.766325,2.70790243,-5.17877197,-14.7196341,-20.9421253,-21.0722599,-16.2018833,-10.6661444,-9.49242496,-15.4056149,-27.1513748,-40.1458778,-49.093544,-51.0285759,-46.9530678,-41.0668831,-38.0461006,-40.0447693,-45.3020096,-49.2678375,-47.5890999,-39.0961571,-26.8756886,-16.6724434,-13.5290499,-18.7023811,-28.7626534,-37.455616,-39.2175903,-32.2382545,-19.2840557,-5.90055132,2.80043435,4.79318142,1.74292016,-2.55346894,-4.67932129,-3.40686011,0.197429046,4.13695574,7.14119482,9.39509964,11.937253,15.355835,18.9092789,20.825407,19.5935249,15.2688522,9.74934864,5.7135396,4.89724779,6.91655588,9.51419353,10.1302204,7.75452471,3.77746391,1.20289624,2.69405985,8.73223591,17.1241531,24.21735,27.0618191,25.13941,20.5764236,16.7497311,16.2235756,19.3378525,24.2807083,28.4750023,30.2725945,29.825983,28.6397381,28.2324181,28.9235764,29.6187191,28.7232914,25.5026283,20.8817749,17.0613594,16.1466713,18.6837788,23.0974808,26.4587231,26.147646,21.3863354,13.6809254,5.89377737,0.527027369,-1.71010149,-2.16539621,-3.19771814,-6.50724363,-11.917737,-17.3956776,-20.3033447,-19.0946922,-14.3702326,-8.59835148,-4.64633751,-4.02388382,-5.94455957,-7.81779766,-6.89173365,-2.03095531,5.4967556,12.748188,16.9189644,17.1129837,14.9365721,13.5124969,15.5136471,21.4617577,29.3946285,36.144989,39.4320641,39.4155846,38.6746101,40.5715981,47.0148506,57.0558052,67.2601242,73.6748199,74.1878357,69.8044205,64.0316772,60.7477379,61.8805466,66.3284073,70.7597961,71.7477722,67.8803024,60.5450706,52.9551353,48.086792,46.843399,47.559639,47.0873222,42.7336998,33.8570671,22.207653,10.9032049,2.7224412,-1.28032887,-2.12187219,-2.13030934,-3.60871911,-7.67648506,-13.8407202,-20.4085903,-25.4395657,-27.7380276,-27.4329891,-25.9050961,-25.0985508,-26.5129871,-30.3362427,-35.1769447,-38.6317673,-38.5162468,-34.1725311,-27.0987473,-20.4009285,-17.1965694,-18.7727108,-23.5896034,-27.8607025,-27.5585346,-20.7887573,-9.12778091,2.97851205,10.5402613,10.7870083,4.74033737,-3.38112116,-8.61617279,-8.13043594,-2.78647399,3.51514101,6.29341936,3.22325706,-4.50957823,-13.010788,-18.0745697,-17.6643219,-12.98281,-7.57001543,-5.09268236,-7.23427916,-12.9271078,-19.2575512,-23.3406448,-23.9512653,-21.9805622,-19.6031513,-18.8281326,-20.3807487,-23.5184555,-26.7248726,-28.7084618,-29.060955,-28.2712555,-27.2479935,-26.7589779,-27.1261311,-28.2462845,-29.7814236,-31.3320847,-32.5393715,-33.1879082,-33.3656235,-33.5957108,-34.7478676,-37.6149979,-42.3020897,-47.827961,-52.3445396,-54.0440559,-52.3232498,-48.4590492,-45.2078896,-45.3606224,-50.0084877,-57.6094589,-64.588501,-67.3008347,-64.2729263,-57.324295,-50.741951,-48.8441353,-53.3260345,-62.0274353,-69.9792328,-72.2019119,-66.5997543,-55.156765,-42.6396179,-33.5601082,-29.2804489,-27.1139679,-22.0570831,-10.1207161,8.83395195,30.6064644,48.9267693,59.1453667,61.0538063,59.0242271,59.2991486,66.0558929,78.6791306,91.9694901,99.2140121,96.263855,84.1223984,68.4529877,56.3095016,52.0936775,55.195034,60.7011337,62.6622658,57.8477974,47.6943321,37.3315353,32.402874,35.7166214,45.7649536,57.8888283,67.1869354,71.2469406,71.0288391,69.5313492,69.332283,70.757576,71.8982849,70.3611832,65.4224472,58.9749336,54.498024,54.6660194,59.2089882,64.5661926,65.7487946,59.3745193,46.0006638,30.2269173,18.3755379,15.0550394,20.6318436,31.1123638,40.4913712,44.1425095,41.2242813,34.7121887,29.1395912,27.52248,29.4038086,31.2159672,28.6990719,19.8382187,6.47334766,-6.43600273,-13.468502,-11.7362127,-2.44721913,9.85087109,19.8421249,24.2759628,23.4249878,20.4192638,19.0027771,21.1572819,26.0212212,30.6530876,32.0287971,28.9471722,22.6636772,15.946496,11.2664671,9.34596729,8.99437237,8.27101994,6.12987185,3.39042497,2.33966875,5.19359541,12.4282751,22.1176929,30.7968483,35.3920822,35.0477562,31.6907635,28.9201622,29.8351841,35.0873871,42.3408966,47.502018,47.0298996,39.9958344,28.7053165,17.5392666,10.700305,10.1539011,14.8907337,21.8260574,27.6989803,30.8059654,31.5927906,31.8849163,33.3746452,36.3902779,39.7211952,41.5490952,40.8112526,38.0536995,35.1793251,34.2282448,35.9743614,39.2703705,41.6231422,40.7094917,35.9268684,29.0042286,23.2311497,21.6875458,25.4773865,33.0080223,40.7757416,45.2501945,44.8013191,40.5663071,35.7461128,33.7162094,36.0226517,41.4156685,46.4973869,47.6479073,43.1586151,34.3593712,25.0645771,19.5908146,20.4052792,26.7011871,34.7221718,39.7181396,38.514431,31.3073597,21.6775169,14.7536058,14.4681644,21.3750725,32.240757,41.6887436,45.0561562,40.9224701,31.9008045,23.2045441,19.7346859,23.294754,31.522953,39.2035408,41.2713623,35.8157959,25.326395,15.3856573,11.4867163,15.7884207,25.7269211,35.3708611,38.8041115,33.5841484,22.2163219,10.713995,5.04410887,7.55679035,15.5594492,22.9416943,23.9150009,16.6140728,4.34058762,-6.37049961,-9.74607754,-4.42627048,5.46561432,12.5256214,10.2446585,-3.34938335,-24.7568245,-47.2772636,-65.006485,-76.0363922,-82.8867111,-89.9981537,-100.023811,-111.445786,-119.194458,-117.979767,-106.209511,-87.8629684,-70.8812485,-62.8176537,-66.3014374,-77.1382523,-86.3751984,-85.2751083,-70.3317108,-45.3504562,-19.3226299,-1.32041514,4.57568264,1.32915711,-3.18580914,-1.15114892,10.4296427,28.0358963,43.9709435,51.2432709,47.9681587,38.6049995,31.3097496,33.0561676,45.5103989,64.1357498,81.0000381,89.5078583,88.163414,81.1429596,75.4641953,76.6165771,85.3842697,97.75103,107.796066,111.632607,109.86068,107.026558,108.518509,116.939888,130.281082,143.022903,149.434235,146.975861,137.721222,127.009758,120.283905,120.115868,125.169731,131.503922,135.120667,133.99234,128.33728,119.24678,106.936844,90.1065216,67.0047302,37.4753304,4.41878843,-26.6105156,-49.7164192,-61.5690804,-63.060154,-58.5588608,-53.1431427,-49.5256767,-46.6522369,-40.9041481,-29.1367683,-11.5362711,7.67785597,22.3247471,27.9116764,24.5581264,17.2387238,13.015892,16.8333111,28.4138565,42.2120056,50.5499535,48.128952,35.2456245,17.7900505,4.00528526,-0.106179886,5.92591047,16.9028912,24.9691849,23.9738216,12.6971903,-4.77563763,-21.5577412,-31.765131,-33.4526787,-29.1728287,-24.0876846,-22.9010925,-27.3781128,-35.7016411,-43.7879181,-47.637207,-45.3850403,-38.0638504,-28.8798866,-21.5658321,-18.7127934,-20.8351765,-26.4619331,-33.0617561,-38.3078117,-41.1338387,-42.1746712,-43.4340172,-47.3073959,-55.3446312,-67.2859116,-80.8587189,-92.5412979,-99.0540695,-98.9312592,-93.3856506,-85.9434586,-80.9135208,-81.3792191,-87.7150421,-97.4226456,-106.424461,-111.182205,-110.54454,-106.34462,-102.420319,-102.57354,-108.560097,-119.187447,-130.995834,-140.134399,-144.392532,-144.268875,-142.502884,-142.358078,-145.650208,-151.657776,-157.546677,-160.066208,-157.528137,-150.902786,-143.372543,-138.589661,-138.658432,-143.032669,-148.970276,-153.240814,-154.018646,-151.794815,-148.780228,-147.250717,-147.972061,-149.778809,-150.591476,-149.153885,-146.234833,-144.35849,-146.125732,-152.210175,-160.444,-166.773621,-167.633789,-162.26947,-153.442108,-145.917526,-143.566269,-146.877594,-152.522415,-155.350067,-151.646301,-141.624313,-129.547562,-121.347382,-121.17144,-128.972321,-140.586624,-150.194305,-153.594254,-150.304153,-143.328293,-136.946701,-134.066071,-134.79454,-136.954849,-137.929535,-136.440125,-133.082886,-129.443771,-126.640434,-124.466446,-121.756691,-117.608604,-112.426918,-107.899223,-105.838188,-106.719772,-109.033119,-110.014015,-107.342758,-100.666061,-91.8805313,-83.9514618,-79.0506973,-77.2688751,-76.7560272,-75.1538239,-71.2988892,-66.0158081,-61.4811211,-59.6469116,-60.8516426,-63.576561,-65.4701843,-64.8704224,-61.7408028,-57.4094086,-53.3933792,-50.2453346,-47.2964516,-43.4508324,-38.3543205,-32.9493065,-28.885397,-27.1567841,-27.0077705,-26.0573845,-21.7569714,-13.2847071,-2.53783011,6.62024784,10.5485601,8.10984993,1.5239749,-4.86728048,-7.22232485,-4.54777813,0.771661818,4.64930296,4.11133051,-0.600901008,-6.06217289,-7.86039543,-3.54878449,5.59389496,15.1982498,20.4829998,19.2754993,13.4183855,7.63036489,6.53152275,11.7353077,20.8709888,29.1538754,32.4767265,30.0223274,24.7234974,21.3020363,23.1836548,30.2944527,39.1472626,45.1260414,45.4588737,40.9536018,35.4089775,33.142643,36.2879906,43.62146,51.6371841,57.0908318,59.27631,60.5017166,64.4465027,73.501091,86.8760223,100.772598,110.560585,113.593094,110.860794,106.419418,104.93708,108.889793,117.136238,125.716148,130.325897,128.916077,122.844093,115.964363,112.313622,113.843277,119.508514,126.103828,130.16774,129.735886,124.98011,117.576874,109.429199,101.634407,94.2513275,86.7932816,78.9211121,70.8107605,63.0393753,56.2345009,50.8489304,47.2070961,45.6472054,46.4631958,49.5550995,54.0546761,58.3722458,60.8930931,61.0385513,59.9784279,60.3235435,64.7165985,74.0345154,86.3536224,97.5236053,103.246567,101.539032,94.0641098,85.3927917,80.4977646,81.9245071,88.3644028,95.5384827,98.8714981,96.3030167,89.486824,82.6534348,79.8979034,82.6424332,88.8708954,94.5518951,96.2467804,93.1754837,87.4441071,82.4046478,80.3482895,81.1073227,82.4374161,81.7909622,78.1587677,72.6828995,67.6764755,64.8411942,64.0260773,63.4393501,61.1366348,56.6566925,51.5534401,48.3745499,48.7878571,52.2233658,56.081295,57.4572525,55.2226563,50.9741211,48.0910416,49.4428101,55.2686577,62.7158241,67.4537659,66.3850708,59.6915131,50.8350143,44.4473267,43.4310036,47.1354179,51.7999153,53.0015144,48.552021,39.9941597,31.7350082,28.3496761,31.7352104,39.8770218,47.9785461,51.2521248,47.6805878,39.1200562,30.1485958,25.4120159,27.0647678,33.7783813,41.8171883,47.4683075,49.3653259,49.3582802,51.4466896,59.3925056,74.3573227,93.8878555,112.843285,125.81897,129.818008,125.769257,118.067909,112.336502,112.547997,119.021675,128.374603,135.481277,136.394348,130.618729,121.453735,114.185997,113.145393,119.314987,129.886612,140.018387,145.736603,146.227905,144.134155,143.687683,147.862625,156.33316,165.523987,170.725266,168.949188,160.751007,149.908295,141.207458,137.753342,139.451645,143.49678,146.388657,146.074493,142.849319,138.581558,134.989136,132.281708,129.130875,123.917252,116.263901,107.664558,100.680664,97.2316742,97.1857529,98.2848206,97.5241776,93.0893555,85.542244,77.437027,71.6023712,69.2305679,69.0519257,68.154747,63.9237785,55.8406105,45.9884109,37.944973,34.7622795,37.2642555,43.6376381,50.460144,54.4655533,54.0065193,49.487896,42.7310143,35.8211021,30.1502075,26.0866489,23.2465248,21.0298443,19.0595379,17.3465958,16.2059536,16.0348701,17.0479584,19.0393028,21.2701416,22.6114006,21.9996281,19.0622196,14.5519514,10.2037458,7.90383196,8.52978039,11.1662865,13.3198595,12.2010336,6.42157125,-2.94022322,-12.6840858,-19.178793,-20.4383125,-17.2839661,-12.8047915,-10.4082794,-11.7029362,-15.612237,-19.3318768,-20.5026455,-19.1127243,-17.777235,-20.119173,-28.2887516,-41.3079681,-55.4369316,-66.4217911,-72.1880035,-74.1774063,-76.3736877,-82.5816422,-93.711525,-106.866829,-116.887909,-119.41098,-113.512047,-102.272209,-90.9453201,-83.9407501,-82.5476608,-84.771637,-87.2237778,-87.6630478,-86.4291992,-85.8345032,-88.0242844,-92.8868408,-97.5705719,-98.0689545,-91.8989487,-80.0916138,-67.0848694,-58.4352417,-57.6917686,-64.3715134,-74.3373108,-82.3882065,-85.4664154,-84.4567719,-83.3996735,-86.5534058,-95.1338959,-105.849579,-112.320435,-108.711922,-93.4862671,-70.9650192,-49.588726,-37.6852455,-39.084259,-51.1056938,-66.1403351,-75.9666519,-76.3276672,-69.1115417,-60.8809319,-58.6677284,-65.5874405,-78.9268723,-91.8382492,-97.5531845,-93.4811401,-82.6513977,-71.6463165,-66.396019,-68.5485458,-74.7286682,-79.1057281,-77.5277557,-70.4587936,-62.755146,-60.4202919,-66.5029831,-78.9001694,-91.5811005,-98.4713745,-97.4379959,-91.706749,-87.718338,-90.7878494,-101.408737,-114.644165,-123.032639,-121.13443,-108.7845,-90.9902267,-74.6218033,-64.1125107,-58.954216,-54.5045738,-45.4070549,-29.2622795,-8.155797,12.8025494,28.7511883,37.868187,41.8814888,44.1740074,47.0066185,49.8687439,50.0244637,44.693718,33.1798553,17.4006062,0.528418899,-15.1570311,-29.5786095,-44.406868,-61.2744141,-80.0852203,-98.7372513,-114.47097,-125.80043,-133.528275,-140.037613,-147.371719,-155.562073,-162.519135,-165.64534,-164.015457,-159.481995,-155.789902,-156.22084,-161.387985,-168.750916,-174.230087,-174.81871,-170.386429,-163.45845,-157.211105,-153.195129,-150.458298,-146.675507,-140.387772,-132.610016,-126.516357,-125.333054,-129.930252,-137.899536,-144.901062,-147.461761,-145.348892,-141.889694,-141.991974,-149.1698,-163.517517,-181.877228,-199.931122,-214.68866,-225.687363,-234.233582,-241.420807,-246.478836,-246.702103,-239.054184,-222.391373,-198.860031,-173.59198,-152.873215,-141.773239,-142.345718,-153.03421,-169.291794,-185.052078,-194.628922,-194.639725,-185.435989,-171.375168,-159.415283,-156.187332,-164.677475,-182.275711,-201.576523,-213.889145,-213.687546,-201.370972,-182.493164,-163.763885,-148.320053,-133.471344,-112.68084,-80.732048,-38.6952438,4.87738085,37.8055801,51.0809708,44.3018532,26.0120831,8.38416958,-0.548997343,-2.07500672,-5.80592537,-22.8444195,-57.3504524,-102.021576,-140.709488,-156.923508,-143.168488,-105.395302,-59.7754402,-23.7038803,-6.43115187,-4.85608292,-6.76417685,0.735894024,22.823637,53.5892715,79.4102249,86.7783432,69.8594971,33.5725212,-9.16122246,-44.0118179,-61.8390388,-61.935688,-50.7731476,-37.577034,-29.4159985,-28.2292213,-30.8194237,-31.2629681,-24.2360516,-7.68705416,16.142807,41.5601158,61.6527481,71.0171738,67.9369736,55.1454277,38.8109207,26.1057739,22.3719559,29.1326885,43.8305779,61.3425903,76.4603653,86.1041641,90.2734375,91.4547272,92.9712448,97.1673584,104.239273,112.117317,117.355621,116.676636,108.653786,94.9261246,80.3363647,71.6035461,74.6942673,91.8171005,119.514587,149.177185,170.27536,175.102066,162.698425,139.716629,117.429405,106.223228,110.460052,126.53817,145.233124,156.939667,156.762466,146.569595,133.040192,123.191643,120.307693,122.718384,125.877213,126.006836,122.686127,118.674263,117.311356,119.552528,122.897743,123.062904,117.221916,106.469589,95.6469803,90.4948883,93.9858551,104.312271,115.934692,123.048004,123.202034,118.714127,114.990433,116.914963,125.698242,138.198593,149.041016,154.023743,152.545395,147.556396,143.254974,142.218018,143.914017,145.48381,144.080933,139.043152,132.381271,127.314766,125.958046,127.821884,130.18692,130.085297,126.513054,121.340218,118.268883,120.497696,128.604919,140.014038,150.379379,156.01355,155.857056,151.829239,147.441238,145.609207,147.023193,149.991974,151.722733,150.13945,145.10556,138.38768,132.521164,129.37677,129.30632,131.278534,133.755447,135.645294,136.733658,137.439758,138.227875,139.187485,140.082474,140.746017,141.399597,142.53093,144.342926,146.195847,146.582596,143.865768,137.449097,128.636566,120.484848,116.509163,118.84465,126.908035,137.421158,145.905365,148.875885,145.509735,137.840347,129.397629,123.136681,119.903389,118.319206,116.063522,111.667572,105.65065,100.290794,98.2125092,100.714531,106.890862,114.06559,119.236832,120.639862,118.53624,114.863853,112.065826,111.823769,114.3526,118.492615,122.380714,124.268188,123.132179,118.94854,112.656197,105.869011,100.360153,97.3867798,97.0697403,98.1681519,98.5145187,96.0457458,89.945015,81.2038345,72.1443253,65.0457687,60.636261,57.4070206,52.2832031,42.3571358,26.6784763,6.99302292,-13.0614481,-29.8314877,-41.4453087,-48.444252,-52.9383698,-56.9468918,-61.0902596,-64.4961624,-65.8853607,-64.9477463,-62.9167747,-61.8528862,-63.1292915,-66.2644806,-69.068924,-69.156189,-65.8382187,-61.0295715,-58.3546257,-60.8544807,-68.7199097,-78.606575,-85.1667557,-84.0207443,-74.4071198,-59.8616219,-46.4444542,-39.5350304,-41.087204,-48.9316711,-58.4295502,-65.3497543,-68.1667709,-68.4528046,-69.3148041,-73.053215,-79.6141357,-86.7665329,-91.7373962,-93.0966492,-91.6020584,-89.4966965,-88.828598,-89.9988632,-91.5360336,-91.2190018,-87.7458801,-81.7925949,-75.7388687,-72.2422714,-72.6003113,-75.9640732,-79.9009171,-81.9395599,-81.1302414,-78.6732559,-77.2589951,-79.5260162,-86.5202866,-96.9857025,-107.824387,-115.453873,-117.384483,-113.299423,-105.192162,-96.5304642,-90.8018723,-90.0376892,-93.9488907,-100.104836,-105.163521,-106.644852,-104.365967,-100.690186,-99.2792358,-102.883926,-111.39518,-121.423508,-127.915611,-127.095444,-119.056046,-108.303047,-101.619247,-104.236671,-116.483498,-133.002426,-145.230804,-145.872879,-132.792099,-109.986702,-85.0247955,-64.4886856,-50.2387962,-38.8175201,-24.332655,-2.93070483,24.0718727,50.485508,68.8437424,75.0084839,70.7984924,62.8980179,58.6944656,61.6832962,69.3689194,74.9867172,71.9165573,57.9461365,36.6783752,15.2512674,-0.0854026973,-7.66148329,-11.0234489,-16.2272148,-27.6522255,-45.0795784,-63.8495941,-77.851738,-83.2892151,-80.7732773,-74.5273438,-69.4366226,-68.0373383,-69.426651,-70.6398163,-69.3169403,-65.6565018,-62.2584076,-62.0283165,-65.7272797,-71.0166016,-73.7912064,-70.9580002,-62.7467842,-52.8925629,-46.4446907,-46.5794067,-52.5114212,-59.914341,-63.6172409,-60.8401527,-52.8719139,-44.1204796,-39.1947289,-39.9591026,-44.4915276,-48.5898056,-48.7749214,-44.7589073,-39.7209206,-38.2030907,-43.0146179,-53.178524,-64.2605667,-70.8647995,-69.6996384,-61.3063316,-49.4652634,-38.8059387,-32.2344513,-29.7695408,-29.3245277,-28.6496296,-26.9628906,-25.1736069,-24.715744,-26.0346203,-27.9775105,-28.6014824,-26.7907677,-23.4054775,-20.9741611,-22.0028725,-27.0427418,-33.942028,-38.956749,-39.0973778,-34.1555939,-26.9752979,-21.6775703,-20.9628658,-24.3140011,-28.3856602,-29.4073257,-26.0189819,-20.5785542,-17.9331551,-22.3329792,-34.4650421,-50.5974197,-64.502594,-71.0190582,-69.0118332,-61.8483047,-55.1014214,-52.9830933,-55.8157768,-60.1385803,-61.2936935,-56.7153397,-47.722332,-38.6606216,-34.0363121,-35.6106415,-41.4097977,-47.2669258,-49.782753,-48.6445885,-46.7155571,-47.860939,-54.0441704,-63.7277565,-72.7120895,-76.8586578,-74.8319321,-68.9608688,-63.5979118,-62.0760612,-64.3556061,-67.0233078,-65.7285385,-58.4669113,-47.4830246,-38.4087372,-37.0440865,-45.7527351,-61.7530022,-78.4278717,-88.8966522,-89.6937332,-82.3675842,-72.140007,-64.5824127,-62.418766,-64.3604889,-66.5091629,-65.2444687,-59.6731224,-52.1294632,-46.549511,-45.8912544,-50.2954979,-57.1030464,-62.6072197,-64.3471375,-62.4942245,-59.5451202,-58.6255684,-61.5255699,-67.6542053,-74.4529266,-78.9021072,-79.1607208,-75.4087296,-69.5198669,-63.8909035,-60.1748009,-58.613945,-58.2447472,-57.7352715,-56.3081245,-54.2216568,-52.5755577,-52.5891266,-54.7771492,-58.4946785,-62.1274986,-63.8633156,-62.6545525,-58.845787,-54.08255,-50.4979897,-49.5984039,-51.485939,-54.9015312,-58.0926208,-59.9775772,-60.8404236,-62.0414467,-64.8595428,-69.2020035,-73.0966797,-73.4459305,-67.7039719,-55.4655533,-38.9033279,-21.6595325,-6.79264784,4.95098257,15.4048014,27.5572643,43.3119316,61.8894386,79.9606171,93.4918442,100.148712,100.703957,98.5183716,97.4181671,99.3531494,103.375648,106.614784,106.60009,103.387306,100.053909,101.185814,110.271439,127.612045,150.012131,172.386688,190.263123,201.698959,207.619568,210.620056,213.164841,216.314041,219.577805,221.692795,221.601089,218.981094,214.173187,207.820847,200.652359,193.538208,187.585129,183.923111,183.118484,184.565552,186.391159,186.138229,181.931473,173.396729,161.678802,148.491653,134.844696,120.384476,103.904297,84.7273102,63.955864,44.5510406,29.9532299,22.0058022,19.5630932,18.8622494,15.643734,7.81414843,-3.02904725,-12.2762365,-14.8966513,-8.41660404,5.5364809,22.0845165,35.8212051,43.7285004,46.5203934,47.6737976,50.8735237,57.5607185,66.1281967,73.1828003,75.9479218,74.1852798,70.3950424,68.2210617,70.1566162,76.0602417,83.4136887,89.095993,91.4793091,91.4857483,91.9558868,95.7769089,103.990318,115.070702,125.792778,133.101852,135.808014,135.084671,133.531815,133.45372,135.450562,138.181473,139.401871,137.589066,133.123306,128.278305,126.006912,128.237961,134.700562,142.98996,149.865921,153.050003,152.482361,150.293701,149.4841,152.060638,157.729553,163.949219,167.371063,165.864258,159.925522,152.578384,147.725449,147.85202,152.429474,158.031769,160.208832,156.10495,146.299332,134.722107,126.582787,125.424667,130.984421,139.127304,143.953842,140.911133,129.143372,111.751129,93.8535919,79.6379013,70.161644,63.19627,55.1464615,43.8086662,30.2153893,18.3655701,12.9371948,16.331625,26.8495312,39.1636124,46.9052773,45.9222183,36.3439636,22.2678051,9.25248528,1.07341802,-2.39186668,-4.95390749,-11.7443638,-26.1054173,-47.5530396,-71.969841,-93.8599091,-109.301987,-117.869926,-122.45192,-127.177994,-134.78331,-145.024048,-155.063934,-161.506561,-162.732315,-160.037186,-156.857864,-156.601532,-160.500092,-166.895966,-172.439377,-174.419678,-172.6763,-169.762009,-169.149307,-172.585724,-178.360413,-181.777756,-177.780609,-164.250778,-143.94191,-123.68721,-111.111649,-110.619781,-120.970703,-135.915024,-147.615356,-150.936371,-146.158691,-138.578796,-135.272186,-140.942459,-155.27478,-173.276443,-188.294876,-195.837921,-195.910156,-192.542313,-190.918671,-193.943939,-200.379578,-205.672897,-204.935562,-196.217056,-182.047562,-168.277435,-160.870071,-162.533081,-171.174927,-181.102478,-186.271484,-183.708786,-175.133545,-165.85527,-161.602493,-165.124924,-174.534714,-184.344986,-188.609314,-184.353058,-173.311157,-160.948975,-153.300903,-153.428848,-159.553085,-165.981766,-166.374008,-157.513214,-141.423981,-124.558372,-114.421761,-115.480652,-126.647316,-141.787582,-153.008698,-154.908554,-147.410553,-135.603836,-126.708313,-125.914734,-133.468613,-144.619583,-152.3871,-151.483398,-141.124008,-125.181824,-109.743568,-99.6314468,-95.9690247,-96.1246338,-95.8610687,-92.2025528,-85.1991119,-77.5798111,-72.6805267,-72.1010437,-74.6297684,-77.0646362,-76.2914429,-71.1961975,-63.1797409,-55.0401497,-49.0918045,-45.8508339,-44.1446648,-42.4530602,-40.4056816,-39.2665558,-40.9919319,-46.5182495,-54.5571175,-61.8854027,-65.0962067,-62.718956,-56.2719193,-49.4524345,-45.8956299,-46.9216232,-50.7560806,-53.7749329,-52.9907722,-48.1538887,-42.0631409,-38.8430977,-41.2874947,-49.0021324,-58.5773697,-65.6999435,-67.8452225,-65.8053589,-63.0634193,-63.4207001,-68.4131012,-76.1795654,-82.5017319,-83.3427048,-77.2781754,-66.3223038,-54.7034225,-46.4369507,-43.2402916,-44.0187874,-46.0742226,-47.0800781,-46.449379,-45.2295761,-44.7145424,-44.8465424,-43.6064682,-37.9002876,-25.4143295,-6.23027754,16.8953838,39.845314,59.2921638,74.3859329,86.947113,100.047096,115.840271,133.967377,151.503418,164.498291,170.213791,168.754822,163.153595,157.863815,156.528885,160.279709,167.484024,175.018616,180.267426,182.657104,183.843842,186.475357,192.300629,200.793076,209.161789,213.811996,212.44635,205.579575,196.530045,189.803024,188.716492,193.595886,201.588364,208.253647,210.076385,206.495712,200.289993,196.067856,197.685547,206.02565,218.376266,229.75383,235.428848,233.262299,224.60376,213.341354,203.72995,198.260147,196.720551,196.848373,196.030716,192.960876,188.276352,183.891983,181.553726,181.579224,182.579147,182.305573,179.068222,172.831024,165.327972,159.156464,156.417328,157.706528,162.001373,167.417145,172.30304,176.004684,178.900574,181.809448,185.240921,188.994888,192.321091,194.455002,195.121918,194.682465,193.888565,193.496017,194.034241,195.843369,199.222427,204.419235,211.341629,219.172516,226.277985,230.697021,231.109879,227.750488,222.597214,218.512146,217.65358,220.046997,223.254349,223.514008,217.830002,205.82692,190.216934,175.496262,165.559219,161.619507,161.687943,161.919678,158.983459,151.958237,142.564255,133.614655,126.745789,120.981499,113.164047,100.054749,80.7622223,57.8541794,36.2835083,20.6454659,12.404747,8.8528738,4.56226635,-5.41567993,-22.4682465,-43.3107834,-61.5685806,-71.1819687,-69.6794357,-59.4372635,-46.2308807,-35.9693909,-31.5456524,-31.6221695,-31.9930897,-28.6282902,-20.5255737,-10.6373253,-4.29972553,-6.08163071,-16.9136791,-33.2099113,-48.547081,-56.9873734,-56.175251,-48.4587822,-39.413269,-34.6318932,-36.6361237,-43.6729889,-51.050293,-54.1629677,-51.3651237,-44.9444504,-39.6116295,-39.4454079,-45.2054253,-53.7285156,-59.8482361,-59.6873665,-53.2572632,-44.6615906,-39.6635056,-42.0525818,-51.0808716,-61.6612587,-67.342598,-64.3178177,-53.995903,-42.4726448,-37.1100006,-42.2294731,-56.5130463,-73.6970749,-86.150856,-89.1886139,-83.5529404,-74.6705627,-69.2703323,-71.5138168,-80.963913,-93.4502335,-104.038353,-110.06987,-112.365585,-114.019203,-117.820465,-124.169762,-130.883026,-134.913483,-134.698044,-131.454056,-128.523834,-129.222107,-134.648407,-142.916473,-150.276489,-153.354111,-151.05043,-144.957748,-138.179611,-133.464462,-131.893234,-132.838501,-134.96936,-137.40036,-140.121048,-143.504745,-147.444199,-150.932022,-152.512634,-151.301437,-147.768143,-143.609436,-140.704956,-139.8629,-140.273834,-140.118347,-137.942764,-133.826981,-129.471436,-127.079063,-127.784866,-130.757553,-133.670425,-134.284317,-132.066391,-128.677567,-126.900101,-128.661087,-133.490234,-138.532089,-140.221649,-136.59082,-128.680725,-120.056137,-114.643723,-114.245232,-117.350655,-120.082756,-118.735268,-112.307297,-103.388779,-96.7678223,-96.574791,-103.724289,-115.254425,-125.987152,-131.487045,-130.494781,-125.358498,-120.253456,-118.363113,-119.819817,-121.691948,-119.991676,-112.401649,-99.9775467,-86.7405319,-77.4009628,-74.6159744,-77.4618378,-82.0411758,-83.8328171,-80.3435898,-72.4679718,-63.7748909,-58.2016716,-57.574791,-60.4431763,-62.8944016,-60.8402824,-52.4160233,-39.1108475,-25.0164356,-14.6623373,-10.674614,-12.5346708,-17.0519428,-20.209795,-19.3343906,-14.4309664,-8.03451157,-3.72156453,-4.09657335,-9.28431702,-16.6666565,-21.9808064,-21.257618,-12.7033062,2.33807278,19.7951832,34.4999809,42.3353348,41.9390602,35.1697388,26.0852604,18.8871098,15.8134966,16.0387821,16.1723385,12.1425142,1.50674582,-15.0403576,-33.8001404,-49.8131104,-59.2944031,-61.4444046,-58.6513557,-54.9993553,-53.9472618,-56.5003281,-60.8880959,-63.8702774,-62.8459511,-57.4991722,-50.0296898,-43.8852806,-41.8004646,-44.3232498,-49.669323,-54.9157524,-57.75177,-57.7189484,-56.2424316,-55.5209007,-57.0206642,-60.5070572,-64.164032,-65.6703873,-63.5488205,-57.9983139,-50.7827759,-44.3192444,-40.5327911,-40.0967941,-42.3795319,-45.9959412,-49.5762711,-52.3438263,-54.2901993,-55.9822235,-58.1805534,-61.4534378,-65.8964462,-71.0092545,-75.7684402,-78.9260559,-79.4966507,-77.2667694,-73.0559845,-68.4943848,-65.3034515,-64.3822708,-65.2093048,-65.9918137,-64.6130066,-59.9321556,-52.6941681,-45.4320297,-41.2820854,-42.290802,-48.1677933,-56.2643547,-62.8848839,-65.2450638,-62.9602776,-58.1721878,-54.2026787,-53.5101814,-56.1708031,-59.8199005,-61.1168861,-57.8575287,-50.4348412,-41.7214355,-35.4051208,-33.7741241,-36.3160515,-40.0195732,-41.2248688,-37.8966827,-30.9031372,-23.4739017,-19.1360531,-19.3932667,-22.6138153,-24.877758,-22.3260117,-13.5933399,-0.801400423,11.5714645,19.3322792,21.1555195,19.5103264,19.2946625,24.9164391,37.5309334,54.1025505,68.9082489,76.6531754,75.3935394,67.5526505,58.4355431,53.132122,53.6583405,58.0344048,61.8229942,61.1549416,55.363781,47.5895119,42.9581184,45.43853,55.3065529,68.790329,80.1435547,84.9037628,82.3611984,75.7478714,70.0620804,68.9024353,72.2910995,76.835968,78.1074982,73.7065125,65.0553894,56.7392616,53.7655945,58.4332314,68.7747421,79.5803375,85.4202118,83.8435211,76.8163376,69.5346909,67.3430862,72.6182022,83.4596024,94.8992004,101.817215,101.772514,96.0954895,88.7191315,83.6090012,82.4384537,83.8957443,84.9199371,82.9580688,77.7618027,71.6145325,67.913765,69.0558014,74.953125,83.0647202,89.8599014,92.7816544,91.5341339,87.993782,84.9007874,84.1903229,85.9667892,88.6683731,90.2262421,89.4490891,86.7796478,83.9894562,83.0279922,84.7371521,88.2118759,91.2091675,91.4063187,87.8176727,81.5645065,75.5180511,72.9347763,75.7631912,83.5210495,93.3847122,101.508934,104.922844,102.994614,97.6467438,92.1703873,89.2835541,89.5492859,91.1113663,90.9609299,87.0217514,79.7871552,72.4276962,69.1617813,72.7516479,82.6053391,94.7112885,103.600609,105.308212,99.632103,90.3161926,82.9601364,81.8101273,87.291626,95.7564163,101.633141,100.745926,92.8528748,81.8957138,73.7900467,73.0327148,80.0978546,91.1295242,100.097229,102.159073,96.3041077,85.7970505,76.2346115,72.3814011,75.6040802,83.3199234,90.6869507,93.490242,90.5435028,84.2578506,79.1094513,78.9333115,84.6125336,93.4794312,100.759171,102.230904,96.5991211,86.2353516,75.8702316,69.974823,70.3171921,75.087471,80.0920258,81.3206406,77.378273,70.3301468,64.4298019,63.4643364,68.3117599,76.2250824,82.3479996,82.6080322,76.2490311,66.4221115,58.3984261,56.4250031,61.1202545,69.0299225,74.6716385,73.8626556,66.3036804,55.8135109,48.0383873,47.0220032,52.7426605,61.1416702,66.6327667,65.546051,58.3797379,49.4708138,44.2924728,46.0480309,53.6554451,62.3510704,66.5343246,63.1210632,53.3927689,42.2661629,35.4649315,36.2967567,43.9077759,53.9465714,61.1297379,62.1362381,57.1733208,49.4419479,43.0017242,40.4207687,41.6009369,44.3508835,46.1787262,46.0660667,45.0698395,45.3904381,48.5421181,53.8564949,58.3843803,58.4280167,51.9167137,40.2333794,28.2816734,22.4941025,27.6420364,44.0770226,66.9475784,87.9867401,99.1222382,96.144249,80.5568237,58.6475563,38.2751999,25.1006584,20.2721729,20.7349911,21.8281002,20.5217838,17.3157787,15.6704426,19.383831,29.6219597,43.5531921,55.5563965,60.3541374,56.1702766,45.9256287,35.6503906,31.0040398,33.986866,41.8423347,48.8197784,49.7113037,42.9897499,31.6375046,21.2016144,16.3302917,17.9628773,22.8986187,25.9588356,23.3453369,15.0890818,5.0944829,-1.20224321,-0.0906530991,8.21251583,19.679306,28.7357845,31.264658,26.6076698,17.5440292,8.4616251,2.92279768,2.01031613,4.21438122,6.66303682,6.80895329,3.61477399,-2.25030613,-9.06012344,-14.9909678,-18.8588791,-20.3855324,-20.0502224,-18.731081,-17.312788,-16.3567963,-15.8992758,-15.4612026,-14.3361292,-12.0982952,-9.09325981,-6.58168745,-6.33076334,-9.76720905,-17.1321106,-27.1684914,-37.6151199,-46.2968445,-52.1975632,-55.8611679,-58.8515587,-62.5899277,-67.2998581,-71.7468414,-73.9688721,-72.5630493,-67.7254944,-61.3775826,-56.2697067,-54.5802193,-56.8320313,-61.7489548,-67.105629,-71.0458527,-73.0998688,-74.3455124,-76.6735687,-81.6154633,-89.3935776,-98.6822281,-107.1586,-112.522362,-113.471954,-110.201782,-104.246086,-97.7929764,-92.7981186,-90.2797775,-90.0777588,-91.1554031,-92.288353,-92.8041458,-92.9975357,-93.9875031,-97.0622253,-102.845963,-110.755066,-119.087708,-125.754501,-129.284073,-129.551254,-127.804543,-125.955551,-125.516182,-126.777313,-128.687134,-129.48938,-127.756889,-123.250862,-117.155396,-111.590691,-108.682137,-109.653885,-114.353996,-121.376434,-128.673828,-134.376053,-137.487183,-138.201706,-137.718048,-137.605362,-138.966644,-141.777695,-144.77356,-146.039215,-144.090546,-138.887756,-132.145645,-126.619034,-124.636017,-126.685715,-130.967606,-134.325897,-134.149948,-130.131195,-124.71785,-121.81916,-124.406654,-132.45163,-142.56871,-149.759674,-150.329544,-144.215973,-135.217911,-128.849625,-129.040649,-135.697189,-144.685593,-150.326996,-148.910431,-141.049103,-131.386078,-125.797958,-127.818275,-136.502686,-147.057739,-153.819427,-153.700836,-147.958755,-141.219482,-138.443527,-141.783813,-149.30452,-156.297852,-158.281998,-153.745575,-144.947739,-136.382797,-132.002335,-133.000031,-137.489304,-142.108063,-144.34935,-144.040558,-143.072433,-143.709686,-146.75087,-150.839432,-153.37619,-152.358841,-147.844269,-142.008301,-137.750854,-136.788406,-138.518707,-140.415573,-139.683441,-135.067978,-127.632378,-120.012856,-114.679916,-112.378304,-111.777054,-110.540489,-107.083054,-101.820679,-97.066185,-95.6068726,-98.8622589,-105.79702,-113.2892,-117.744888,-116.988113,-111.312241,-103.12188,-95.4596786,-90.3535995,-87.9557266,-86.8884811,-85.4471054,-82.8156586,-79.5239868,-76.9225845,-76.1044998,-77.0390396,-78.5042419,-78.853714,-77.0971298,-73.571022,-69.748291,-67.2967834,-66.9862366,-68.1463013,-69.0331192,-67.8870621,-64.0225754,-58.2621727,-52.4320679,-48.2269821,-46.1570129,-45.2513695,-43.7258339,-40.2082329,-34.7421951,-28.900631,-24.8842106,-24.1283836,-26.2860889,-29.2583542,-30.3110676,-27.6268673,-21.3363895,-13.3669796,-6.18002367,-1.18794322,2.11898541,5.72897434,11.5870247,19.9726028,28.8935719,35.0226555,35.718689,30.9130688,23.6118469,18.5376949,19.5713387,27.453598,39.1525459,49.376545,53.4530754,49.9537697,41.5498543,33.5865402,31.1804104,36.4889526,47.6784859,60.1113167,68.9941788,71.9346924,69.985527,66.6985931,65.8721771,69.3669205,76.2202759,83.4498672,87.9417801,88.2565765,85.3385162,81.8275909,80.4868698,82.6996841,87.8562012,93.8781204,98.4908829,100.496689,100.380211,99.9885712,101.515602,106.336487,114.264183,123.563087,131.696442,136.459549,136.986023,134.165466,130.261658,127.879539,128.747971,132.909042,138.741714,143.844757,146.346161,145.944717,144.095016,143.198944,145.22998,150.566345,157.720627,164.150543,167.700043,167.83226,165.919693,164.408783,165.348343,169.157532,174.367218,178.482178,179.437729,176.775406,171.850952,166.988571,164.133118,163.831177,165.132217,166.405487,166.502045,165.507431,164.628464,165.332916,168.332993,173.07695,178.054581,181.680588,183.156525,182.757614,181.405121,179.877106,178.247299,175.96167,172.490494,168.056427,163.846664,161.450577,161.815811,164.411896,167.244598,167.866379,164.872971,158.985031,152.966507,150.276703,153.123688,161.011093,170.665924,177.48819,177.795929,170.659042,158.316086,144.948196,134.499756,128.759766,126.749313,125.700874,123.003754,117.953819,112.284775,109.18325,111.375374,119.407951,131.130081,142.686386,150.463669,152.886398,151.04451,147.807144,145.948059,146.384491,147.578186,146.483688,140.523071,129.43309,115.849472,104.18045,98.3123169,99.4199753,105.181519,110.95665,112.368752,107.864449,99.743927,92.9603729,92.2607727,99.2542343,111.127586,121.849312,125.280693,118.471832,103.257233,85.2162704,70.5938797,62.9762421,61.651989,62.5614204,61.1650467,55.4123726,46.9782028,40.0601807,38.5824356,43.6372795,52.7950974,61.664875,66.6185837,66.8651352,64.5454559,62.8810921,63.7239456,66.2333069,67.5952225,65.2533035,59.0379791,51.6188164,46.8582687,47.1333809,51.4843102,55.967598,56.1252594,50.0077209,39.7214508,30.3703384,26.9595032,31.2106266,40.3615189,48.7768669,51.3813095,46.7322655,37.7717476,29.7962646,26.9820499,29.7221584,34.4773369,36.1900749,31.6516018,21.6264782,10.3890228,3.0282588,2.30619168,7.08790112,13.2832212,16.588892,15.1869621,10.6577959,6.59510136,5.92897511,8.77550983,12.236207,12.2629795,6.35670185,-4.65586901,-16.9144955,-25.7178764,-28.2691784,-25.3119564,-20.6976204,-19.1766548,-23.7305622,-33.969593,-46.4434776,-56.5972672,-61.2139359,-59.9987564,-55.5201187,-51.6597824,-51.5044785,-55.8333549,-62.9530563,-69.8660126,-74.0515442,-74.8540192,-73.7319412,-73.2706604,-75.5497513,-80.8160553,-87.2465286,-91.9694061,-92.7776489,-89.5318527,-84.3845444,-80.6232452,-80.7605286,-85.0011368,-91.0538406,-95.4805908,-95.8283005,-92.2529526,-87.5874329,-85.7218399,-89.2168808,-97.6001663,-107.438568,-114.223373,-114.983513,-110.059883,-102.94944,-98.2863235,-99.1577682,-105.355644,-113.59108,-119.507507,-120.256454,-116.099762,-110.132469,-106.368271,-107.381409,-112.895332,-120.07711,-125.264145,-126.052139,-122.553047,-117.196732,-113.307487,-113.324928,-117.632042,-124.526672,-131.227692,-135.311127,-135.84288,-133.708267,-131.058456,-130.190582,-132.398926,-137.32486,-143.112106,-147.318237,-148.169403,-145.533951,-141.068375,-137.377304,-136.571747,-139.014297,-143.027298,-145.844666,-145.343979,-141.545563,-136.894226,-135.006378,-138.514679,-147.285736,-158.172073,-166.587219,-169.060944,-165.254501,-158.164001,-152.317337,-151.028015,-154.406708,-159.40506,-161.903625,-159.539368,-153.447525,-147.734619,-146.928238,-152.968323,-163.658325,-173.627808,-177.295776,-172.050064,-159.691238,-145.250809,-133.922775,-128.012802,-125.772995,-122.777031,-114.881508,-100.844254,-82.9460526,-65.2976379,-51.0300941,-40.2754517,-30.2866249,-17.5952282,-0.723400772,18.4299755,35.5436707,46.6196175,50.735218,50.9430771,52.6195488,60.2230949,74.5006485,91.95327,106.958206,115.238106,116.473007,114.36367,114.071915,118.660004,126.834335,133.51033,132.935303,122.457504,104.56617,85.8593369,73.4911728,71.22155,77.4520493,86.4171982,91.7653885,90.3163452,83.7139206,77.0323257,75.292366,80.1166611,88.6207123,95.2037125,95.0793152,87.309967,75.4354553,65.2976303,61.4092598,64.1187592,69.3351288,71.0106201,64.8946762,51.2941132,35.1617737,23.4268723,21.1155357,28.5210838,41.0602379,51.8770676,55.6641769,51.4894409,43.0289993,36.1385536,35.2425003,40.6853523,48.5962639,53.3231049,50.9753036,41.9593048,30.9790535,24.4614296,26.8850498,38.1491585,53.5271645,66.2467499,71.2041702,67.6587372,59.3607445,52.0877419,50.0982285,53.6413002,59.0048447,61.0344925,56.5474968,46.5185547,35.6674881,29.6785297,31.7488747,40.5957336,51.1712646,57.6771393,57.0508766,50.7905579,43.9848175,42.1116142,47.5235748,57.7274704,66.4838638,67.0719528,55.8067627,33.8064651,6.10286999,-21.2300053,-44.1531944,-62.1812439,-77.6322479,-93.3009338,-110.129173,-126.317017,-138.324738,-143.028671,-139.644226,-130.268066,-118.798485,-108.96299,-102.630882,-99.3031998,-96.9075699,-93.288826,-87.5019073,-80.2713623,-73.5366516,-69.4790344,-69.5757751,-74.059227,-81.8710327,-91.0041351,-99.0832214,-104.063271,-104.905594,-102.00425,-97.0930328,-92.5065384,-90.0082397,-89.7539291,-90.0511246,-88.2367249,-82.3428955,-72.6336899,-61.9979897,-54.7416496,-54.2765312,-60.9846382,-71.6020432,-80.6824493,-83.4698257,-78.5757141,-68.8429489,-59.770153,-56.3209343,-59.96838,-67.7618408,-74.0345306,-73.7774734,-65.6639862,-52.8849564,-41.2698708,-35.8293648,-37.8318825,-44.2030411,-49.5980492,-49.83601,-44.536953,-37.3051453,-33.3449097,-36.013607,-44.4945068,-54.0817337,-58.9395485,-55.6471329,-45.3364677,-33.0886002,-24.938448,-24.3060913,-30.0190716,-37.1114349,-39.8921013,-35.4097404,-25.2284698,-14.4784336,-8.79844761,-11.0347614,-19.6598434,-29.7982845,-36.1705208,-36.1474953,-31.1037674,-25.3316288,-23.2574768,-26.6893806,-33.7478523,-40.0712509,-41.505909,-36.6243248,-27.5641212,-18.7283707,-14.1823921,-15.3411484,-20.3217888,-25.2918148,-26.9227905,-24.4066677,-19.7970448,-16.502903,-16.9260769,-20.7729549,-25.1481342,-26.4092655,-22.6286068,-15.0824604,-7.75728798,-5.08733034,-9.26488686,