Bandpass,0,0.20029,-190.89241,1023.8611,1544.3125,1280.2529,506.69382,-250.40709,-543.04413,-286.39755,214.354,510.87823,345.2677,-173.30182,-668.62152,-787.83655,-461.40952,55.780701,382.48386,293.15131,-125.5071,-552.17712,-675.84039,-421.94522,4.1925273,280.17535,207.46219,-148.88422,-519.15863,-634.84979,-424.6095,-57.729218,189.91685,141.83182,-154.70418,-472.99316,-580.25714,-407.80399,-93.989609,125.79765,95.154182,-152.6358,-427.12299,-526.45746,-385.12772,-115.84759,80.309654,64.228859,-142.70248,-381.34271,-476.86588,-366.77277,-141.30331,29.257565,22.307364,-149.88852,-355.27206,-443.71545,-357.30676,-168.38881,-20.869511,-21.972845,-165.62743,-341.96255,-422.11926,-353.1192,-193.11819,-63.983608,-59.489841,-178.09961,-328.28455,-399.27573,-342.71686,-205.17345,-89.983543,-79.439262,-175.8325,-303.50488,-367.64063,-324.33328,-210.28047,-112.25388,-101.35061,-181.63066,-290.02908,-345.34845,-308.38925,-208.81621,-120.59843,-106.20205,-171.62427,-264.58066,-315.233,-287.83771,-205.15137,-129.03564,-113.42787,-165.29449,-241.7458,-283.79279,-260.40491,-190.14799,-125.51142,-112.98584,-159.14912,-227.35127,-266.17624,-247.57167,-186.38683,-127.8129,-113.21451,-150.16702,-208.35475,-243.20921,-228.87338,-176.09016,-122.67367,-104.74783,-130.58321,-175.98111,-203.57422,-190.84267,-145.95566,-100.37995,-84.688484,-106.0378,-143.79149,-165.79041,-152.52872,-111.18597,-69.574936,-55.131908,-74.824654,-110.61076,-133.22142,-123.6252,-86.361931,-45.441837,-26.477905,-38.486111,-68.422638,-91.745987,-90.600449,-66.152687,-36.518856,-22.560284,-32.469402,-56.369583,-74.318581,-71.223793,-47.515068,-18.086071,-0.91352832,-4.1578116,-21.14588,-36.368347,-37.423695,-23.803303,-6.2641053,2.1723654,-3.5876141,-17.031975,-25.368694,-19.505024,-1.0039471,19.144299,28.826544,23.830545,10.858091,2.4157009,7.5172572,25.113958,44.989609,55.284153,51.016029,37.430573,25.949312,25.904991,38.142773,54.960186,66.100388,66.185112,58.18137,50.645794,51.109852,60.636654,73.45356,81.650116,81.216721,74.8918,69.842499,72.104195,82.027557,94.087791,101.07931,99.48687,92.055618,85.750626,86.713402,95.950554,108.83024,118.59831,121.22208,118.02932,114.35678,115.38223,122.29374,131.56172,137.70779,137.41478,131.94362,126.17605,125.10735,130.40775,139.49765,147.65813,151.4991,151.22948,150.18001,152.09473,158.28462,166.71591,173.58841,176.12874,174.51636,171.60782,170.79063,173.62552,178.97916,184.15593,187.05107,187.67102,187.94673,190.09886,194.87354,200.98473,206.11934,208.66829,208.84351,208.37076,209.06609,211.44014,214.40726,216.28854,216.29005,215.28239,215.26242,217.90103,223.28667,229.82425,235.36588,238.70877,240.31572,241.70888,244.01376,246.80717,248.23085,246.39183,241.06897,234.42783,230.07697,230.95142,237.37579,246.61659,254.29132,256.79492,253.24832,245.80046,238.18683,233.53275,232.78185,234.61537,236.7076,237.34494,236.33658,234.75723,233.90022,234.29161,235.44116,236.38228,236.474,235.81859,235.02644,234.6068,234.54099,234.4046,233.91547,233.40002,233.70624,235.53423,238.66588,241.74403,242.91493,241.0192,236.54974,231.65469,229.05101,230.45221,235.49139,241.85733,246.60461,247.84337,245.76183,242.36232,240.11707,240.42937,242.87383,245.64101,246.8091,245.54869,242.47345,238.98219,236.14362,233.96416,231.56046,228.07253,223.59732,219.39432,217.14354,217.74406,220.52383,223.49757,224.6032,223.14693,220.48346,219.41115,222.58626,230.91052,242.88698,255.33871,265.03845,270.25525,271.32925,270.04462,268.32849,267.16544,266.37241,265.23398,263.41736,261.45715,260.47791,261.40497,264.27765,268.17642,271.80493,274.29092,275.62762,276.46686,277.46097,278.67841,279.54218,279.33316,277.86386,275.78815,274.27274,274.22293,275.59579,277.29678,277.77298,275.94901,271.92282,266.99435,263.02014,261.48935,262.84525,266.38315,270.69589,274.35397,276.45251,276.81137,275.83957,274.21878,272.57898,271.27344,270.29398,269.33099,267.95648,265.86261,263.04004,259.7843,256.51059,253.49565,250.73987,248.06519,245.36363,242.73819,240.306,237.69943,233.63779,226.0717,213.14467,194.66319,173.271,154.46841,145.13441,151.03455,174.4196,212.82686,259.56546,305.51111,341.29587,359.05316,353.39523,321.79257,264.60324,184.70795,86.456543,-26.130014,-151.25009,-290.01721,-444.84271,-615.61401,-795.47937,-969.03668,-1115.0093,-1213.1262,-1252.1896,-1235.0239,-1177.2693,-1100.3156,-1022.1253,-951.00897,-885.62292,-820.58105,-753.60699,-689.38165,-637.69312,-607.47852,-601.11499,-612.95789,-632.93823,-652.35333,-667.4953,-678.56189,-685.03687,-681.59882,-658.38574,-606.17938,-523.15576,-418.25665,-308.30728,-210.35791,-134.18947,-79.876442,-41.666191,-14.846138,-0.15926078,-2.3489838,-24.110769,-60.538326,-99.065529,-125.8112,-134.14055,-129.10634,-124.08534,-131.60799,-154.86586,-186.14244,-213.38936,-230.00722,-240.2957,-256.18484,-287.54736,-333.54031,-381.89142,-416.96014,-430.32135,-425.21066,-410.75488,-390.33713,-354.14108,-283.83945,-168.25241,-19.114773,126.35786,221.57832,237.38643,182.08372,99.549126,44.094845,47.140987,98.010513,153.00111,167.90428,132.12065,79.872246,68.679436,137.95908,275.67377,417.29123,480.46701,414.60153,233.46497,9.4071083,-167.34967,-238.11624,-202.63469,-108.2347,-11.598183,59.107258,116.44129,194.66707,316.14706,468.6503,608.97589,687.85254,676.13837,573.9129,399.86868,174.99533,-82.096176,-343.77493,-559.89398,-663.55707,-605.11511,-398.40817,-145.02611,-7.9535499,-136.24512,-578.74164,-1240.9121,-1919.3569,-2402.0649,-2578.2424,-2490.3584,-2293.7231,-2146.9397,-2102.6055,-2070.147,-1877.734,-1395.6958,-641.89178,201.46901,874.6098,1179.2917,1084.9218,736.93268,364.47675,147.13832,123.57404,194.76543,212.15424,87.779007,-146.3438,-364.65567,-437.0907,-317.8869,-75.363594,153.66364,250.55452,183.60692,15.889888,-147.45154,-231.95656,-236.13716,-217.4866,-236.92448,-304.21356,-363.80872,-330.55875,-149.66267,160.6221,512.07965,792.55676,924.24561,897.72382,763.66321,592.71069,433.0766,293.04584,155.53947,9.1606293,-129.53598,-219.12091,-218.81807,-117.61641,53.668491,235.53802,369.18716,423.32758,403.03699,338.20947,262.11212,194.85857,140.5524,95.975113,61.14922,42.710854,48.23064,77.324577,117.78654,150.70872,161.34235,147.91318,122.03181,100.43157,93.887733,100.90877,110.11955,109.06956,92.981606,67.510223,44.163643,32.164509,32.601749,38.598423,40.756493,33.641602,18.855045,3.0912125,-6.8201408,-8.1261663,-2.9314666,4.3449721,10.422517,14.874611,19.200584,24.516243,30.047609,33.707664,34.182995,32.674259,32.705441,37.958313,49.663841,65.471519,80.652931,90.809067,94.206055,92.203949,87.662735,82.638885,77.090111,69.452484,58.51897,45.099705,32.143753,23.161924,20.048038,21.850126,25.395037,27.389408,26.604115,24.678078,24.98385,30.267139,40.580044,52.864769,62.526325,66.093567,63.363159,57.669823,53.992519,55.882401,62.958992,70.510475,71.629204,60.890076,37.624912,6.9312844,-22.295376,-41.389137,-45.888134,-37.305412,-21.755823,-6.2978711,4.8185592,11.781669,17.846611,25.994099,35.924953,43.496311,43.111996,31.594553,10.990728,-11.660936,-27.667465,-31.178835,-22.103769,-5.6706939,11.018556,23.201061,30.764156,37.298252,46.700352,59.719238,72.801102,80.003571,76.693611,62.597092,42.256195,22.685606,9.8016586,5.852109,9.2386951,16.457186,24.559479,32.4319,40.259289,47.955688,54.059895,56.136761,52.483047,43.852448,33.791031,27.102707,27.278452,34.487045,45.408115,55.014912,59.199207,56.675861,49.169552,40.023918,32.2943,27.510296,25.641594,25.914038,27.64497,30.474482,34.009968,37.427677,39.578403,39.655701,37.927479,35.873917,35.465351,37.964054,43.045364,48.874409,53.141235,54.397137,52.826218,49.976799,47.687473,46.965218,47.551121,48.379921,48.504757,47.772095,46.782467,46.244392,46.287498,46.307442,45.482319,43.562996,41.306282,40.163963,41.382698,45.111862,50.139458,54.465038,56.366268,55.303959,52.138569,48.587357,46.309952,46.174294,48.056431,51.151112,54.491837,57.360374,59.454082,60.881237,62.107685,63.879993,67.041389,72.181091,79.224579,87.233849,94.664459,100.06918,102.90063,103.90398,104.77281,107.19244,111.8235,117.87331,123.55982,127.19779,128.21281,127.42034,126.39051,126.33759,127.30044,128.18358,127.63403,125.14228,121.58567,118.80305,118.45334,120.91295,124.96166,128.49255,129.80408,128.64726,126.36126,125.02348,126.16599,129.8604,134.70401,138.6526,140.13826,138.80013,135.476,131.59637,128.45076,126.76283,126.69759,128.09378,130.61621,133.70018,136.43796,137.68423,136.509,132.80725,127.64163,122.96322,120.72603,121.84606,125.64066,130.15254,133.22977,133.73679,132.15123,130.164,129.52966,130.90697,133.44949,135.42522,135.45793,133.54445,131.10962,129.97026,130.81322,132.17455,130.67459,122.53284,105.59711,80.760338,51.939503,24.583065,3.4884033,-8.9338036,-13.113524,-11.419562,-6.579814,-0.39943671,6.551415,14.292886,22.461189,29.798323,34.5294,35.407764,32.714615,28.480913,25.666073,26.686447,32.118622,40.336514,48.313095,53.149647,53.488815,50.05851,45.112606,41.15897,39.725449,40.816624,43.25108,45.545658,46.749062,46.75716,46.043926,45.130325,44.23399,43.337181,42.546036,42.364845,43.5606,46.616379,51.134308,55.678062,58.314663,57.651707,53.772392,48.434357,44.288254,43.47303,46.380466,51.349892,55.537632,56.5,53.571236,48.210648,43.101322,40.54089,41.10104,43.366211,44.892273,43.77132,39.826096,34.711143,30.89835,30.214836,32.84203,37.337635,41.558899,43.812057,43.490269,40.905235,36.627838,30.985346,24.175234,16.893888,10.866413,8.6138296,12.28936,22.14533,35.634193,47.941219,53.94936,50.724483,39.170589,23.86018,11.020538,5.6809835,9.4473906,20.000719,32.454132,41.731483,44.700665,41.096516,33.038548,23.683445,15.842108,11.16434,10.010185,11.749507,15.165901,18.819904,21.411379,22.183664,21.249508,19.588732,18.560379,19.087227,20.984983,22.939606,23.279663,21.139608,17.252275,13.748934,12.957723,15.895247,21.444973,26.850332,29.310816,27.702467,23.291754,18.923912,17.170574,18.643953,21.614523,23.216156,21.445732,16.598991,11.14259,8.0844574,8.9517193,12.781027,16.836672,18.549988,17.270567,14.500174,12.340796,11.224809,8.6604214,0.18264718,-17.772455,-44.799973,-75.404259,-100.95024,-113.93422,-112.23922,-100.81483,-89.580574,-88.529839,-102.68837,-129.71901,-161.45381,-188.38409,-204.49712,-209.78119,-209.21028,-209.12047,-213.317,-221.20024,-228.79701,-231.7717,-228.38818,-220.61047,-212.82289,-209.14377,-211.07219,-216.84947,-222.75845,-225.40935,-223.58061,-218.61314,-213.32727,-210.2935,-210.5352,-213.31323,-216.89819,-219.67931,-220.89821,-220.68237,-219.56354,-217.95108,-215.94385,-213.53026,-210.91525,-208.64124,-207.36046,-207.40617,-208.48167,-209.72231,-210.13728,-209.17825,-207.08376,-204.77284,-203.32793,-203.35236,-204.56914,-205.90007,-206.00398,-204.00066,-199.9994,-195.1418,-191.11346,-189.35551,-190.37041,-193.4805,-197.16917,-199.82819,-200.51154,-199.28859,-197.01321,-194.66663,-192.6926,-190.76013,-188.13168,-184.42523,-180.2729,-177.39081,-177.90298,-183.22522,-193.12991,-205.56691,-217.41223,-225.78279,-229.21645,-228.08717,-224.07445,-219.06041,-214.14696,-209.36606,-204.18086,-198.3492,-192.48947,-187.90582,-185.75517,-186.12408,-187.69862,-188.35596,-186.40074,-181.69785,-175.94125,-171.78154,-171.23314,-174.26715,-178.45319,-179.94853,-175.3671,-163.54332,-146.24248,-127.43425,-111.51485,-101.3979,-97.413109,-97.476524,-98.322136,-97.089783,-92.48848,-85.078072,-76.705215,-69.506882,-64.988716,-63.519779,-64.31768,-65.797493,-66.099236,-63.648293,-57.649639,-48.412651,-37.3783,-26.749409,-18.757412,-14.796088,-14.794895,-17.172155,-19.470137,-19.433054,-16.029692,-9.9087181,-3.0385253,2.3014619,4.6689172,4.1594806,2.3092964,1.2714964,2.7178829,7.0465293,13.289389,19.723175,24.81152,27.953049,29.652479,31.077381,33.306416,36.722279,40.879589,44.872185,47.925934,49.83176,50.968018,51.945946,53.159233,54.56625,55.852554,56.833923,57.767143,59.278423,61.886383,65.414635,68.735794,70.136032,68.205406,62.77784,55.326683,48.478535,44.815331,45.589993,50.088326,56.032688,60.824398,62.919857,62.548622,61.37632,61.356022,63.499233,67.32402,71.286705,73.86692,74.568047,74.179672,74.164215,75.62458,78.580994,82.048294,84.827118,86.40892,87.312462,88.586494,90.841728,93.563049,95.300316,94.71817,91.820549,88.435768,87.46183,91.193802,99.743767,110.62606,119.91797,124.40893,123.46033,119.3909,116.06182,116.44449,120.61411,125.3967,125.92755,118.25047,101.4917,78.424332,54.195671,34.01384,21.073309,15.709713,15.971179,19.017321,22.459486,25.025118,26.482458,27.187956,27.67614,28.465553,29.980358,32.422543,35.591602,38.838436,41.335567,42.604675,42.956974,43.445446,45.218521,48.632412,52.768105,55.829056,56.312286,54.228451,51.466213,50.862114,54.404911,61.696465,69.785507,74.699249,73.88208,68.044678,61.152927,58.373524,63.08823,74.753242,88.951286,99.688713,102.62881,97.381386,87.549759,78.596909,74.871643,77.543121,84.517426,92.134697,97.40976,99.414398,99.133263,98.196754,97.564255,97.091171,96.138245,94.575012,93.274796,93.649651,96.563232,101.48234,106.58788,109.8626,110.42423,109.13953,108.02812,108.82361,111.69051,115.0338,116.59811,115.13836,111.49439,108.25593,108.14549,112.1465,118.64149,124.21453,125.69589,122.18906,115.77952,110.42321,109.64568,114.43077,122.56958,129.85265,132.38664,128.67955,120.33279,111.04453,104.60342,103.05452,105.99159,111.18606,115.99667,118.67007,118.87344,117.36975,115.25349,113.31231,111.84589,110.88367,110.48599,110.8388,112.08958,114.11133,116.43909,118.47348,119.81815,120.49616,120.86682,121.28239,121.72295,121.68316,120.4281,117.49111,113.11394,108.34062,104.66344,103.36972,104.90975,108.60802,112.87914,115.87171,116.26299,113.85075,109.66796,105.54688,103.304,103.90271,106.98729,111.03198,114.06206,114.60847,112.41312,108.50753,104.61263,102.18512,101.64634,102.23349,102.54897,101.46234,98.803238,95.416969,92.564034,91.068893,90.78627,90.737984,89.819489,87.584023,84.553268,81.825729,80.24527,79.717133,79.184486,77.341118,73.641266,68.925995,65.192551,64.567558,68.06353,74.863823,82.582314,88.370468,90.256485,87.994102,83.01622,77.610527,73.831818,72.721375,74.136032,77.109528,80.424141,83.072395,84.468941,84.460785,83.251305,81.298096,79.168999,77.340591,76.003899,75.008064,74.028526,72.88842,71.807335,71.345627,72.006302,73.734673,75.706947,76.667389,75.703377,72.976936,69.846085,68.128006,68.818619,71.026878,71.879326,67.641869,55.571213,35.505455,10.272546,-15.372922,-36.748169,-51.121319,-58.518116,-61.15007,-61.938721,-63.049923,-65.210663,-68.001137,-70.700356,-73.007736,-75.184853,-77.655373,-80.495636,-83.275261,-85.380417,-86.539856,-87.093582,-87.732994,-88.858139,-90.030991,-89.994301,-87.360069,-81.589531,-73.626633,-65.703796,-60.335613,-59.038815,-61.528542,-65.890839,-69.664009,-71.219643,-70.649323,-69.647995,-70.468948,-74.561089,-81.673615,-89.933548,-96.83783,-100.58688,-101.00932,-99.579514,-98.549286,-99.70433,-103.43807,-108.62715,-113.32661,-115.85361,-115.64721,-113.46122,-110.85175,-109.31232,-109.56693,-111.38243,-113.92044,-116.33509,-118.22288,-119.68404,-121.03995,-122.47081,-123.85527,-124.91238,-125.50919,-125.87279,-126.51919,-127.92362,-130.15317,-132.72319,-134.79646,-135.61906,-134.93549,-133.14381,-131.11728,-129.81258,-129.88184,-131.46069,-134.17865,-137.32941,-140.11121,-141.87807,-142.3672,-141.84239,-141.05251,-140.93147,-142.1011,-144.423,-146.92694,-148.29898,-147.76286,-145.83884,-144.38622,-145.67105,-150.81676,-158.51833,-164.94221,-165.16287,-155.57726,-136.03438,-110.40927,-85.127487,-66.300705,-56.973957,-55.973896,-58.951664,-60.959259,-59.046528,-53.435757,-46.762859,-42.062595,-40.869377,-42.588245,-45.353527,-47.586739,-49.064137,-50.74844,-53.587849,-57.260525,-59.898746,-59.127106,-53.782238,-45.127125,-36.628551,-32.278652,-34.407784,-42.312004,-52.549721,-60.748917,-63.859623,-61.554348,-56.044109,-50.55349,-47.459259,-47.193012,-48.433964,-49.287838,-48.59824,-46.576141,-44.467884,-43.617268,-44.600971,-46.966503,-49.639145,-51.630905,-52.555466,-52.666302,-52.49762,-52.434486,-52.52256,-52.599937,-52.58474,-52.658745,-53.19492,-54.483784,-56.461704,-58.637264,-60.271679,-60.707352,-59.662529,-57.35321,-54.413769,-51.682716,-49.948929,-49.728638,-51.109486,-53.69009,-56.649796,-58.969593,-59.768013,-58.639019,-55.839344,-52.216061,-48.884983,-46.800003,-46.412971,-47.571487,-49.670536,-51.946079,-53.750168,-54.697437,-54.672501,-53.763153,-52.189571,-50.250378,-48.258892,-46.445442,-44.852467,-43.298134,-41.475086,-39.171326,-36.500076,-33.981831,-32.382622,-32.352364,-34.041328,-36.910927,-39.865402,-41.664547,-41.432522,-39.035522,-35.174034,-31.16753,-28.523573,-28.433552,-31.333988,-36.65234,-42.838913,-47.74913,-49.344849,-46.527813,-39.772835,-31.206505,-23.956356,-20.937334,-23.577604,-31.105923,-40.806961,-49.177963,-53.43708,-52.629074,-47.787205,-41.132244,-34.816917,-29.939579,-26.330343,-23.104475,-19.512589,-15.489549,-11.578352,-8.3768911,-5.9898448,-3.9355321,-1.5891434,1.1862633,3.7431777,4.9877515,4.1844859,1.6786436,-1.0177289,-1.9322814,0.25476995,5.386704,11.84043,17.389374,20.387308,20.541079,18.830555,16.713827,15.220252,14.559346,14.446547,14.783272,16.048376,18.983576,23.736536,29.134474,32.792896,32.23893,26.477312,16.981245,7.3162746,1.4211574,1.4712023,6.6230979,13.487119,18.130314,18.434383,15.360839,12.321389,13.027652,19.153381,29.263363,39.657829,46.567009,48.291603,45.960346,42.504059,40.606014,41.017929,42.327843,42.255413,39.522137,34.98629,31.26767,31.131458,35.734638,43.901749,52.866245,59.910542,63.757214,64.797745,64.109314,62.086712,57.782665,49.519611,36.384357,19.520479,2.1957672,-11.580038,-19.11545,-20.49395,-18.48222,-16.915422,-18.547235,-23.67074,-30.289089,-35.605385,-37.785389,-36.851833,-34.229385,-31.402027,-28.726532,-25.284779,-19.886162,-12.489463,-4.9758606,-0.59970176,-2.3056505,-10.866991,-23.976116,-36.901184,-44.440628,-43.194725,-33.031574,-17.088648,-0.41121936,12.05286,17.19919,14.614146,6.3694482,-3.9631457,-12.606336,-16.740877,-15.248372,-8.9035988,-0.015657879,8.3694859,13.479173,13.726005,9.2124243,1.6446126,-6.3103762,-11.9747,-13.558241,-10.68962,-4.4287043,3.192142,9.9005327,13.932644,14.562576,12.256436,8.4098539,4.7611609,2.6964889,2.7256789,4.3595133,6.4504924,7.8351769,7.9525657,7.1133595,6.27775,6.4710751,8.171977,11.022212,14.019943,16.080143,16.640902,15.978446,15.065322,15.056682,16.67749,19.818016,23.528942,26.415737,27.258043,25.587774,21.971022,17.846115,14.94521,14.519802,16.722288,20.482027,24.015614,25.788141,25.456415,24.262024,24.588749,28.854015,38.311897,52.436096,69.234299,86.287521,101.86095,115.39771,127.13139,137.16568,144.75359,148.3835,146.70461,139.68925,129.18471,118.35471,110.24467,106.32523,105.93835,107.00838,107.55331,106.9986,106.43285,107.66722,111.77777,118.155,124.72108,129.15575,130.27585,128.62805,125.9343,123.85278,122.98698,122.85188,122.75349,122.81326,124.21986,128.35355,135.31506,142.95357,147.28354,144.298,132.20584,112.72642,90.571815,71.340271,59.027225,54.584419,56.273563,61.419502,68.315979,77.022552,88.600555,103.41576,119.77147,133.92159,141.60789,140.26561,130.5867,116.48831,103.45648,96.144485,96.468979,103.09995,112.44452,120.46925,124.39308,123.51167,118.96922,112.82663,107.01778,102.6833,100.06128,98.802139,98.414024,98.569023,99.150299,100.09313,101.18513,101.9979,102.03058,101.00131,99.106323,97.048988,95.754684,95.879181,97.37841,99.417953,100.72961,100.25384,97.708473,93.738342,89.539131,86.174004,84.000244,82.558067,80.976349,78.614792,75.512764,72.353813,69.98555,68.830322,68.581642,68.373032,67.283134,64.833466,61.178459,56.931023,52.817745,49.430672,47.198521,46.474342,47.525311,50.314556,54.202812,57.8661,59.656654,58.341705,53.836262,47.450779,41.409149,37.831554,37.731125,40.594704,44.773697,48.421787,50.402248,50.652786,49.880421,48.892548,48.057178,47.220913,46.041119,44.394672,42.515087,40.76889,39.291313,37.814861,35.856915,33.124859,29.802559,26.463877,23.661373,21.519695,19.689039,17.739796,15.706416,14.311806,14.59212,17.08843,21.156601,24.962276,26.317068,23.930191,18.30135,11.634667,6.74014,5.5343223,8.0233746,12.362281,15.920311,16.682318,14.16347,9.3855371,4.0779309,-0.29577866,-3.0945652,-4.4404926,-4.7950583,-4.5999494,-4.2231159,-4.0979295,-4.7454109,-6.5008345,-9.1105881,-11.608197,-12.764082,-11.964496,-9.935174,-8.6674194,-10.361456,-15.911817,-23.918568,-31.02511,-33.594585,-29.826326,-21.010168,-11.051417,-4.4474726,-3.8908713,-8.9437628,-16.565645,-23.098248,-26.396238,-26.755259,-26.152479,-26.484522,-28.153872,-30.05192,-30.926271,-31.050159,-32.806221,-39.506126,-53.03294,-71.841331,-90.79673,-103.25141,-104.32352,-93.498611,-74.990051,-55.599377,-41.297695,-34.481319,-33.399582,-33.923977,-32.468533,-28.300251,-23.98012,-23.859528,-31.655769,-48.508545,-72.453758,-99.344391,-124.50636,-144.2372,-156.60646,-161.53947,-160.47754,-155.87643,-150.59787,-147.14638,-146.84126,-149.26442,-152.40923,-153.68829,-151.43501,-146.09862,-140.34605,-137.83133,-141.19536,-150.40915,-162.48206,-172.81743,-177.53337,-175.46225,-168.69307,-161.35048,-157.32303,-158.24306,-162.83498,-167.91241,-170.34207,-168.78033,-164.21455,-159.12227,-155.89407,-155.53683,-157.39458,-159.91545,-161.83522,-162.95201,-164.02429,-165.96107,-168.95082,-172.18178,-174.35851,-174.6398,-173.31493,-171.70781,-171.33406,-172.86424,-175.6046,-177.8792,-178.09785,-175.825,-172.14363,-169.05867,-168.30925,-170.3474,-174.13037,-177.83878,-180.02965,-180.46222,-180.07422,-180.16809,-181.39648,-183.25443,-184.42133,-183.70323,-180.91609,-177.10139,-173.93358,-172.73161,-173.73988,-176.12671,-178.62959,-180.33325,-181.01755,-180.88457,-179.98146,-177.88872,-174.03409,-168.46317,-162.44122,-158.24959,-158.03564,-162.27051,-168.77696,-173.08618,-170.14497,-156.57202,-132.28377,-100.63356,-67.038231,-36.883656,-13.806236,0.91384631,7.8550982,8.477169,4.3951597,-2.7664101,-11.174525,-18.759468,-23.676111,-25.073135,-23.601173,-21.147423,-19.7841,-20.509884,-22.603735,-24.082352,-23.044935,-19.071924,-13.753441,-9.9448204,-10.153888,-15.029659,-22.873787,-30.468613,-34.720173,-34.159634,-29.496811,-23.038147,-17.440048,-14.555332,-14.916991,-17.907562,-22.25956,-26.479403,-29.049271,-28.568727,-24.072933,-15.54304,-4.3061533,7.0933027,15.72548,19.512056,18.204584,13.48478,8.0502186,4.1804395,2.6327751,2.5314076,2.2817893,0.87415296,-1.315115,-2.7730789,-1.9789755,1.3751252,5.9465671,9.4494057,10.092084,7.8115969,4.4660029,2.8068755,4.8460922,10.633601,18.20759,24.733427,28.102579,28.000818,25.834446,23.656384,22.855503,23.462212,24.448223,24.705559,23.956158,22.951061,22.863371,24.363289,27.071766,29.78982,31.321808,31.280392,30.286819,29.440014,29.477335,30.281469,31.122368,31.4512,31.607119,32.812012,36.329948,42.314003,49.180504,54.079479,54.318493,48.920578,39.33131,28.78056,20.646378,16.807163,16.97053,19.326107,22.010166,24.367552,27.181789,31.780615,38.702297,46.89867,54.065723,57.909451,57.515266,53.925411,49.565666,46.917175,47.284302,50.377483,54.839108,59.225807,62.743156,65.321648,67.165916,68.283051,68.433067,67.526367,66.068916,65.174797,65.999237,68.93676,73.186043,77.081039,79.052299,78.601921,76.61882,74.793617,74.517075,76.013229,78.294197,79.939209,80.116341,79.107727,77.983246,77.708961,78.396683,79.281792,79.443054,78.683563,77.836998,78.186615,80.384048,83.700584,86.268257,86.261322,83.231987,78.609718,74.900543,74.046165,76.064339,78.980286,80.195724,78.403381,74.68718,71.932678,72.829399,77.790771,84.292152,88.246796,86.651863,79.783516,71.392944,66.60424,68.743912,77.116791,87.219551,93.352066,92.034035,84.085526,74.064888,67.441345,67.316093,72.756332,79.719742,83.853226,83.270096,79.508972,76.154327,76.174095,79.841461,84.634964,87.106781,85.353676,80.342346,75.176842,72.853271,74.109901,76.911934,77.958984,75.167,69.355339,63.87582,62.325779,65.839638,71.82328,75.105095,70.898674,57.747501,38.572998,19.124277,4.7744675,-2.3404727,-4.0697818,-4.4620266,-6.6296816,-10.284582,-11.518142,-4.9792023,12.880075,41.443596,75.827209,109.0279,135.03345,151.16071,158.49231,160.46709,160.68294,161.22423,162.28102,162.93442,162.3335,160.44106,157.99272,155.90356,154.66254,154.13321,153.80086,153.18457,152.08775,150.56627,148.74617,146.71265,144.57013,142.57196,141.12581,140.58188,140.9216,141.59897,141.72011,140.51122,137.79608,134.16216,130.68166,128.34578,127.55691,127.97665,128.78577,129.15157,128.60109,127.11212,124.95523,122.47267,119.96319,117.6947,115.93278,114.86952,114.46371,114.33656,113.87438,112.54264,110.22533,107.33577,104.57996,102.5076,101.16643,100.12447,98.859619,97.226059,95.622398,94.69397,94.763451,95.426399,95.667397,94.481018,91.583656,87.686798,84.084427,81.805107,80.927223,80.575058,79.631119,77.655121,75.303879,73.878227,74.272331,76.097336,77.702202,77.20594,73.892395,68.958748,64.956268,64.130684,66.678307,70.104607,70.238365,63.404316,48.483803,27.623936,5.183639,-14.411445,-28.606911,-37.37479,-42.398579,-45.530178,-47.614605,-48.367195,-47.163261,-43.9753,-39.694309,-35.642078,-32.745663,-31.086153,-30.182425,-29.727909,-30.092512,-32.074471,-36.019634,-41.022079,-44.981293,-45.712811,-42.484272,-36.897324,-32.346359,-32.202633,-37.782936,-47.409863,-57.238937,-63.405228,-64.178345,-60.79858,-56.519764,-54.535339,-56.144337,-60.283367,-64.593208,-67.172867,-67.78376,-67.734612,-68.638771,-71.009056,-73.716949,-74.689842,-72.336952,-66.704323,-59.577751,-53.493851,-50.345406,-50.487671,-52.851711,-55.869411,-58.51067,-60.748653,-63.241032,-66.57296,-70.659882,-74.715729,-77.742744,-79.139236,-78.993637,-77.914223,-76.590874,-75.437042,-74.534615,-73.834465,-73.380836,-73.358727,-73.957268,-75.213791,-77.005302,-79.193581,-81.760025,-84.75148,-88.027977,-91.021034,-92.778877,-92.401749,-89.660019,-85.375847,-81.224297,-78.961151,-79.485786,-82.313248,-85.817154,-88.135506,-88.208031,-86.324715,-83.87291,-82.473061,-83.058334,-85.448349,-88.61515,-91.391243,-93.126076,-93.898163,-94.233208,-94.606895,-95.103577,-95.427917,-95.184669,-94.169991,-92.465538,-90.325363,-88.015129,-85.767334,-83.865204,-82.709457,-82.7071,-83.980934,-86.102692,-88.118195,-88.97068,-88.131607,-86.036789,-83.982292,-83.458076,-85.281219,-89.064209,-93.374023,-96.50663,-97.404167,-96.150856,-93.766747,-91.480614,-89.990395,-89.187325,-88.466568,-87.330391,-85.810013,-84.406952,-83.641449,-83.597038,-83.839935,-83.781868,-83.187645,-82.395378,-82.032082,-82.4161,-83.126175,-83.143806,-81.566116,-78.426468,-74.99836,-73.24881,-74.68074,-79.269554,-85.218094,-89.776894,-90.701591,-87.489418,-81.647392,-75.833252,-72.398552,-72.208313,-74.401413,-77.145172,-78.832489,-78.952515,-78.145805,-77.513527,-77.708313,-78.413048,-78.504745,-76.74498,-72.540199,-66.332817,-59.454521,-53.581371,-50.091736,-49.591125,-51.729622,-55.317825,-58.699516,-60.314713,-59.321598,-56.045029,-51.981392,-49.221344,-49.450798,-52.999775,-58.499844,-63.454391,-65.517349,-63.813644,-59.534435,-55.414719,-54.351837,-57.951321,-65.842125,-76.134903,-86.692055,-96.389412,-105.59009,-115.58858,-127.45761,-141.09595,-155.10448,-167.54195,-177.03032,-183.47914,-187.99217,-192.08395,-196.77286,-202.14194,-207.58267,-212.44655,-216.57613,-220.33272,-224.15091,-228.01538,-231.30405,-233.14774,-233.04861,-231.28484,-228.77058,-226.43887,-224.57613,-222.59645,-219.44719,-214.39149,-207.63347,-200.34032,-194.01968,-189.65048,-187.14053,-185.46857,-183.40982,-180.35442,-176.6702,-173.37408,-171.34314,-170.60443,-170.18581,-168.63365,-164.86288,-158.79158,-151.36299,-143.95883,-137.5925,-132.38725,-127.63437,-122.34139,-115.88281,-108.3395,-100.35411,-92.658089,-85.617577,-79.088295,-72.626442,-65.857109,-58.721985,-51.450779,-44.317245,-37.386566,-30.438025,-23.091375,-15.009718,-6.0179038,3.9205027,14.78183,26.478849,38.729538,50.912571,62.106758,71.417908,78.469337,83.73951,88.446365,93.940201,100.92021,108.97994,116.83868,123.18258,127.595,130.92427,134.75652,140.26306,147.17955,153.68497,157.41493,157.07367,153.61156,150.0863,150.09442,155.59389,165.43382,175.59821,181.19353,179.14204,170.04892,158.12697,149.16,147.61301,154.47527,166.97714,180.23117,189.78578,193.65732,192.8335,190.19359,188.6703,189.77267,193.20079,197.52721,201.30316,203.81953,205.11877,205.40982,204.40787,201.10144,194.11278,182.42529,166.04993,146.27953,125.43266,106.23545,91.104134,81.562309,77.930679,79.339806,84.053932,90.028366,95.538109,99.649422,102.33115,104.15231,105.73127,107.25743,108.37865,108.52555,107.45444,105.62659,104.12553,104.11212,106.1369,109.75603,113.73087,116.72822,118.1095,118.32063,118.62541,120.32487,123.92101,128.72223,133.12846,135.4393,134.73622,131.36298,126.76485,122.79659,120.8706,121.36473,123.54422,125.98684,127.27573,126.63477,124.24285,121.1227,118.67962,118.09827,119.84911,123.50182,127.91251,131.69284,133.75023,133.66394,131.74863,128.81316,125.76727,123.2831,121.65666,120.87957,120.80952,121.29489,122.17596,123.19985,123.96256,123.9777,122.87532,120.62805,117.65731,114.7262,112.64379,111.91581,112.51406,113.88043,115.16679,115.60169,114.82095,113.02033,110.86802,109.21412,108.71699,109.54228,111.26576,113.03092,113.90199,113.26044,111.06457,107.85162,104.48634,101.78523,100.20132,99.708199,99.90361,100.23851,100.23578,99.611191,98.297546,96.428452,94.320351,92.427505,91.209335,90.896584,91.254814,91.526482,90.690964,87.998093,83.508591,78.279457,73.97538,72.023315,72.75827,75.098663,77.033485,76.720207,73.577843,68.697227,64.262482,62.277588,63.348534,66.276375,68.740685,68.680054,65.531525,60.566277,56.116821,54.180099,55.262077,58.160332,60.776356,61.404243,59.671028,56.569382,53.633793,51.857922,51.079258,50.204025,48.066273,44.304516,39.661858,35.532299,33.088684,32.58633,33.28339,33.980907,33.778072,32.533901,30.775879,29.200085,28.172796,27.592196,27.159266,26.781178,26.734373,27.415232,28.851011,30.368038,30.742884,28.831375,24.312037,18.051794,11.808091,7.3938689,5.7784653,6.6457028,8.6488695,10.17765,10.162071,8.4612198,5.6858292,2.6666608,-0.03563882,-2.2842247,-4.173368,-5.7328939,-6.8136783,-7.2535515,-7.165041,-7.0598316,-7.6313581,-9.2823935,-11.712431,-13.891898,-14.521115,-12.746819,-8.7113838,-3.5818226,0.98788989,3.6611071,4.0263805,2.6698275,0.70282799,-0.94115382,-2.0105181,-2.963378,-4.5533118,-7.2724266,-11.009673,-15.114975,-18.790659,-21.538229,-23.383848,-24.77371,-26.246153,-28.110701,-30.327589,-32.628208,-34.758282,-36.664501,-38.507988,-40.518635,-42.809166,-45.281597,-47.682674,-49.760029,-51.408222,-52.711327,-53.865211,-55.043274,-56.299564,-57.568817,-58.751244,-59.812,-60.818874,-61.888897,-63.081844,-64.320351,-65.403366,-66.119446,-66.396301,-66.389679,-66.442062,-66.917404,-67.996857,-69.55323,-71.184013,-72.394203,-72.832649,-72.453743,-71.5214,-70.465813,-69.687683,-69.424774,-69.741486,-70.613205,-72.015953,-73.940765,-76.32357,-78.958969,-81.490936,-83.522331,-84.794067,-85.322441,-85.399345,-85.44735,-85.818481,-86.659248,-87.909485,-89.401497,-90.958214,-92.410164,-93.544182,-94.082413,-93.785431,-92.666878,-91.173447,-90.142036,-90.457298,-92.54734,-96.022476,-99.740395,-102.34345,-102.99709,-101.87826,-100.07253,-98.898872,-99.069824,-100.23959,-101.26725,-101.04868,-99.361549,-97.117447,-95.791145,-96.371002,-98.554237,-100.811,-101.38525,-99.63765,-96.819313,-95.646378,-98.787354,-107.1147,-118.81502,-130.00343,-136.59569,-136.40686,-130.26964,-121.52449,-114.1907,-110.88955,-111.69505,-114.48537,-116.45701,-115.81477,-112.64686,-108.59149,-105.67871,-105.18526,-107.21107,-111.11284,-116.33157,-122.92818,-131.41676,-142.03342,-154.00562,-165.40195,-173.75197,-177.10924,-174.93948,-168.32941,-159.43561,-150.53284,-143.20029,-138.01936,-134.79611,-133.02144,-132.22473,-132.05495,-132.1716,-132.1571,-131.59508,-130.2769,-128.35999,-126.3176,-124.6748,-123.69288,-123.21327,-122.76492,-121.85625,-120.25327,-118.06978,-115.64189,-113.30869,-111.26569,-109.57149,-108.24798,-107.33862,-106.83807,-106.54147,-105.96751,-104.49158,-101.67886,-97.635002,-93.125359,-89.320633,-87.252853,-87.266113,-88.782829,-90.542747,-91.202477,-89.973839,-86.958572,-83.015594,-79.262779,-76.508476,-74.920494,-74.079277,-73.335648,-72.236343,-70.77272,-69.335487,-68.433022,-68.352638,-68.956291,-69.715393,-69.960045,-69.212532,-67.439163,-65.094994,-62.933014,-61.660309,-61.60181,-62.539055,-63.814548,-64.66008,-64.583305,-63.603382,-62.199615,-60.99749,-60.375027,-60.228527,-60.045773,-59.243622,-57.554386,-55.207703,-52.784744,-50.840702,-49.552898,-48.640812,-47.618851,-46.204617,-44.580967,-43.296505,-42.839642,-43.169601,-43.556225,-42.903976,-40.416374,-36.201393,-31.407307,-27.736593,-26.564861,-28.15369,-31.421818,-34.432098,-35.345005,-33.32478,-28.9163,-23.711918,-19.515005,-17.457489,-17.51531,-18.620888,-19.252571,-18.164572,-14.902602,-9.9053411,-4.2118363,1.036538,5.0573182,7.6660275,9.2266331,10.372047,11.642762,13.219609,14.881828,16.213354,16.947569,17.24988,17.748655,19.25415,22.292673,26.72084,31.673138,35.921818,38.482353,39.131863,38.536453,37.901871,38.34243,40.328167,43.515335,47.024364,49.962231,51.862122,52.805962,53.225933,53.583683,54.163628,55.080265,56.40826,58.252167,60.65081,63.390682,65.928543,67.576614,67.902176,67.086182,65.948044,65.53553,66.488052,68.585884,70.8293,72.062393,71.775658,70.554466,69.828613,71.02047,74.602371,79.67334,84.364006,86.860374,86.43512,83.85804,80.941582,79.515381,80.465668,83.404991,87.112755,90.39769,92.799614,94.709007,96.905106,99.898842,103.55666,107.23719,110.28726,112.49774,114.17972,115.82713,117.64828,119.34335,120.31216,120.14672,119.03971,117.79067,117.37752,118.37494,120.61551,123.32207,125.61306,127.02918,127.72912,128.24759,129.02106,130.03981,130.87558,131.0479,130.44102,129.45012,128.73935,128.78439,129.53471,130.44742,130.87708,130.54768,129.77063,129.25005,129.60762,130.95471,132.80515,134.38264,135.10616,134.92123,134.26439,133.70749,133.54651,133.62292,133.48828,132.77573,131.50291,130.09033,129.08884,128.81488,129.1497,129.63501,129.7886,129.41704,128.71815,128.12138,127.99249,128.40735,129.13144,129.78807,130.07625,129.88918,129.28123,128.35175,127.16399,125.76723,124.28594,122.97256,122.14375,122.01744,122.55986,123.4634,124.29157,124.70744,124.63645,124.25571,123.82324,123.47531,123.14329,122.65288,121.93086,121.15596,120.71881,120.98673,122.01362,123.39337,124.38224,124.25223,122.68853,120.00311,117.03214,114.76015,113.86488,114.41835,115.8913,117.4455,118.35279,118.32486,117.59644,116.73621,116.29592,116.48186,117.01511,117.2498,116.49109,114.35595,110.99683,107.0728,103.47643,100.94664,99.756439,99.625893,99.894386,99.852608,99.059624,97.492912,95.482155,93.495697,91.909462,90.862518,90.221169,89.602531,88.402985,85.834389,81.035149,73.322357,62.56258,49.509495,35.88554,24.047876,16.272537,13.916041,16.833691,23.357836,30.889338,36.858852,39.634026,38.981846,35.921108,32.091095,28.966877,27.27655,26.834713,26.793634,26.141056,24.206184,20.973362,17.101646,13.659971,11.682691,11.715057,13.537223,16.206993,18.439445,19.18033,18.107107,15.79094,13.404392,12.102257,12.400835,13.905802,15.553614,16.233147,15.42098,13.448554,11.242807,9.7110481,9.1670609,9.1695843,8.8770437,7.6837239,5.712657,3.8266745,3.1280346,4.2506771,6.8905139,9.8773956,11.757969,11.545433,9.1965466,5.5514703,1.8010767,-1.1799376,-3.2396338,-4.8835611,-6.8201523,-9.4221516,-12.434284,-15.089517,-16.5497,-16.409037,-14.979841,-13.210943,-12.283882,-13.086606,-15.812221,-19.864237,-24.109411,-27.367687,-28.923698,-28.828899,-27.849279,-27.074608,-27.374016,-28.972898,-31.377579,-33.693748,-35.162113,-35.5994,-35.477951,-35.591473,-36.514751,-38.206383,-40.024017,-41.159832,-41.222511,-40.57896,-40.208706,-41.136082,-43.788158,-47.689476,-51.698917,-54.649635,-55.995178,-56.065266,-55.791515,-56.104385,-57.400162,-59.404438,-61.475407,-63.095993,-64.200249,-65.126694,-66.274551,-67.74939,-69.275253,-70.435226,-71.046928,-71.373367,-71.992432,-73.406059,-75.671654,-78.330963,-80.69841,-82.307556,-83.195694,-83.822548,-84.687836,-85.936325,-87.251785,-88.127991,-88.319832,-88.129669,-88.288795,-89.482697,-91.83712,-94.733597,-97.11274,-98.092331,-97.506042,-96.012001,-94.702393,-94.470345,-95.538361,-97.427597,-99.344566,-100.69463,-101.37975,-101.72023,-102.1144,-102.7148,-103.34953,-103.70706,-103.60222,-103.10077,-102.41818,-101.70531,-100.92627,-99.948158,-98.768578,-97.667953,-97.10936,-97.40416,-98.367836,-99.241005,-98.990974,-96.846085,-92.740189,-87.390991,-81.974045,-77.610458,-74.975471,-74.20208,-75.016541,-76.899277,-79.13089,-80.791389,-80.930023,-79.039513,-75.672638,-72.754066,-73.143112,-79.39254,-92.226974,-109.63214,-127.275,-140.27034,-145.46165,-142.95024,-135.92888,-128.83096,-124.82486,-124.11722,-124.06393,-120.98724,-112.549,-99.206184,-83.888672,-70.192711,-60.323132,-54.131737,-49.825161,-45.77869,-42.154194,-41.166832,-45.76775,-57.58416,-75.469696,-95.636513,-113.33217,-125.05658,-130.00858,-129.97641,-127.8712,-125.90279,-124.5268,-122.71673,-119.24831,-114.07855,-108.90267,-106.51937,-109.35413,-117.95599,-130.27588,-142.12399,-148.64687,-146.23146,-134.0773,-114.79248,-93.701637,-77.012123,-69.453522,-72.316917,-82.792755,-95.049286,-102.72365,-101.76065,-92.245934,-78.285576,-65.942673,-60.265526,-62.938702,-71.745773,-82.021591,-89.182831,-90.898331,-87.79303,-82.528999,-78.059601,-76.219765,-77.419502,-81.373993,-88.119179,-98.470444,-113.58899,-134.02524,-158.99397,-186.455,-213.98563,-239.88264,-263.80414,-286.61624,-309.65665,-333.96191,-359.91434,-387.36844,-415.94815,-445.1564,-474.20926,-501.84671,-526.4679,-546.68903,-562.02557,-573.19049,-581.698,-588.95166,-595.42029,-600.5152,-603.3147,-603.65399,-602.76154,-602.87036,-605.92566,-612.18542,-619.67657,-624.97144,-624.90448,-618.21741,-606.14313,-591.60443,-577.56903,-565.59082,-555.36975,-545.44434,-534.40582,-521.77075,-508.0069,-493.86642,-479.65189,-465.00223,-449.31317,-432.38641,-414.73517,-397.27051,-380.6022,-364.50592,-347.98874,-329.92728,-309.81699,-288.0936,-265.81995,-244.00806,-223.09439,-202.91927,-183.13133,-163.59827,-144.43733,-125.65205,-106.75358,-86.808212,-64.999954,-41.302769,-16.650209,7.6977806,31.241199,54.943195,80.833176,110.53333,143.60754,176.972,206.05777,227.25633,240.18204,248.20494,256.70685,269.99893,288.81299,310.02185,328.8544,342.22922,351.0437,359.88364,374.2771,397.21088,427.10056,458.45078,484.71692,501.54669,508.49753,508.46375,505.55939,503.02844,502.40482,504.00098,507.8042,513.76154,521.24512,528.46893,532.8941,532.89832,529.74207,528.17719,534.61743,553.41376,583.35992,616.87982,642.9765,652.69696,644.09363,623.69391,603.43732,594.72412,602.93652,625.43475,653.85223,678.95404,695.01855,701.40637,701.06,697.6344,693.48462,689.6264,687.02264,687.51837,693.22034,704.64777,719.30554,732.30243,739.16449,739.12976,736.42169,738.04718,748.99384,767.72504,785.0993,787.93207,765.51184,715.37689,644.92352,567.85577,497.56287,441.26343,398.10492,361.84012,325.93942,287.78568,249.59276,216.0575,190.83228,174.35725,164.28789,157.77371,153.63272,152.80669,156.98448,166.73633,180.81311,197.24211,215.31972,236.76833,264.85764,301.82877,346.36783,393.07721,434.66312,465.70493,485.6832,499.27588,513.61438,534.12073,561.44965,591.34308,617.36053,634.68323,642.6319,644.48566,644.95319,647.06268,650.43475,651.85687,647.56793,635.68707,617.34149,596.0603,576.13397,561.13354,553.39063,554.34924,565.00421,585.64838,614.82422,648.19476,678.39667,696.51538,694.867,669.88397,623.65118,563.22247,497.93683,435.95407,381.59177,334.60019,291.52823,248.34573,202.98506,156.64961,113.44231,78.689796,56.868191,50.061966,57.480305,75.990128,101.21161,128.63515,154.42072,175.83823,191.48761,201.4115,207.05702,210.9346,215.89005,224.13638,236.41368,251.66957,267.41333,280.52701,288.0705,287.6843,277.54211,256.18616,222.68236,177.24284,121.96014,60.976135,-0.41576242,-57.584854,-108.41357,-154.03926,-197.83469,-243.01273,-290.18295,-336.36993,-376.20551,-404.66568,-419.69073,-423.02615,-418.72543,-410.2901,-398.37302,-380.66013,-354.11234,-318.1178,-276.3725,-236.03087,-204.43182,-185.36711,-177.29042,-174.70692,-171.93262,-166.79366,-161.75044,-161.52025,-168.59026,-179.59448,-185.31602,-175.08968,-143.7318,-97.358414,-54.628738,-42.036358,-84.771942,-196.88791,-374.91418,-597.57208,-831.62891,-1041.4994,-1198.9811,-1289.8761,-1315.8119,-1291.5044,-1239.157,-1182.2062,-1140.2262,-1125.892,-1144.0144,-1192.1545,-1262.2684,-1343.0227,-1422.5222,-1491.0557,-1543.1744,-1578.3147,-1599.5223,-1610.6715,-1613.4579,-1605.8188,-1582.8676,-1540.0734,-1477.0049,-1399.3778,-1317.9227,-1244.3997,-1186.8645,-1146.8965,-1120.4055,-1101.4446,-1086.5127,-1076.4583,-1074.6278,-1082.442,-1095.4653,-1102.9705,-1091.8862,-1053.1713,-986.89545,-902.86456,-816.203,-740.33331,-681.33252,-636.73816,-599.11261,-561.82709,-523.3811,-487.76556,-461.0365,-446.62045,-442.45963,-441.68701,-436.16812,-420.53635,-394.30972,-361.14548,-326.14877,-293.15558,-263.53522,-236.77318,-211.9055,-188.57617,-167.11504,-147.95151,-131.13766,-116.46516,-103.97729,-94.240341,-87.93544,-84.980576,-83.91021,-82.143921,-77.095116,-67.34951,-53.000057,-34.842506,-13.07271,13.366168,46.03204,85.155357,128.04314,169.11409,201.97839,222.5367,231.20151,232.7238,233.57018,238.38437,247.6936,258.22931,265.53735,267.09598,263.91595,259.70197,258.31506,261.34973,267.41785,273.44788,276.90695,277.32376,276.14551,275.25125,275.39468,275.78482,275.04257,272.67374,269.81723,268.62949,270.76462,276.13379,282.91803,288.82758,292.62384,294.71954,296.42123,298.49463,300.32181,300.47025,298.30734,295.2952,294.63519,299.10498,308.43414,318.24527,321.79083,313.83981,294.38049,269.56625,248.89001,240.0108,244.36061,256.39053,267.1174,269.862,264.55579,257.7933,258.47986,271.76819,295.13934,319.186,332.71307,329.07321,309.91376,284.16376,263.03052,254.11447,258.06461,269.40833,280.56393,286.28168,285.87836,282.35638,279.55344,279.4953,281.58896,283.76709,284.34476,283.09042,280.87979,278.51871,275.92947,272.47031,268.09998,264.28552,263.6532,268.35202,278.20184,290.06461,299.16571,301.74924,297.42636,289.62546,283.70816,283.82693,290.45584,300.13464,307.57968,308.83304,303.50879,294.82117,287.50244,285.00116,287.69073,293.06461,297.59561,298.95523,297.20432,294.35165,292.74634,293.43442,295.50003,296.6925,294.83328,289.09998,280.47742,271.23181,263.81277,259.80673,259.41449,261.57788,264.57162,266.7424,267.1033,265.6004,262.98935,260.38367,258.66196,258.00443,257.80142,256.9967,254.66948,250.48297,244.687,237.66156,229.34689,219.05562,205.94907,189.97925,172.66983,157.07022,146.66283,143.69386,147.87444,156.30234,164.78238,169.86998,170.47928,168.12131,165.65796,165.35944,167.4622,170.07803,170.43469,166.60487,158.62854,148.3902,138.44177,130.60269,125.21446,121.3994,117.97379,114.28674,110.42578,106.77481,103.40089,99.824425,95.362404,89.734764,83.389542,77.22036,71.852028,67.060135,61.846436,55.217937,47.153748,39.020603,33.017269,30.897236,32.773487,36.837029,40.264915,40.808014,38.066315,33.624649,29.945057,28.721928,29.761946,31.111874,30.343683,26.155888,19.254601,11.958798,6.804244,5.0520024,6.0342107,7.6971278,7.9221621,5.738306,1.6707993,-2.9115844,-6.9185753,-10.319617,-14.058516,-19.204777,-25.983536,-33.405796,-39.798031,-43.894356,-45.742702,-46.769131,-48.889019,-53.195087,-59.066128,-64.313004,-66.34034,-63.65522,-56.807312,-48.165874,-40.635868,-36.062927,-34.273022,-33.314251,-30.744659,-25.184748,-17.207012,-9.051836,-3.3747606,-1.800344,-4.1358166,-8.6524839,-13.17183,-16.228643,-17.608488,-18.029469,-18.321424,-18.753078,-18.979179,-18.572386,-17.645947,-17.00123,-17.609438,-19.782953,-22.698914,-24.745199,-24.574621,-22.179941,-19.179794,-17.972836,-20.199339,-25.509802,-31.554672,-35.369987,-35.395218,-32.848507,-31.484583,-35.726246,-48.194412,-68.089951,-91.406944,-112.86474,-128.42648,-136.96664,-140.23502,-141.33667,-142.80455,-145.45255,-148.54897,-150.9276,-152.09485,-152.53954,-153.14046,-154.2626,-155.33206,-155.26251,-153.4129,-150.31544,-147.55891,-146.83321,-148.77783,-152.45612,-155.86151,-157.14828,-155.77473,-152.80908,-150.22311,-149.67361,-151.57755,-155.03198,-158.52502,-160.87285,-161.74806,-161.54039,-160.79903,-159.76118,-158.31375,-156.32755,-153.99519,-151.83453,-150.34668,-149.64684,-149.43053,-149.34628,-149.46222,-150.37189,-152.73997,-156.56445,-160.74815,-163.43895,-163.0591,-159.38567,-153.90279,-149.08308,-146.99295,-148.12625,-151.25362,-154.37856,-156.10043,-156.38187,-156.15178,-156.05278,-155.32281,-151.76157,-142.96495,-128.0504,-108.6536,-88.407425,-71.145493,-58.975361,-51.480679,-46.533501,-42.073421,-37.551785,-34.028202,-32.935879,-34.539501,-37.34074,-38.956112,-37.839012,-34.51675,-31.320517,-30.706944,-33.374653,-37.614067,-40.462177,-39.871059,-36.258663,-32.17664,-30.207613,-30.610537,-30.592016,-26.026966,-14.657288,1.4584029,16.20167,22.580133,16.995466,1.7999505,-15.720656,-27.517393,-29.548178,-24.084488,-18.017624,-18.222284,-26.975672,-40.405739,-50.952007,-52.193043,-42.879456,-27.604937,-13.814034,-7.2349224,-8.7428761,-14.547763,-19.287554,-19.711967,-16.423841,-12.674047,-11.340133,-12.445938,-13.077145,-9.7330084,-1.3531364,9.2520151,16.719185,16.415659,7.5164032,-6.1853046,-18.289946,-23.340683,-19.688437,-10.001362,0.66834247,7.8388333,9.6983862,7.2690883,2.9359334,-1.3737987,-5.1016126,-8.6779718,-12.467276,-16.036686,-18.317471,-18.409306,-16.255423,-12.585146,-8.2062321,-3.3414168,2.2787325,8.477932,13.545595,14.003255,5.7660828,-13.724852,-43.615864,-79.244545,-113.66736,-140.39691,-155.89438,-160.50891,-157.48355,-150.75569,-142.88188,-134.18768,-123.40229,-109.159,-91.350494,-71.582916,-52.609703,-37.201855,-27.104834,-22.531046,-22.269312,-24.220125,-26.096428,-26.092617,-23.386011,-18.340939,-12.3002,-6.9643602,-3.5738113,-2.2880459,-2.1302326,-1.5796638,0.50414693,4.1859231,8.4391785,11.836797,13.502238,13.687465,13.585849,14.509798,17.003901,20.511734,23.824913,25.988337,27.008631,27.852304,29.730221,33.18346,37.637478,41.762352,44.39798,45.388084,45.717964,46.837803,49.634472,53.775166,57.897141,60.529079,61.113941,60.423615,60.0704,61.440979,64.77433,69.00322,72.45504,73.927254,73.415329,72.029785,71.203972,71.766563,73.511894,75.521477,76.95192,77.690079,78.399544,79.942413,82.621643,85.820488,88.328094,89.141518,88.182503,86.413605,85.252342,85.673096,87.609871,90.069427,91.874092,92.514603,92.512558,93.026993,94.964981,98.209747,101.51927,103.20683,102.18819,98.720108,94.33918,91.019089,90.064728,91.426903,93.847214,95.712997,96.063194,95.1166,94.026047,94.065948,95.804718,98.783669,101.86093,103.93952,104.57675,104.10011,103.22288,102.49203,101.98073,101.41536,100.58309,99.656464,99.152245,99.546135,100.85762,102.56681,103.97507,104.74896,105.18137,105.85165,106.80442,106.80128,103.29733,93.425034,75.618248,50.989529,23.556753,-1.0236226,-17.71673,-24.242466,-21.961756,-15.047312,-8.4022808,-5.4531846,-6.9497471,-11.268847,-15.845123,-18.769613,-19.634953,-19.287209,-18.862045,-18.875051,-18.984118,-18.497841,-17.163872,-15.600713,-15.025366,-16.452005,-19.919695,-24.293442,-27.79755,-28.959175,-27.388903,-23.953951,-20.297363,-18.041273,-18.140247,-20.673677,-25.047487,-30.351295,-35.622719,-39.953884,-42.556713,-42.927273,-41.105774,-37.853451,-34.530376,-32.616905,-33.07415,-35.893009,-40.107719,-44.281197,-47.186611,-48.307018,-47.918297,-46.798412,-45.815434,-45.647598,-46.709282,-49.16256,-52.856834,-57.185677,-61.04372,-63.106209,-62.455742,-59.260654,-55.024334,-52.074368,-52.413982,-56.537083,-62.958996,-68.869102,-71.633904,-70.297493,-66.149712,-61.964226,-60.340816,-62.182106,-66.278809,-70.272133,-72.349236,-72.512939,-72.515419,-74.422394,-78.719437,-83.251678,-83.82933,-76.298676,-58.927677,-33.696339,-5.6933813,19.077412,36.26899,44.765064,46.530319,45.037334,43.325451,42.796757,43.239193,43.744881,43.707382,43.20689,42.667812,42.24675,41.570591,40.102409,37.847549,35.759422,35.345802,37.536633,41.473049,44.087475,40.982632,28.372324,5.1652684,-25.921492,-58.903107,-86.579041,-103.18829,-106.46449,-98.204887,-83.201157,-67.134575,-54.437496,-47.012348,-44.192322,-43.719975,-43.113918,-40.749489,-36.256115,-30.24213,-23.673708,-17.31938,-11.524426,-6.3224473,-1.6866748,2.3177001,5.593956,8.2093258,10.524847,13.091398,16.313213,20.073057,23.591948,25.690954,25.38261,22.490267,17.927565,13.427217,10.808959,11.146564,14.268517,18.85577,23.080051,25.442532,25.386173,23.404072,20.651039,18.31621,17.097046,17.007311,17.541916,18.041189,18.035791,17.415512,16.38607,15.281074,14.340061,13.553751,12.640842,11.175022,8.8265972,5.6230927,2.0910845,-0.84144872,-2.2040684,-1.4742732,1.049256,4.2333822,6.5372996,6.7127171,4.4237814,0.43743429,-3.7474303,-6.6475625,-7.5119367,-6.6138582,-4.9764433,-3.7247381,-3.4672811,-4.0639515,-4.872263,-5.2592869,-5.020071,-4.4426475,-4.0229206,-4.0718021,-4.5095701,-4.9836178,-5.1995888,-5.2022161,-5.3875031,-6.2314019,-7.929213,-10.203022,-12.411845,-13.885881,-14.259764,-13.600806,-12.290547,-10.791715,-9.4871206,-8.6796417,-8.6810122,-9.8298912,-12.342886,-16.069298,-20.352648,-24.178371,-26.60244,-27.235426,-26.469519,-25.267172,-24.60778,-24.926975,-25.907701,-26.762304,-26.81945,-26.020887,-24.988386,-24.610435,-25.426527,-27.229698,-29.164963,-30.26786,-30.090029,-28.999046,-27.956005,-27.917841,-29.25074,-31.520866,-33.772545,-35.091904,-35.092625,-34.044304,-32.61639,-31.450933,-30.848513,-30.728168,-30.814274,-30.865906,-30.783518,-30.563765,-30.204708,-29.684811,-29.044102,-28.474977,-28.294779,-28.761156,-29.836691,-31.089836,-31.854889,-31.59656,-30.259422,-28.359146,-26.723635,-26.024637,-26.393538,-27.376539,-28.271214,-28.638212,-28.664787,-29.149099,-31.112982,-35.276882,-41.700054,-49.767529,-58.486923,-66.890396,-74.319374,-80.48896,-85.38311,-89.111137,-91.823059,-93.68885,-94.882568,-95.529305,-95.641533,-95.118088,-93.846458,-91.856384,-89.400146,-86.858742,-84.496307,-82.222031,-79.55603,-75.881653,-70.863266,-64.758591,-58.380241,-52.669224,-48.106697,-44.32774,-40.20509,-34.389271,-26.003469,-15.089199,-2.5533273,10.322618,22.489126,33.488201,43.397156,52.475662,60.814674,68.242424,74.523026,79.657265,84.027321,88.258949,92.897064,98.131775,103.76676,109.43105,114.8504,119.96141,124.79455,129.25531,133.03004,135.74683,137.30017,138.07767,138.85567,140.36238,142.77937,145.55173,147.70198,148.48868,147.96541,147.00172,146.65916,147.27133,147.84552,146.27313,140.35713,129.12572,113.66019,96.896637,82.444511,73.043365,69.49115,70.59053,74.056305,77.786255,80.748726,83.054108,85.327126,87.919731,90.53611,92.491379,93.350708,93.426109,93.719696,95.307144,98.568184,102.80515,106.5526,108.42699,107.99705,106.11854,104.4987,104.73393,107.39254,111.68971,115.93935,118.49873,118.63648,116.8243,114.3243,112.37783,111.52808,111.49124,111.61398,111.56406,111.74812,113.13547,116.57134,122.02805,128.3239,133.57439,136.18076,135.79597,133.67482,132.15198,133.50345,138.81923,147.51605,157.73965,167.38066,175.0831,180.67169,184.8248,188.30627,191.32448,193.44991,194.10016,193.19142,191.44235,190.0748,190.09938,191.68387,194.05576,196.01872,196.73047,196.20784,195.22523,194.709,195.08578,196.05734,196.94093,197.28259,197.24823,197.47864,198.52356,200.31609,202.13606,203.13565,203.04106,202.46494,202.52498,203.99223,206.59216,209.02679,209.78551,208.21495,205.07806,202.15401,201.10797,202.39993,204.99326,207.05014,207.07706,204.65741,200.24493,194.25328,186.27888,175.24274,160.51929,143.25983,126.79111,115.50185,112.69913,118.7548,130.80548,144.28186,155.28976,162.26367,165.84615,167.26875,166.64888,162.68118,154.07434,141.57474,128.71812,120.22668,118.79129,122.52484,125.35065,120.74392,106.68907,88.282951,75.376724,75.714348,87.337822,95.305,75.840149,6.7876859,-120.81355,-296.4635,-493.11096,-678.11035,-826.59949,-930.38873,-998.13232,-1047.5342,-1094.5929,-1145.963,-1197.9895,-1241.6952,-1269.6893,-1280.5427,-1278.5286,-1269.9183,-1259.0089,-1246.615,-1231.5177,-1213.11,-1192.8221,-1173.1587,-1155.241,-1137.0033,-1113.7135,-1080.6887,-1036.345,-983.36829,-927.09387,-872.1759,-819.8551,-767.69977,-711.92914,-650.61084,-585.46716,-521.09302,-462.27509,-411.40826,-367.78897,-329.02039,-293.09164,-259.19321,-226.44577,-191.64577,-148.3748,-89.278839,-11.132713,80.123627,168.0937,230.54866,248.80049,217.46547,149.26768,71.603905,15.771152,3.7668421,39.109261,106.24064,178.72623,232.00046,254.22821,250.06853,235.99661,230.21971,242.78804,271.008,302.14502,321.4437,320.81299,303.43887,281.98331,271.51773,281.05673,308.1601,339.366,356.20013,343.75131,297.6615,226.30124,147.31071,80.324455,39.301224,27.792383,38.891529,59.392357,75.907639,80.119469,71.0634,53.915298,36.356079,24.51757,20.426531,21.9118,24.643356,24.966633,21.940195,17.560087,15.23034,17.531706,24.707273,34.812126,45.424137,55.795826,67.971939,85.967697,113.30147,150.2859,192.78506,233.38806,264.53885,281.9505,286.39398,282.87115,277.7131,275.33603,276.49582,278.86221,279.26718,276.02344,269.8497,263.01425,257.53796,253.83757,250.72278,246.59488,240.83653,234.34242,228.88551,225.92435,225.8186,227.9767,231.61395,236.27753,241.55998,246.272,248.04233,244.17828,233.61247,218.61319,204.63487,197.7028,200.53172,209.90619,217.55817,214.75676,198.23714,173.70195,154.10048,152.89796,175.82596,216.01384,255.8428,275.0899,261.16165,215.78871,154.40202,98.488777,65.095795,59.058655,71.753319,86.413055,86.61644,63.356949,17.558105,-42.194695,-104.46628,-159.39008,-200.86053,-226.48972,-236.54762,-233.10371,-219.70651,-201.09026,-182.29138,-167.18515,-157.18365,-150.98073,-145.61475,-138.21207,-127.29744,-112.90253,-95.623062,-75.560989,-52.132973,-24.986158,4.6966009,33.65274,57.452412,72.524506,78.08313,76.688522,73.004753,71.465431,74.237221,80.629974,88.135513,94.265587,97.97506,99.893234,101.46657,103.79341,106.97476,110.27848,112.78271,113.90546,113.47589,111.479,107.87884,102.77415,96.728271,90.83989,86.271393,83.439606,81.493118,78.646271,73.360649,65.654243,57.541649,52.069351,51.368965,54.95462,59.511822,60.554081,55.080162,43.595333,30.135448,20.140432,17.396454,21.893866,29.893492,36.108818,36.607075,30.662142,20.574301,9.8439436,1.1052963,-4.7810168,-8.0525408,-8.5735903,-4.9282651,5.0292263,22.426306,45.681534,70.228775,90.125702,100.74115,100.93962,93.442749,83.17601,74.642464,69.891335,68.156349,67.111534,64.714668,60.409344,55.084675,50.125458,46.440002,44.179207,43.175598,43.516018,45.602169,49.57056,54.589481,58.772022,60.020962,57.357533,51.783894,45.928288,42.540924,42.772655,45.424423,47.758045,47.390064,43.998859,39.653305,37.49815,39.675835,45.909927,53.719681,60.08514,63.359039,64.065926,64.06823,64.807419,66.040939,66.138786,63.802032,59.88718,57.763027,61.563469,73.234665,90.332054,106.28863,113.3974,106.953,88.081551,63.427296,41.716393,29.133656,26.202101,27.96126,27.255705,19.114105,3.63743,-14.183142,-27.419271,-31.057341,-24.525776,-11.644814,1.6683666,10.405157,12.48266,8.8905411,2.257767,-5.076436,-12.362599,-20.560152,-31.447495,-46.341003,-65.068428,-85.591652,-104.37791,-117.40195,-121.50687,-115.70029,-101.85889,-84.393875,-68.799629,-59.572205,-58.436634,-63.81818,-71.916412,-78.859024,-82.746475,-84.409515,-86.446655,-91.163673,-98.737694,-106.80398,-111.76463,-111.00742,-104.6181,-95.472313,-87.618431,-83.948341,-84.601479,-87.072609,-87.911789,-84.916847,-78.448853,-71.098701,-65.988976,-64.82682,-66.921005,-69.716461,-70.437187,-67.775734,-62.605373,-57.346813,-54.448063,-54.924179,-57.793571,-60.663971,-61.052925,-57.667225,-50.975086,-42.85862,-35.632843,-30.991138,-29.38376,-30.046667,-31.56093,-32.606392,-32.546337,-31.612831,-30.667185,-30.695745,-32.297729,-35.401371,-39.317261,-43.064323,-45.768925,-46.919685,-46.374222,-44.191517,-40.48386,-35.451321,-29.58779,-23.853456,-19.554892,-17.839811,-19.01564,-22.128326,-25.190569,-26.094774,-23.77949,-18.95406,-13.85097,-11.027946,-11.860775,-15.644482,-19.924057,-21.946159,-20.39753,-16.354982,-12.804399,-12.953989,-18.328545,-27.793081,-38.096336,-45.593166,-48.09486,-45.760143,-40.588554,-34.973419,-30.321821,-26.605474,-22.997969,-18.986765,-15.056469,-12.410319,-11.949026,-13.31041,-14.765261,-14.161947,-10.341422,-4.0559931,2.2907109,5.9904876,5.6340399,1.9480705,-2.6686728,-5.6042552,-5.5512848,-3.1416981,-0.35844675,0.82580793,-0.31933779,-2.9247966,-5.1663818,-5.4026241,-3.0594976,1.2145785,6.0685267,10.185946,12.763154,13.558404,12.694532,10.514888,7.6206884,4.9452777,3.6118989,4.488863,7.6641264,12.235914,16.672283,19.600904,20.540766,20.068844,19.282959,18.930838,18.847534,18.149977,16.088284,12.936404,10.210984,9.9398165,13.378344,20.016088,27.590824,33.192966,34.8214,32.438992,27.89311,23.795633,22.101185,23.250664,26.300821,29.780544,32.587975,34.345787,35.139584,35.058472,34.051796,32.254086,30.424244,29.93198,32.020351,36.686035,41.977097,44.407921,40.523788,28.834181,10.952812,-8.8501501,-25.548826,-35.680305,-38.772274,-37.116188,-34.135242,-32.416504,-32.582146,-33.533863,-33.681919,-32.195686,-29.443207,-26.474241,-24.11722,-22.488008,-21.30904,-20.736414,-21.933054,-26.765266,-36.650993,-51.278564,-68.131752,-83.310547,-93.307068,-96.736183,-94.986198,-91.381393,-89.339508,-90.593941,-94.475029,-98.577209,-100.31879,-98.433716,-93.569649,-87.766235,-83.244423,-81.261589,-81.635651,-83.076668,-84.007332,-83.362221,-80.980835,-77.507538,-73.971764,-71.316666,-70.076912,-70.275352,-71.507034,-73.139969,-74.557861,-75.367493,-75.494659,-75.122581,-74.500816,-73.736427,-72.710625,-71.198547,-69.132622,-66.829918,-64.993355,-64.423576,-65.570435,-68.185036,-71.306541,-73.638802,-74.144447,-72.551254,-69.507248,-66.310188,-64.356194,-64.577255,-67.110649,-71.303062,-75.992744,-79.918098,-82.09613,-82.06987,-79.987892,-76.523552,-72.666977,-69.445206,-67.645821,-67.625038,-69.253738,-72.004181,-75.130936,-77.8843,-79.7118,-80.426079,-80.311554,-80.109756,-80.806671,-83.201172,-87.367592,-92.268112,-95.802307,-95.424286,-89.151283,-76.502106,-58.840366,-38.855015,-19.38154,-2.1811452,12.627476,26.139839,39.496674,52.712044,64.278168,71.867073,73.752914,70.084221,63.173225,56.544247,53.244251,54.389416,58.791203,63.852745,67.15847,67.785637,66.586113,65.366325,65.585091,67.448517,69.960754,71.823746,72.51992,72.822266,74.390923,78.736023,86.22995,95.786232,105.36216,112.92184,117.26535,118.30857,116.81799,113.93767,110.86536,108.76845,108.73199,111.47218,116.79934,123.17574,127.86302,127.89613,121.56538,109.60629,95.272186,83.009392,76.290314,75.763474,78.824524,80.960396,78.189522,69.237457,56.196411,43.281689,34.412842,31.034616,31.434107,31.903955,29.005518,21.565004,11.253354,1.4940614,-4.5540614,-5.693223,-3.0948255,0.7047435,3.4863348,4.6248817,5.2155023,7.0726128,11.320609,17.495144,23.692705,27.624767,27.891418,24.707764,19.702162,14.982458,12.068692,11.296682,11.948945,12.917508,13.428692,13.400816,13.291846,13.619983,14.506855,15.528108,15.934064,15.078566,12.794531,9.5144348,6.091558,3.4330738,2.1317904,2.2600055,3.3976135,4.8587399,6.002007,6.483686,6.3460989,5.9121928,5.5508499,5.4434438,5.483036,5.3646436,4.8119783,3.7977846,2.6108384,1.7137558,1.4717773,1.9252591,2.7622862,3.5230503,3.9122593,4.0130157,4.2482123,5.096508,6.7371631,8.8584061,10.771102,11.777985,11.581247,10.478407,9.2218323,8.6223021,9.1302509,10.634501,12.577896,14.297033,15.371812,15.789917,15.866169,16.009806,16.504141,17.418957,18.66221,20.084515,21.539518,22.871901,23.886402,24.375946,24.232887,23.578882,22.801991,22.430603,22.883425,24.235298,26.152958,28.061111,29.453794,30.165506,30.433231,30.708874,31.340525,32.325863,33.295189,33.734398,33.305672,32.064514,30.442095,29.01244,28.195522,28.076361,28.433922,28.934654,29.347057,29.637209,29.900703,30.204128,30.467514,30.481699,30.050913,29.155607,28.010406,26.961485,26.280302,25.989735,25.848476,25.521721,24.840578,23.980034,23.418066,23.665073,24.902847,26.753328,28.351404,28.735252,27.375952,24.556543,21.356142,19.190464,19.108885,21.21102,24.516878,27.401041,28.393427,26.929771,23.639215,19.99901,17.539295,17.042139,18.187607,19.840977,20.795046,20.509315,19.391914,18.455652,18.572557,19.808111,21.270969,21.592123,19.748697,15.726041,10.60856,6.0447998,3.4174755,3.2186792,4.9800096,7.7409849,10.701248,13.612252,16.675522,20.074335,23.526327,26.224861,27.253601,26.206741,23.574856,20.588787,18.570379,18.180374,19.046242,20.025061,19.950968,18.398771,15.975786,13.951281,13.455949,14.759786,17.086172,19.077324,19.612671,18.463539,16.380682,14.577982,13.95648,14.565401,15.630338,16.10887,15.401734,13.762854,12.158021,11.677971,12.885196,15.496678,18.574665,21.073681,22.384457,22.54838,22.053234,21.396013,20.73156,19.8384,18.397211,16.357834,14.114825,12.350471,11.638368,12.069557,13.153986,14.071925,14.123439,13.099234,11.351907,9.5414429,8.2313261,7.591383,7.3751974,7.1519742,6.6131296,5.7461233,4.7790713,3.9649165,3.3754539,2.8495226,2.114131,0.9701913,-0.60157663,-2.4826121,-4.5498552,-6.7706485,-9.1661482,-11.668818,-14.005668,-15.741765,-16.504725,-16.258564,-15.42283,-14.708901,-14.732669,-15.635092,-16.969967,-17.964676,-18.015322,-17.106491,-15.873504,-15.24615,-15.887662,-17.785454,-20.258554,-22.375504,-23.50596,-23.644323,-23.303768,-23.076145,-23.180927,-23.325808,-22.971907,-21.799965,-20.022839,-18.295992,-17.27067,-17.105486,-17.30232,-17.015135,-15.641363,-13.285414,-10.748093,-9.0136576,-8.5636292,-8.9911985,-9.208313,-8.1406345,-5.4607644,-1.8595091,1.3542126,3.0882447,3.1985965,2.6309383,2.8655026,5.0169563,9.1721544,14.395204,19.391275,23.388359,26.657143,30.333206,35.666718,43.194008,52.360336,61.809898,70.117744,76.469643,80.874069,83.846375,85.878342,87.129791,87.567772,87.393959,87.33197,88.410805,91.25341,95.30603,98.603012,98.400177,92.459984,80.291,63.573582,45.439632,28.969318,15.783528,5.5891933,-3.046138,-11.207462,-18.442879,-22.729525,-21.719681,-14.529281,-2.9040809,9.0867376,16.790163,17.193615,10.347199,-0.83023888,-12.18159,-20.323704,-23.808943,-22.845119,-18.01222,-9.1219015,4.7577944,23.989973,46.711964,68.239594,82.394646,84.35289,73.437874,54.043438,33.821606,19.913363,15.300908,17.4489,20.131029,17.437096,7.5924363,-5.7245903,-15.400592,-15.056302,-2.8731363,17.203066,37.560032,51.005646,54.382622,49.633671,41.874161,35.858646,33.114464,31.44816,26.935501,16.93276,2.0872974,-13.921498,-26.660906,-33.711826,-36.151318,-37.870758,-43.248165,-54.680824,-71.466042,-90.572067,-108.63286,-123.8118,-136.4054,-147.97742,-159.78053,-171.60982,-181.83812,-188.52873,-190.80067,-189.49997,-186.7449,-184.68323,-184.30255,-185.0574,-185.50516,-184.47801,-181.99825,-179.35477,-178.33139,-180.12263,-184.64035,-190.62312,-196.42342,-200.92365,-203.9863,-206.18115,-208.01917,-209.23959,-208.65118,-204.6644,-196.21027,-183.49817,-168.16217,-152.70853,-139.57507,-130.30873,-125.25707,-123.84218,-125.15044,-128.43262,-133.23065,-139.13597,-145.44316,-151.02744,-154.60994,-155.29326,-153.03935,-148.76152,-143.92033,-139.81468,-136.95787,-134.89505,-132.56924,-129.02434,-124.03736,-118.31582,-113.15195,-109.74052,-108.55428,-109.12494,-110.33415,-111.02686,-110.59138,-109.19334,-107.56518,-106.50319,-106.36654,-106.84171,-107.06899,-106.03615,-103.02956,-97.940811,-91.321457,-84.19545,-77.718582,-72.802803,-69.817184,-68.456398,-67.83284,-66.789543,-64.346512,-60.114494,-54.488766,-48.507584,-43.410526,-40.08931,-38.694977,-38.598358,-38.720833,-38.057693,-36.118652,-33.066658,-29.512306,-26.111511,-23.207684,-20.708366,-18.231422,-15.39715,-12.073983,-8.4372406,-4.8290606,-1.5277854,1.4225737,4.2230945,7.1740122,10.465734,14.029754,17.533169,20.520905,22.634371,23.798897,24.287861,24.629206,25.393646,26.961321,29.377249,32.365261,35.490593,38.382053,40.891647,43.10685,45.221268,47.359188,49.478378,51.419788,53.065723,54.48328,55.931305,57.703403,59.904156,62.319923,64.49408,65.97551,66.576126,66.447968,65.905342,65.100616,63.78754,61.373035,57.276127,51.395508,44.386677,37.543571,32.317837,29.736519,30.044441,32.752598,37.01659,42.071159,47.442539,52.846455,57.921898,62.074345,64.616325,65.157486,63.978611,62.086994,60.832623,61.252319,63.511013,66.783562,69.673943,70.950768,70.1884,67.957863,65.475891,63.930481,63.87236,65.001343,66.433289,67.259422,67.063446,66.113274,65.14856,64.914459,65.720039,67.26651,68.826431,69.658852,69.420334,68.341454,67.072182,66.286491,66.274818,66.767326,67.105042,66.673988,65.350334,63.675354,62.620129,63.040886,65.129684,68.199295,70.969513,72.231644,71.530922,69.471817,67.452309,66.955521,68.779922,72.620972,77.213974,80.938095,82.551994,81.704529,79.027138,75.842323,73.674805,73.766052,76.714645,82.288437,89.43602,96.536278,101.89111,104.34988,103.81406,101.33097,98.638557,97.323524,98.024658,100.14799,102.2903,103.13378,102.26041,100.37109,98.782585,98.564285,99.921303,102.24593,104.76487,107.26559,110.33055,114.90089,121.54108,130.0457,139.76831,150.42276,162.59888,177.30959,194.60449,212.17381,225.22577,228.31911,218.51486,198.0166,174.32341,157.14986,153.37582,162.82063,177.57945,185.81709,178.26668,153.84009,120.97809,93.677025,84.225609,96.694016,124.8633,155.72342,176.43538,180.71178,171.07996,156.08203,144.48627,140.17085,140.60036,139.35651,130.6624,112.8494,88.759537,63.305702,40.257656,20.584412,3.3098049,-12.101993,-23.921299,-28.499393,-22.724733,-6.8837233,14.21333,32.891098,42.241642,39.563213,27.507309,12.271917,0.013316665,-6.3217897,-7.944478,-8.6496944,-11.981647,-19.028048,-28.108049,-36.262459,-41.319584,-43.109089,-43.155483,-43.287079,-44.266842,-45.387798,-45.188637,-42.648277,-37.963139,-32.410858,-27.502676,-24.097126,-22.083841,-20.758282,-19.497831,-18.191341,-17.142761,-16.615858,-16.45311,-16.100197,-15.008414,-13.073468,-10.746858,-8.729969,-7.4997668,-7.0454264,-7.0158558,-7.1377292,-7.5368514,-8.6677179,-10.874426,-13.922997,-16.906662,-18.67148,-18.520193,-16.719007,-14.436031,-13.118083,-13.697145,-16.135281,-19.582884,-23.007233,-25.840752,-28.213064,-30.646034,-33.475822,-36.447735,-38.789223,-39.714031,-39.001022,-37.237762,-35.549313,-34.977165,-35.896519,-37.820595,-39.685238,-40.415607,-39.437634,-36.874344,-33.382431,-29.782242,-26.70348,-24.399446,-22.756426,-21.432297,-20.039164,-18.310987,-16.2211,-14.01675,-12.14069,-11.0449,-10.966404,-11.783658,-13.0509,-14.209323,-14.856442,-14.906063,-14.538996,-13.990631,-13.340931,-12.470146,-11.21277,-9.5773325,-7.8315363,-6.3460464,-5.2862787,-4.3913112,-3.0539792,-0.71194118,2.6864462,6.478951,9.5453939,10.912852,10.337228,8.4662781,6.4468236,5.2135525,4.9294653,4.9630489,4.4269638,2.9075434,0.86280346,-0.62142396,-0.58452016,1.0522726,3.2675352,4.4609823,3.417558,0.099391118,-4.2638941,-7.8725257,-9.4161205,-8.830761,-7.2819028,-6.399497,-7.2649484,-9.7907829,-12.859029,-15.087153,-15.701625,-14.965633,-13.929575,-13.719064,-14.84659,-16.96838,-19.180056,-20.595011,-20.810493,-20.004747,-18.69434,-17.395756,-16.438505,-15.996673,-16.206991,-17.187469,-18.897697,-20.972824,-22.745514,-23.554205,-23.197355,-22.216944,-21.742369,-22.896145,-26.084326,-30.631517,-35.049858,-37.838932,-38.352634,-37.19043,-35.846809,-35.818367,-37.719944,-40.964012,-44.199875,-46.223179,-46.767857,-46.678085,-47.36573,-49.917774,-54.427872,-59.957355,-65.111008,-68.826599,-70.878731,-71.829643,-72.545654,-73.662651,-75.357925,-77.512001,-80.040421,-83.070404,-86.798447,-91.158501,-95.618561,-99.350693,-101.72847,-102.8161,-103.45564,-104.80369,-107.56094,-111.39661,-114.99285,-116.74715,-115.72428,-112.25509,-107.78383,-104.04823,-102.11483,-101.88631,-102.37759,-102.53757,-102.02966,-101.42867,-101.71335,-103.44082,-106.22208,-108.9099,-110.40041,-110.49427,-110.18717,-111.12884,-114.5588,-120.40555,-127.15602,-132.6102,-135.05803,-134.14398,-130.89876,-126.97091,-123.60533,-121.04604,-118.71049,-115.93211,-112.68404,-109.74106,-108.16673,-108.51463,-110.34603,-112.44073,-113.57431,-113.31667,-112.27444,-111.58444,-111.99844,-113.20487,-113.88934,-112.53382,-108.43825,-102.27504,-95.783081,-90.775467,-88.092941,-87.173714,-86.506065,-84.654915,-81.191231,-76.934692,-73.380257,-71.703026,-71.98275,-73.114815,-73.419151,-71.533203,-67.049034,-60.57473,-53.287601,-46.329716,-40.409233,-35.751171,-32.279938,-29.804283,-28.065893,-26.696703,-25.236824,-23.30431,-20.83828,-18.214188,-16.077137,-14.940059,-14.798536,-15.052361,-14.840549,-13.606027,-11.517081,-9.4358358,-8.4145479,-9.0256071,-10.961717,-13.178434,-14.496606,-14.278423,-12.747153,-10.766552,-9.2592106,-8.6709814,-8.8278494,-9.2341681,-9.5460253,-9.8459129,-10.516459,-11.827726,-13.577824,-15.091715,-15.614473,-14.830815,-13.130625,-11.407503,-10.507649,-10.701223,-11.540887,-12.204027,-12.075851,-11.162976,-10.051359,-9.4493647,-9.6522951,-10.31691,-10.708073,-10.238056,-8.9086227,-7.3362346,-6.3397512,-6.3816471,-7.2559819,-8.2384272,-8.5864639,-8.0355873,-6.9498305,-6.0363364,-5.8396435,-6.3738413,-7.1363111,-7.4679008,-6.9877028,-5.8014231,-4.3687739,-3.167228,-2.4186215,-2.064029,-1.958104,-2.0805228,-2.5650213,-3.5171404,-4.7873087,-5.9230061,-6.3891811,-5.922718,-4.7542892,-3.505754,-2.8080475,-2.9054499,-3.5395596,-4.2053385,-4.5852647,-4.8165207,-5.3590698,-6.5393038,-8.1169395,-9.2423611,-8.8999081,-6.5556016,-2.5315478,2.2146571,6.802124,11.131862,16.026848,22.608389,31.266081,40.940006,49.313354,53.946644,53.729168,49.730495,44.837055,42.295147,43.984669,49.45229,56.28627,61.593647,63.668163,62.84465,61.07275,60.552441,62.331581,65.729195,68.873375,69.929703,68.20813,64.493568,60.494587,57.855499,57.374535,58.836342,61.415176,64.269409,66.931358,69.34774,71.708588,74.294594,77.439995,81.50898,86.726974,92.862953,98.993523,103.66035,105.52998,104.27801,101.13454,98.602707,99.322258,104.62658,113.63755,123.51286,130.79961,133.16191,130.48987,124.75217,118.71677,114.34413,111.8209,109.74983,106.25681,100.22036,91.8311,82.214615,72.517822,63.196064,54.026844,44.789532,36.025063,29.212093,26.124319,27.757654,33.579456,41.676498,49.772049,56.462536,61.835751,67.026993,72.995888,79.372925,84.231712,85.061653,80.413078,71.188148,60.695065,53.297588,52.338123,58.467659,69.30407,80.595673,88.242317,90.100319,86.688271,80.564095,74.85228,71.769379,71.866203,74.218422,77.272751,79.781624,81.334518,82.308205,83.395149,85.048248,87.150154,89.044006,89.867912,89.007965,86.454941,82.901833,79.524651,77.516434,77.56031,79.483406,82.283951,84.564415,85.193054,83.867981,81.273865,78.720749,77.442429,77.939667,79.744553,81.743347,82.861092,82.687981,81.662216,80.704948,80.554863,81.247925,82.095924,82.189842,81.098824,79.289047,77.950119,78.295525,80.754707,84.570091,88.081947,89.568481,88.164146,84.324089,79.568855,75.667221,73.734711,73.752182,74.737717,75.412453,74.930473,73.246292,70.952118,68.752754,66.95134,65.277229,63.143826,60.143124,56.44075,52.808777,50.265583,49.533497,50.630409,52.827908,54.994331,56.127716,55.790775,54.231525,52.157505,50.31916,49.145523,48.620861,48.435349,48.278767,48.070511,47.972439,48.181519,48.65295,48.965027,48.458748,46.609123,43.415993,39.553982,36.138187,34.189232,34.082428,35.30862,36.715538,37.118954,35.942371,33.509972,30.816332,28.911821,28.280384,28.591543,28.971741,28.609486,27.296589,25.553696,24.262762,24.053261,24.847769,25.864534,26.07226,24.801403,22.126547,18.800789,15.820956,13.92731,13.343845,13.861198,15.111863,16.775745,18.557213,20.00466,20.41136,19.00029,15.368297,9.9147062,3.9069672,-0.97442514,-3.4270308,-3.2052534,-1.2551482,0.81625903,1.6419125,0.82548511,-0.94145817,-2.4313242,-2.7291784,-1.8214756,-0.54947144,0.020601366,-0.62849391,-2.0761964,-3.2253754,-3.041266,-1.2791936,1.2762841,3.2137303,3.2775006,1.0399296,-2.9306421,-7.4582233,-11.408231,-14.175554,-15.750339,-16.414242,-16.360542,-15.539352,-13.819554,-11.300034,-8.4870319,-6.1612058,-5.0002489,-5.2168889,-6.4735594,-8.1428041,-9.7375565,-11.215052,-12.948775,-15.398508,-18.720312,-22.596294,-26.403353,-29.5979,-32.042217,-34.043423,-36.082722,-38.43206,-40.932396,-43.090305,-44.423561,-44.812195,-44.610886,-44.448322,-44.857361,-45.992332,-47.620434,-49.375202,-51.074707,-52.865917,-55.08717,-57.948639,-61.267651,-64.464539,-66.846062,-68.00132,-68.050247,-67.576202,-67.28083,-67.580833,-68.401405,-69.287956,-69.748169,-69.591042,-69.042511,-68.575264,-68.583138,-69.128212,-69.930176,-70.596596,-70.928436,-71.086502,-71.501534,-72.584068,-74.423103,-76.669983,-78.684174,-79.853203,-79.896355,-78.980827,-77.600044,-76.303818,-75.442467,-75.056252,-74.940544,-74.816666,-74.497528,-73.967575,-73.361954,-72.882195,-72.698524,-72.871918,-73.309639,-73.765457,-73.899773,-73.404648,-72.16143,-70.355972,-68.467766,-67.10276,-66.737122,-67.519142,-69.270363,-71.715889,-74.813446,-78.948387,-84.805214,-92.914551,-103.10424,-114.20074,-124.23501,-131.13292,-133.57123,-131.54564,-126.33103,-119.85012,-113.80585,-109.06179,-105.5853,-102.90546,-100.71484,-99.174622,-98.713005,-99.48513,-100.92703,-101.79968,-100.79153,-97.344429,-92.163521,-87.023041,-83.903198,-83.923531,-86.69014,-90.441948,-92.906998,-92.36631,-88.332855,-81.53376,-73.338287,-65.095551,-57.826603,-52.387547,-49.830139,-51.520088,-58.756863,-72.043663,-90.488846,-111.82567,-133.18237,-152.24118,-168.12477,-181.46178,-193.56044,-205.17018,-215.58357,-222.64828,-223.72485,-217.06845,-202.86571,-183.36133,-162.02417,-142.21609,-126.04737,-113.93402,-104.95392,-97.690331,-91.073662,-84.835701,-79.462624,-75.792763,-74.522453,-75.844994,-79.327148,-84.015274,-88.701447,-92.259315,-93.951202,-93.607483,-91.60743,-88.662437,-85.498077,-82.591423,-80.092972,-77.949493,-76.113495,-74.669136,-73.771873,-73.448837,-73.431519,-73.191841,-72.213295,-70.343399,-67.978889,-65.91449,-64.902077,-65.176422,-66.256645,-67.177223,-67.030907,-65.496422,-63.020802,-60.538631,-58.903221,-58.385967,-58.551643,-58.573254,-57.77253,-56.040672,-53.887299,-52.111843,-51.324768,-51.619003,-52.571609,-53.53693,-54.022907,-53.92271,-53.495781,-53.157803,-53.236652,-53.832809,-54.82486,-55.96685,-56.994793,-57.695938,-57.946266,-57.739811,-57.209137,-56.60548,-56.212055,-56.212208,-56.586605,-57.118004,-57.519375,-57.610188,-57.416626,-57.113064,-56.83506,-56.499214,-55.778351,-54.279484,-51.820492,-48.610844,-45.187477,-42.120861,-39.676949,-37.672318,-35.641457,-33.218185,-30.467005,-27.910656,-26.196367,-25.599806,-25.7062,-25.521486,-23.99592,-20.659615,-15.967907,-11.113269,-7.3888578,-5.4767795,-5.0918789,-5.1960092,-4.6433215,-2.8518541,-0.090238221,2.7774162,4.898355,5.9847164,6.4614282,7.134027,8.6179981,10.918339,13.436178,15.38976,16.365019,16.632286,17.024504,18.456793,21.389893,25.562532,30.137569,34.150242,36.979259,38.578533,39.379536,39.977295,40.81739,42.056072,43.622898,45.383274,47.261528,49.251488,51.345501,53.47192,55.507893,57.35714,59.020451,60.589882,62.162796,63.743458,65.218636,66.440231,67.362228,68.126877,69.020981,70.312218,72.066681,74.073151,75.937286,77.299019,78.044487,78.386292,78.769958,79.672371,81.416069,84.096138,87.628784,91.849319,96.569977,101.56236,106.50943,111.01074,114.68955,117.36432,119.17703,120.57393,122.11878,124.229,126.98438,130.12041,133.20453,135.87936,138.02022,139.72,141.13571,142.321,143.16516,143.46448,143.04274,141.79808,139.62187,136.26234,131.2919,124.29953,115.27217,104.95146,94.887459,87.033333,82.989143,83.251869,86.896629,91.926376,96.172638,98.307526,98.437408,97.959534,98.762505,102.20929,108.44685,116.38132,124.27033,130.55191,134.44383,136.04236,135.9798,134.94719,133.40378,131.59589,129.75517,128.22795,127.38029,127.34667,127.85986,128.37199,128.4592,128.24977,128.53188,130.37123,134.40698,140.26437,146.51654,151.31401,153.36346,152.66862,150.54593,148.85989,148.92281,150.74118,153.09506,154.41504,153.90338,152.17221,150.96529,152.11099,156.35245,162.79062,169.30118,173.68156,174.84006,173.32803,170.93547,169.6396,170.55463,173.47273,177.17796,180.24396,181.78882,181.77586,180.7971,179.59964,178.71147,178.36801,178.68642,179.87547,182.29805,186.36061,192.34045,200.27312,209.92441,220.78049,232.00185,242.39896,250.57776,255.35368,256.33115,254.33119,251.31371,249.67462,251.18933,256.164,263.31354,270.48718,275.84683,278.80878,280.20816,281.65045,284.53793,289.43588,296.14182,304.26123,313.68906,324.46866,336.02176,346.33923,351.9292,348.91907,334.92245,310.63916,280.13492,249.43521,224.05829,206.7776,196.79539,190.68756,184.46794,175.56187,163.69855,150.52679,138.55034,130.2319,127.71516,132.92822,147.43562,171.63374,203.58067,238.36241,268.88574,288.2366,292.68704,283.78339,268.20526,255.18716,252.6183,263.69153,285.70917,311.52972,332.81909,343.4863,341.79483,330.47049,315.12146,301.9155,295.50592,297.81931,307.8457,322.25797,336.56955,346.51242,349.28491,344.31259,333.2738,319.4082,306.43155,297.5296,294.77203,298.96118,309.66193,325.16977,342.46323,357.487,366.10413,365.63,356.2825,341.61609,327.38635,319.18591,320.04733,329.37857,343.85431,359.6427,374.43735,387.87399,400.04544,409.25031,410.79456,398.04929,365.39264,311.20477,238.82681,154.63115,64.31443,-30.139469,-130.67308,-240.22546,-358.51764,-479.43509,-591.98431,-684.51056,-749.71063,-787.42596,-803.64844,-806.62775,-802.75415,-794.79541,-783.20398,-768.94708,-755.27747,-746.79187,-746.32385,-752.04877,-757.2641,-753.51141,-735.29755,-703.3877,-664.46558,-627.3634,-598.38263,-578.81525,-566.19122,-558.13934,-555.90869,-564.87451,-591.53918,-639.07935,-704.57391,-779.90033,-855.74762,-926.06885,-990.10382,-1050.9301,-1111.9906,-1174.373,-1236.8074,-1298.0593,-1359.3582,-1424.3185,-1495.7272,-1571.2001,-1641.1018,-1691.0527,-1708.3871,-1689.0293,-1640.4918,-1578.7607,-1520.5171,-1475.0679,-1440.6135,-1406.8384,-1361.9746,-1299.8998,-1223.0933,-1140.1067,-1059.6907,-985.60931,-915.36713,-843.27704,-765.46265,-683.33801,-603.3822,-533.5907,-479.07098,-439.54022,-409.99057,-383.67624,-355.30371,-322.58752,-285.76019,-246.04739,-204.55499,-162.30133,-120.96791,-83.294571,-52.385624,-30.195669,-16.283417,-7.8786249,-1.402007,5.5103412,12.862285,18.840637,21.658438,21.358347,20.228481,21.449192,26.858511,35.400444,43.418182,46.73695,43.275402,34.543999,25.082022,20.17654,23.243893,34.382595,50.797749,68.62722,84.93544,98.722473,110.57761,121.50694,131.88766,141.2381,148.80884,154.41696,158.84492,163.51988,169.74123,178.02817,188.02599,198.97885,210.38248,222.34615,235.44647,250.22987,266.74103,284.38358,302.14987,319.00681,334.17694,347.20703,357.91702,366.39526,373.09573,378.91263,385.03302,392.49866,401.65845,411.87231,421.75363,429.91943,435.84634,440.27588,444.82245,450.91815,458.68771,466.47479,471.41745,470.86389,463.88947,452.05441,438.92538,428.55615,423.69876,424.65683,429.32919,434.34222,436.61789,434.57071,428.4245,419.67395,410.15634,401.30289,393.89828,388.2861,384.69052,383.32904,384.23035,386.94571,390.44952,393.39658,394.63828,393.69666,390.90012,387.09665,383.13269,379.43048,375.91925,372.32901,368.6153,365.20261,362.86655,362.31744,363.73877,366.55356,369.54382,371.24905,370.44888,366.5506,359.80209,351.33261,343.02008,337.13303,335.68756,339.58023,347.76501,356.90363,361.86423,357.12906,338.71439,305.85651,261.70401,212.62914,166.36658,129.70105,106.59319,97.389748,99.259964,107.51046,117.18087,124.37263,127.00667,124.96646,119.74294,113.74695,109.4621,108.63309,111.7109,117.74409,124.77023,130.5596,133.403,132.62531,128.66223,122.76443,116.54646,111.58808,109.16051,110.0175,114.18272,120.78102,128.08521,133.9304,136.44234,134.75624,129.28896,121.3153,112.02915,101.67155,89.374321,73.979607,55.442387,35.921501,19.686123,11.580407,14.673065,28.332859,47.893684,66.290024,76.978958,76.735916,66.948654,52.81736,40.940197,36.518501,41.468571,54.126045,70.384659,85.511887,95.790123,99.458488,96.870972,90.05732,81.909065,75.15387,71.306778,69.925926,68.592201,63.868622,53.031292,35.824551,15.257627,-3.2020094,-13.860585,-13.41319,-2.5518029,14.366713,31.464191,44.119644,50.825272,53.118198,53.760525,54.411568,54.327229,50.941753,41.960571,27.597441,11.454415,-0.64465815,-3.3122897,5.7104344,24.302938,46.789017,66.314651,77.495155,78.079872,69.093719,53.787457,36.217888,20.167999,8.6161413,3.5099101,5.5219316,13.747702,25.646069,37.575275,45.94928,48.556107,45.333801,38.125225,29.531012,21.551207,14.845208,9.0204163,3.6535397,-0.76225537,-2.7014813,-0.48923033,6.379745,16.410217,26.41695,32.895733,33.669235,28.825771,20.415985,11.16294,3.0443175,-3.3744755,-8.5357141,-12.834188,-15.749861,-15.830196,-11.557605,-2.5072491,10.002142,23.2155,34.023125,40.156307,40.830238,36.600582,28.735971,18.659153,7.8162303,-2.1250215,-9.196619,-11.574306,-8.5202112,-1.3051184,6.5877843,10.36195,5.6562195,-9.6640787,-34.579353,-65.318733,-96.848747,-124.6534,-145.94411,-159.85963,-166.82964,-167.69431,-163.16881,-153.87741,-140.74298,-125.2962,-109.57959,-95.646797,-84.950584,-77.982605,-74.35347,-73.225426,-73.819466,-75.717628,-78.838242,-83.15596,-88.356201,-93.615982,-97.625313,-98.864555,-96.06723,-88.728058,-77.465904,-64.049217,-50.978439,-40.699261,-34.725937,-33.063255,-34.231606,-35.926876,-36.020752,-33.416397,-28.347481,-22.01432,-15.813362,-10.616772,-6.4837518,-2.8930628,0.72773296,4.5436759,8.1924791,11.02198,12.481978,12.410538,11.071877,8.9844151,6.691021,4.607976,2.989279,1.9558867,1.5285996,1.6532513,2.2448254,3.2549391,4.7032337,6.5876899,8.6569633,10.164912,9.8215313,6.0998507,-2.1530588,-15.094097,-31.633316,-49.769619,-67.381126,-83.032425,-96.322304,-107.57875,-117.14465,-124.78667,-129.6868,-131.06432,-129.00218,-124.85144,-120.82713,-118.95055,-119.9707,-122.9721,-125.96938,-127.15385,-126.01915,-123.65382,-122.02104,-122.70047,-125.90734,-130.4054,-134.33054,-136.34964,-136.38771,-135.48331,-134.93713,-135.38042,-136.40387,-136.96184,-136.21844,-134.2144,-131.89436,-130.50766,-130.83112,-132.75468,-135.47197,-138.0658,-140.01433,-141.25351,-141.82071,-141.4628,-139.63397,-135.99008,-131.03961,-126.38841,-124.21427,-126.12843,-132.07036,-139.97868,-146.57704,-148.93674,-145.96404,-138.95218,-130.86511,-124.76176,-122.26634,-122.93607,-124.81767,-125.77543,-124.75514,-122.25623,-119.82001,-118.94664,-120.15342,-122.72714,-125.24232,-126.44461,-125.92237,-124.18708,-122.19011,-120.64423,-119.58976,-118.43749,-116.39911,-112.99522,-108.33372,-103.04161,-97.960091,-93.827271,-91.117538,-90.049545,-90.640213,-92.668442,-95.520111,-98.031738,-98.522003,-95.13504,-86.445549,-72.092094,-53.126938,-31.858007,-11.181694,6.3441138,19.291887,27.671755,32.631584,35.726727,38.150711,40.324986,42.030087,42.936726,43.149799,43.368149,44.510559,47.026196,50.363838,53.036911,53.378704,50.624943,45.676064,40.990234,39.522591,43.20153,51.766773,62.655945,72.06591,76.650116,74.944786,67.778931,57.524837,46.721882,36.937618,28.514187,21.229275,15.284339,11.822113,12.510052,18.389744,28.744516,40.808693,50.665398,54.950207,52.451702,44.715168,35.304703,28.127712,25.720448,28.354038,34.301773,40.952808,46.059704,48.47126,48.12566,45.553612,41.363171,36.050949,30.150309,24.450617,19.990364,17.735489,18.124063,20.783546,24.623302,28.260727,30.537546,30.859993,29.247744,26.171185,22.347279,18.602015,15.771449,14.540573,15.184261,17.326248,19.927954,21.645124,21.460505,19.267717,16.029364,13.338524,12.572329,14.108758,17.082071,19.848957,20.907177,19.723272,16.977524,14.09282,12.355084,12.172114,12.911423,13.380357,12.616164,10.485291,7.744525,5.568491,4.8650384,5.7878952,7.6887407,9.4659824,10.058071,8.8122158,5.6036129,0.75719136,-5.0957351,-11.137729,-16.473907,-20.290325,-22.077904,-21.841074,-20.157883,-18.011005,-16.440821,-16.186398,-17.488728,-20.122656,-23.580099,-27.255239,-30.533859,-32.813599,-33.568901,-32.539532,-29.982561,-26.797983,-24.341162,-23.905909,-26.099695,-30.467728,-35.63282,-39.931549,-42.215763,-42.362511,-41.193489,-39.862537,-39.09988,-38.789364,-38.137196,-36.306858,-33.094276,-29.194841,-25.881916,-24.295774,-24.787086,-26.715725,-28.813795,-29.875999,-29.361809,-27.580381,-25.405354,-23.743271,-23.087502,-23.384283,-24.21587,-25.122595,-25.847998,-26.392342,-26.905985,-27.538221,-28.34095,-29.248758,-30.095892,-30.630159,-30.529926,-29.464876,-27.222879,-23.862333,-19.797693,-15.736691,-12.465801,-10.574701,-10.253534,-11.256948,-13.033933,-14.939967,-16.428635,-17.16519,-17.065144,-16.2875,-15.191291,-14.234252,-13.801175,-14.007899,-14.589487,-14.97939,-14.59182,-13.177724,-11.039254,-8.9383049,-7.7146339,-7.8260636,-9.0979004,-10.850698,-12.330608,-13.158654,-13.497005,-13.826117,-14.506433,-15.460149,-16.227505,-16.372969,-15.939031,-15.577989,-16.203932,-18.360701,-21.743361,-25.250092,-27.593786,-28.097141,-27.118391,-25.754545,-24.935324,-24.452738,-22.574297,-16.575991,-3.9909701,16.062603,42.170292,70.884621,97.809425,118.97755,131.94815,136.29704,133.50356,126.43761,118.65092,113.5774,113.70663,119.87801,130.96378,144.20082,156.19907,164.28845,167.59909,167.32111,165.98792,166.15823,169.20914,174.8703,181.67194,187.93423,192.64612,195.73331,197.67668,198.88412,199.33873,198.77777,197.21233,195.30972,194.24504,195.0247,197.70805,201.08826,203.13167,201.98309,196.95778,188.92339,179.84404,171.77066,165.88258,162.11885,159.54192,157.12337,154.42007,151.7383,149.75081,148.88014,148.87425,148.83414,147.64386,144.51448,139.32269,132.58989,125.17543,117.89914,111.29418,105.56427,100.68382,96.521614,92.904106,89.614212,86.379059,82.900566,78.937866,74.401985,69.405045,64.227829,59.21394,54.639236,50.621319,47.116585,44.008305,41.235847,38.881554,37.143959,36.190426,35.970249,36.124157,36.095669,35.429996,34.100372,32.632034,31.874233,32.478596,34.358292,36.472904,37.133053,34.71455,28.403208,18.546207,6.415534,-6.4424858,-18.838095,-30.151045,-40.04731,-48.003674,-53.109623,-54.421165,-51.706612,-46.056534,-39.820072,-35.725338,-35.599136,-39.430763,-45.373005,-50.706955,-53.189392,-51.969452,-47.581715,-41.177826,-33.684555,-25.581264,-17.45162,-10.769118,-8.0557251,-11.908238,-23.230562,-39.769669,-56.139561,-65.762047,-63.959564,-50.563725,-30.471106,-11.634938,-1.4343646,-3.328284,-15.565141,-32.543945,-47.915154,-57.5881,-61.015522,-60.28756,-57.926758,-54.979771,-50.645073,-43.547302,-33.632282,-23.250889,-16.55736,-17.476244,-27.444597,-44.311623,-63.089504,-78.156693,-85.702301,-85.134949,-78.844757,-70.646996,-63.881237,-60.159058,-59.227936,-59.738022,-60.27636,-60.060604,-59.043701,-57.58427,-56.032959,-54.51244,-52.952717,-51.266151,-49.511101,-47.967144,-47.126163,-47.617085,-50.046165,-54.726921,-61.348351,-68.749344,-75.021057,-78.053093,-76.390602,-70.017113,-60.608311,-51.008492,-44.084431,-41.48444,-42.937241,-46.473545,-49.467777,-49.951962,-47.511124,-43.314266,-39.32259,-37.162354,-37.29911,-38.933613,-40.602715,-41.07827,-40.032257,-38.124527,-36.531254,-36.240833,-37.528831,-39.866501,-42.242867,-43.665756,-43.56377,-41.930611,-39.227291,-36.169235,-33.521828,-31.949642,-31.895138,-33.461399,-36.330326,-39.794361,-42.955482,-45.045345,-45.716103,-45.128319,-43.763859,-42.064636,-40.129101,-37.684483,-34.382763,-30.242165,-25.924343,-22.605581,-21.442926,-22.910379,-26.403357,-30.389208,-33.073898,-33.245605,-30.837618,-26.906408,-23.054852,-20.641178,-20.212379,-21.434654,-23.478451,-25.556656,-27.269398,-28.588638,-29.582327,-30.145962,-29.971096,-28.777386,-26.621113,-24.024479,-21.792671,-20.608694,-20.658281,-21.524691,-22.417524,-22.586544,-21.668245,-19.782307,-17.376467,-14.974463,-13.006227,-11.788246,-11.577187,-12.560517,-14.72343,-17.675886,-20.613382,-22.531399,-22.640995,-20.764486,-17.459139,-13.763677,-10.697361,-8.8032608,-7.9986739,-7.791338,-7.679944,-7.4497757,-7.17309,-6.9559941,-6.6675692,-5.9007187,-4.234539,-1.6266453,1.3620259,3.7187495,4.4690914,3.2318952,0.504421,-2.5018208,-4.3883362,-4.1729102,-1.6673483,2.5138764,7.2501259,11.333461,13.843757,14.407745,13.334515,11.60641,10.658165,11.897313,16.054193,22.633343,29.816633,35.022022,35.977592,31.822485,23.637602,14.059826,6.130444,1.9748569,2.0143647,5.0900326,9.3294458,13.166323,15.902072,17.577997,18.427307,18.438005,17.397888,15.341794,12.933512,11.306599,11.296428,12.530811,13.093003,10.193722,1.6270624,-12.816606,-30.903442,-48.862598,-63.18515,-72.252213,-76.802589,-78.984535,-80.660034,-82.121513,-82.092667,-78.993904,-72.557495,-64.596985,-58.282825,-56.301109,-59.081352,-64.311661,-68.161491,-67.520325,-61.868786,-53.600033,-46.581043,-43.857388,-45.932133,-50.654179,-54.70343,-55.656216,-53.303226,-49.452648,-46.479736,-45.68454,-46.570091,-47.45628,-46.901051,-44.864647,-42.774845,-42.45705,-44.708447,-48.553284,-51.743141,-52.195065,-49.396751,-44.810246,-40.974026,-39.883381,-41.722164,-44.790882,-46.679489,-45.902828,-42.907967,-39.780346,-38.840385,-41.05888,-45.342873,-49.173592,-50.192909,-47.71384,-43.177349,-39.255981,-38.173195,-40.304768,-43.943092,-46.362709,-45.507271,-41.238987,-35.381786,-30.549419,-28.496111,-28.998514,-29.926563,-28.428247,-22.503626,-12.063193,1.0688499,14.098305,24.527512,31.033123,33.586708,32.957939,30.071003,25.652916,20.293074,14.690657,9.7517891,6.3748455,5.0693064,5.7353144,7.8336358,10.865247,14.79982,20.078215,27.112085,35.614128,44.302902,51.338642,55.342464,56.366634,56.087059,56.918064,60.472176,66.328835,72.021141,74.447342,71.959183,65.793068,59.743031,57.979225,62.127312,69.377174,73.001076,65.367241,42.050819,4.8579087,-37.993603,-74.838295,-95.300743,-94.489868,-74.649162,-43.633915,-11.213842,14.827634,30.989563,38.028717,39.199596,38.093903,37.267414,38.04081,41.014336,46.498337,54.375656,63.564053,71.713577,75.70443,72.954643,62.903465,47.768993,31.993746,20.512695,16.660654,20.767981,30.141172,40.406078,47.514557,49.436539,46.781994,42.159336,38.667049,38.264126,40.755207,43.816757,44.036995,38.525341,26.406767,9.5373869,-7.9346337,-21.066267,-26.098438,-22.068384,-11.306278,1.4656874,11.07166,13.997081,9.7265215,0.72779959,-8.8383207,-15.012848,-15.642572,-11.027287,-3.4633334,3.9523239,8.6423101,9.4547491,6.902904,2.7872143,-0.5707742,-1.2065479,1.7534528,7.7250347,14.828333,20.596586,23.016235,21.458677,17.013817,11.967721,8.6155701,8.0235271,9.4622774,10.903405,10.347238,7.2085395,2.8864017,0.095505677,1.2907968,7.1110249,15.806655,24.050188,28.689249,28.417597,24.38072,19.380806,16.194132,16.030853,18.036539,20.058363,20.118093,17.64267,13.723188,10.330777,9.0680666,10.268779,12.958546,15.594748,17.02054,17.002001,16.071703,14.903222,13.7375,12.288539,10.164362,7.4426584,4.9179373,3.769383,4.8175597,7.854001,11.523223,13.910716,13.549917,10.282716,5.4632106,1.3493824,-0.025759948,2.0751233,6.635736,11.284667,13.366904,11.179186,4.7872572,-3.9537103,-12.181825,-17.253262,-17.85182,-14.485943,-9.1638079,-4.4209023,-2.174547,-2.9508009,-5.8316779,-9.101264,-11.216399,-11.578698,-10.718282,-9.8402243,-10.038659,-11.649072,-14.097784,-16.293991,-17.289991,-16.799078,-15.281513,-13.595432,-12.473784,-12.165627,-12.436655,-12.869776,-13.217075,-13.550919,-14.132097,-15.127615,-16.41577,-17.641689,-18.491005,-18.976757,-19.510506,-20.672764,-22.810764,-25.72467,-28.661495,-30.644608,-30.95216,-29.463587,-26.679981,-23.432222,-20.479403,-18.2451,-16.815863,-16.124956,-16.109257,-16.656179,-17.33555,-17.116211,-14.350065,-7.1909471,5.6448517,24.120535,46.544353,69.914238,90.863297,106.80727,116.77103,121.52089,122.97623,123.22971,123.6757,124.64623,125.64899,125.97424,125.27029,123.76401,122.05695,120.6954,119.82854,119.17563,118.2951,116.94324,115.26178,113.66622,112.52399,111.86081,111.3127,110.36686,108.72719,106.5468,104.356,102.72288,101.87131,101.51718,101.04002,99.881485,97.907295,95.493111,93.28051,91.769661,91.020264,90.652138,90.129509,89.124405,87.711594,86.276093,85.217178,84.667007,84.416534,84.082466,83.376724,82.278206,80.993683,79.758507,78.642799,77.511406,76.156281,74.482613,72.59333,70.706017,68.978088,67.393547,65.813148,64.148941,62.508926,61.168297,60.361389,60.04776,59.854736,59.282352,58.051571,56.339985,54.700447,53.679886,53.39296,53.374062,52.858246,51.33292,48.978256,46.652733,45.377781,45.634434,46.946701,48.057678,47.605816,44.855316,39.983974,33.735264,26.694744,18.731358,9.0410872,-3.1972272,-17.997931,-34.173164,-49.692039,-62.606918,-71.963158,-78.11367,-82.265984,-85.608543,-88.626091,-91.035698,-92.297356,-92.233925,-91.251076,-90.003174,-88.82682,-87.473434,-85.43412,-82.630081,-79.856834,-78.463287,-79.315399,-81.743362,-83.386574,-81.375877,-74.366539,-64.175125,-55.765892,-55.203945,-66.465523,-88.86058,-116.66216,-141.36214,-155.46037,-155.77293,-144.50511,-127.62891,-111.64105,-100.60972,-95.069199,-93.064735,-92.324791,-91.981316,-92.768578,-95.793518,-100.96687,-106.35564,-108.99745,-106.64498,-99.24234,-89.11554,-79.736588,-73.866455,-72.253464,-73.632301,-75.870216,-77.375832,-77.813011,-77.753235,-77.701088,-77.355873,-75.737259,-72.097183,-66.895218,-62.005993,-59.846279,-61.890335,-67.534317,-74.115242,-78.178162,-77.286247,-71.310753,-62.45282,-54.02084,-48.715137,-47.403828,-49.001884,-51.368069,-52.571507,-51.776909,-49.355103,-46.350552,-43.775742,-42.175362,-41.605675,-41.864235,-42.70129,-43.871403,-45.088528,-46.03801,-46.508232,-46.535076,-46.379189,-46.271496,-46.085938,-45.23558,-42.987427,-39.084045,-34.260033,-30.199018,-28.780947,-30.957539,-35.935658,-41.273258,-43.99081,-42.159958,-36.065613,-28.212259,-22.092182,-20.367609,-23.486765,-29.515226,-35.259022,-38.012669,-36.93428,-33.314777,-29.684175,-28.355625,-30.259203,-34.649887,-39.704155,-43.526173,-44.954704,-43.816795,-40.685574,-36.469963,-32.139946,-28.648067,-26.878389,-27.430176,-30.242952,-34.313614,-37.825893,-38.808537,-36.078537,-29.960741,-22.316767,-15.775608,-12.525743,-13.307663,-17.148315,-21.957897,-25.622231,-26.97003,-26.116854,-24.091351,-22.068634,-20.714478,-19.997971,-19.486872,-18.838253,-18.122389,-17.78652,-18.332582,-19.959,-22.399397,-25.025064,-27.103895,-28.04838,-27.556013,-25.658695,-22.744871,-19.562965,-17.125406,-16.419662,-17.950329,-21.318062,-25.138687,-27.497503,-26.836958,-22.858736,-16.907724,-11.516498,-9.2421188,-11.36324,-17.145685,-24.114235,-29.223003,-30.313778,-27.092581,-21.137577,-15.002276,-10.964678,-10.110209,-12.166541,-16.025993,-20.510075,-24.875595,-28.82995,-32.201958,-34.636436,-35.607025,-34.751186,-32.251411,-28.927488,-25.907869,-24.061932,-23.565735,-23.897335,-24.263006,-24.153038,-23.634523,-23.180641,-23.177887,-23.499695,-23.500828,-22.484758,-20.331852,-17.815086,-16.304426,-16.973217,-19.994251,-24.281946,-28.024681,-29.740379,-29.209358,-27.657602,-26.997547,-28.529675,-31.889788,-34.938305,-34.755348,-29.240223,-18.416761,-4.6707773,8.2694511,17.089159,20.440363,19.466846,17.051704,16.239134,18.707781,24.094675,30.455301,35.509853,37.93058,37.973984,37.188965,37.46603,40.022617,44.881897,51.057499,57.236614,62.506527,66.715111,70.330238,73.974945,77.97641,82.200813,86.225235,89.677071,92.488869,94.904778,97.259727,99.702888,102.06165,103.93618,104.95805,105.04253,104.47499,103.77994,103.45419,103.72005,104.43319,105.18621,105.54188,105.27095,104.4797,103.57574,103.09676,103.48085,104.873,107.04334,109.45132,111.43755,112.47549,112.38315,111.40042,110.08685,109.07542,108.79285,109.28246,110.21968,111.11015,111.56036,111.47061,111.04663,110.63501,110.4911,110.62339,110.80297,110.71935,110.17352,109.18571,107.96152,106.75828,105.75362,105.00187,104.4871,104.20632,104.19787,104.48347,104.97405,105.4342,105.56717,105.19125,104.39407,103.54234,103.10673,103.38589,104.2954,105.36357,105.95532,105.60208,104.24448,102.24518,100.17078,98.482925,97.32795,96.540306,95.830818,95.012047,94.100471,93.231758,92.463295,91.620293,90.311852,88.123108,84.862175,80.694496,76.064774,71.442741,67.043213,62.688873,57.896172,52.130489,45.082829,36.821663,27.760517,18.488731,9.5720196,1.4119185,-5.8115997,-12.144816,-17.847546,-23.360115,-29.214609,-35.869072,-43.507935,-51.914951,-60.526104,-68.681892,-75.96682,-82.436562,-88.568748,-94.929146,-101.73538,-108.59592,-114.62469,-118.90909,-121.07471,-121.59879,-121.6503,-122.51495,-124.92603,-128.69687,-132.87871,-136.3497,-138.47487,-139.43517,-140.0359,-141.13605,-143.07722,-145.4812,-147.53607,-148.56882,-148.51689,-147.98409,-147.84364,-148.64874,-150.23329,-151.7578,-152.16875,-150.78458,-147.66057,-143.54231,-139.47841,-136.34991,-134.57918,-134.12247,-134.65891,-135.79483,-137.15639,-138.3764,-139.07857,-138.94508,-137.84865,-135.93443,-133.54576,-131.00354,-128.38567,-125.48788,-122.03594,-118.02395,-113.92226,-110.54482,-108.58491,-108.08079,-108.17673,-107.40354,-104.38448,-98.578522,-90.606407,-81.931053,-74.054123,-67.699692,-62.477917,-57.232548,-50.851398,-43.030376,-34.513943,-26.66993,-20.678823,-16.856674,-14.533506,-12.543252,-9.9851885,-6.7492595,-3.4639549,-0.91507566,0.65965211,1.9053726,4.0566134,8.1704779,14.364068,21.557224,27.92573,31.835724,32.726189,31.421345,29.68116,29.240862,30.883732,34.066219,37.289085,38.981827,38.386818,35.953117,33.048367,31.189123,31.244339,33.049759,35.606846,37.699089,38.53989,38.087307,36.890717,35.622799,34.623112,33.742599,32.56707,30.850138,28.853487,27.351862,27.269629,29.147181,32.750664,37.070747,40.744926,42.702084,42.698036,41.455933,40.320873,40.584087,42.803612,46.462433,50.153187,52.23027,51.638477,48.519463,44.27169,40.97464,40.390636,42.989418,47.481709,51.151402,50.90955,44.621624,32.078548,15.112146,-3.2344699,-20.07535,-33.868874,-44.77005,-53.941628,-62.221561,-68.963615,-71.833206,-67.828812,-55.070644,-34.37101,-9.6095057,13.475279,29.598948,36.211273,34.551212,28.89658,24.383055,24.52965,29.745199,37.525982,44.11742,46.641602,44.517483,39.489964,34.417774,31.643047,31.901775,34.301922,37.206161,39.348751,40.477551,41.212723,42.35194,44.171436,46.195511,47.532024,47.481777,45.984749,43.633118,41.304729,39.708164,39.128559,39.460098,40.388889,41.523968,42.397644,42.442085,41.117554,38.241287,34.336266,30.687075,28.901018,30.094511,34.143391,39.503944,43.832096,45.146252,42.902004,38.339256,33.860844,31.771015,33.086372,37.083183,41.796871,45.127014,45.880058,44.185425,41.154404,38.112446,35.930298,34.814796,34.551517,34.894753,35.771061,37.183563,38.978477,40.74342,41.975872,42.408203,42.216663,41.910732,41.948776,42.360428,42.682446,42.297737,40.958195,39.106815,37.726982,37.773193,39.545589,42.436184,45.238712,46.836876,46.830406,45.704578,44.462105,43.993423,44.612354,46.030708,47.712143,49.281372,50.661766,51.862881,52.642761,52.388222,50.393681,46.394253,40.970493,35.482288,31.494829,30.017776,31.027266,33.564106,36.31963,38.304558,39.17313,39.057022,38.138855,36.37854,33.654419,30.206358,26.960705,25.33362,26.473608,30.369631,35.468288,39.209885,39.319756,35.146503,28.209101,21.530809,18.066946,19.115639,23.648836,28.963131,32.254269,32.167706,29.416464,26.156612,24.577652,25.613892,28.542536,31.625643,33.289967,33.049709,31.621378,30.257406,29.830528,30.304634,30.895914,30.722851,29.42977,27.347364,25.139193,23.270277,21.739462,20.273199,18.787579,17.692778,17.725805,19.374266,22.310421,25.31023,26.820654,25.870382,22.731901,18.861076,16.10428,15.659739,17.459053,20.358255,22.975388,24.564734,25.294434,25.722826,25.859844,24.538784,19.659451,9.2871761,-7.0158334,-27.475212,-48.527721,-66.227516,-77.883331,-83.041023,-83.332977,-81.390358,-79.521858,-78.896919,-79.552605,-80.983078,-82.751442,-84.675018,-86.553688,-87.807869,-87.470039,-84.682549,-79.416328,-72.875526,-67.191788,-64.464973,-65.666466,-70.068275,-75.576927,-79.810204,-81.30117,-80.140404,-77.716095,-75.758781,-75.295776,-76.134247,-77.13092,-77.016907,-75.232536,-72.267899,-69.344109,-67.678368,-67.799904,-69.309593,-71.17836,-72.359169,-72.334152,-71.302269,-69.952881,-69.010551,-68.837502,-69.306343,-69.971718,-70.395638,-70.413353,-70.189392,-70.055885,-70.257088,-70.77137,-71.320663,-71.551903,-71.262115,-70.511391,-69.544891,-68.581161,-67.627769,-66.481682,-64.947487,-63.136845,-61.615021,-61.221386,-62.596397,-65.674843,-69.493782,-72.52343,-73.418381,-71.789894,-68.523758,-65.391861,-64.119118,-65.418907,-68.566101,-71.780884,-73.216225,-71.976761,-68.577881,-64.598526,-61.768093,-61.050049,-62.245804,-64.286255,-65.952576,-66.547928,-66.14566,-65.359268,-64.872055,-65.039619,-65.724884,-66.310722,-65.749496,-62.613865,-55.284657,-42.448147,-23.877087,-1.147004,22.244041,41.710545,53.21711,55.008877,48.508858,37.794102,27.81315,22.233152,22.043184,25.615534,30.08305,33.147827,34.252365,34.517155,35.650948,38.648952,43.132702,47.677139,50.789196,51.81744,51.207737,50.034904,49.23756,49.120853,49.409824,49.688053,49.792904,49.845413,49.953667,49.933506,49.381344,48.114979,46.628597,46.105236,47.811012,52.17593,58.184582,63.588551,65.946976,63.935047,58.130512,50.775051,44.634922,41.638779,42.085552,44.824535,48.189922,51.035366,53.232674,55.416843,58.265827,61.854198,65.486488,68.04348,68.550697,66.611931,62.527603,57.153759,51.658344,47.262604,44.939072,45.036625,46.944931,49.059578,49.268711,45.894413,38.647503,28.989422,19.537531,12.716807,9.3975706,8.3697433,7.0505486,3.0521343,-4.3475099,-13.770505,-22.638868,-28.843897,-32.115223,-34.218803,-37.887493,-45.215256,-56.566174,-70.657303,-85.656563,-100.46737,-115.30507,-131.22412,-149.01317,-168.29427,-187.46506,-204.483,-217.89378,-227.3793,-233.5083,-236.98125,-238.0094,-236.30772,-231.66576,-224.60167,-216.55388,-209.44273,-204.92558,-203.87747,-206.40207,-212.21562,-220.94815,-232.03117,-244.29207,-255.76146,-264.15121,-267.94641,-267.44867,-264.91681,-263.4216,-264.90225,-268.58029,-270.81393,-266.63531,-252.13176,-226.26347,-191.07774,-150.35271,-107.73444,-65.677338,-25.777792,10.062285,38.918289,57.542267,64.302536,61.038376,53.261314,48.088707,50.858929,62.451099,79.081902,94.833717,105.35952,110.35648,113.15889,117.72678,125.12527,132.0356,132.54228,122.21751,101.85364,78.23407,61.124043,58.07716,70.128357,91.006226,110.40858,119.45874,115.20797,101.70685,87.261757,79.682617,82.304054,92.844528,105.34729,113.71616,114.71754,108.98325,99.915932,91.542496,86.657387,86.062965,88.87812,93.343803,97.556671,99.923225,99.44957,96.008896,90.51799,84.783981,80.879318,80.23436,82.935158,87.695518,92.590965,96.139473,98.05542,99.197227,100.76318,103.29768,106.19689,108.05611,107.62325,104.71192,100.4615,96.773468,95.291512,96.563293,99.864342,103.71452,106.69699,108.06686,107.8573,106.55779,104.68931,102.58095,100.42557,98.4561,97.017944,96.44149,96.817009,97.872002,99.076561,99.922066,100.18172,99.974884,99.605217,99.305252,99.074425,98.709084,97.971451,96.750771,95.100594,93.15477,91.025864,88.790108,86.568016,84.6073,83.256859,82.809738,83.315193,84.509987,85.944626,87.231972,88.240265,89.080879,89.89341,90.59417,90.800697,90.02594,88.03241,85.09774,81.980225,79.569519,78.428368,78.515038,79.259651,79.930656,80.038544,79.516907,78.597443,77.520737,76.331947,74.921814,73.260635,71.603058,70.450401,70.245796,71.003654,72.163383,72.826202,72.265923,70.391319,67.840034,65.615616,64.48494,64.522202,65.092445,65.275711,64.439362,62.57769,60.211296,57.951118,56.060528,54.333313,52.361149,49.970394,47.478596,45.552124,44.743565,45.037098,45.747566,45.884487,44.766796,42.485142,39.89249,38.107609,37.835011,38.924656,40.437237,41.158188,40.233036,37.551563,33.700691,29.588459,26.0177,23.453674,22.037859,21.712925,22.281755,23.345655,24.234842,24.107042,22.27729,18.634466,13.862383,9.2469339,6.0987253,5.0924892,5.9214096,7.498281,8.5983763,8.5525436,7.5605822,6.4392452,5.9883556,6.4053044,7.1378012,7.2651057,6.1446385,3.8900697,1.3681121,-0.2783654,-0.27484974,1.359439,3.8217692,5.904254,6.4794817,4.8443604,0.84537226,-5.1230588,-12.129001,-18.727648,-23.142813,-23.740664,-19.732122,-11.779167,-2.0749121,6.3378148,10.815996,10.336542,6.001349,0.47934699,-3.3657756,-3.9215512,-1.5408053,1.855224,4.0015192,3.5758152,0.7840457,-3.0384276,-6.4561391,-8.8637896,-10.709774,-12.923976,-16.012856,-19.49482,-22.086245,-22.510077,-20.36587,-16.467161,-12.428929,-9.7970295,-9.2965708,-10.649209,-12.98475,-15.468,-17.667854,-19.459818,-20.656204,-20.780561,-19.26967,-16.00264,-11.728848,-7.9708281,-6.3418932,-7.6835804,-11.634285,-16.994551,-22.69474,-28.688551,-36.065231,-46.169052,-59.231022,-73.45842,-85.346756,-91.238663,-89.313309,-80.810776,-69.665924,-60.650211,-57.026325,-59.033581,-64.034538,-68.169487,-68.502617,-64.428246,-57.639938,-50.872482,-46.316788,-44.669949,-45.241402,-46.806198,-48.477444,-50.005466,-51.440212,-52.59663,-52.871296,-51.622417,-48.824024,-45.436352,-43.107388,-43.309952,-46.45842,-51.606823,-56.953487,-60.831383,-62.539883,-62.500393,-61.701069,-60.882999,-60.066868,-58.729912,-56.443867,-53.444962,-50.674202,-49.238152,-49.683968,-51.625397,-53.996132,-55.745872,-56.480099,-56.610367,-56.965481,-58.21291,-60.543022,-63.803436,-67.859596,-72.749779,-78.388763,-84.023781,-87.986855,-88.195244,-83.321503,-73.949715,-62.838963,-53.866779,-50.093956,-52.093601,-57.678566,-63.350891,-66.664642,-67.998001,-70.500389,-78.109009,-92.811745,-112.90369,-133.42218,-148.57556,-154.69392,-151.8875,-143.44267,-133.46095,-124.36349,-115.8941,-106.16281,-93.843948,-79.864258,-67.322098,-59.667061,-58.427074,-62.106384,-67.059608,-69.757011,-68.884064,-65.85099,-63.42622,-63.533699,-65.820351,-68.007118,-67.71949,-64.40947,-59.915936,-57.214836,-58.254646,-62.476387,-67.158028,-69.417244,-68.488846,-66.641998,-68.011047,-76.043762,-91.217865,-110.48447,-128.72578,-141.20866,-145.48619,-141.76424,-131.92056,-118.24065,-102.8835,-88.223244,-77.282066,-73.280594,-78.087982,-90.478195,-105.65191,-116.89922,-118.84514,-110.4397,-95.726021,-81.68219,-74.313469,-75.388596,-81.86692,-88.316521,-90.634026,-88.521225,-85.068581,-83.847443,-85.694229,-87.619408,-84.783508,-74.267639,-57.971657,-42.403313,-35.130375,-39.924389,-53.615074,-66.737564,-67.801468,-48.896519,-9.6703472,42.217335,94.05291,132.67882,148.59587,138.21516,104.1469,54.181709,-0.4020482,-47.011429,-74.420074,-75.666084,-50.297237,-4.8780413,48.783039,97.145309,128.74464,136.80794,120.03892,82.065285,30.558781,-23.431152,-66.41555,-84.756233,-68.809151,-17.831282,56.937454,133.70505,186.92422,197.33691,160.7961,91.286423,16.076145,-35.168339,-42.348274,-2.4545739,70.571739,153.00851,221.66098,262.40814,273.58859,263.72287,245.67317,230.4294,223.1181,222.28416,221.98296,215.34999,198.144,171.00926,139.66423,112.85626,98.748291,101.19899,117.72134,140.34326,159.20941,167.21701,163.22229,151.99936,140.94124,135.42601,135.6042,136.51077,131.35556,115.88811,91.121521,62.81237,38.181828,22.049032,14.760055,12.972143,12.448277,10.820297,8.5308743,7.583817,9.2692204,12.627891,14.744198,12.573486,4.9369884,-6.7227383,-19.28793,-29.881956,-37.43224,-42.925232,-48.381817,-55.429474,-64.478516,-74.911407,-85.884514,-96.943909,-107.93102,-118.33028,-126.73074,-131.02673,-129.4155,-121.6037,-109.40453,-96.26297,-85.927116,-81.004936,-82.164375,-88.28154,-97.269386,-107.01643,-115.97836,-123.32611,-128.84662,-132.82088,-135.92099,-139.00433,-142.7198,-147.05508,-151.13257,-153.50241,-152.87396,-148.88855,-142.44252,-135.32796,-129.4063,-125.84158,-124.86003,-126.10638,-129.23209,-134.20534,-141.0876,-149.48039,-158.14789,-165.22562,-168.99294,-168.74428,-165.1799,-160.047,-155.26807,-152.12337,-150.96835,-151.54692,-153.53613,-156.8526,-161.52519,-167.35423,-173.77757,-180.17487,-186.40999,-193.10159,-201.21339,-211.04456,-221.22932,-228.50864,-228.64404,-218.13445,-195.84039,-163.61093,-125.56554,-86.447708,-49.947498,-17.80592,10.026006,34.508877,56.546917,76.42849,93.802544,108.00978,118.51185,125.26115,128.94749,131.04018,133.49095,138.04243,145.35382,154.44435,162.96901,168.42462,169.72484,168.14746,166.86974,169.1629,176.29851,186.59688,196.42657,202.65102,204.89792,205.96902,209.89465,218.83586,231.03352,241.4642,245.01199,240.03535,229.64101,219.36455,212.51375,206.40817,192.62158,161.92175,111.34457,48.922848,-7.5117946,-37.652386,-28.531252,18.621838,88.448601,158.48798,209.21222,231.58505,228.4442,209.88464,186.24924,163.19371,141.25439,119.00186,96.568985,76.576286,61.870731,52.173649,42.703648,26.408142,-1.3247868,-38.656567,-76.985985,-104.96997,-114.59094,-105.52319,-85.065788,-63.722424,-49.233356,-42.716698,-39.070698,-31.012836,-13.948344,11.374018,39.761368,65.01445,83.452698,95.382172,103.98778,112.83276,123.79501,136.59883,149.79066,162.07896,172.99971,182.67052,191.20212,198.4969,204.62985,210.32037,216.81082,224.97139,234.23331,242.31828,246.28644,244.42854,237.73438,229.75485,224.69164,224.82678,229.01105,233.35075,233.785,228.90416,221.08128,215.03572,214.65985,220.17155,227.54263,230.7271,225.38728,211.78784,194.98466,182.09351,178.22395,183.4706,192.68495,198.06801,192.99538,174.89975,145.77151,110.35165,73.402893,37.783443,4.305069,-26.903984,-54.7598,-76.610672,-89.179016,-90.499008,-81.587334,-66.678162,-51.666233,-41.444702,-37.500034,-37.065292,-34.373215,-23.492315,-1.4141525,30.103432,64.863312,94.626564,112.49653,115.74091,106.78397,91.985214,78.864319,73.113388,76.729553,87.941612,102.67739,116.6265,126.83849,132.25038,133.23183,130.73741,125.70106,118.9481,111.43908,104.42773,99.246872,96.793068,97.071793,99.166344,101.70658,103.55791,104.29216,104.15855,103.62704,102.87135,101.57902,99.217506,95.537773,90.919319,86.275749,82.561745,80.212822,78.900848,77.768509,75.976967,73.197067,69.732048,66.226395,63.193832,60.696449,58.371117,55.745335,52.596733,49.113167,45.776669,43.087666,41.323853,40.456093,40.203033,40.122105,39.667686,38.248127,35.369904,30.893925,25.28405,19.628614,15.280934,13.194661,13.286165,14.2443,14.01979,10.837383,4.213758,-4.6212754,-13.221473,-19.147083,-21.276207,-20.465746,-19.151936,-20.065481,-24.744116,-32.65868,-41.442722,-48.111629,-50.614731,-48.887383,-44.852463,-41.398048,-40.905376,-44.119793,-49.938412,-56.168865,-60.788818,-62.994358,-63.485714,-63.893387,-65.73027,-69.49501,-74.426743,-79.010605,-81.898537,-82.691986,-82.144653,-81.702339,-82.680946,-85.568588,-89.829933,-94.276428,-97.744453,-99.683388,-100.35772,-100.62258,-101.46765,-103.60548,-107.28481,-112.33316,-118.30505,-124.60831,-130.57368,-135.52841,-138.94728,-140.67532,-141.11385,-141.22437,-142.27826,-145.4213,-151.23993,-159.53127,-169.37907,-179.48666,-188.60199,-195.85101,-200.86641,-203.70929,-204.67007,-204.06921,-202.15659,-199.15277,-195.40108,-191.53174,-188.50325,-187.4169,-189.11032,-193.6907,-200.27568,-207.17676,-212.55321,-215.27359,-215.5239,-214.75888,-214.92688,-217.34161,-221.84782,-226.82227,-230.08063,-230.19452,-227.42204,-223.64996,-221.34328,-222.13535,-225.94373,-231.17557,-235.87863,-239.06065,-241.27036,-244.01779,-248.3998,-253.86407,-257.99969,-257.59229,-250.35304,-236.26886,-217.74103,-198.4359,-181.56429,-168.61827,-159.23676,-152.11034,-146.19467,-141.3987,-138.38007,-137.75162,-139.39316,-142.41302,-145.75317,-148.91341,-152.17455,-156.10063,-160.68825,-164.8584,-166.78635,-164.96396,-159.31543,-151.56862,-144.5321,-140.65164,-140.72333,-143.56772,-146.8609,-148.57886,-148.13786,-146.54672,-145.55562,-146.43211,-149.18814,-152.71954,-155.6745,-157.392,-158.25726,-159.27336,-161.20897,-163.9576,-166.55956,-167.84999,-167.25906,-165.20638,-162.83765,-161.31351,-161.14967,-162.03445,-163.19032,-163.96893,-164.2379,-164.30602,-164.48907,-164.67639,-164.24466,-162.40218,-158.73294,-153.56581,-147.9122,-143.00034,-139.68631,-138.07852,-137.55513,-137.10989,-135.79552,-133.03925,-128.74268,-123.22542,-117.12323,-111.28913,-106.65446,-103.98226,-103.53136,-104.7802,-106.4236,-106.76839,-104.43892,-99.083313,-91.696892,-84.325356,-79.220055,-77.824921,-80.096581,-84.512291,-88.768311,-90.807404,-89.640503,-85.552734,-79.639328,-73.005013,-66.148163,-58.923248,-51.09417,-43.086552,-36.3717,-33.102558,-35.084789,-42.633038,-54.033005,-66.058212,-75.399086,-80.286842,-81.397446,-81.461731,-83.724358,-90.07988,-99.946808,-110.55249,-118.49379,-121.68343,-120.54871,-117.78027,-116.78609,-119.7743,-126.59827,-135.01805,-142.16266,-146.2552,-147.53619,-147.85667,-149.26494,-152.53502,-156.58939,-159.16405,-158.25098,-153.35878,-145.77159,-137.65779,-130.63867,-124.7766,-118.65808,-110.51972,-99.672073,-87.268219,-75.876152,-68.078102,-64.945908,-65.332352,-66.421906,-65.219368,-60.101215,-51.545986,-41.681614,-32.997463,-27.02667,-23.747972,-21.956118,-20.243692,-17.905617,-15.202419,-12.885529,-11.377376,-10.200445,-8.0555058,-3.5085442,4.148499,14.400841,25.679621,36.089024,44.263489,49.882153,53.60527,56.551163,59.678356,63.438259,67.841293,72.794189,78.402985,84.992706,92.819405,101.68915,110.78936,118.9177,125.03665,128.85109,131.05496,133.06329,136.34325,141.70216,148.92812,156.9799,164.60345,171.00624,176.20105,180.84804,185.74049,191.29015,197.34073,203.39465,209.04941,214.3053,219.51875,225.0517,230.90526,236.64545,241.70697,245.85924,249.46652,253.30344,258.02158,263.65891,269.60001,275.08734,279.94864,284.97134,291.53336,300.61398,311.8187,323.16766,331.97253,336.39627,336.73795,335.535,336.26376,341.34146,350.67288,361.73465,371.24994,377.45273,381.47647,386.87555,397.44284,414.60196,435.99966,456.24969,469.49237,472.33615,465.52963,453.4921,442.09494,436.03482,437.20816,444.72495,456.15265,468.95917,481.27432,491.80096,499.40451,503.07315,502.49533,498.82919,494.89828,494.33661,499.94272,512.1532,528.61639,545.24274,558.20752,565.7879,569.01166,570.82428,574.34619,581.25787,591.15527,602.05951,611.60638,618.18304,621.49902,622.52319,623.03961,625.09998,630.47833,640.11462,653.61328,669.05878,683.46289,693.90179,698.92566,699.46698,698.58575,700.00348,706.15833,716.9176,729.77472,741.45477,749.93616,755.58417,760.65021,767.48163,776.67554,786.48297,793.93671,796.98468,796.18036,794.72095,796.70612,804.68323,818.04395,833.29901,846.04871,853.3974,855.34692,854.44238,854.10162,856.82275,863.34503,873.00146,884.60748,896.96558,908.59784,917.19891,919.77667,914.05591,900.65088,884.53534,874.25983,878.4386,900.7182,935.69879,968.2359,977.08301,941.68811,849.32751,699.54956,504.20752,283.42728,59.553108,-148.37067,-327.78745,-473.11044,-584.33777,-665.06842,-720.82074,-757.86163,-782.27863,-799.03784,-811.12384,-819.1662,-821.90637,-817.43439,-804.61896,-783.93872,-757.20215,-726.29047,-691.70081,-651.8941,-604.08643,-546.31555,-479.78732,-410.13806,-346.6033,-299.05948,-274.06192,-271.73431,-285.22873,-303.41492,-315.9136,-318.29886,-314.96707,-318.07562,-342.74646,-400.55679,-494.26569,-616.2276,-751.22174,-882.33252,-997.11438,-1091.2654,-1168.3854,-1236.3517,-1302.3849,-1369.2495,-1434.1683,-1490.5192,-1531.0613,-1550.9724,-1549.4236,-1529.3856,-1496.2249,-1455.9918,-1414.108,-1374.6898,-1340.3717,-1312.3845,-1290.738,-1274.4889,-1262.0868,-1251.7286,-1241.6024,-1229.9747,-1215.2184,-1195.9562,-1171.4053,-1141.7809,-1108.4332,-1073.4335,-1038.6359,-1004.6364,-970.24524,-932.8999,-889.92517,-840.01257,-784.09888,-725.12799,-666.82355,-612.17725,-562.50354,-517.53015,-476.33365,-438.4223,-404.2312,-374.73584,-350.4971,-330.82019,-313.6156,-296.08411,-275.83762,-251.84378,-224.74919,-196.5343,-169.79202,-147.00053,-130.00191,-119.68959,-115.83663,-117.08667,-121.23534,-125.87867,-129.26811,-130.96237,-131.8493,-133.43546,-136.80035,-141.93053,-147.98575,-154.42819,-162.24333,-174.22087,-193.7254,-222.37198,-257.91217,-293.79001,-321.01956,-331.68103,-322.26147,-295.00336,-256.49442,-214.32001,-173.7244,-136.15825,-100.3512,-64.925644,-30.61286,-0.47738898,22.021513,35.746151,43.351303,50.227108,61.297775,77.565849,94.629204,104.29921,98.58007,73.805389,32.596554,-17.407511,-67.206497,-110.31161,-144.6967,-171.99486,-194.81789,-214.11385,-228.24969,-234.2457,-230.16484,-216.98164,-198.69041,-180.6039,-166.9268,-159.0602,-155.53917,-153.45728,-150.38687,-145.65262,-140.35808,-136.37184,-135.02373,-136.26559,-138.62717,-139.79999,-137.43477,-129.81172,-116.27528,-97.477097,-75.444588,-53.375813,-35.037498,-23.803095,-21.6245,-28.379538,-41.924999,-58.846127,-75.539444,-89.132866,-97.915291,-101.2849,-99.479362,-93.354065,-84.261055,-73.864853,-63.722923,-54.688896,-46.478298,-37.800293,-27.179684,-14.113936,0.13210155,12.701977,20.366823,21.189976,15.680421,6.7089248,-1.8249663,-6.8283119,-7.2961216,-4.3324947,0.0044483161,4.2318826,8.360569,13.671215,21.590664,32.480202,45.151512,57.392216,67.10125,73.272202,76.240021,77.159569,77.198341,77.043228,76.992706,77.408646,79.024643,82.755295,89.097801,97.606804,106.939,115.57195,122.78184,129.20944,136.56458,146.58704,159.90561,175.54163,191.39999,205.44334,216.79636,226.08167,234.81027,244.27589,254.70947,265.23734,274.61362,282.17157,288.31503,294.22433,301.01401,308.95795,317.32919,324.95401,331.07434,335.9082,340.52478,346.13736,353.31549,361.65338,370.09433,377.65186,384.01025,389.60284,395.15552,401.06039,407.04623,412.37924,416.43893,419.25131,421.60181,424.65286,429.32983,435.87585,443.83331,452.40054,460.87463,468.87732,476.26746,482.89355,488.4465,492.5629,495.10144,496.35373,496.98334,497.69162,498.82562,500.20346,501.28738,501.58752,501.01428,499.9407,498.95221,498.49139,498.67276,499.39862,500.65604,502.71451,506.0007,510.67166,516.16626,521.091,523.61719,522.24573,516.54156,507.43277,496.90854,487.28342,480.39978,477.10831,477.146,479.30588,481.71692,482.1528,478.43146,468.98996,453.55789,433.62213,412.28821,393.3493,379.81647,372.58182,369.97079,368.55713,364.92654,357.48358,347.28665,337.39246,331.0383,329.69016,332.09692,334.91934,334.57181,329.19012,319.56503,308.51465,299.12222,292.94452,289.28284,285.9129,280.73856,273.25858,264.88297,257.90283,253.81027,252.10164,250.39316,245.82768,236.90303,224.55611,211.78755,202.02371,197.20323,196.74121,197.96713,197.7153,194.05923,187.14978,178.73911,170.82272,164.35272,158.84575,153.04634,146.07936,138.22531,130.76906,125.064,121.52798,119.34007,117.10081,114.01023,110.7048,109.08139,111.1085,117.33543,126.07246,133.83832,136.88902,132.96204,122.23215,106.966,90.158676,74.023987,59.226067,45.199917,31.186407,17.177799,4.0966492,-6.8977256,-15.458919,-22.683475,-30.805702,-42.042168,-57.219063,-74.975037,-92.018433,-104.3437,-108.82117,-104.43208,-92.65995,-76.983246,-61.787567,-51.153503,-47.884808,-52.945873,-65.327637,-82.308487,-100.08135,-114.68642,-123.08518,-124.07996,-118.73421,-110.06277,-102.02797,-98.179703,-100.45826,-108.62752,-120.53742,-133.05307,-143.2177,-149.16479,-150.47865,-148.00298,-143.34753,-138.40428,-135.04695,-134.96268,-139.42314,-148.86229,-162.36345,-177.40352,-190.24788,-197.12788,-195.85924,-187.14876,-174.79028,-164.39258,-161.04099,-166.96115,-180.40024,-196.40599,-209.20102,-214.95592,-213.49934,-208.06165,-203.24539,-202.41856,-206.03189,-211.77927,-216.39241,-217.88084,-216.79466,-215.7448,-217.53847,-223.16704,-230.96393,-237.48988,-239.59775,-236.38362,-229.81242,-223.64345,-221.32855,-224.1525,-230.68187,-237.75346,-242.31725,-243.01738,-240.66428,-237.48763,-235.76483,-236.67212,-239.92548,-244.22234,-248.05577,-250.38835,-250.91124,-249.9333,-248.11411,-246.21095,-244.8717,-244.44017,-244.80244,-245.39847,-245.50652,-244.73106,-243.40881,-242.59378,-243.4998,-246.66264,-251.36263,-255.77596,-257.88785,-256.66724,-252.7533,-248.15445,-245.08974,-244.70001,-246.49374,-248.93694,-250.82234,-252.47493,-255.88422,-263.51324,-276.41504,-292.81772,-308.16037,-316.76419,-314.38348,-300.35846,-278.27481,-254.79021,-237.17007,-230.62093,-236.50526,-252.05579,-271.57159,-288.55063,-297.94421,-297.73019,-289.25845,-276.26968,-263.02832,-252.44199,-245.11356,-239.83725,-235.22874,-231.40236,-230.40672,-234.7775,-244.80821,-256.24585,-260.29025,-246.69904,-208.95122,-148.88173,-78.013618,-14.294157,24.624105,28.417194,-2.038831,-55.822388,-117.34162,-172.94582,-215.367,-244.11319,-262.41757,-273.24667,-277.06836,-272.58173,-259.47455,-240.91724,-223.75514,-215.97894,-222.91098,-244.42218,-274.85794,-305.67374,-329.17813,-341.25562,-341.75238,-332.7485,-316.18771,-292.54068,-261.30185,-222.81517,-180.04536,-138.97046,-107.14909,-91.110931,-93.86631,-113.71835,-144.84833,-179.30107,-209.4648,-230.10081,-239.32143,-238.38484,-230.56514,-219.57877,-208.1187,-196.98492,-185.10016,-170.37506,-151.02692,-126.72698,-99.008766,-70.730858,-44.884796,-23.388914,-6.498929,6.9081306,18.429274,29.192499,39.410965,48.599506,56.184402,62.026726,66.512703,70.218994,73.471718,76.167839,77.99939,78.897285,79.335922,80.237221,82.505913,86.498535,91.783569,97.355026,102.16093,105.6131,107.78107,109.19901,110.46169,111.88728,113.43192,114.84523,115.90582,116.5674,116.95551,117.27725,117.74538,118.56113,119.91776,121.96335,124.71812,128.01776,131.56677,135.10612,138.58626,142.1954,146.18045,150.56245,154.96442,158.72301,161.25874,162.46629,162.82933,163.13312,163.94087,165.20468,166.32315,166.65041,166.10909,165.43246,165.78302,167.94305,171.63434,175.51443,177.97571,178.2952,177.34958,177.28745,180.17555,186.32942,193.34131,196.50539,190.56992,171.98242,140.49695,99.358856,54.046665,10.271676,-27.787682,-58.306648,-81.557327,-98.954216,-111.97065,-121.35577,-126.8149,-127.13249,-120.67378,-106.19528,-83.79155,-55.61084,-25.85586,0.24275528,18.296024,26.696981,27.579998,26.067751,27.930761,36.72583,51.917542,69.075912,82.144234,86.598763,81.783455,71.152496,60.345856,54.252121,54.739986,60.260933,67.358681,72.999184,76.242241,78.314621,81.229576,86.013657,91.779808,96.249229,97.327271,94.640869,89.989624,86.391991,86.328621,90.296211,96.572807,