Bandpass,0,0.20029,-642.72485,4801.4546,7100.2573,5855.2207,2319.1636,-1121.3063,-2437.2637,-1250.5427,1046.2668,2411.7642,1670.7964,-683.43622,-2943.7075,-3507.0359,-2054.6331,261.58273,1717.4324,1295.4495,-606.47479,-2529.2583,-3064.6516,-1880.5433,84.504288,1362.5566,1051.1033,-553.12146,-2223.3845,-2738.9063,-1775.1624,-100.98651,1030.684,818.27167,-523.66779,-1965.9722,-2451.7244,-1668.4436,-242.91281,757.88635,624.82568,-491.87885,-1730.5159,-2178.4148,-1540.4629,-327.3974,552.33295,472.98615,-464.2905,-1537.2047,-1956.5762,-1444.9218,-416.17206,356.96033,322.61746,-457.38126,-1379.8607,-1764.4019,-1353.2772,-480.84882,196.56908,193.87091,-456.32239,-1250.1328,-1600.6378,-1269.5465,-525.55646,73.975853,102.08027,-432.61115,-1111.9695,-1431.8975,-1173.9226,-551.5744,-34.823692,4.8491712,-438.40131,-1016.6467,-1298.0862,-1086.5151,-554.8291,-103.12419,-56.927883,-432.76581,-939.21777,-1202.4401,-1041.8604,-592.82043,-193.54607,-129.37315,-427.14374,-847.5,-1071.8367,-938.76752,-555.26733,-206.88048,-141.41212,-389.60861,-752.13605,-955.08618,-853.11768,-529.88068,-226.95558,-160.72427,-365.76651,-677.88751,-862.94708,-790.93024,-526.09802,-271.05585,-212.05954,-383.01996,-646.92126,-803.26715,-737.61462,-501.99014,-270.16962,-205.63599,-342.33737,-564.94629,-699.11786,-641.48438,-432.92538,-223.86678,-161.07445,-281.34906,-489.01703,-630.06689,-605.14075,-437.96582,-251.83252,-175.48796,-249.92725,-403.50742,-510.03601,-483.58737,-339.38031,-178.12502,-108.91836,-169.70401,-303.22385,-403.22141,-393.84424,-282.86597,-151.34439,-90.490913,-134.47928,-238.47456,-315.70392,-303.52927,-208.67442,-99.363976,-52.536999,-96.88092,-193.68492,-267.92133,-264.57816,-187.82568,-95.022827,-51.911629,-83.584511,-157.49083,-209.74345,-193.71835,-114.35644,-23.42956,19.442522,-9.6602783,-82.780495,-142.05983,-142.46638,-83.469315,-7.1741457,34.292873,17.17724,-37.816734,-82.421555,-76.982651,-18.861889,57.117718,105.19806,101.73722,60.632748,20.937002,17.138472,54.587315,107.60457,140.36873,134.05313,99.973969,69.784637,71.047333,106.88078,154.54524,183.23863,177.21716,146.99261,120.80405,123.35291,157.8643,204.48117,235.54398,235.9498,213.54945,192.416,194.59401,224.09248,264.66721,292.41156,293.36377,273.13007,251.91177,249.23421,269.95468,301.64529,324.68304,327.05899,312.85931,298.51889,300.16351,321.72491,352.50623,375.56485,380.29401,369.80002,357.89893,358.3945,374.85074,398.36499,414.66071,414.91501,402.2049,388.98053,387.73108,401.92346,423.83939,440.6481,443.98337,435.90536,427.02509,428.43561,443.54318,465.73874,483.38901,488.26596,481.20218,471.01871,467.79501,475.58157,489.8223,501.11249,502.27216,493.47302,481.82349,475.9975,480.04022,490.86063,501.01135,504.43713,500.83856,495.53583,495.1626,502.55743,514.64923,524.76874,527.51459,522.52112,514.44714,509.39319,510.55832,516.35846,522.24933,524.67633,524.03918,524.40228,530.20618,542.52161,557.73541,569.74365,574.11853,571.23889,566.10193,564.91559,570.87219,582.07245,593.03003,598.6579,597.9223,594.62781,594.82202,602.63574,617.39026,633.87354,645.51526,648.30463,642.93481,633.96558,626.79138,624.51703,626.67377,630.31012,632.40662,631.85876,629.80518,628.35474,628.83044,630.82166,632.61145,632.52826,630.19598,626.84991,624.61169,625.30615,629.59216,636.83331,645.58221,654.22491,661.40314,666.15619,667.97186,666.91449,663.76434,659.92072,656.9046,655.61395,655.78162,656.07745,654.92249,651.57336,646.76892,642.44189,640.58917,641.98218,645.56061,648.95203,649.83411,647.29022,642.29028,636.98828,633.29883,631.68744,630.96222,629.1828,625.05865,618.8844,612.3764,607.51715,605.18469,604.49579,603.32178,599.65637,592.94202,584.47565,576.60846,571.23822,568.56256,566.90405,563.74402,557.33002,547.85504,537.4585,529.02197,524.46564,523.55487,523.92676,522.32965,516.38287,505.88434,492.97739,481.12747,473.48639,471.49429,474.37662,479.68381,484.49966,486.67291,485.50943,481.70273,476.6716,471.71924,467.43787,463.59335,459.45926,454.36288,448.14194,441.29727,434.80005,429.6817,426.61823,425.68918,426.37961,427.76965,428.79465,428.47876,426.11172,421.3862,414.49554,406.13428,397.31372,388.97058,381.49704,374.45688,366.7413,357.2052,345.50131,332.60629,320.60522,311.69693,306.89774,305.2189,303.92505,299.87967,291.28842,278.8154,265.34052,254.42035,248.32996,246.86349,247.62389,247.59431,244.96188,240.01202,234.55484,230.35843,227.75336,225.44194,221.66159,215.82497,209.33371,204.7919,204.00473,206.13678,207.47768,203.28322,190.73155,171.13081,149.81406,133.55048,126.91169,129.78786,137.60127,144.09308,144.93797,139.9407,132.52443,127.00051,125.52643,126.77576,127.10728,123.29455,114.84759,104.31613,95.430161,90.466034,88.746323,87.335014,83.391251,76.438148,68.856125,64.188866,64.447746,68.369522,71.956955,71.032173,64.083176,53.415924,43.753086,39.172169,40.43483,44.509594,46.599201,43.282845,34.650433,24.039392,15.657267,11.809104,11.651137,12.244503,11.021672,7.7931256,4.8067136,4.8350453,8.7418041,14.392543,17.818523,15.893958,8.6350012,-0.57753503,-7.1187253,-8.1776896,-4.6282711,-0.35821187,0.53856397,-3.2284663,-9.0938196,-12.423153,-10.09098,-3.5172691,0.92114747,-5.4428825,-29.315529,-72.09034,-129.29715,-193.01418,-255.66422,-312.96396,-364.55994,-412.45386,-458.61899,-503.43472,-545.71088,-583.85046,-616.99481,-645.24011,-668.9173,-687.74011,-700.72467,-707.11414,-707.6488,-705.11395,-703.52576,-706.28821,-714.47522,-726.42676,-739.03137,-749.93085,-759.20386,-769.36725,-783.60663,-803.33618,-826.6944,-849.07037,-865.53143,-873.84259,-876.36267,-879.69604,-892.20752,-920.64111,-967.50269,-1030.3961,-1103.4817,-1180.2327,-1256.1873,-1330.5657,-1406.24,-1488.2441,-1581.4967,-1688.5714,-1808.2345,-1935.1925,-2061.124,-2176.6926,-2273.9004,-2347.9844,-2398.1846,-2427.1206,-2439.0945,-2438.0898,-2426.3635,-2404.2056,-2370.8506,-2325.9546,-2270.8005,-2208.5886,-2143.6741,-2080.1655,-2020.5935,-1965.2793,-1912.656,-1860.3269,-1806.3357,-1750.0834,-1692.5466,-1635.7904,-1582.0625,-1532.8944,-1488.5803,-1448.2083,-1410.1748,-1372.9197,-1335.5464,-1298.0758,-1261.2588,-1226.0842,-1193.249,-1162.8495,-1134.4209,-1107.2622,-1080.8429,-1055.0713,-1030.304,-1007.1313,-986.08386,-967.41681,-951.05432,-936.66534,-923.78625,-911.91211,-900.53857,-889.18616,-877.44202,-865.0188,-851.78827,-837.74872,-822.92389,-807.24719,-790.50226,-772.36249,-752.50879,-730.76044,-707.1524,-681.9361,-655.52704,-628.43274,-601.17236,-574.16547,-547.57501,-521.14008,-494.09204,-465.26059,-433.39911,-397.63364,-357.83728,-314.7366,-269.68173,-224.19167,-179.50648,-136.36252,-95.058258,-55.701252,-18.433834,16.512329,48.931358,78.791832,106.26516,131.59013,154.88011,176.04692,194.94012,211.6293,226.62086,240.81154,255.14793,270.17636,285.77469,301.26791,315.89087,329.32813,341.99515,354.87732,369.01764,384.96088,402.48059,420.73071,438.70224,455.70081,471.58856,486.71317,501.64261,516.90393,532.85657,549.68835,567.43323,585.93091,604.75391,623.20795,640.49152,655.9812,669.48724,681.30383,691.99158,702.00842,711.41614,719.8548,726.80975,732.00623,735.68811,738.61084,741.75781,745.94464,751.52032,758.29529,765.68768,772.98615,779.60321,785.23975,789.9317,793.98425,797.81604,801.76544,805.94116,810.20526,814.31183,818.11481,821.67529,825.13184,828.36029,830.64429,830.64514,826.80475,818.00891,804.09558,785.83209,764.34082,740.40021,714.23999,686.15155,657.57953,631.77734,613.10181,604.75671,605.91687,609.94928,605.26721,579.11194,522.88269,436.51849,329.63339,218.62437,120.99747,49.536839,8.8947554,-4.2256551,1.9916782,18.441677,37.99472,56.42466,71.789818,83.396027,91.243309,96.0616,99.38726,103.11758,108.53696,115.40469,121.79188,124.84982,121.99188,111.66402,93.240372,66.338768,30.38242,-14.934731,-68.413353,-126.28445,-182.39001,-229.93649,-263.99783,-283.24225,-289.69489,-286.58536,-275.63348,-255.56537,-222.86186,-174.24757,-109.26042,-31.226925,53.898708,139.92224,222.38789,299.00397,368.65466,430.19751,482.26373,524.26489,557.60742,585.74713,612.5567,639.93091,666.44592,688.39893,702.88928,710.93939,718.29883,732.96295,760.7193,801.58887,849.65796,896.59924,936.62372,969.50482,999.53973,1031.1174,1064.0205,1091.9425,1105.613,1098.7544,1073.0259,1038.5807,1009.6174,997.49536,1005.4875,1028.098,1054.9249,1076.3123,1087.2976,1087.9374,1080.7153,1067.5345,1048.6028,1023.7146,994.47058,965.33173,942.44263,930.95343,932.6983,945.72668,965.71985,987.98163,1008.5359,1023.9351,1030.7065,1025.7496,1008.0483,980.55457,950.3678,926.19714,914.08246,913.98761,919.75336,922.83459,917.58502,904.54401,889.35809,877.98383,871.59198,865.0448,850.4295,823.44696,788.08392,755.78143,738.93335,742.61249,760.06946,775.46033,772.65295,744.87531,699.17981,652.83783,623.828,621.23315,641.2359,670.66974,695.28625,707.22034,707.21088,701.01569,693.36505,684.07098,668.87512,643.91412,610.04761,573.5647,542.64331,522.20416,511.05692,503.57596,494.78522,485.12842,481.25839,491.89935,521.32477,564.81006,609.28455,639.07928,643.39313,621.04956,579.91772,531.74567,485.84644,445.40677,408.13403,370.04745,329.42181,288.25381,250.66118,219.79265,195.64511,175.25319,154.87367,132.41853,108.40665,84.954285,63.79438,44.924309,26.862383,8.1919727,-10.906574,-28.389227,-41.613926,-49.245152,-52.423119,-54.347038,-58.541656,-66.979042,-79.290314,-93.517418,-107.80299,-121.82433,-137.0173,-155.4928,-178.41479,-204.91801,-232.24577,-257.00235,-276.76862,-291.19934,-302.10876,-312.64447,-326.07523,-344.77429,-369.73688,-400.64175,-436.25375,-474.92166,-514.99207,-555.04553,-593.92798,-630.61987,-664.06403,-693.12946,-716.8418,-734.85236,-747.90582,-757.96246,-767.74023,-779.74792,-795.20728,-813.40015,-831.80103,-846.95691,-855.69403,-856.08893,-847.82941,-831.96069,-810.31934,-785.02136,-758.18011,-731.77637,-707.47974,-686.33093,-668.41565,-652.80804,-637.96735,-622.48944,-605.82782,-588.54517,-571.89862,-556.97247,-543.87915,-531.53491,-518.17926,-502.34601,-483.71146,-463.31805,-443.05704,-424.74005,-409.31961,-396.69339,-386.14334,-377.06848,-369.51624,-364.18228,-361.91138,-363.05075,-367.08719,-372.80405,-378.85852,-384.42349,-389.51126,-394.80551,-401.13309,-408.91608,-417.93857,-427.55112,-437.15759,-446.65561,-456.53424,-467.54962,-480.16586,-494.10153,-508.26813,-521.15778,-531.47034,-538.63184,-542.92755,-545.21301,-546.42059,-547.18658,-547.81372,-548.53528,-549.82275,-552.44556,-557.16931,-564.25854,-573.13049,-582.45007,-590.68945,-596.86121,-600.99268,-604.04224,-607.29175,-611.56476,-616.71606,-621.65271,-624.81927,-624.82336,-620.86005,-612.79089,-600.98279,-586.11969,-569.11151,-551.04584,-533.03632,-515.92212,-499.97998,-484.92441,-470.33752,-456.32977,-443.93954,-434.80804,-430.09958,-429.23825,-429.36884,-426.19791,-416.07608,-398.30234,-376.26779,-356.54327,-346.14951,-349.35831,-365.73853,-390.49261,-416.80353,-438.75439,-453.14398,-459.35574,-457.78943,-448.31485,-430.0972,-403.04001,-369.75461,-336.35974,-311.02036,-300.61624,-307.31271,-327.12701,-351.55267,-371.51971,-381.55096,-381.83487,-377.17545,-373.62109,-374.87,-380.51721,-386.93961,-389.96439,-387.48929,-380.47171,-371.91202,-364.76477,-360.26526,-357.68106,-355.41168,-352.45776,-349.15588,-346.73215,-346.1326,-347.08246,-348.08817,-347.3588,-343.94769,-338.29126,-331.80164,-325.87155,-321.04984,-316.96652,-312.98999,-309.04239,-305.89496,-304.67706,-305.94379,-309.00156,-312.0296,-312.97906,-310.68332,-305.46158,-298.8432,-292.62781,-287.91357,-284.69617,-282.2099,-279.67178,-276.85666,-274.11633,-271.89798,-270.18414,-268.31012,-265.31125,-260.5473,-254.14374,-246.92422,-239.87659,-233.5287,-227.67104,-221.61435,-214.79237,-207.27901,-199.84962,-193.53212,-188.94395,-185.86104,-183.31413,-180.16336,-175.78923,-170.46227,-165.157,-160.9278,-158.2379,-156.66132,-155.14395,-152.66412,-148.8849,-144.39426,-140.37912,-137.92358,-137.3517,-138.00931,-138.6138,-137.95497,-135.51839,-131.65668,-127.22224,-122.91743,-118.79622,-114.24739,-108.46835,-101.10662,-92.62674,-84.134674,-76.752975,-70.946259,-66.242203,-61.542164,-55.832207,-48.844452,-41.253475,-34.295048,-29.059036,-25.89303,-24.249306,-23.005739,-21.009302,-17.512104,-12.315858,-5.6703401,1.8985293,9.7037916,16.977695,23.028084,27.513966,30.713715,33.554436,37.263527,42.76302,50.162308,58.706009,67.253494,74.985565,81.8423,88.370811,95.103676,101.97322,108.27666,113.29369,117.11031,120.95345,126.63457,135.3717,146.8166,159.09204,169.97923,178.52228,185.88936,194.73743,207.35922,223.83624,241.55582,256.59195,266.14078,270.37372,272.37244,276.10391,283.79248,294.53372,305.15808,312.74142,316.92645,320.29932,326.45938,337.15393,350.6337,362.58533,369.12427,369.74045,367.9874,369.25391,377.0842,390.66138,405.33395,415.90665,420.37405,421.37387,424.23456,432.97833,447.19461,462.13254,472.03116,474.29559,471.4397,469.31418,472.88406,482.67786,494.57297,503.09589,505.73633,504.94482,506.19696,513.5304,526.00562,537.97675,543.20874,539.84143,532.33826,528.65558,534.47186,548.71979,563.93939,571.4939,567.96991,557.96893,550.98181,554.42188,567.92828,583.34528,590.67914,585.78839,574.01898,566.78699,573.33148,593.65381,618.06573,634.02209,635.41962,627.44073,623.07202,633.55475,659.72101,690.80585,711.95453,715.12219,705.27905,697.06555,704.06586,728.51672,759.20142,779.33557,778.74536,761.23572,741.48126,733.65771,740.4577,751.09027,750.12402,730.5578,700.82336,679.66541,682.11572,707.09161,736.64325,748.42883,732.69214,700.77924,677.81201,683.89984,717.54626,754.32666,763.19934,729.47357,667.52576,612.88953,598.20868,629.98309,683.4408,720.17285,716.19635,679.50055,642.96246,636.5976,659.43329,673.31744,626.14386,490.2634,289.06287,90.984619,-27.76399,-28.106514,69.671295,201.78734,304.03604,352.05432,370.89493,408.30502,492.5993,607.25537,701.69525,730.13959,688.39447,618.94928,578.36053,590.51715,622.45758,604.72522,485.12408,277.22864,64.669075,-48.330872,-10.035038,133.33072,256.25784,230.67781,12.728149,-319.39975,-605.69971,-699.94714,-559.22516,-268.05112,19.238102,178.89851,192.56555,145.47955,150.48735,252.74124,384.97888,409.11249,219.12689,-165.30251,-583.16455,-813.39868,-706.93878,-286.5553,251.52827,639.70886,685.19806,373.23947,-132.4901,-588.52185,-806.66473,-745.35065,-509.4104,-269.12817,-155.99783,-199.2477,-333.84158,-462.61182,-524.48602,-524.77271,-515.02759,-544.88037,-623.01672,-712.34064,-757.31067,-720.10425,-600.39551,-429.34634,-247.82901,-87.25515,35.686913,113.54441,143.87614,134.39174,113.03133,129.2106,235.75053,456.05627,756.57861,1047.2327,1217.5505,1192.4259,974.89307,647.40552,327.09802,99.84214,-26.905005,-122.56566,-283.30466,-564.35455,-937.60437,-1301.7306,-1539.0363,-1583.7349,-1459.5854,-1264.7189,-1114.9696,-1082.1968,-1165.0217,-1306.3381,-1440.8826,-1537.8463,-1609.649,-1683.537,-1759.63,-1788.8478,-1690.2645,-1399.6022,-917.99341,-328.28601,233.74066,637.41724,810.90247,761.28784,554.4115,272.63123,-20.603811,-290.29037,-515.90161,-673.24933,-731.84192,-672.03864,-507.99423,-295.84955,-117.13593,-46.620342,-126.28708,-362.27563,-742.578,-1255.3885,-1886.7594,-2594.7866,-3282.4319,-3801.3806,-4002.7327,-3814.8354,-3299.1721,-2637.1414,-2039.2567,-1622.1372,-1330.5647,-964.79712,-311.2211,695.94659,1885.2507,2899.6665,3373.7036,3137.3572,2322.0669,1296.4352,462.31876,31.447424,-79.966469,-170.67496,-535.35883,-1243.467,-2057.2644,-2546.3044,-2334.0789,-1329.792,194.16727,1725.7015,2764.699,3057.9712,2689.5273,1989.8473,1333.9178,953.31506,863.38934,925.18176,979.05981,954.32562,890.46802,873.26306,944.66968,1054.8883,1087.8373,937.93616,583.57513,109.60532,-332.23953,-597.6203,-615.38538,-413.93082,-103.67406,167.86278,267.0062,116.7919,-274.82657,-807.28082,-1308.6302,-1590.1334,-1522.915,-1105.7144,-484.93616,95.346535,399.16592,310.04657,-112.40232,-664.79114,-1105.5264,-1275.1548,-1164.8358,-898.82007,-649.22095,-539.66028,-594.54382,-754.96698,-936.96912,-1084.5665,-1182.9314,-1233.6191,-1224.5161,-1128.366,-935.09991,-688.39624,-485.44034,-423.13,-518.28247,-660.1579,-643.74823,-282.66443,457.95511,1394.052,2177.1323,2456.188,2063.3679,1117.3829,-19.483261,-912.13739,-1259.027,-1022.4645,-417.3335,225.17667,634.13324,716.7774,562.86969,351.66132,230.77603,241.48492,324.81519,388.06476,377.63828,309.85855,247.20627,245.75298,314.83173,415.32388,492.38019,514.95038,493.39023,465.57593,465.45407,498.70395,542.06152,563.82336,548.00952,504.04877,456.57159,425.26294,411.13052,399.06915,373.22055,331.9903,290.70844,270.23267,280.86896,314.32141,349.79568,369.31815,370.3941,366.44788,375.00885,402.92447,439.97888,465.78552,464.78278,438.14603,403.7876,384.40118,392.12344,420.59134,449.61279,458.65527,439.4863,399.58142,354.99884,318.88065,294.21808,275.58603,257.51801,242.38277,241.40398,267.89853,327.63303,413.14771,505.8194,583.92773,631.2088,640.88239,614.09271,555.78632,472.1463,371.27869,265.20605,169.55113,99.057709,60.901096,50.424427,53.10656,52.525181,39.699287,17.794256,-1.0056584,-4.4420953,11.032368,37.498108,60.576332,68.65976,60.06839,43.4422,31.422291,32.176422,44.512486,59.543072,67.241226,63.052044,50.094681,35.90591,26.548006,22.487539,19.002052,10.395088,-5.3918366,-25.210411,-43.14431,-54.896225,-60.734188,-64.854645,-71.798096,-82.743385,-94.513878,-102.02251,-102.28386,-96.960342,-91.510773,-91.521538,-98.867638,-110.47874,-120.61023,-125.01494,-124.06992,-122.66116,-126.90243,-139.94524,-159.72302,-180.11255,-194.68323,-200.53815,-199.81227,-198.0426,-200.66971,-209.99641,-224.39822,-239.94917,-253.07504,-262.39328,-268.72098,-273.62894,-277.86856,-280.89001,-281.6936,-280.19177,-277.88959,-277.24429,-280.09128,-286.26022,-293.42136,-298.36859,-298.9577,-295.45367,-290.41483,-287.18176,-287.9213,-292.4295,-298.3877,-302.84891,-304.00006,-302.13593,-299.32059,-298.0239,-299.60327,-303.52649,-307.74008,-309.9108,-308.80649,-305.06729,-300.99966,-299.54684,-302.9653,-311.80902,-324.62082,-338.40421,-349.65906,-355.60172,-355.15683,-349.38135,-341.1358,-334.04828,-331.09155,-333.31543,-339.31805,-345.80536,-349.11929,-347.10443,-340.41254,-332.51413,-328.27753,-331.71832,-344.01251,-362.8045,-383.20892,-400.02277,-410.01297,-413.10199,-411.88153,-409.80753,-409.14276,-409.811,-409.75537,-406.49615,-398.89093,-388.0127,-376.62088,-367.561,-362.07114,-359.02206,-355.552,-348.72516,-337.23944,-322.18903,-306.44934,-293.06104,-283.56403,-277.2478,-271.73428,-264.52872,-254.61348,-243.14124,-232.81438,-226.29988,-224.58664,-226.22435,-227.88094,-225.91246,-218.08698,-204.549,-187.56892,-170.30702,-155.32861,-143.65836,-134.76146,-127.26933,-119.88492,-111.92197,-103.28674,-94.123039,-84.520012,-74.529022,-64.401222,-54.727081,-46.222988,-39.225807,-33.266705,-27.131823,-19.508156,-9.8623934,1.0501131,11.475758,19.663393,24.971642,28.349535,31.83827,37.394363,45.801914,56.381153,67.636604,78.319992,88.101707,97.369774,106.37826,114.51755,120.43755,123.1088,123.11523,123.14649,127.10221,138.17604,157.084,181.6248,207.92213,232.54756,254.076,272.99826,290.09793,304.57999,313.53201,313.4169,302.78372,284.30341,264.42303,250.38715,246.18945,249.95383,254.57974,251.54443,235.74637,208.51688,176.96507,150.03755,133.66785,127.89552,127.54158,125.79321,118.3203,105.40115,90.992264,79.712318,73.96347,73.100945,74.982811,78.519737,85.181221,98.224564,120.09906,149.85312,182.47879,210.88759,229.45787,237.00594,237.33063,236.9709,241.52258,252.69849,267.78241,281.61469,289.74139,290.79041,286.7865,281.48688,277.99655,277.19693,277.81213,277.79794,275.93909,272.56207,269.01212,266.43967,264.87814,263.30865,260.64731,256.9046,253.62831,253.22905,257.5589,266.64044,278.38181,289.50378,297.15402,300.26666,299.89987,298.42163,298.09933,299.95901,303.54349,307.59302,311.10107,314.01584,317.15808,321.48276,327.24948,333.70032,339.46725,343.41528,345.32718,345.95584,346.42426,347.42224,348.7981,349.85834,350.15942,350.17645,351.26953,354.84317,361.20557,368.94281,375.37622,377.98065,375.94827,370.87122,365.98233,364.29025,366.70193,371.32816,374.49338,372.91345,365.73041,355.12531,345.08554,339.05746,337.93655,339.65497,340.6232,338.10706,332.02206,325.00143,320.69949,321.41809,326.56754,332.92749,336.52362,334.9267,328.55496,320.23505,313.38791,310.03232,309.8251,310.62003,310.04361,307.00323,302.19925,297.4473,294.39651,293.54337,294.13019,294.8533,294.77301,293.76605,292.27386,290.64313,288.6279,285.45712,280.41562,273.49802,265.64444,258.37622,253.07053,250.34192,249.88757,250.81216,252.14027,253.16618,253.49149,252.87648,251.1554,248.35136,244.88788,241.64392,239.68144,239.73444,241.78163,245.02745,248.35625,250.97935,252.82222,254.35022,255.92075,257.11038,256.52933,252.33647,243.19279,229.06616,211.3567,192.22855,173.53896,156.01387,139.1563,121.90041,103.55298,84.404602,65.639854,48.650948,34.240868,22.241695,11.763524,1.8537623,-7.9141793,-17.322546,-25.908443,-33.557526,-40.835724,-48.792465,-58.34354,-69.642944,-81.87571,-93.636543,-103.68089,-111.59641,-117.99344,-124.11438,-131.11342,-139.44043,-148.67062,-157.83177,-165.98303,-172.67969,-178.07092,-182.63319,-186.76688,-190.53981,-193.73186,-196.11797,-197.7715,-199.16901,-201.01997,-203.92783,-208.09247,-213.23041,-218.7476,-224.05135,-228.81931,-233.09207,-237.17245,-241.42374,-246.09219,-251.23296,-256.73636,-262.39664,-267.96808,-273.19742,-277.86169,-281.83838,-285.19092,-288.20935,-291.34375,-295.0274,-299.46649,-304.52014,-309.76169,-314.70947,-319.10544,-323.07428,-327.05566,-331.53622,-336.73532,-342.43533,-348.06732,-353.00925,-356.92621,-359.95535,-362.63297,-365.61337,-369.34619,-373.88718,-378.92422,-383.96716,-388.56793,-392.44894,-395.50491,-397.73526,-399.19571,-400.01422,-400.43829,-400.83429,-401.58661,-402.92288,-404.76483,-406.71045,-408.1824,-408.67389,-407.96021,-406.16397,-403.65533,-400.86557,-398.13388,-395.66193,-393.56216,-391.91815,-390.78204,-390.10233,-389.65405,-389.05954,-387.92953,-386.056,-383.53043,-380.69266,-377.9241,-375.41129,-373.03827,-370.4884,-367.49289,-364.05597,-360.49072,-357.22281,-354.48026,-352.07797,-349.45605,-345.96982,-341.26196,-335.48428,-329.22623,-323.19327,-317.83569,-313.15836,-308.81927,-304.435,-299.87891,-295.36963,-291.29413,-287.89221,-285.02377,-282.18753,-278.79254,-274.5159,-269.51935,-264.38425,-259.80026,-256.19519,-253.52634,-251.35072,-249.11784,-246.49716,-243.53856,-240.57413,-237.93193,-235.64838,-233.36723,-230.50249,-226.58429,-221.59377,-216.08675,-211.01273,-207.29758,-205.39014,-205.00456,-205.20125,-204.78259,-202.81805,-199.04218,-193.92979,-188.4174,-183.42397,-179.42773,-176.31766,-173.5779,-170.67278,-167.38838,-163.92537,-160.70091,-158.00618,-155.75745,-153.51483,-150.7617,-147.25893,-143.23178,-139.25426,-135.89763,-133.37216,-131.40019,-129.40663,-126.89948,-123.78233,-120.38697,-117.20482,-114.5041,-112.10014,-109.44187,-105.96029,-101.44299,-96.180298,-90.785347,-85.814102,-81.444046,-77.421852,-73.296127,-68.751488,-63.796707,-58.676861,-53.589069,-48.431232,-42.791206,-36.206093,-28.516394,-20.058989,-11.548182,-3.7119839,3.0756371,8.9233894,14.241154,19.399319,24.489271,29.360542,33.892899,38.273129,43.030369,48.759205,55.701591,63.48769,71.248169,78.059334,83.443512,87.595039,91.183205,94.874466,98.912064,103.04653,106.85355,110.18727,113.40963,117.19445,122.02373,127.74229,133.52763,138.35446,141.6748,143.85095,146.01457,149.40495,154.60587,161.19528,168.06104,174.18497,179.36282,184.3474,190.28278,197.79187,206.35027,214.42743,220.38058,223.56427,224.92097,226.59738,230.73108,238.10213,247.48746,256.18274,261.47562,262.2681,259.91086,257.71603,259.33502,266.81952,279.37579,293.48047,304.33868,308.00198,303.15802,291.78549,278.41937,268.40363,265.92221,272.6261,287.34326,306.85306,327.27274,345.41888,359.62363,369.80664,376.95639,382.38992,387.16113,391.81509,396.46359,401.01169,405.3587,409.49194,413.49582,417.53543,421.83389,426.61005,431.94775,437.64163,443.14429,447.73175,450.87256,452.60532,453.64392,455.04733,457.57721,461.13684,464.72241,467.03226,467.42062,466.56317,466.29056,468.55835,474.15051,482.0144,489.81827,495.53668,499.10193,502.9765,511.12003,526.90546,551.35754,582.99939,619.52429,660.09918,706.33801,760.55066,821.6178,880.74908,920.14996,916.50909,848.63629,705.95624,493.54373,230.79852,-55.904251,-342.96274,-616.6701,-874.09564,-1117.623,-1346.672,-1551.7618,-1714.7395,-1815.4338,-1841.2701,-1794.6049,-1693.7194,-1566.801,-1441.8954,-1337.7126,-1259.3892,-1200.4706,-1149.2076,-1095.4651,-1034.9255,-969.28851,-903.48773,-842.22717,-787.88574,-740.48944,-699.03265,-662.79834,-631.71503,-605.72491,-583.90509,-564.17657,-543.90625,-520.99951,-494.72888,-465.75476,-435.37341,-404.5412,-373.32642,-341.09494,-307.21884,-271.76642,-235.69553,-200.44667,-167.24025,-136.55064,-108.07021,-81.128876,-55.246529,-30.447777,-7.1670194,14.14101,33.390842,50.993706,67.659187,84.02533,100.36614,116.5509,132.25162,147.23813,161.56024,175.50536,189.37195,203.21367,216.7224,229.32947,240.47266,249.8793,257.70758,264.46881,270.77689,277.06851,283.45303,289.77649,295.85736,301.74539,307.83258,314.72699,322.94379,332.58777,343.22308,354.02625,364.14932,373.08887,380.84485,387.78098,394.28571,400.46353,406.0687,410.73062,414.31766,417.17563,420.04309,423.65402,428.25745,433.36526,437.92123,440.82938,441.55017,440.41769,438.48969,437.02106,436.87143,438.18204,440.47348,443.04816,445.4054,447.40381,449.10745,450.4852,451.23248,450.88391,449.15817,446.28491,443.05048,440.47696,439.30243,439.58203,440.66843,441.59293,441.61002,440.56177,438.84021,436.99194,435.24573,433.28851,430.44342,426.12982,420.29626,413.53616,406.806,400.92365,396.15741,392.14459,388.15964,383.5386,377.99554,371.67227,364.9519,358.20612,351.646,345.33084,339.25812,333.41672,327.75174,322.09824,316.18915,309.78635,302.86496,295.70551,288.78769,282.52136,276.98526,271.86526,266.65677,261.00549,254.94904,248.87798,243.23445,238.16216,233.36894,228.31567,222.60306,216.27173,209.78276,203.67821,198.16641,192.94861,187.43591,181.21419,174.41336,167.68748,161.78917,157.03,153.02516,148.93132,144.02818,138.22624,132.1158,126.49739,121.72488,117.35583,112.40321,106.04453,98.284782,90.064949,82.685089,76.915466,72.430702,68.010254,62.41246,55.322151,47.669205,41.023281,36.427708,33.486,30.4167,25.176012,17.007378,7.4168077,-0.14220421,-1.8179495,4.6816287,18.821672,37.367054,55.798916,70.20845,78.667221,81.476967,80.391907,77.435211,74.006775,70.636269,67.26899,63.702747,59.847496,55.734158,51.416321,46.932266,42.356655,37.836067,33.50771,29.336948,25.033897,20.183014,14.539613,8.2643833,1.860244,-4.2097292,-9.9606838,-16.006531,-23.183378,-31.889387,-41.647816,-51.326756,-59.998978,-67.893227,-76.684509,-88.714233,-105.45083,-126.11728,-147.45473,-164.95613,-174.96408,-176.4095,-171.13,-162.58603,-153.83195,-146.08882,-138.85072,-131.38968,-124.52087,-121.25188,-125.65809,-140.54611,-165.36687,-195.7968,-225.41483,-248.59668,-262.97571,-270.08243,-273.89575,-278.29095,-284.95361,-292.91586,-299.77515,-303.61844,-304.3486,-303.64087,-303.72549,-305.9306,-309.96704,-314.33698,-317.46249,-318.70508,-318.62265,-318.40619,-318.99512,-320.51816,-322.38699,-323.86685,-324.63632,-324.93051,-325.23065,-325.81693,-326.57217,-327.1843,-327.55096,-328.01859,-329.2189,-331.59207,-334.95157,-338.44217,-340.97104,-341.84894,-341.21664,-339.97025,-339.23322,-339.72232,-341.40582,-343.63864,-345.63574,-346.94226,-347.60379,-347.97977,-348.39175,-348.8848,-349.25711,-349.29413,-348.99509,-348.60696,-348.44519,-348.64935,-349.06537,-349.33905,-349.13919,-348.3349,-346.99927,-345.25809,-343.12943,-340.50571,-337.31039,-333.70792,-330.18265,-327.38184,-325.78821,-325.42499,-325.79617,-326.1221,-325.73972,-324.42877,-322.47351,-320.43921,-318.81961,-317.77762,-317.12231,-316.50119,-315.65289,-314.54666,-313.33362,-312.17178,-311.0676,-309.85049,-308.29337,-306.28784,-303.94962,-301.58231,-299.52377,-297.96985,-296.87567,-295.97964,-294.92337,-293.39874,-291.25708,-288.54834,-285.4913,-282.39551,-279.55872,-277.17096,-275.26215,-273.72925,-272.44843,-271.42621,-270.89746,-271.28,-272.96442,-276.02325,-280.00464,-283.96399,-286.77347,-287.58591,-286.21909,-283.2435,-279.70969,-276.65298,-274.64337,-273.62039,-273.0806,-272.47354,-271.54398,-270.41064,-269.35577,-268.49631,-267.58231,-266.07312,-263.44272,-259.49866,-254.48416,-248.88104,-243.04286,-236.91586,-230.05338,-221.92963,-212.34457,-201.6348,-190.52695,-179.71489,-169.4424,-159.38731,-148.9501,-137.77161,-126.13186,-114.93858,-105.27439,-97.77002,-92.205444,-87.613899,-82.849823,-77.281975,-71.185036,-65.587868,-61.676723,-60.125645,-60.758026,-62.717106,-64.993523,-66.944458,-68.477386,-69.824707,-71.12236,-72.127289,-72.286819,-71.101662,-68.500572,-64.930176,-61.068542,-57.349731,-53.637302,-49.296227,-43.640709,-36.468079,-28.313093,-20.23135,-13.229053,-7.6925468,-3.1749229,1.332137,6.8206978,13.744375,21.855339,30.457315,38.868504,46.783077,54.328545,61.845028,69.593811,77.614738,85.80423,94.101768,102.59501,111.43696,120.64085,129.9395,138.86497,147.03679,154.46835,161.65088,169.30466,177.91721,187.3571,196.83501,205.27791,211.9183,216.75098,220.57727,224.6006,229.80215,236.44928,243.99809,251.41559,257.71362,262.39615,265.60779,267.96231,270.19891,272.86948,276.19345,280.09372,284.33255,288.64587,292.81461,296.6713,300.07529,302.892,304.996,306.30106,306.80716,306.64365,306.07599,305.44739,305.05499,305.00906,305.15961,305.1586,304.65228,303.50378,301.90054,300.25681,298.95294,298.08179,297.3913,296.49377,295.21793,293.85123,293.06357,293.51108,295.36115,298.07428,300.63928,302.15488,302.3913,301.9407,301.8204,302.76874,304.70932,306.77377,307.90091,307.61929,306.45764,305.64987,306.27335,308.36215,310.59091,310.77118,306.87979,297.99344,284.5795,268.03027,249.82678,230.9332,211.81364,192.99345,175.69545,162.04352,154.64879,155.82355,166.88367,187.85741,217.55881,253.71907,292.93347,330.52844,360.78424,377.92822,377.85468,359.90009,327.66788,288.18726,249.52878,217.90823,195.69806,181.33275,171.05595,161.43597,151.20197,141.45613,134.36331,131.33475,131.93639,134.16451,135.77328,135.66072,134.35635,133.33775,133.73253,135.36317,136.80832,136.41335,133.51683,129.02469,124.93293,123.12617,124.25491,127.41007,130.75359,132.63589,132.45961,130.78777,128.74059,127.17934,126.24225,125.4711,124.32146,122.61116,120.57977,118.57917,116.7093,114.7319,112.34166,109.56423,106.92941,105.23518,105.03928,106.24312,108.08688,109.58515,110.11257,109.73654,109.07374,108.78658,109.08806,109.60569,109.68571,108.89794,107.36366,105.66991,104.44441,103.91463,103.77993,103.48851,102.70811,101.63494,100.90439,101.15956,102.5853,104.74317,106.82829,108.16959,108.62669,108.61699,108.77314,109.48842,110.67225,111.87125,112.64009,112.87163,112.84118,112.94527,113.35024,113.83455,113.96104,113.4608,112.53954,111.85764,112.16375,113.81342,116.50012,119.39156,121.59289,122.6385,122.697,122.37113,122.24582,122.49688,122.815,122.67214,121.72448,120.06674,118.17499,116.6013,115.65115,115.26587,115.16667,115.11964,115.10081,115.23155,115.54478,115.78593,115.4394,114.00655,111.36513,107.95678,104.64539,102.30387,101.37165,101.65187,102.46553,103.05222,102.95831,102.17944,101.00169,99.686897,98.236557,96.391045,93.841393,90.481483,86.511589,82.324249,78.265724,74.451286,70.762131,67.009537,63.127106,59.238068,55.548969,52.161274,48.960159,45.681385,42.11557,38.292664,34.489731,31.029577,27.998524,25.089685,21.70937,17.308611,11.739242,5.3999662,-0.93749422,-6.5287991,-11.043626,-14.706865,-18.119802,-21.887602,-26.290852,-31.193287,-36.213188,-41.018539,-45.544685,-50.009472,-54.748623,-60.007183,-65.826576,-72.073952,-78.549171,-85.061333,-91.417496,-97.362267,-102.56469,-106.71736,-109.7138,-111.78284,-113.45847,-115.36164,-117.90237,-121.07966,-124.50713,-127.65176,-130.13538,-131.91071,-133.21243,-134.33862,-135.43027,-136.40817,-137.10579,-137.48965,-137.79375,-138.45457,-139.87881,-142.19797,-145.17804,-148.34689,-151.25354,-153.68802,-155.72662,-157.59586,-159.47391,-161.38065,-163.22589,-164.95583,-166.66046,-168.53838,-170.7356,-173.18716,-175.6033,-177.64056,-179.15161,-180.33052,-181.62701,-183.4639,-185.94304,-188.75201,-191.3567,-193.36354,-194.80347,-196.12675,-197.89052,-200.33992,-203.17535,-205.68704,-207.19261,-207.49722,-207.06281,-206.75533,-207.31898,-208.91608,-211.03654,-212.84135,-213.71532,-213.66577,-213.30759,-213.45311,-214.5896,-216.59593,-218.88005,-220.82788,-222.24371,-223.47667,-225.15349,-227.71358,-231.07735,-234.67809,-237.82991,-240.17039,-241.87265,-243.49236,-245.57545,-248.31195,-251.47099,-254.6344,-257.52573,-260.17389,-262.7948,-265.50748,-268.1413,-270.32227,-271.79639,-272.7327,-273.72708,-275.43936,-278.10281,-281.31116,-284.36356,-287.07349,-290.5607,-297.42084,-310.93213,-333.49146,-364.96484,-401.78519,-437.32843,-463.51102,-473.00095,-461.21628,-427.47177,-375.06754,-310.51883,-242.30058,-179.41245,-129.91862,-99.557358,-90.609932,-101.35886,-126.46451,-158.3454,-189.23175,-213.20705,-227.48935,-232.51509,-230.92369,-226.01588,-220.41699,-215.45361,-211.30733,-207.6118,-204.02541,-200.46825,-197.01373,-193.65541,-190.19731,-186.36227,-182.01753,-177.32596,-172.69765,-168.57088,-165.17242,-162.40863,-159.93501,-157.33005,-154.24921,-150.48486,-145.95007,-140.66113,-134.76846,-128.60818,-122.69092,-117.56701,-113.59989,-110.77097,-108.65189,-106.59058,-104.02077,-100.7172,-96.845581,-92.786499,-88.857887,-85.122177,-81.399544,-77.464188,-73.275833,-69.080017,-65.306,-62.33152,-60.270138,-58.913563,-57.851608,-56.677914,-55.149628,-53.22369,-50.990566,-48.590523,-46.182281,-43.960232,-42.15377,-40.949074,-40.350754,-40.084522,-39.654636,-38.582184,-36.712627,-34.394119,-32.370811,-31.400951,-31.79842,-33.179165,-34.598179,-35.033573,-33.950813,-31.61072,-28.924776,-26.931957,-26.204617,-26.537411,-27.100037,-26.949839,-25.584267,-23.20097,-20.528017,-18.358358,-17.095419,-16.584934,-16.303055,-15.736365,-14.681749,-13.277338,-11.781124,-10.293211,-8.6455364,-6.5458832,-3.8637209,-0.83016652,2.0219989,4.1662955,5.4393139,6.1945629,7.1255436,8.850647,11.519184,14.695416,17.60343,19.584238,20.480806,20.715584,21.024349,22.026678,23.905893,26.38446,28.979202,31.341852,33.451481,35.544086,37.854023,40.370228,42.792702,44.728622,45.995514,46.819042,47.777321,49.507217,52.342018,56.095276,60.117435,63.590935,65.897964,66.869736,66.811005,66.326424,66.071045,66.556473,68.076958,70.733215,74.484497,79.173553,84.521912,90.135765,95.563736,100.40758,104.43977,107.66437,110.28504,112.59711,114.86273,117.23229,119.73947,122.34846,125.00443,127.64821,130.19485,132.5118,134.43877,135.86096,136.80124,137.46831,138.21143,139.3831,141.17154,143.49416,146.02036,148.3239,150.09041,151.2684,152.07697,152.8615,153.87546,155.11276,156.29167,157.00797,156.97896,156.24431,155.20894,154.49614,154.68156,156.04256,158.44814,161.43947,164.45233,167.0643,169.14653,170.85826,172.50584,174.35149,176.4704,178.71828,180.81047,182.46199,183.51624,184.00455,184.11496,184.09001,184.1035,184.17622,184.17574,183.90851,183.26666,182.35367,181.50909,181.19272,181.7617,183.24626,185.25377,187.08282,188.02089,187.689,186.24992,184.35236,182.82191,182.25554,182.74091,183.8611,184.98326,185.66313,185.9245,186.24504,187.25664,189.34418,192.39153,195.83444,198.99004,201.45917,203.35048,205.18533,207.54279,210.66794,214.2912,217.77415,220.49216,222.21448,223.24368,224.22714,225.75859,228.01787,230.67079,233.08595,234.72702,235.47229,235.6631,235.85724,236.44997,237.40656,238.27774,238.4897,237.72746,236.17354,234.45425,233.32719,233.29884,234.39658,236.2168,238.19742,239.93103,241.32504,242.52876,243.70676,244.83875,245.70018,246.04607,245.86821,245.53001,245.65005,246.76956,248.99431,251.84471,254.43983,255.94174,256.01544,255.02744,253.84122,253.29915,253.66862,254.36354,254.10503,251.44215,245.35869,235.65965,222.97633,208.45609,193.36996,178.87376,166.00461,155.79286,149.26393,147.17613,149.54945,155.24919,161.94627,166.6209,166.48183,159.91321,146.99899,129.36476,109.42189,89.402115,70.660492,53.549141,37.833858,23.334171,10.380746,-0.1625028,-7.2803879,-10.326227,-9.3623276,-5.1474237,1.1752349,8.4748554,15.897493,22.911598,29.205936,34.582485,38.936264,42.298977,44.846581,46.796745,48.230652,48.971165,48.647816,46.960876,44.000256,40.396744,37.156158,35.218849,34.976391,36.032658,37.369545,37.84103,36.722092,34.008587,30.319958,26.497234,23.158989,20.474094,18.245056,16.18829,14.186385,12.338379,10.798702,9.551755,8.3081808,6.6118979,4.0904737,0.67977685,-3.3249938,-7.4186029,-11.132227,-14.225964,-16.733906,-18.87845,-20.946606,-23.213182,-25.923014,-29.277874,-33.373161,-38.096104,-43.069408,-47.731091,-51.560047,-54.341259,-56.304489,-58.025856,-60.12788,-62.953983,-66.423164,-70.158623,-73.799706,-77.276863,-80.850395,-84.877838,-89.471542,-94.297546,-98.681274,-101.9769,-103.96899,-105.03943,-105.9799,-107.56254,-110.14075,-113.52876,-117.21869,-120.76904,-124.09284,-127.45794,-131.2226,-135.51637,-140.1087,-144.56422,-148.57166,-152.20319,-155.90852,-160.23686,-165.47455,-171.44901,-177.63306,-183.47423,-188.7186,-193.5088,-198.20085,-203.04486,-207.96704,-212.61,-216.59645,-219.81834,-222.53726,-225.22218,-228.24391,-231.64819,-235.16849,-238.45895,-241.36496,-244.02228,-246.70868,-249.56303,-252.39275,-254.73041,-256.11377,-256.39096,-255.82381,-254.90353,-254.00267,-253.1088,-251.82646,-249.63556,-246.20569,-241.53394,-235.82368,-229.24091,-221.7944,-213.48712,-204.64172,-196.10359,-189.04869,-184.39053,-182.11713,-181.03641,-179.21501,-174.94943,-167.70293,-158.38104,-148.69948,-139.99852,-132.27951,-124.15533,-113.82684,-100.4788,-85.130615,-70.26786,-58.380001,-50.321411,-44.63633,-38.429913,-29.341101,-17.351376,-5.1397719,3.4358933,5.9005513,3.1244149,-0.73157495,-0.50192976,6.7148614,19.327673,31.60096,36.593094,30.049866,12.898204,-9.2885962,-29.68972,-44.548882,-55.783146,-70.184128,-95.488243,-135.46898,-186.84735,-239.83672,-282.1156,-304.14529,-303.09012,-283.47736,-254.56412,-226.0627,-204.49023,-191.73119,-185.98102,-183.9847,-183.08461,-182.11687,-181.14505,-180.71306,-181.34264,-183.50967,-187.783,-194.65497,-203.93671,-214.12448,-222.401,-225.647,-222.15189,-213.09312,-202.77487,-197.20412,-201.52544,-217.55702,-242.71217,-270.89844,-294.95667,-309.42667,-312.33313,-305.28687,-292.10629,-276.85709,-262.33316,-249.57648,-238.37674,-228.20496,-218.94977,-211.10162,-205.42873,-202.45667,-202.08806,-203.53738,-205.55995,-206.83768,-206.37152,-203.76709,-199.33472,-193.9538,-188.70792,-184.39777,-181.13834,-178.2635,-174.6395,-169.27122,-161.89755,-153.24605,-144.79443,-138.16492,-134.48248,-134.02586,-136.29666,-140.37466,-145.29379,-150.24239,-154.58452,-157.84561,-159.78166,-160.48698,-160.35384,-159.74281,-158.46646,-155.45291,-148.99139,-137.65465,-121.4897,-102.72178,-85.336098,-73.514839,-69.669426,-73.206184,-80.854538,-88.481163,-93.351463,-95.430733,-96.851753,-99.83683,-104.41934,-107.54015,-104.28059,-90.610153,-65.96608,-33.973423,-0.72722656,28.389933,51.394485,70.18911,88.525528,108.75395,129.50024,145.8712,152.19315,145.64587,128.51755,107.59563,90.937782,83.853447,86.393921,93.728493,99.077606,97.437683,88.010323,74.153206,61.171051,53.421276,52.382233,56.540684,62.79879,68.317322,71.704529,73.092102,73.401108,73.492775,73.75486,74.21138,74.850014,75.798531,77.220085,79.089493,81.111183,82.889198,84.215324,85.224335,86.27417,87.646149,89.321236,91.032227,92.559052,94.016899,95.867775,98.595238,102.26147,106.29351,109.70756,111.66682,112.01029,111.38577,110.88457,111.42,113.26505,116.04019,119.11214,122.07495,124.95045,127.98566,131.25331,134.42123,136.91985,138.40732,139.16443,140.065,142.07111,145.57509,150.06793,154.41469,157.58838,159.35992,160.43764,161.92058,164.42958,167.54517,170.00551,170.5959,169.15013,166.94971,166.16742,168.63379,174.68393,182.83554,190.54144,195.57967,197.23668,196.57281,195.64285,196.19485,198.66608,202.0627,204.72348,205.42381,204.1181,201.9146,200.39476,200.77274,203.40785,207.86977,213.36806,219.16873,224.73338,229.60173,233.25575,235.18779,235.17654,233.54698,231.14954,228.98586,227.68883,227.21037,226.9545,226.28452,225.05426,223.77478,223.27393,224.06725,225.88069,227.67921,228.21574,226.75383,223.4903,219.40179,215.62643,212.79913,210.77441,208.88962,206.54494,203.66945,200.74628,198.39915,196.8613,195.72539,194.16281,191.45801,187.4774,182.74394,178.07368,174.04243,170.66223,167.48499,164.03561,160.24213,156.54263,153.59578,151.81639,151.08356,150.83598,150.47771,149.78699,149.02158,148.64523,148.88898,149.48967,149.81734,149.30714,147.87234,145.97527,144.28279,143.15105,142.33183,141.14886,139.04684,136.11871,133.19234,131.3472,131.14392,132.09477,132.78995,131.67778,128.04585,122.5748,117.07173,113.49651,112.84794,114.57789,116.88409,117.69477,115.75084,111.16235,105.1724,99.354942,94.787048,91.681099,89.60836,88.047012,86.813248,86.079185,86.018822,86.402496,86.487862,85.325012,82.281113,77.421822,71.479073,65.417465,59.882862,54.890774,49.942844,44.471115,38.299679,31.819117,25.774551,20.826437,17.179283,14.507778,12.200203,9.7356205,6.9456038,4.0133491,1.2481524,-1.1877493,-3.4159036,-5.7700696,-8.5883064,-12.017447,-15.949347,-20.107479,-24.207512,-28.085716,-31.730364,-35.222275,-38.638958,-41.97961,-45.137863,-47.918983,-50.087128,-51.433266,-51.856239,-51.437477,-50.474369,-49.43816,-48.851715,-49.126778,-50.429871,-52.636524,-55.388157,-58.214577,-60.662064,-62.383987,-63.18906,-63.066769,-62.201157,-60.955425,-59.795475,-59.146099,-59.228119,-59.965576,-61.034267,-62.044197,-62.754692,-63.184254,-63.535,-63.97731,-64.447792,-64.620949,-64.10276,-62.732769,-60.783592,-58.893051,-57.735134,-57.621635,-58.293617,-59.054554,-59.177109,-58.330387,-56.753227,-55.063194,-53.83176,-53.210407,-52.853176,-52.176334,-50.767906,-48.666851,-46.334679,-44.362324,-43.132751,-42.669628,-42.746075,-43.128078,-43.737804,-44.608223,-45.689861,-46.708977,-47.245483,-47.014557,-46.139996,-45.16592,-44.72237,-45.032688,-45.622101,-45.506207,-43.828644,-40.578995,-36.900723,-34.710636,-35.783348,-40.827034,-49.127659,-59.006847,-68.823105,-77.881149,-86.653664,-96.153389,-106.85207,-117.86047,-126.94854,-131.47145,-129.70088,-121.79865,-109.87485,-97.110046,-86.448334,-79.567894,-76.606262,-76.635422,-78.465164,-81.250458,-84.614105,-88.372978,-92.206856,-95.580925,-97.980957,-99.250443,-99.733284,-100.07722,-100.81812,-102.04123,-103.36906,-104.29253,-104.6102,-104.65572,-105.13646,-106.67881,-109.38466,-112.70342,-115.71413,-117.63804,-118.25141,-117.9399,-117.37798,-117.06131,-117.004,-116.78699,-115.90211,-114.14459,-111.79187,-109.4651,-107.78704,-107.07281,-107.2447,-107.99,-109.01275,-110.18294,-111.48682,-112.84765,-113.99221,-114.50594,-114.07171,-112.73457,-110.99045,-109.60066,-109.21709,-110.0407,-111.72897,-113.61536,-115.10567,-116.00214,-116.55472,-117.21658,-118.27263,-119.58846,-120.64494,-120.83543,-119.83485,-117.80824,-115.33511,-113.1069,-111.59,-110.85138,-110.62447,-110.53531,-110.32044,-109.90056,-109.29466,-108.47865,-107.32452,-105.68331,-103.5547,-101.20742,-99.137627,-97.860954,-97.653816,-98.40329,-99.662254,-100.87695,-101.64668,-101.86189,-101.65435,-101.22068,-100.65928,-99.938477,-99.009514,-97.96669,-97.118973,-96.89856,-97.649315,-99.428162,-101.95107,-104.72266,-107.26804,-109.3215,-110.86256,-111.99873,-112.80016,-113.21754,-113.14487,-112.57317,-111.70551,-110.92345,-110.60089,-110.87753,-111.54758,-112.1538,-112.24295,-111.62693,-110.48339,-109.23013,-108.25541,-107.68099,-107.31187,-106.801,-105.91286,-104.70485,-103.50323,-102.69123,-102.45361,-102.64893,-102.89062,-102.7748,-102.09581,-100.90659,-99.396873,-97.693291,-95.739967,-93.35511,-90.424255,-87.081406,-83.726288,-80.836166,-78.679871,-77.124306,-75.677605,-73.763016,-71.062645,-67.714432,-64.23175,-61.188362,-58.860542,-57.04615,-55.168728,-52.597225,-48.983295,-44.417892,-39.332161,-34.228626,-29.422958,-24.948544,-20.654142,-16.396656,-12.182321,-8.1653185,-4.5257707,-1.3350443,1.4835632,4.0717406,6.502296,8.7086353,10.545849,11.950552,13.083457,14.335537,16.162107,18.825617,22.199503,25.762503,28.807028,30.761065,31.456215,31.20392,30.647474,30.475252,31.144211,32.742054,35.031918,37.627815,40.19466,42.574722,44.797611,46.996017,49.290039,51.703701,54.147934,56.465561,58.506126,60.191666,61.545784,62.679207,63.743156,64.872253,66.13784,67.52549,68.941246,70.244263,71.299507,72.039711,72.518295,72.927521,73.557037,74.686012,76.437462,78.660545,80.918182,82.623611,83.293663,82.80658,81.519669,80.152336,79.461555,79.864418,81.216911,82.890335,84.123756,84.463341,84.034508,83.480026,83.593277,84.861549,87.1912,89.973564,92.43808,94.063461,94.794891,94.956268,94.954529,95.003098,95.055977,94.97287,94.756828,94.652031,95.002815,95.970337,97.332825,98.552437,99.099159,98.817505,98.062767,97.47773,97.536064,98.163269,98.716965,98.372177,96.671707,93.872124,90.84182,88.571098,87.621971,87.88559,88.792709,89.795448,90.744652,91.874687,93.418327,95.179993,96.45993,96.475464,95.033691,92.95755,91.863029,93.294891,97.687485,103.80302,109.05914,110.62675,106.69849,97.22036,83.717987,68.4142,53.245571,39.375969,27.395664,17.883318,11.76085,10.060455,13.209708,20.36673,29.382782,37.580261,42.968208,45.170124,45.467731,45.904095,47.989803,51.815392,56.112091,59.188789,60.109215,59.330147,58.38942,58.864029,61.296047,64.797981,67.598602,68.17765,66.261597,63.049408,60.530678,60.324783,62.750751,66.672943,70.18103,71.669754,70.681221,68.058334,65.387527,64.107719,64.802605,67.026978,69.680573,71.649689,72.344162,71.880028,70.888634,70.124184,70.101044,70.921097,72.321342,73.864899,75.159439,76.009933,76.464149,76.75782,77.19722,78.030106,79.353661,81.090736,83.035828,84.940926,86.595978,87.869675,88.707558,89.113411,89.144768,88.928986,88.673996,88.636269,89.034439,89.944176,91.242325,92.653152,93.888557,94.805008,95.475807,96.121857,96.936554,97.917671,98.825409,99.309021,99.131805,98.352493,97.341446,96.614243,96.583,97.378159,98.842834,100.68336,102.65627,104.65644,106.65476,108.55325,110.09496,110.92859,110.80904,109.79971,108.31866,106.96321,106.19881,106.10186,106.32639,106.32581,105.69466,104.41279,102.83646,101.44749,100.53166,100.00227,99.4823,98.580254,97.162964,95.435318,93.776382,92.456093,91.441635,90.43705,89.127914,87.447357,85.654129,84.142036,83.097183,82.246109,80.899338,78.306015,74.120285,68.684631,62.931519,57.937756,54.386124,52.252003,50.895241,49.486805,47.496822,44.945095,42.279301,39.988911,38.225651,36.681793,34.795998,32.13797,28.712105,24.983557,21.618134,19.109833,17.529001,16.529177,15.576166,14.229249,12.296791,9.7997408,6.8189025,3.3731558,-0.56920886,-4.9637766,-9.5674906,-13.946302,-17.645159,-20.42705,-22.423441,-24.084352,-25.943941,-28.339947,-31.258978,-34.400208,-37.410786,-40.138439,-42.740276,-45.582516,-48.999523,-53.065132,-57.51469,-61.857895,-65.607201,-68.486855,-70.514168,-71.931908,-73.057358,-74.147453,-75.347328,-76.722038,-78.31749,-80.188606,-82.370071,-84.815437,-87.359184,-89.744881,-91.721443,-93.165436,-94.167336,-95.033051,-96.190186,-98.030884,-100.75145,-104.25219,-108.14087,-111.8466,-114.81082,-116.69066,-117.49976,-117.62899,-117.73071,-118.50183,-120.442,-123.67567,-127.90435,-132.50572,-136.7406,-139.98862,-141.92583,-142.58249,-142.26996,-141.41776,-140.39885,-139.4222,-138.53633,-137.72818,-137.04608,-136.65717,-136.78398,-137.54172,-138.7746,-140.01576,-140.64148,-140.1761,-138.59314,-136.42499,-134.57697,-133.90514,-134.77122,-136.82742,-139.17322,-140.81526,-141.17696,-140.36375,-139.02989,-137.93266,-137.45215,-137.37468,-137.0685,-135.92937,-133.80292,-131.11244,-128.61893,-126.98083,-126.40361,-126.59294,-127.01086,-127.23155,-127.14555,-126.8937,-126.62302,-126.28578,-125.65512,-124.54397,-123.03486,-121.50179,-120.36097,-119.71365,-119.16295,-117.99229,-115.63477,-112.12576,-108.19872,-104.90569,-102.97685,-102.34344,-102.16772,-101.38899,-99.429962,-96.576378,-93.75396,-91.848412,-91.05011,-90.705338,-89.800491,-87.736046,-84.804001,-81.965103,-80.028168,-78.815414,-76.992661,-72.841568,-65.591049,-56.453644,-48.584167,-45.796879,-50.670959,-63.12479,-80.325829,-98.030151,-112.58816,-122.45829,-128.39226,-132.29121,-135.5462,-137.95239,-137.86334,-133.42012,-123.99982,-110.91624,-96.922615,-84.849327,-76.242653,-70.822182,-67.010536,-63.104782,-58.30479,-52.991188,-48.195091,-44.72966,-42.614483,-41.145386,-39.475609,-37.231129,-34.707611,-32.540134,-31.131186,-30.283466,-29.311087,-27.539827,-24.823971,-21.702892,-19.085539,-17.684658,-17.587299,-18.236944,-18.809368,-18.70397,-17.822605,-16.486568,-15.104831,-13.861469,-12.63806,-11.185829,-9.3738461,-7.3028607,-5.2041359,-3.2270689,-1.3098381,0.74433631,3.0370824,5.3793311,7.3077216,8.3362045,8.2837057,7.4476347,6.4889255,6.0907784,6.6073074,7.9207678,9.5776768,11.086799,12.169963,12.819693,13.177006,13.371146,13.463826,13.521787,13.708664,14.256617,15.283856,16.583618,17.587137,17.614031,16.313337,14.016794,11.723335,10.642135,11.51913,14.154083,17.440222,19.951019,20.749199,19.932579,18.576981,18.10409,19.458035,22.58828,26.535261,30.033136,32.230251,33.082451,33.213684,33.392735,34.006218,34.87212,35.477535,35.428799,34.774342,33.976154,33.569099,33.767124,34.301907,34.604488,34.197681,33.026932,31.511734,30.297779,29.88777,30.391033,31.52984,32.858513,34.023361,34.89748,35.542149,36.076027,36.57806,37.089275,37.67429,38.447964,39.509586,40.822987,42.149506,43.119743,43.427799,43.028183,42.194427,41.385033,40.996349,41.16502,41.748425,42.483761,43.197781,43.90736,44.740795,45.754227,46.805397,47.607407,47.943459,47.885742,47.836159,48.322655,49.664703,51.734116,53.99263,55.806927,56.84584,57.29343,57.722603,58.69841,60.366978,62.305351,63.741997,64.01506,62.978142,61.095993,59.172909,57.891045,57.450687,57.529091,57.564232,57.166344,56.3927,55.724194,55.778034,56.948612,59.192841,62.066597,64.959366,67.370552,69.078575,70.14801,70.824295,71.410362,72.189339,73.392975,75.174416,77.557434,80.382179,83.303513,85.883797,87.763374,88.829414,89.286682,89.579529,90.196335,91.454613,93.374855,95.699898,98.037453,100.04391,101.55845,102.63503,103.47733,104.32576,105.3562,106.63136,108.11275,109.71266,111.35104,112.98646,114.60789,116.19949,117.71111,119.06857,120.23461,121.2906,122.47678,124.13364,126.53837,129.70674,133.28191,136.61174,139.01994,140.1508,140.19421,139.8373,139.93439,141.05989,143.19739,145.75485,147.90764,149.06882,149.20145,148.78326,148.45302,148.57346,148.99838,149.19409,148.62657,147.14743,145.114,143.16515,141.81392,141.14571,140.83287,140.44759,139.83484,139.25812,139.19211,139.90013,141.11041,142.0584,141.91478,140.33606,137.75943,135.21083,133.71399,133.66719,134.59546,135.45041,135.26994,133.76758,131.46492,129.28587,127.89266,127.21742,126.5074,124.85143,121.82799,117.83429,113.8757,110.95967,109.49986,109.1161,108.93684,108.17113,106.55155,104.36584,102.09974,99.985367,97.798462,95.046837,91.396698,87.008759,82.526451,78.716316,76.013763,74.291039,72.997314,71.551125,69.693619,67.560585,65.456802,63.543129,61.700951,59.68145,57.403648,55.128899,53.324215,52.275162,51.731148,50.88216,48.745247,44.732693,39.009235,32.359444,25.615551,19.014275,11.927713,3.1809111,-8.2213907,-22.415596,-38.476807,-54.804665,-69.823082,-82.533669,-92.601082,-100.00426,-104.59796,-105.97102,-103.73457,-98.019592,-89.77623,-80.590553,-72.082863,-65.26638,-60.288891,-56.712486,-54.099918,-52.4557,-52.186378,-53.61879,-56.472984,-59.753239,-62.228676,-63.222641,-63.14888,-63.348354,-65.24147,-69.308563,-74.590591,-79.109917,-81.01886,-79.780106,-76.615967,-73.897919,-73.813934,-77.116882,-82.716919,-88.35659,-91.937973,-92.684219,-91.45372,-90.079483,-90.211952,-92.414009,-96.039757,-99.891579,-103.15533,-105.97655,-109.32215,-114.26173,-121.1706,-129.37361,-137.4341,-143.87276,-147.85529,-149.45544,-149.4054,-148.56947,-147.50755,-146.37314,-145.12595,-143.82642,-142.75505,-142.26311,-142.47916,-143.11395,-143.54387,-143.15965,-141.77748,-139.84853,-138.31178,-138.14215,-139.82759,-143.05768,-146.79863,-149.72984,-150.83234,-149.84581,-147.37822,-144.62129,-142.81303,-142.70245,-144.26414,-146.78522,-149.26578,-150.92352,-151.54901,-151.54031,-151.61754,-152.38556,-153.99033,-156.05482,-157.9189,-159.03436,-159.2813,-159.02473,-158.88667,-159.3755,-160.5927,-162.18124,-163.53223,-164.11543,-163.73956,-162.60507,-161.14476,-159.76939,-158.67421,-157.80655,-156.98726,-156.09161,-155.17561,-154.48122,-154.32938,-154.96678,-156.44383,-158.57678,-161.00545,-163.32216,-165.22218,-166.61281,-167.62407,-168.49617,-169.38075,-170.15887,-170.40384,-169.56447,-167.31883,-163.91458,-160.26204,-157.64272,-157.11018,-158.87775,-162.05862,-164.97591,-165.9463,-164.14337,-160.05385,-155.2392,-151.5063,-149.94583,-150.38849,-151.58937,-152.01486,-150.74661,-147.95912,-144.71027,-142.22221,-141.13989,-141.23602,-141.70729,-141.80302,-141.32121,-140.63406,-140.26517,-140.37189,-140.54742,-140.10454,-138.62338,-136.32472,-133.94368,-132.15652,-130.98235,-129.65466,-127.15131,-123.07764,-118.27089,-114.59367,-113.89042,-116.67419,-121.38483,-124.79345,-123.45502,-115.44827,-101.41909,-84.323456,-68.017334,-55.49934,-47.7682,-43.833462,-41.70639,-39.659451,-36.999275,-34.025234,-31.415499,-29.598867,-28.55205,-28.04681,-28.001276,-28.545553,-29.708174,-31.012741,-31.421154,-29.832087,-25.89781,-20.601303,-16.108444,-14.862355,-18.413923,-26.702766,-38.237202,-51.035595,-63.689373,-75.847237,-87.851387,-99.875687,-111.27744,-120.70894,-126.95284,-129.86609,-130.67484,-131.28616,-132.9935,-135.4458,-136.65126,-134.12914,-126.53648,-114.72565,-101.50834,-90.220581,-82.964058,-79.615616,-78.201675,-76.351875,-72.864357,-68.377609,-64.763306,-63.702847,-65.423195,-68.418159,-70.298859,-69.175987,-64.668198,-57.933544,-50.793919,-44.596725,-39.560295,-34.953011,-29.868042,-23.989532,-17.82613,-12.31458,-8.1406641,-5.2781777,-3.0342846,-0.50235671,2.9429185,7.4414363,12.79708,18.766207,25.202692,31.952887,38.650234,44.673767,49.405502,52.6497,54.88884,57.116268,60.279942,64.682175,69.763512,74.466103,77.970146,80.309952,82.424828,85.571342,90.471786,96.783333,103.28319,108.69071,112.60545,115.93675,120.51581,128.11119,139.46021,153.91708,169.91217,185.88669,201.07036,215.60054,229.9469,244.08893,257.06375,267.24701,273.22137,274.6723,272.70886,269.3732,266.63153,265.48068,265.72598,266.53824,267.37439,268.59854,271.33926,276.64264,284.48773,293.37729,300.88553,304.93301,305.04593,302.79382,301.04785,302.41165,307.71414,315.47223,322.69284,326.59427,326.25769,323.22769,320.6778,321.6004,327.06888,335.59076,343.93683,348.96426,349.36905,346.35788,342.88062,341.9184,344.85938,350.89658,357.72769,363.04105,365.8324,366.77142,367.49106,369.36807,372.65155,376.49911,379.82285,382.27563,384.62177,388.18518,393.74808,400.70288,407.13251,410.87286,410.91534,408.21326,405.2933,404.8385,408.10098,414.15512,420.48944,424.58197,425.46762,424.30884,423.625,425.70132,431.21088,438.91113,446.54697,452.29907,455.79474,458.04733,460.45474,463.6272,466.89645,468.83871,468.40445,465.81943,462.59903,460.66495,461.19827,464.03665,468.00735,471.89395,475.27454,478.59097,482.4231,486.59039,489.88419,490.78262,488.72202,484.9704,482.30063,483.44781,489.24152,497.67761,504.71649,506.51855,501.83948,493.08282,485.23825,483.19809,488.95987,500.34439,512.01013,518.23804,515.98071,506.56665,495.22461,488.7464,492.4751,507.98816,532.36707,559.18231,580.68402,590.38275,585.20526,566.56989,539.98486,513.14972,493.06131,483.14636,481.66693,482.29178,476.80103,458.79095,426.59125,383.87604,337.60162,294.34918,257.0426,223.79881,189.43434,148.63007,98.85585,41.408318,-19.87055,-81.229378,-141.31561,-201.82664,-266.29654,-337.93753,-417.88464,-504.73355,-595.32355,-685.97552,-773.31769,-854.37653,-926.29553,-986.33813,-1032.5247,-1064.6217,-1084.7496,-1096.9772,-1105.885,-1114.7762,-1124.4977,-1133.5006,-1139.0389,-1138.76,-1131.7972,-1118.8787,-1101.6169,-1081.5819,-1059.7474,-1036.5062,-1012.0141,-986.45544,-960.01202,-932.6452,-903.99835,-873.62292,-841.43085,-808.03699,-774.68579,-742.74792,-713.10181,-685.82367,-660.40027,-636.30347,-613.50336,-592.5459,-574.15247,-558.65961,-545.73755,-534.6109,-524.61194,-515.62653,-508.05127,-502.24548,-497.8609,-493.57565,-487.51822,-478.19977,-465.3985,-450.42569,-435.56985,-423.02475,-413.91998,-407.99008,-404.00293,-400.60425,-397.02103,-393.22495,-389.5509,-386.12213,-382.51993,-377.92078,-371.58224,-363.327,-353.7009,-343.7186,-334.38092,-326.26959,-319.4317,-313.55396,-308.24927,-303.25266,-298.44046,-293.73798,-289.05035,-284.29828,-279.52039,-274.92599,-270.80756,-267.33511,-264.36255,-261.3945,-257.76758,-252.95815,-246.83673,-239.71498,-232.15733,-224.67542,-217.49142,-210.50555,-203.46866,-196.23297,-188.91121,-181.84193,-175.38681,-169.69127,-164.55942,-159.51851,-154.03116,-147.72902,-140.53983,-132.65524,-124.38818,-116.02627,-107.77221,-99.783905,-92.249939,-85.411095,-79.486908,-74.549675,-70.443321,-66.824944,-63.319534,-59.686676,-55.873726,-51.904675,-47.682434,-42.871609,-36.999134,-29.762005,-21.35791,-12.585773,-4.5736141,1.7682289,6.2539954,9.5461578,12.762823,16.771563,21.61183,26.449663,30.144258,32.090965,32.780113,33.652637,36.278942,41.354542,48.172436,54.958416,59.898037,62.2085,62.548889,62.484016,63.354645,65.328606,67.307632,67.785919,66.079361,63.040447,60.67952,60.852669,63.859741,67.941971,70.139481,68.081902,61.618454,53.209175,46.722389,45.276047,49.391434,56.583374,62.667793,64.042999,59.628769,51.368149,43.057842,38.233624,38.321888,42.02319,46.119007,47.091602,42.588646,32.006573,16.089989,-3.9726257,-27.276035,-53.314365,-81.532143,-110.74065,-138.89363,-163.45593,-182.20581,-194.03401,-199.29422,-199.50874,-196.58791,-191.98628,-186.25229,-179.21007,-170.65251,-161.10683,-152.14627,-145.93979,-144.17586,-146.93134,-152.20766,-156.57614,-156.75961,-151.36456,-141.76381,-131.51526,-124.52821,-122.9753,-126.18172,-131.1899,-134.67363,-134.99538,-133.06139,-131.38242,-131.94867,-134.38979,-135.79504,-132.50737,-122.83204,-108.8382,-95.853828,-89.672531,-93.024773,-103.50334,-114.38929,-118.1076,-110.40634,-92.841827,-72.109245,-56.600964,-52.164097,-59.401966,-73.84565,-88.606766,-97.796974,-98.822754,-92.61171,-82.167152,-70.689835,-60.400108,-52.390835,-47.032417,-44.230755,-43.273308,-42.624382,-40.256886,-34.697891,-26.239971,-17.356529,-11.693707,-11.958958,-17.936558,-26.019436,-30.82436,-28.121233,-17.345999,-2.0798974,11.929045,20.086555,21.614052,19.91996,20.457041,27.394255,41.140182,58.185654,73.27726,82.529358,85.592567,85.667061,87.488785,94.570274,107.28324,122.74968,136.43747,144.49699,145.6458,141.79245,137.25038,136.96075,144.4386,160.19701,181.26492,202.11235,216.8098,221.66092,217.1259,207.94223,201.10019,202.4763,213.83182,231.90408,250.2742,263.09253,268.54474,269.9632,273.82501,285.76074,306.94928,333.06537,356.38275,369.71304,369.81775,358.41913,340.57028,321.78439,305.86935,294.57626,288.66199,288.9483,296.19226,309.82971,326.8833,342.47549,352.22797,355.1795,355.03876,358.40338,370.63492,391.96243,416.62982,436.09546,444.505,442.81021,438.44025,440.23315,451.65433,466.8873,472.9278,457.0759,415.55356,357.85254,303.74698,274.34024,282.24768,326.60138,395.55475,474.27261,553.06146,630.49304,709.94843,792.5567,871.95789,935.02155,968.45123,966.95422,937.26825,894.85754,854.92603,823.34863,793.50562,751.42761,686.35767,600.20453,509.79797,440.14584,412.3735,433.27124,492.39532,568.13739,638.95874,693.26605,732.69055,767.78992,809.6261,862.59491,922.37781,979.26239,1023.8391,1051.217,1061.6359,1058.1669,1044.0293,1021.7254,994.23169,966.52142,945.31628,936.44318,941.35352,955.48364,970.20624,977.66241,975.52161,968.40564,964.75409,971.02618,987.16479,1006.6447,1021.3928,1028.3638,1033.0245,1046.7043,1078.8228,1128.7957,1183.3177,1221.7983,1227.5934,1198.5363,1149.9436,1107.3202,1092.1713,1108.8989,1140.7251,1157.6949,1132.7927,1057.2325,946.13519,831.13031,743.87665,699.68982,690.36084,689.92731,669.79431,614.50537,529.50403,437.15704,364.04791,327.11948,326.17941,346.00839,365.67377,369.04645,350.79883,315.6637,272.94586,230.56116,192.14293,157.95358,127.62262,101.90356,81.998436,67.284966,53.712872,34.686165,4.3298888,-38.880531,-90.641853,-142.70644,-187.14188,-220.4191,-244.89725,-266.95056,-293.06104,-326.31995,-365.29456,-405.57892,-442.7132,-474.55939,-501.89279,-527.28448,-553.34711,-581.50952,-611.80255,-643.33453,-674.82227,-704.84467,-731.99878,-755.32532,-775.04382,-793.1051,-812.87146,-837.68439,-868.92413,-904.76886,-940.66559,-971.52539,-994.47699,-1010.4913,-1023.774,-1039.2042,-1059.3778,-1083.118,-1106.3927,-1125.014,-1137.3398,-1145.2008,-1152.4711,-1162.255,-1174.5702,-1186.0592,-1191.9338,-1188.9226,-1177.4032,-1161.4652,-1146.9722,-1138.8517,-1139.1702,-1146.8931,-1159.1508,-1173.0215,-1186.774,-1200.0862,-1213.4695,-1227.5172,-1242.4642,-1258.1431,-1274.1151,-1289.7507,-1304.2463,-1316.7462,-1326.6622,-1334.0463,-1339.6882,-1344.7189,-1349.8528,-1354.7502,-1358.0018,-1357.8562,-1353.2834,-1344.6708,-1333.6516,-1322.1569,-1311.3347,-1301.0948,-1290.5793,-1279.1714,-1267.2313,-1255.9395,-1246.3103,-1238.135,-1229.7545,-1219.0226,-1204.922,-1188.7061,-1173.6233,-1163.1808,-1158.936,-1159.2479,-1159.911,-1156.4304,-1146.6085,-1131.8572,-1116.3939,-1104.7806,-1099.2822,-1098.6039,-1098.6935,-1095.0278,-1084.9657,-1068.8284,-1049.2517,-1029.4214,-1011.3773,-995.34442,-980.25598,-964.86646,-948.59625,-931.60675,-914.25067,-896.48505,-877.78552,-857.64465,-836.2428,-814.71857,-794.7442,-777.61536,-763.43103,-750.91479,-738.03168,-723.0611,-705.5105,-686.35516,-667.4859,-650.6806,-636.64764,-624.61444,-612.63623,-598.4527,-580.48981,-558.56866,-534.02478,-509.18884,-486.44095,-467.23358,-451.50974,-437.78616,-423.87515,-407.90253,-389.11826,-368.09207,-346.2175,-324.83273,-304.48114,-284.73495,-264.6481,-243.51076,-221.40123,-199.18297,-177.97282,-158.45236,-140.47765,-123.21833,-105.68996,-87.296806,-68.038475,-48.308903,-28.514381,-8.8338604,10.718724,30.052618,48.865997,66.813019,83.884079,100.67135,118.2102,137.38364,158.24609,179.77168,200.30658,218.52606,234.29468,248.81619,263.8927,280.72424,299.04535,317.22809,333.35654,346.59766,357.93298,369.68869,384.08862,401.74078,421.07361,439.16187,453.4808,463.49649,471.07013,479.39923,491.15652,506.9993,525.36664,543.62732,559.76245,573.4491,585.86688,598.45624,611.59149,624.1792,634.51813,641.82318,647.28101,653.76184,664.21796,679.74634,698.62335,717.06708,731.37598,740.15076,745.17206,750.30573,759.05737,772.2948,787.6015,800.72955,808.29419,810.03839,809.22723,810.86548,818.7774,833.29279,850.91803,866.17224,874.48322,874.45374,868.25836,860.09076,853.71405,850.59283,849.59344,848.21136,844.39294,837.79102,829.80292,822.57349,817.74756,815.77264,816.05853,817.69159,820.10217,823.24097,827.25989,832.052,837.04333,841.3634,844.20636,845.08331,843.82562,840.45813,835.17676,828.52338,821.57965,815.86115,812.75604,812.7395,814.90228,817.26849,817.9024,816.21222,813.58606,812.81018,816.47668,825.30469,837.45361,849.33923,857.50647,860.40057,858.92072,855.43719,851.9826,848.8811,844.75842,837.88733,827.85175,816.25378,805.84766,798.61914,794.14325,789.44714,780.61951,765.20526,743.84076,720.05005,698.33392,681.8158,670.98206,664.26563,659.92914,657.79846,659.52869,667.15613,680.96448,698.25317,714.04596,723.45947,724.28424,718.1123,709.25079,702.08746,698.56232,697.30005,694.84595,688.08789,676.2406,661.15967,645.92877,632.80603,621.95935,611.77814,600.41315,587.36523,573.97656,562.50208,554.45593,549.41583,545.12347,538.8031,528.79755,515.4425,500.65955,486.62531,474.45691,463.76184,453.2471,441.84808,429.53284,417.2388,406.05548,396.29559,387.1416,377.11374,365.02042,350.73419,335.28964,320.2807,306.99261,295.82745,286.32306,277.64102,269.11896,260.52063,251.90422,243.32227,234.65143,225.6868,216.38124,206.97711,197.8707,189.2854,181.01149,172.44516,162.93707,152.21144,140.53392,128.468,116.35456,103.86616,89.96283,73.318253,52.971024,28.804667,1.5782251,-27.465733,-57.112637,-86.448448,-114.7398,-141.08611,-164.21001,-182.68376,-195.5817,-203.20058,-207.34337,-210.83923,-216.39536,-225.302,-236.67958,-247.74199,-255.04718,-256.17667,-251.02267,-242.02092,-233.18111,-228.37505,-229.72319,-236.86836,-247.45985,-258.53708,-268.04132,-275.6496,-282.53455,-290.27795,-299.64313,-309.96451,-319.51181,-326.57297,-330.55283,-332.37994,-333.9599,-337.02673,-342.13266,-348.42496,-354.34174,-358.75107,-361.7627,-364.66022,-368.99481,-375.45596,-383.3006,-390.75784,-396.16907,-399.11182,-400.74506,-403.11685,-407.86722,-415.17175,-423.62585,-431.15396,-436.35388,-439.39975,-441.91913,-445.93451,-452.56299,-461.31009,-470.38593,-477.80472,-482.54092,-485.02103,-486.69547,-489.03506,-492.62653,-496.91495,-500.67648,-502.8374,-503.09006,-501.96497,-500.41388,-499.2536,-498.83356,-499.06052,-499.64737,-500.34351,-501.00525,-501.54605,-501.90527,-502.11047,-502.36267,-503.00089,-504.28961,-506.15771,-508.12735,-509.578,-510.22818,-510.48407,-511.31396,-513.60913,-517.39954,-521.49731,-523.9455,-523.12671,-518.8847,-512.89526,-507.93475,-506.39648,-508.9375,-514.11292,-519.25513,-522.05499,-521.8399,-519.74548,-517.71393,-517.03589,-517.44244,-517.35309,-515.07422,-510.08597,-503.50879,-497.43112,-493.58322,-492.28903,-492.40897,-492.26688,-490.85782,-488.46005,-486.23999,-485.19144,-485.23846,-485.1936,-483.6088,-479.87375,-474.71774,-469.7088,-466.10086,-463.88705,-461.78766,-458.21729,-452.53281,-445.62207,-439.35031,-435.22177,-433.22534,-431.74799,-428.69495,-423.06781,-415.86798,-409.61475,-406.72299,-407.80734,-411.08453,-413.33148,-411.81345,-405.93579,-397.55615,-389.78775,-385.11237,-384.02945,-385.03937,-385.82642,-384.73447,-381.53864,-377.12347,-372.50079,-368.02493,-363.40469,-358.40213,-353.52094,-349.98279,-348.879,-350.10638,-351.97498,-351.95667,-348.20752,-340.85275,-332.08136,-324.86285,-321.05615,-320.15234,-319.51953,-316.03189,-308.0376,-296.39102,-283.90198,-273.60403,-266.99402,-263.34845,-260.44412,-256.06921,-249.26051,-240.51984,-231.06299,-221.82971,-213.04703,-204.59085,-196.69119,-190.23668,-186.28371,-185.08777,-185.46939,-185.18346,-182.23415,-176.3008,-169.21661,-164.00493,-162.97415,-166.10361,-170.86176,-173.69511,-172.29721,-167.19353,-161.57596,-159.44717,-163.23926,-172.40794,-183.84987,-193.79648,-199.91292,-202.28212,-202.77701,-203.42021,-204.94252,-206.49089,-206.54039,-204.20377,-199.91508,-195.01077,-190.60243,-186.66991,-182.11148,-175.72652,-167.35956,-158.27434,-150.38455,-144.84132,-141.0141,-136.68518,-129.43706,-118.33678,-104.74802,-91.649979,-81.850708,-76.25605,-73.347214,-70.224442,-64.526665,-55.953041,-46.387325,-38.569302,-34.224281,-32.902287,-32.276791,-29.666008,-23.740232,-15.293972,-6.6202602,0.039527237,3.9180017,6.1049404,8.7108307,13.43332,20.492746,28.591772,35.840195,40.969124,44.034569,46.217808,48.950428,52.999027,58.092793,63.254017,67.519547,70.539276,72.701561,74.801796,77.560051,81.321678,86.068779,91.620224,97.798096,104.43729,111.29804,118.03761,124.32644,130.0282,135.26181,140.23705,144.95792,149.05292,151.9563,153.41565,154.00792,155.24251,159.04269,166.8166,178.67749,193.37109,209.06432,224.57086,240.22688,257.76309,279.11984,304.86063,333.18915,360.29398,381.96469,395.61108,401.50482,402.47943,402.24554,403.33459,405.92651,408.26596,408.36136,405.82654,402.61374,402.0867,406.96487,417.44046,430.71933,442.37823,448.78802,449.15634,445.93951,443.35397,444.87543,451.22244,460.01141,467.23874,469.64941,466.56259,460.12097,453.9306,451.01218,452.31265,456.56949,461.42404,464.94089,466.55542,466.96552,467.22418,467.77231,468.08853,467.12781,464.16086,459.3941,453.9653,449.37466,446.7728,446.5513,448.39661,451.62573,455.48355,459.22211,462.0488,463.17673,462.10706,459.00504,454.84491,451.07706,448.90021,448.56036,449.1709,449.25412,447.71738,444.63834,441.30783,439.44824,440.08835,442.83588,446.05325,447.84821,447.23972,444.72845,441.89255,440.27856,440.32959,441.0647,440.71814,437.9097,432.57523,426.06244,420.35428,416.9411,416.05319,416.68622,417.32147,416.82462,414.96472,412.31482,409.71884,407.74637,406.46817,405.59308,404.74609,403.62903,401.97989,399.46231,395.68292,390.40164,383.78958,376.49347,369.38065,363.08792,357.67865,352.66919,347.4278,341.66562,335.65024,329.96445,324.97482,320.41629,315.44296,309.16888,301.3476,292.70139,284.62112,278.3848,274.38818,271.8923,269.453,265.7431,260.22424,253.254,245.62578,237.9344,230.2547,222.34772,214.17957,206.27826,199.56717,194.72594,191.53423,188.73598,184.63301,178.09273,169.31136,159.77814,151.39656,145.29863,141.13274,137.32439,132.17192,125.06885,117.03304,110.16093,106.32913,105.97211,107.72913,109.19879,108.32693,104.55518,99.027168,93.76799,90.404533,89.25341,89.31691,89.104355,87.66497,85.123886,82.399773,80.365044,79.086441,77.702919,75.031754,70.472321,64.561119,58.765469,54.621357,52.769112,52.516705,52.219296,50.235672,45.859028,39.651146,33.003437,27.236895,22.821169,19.181618,15.167418,9.8417463,3.0870948,-4.3216157,-11.16702,-16.443642,-19.82155,-21.698338,-22.896353,-24.251759,-26.337187,-29.402206,-33.446041,-38.280815,-43.523499,-48.580971,-52.745922,-55.446915,-56.550091,-56.515572,-56.259506,-56.750229,-58.554707,-61.611176,-65.377403,-69.264908,-73.075386,-77.144875,-82.089127,-88.312515,-95.611168,-103.15242,-109.87215,-115.05607,-118.74165,-121.68411,-124.90376,-129.09683,-134.27385,-139.83846,-145.03464,-149.45993,-153.31172,-157.22008,-161.79315,-167.18312,-172.95459,-178.33038,-182.64336,-185.69997,-187.83603,-189.65675,-191.65579,-193.96715,-196.39063,-198.63376,-200.57123,-202.33072,-204.1577,-206.18033,-208.26801,-210.1037,-211.42752,-212.2782,-213.05345,-214.33519,-216.58769,-219.92253,-224.07329,-228.57535,-233.01205,-237.15987,-240.95993,-244.38205,-247.32365,-249.64453,-251.31223,-252.52756,-253.70062,-255.25949,-257.41177,-260.03226,-262.7681,-265.29306,-267.52411,-269.63412,-271.84802,-274.18237,-276.34592,-277.90381,-278.60254,-278.60623,-278.43704,-278.62537,-279.30856,-280.08871,-280.29651,-279.50757,-277.94299,-276.42935,-275.89111,-276.70163,-278.36307,-279.79092,-280.05569,-279.07935,-277.76575,-277.41394,-278.77942,-281.44781,-284.02524,-285.10355,-284.39218,-283.22647,-284.02887,-288.99652,-298.84201,-312.42233,-327.51318,-342.19357,-355.85178,-369.05084,-382.28839,-394.52457,-402.63892,-402.46655,-391.0351,-368.74094,-340.06644,-312.19617,-292.1048,-283.61826,-286.01019,-294.83936,-304.47876,-310.88916,-313.1636,-313.1817,-313.83157,-316.99976,-322.49991,-328.409,-332.39731,-333.12503,-330.88245,-327.22528,-323.98062,-322.29294,-322.22461,-322.99985,-323.59708,-323.27789,-321.79718,-319.30469,-316.12283,-312.58417,-308.98584,-305.60245,-302.67368,-300.34711,-298.62659,-297.38467,-296.44171,-295.651,-294.92404,-294.18518,-293.31464,-292.15366,-290.59076,-288.66599,-286.59625,-284.67252,-283.07974,-281.76321,-280.44577,-278.80099,-276.67221,-274.19037,-271.70908,-269.60056,-268.04779,-266.96304,-266.06778,-265.06015,-263.75192,-262.10199,-260.16422,-258.02429,-255.78392,-253.58061,-251.58142,-249.9054,-248.50725,-247.11989,-245.34184,-242.85611,-239.65208,-236.08603,-232.70465,-229.92015,-227.74696,-225.78928,-223.50603,-220.58185,-217.14409,-213.66193,-210.58626,-207.98277,-205.43181,-202.29135,-198.16116,-193.23039,-188.25388,-184.14912,-181.46703,-180.08185,-179.30046,-178.30696,-176.63385,-174.34288,-171.81194,-169.30751,-166.67339,-163.37926,-158.9084,-153.21184,-146.89566,-140.98347,-136.38594,-133.41251,-131.63643,-130.19246,-128.30521,-125.70616,-122.68684,-119.78438,-117.33344,-115.18708,-112.77732,-109.45357,-104.86544,-99.150581,-92.835182,-86.542404,-80.705254,-75.442406,-70.62468,-66.036842,-61.505478,-56.923805,-52.199486,-47.205898,-41.798939,-35.896244,-29.559975,-23.01936,-16.610577,-10.662797,-5.3832712,-0.78389311,3.3334188,7.3306785,11.62916,16.556597,22.185476,28.237591,34.137249,39.241848,43.175289,46.096638,48.728657,52.079674,56.970295,63.614258,71.499886,79.657303,87.167221,93.615166,99.226303,104.61837,110.35341,116.59133,123.06557,129.369,135.31973,141.12463,147.21248,153.85858,160.88777,167.69705,173.6111,178.33162,182.15485,185.7802,189.82318,194.37077,198.9095,202.70718,205.40494,207.40546,209.75816,213.57368,219.32916,226.52002,233.9001,240.17001,244.67764,247.69186,250.09927,252.75931,255.96831,259.3837,262.41992,264.79239,266.79083,269.0759,272.15576,275.94675,279.77057,282.81946,284.75903,286.00421,287.40512,289.49603,291.79968,292.70221,290.08026,282.38431,269.5687,253.32326,236.46146,221.80499,211.16992,204.95113,202.41504,202.40355,203.98003,206.68546,210.38983,214.98643,220.21909,225.75859,231.41586,237.27101,243.58318,250.5388,258.03461,265.66486,272.91376,279.38437,284.86496,289.1749,291.93747,292.52667,290.33405,285.25357,278.06537,270.38849,264.10956,260.5408,259.78458,260.71423,261.63654,261.28284,259.55118,257.54495,256.86404,258.55792,262.36453,266.70221,269.4408,269.02356,265.30768,259.66153,254.28281,251.13277,251.06387,253.56577,257.18036,260.27512,261.72217,261.16464,258.84537,255.22833,250.70782,245.56203,240.09026,234.7364,230.03679,226.39822,223.87466,222.14093,220.72754,219.38034,218.28819,217.98579,218.95343,221.161,223.87698,225.91833,226.23701,224.50525,221.33566,217.98158,215.68008,215.01895,215.68813,216.7298,217.09435,216.14539,213.83662,210.53998,206.74992,202.94637,199.73035,198.08141,199.42596,205.28716,216.56773,232.81352,251.90274,270.42191,284.62637,291.56778,289.89938,280.07617,264.00296,244.4279,224.39165,206.85181,194.38918,188.84065,190.84492,199.50552,212.47275,226.59683,238.97209,247.89316,253.20891,255.85753,256.84061,256.25305,252.98729,245.34669,232.25639,214.37849,194.45763,176.63347,165.01523,162.19527,168.38361,181.49689,198.06261,214.46301,227.99249,237.40001,242.87029,245.60258,247.20746,249.10727,252.07393,256.0112,260.0582,263.00739,263.89151,262.47336,259.37415,255.7429,252.63078,250.4285,248.71236,246.60474,243.42703,239.22086,234.77888,231.13353,228.80814,227.30632,225.18681,220.71808,212.75674,201.36275,187.82877,174.14409,162.21259,153.22797,147.45506,144.40379,143.1926,142.87796,142.64572,141.89497,140.29329,137.82971,134.81581,131.77458,129.22948,127.49779,126.60952,126.38617,126.58575,126.96484,127.19005,126.69627,124.70107,120.51885,114.08752,106.37809,99.30986,95.032166,94.847229,98.367188,103.47335,107.23289,107.35202,103.36957,96.887909,90.676888,87.153595,87.115768,89.445885,91.902084,92.4562,90.344719,86.244072,81.584808,77.567345,74.572205,72.302811,70.431175,69.14756,69.111183,70.786514,73.67157,76.08725,75.856392,71.571877,63.670143,54.546528,47.497856,45.019032,47.42968,52.6562,57.319489,58.499184,55.15197,48.39901,40.606163,33.905537,29.094013,25.534216,22.001606,17.822023,13.505934,10.4712,10.076702,12.638512,17.084846,21.459955,23.926838,23.619078,20.834263,16.525286,11.501591,5.8972774,-0.77948672,-9.1364651,-19.360376,-31.063025,-43.596424,-56.549,-69.99514,-84.27179,-99.450958,-114.96538,-129.7906,-143.19727,-155.62181,-169.00432,-186.19156,-209.58072,-239.72293,-274.73868,-310.99088,-344.73285,-373.84509,-398.68503,-421.57837,-445.28122,-471.34628,-499.35684,-527.43243,-553.61371,-577.20642,-599.23206,-621.73901,-646.46674,-673.75165,-702.36426,-730.32361,-756.08453,-779.27173,-800.47894,-820.32971,-838.52771,-853.65417,-863.95764,-868.67224,-868.97223,-867.8316,-868.72223,-873.83875,-882.88831,-893.19708,-901.11523,-903.93073,-901.19946,-894.75421,-887.44586,-881.41431,-876.93054,-872.4646,-865.86902,-855.89307,-843.07281,-829.45612,-817.35852,-807.9411,-800.50488,-792.94434,-783.08563,-770.08789,-755.04187,-740.38654,-728.48584,-720.22949,-714.52075,-708.98303,-701.47473,-691.49109,-680.58118,-671.49744,-666.57178,-666.30432,-669.02954,-671.86505,-672.33557,-669.63422,-664.70483,-659.09839,-653.36847,-646.11096,-634.36517,-615.21661,-587.63739,-553.39771,-516.43719,-481.0419,-449.91263,-423.25436,-399.33447,-376.02313,-352.2558,-328.51437,-306.1619,-286.24893,-268.69211,-252.34352,-235.74872,-217.89276,-198.32614,-176.65187,-151.94936,-122.81259,-88.177612,-48.391388,-5.6263943,36.888927,76.483208,112.42652,146.02237,179.17734,212.33018,243.19888,267.36502,280.50092,280.8866,270.6015,254.63019,238.50568,226.04079,218.4977,215.38927,215.88411,219.45479,225.23653,230.89162,232.48656,226.28339,211.74582,193.66216,181.30594,184.25842,206.88925,244.85687,286.1925,316.86032,327.80099,319.32678,300.23138,282.22452,273.18179,273.29636,276.14828,273.42224,259.77875,234.70955,200.73138,160.06267,112.89369,58.80759,0.065948725,-56.400345,-100.78175,-125.57538,-130.81184,-125.26096,-121.90579,-129.93234,-148.2541,-165.05344,-164.10756,-134.2115,-75.884636,-1.2885361,72.263298,130.73872,168.40623,186.92592,190.41891,181.13599,159.35275,127.23055,92.653229,68.529854,66.408585,88.125824,121.83329,146.7092,144.90324,113.66167,69.312286,39.298038,46.141743,93.016174,160.32849,216.15549,234.54887,210.46057,161.94753,118.33744,101.98969,115.29246,140.95604,154.8873,142.79414,109.52332,75.279335,61.725731,77.55793,113.13903,147.40964,161.99413,152.84354,131.81964,117.69205,123.13831,146.69823,174.84608,192.22951,192.65387,183.207,178.91762,191.89476,222.48558,258.31967,281.57056,279.31073,250.14531,203.29974,151.66982,104.2289,63.049934,26.407518,-5.1450276,-24.91437,-21.854055,12.775447,78.265945,161.76111,242.09673,298.14621,316.98956,297.6907,249.46954,186.38733,122.13088,67.400223,29.913809,15.134595,25.815636,60.139702,110.09142,162.19164,201.38995,216.70518,205.74316,175.59015,139.56331,111.57907,101.01462,110.29715,135.65781,169.81146,204.7746,233.69872,251.71159,256.39313,248.28703,231.16173,211.34946,195.86954,189.93755,195.12914,209.27327,228.11826,247.65646,265.58066,281.03348,293.13232,299.72974,297.73544,285.11829,263.2778,237.89825,217.18854,208.11237,212.68605,226.62227,241.31277,248.15773,242.83321,227.14755,207.61113,191.77307,184.55069,186.52623,194.79128,205.35515,215.38947,224.01886,231.54659,238.05887,242.60364,243.53659,239.69391,231.47343,221.03674,211.50414,205.68056,205.06506,209.58572,217.96759,228.30455,238.46756,246.30988,249.89664,247.95306,240.4325,228.82787,215.86186,204.53555,196.95764,193.58165,193.26894,194.09711,194.38477,193.31784,190.88736,187.34464,182.68839,176.61118,168.93282,160.14369,151.57381,144.96545,141.6642,141.92854,144.79375,148.56181,151.59372,152.9254,152.40527,150.40466,147.41951,143.88095,140.25763,137.26648,135.92119,137.29582,142.12914,150.53989,162.04538,175.8457,191.14052,207.24733,223.48428,239.00458,252.82996,264.16412,272.79837,279.27673,284.60709,289.62967,294.44702,298.33835,300.27972,299.75421,297.28574,294.26987,292.14276,291.41388,291.24167,289.91354,285.99359,279.42157,271.8226,265.76276,263.35794,265.07425,269.45245,273.91534,276.14536,275.18961,271.66476,267.03516,262.51938,258.36279,253.90192,248.27997,241.24277,233.43787,226.02863,219.9315,215.23715,211.22026,206.91014,201.79739,196.17123,190.86104,186.58582,183.38882,180.56345,177.12157,172.47202,166.83472,161.10725,156.28255,152.82053,150.39401,148.15889,145.33638,141.69431,137.60516,133.66924,130.19582,126.92507,123.19153,118.41205,112.55158,106.23583,100.42556,95.867958,92.689232,90.390739,88.233772,85.738144,82.952805,80.324356,78.271393,76.775238,75.284409,73.01165,69.429665,64.628624,59.282013,54.222519,49.886787,45.979275,41.569298,35.561779,27.24711,16.591492,4.1036654,-9.6039066,-24.233973,-39.88063,-56.65926,-74.092255,-90.657585,-103.87691,-111.05616,-110.42807,-102.18333,-88.861977,-74.832458,-64.994026,-63.201084,-71.051888,-87.535934,-109.66581,-133.79544,-157.0432,-178.215,-197.86794,-217.54999,-238.61768,-261.20737,-283.8418,-303.84354,-318.34866,-325.44324,-324.90857,-318.26276,-308.12482,-297.22937,-287.54639,-279.85886,-273.89572,-268.84683,-263.94308,-258.82056,-253.56119,-248.49504,-243.95319,-240.13019,-237.09691,-234.8867,-233.54211,-233.06543,-233.31441,-233.94469,-234.47787,-234.4846,-233.78218,-232.52151,-231.09988,-229.94319,-229.283,-229.05544,-228.97252,-228.71283,-228.1153,-227.27196,-226.48639,-226.14166,-226.55687,-227.89157,-230.11148,-232.99619,-236.17186,-239.17365,-241.55107,-243.00697,-243.51819,-243.36517,-243.02701,-242.97278,-243.45268,-244.40776,-245.55525,-246.59912,-247.43436,-248.21571,-249.24965,-250.78549,-252.84625,-255.20808,-257.53204,-259.54816,-261.16428,-262.43716,-263.45099,-264.21539,-264.67172,-264.80084,-264.7348,-264.76135,-265.18967,-266.15921,-267.53171,-268.95789,-270.08688,-270.776,-271.15103,-271.47232,-271.90799,-272.3894,-272.66739,-272.53445,-272.04272,-271.53699,-271.45291,-272.01379,-273.05521,-274.1322,-274.86267,-275.2706,-275.86472,-277.35245,-280.14914,-284.00812,-288.04541,-291.17947,-292.72061,-292.72549,-291.87372,-290.94095,-290.22244,-289.30817,-287.38116,-283.85663,-278.93448,-273.67767,-269.52878,-267.54471,-267.81921,-269.44946,-271.06042,-271.5567,-270.6441,-268.83148,-266.96198,-265.61069,-264.73935,-263.80023,-262.17587,-259.63449,-256.496,-253.41632,-250.95067,-249.18889,-247.69127,-245.75362,-242.83073,-238.87032,-234.38213,-230.22694,-227.25058,-225.94167,-226.24939,-227.60864,-229.13809,-229.9292,-229.32979,-227.13303,-223.60817,-219.36017,-215.0735,-211.25334,-208.08455,-205.46873,-203.19617,-201.12958,-199.27562,-197.70685,-196.41304,-195.22,-193.8661,-192.20064,-190.35611,-188.74089,-187.81747,-187.79599,-188.45888,-189.26323,-189.67645,-189.52034,-189.06667,-188.7856,-188.89888,-189.05522,-188.39346,-186.00633,-181.52698,-175.44057,-168.87376,-162.95326,-158.12761,-153.89931,-149.1664,-142.97688,-135.21956,-126.80133,-119.18799,-113.59615,-110.34689,-108.77831,-107.74288,-106.3369,-104.3772,-102.3362,-100.82758,-100.03684,-99.509422,-98.440704,-96.250168,-93.021599,-89.487679,-86.558792,-84.714958,-83.67572,-82.572189,-80.503983,-77.106239,-72.75164,-68.263184,-64.34095,-61.088856,-57.949986,-54.081692,-48.914539,-42.529888,-35.621349,-29.079132,-23.470739,-18.740749,-14.2982,-9.4132614,-3.6646707,2.8298159,9.5157013,15.746253,21.146297,25.784367,30.075621,34.501793,39.330387,44.495964,49.695187,54.617233,59.158974,63.495811,67.975258,72.910065,78.404892,84.322372,90.39994,96.428116,102.36065,108.27641,114.22279,120.06741,125.49578,130.19836,134.1458,137.75507,141.78386,146.95203,153.48439,160.86394,167.99678,173.75206,177.59424,179.93452,181.96812,185.06311,190.04129,196.76512,204.26376,211.3054,217.06143,221.47235,225.1342,228.83113,233.04173,237.72079,242.43964,246.72256,250.31461,253.21193,255.49028,257.11365,257.88934,257.58151,256.04459,253.22087,248.98798,243.01973,234.87987,224.42099,212.29871,200.22935,190.68651,186.04532,187.55525,194.69524,205.29639,216.39215,225.34093,230.63463,232.04521,230.20157,226.02562,220.45863,214.58765,209.88879,208.15109,210.86697,218.33421,229.0647,240.04893,247.95044,250.68825,248.52292,243.96036,240.44783,240.56197,244.71867,251.14023,257.06674,260.45602,261.14081,260.77396,261.65121,265.18341,270.96982,277.01501,280.90796,281.20892,278.21033,273.67172,269.77148,267.96097,268.39023,270.15292,272.06842,273.42719,274.23318,274.87463,275.55869,275.9848,275.5296,273.82608,271.31143,269.30066,269.43295,272.7482,278.92548,286.17111,291.90213,293.91949,291.46957,285.62213,278.74185,273.31042,270.7077,270.58859,271.17914,270.32358,266.70908,260.59879,253.6748,248.08531,245.23697,245.01778,245.89293,245.81503,243.41774,238.79431,233.40463,229.17004,227.29961,227.55315,228.3826,227.86081,224.82985,219.57278,213.61266,208.78299,206.15678,205.48901,205.48549,204.68066,202.33209,198.75775,194.93237,191.65971,188.91437,185.82089,181.29402,174.90372,167.36078,160.25851,155.19756,152.8382,152.49069,152.52026,151.32571,148.28351,144.07086,140.1747,137.90657,137.54669,138.14711,138.10161,136.1124,131.95085,126.55859,121.45541,117.84319,115.95548,115.02055,113.81175,111.40948,107.70343,103.36278,99.349144,96.317863,94.286987,92.749519,91.108627,89.121559,87.057358,85.480492,84.821434,85.027252,85.521965,85.498863,84.353432,81.982513,78.771179,75.297203,71.965439,68.821983,65.665665,62.358704,59.085598,56.328312,54.518364,53.572838,52.655262,50.412788,45.657921,38.148315,28.980396,20.269663,14.184123,11.807148,12.473991,14.018789,13.873486,10.455403,4.0722194,-3.190017,-8.5662994,-10.102196,-7.7046986,-3.1758006,0.76301599,1.8754427,-0.55085361,-5.5651898,-11.288521,-15.992977,-18.859337,-20.03277,-20.095308,-19.439962,-18.030584,-15.687268,-12.610911,-9.6641817,-8.102458,-8.8710127,-11.944921,-16.215076,-20.076054,-22.378799,-23.117676,-23.351095,-24.346422,-26.476578,-28.613163,-28.490629,-23.911242,-14.100739,-0.37809259,14.321716,26.855442,35.431164,40.441158,44.112133,49.200714,57.491421,68.922112,81.751999,93.57132,102.50602,107.94293,110.4648,111.1824,110.9688,110.07008,108.25018,105.26046,101.2438,96.782532,92.578888,89.013405,85.893356,82.55632,78.251884,72.556488,65.583504,57.907112,50.301105,43.477314,37.952362,34.039143,31.863028,31.315907,31.96419,33.026051,33.533264,32.675987,30.171227,26.421143,22.311716,18.714052,15.957455,13.600603,10.673763,6.2805076,0.20687734,-6.8474226,-13.588712,-18.834785,-22.188545,-24.263638,-26.312613,-29.47933,-34.137047,-39.722523,-45.160007,-49.588463,-52.909763,-55.798492,-59.178436,-63.535992,-68.556923,-73.353088,-77.131569,-79.832123,-82.255096,-85.541779,-90.333038,-96.200096,-101.80667,-105.78823,-107.82354,-109.17879,-112.285,-119.51062,-131.8302,-148.20207,-166.05569,-182.60342,-196.17554,-206.77655,-215.58525,-223.82362,-231.8264,-238.9688,-244.46765,-248.4044,-252.10765,-257.45642,-265.46289,-275.11234,-283.41727,-286.92584,-283.94284,-276.11981,-268.29617,-266.44608,-274.73898,-293.32837,-318.14093,-342.82083,-361.76126,-372.56241,-376.64011,-377.81656,-379.86249,-384.45557,-390.62015,-395.73715,-397.30008,-394.29218,-387.4776,-378.68274,-369.74094,-361.82791,-355.47266,-350.97034,-348.67102,-348.82147,-351.09955,-354.31369,-356.67569,-356.63074,-353.76648,-349.17911,-344.97723,-343.15619,-344.49872,-348.15585,-352.13867,-354.3942,-353.81558,-350.64087,-346.11987,-341.7659,-338.67621,-337.23761,-337.21262,-337.98343,-338.7562,-338.71152,-337.22305,-334.19717,-330.36877,-327.23416,-326.41608,-328.63834,-332.88504,-336.40286,-335.81296,-328.909,-316.16135,-300.94458,-288.14328,-281.74023,-282.66684,-288.14865,-292.98502,-292.11304,-283.07532,-267.078,-248.14708,-230.96048,-218.61674,-211.51764,-207.80344,-204.87024,-200.96704,-195.98062,-191.118,-187.86626,-186.94704,-187.85124,-189.1057,-189.0049,-186.36926,-180.99611,-173.69894,-166.01213,-159.69934,-156.19357,-156.09875,-158.91684,-163.16092,-166.89626,-168.52884,-167.46761,-164.2856,-160.25768,-156.5332,-153.46062,-150.51248,-146.87357,-142.28862,-137.54907,-134.2067,-133.62704,-135.98863,-139.94014,-143.24197,-144.07195,-142.19658,-139.24042,-137.82864,-140.09438,-146.45609,-155.40598,-164.40668,-171.29567,-175.30252,-177.08078,-177.83458,-178.21802,-177.8033,-175.48363,-170.50307,-163.35313,-155.85315,-150.28506,-148.10419,-149.05743,-151.29747,-152.4481,-150.96817,-146.97449,-142.03494,-138.09604,-136.24406,-136.07826,-136.06409,-134.60596,-131.13518,-126.51843,-122.5359,-120.76366,-121.56003,-123.78169,-125.40422,-124.6742,-121.10934,-115.76331,-110.61206,-107.42921,-106.80204,-107.84013,-108.71748,-107.71252,-104.14266,-98.675972,-92.878624,-88.296265,-85.616234,-84.379807,-83.369202,-81.395203,-77.994408,-73.630302,-69.314163,-65.916779,-63.612877,-61.792854,-59.469391,-55.90023,-51.031448,-45.500412,-40.22559,-35.861713,-32.458836,-29.508959,-26.308542,-22.379454,-17.684975,-12.53832,-7.3073273,-2.134419,3.1484692,8.8788671,15.313435,22.437174,29.939716,37.350891,44.242176,50.390293,55.84771,60.919254,66.065781,71.749168,78.234268,85.396065,92.626366,98.940765,103.31445,105.14263,104.60828,102.73627,101.05191,100.97815,103.26968,107.78127,113.68662,120.00672,126.13012,132.02663,138.05721,144.53856,151.36771,157.95815,163.52808,167.55287,170.09637,171.82332,173.70015,176.57405,180.86723,186.51921,193.1416,200.23535,207.32887,214.00031,219.85654,224.5687,227.99301,230.30148,231.99753,233.74832,236.09131,239.17766,242.71526,246.15895,249.03856,251.22215,252.95264,254.64386,256.58173,258.73718,260.81836,262.52325,263.81461,265.02188,266.6915,269.27893,272.88385,277.2001,281.70651,285.9628,289.80975,293.34607,296.71747,299.88474,302.55188,304.31647,304.94327,304.5705,303.70377,303.00031,302.98895,303.90442,305.71649,308.27921,311.43802,314.98148,318.4809,321.19867,322.24643,321.00906,317.62469,313.19049,309.46481,308.12354,309.93076,314.29507,319.50497,323.55734,325.14313,324.25146,322.07428,320.29871,320.21594,322.14481,325.43646,328.9646,331.74335,333.31384,333.76089,333.48734,332.99271,332.8139,333.58389,336.03241,340.80005,348.12378,357.61795,368.36346,379.31842,389.81244,399.78973,409.61566,419.57574,429.4411,438.45682,445.81363,451.28513,455.53705,459.79718,465.01685,471.06064,476.52203,479.39963,478.29721,473.41226,466.64624,460.69141,457.60104,457.70316,459.52615,460.77917,459.7713,456.39001,452.0574,448.74475,447.71323,448.78656,450.57825,451.46481,450.6362,448.55466,446.57904,446.05804,447.49646,450.2865,453.08801,454.53787,453.83133,450.89661,446.19995,440.43195,434.30286,428.48557,423.57803,419.96219,417.59409,415.91724,414.07553,411.39673,407.86731,404.24277,401.63135,400.75122,401.33344,402.10596,401.43945,398.2858,392.81104,386.29321,380.32858,375.85031,372.59863,369.38416,364.96036,358.91751,352.00574,345.68402,341.20807,338.85867,337.7934,336.5755,334.00085,329.69263,324.14166,318.2594,312.80054,308.02014,303.69464,299.36588,294.56638,288.89749,282.02673,273.75662,264.21503,254.02596,244.23007,235.85675,229.33139,224.11018,218.86966,212.2343,203.62613,193.66798,183.81902,175.43141,168.84261,163.13629,156.77046,148.66548,138.99452,129.09557,120.52721,113.90948,108.37785,102.07866,93.408287,82.153275,69.722122,58.270409,49.294186,42.657291,36.737888,29.606579,20.418343,10.029811,0.37735817,-6.9827552,-12.163415,-17.138241,-24.637943,-36.437233,-52.151028,-69.342979,-84.894836,-96.768921,-105.06047,-111.72537,-119.23687,-129.08498,-141.06157,-153.69028,-165.39037,-175.53149,-184.70404,-194.1329,-204.75162,-216.62529,-229.08171,-241.35732,-253.20241,-264.96985,-277.14273,-289.70447,-301.8779,-312.47913,-320.66028,-326.50974,-331.06229,-335.68323,-341.23279,-347.57193,-353.73566,-358.64279,-361.85678,-363.897,-365.92303,-369.03629,-373.67856,-379.50482,-385.76462,-391.88644,-397.85422,-404.13986,-411.2753,-419.38028,-427.97009,-436.16193,-443.13882,-448.58432,-452.84375,-456.74658,-461.211,-466.84293,-473.70895,-481.35556,-489.03619,-496.03787,-501.97736,-506.95395,-511.49716,-516.32513,-522.02069,-528.78528,-536.40344,-544.43683,-552.52057,-560.5603,-568.68463,-576.98041,-585.20776,-592.73218,-598.77191,-602.82629,-604.9931,-605.92993,-606.4549,-607.04846,-607.60931,-607.64398,-606.74304,-604.95825,-602.74469,-600.46576,-597.84039,-593.84491,-587.31342,-577.95917,-567.12494,-557.6051,-552.4126,-553.08282,-558.53217,-565.27875,-569.06244,-567.02667,-559.21967,-548.52679,-539.06915,-534.01917,-534.11151,-537.65875,-541.92792,-544.91595,-546.39868,-547.68799,-550.41583,-555.26495,-561.51172,-567.612,-572.32385,-575.52844,-578.18713,-581.52551,-586.07788,-591.28406,-595.89355,-598.8396,-599.93604,-599.92242,-599.88373,-600.51556,-601.76678,-603.06189,-603.84967,-604.00751,-603.79468,-603.45056,-602.83191,-601.44373,-598.87164,-595.25745,-591.38324,-588.22052,-586.24023,-585.01514,-583.46814,-580.63959,-576.4278,-571.72876,-567.82349,-565.42761,-564.10449,-562.51086,-559.33783,-554.27679,-548.28101,-542.89038,-539.07886,-536.47125,-533.54175,-528.70184,-521.51563,-513.14478,-505.65283,-500.62119,-498.05685,-496.39764,-493.65335,-488.89868,-483.05408,-478.37451,-476.97833,-479.44095,-484.4473,-489.75177,-493.76248,-496.61148,-499.92401,-505.41956,-513.315,-521.67346,-527.22882,-527.23798,-521.23297,-511.59912,-502.62143,-498.52634,-501.54694,-510.91394,-523.11084,-533.13928,-536.24005,-529.52606,-513.12128,-490.48135,-467.63907,-451.33701,-446.4845,-453.91754,-469.63452,-486.19351,-495.88016,-494.16141,-481.57935,-462.9881,-444.55984,-430.35861,-420.57397,-412.44681,-403.14172,-392.49716,-383.63995,-380.90009,-386.35461,-397.37592,-407.008,-407.18182,-392.90546,-364.89426,-329.07922,-293.38779,-263.81601,-242.06557,-225.82687,-211.05429,-194.50002,-174.99178,-153.12822,-130.24138,-107.76492,-87.442108,-71.794258,-63.856884,-65.758934,-76.825935,-92.598213,-105.80862,-109.11286,-98.109795,-72.891563,-37.305809,3.3624728,44.592346,83.304337,116.9503,142.30621,155.54231,154.08418,139.15573,116.98531,97.268082,89.285294,97.817383,121.34461,153.65063,187.73489,219.44858,248.57324,276.95926,305.47244,332.31598,354.19586,369.57443,381.53165,397.80838,427.43961,475.72781,540.52228,612.04108,676.35339,720.60016,737.37604,726.63525,695.10126,654.20038,617.42175,597.24518,601.44116,629.25745,669.27039,701.19122,702.62292,658.92981,571.70856,460.90384,358.30469,294.79355,287.5676,334.01389,415.39828,507.97733,594.96515,672.6156,747.62231,828.53778,917.41638,1007.2097,1086.1998,1145.9188,1186.8348,1217.9226,1250.6466,1291.7046,1339.4836,1386.299,1424.2947,1450.4595,1467.2164,1478.6509,1485.8838,1485.7623,1474.3839,1452.9414,1431.0504,1424.0106,1444.6744,1494.8226,1562.0547,1625.0999,1665.0176,1675.6025,1666.3951,1656.1837,1660.9589,1683.9308,1713.9769,1733.4583,1730.277,1706.3081,1676.7546,1660.9268,1670.5131,1702.9325,1743.8873,1777.1378,1794.8649,1801.819,1810.7847,1832.7443,1868.5627,1907.8075,1935.3649,1941.2457,1926.9143,1903.9618,1886.1901,1880.5909,1883.3175,1883.2268,1870.3823,1843.5952,1811.8649,1788.8293,1784.1073,1797.4413,1819.5143,1838.6814,1848.8486,1853.0723,1860.5421,1879.2545,1909.6581,1943.8291,1970.8472,1984.6797,1989.0757,1995.9243,2017.9183,2060.1841,2116.2297,2170.6963,2206.9685,2214.6792,2192.5132,2145.0986,2076.7949,1987.1172,1871.1324,1724.5116,1549.5507,1357.7097,1166.5038,992.33667,843.54388,717.76978,605.02222,494.24072,379.26715,260.87793,144.32915,34.723484,-66.42363,-161.29977,-253.01033,-342.31018,-426.42108,-500.83871,-562.81836,-614.02191,-660.3927,-709.22595,-765.28186,-828.39771,-894.04193,-956.36432,-1011.7783,-1060.913,-1107.9071,-1157.688,-1212.9958,-1272.8702,-1333.264,-1389.142,-1436.6969,-1474.496,-1503.226,-1524.5901,-1540.2744,-1551.606,-1559.8766,-1566.7865,-1574.42,-1584.5774,-1597.8411,-1613.0443,-1627.6385,-1638.9132,-1645.4623,-1648.0599,-1649.3815,-1652.6377,-1659.8276,-1670.5759,-1682.2365,-1691.2506,-1695.0356,-1693.3613,-1688.4528,-1683.7767,-1682.2258,-1684.7416,-1690.1295,-1696.0885,-1700.7515,-1703.7684,-1706.3073,-1710.0653,-1716.0031,-1723.6406,-1731.3325,-1737.2689,-1740.5087,-1741.4019,-1741.2451,-1741.5527,-1743.5195,-1747.9948,-1755.791,-1767.8383,-1784.8173,-1806.3848,-1830.5599,-1853.8822,-1872.4961,-1883.6541,-1886.7579,-1883.2749,-1875.5747,-1865.4469,-1853.2667,-1838.3134,-1819.918,-1798.5197,-1775.7791,-1753.609,-1732.8163,-1712.3969,-1690.1051,-1664.0024,-1633.9342,-1601.8643,-1570.7504,-1542.6781,-1517.5325,-1493.1569,-1466.9233,-1437.6305,-1406.3741,-1375.7306,-1347.7858,-1322.3984,-1296.9889,-1268.1113,-1233.8164,-1195.1948,-1155.9812,-1120.3807,-1090.4927,-1065.0148,-1040.0903,-1011.748,-978.33606,-941.37347,-904.31915,-870.14941,-839.40936,-810.03711,-779.02386,-744.7182,-708.16113,-672.52551,-641.04352,-614.83557,-592.10968,-569.25641,-543.0788,-512.6524,-479.59961,-446.67603,-415.72028,-386.43021,-356.81406,-324.96616,-290.86133,-256.8204,-226.20972,-201.18181,-180.99174,-162.11449,-140.2254,-112.84895,-80.973961,-48.538269,-20.032743,2.3028204,19.921415,37.115879,58.386551,85.676643,117.20702,148.62259,175.69083,196.81674,213.78339,230.29559,249.33498,271.09711,292.88141,311.00705,323.48273,331.64896,339.67413,352.18719,371.55176,396.52628,423.15341,447.27454,467.02222,483.68948,500.47214,519.9953,542.32709,564.83124,583.95343,597.72455,607.26892,616.25958,628.62946,646.01031,666.56848,686.00708,700.11316,707.25543,709.30292,710.46686,714.86548,724.34131,737.78778,752.21118,764.67572,773.84589,780.26385,785.41895,790.42645,795.25934,798.96143,800.54242,799.83679,797.73914,795.7403,795.16241,796.59979,799.79736,803.82831,807.27789,808.31586,804.83844,794.97656,778.0293,755.43518,731.1015,710.57025,699.10345,699.4668,710.51453,727.37329,743.23083,751.91791,750.10071,738.16681,719.58679,699.23523,681.49524,668.86121,661.38226,656.93555,652.12628,643.55518,629.14026,609.08759,586.08093,564.45648,548.5708,541.05792,541.86749,548.65442,558.35522,569.06024,581.04974,596.33258,616.94781,643.09167,672.28326,700.15527,722.44385,737.0058,744.68597,748.58289,752.22723,757.76849,765.13196,772.41101,777.01526,776.78632,770.54736,758.08685,739.94861,717.35052,692.19983,666.87732,643.53864,623.10333,604.53735,585.07593,561.55304,532.26886,498.34964,463.70718,433.45966,411.57941,399.01941,393.32486,389.9158,384.3288,374.25046,360.37515,345.78912,334.30576,328.58673,328.8616,332.72324,336.03824,334.62112,326.04935,310.88403,292.68985,276.66895,267.36264,266.44162,271.73422,278.12216,279.95221,273.70999,259.48044,240.40028,220.52898,202.54213,186.71587,171.73436,156.545,141.73392,129.27127,120.75074,115.49921,110.19847,100.64947,84.685242,64.18644,44.536354,31.53112,27.615408,29.996002,32.094193,27.578867,14.384865,-4.00176,-20.934637,-31.109734,-34.116596,-34.584339,-38.822548,-50.333977,-67.409973,-84.565582,-96.809753,-103.63271,-109.68423,-121.43316,-142.04849,-168.20979,-191.40039,-203.16008,-200.88412,-190.12527,-181.54707,-184.28224,-200.01149,-221.77574,-238.47223,-242.17754,-233.46637,-221.13818,-216.44197,-225.55695,-245.28214,-264.79645,-272.36588,-262.64801,-239.90704,-215.18784,-199.4449,-197.15718,-204.45515,-212.67503,-214.67787,-209.60689,-203.02248,-202.58714,-212.43776,-230.12314,-248.10402,-258.68115,-258.97156,-252.64452,-247.38696,-249.89999,-261.74109,-278.60645,-293.2941,-300.23654,-298.66068,-292.54413,-287.71484,-288.19058,-294.09378,-302.20734,-308.44281,-310.39462,-308.3822,-304.61264,-301.3826,-299.70917,-299.22751,-299.14447,-299.29443,-300.409,-303.44003,-308.56378,-314.73669,-320.22162,-323.73306,-325.35367,-326.52438,-329.07587,-333.96027,-340.55295,-346.99023,-351.29486,-352.52603,-351.22122,-348.91818,-347.15942,-346.66812,-347.17133,-347.84589,-347.9552,-347.21384,-345.73352,-343.7724,-341.6279,-339.79254,-339.14526,-340.80133,-345.46866,-352.61871,-360.10962,-364.77747,-363.93042,-356.99316,-346.25525,-336.06146,-330.68723,-332.01688,-338.39972,-345.4584,-348.48553,-345.07468,-336.43512,-326.59482,-319.96545,-318.7403,-321.69302,-325.07166,-324.983,-319.75833,-310.84448,-301.73315,-295.68848,-293.76291,-294.34247,-294.42447,-291.69724,-286.00699,-279.26639,-273.94397,-271.23557,-270.20862,-268.50879,-264.11508,-256.88733,-248.78148,-242.53525,-239.70921,-239.45831,-238.9473,-235.20538,-227.19879,-216.69037,-207.22847,-201.86339,-201.08543,-202.39114,-201.83713,-196.61598,-186.96794,-176.1286,-168.27736,-165.77261,-167.46342,-169.20758,-166.31909,-156.42755,-140.9612,-124.33981,-111.40714,-104.71278,-103.28666,-103.55029,-101.65336,-95.696785,-86.503365,-76.633232,-68.483902,-62.810223,-58.569309,-54.001076,-48.015568,-40.843861,-33.549049,-26.886061,-20.481609,-13.035766,-3.4370296,8.0597267,19.559128,28.505865,33.350311,34.766163,35.504959,38.854069,46.619991,57.929638,69.657486,78.252434,81.837646,81.283936,79.622948,80.222427,84.898224,93.107628,102.61034,111.02648,117.20376,121.54176,125.20575,128.93045,132.34406,134.30374,133.96419,131.75272,129.47963,129.41936,132.92807,139.50644,146.9437,152.47884,154.26273,152.22685,147.86104,143.09573,139.02092,135.22783,130.13623,122.06544,110.40102,96.211945,82.026016,70.921562,65.386742,66.427109,73.229279,83.454109,94.037003,102.23827,106.59991,107.44561,106.6701,106.8326,109.91999,116.38534,125.00057,133.6506,140.63867,145.71671,150.17203,155.87416,163.87502,173.49878,182.58742,188.81636,191.24985,191.08435,191.02213,193.62573,199.71994,207.91966,215.62843,220.84999,223.57339,225.75282,229.85736,236.96985,245.76984,253.17094,256.26389,254.30161,249.3898,245.38155,245.66225,251.24402,260.3717,269.82852,277.01462,281.41226,284.53729,288.54388,294.54584,301.83453,308.4671,312.70584,314.2204,314.20728,314.41483,315.86316,318.22598,320.29715,321.1217,320.87625,320.79593,322.19669,325.34961,329.09198,331.50714,331.19321,328.18887,323.87747,319.96402,317.32147,315.59427,313.84814,311.71707,310.0723,310.57449,314.34204,320.72314,327.19669,330.67068,329.41684,324.33582,318.62601,315.99966,318.60706,326.05188,336.12592,346.6806,357.25369,369.26028,384.61575,403.81784,424.93268,444.29187,458.46643,466.14673,468.61182,468.49252,467.77487,466.54053,463.37988,457.13788,448.60519,440.73935,437.05093,439.18097,445.40323,451.25574,452.06641,445.78604,434.25116,422.00516,413.43677,410.12418,410.1153,409.54388,405.40225,397.55731,388.69055,382.31873,380.35477,381.90381,384.03595,383.86008,380.36414,374.7666,369.28122,365.3461,362.66843,359.7095,355.07642,348.60342,341.2178,333.73718,325.6947,315.3577,301.1857,283.73886,266.46909,254.43434,251.42769,257.29211,267.32455,274.45126,273.04196,262.05447,245.5162,230.00545,220.71677,218.59131,220.25819,220.65825,216.4758,208.05695,198.62173,191.47894,187.30989,183.47992,175.86769,161.91383,142.72705,122.73457,107.05987,98.371635,95.306854,93.497246,88.478752,78.533844,65.621498,53.876804,46.779648,44.908169,45.6996,45.235691,40.739315,32.099075,21.514803,11.682173,3.8767545,-2.7527649,-10.309202,-20.434292,-33.023186,-46.238155,-57.728905,-66.140808,-71.86747,-76.613258,-82.189064,-89.448669,-98.069977,-107.19852,-116.33481,-125.72663,-135.97775,-147.23759,-158.6848,-168.80203,-176.3262,-181.2135,-184.8927,-189.55171,-196.87631,-207.05464,-218.69763,-229.71828,-238.58685,-245.15926,-250.59555,-256.50519,-263.94223,-272.91064,-282.63477,-292.31015,-301.7529,-311.49124,-322.27448,-334.38766,-347.27756,-359.75723,-370.65549,-379.48898,-386.7442,-393.61981,-401.40851,-410.87582,-421.9454,-433.79434,-445.25055,-455.27924,-463.36469,-469.67361,-474.97021,-480.3154,-486.64285,-494.36523,-503.18878,-512.25549,-520.57922,-527.56818,-533.34845,-538.69586,-544.61249,-551.80463,-560.37616,-569.89825,-579.75348,-589.47644,-598.8504,-607.74823,-615.93536,-623.09528,-629.13824,-634.56036,-640.48175,-648.16241,-658.185,-669.83386,-681.19135,-690.06592,-695.29248,-697.60266,-699.43866,-703.70496,-712.14502,-724.315,-737.79486,-749.51495,-757.38654,-761.26019,-762.7041,-763.87207,-766.2818,-770.2901,-775.48108,-781.51465,-788.69324,-797.79364,-809.33301,-822.90887,-837.20551,-850.73053,-862.74402,-873.64685,-884.48053,-895.88391,-907.3158,-917.21198,-924.05615,-927.61017,-929.33472,-931.55396,-935.83545,-941.71564,-946.77167,-948.15607,-944.65472,-937.8598,-931.54584,-929.51172,-933.21814,-940.75513,-947.85107,-950.31,-946.33917,-937.32483,-926.66583,-917.55054,-911.1922,-906.61566,-901.94495,-896.10712,-889.66528,-884.2287,-880.98987,-879.58173,-878.1709,-874.72784,-868.49243,-860.48889,-852.66284,-846.28595,-840.87183,-834.5014,-825.39282,-813.56287,-801.26587,-791.73676,-787.01337,-786.36115,-786.48273,-783.46997,-775.20654,-762.57324,-748.62671,-736.35797,-726.6568,-717.95447,-707.78387,-695.05957,-681.30273,-669.77399,-663.02606,-660.63403,-658.8598,-652.70422,-639.08307,-618.96899,-596.94995,-578.39777,-566.10449,-558.65497,-551.63196,-540.79181,-524.98401,-506.77774,-490.3949,-478.47052,-470.00433,-461.01544,-447.46188,-428.32587,-406.59808,-387.36044,-374.24191,-366.72479,-360.23444,-349.0163,-329.84485,-304.00986,-276.21921,-251.20764,-230.42827,-211.11453,-188.311,-158.39136,-121.58767,-81.82666,-44.117374,-11.440332,16.665283,42.966545,69.911057,97.615417,123.99771,146.85222,166.10889,184.34662,204.99237,229.51254,255.83589,279.45776,296.67691,307.68048,317.07391,331.15576,353.61057,382.61285,411.56073,433.22867,444.70551,449.79391,457.14276,475.20892,507.26227,549.58917,593.86945,631.93378,659.67126,677.7038,688.87109,694.79413,694.2063,684.14722,662.78229,631.35577,593.56348,552.84552,509.9888,463.4426,412.72433,362.66107,325.00369,315.26926,345.8089,418.95053,524.5531,643.89862,758.0047,855.67065,936.73901,1009.0689,1081.5938,1158.0354,1235.0076,1305.0715,1362.0402,1404.6646,1436.4067,1462.036,1484.0372,1501.717,1513.6228,1521.1967,1530.4987,1550.1711,1586.6147,1639.5673,1701.2748,1760.1536,1806.8334,1838.8424,1861.0819,1882.0327,1908.407,1941.8151,1979.4192,2017.6584,2056.012,2097.8713,2147.8313,2207.4312,2272.637,2335.2053,2387.291,2426.2073,2455.9111,2483.8887,2515.3188,2548.469,2574.7373,2583.7939,2570.8,2541.0046,2508.3979,2488.75,2491.0549,2512.6611,2541.3279,2563.2375,2572.2454,2574.7205,2586.8936,2626.1118,2701.0698,2806.6426,2926.0959,3038.9893,3129.8201,3192.4004,3228.0012,3239.4407,3225.7827,3181.5952,3101.3528,2985.8293,2845.7515,2699.6387,2566.5542,2457.9316,2373.4258,2303.3293,2236.0247,2165.8542,2096.6414,2038.9458,2003.1184,1992.7397,2002.5635,2022.02,2041.7373,2058.7412,2077.0493,2103.4839,2141.5962,2187.6711,2231.2957,2260.0298,2265.2444,2245.7004,2207.0801,2158.2007,2106.4624,2055.1152,2003.4554,1949.1451,1890.7609,1828.9382,1765.6786,1702.6122,1639.4972,1573.8324,1501.6353,1418.7931,1322.2837,1210.8519,1085.0948,947.06683,799.5108,644.8269,484.06033,316.39044,139.58818,-48.499672,-248.02142,-455.78424,-665.42419,-869.24701,-1060.9418,-1237.8038,-1401.342,-1556.053,-1707.1633,-1858.6012,-2012.1049,-2167.5056,-2323.4644,-2477.8462,-2627.4863,-2767.8713,-2893.5654,-2999.7854,-3084.6067,-3150.5498,-3204.3503,-3254.626,-3308.3918,-3368.1714,-3431.2214,-3491.2834,-3541.8953,-3579.5107,-3604.8799,-3622.2012,-3636.7607,-3652.4514,-3670.3801,-3688.9802,-3705.1777,-3715.7595,-3718.2598,-3711.2107,-3694.0403,-3666.9822,-3631.1404,-3588.5286,-3541.8232,-3493.7402,-3446.2659,-3400.1472,-3354.9517,-3309.6711,-3263.519,-3216.4509,-3169.1289,-3122.408,-3076.7048,-3031.6733,-2986.3938,-2939.9558,-2892.0823,-2843.4153,-2795.2949,-2749.1404,-2705.7585,-2664.9302,-2625.4705,-2585.7251,-2544.2505,-2500.3669,-2454.3425,-2407.1614,-2360.0188,-2313.8054,-2268.8213,-2224.8257,-2181.345,-2138.0327,-2094.8665,-2052.0876,-2009.951,-1968.4733,-1927.3604,-1886.1703,-1844.6041,-1802.7305,-1760.9894,-1719.9652,-1680.0682,-1641.3236,-1603.3875,-1565.7618,-1528.0553,-1490.1255,-1452.0399,-1413.9252,-1375.8446,-1337.8,-1299.8357,-1262.1316,-1224.9731,-1188.5912,-1152.986,-1117.886,-1082.9117,-1047.8569,-1012.8936,-978.53186,-945.32343,-913.48199,-882.672,-852.12463,-821.0271,-788.94727,-756.0235,-722.80573,-689.86688,-657.45673,-625.43201,-593.49365,-561.53638,-529.83398,-498.90543,-469.14792,-440.51074,-412.47159,-384.36789,-355.87125,-327.26651,-299.31073,-272.73245,-247.69586,-223.60442,-199.41084,-174.26146,-148.06593,-121.60891,-96.101181,-72.420128,-50.482883,-29.109644,-6.43644,19.372606,49.487633,84.112068,122.54311,163.43925,205.12915,245.91187,284.3974,319.89551,352.70441,384.03131,415.36816,447.46582,479.42291,508.53314,531.2442,544.95093,549.74292,549.05908,548.67145,554.31598,569.11157,592.12946,618.91846,643.73413,662.28052,673.50604,679.57117,684.16418,690.25555,698.60706,707.79456,715.54205,720.41119,722.77979,724.59003,728.15369,734.84668,744.49329,755.72131,766.93781,777.24585,786.75861,796.22614,806.32776,817.13257,828.04102,838.16797,846.86792,854.07709,860.31891,866.43524,873.22388,881.1441,890.17108,899.81073,909.26465,917.71564,924.65558,930.11169,934.62225,938.9231,943.49219,948.2384,952.57355,955.87061,958.01874,959.66608,961.91034,965.58325,970.60272,975.88708,979.97253,981.97375,982.23529,982.17548,983.36377,986.42493,990.53027,993.87115,994.83472,993.09918,989.89825,987.27173,986.82367,988.84473,992.37201,996.06781,999.20709,1002.0262,1005.2214,1009.0876,1013.089,1016.2977,1018.3878,1020.3217,1024.0176,1031.0825,1041.5571,1053.8217,1066.0671,1078.4883,1094.5178,1119.7505,1158.6606,1210.9065,1269.7231,1323.9609,1363.1421,1382.8351,1387.1147,1386.3868,1391.6167,1408.2795,1433.6602,1459.1656,1476.246,1482.2646,1482.6605,1488.0135,1507.7585,1544.3207,1591.1368,1635.6328,1665.2759,1673.1415,1659.969,1631.9564,1596.0664,1555.8473,1510.1028,1454.7784,1386.5109,1305.5353,1216.3811,1126.3168,1042.8052,971.51831,915.74951,876.95166,855.41089,850.14813,857.87311,871.65814,880.40833,869.9516,825.83032,737.05658,599.59857,418.38843,207.13753,-14.028862,-222.44255,-397.23117,-523.11407,-592.97009,-608.89337,-581.71692,-529.03461,-471.74661,-429.35016,-414.74692,-430.05817,-465.30762,-501.3132,-516.58527,-496.01526,-437.73962,-354.79749,-270.30096,-207.93997,-182.11951,-192.40742,-224.87743,-259.41586,-279.07214,-276.74744,-256.33157,-228.64497,-205.24527,-193.76189,-196.77426,-213.62802,-242.80171,-282.61197,-329.87399,-378.15402,-417.91006,-439.56802,-438.28699,-417.4834,-388.42203,-365.34351,-358.37439,-368.05231,-384.63446,-392.77206,-379.18054,-339.33969,-279.89514,-215.80351,-163.93614,-136.36871,-136.31235,-158.01837,-190.07083,-220.23648,-239.83295,-246.1673,-242.48944,-235.73706,-232.99809,-238.05191,-249.43631,-261.01614,-264.96613,-255.79741,-233.27589,-202.44807,-170.53745,-142.41949,-117.49486,-90.174904,-54.024998,-7.1374302,44.831165,90.384392,118.1884,123.94668,113.76356,101.42461,100.68514,116.94302,143.41606,164.50075,164.71317,138.11215,92.59584,46.365047,18.446564,18.680229,42.858017,75.618835,99.163216,102.62086,86.851173,62.450428,42.797531,36.597485,44.124241,58.663147,71.404602,76.305618,72.101677,60.981167,45.689251,27.517136,6.4844894,-16.929728,-40.396961,-60.222069,-73.614227,-81.055481,-86.743797,-96.343163,-113.25239,-135.87038,-157.90752,-171.86275,-173.62282,-165.2354,-153.94606,-147.95351,-151.49103,-162.34673,-173.41962,-177.33279,-171.16272,-158.27972,-146.17998,-141.78734,-147.31856,-159.37842,-171.77475,-180.05679,-184.63831,-190.33141,-202.56546,-222.8718,-246.83318,-266.16388,-273.86279,-269.23172,-259.41183,-256.12909,-269.30957,-301.26535,-344.94141,-387.34924,-416.23138,-426.10208,-420.2464,-407.7424,-397.53857,-393.26227,-391.79013,-386.16675,-370.77899,-345.43552,-315.86423,-290.48141,-275.58734,-271.98242,-274.95395,-277.41016,-274.05499,-264.03561,-250.63548,-238.50151,-230.35121,-225.25182,-219.42848,-208.9449,-192.52046,-172.78558,-155.28535,-145.83215,-147.63327,-159.6156,-176.67868,-191.69504,-198.38283,-193.91243,-180.24843,-163.65279,-152.37691,-153.25507,-168.48911,-194.09373,-220.99605,-238.66844,-239.85983,-224.18478,-198.62872,-174.46207,-161.95592,-165.58788,-182.28395,-203.62434,-220.72049,-228.95338,-229.89125,-229.43423,-233.52272,-244.18063,-258.34943,-270.11951,-274.77292,-271.92996,-265.75101,-262.13495,-264.84628,-273.18155,-282.71198,-288.54178,-288.81909,-286.07269,-285.43643,-290.95993,-302.54007,-315.62698,-324.00336,-323.83954,-316.31259,-306.97525,-302.20001,-304.98792,-312.90994,-319.60132,-318.92792,-309.1843,-294.61905,-283.25223,-282.27664,-293.82623,-313.63138,-333.27261,-344.58151,-343.57254,-331.78296,-314.61462,-298.05463,-285.88156,-278.8103,-275.57153,-274.70856,-275.67139,-278.59583,-283.27689,-288.43329,-292.02576,-292.45691,-289.70053,-285.38953,-281.66037,-279.5239,-277.97043,-274.56183,-267.2114,-255.94997,-243.38283,-233.36745,-228.64616,-228.93556,-230.76891,-229.31685,-221.16246,-206.38293,-188.68787,-173.52338,-165.24174,-164.93527,-170.07886,-176.04312,-178.51079,-175.43668,-167.59637,-157.64685,-148.42438,-141.49683,-136.68501,-132.62978,-127.90678,-121.97394,-115.43547,-109.54909,-105.33025,-102.80296,-100.83742,-97.675079,-91.850441,-82.97892,-71.930534,-60.247433,-49.128307,-38.624249,-27.643637,-14.908662,-0.36994904,13.842336,23.742439,25.222351,16.429436,-0.54523939,-19.817064,-33.915844,-37.086441,-27.985449,-10.289682,9.1738653,23.801483,30.2855,29.788301,26.736616,26.101057,30.794077,40.579731,52.852142,64.501221,73.558388,79.677567,83.436981,85.271744,85.010239,82.414589,78.264778,75.009583,76.223534,84.922607,101.64973,123.54739,145.15105,160.6468,166.45323,162.76172,153.23473,143.07375,136.52266,135.09541,137.32794,139.98863,139.9512,135.71336,127.8802,118.55526,110.12111,104.08444,100.48819,98.027359,94.673767,88.463318,78.136139,63.461029,45.223099,24.952745,4.5194254,-14.280645,-30.037909,-41.88982,-49.538029,-53.18066,-53.422573,-51.185421,-47.589157,-43.764828,-40.608379,-38.562481,-37.550598,-37.1315,-36.811714,-36.332043,-35.735188,-35.155289,-34.475536,-33.130375,-30.271215,-25.276649,-18.315626,-10.562582,-3.8226726,0.31380075,1.3329804,0.14174846,-1.3717344,-1.3611894,0.94989961,4.8497071,8.5919914,10.455862,9.7708273,7.2900128,4.703979,3.622086,4.6653996,7.2170477,9.9365168,11.659224,12.085827,11.845273,11.952266,13.072361,15.0992,17.297085,18.85976,19.465014,19.440916,19.458086,20.000839,21.010904,21.954103,22.248199,21.736139,20.866293,20.454189,21.188944,23.21122,26.025488,28.777868,30.700014,31.441523,31.121927,30.133656,28.875095,27.599068,26.446463,25.596542,25.401146,26.407196,29.262388,34.567547,42.745773,53.959217,68.067329,84.615479,102.86055,121.84591,140.51466,157.81644,172.76019,184.41356,191.9156,194.5938,192.21298,185.26115,175.08202,163.68732,153.23885,145.39423,140.82607,139.15457,139.31079,140.1086,140.70805,140.76222,140.27342,139.37151,138.23174,137.17839,136.81223,137.93333,141.17319,146.50699,152.9875,158.97064,162.80685,163.6409,161.83517,158.72458,155.81752,153.91795,152.71031,151.06602,147.87515,142.87364,136.94351,131.70009,128.62532,128.27356,130.00899,132.3958,133.98282,134.03471,132.8474,131.55362,131.58517,134.07275,139.41296,147.10684,155.87387,164.00238,169.86966,172.50591,171.99811,169.51718,166.87355,165.74757,166.9626,170.20488,174.37213,178.35849,181.79169,185.24152,189.74454,195.94426,203.42429,210.71416,216.01848,218.23851,217.64496,215.77216,214.59825,215.52502,218.77396,223.51395,228.54721,233.04349,236.84837,240.25052,243.49654,246.49614,248.96059,250.83295,252.60133,255.15256,259.18082,264.54807,270.09824,274.15524,275.45587,273.92969,270.7897,267.83261,266.37567,266.51471,267.18805,266.99557,265.21609,262.32672,259.6636,258.44254,258.80096,259.52554,258.69098,254.84088,247.97931,239.74319,232.62341,228.67694,228.46933,230.83264,233.53564,234.44568,232.52263,228.13846,222.63815,217.47841,213.46234,210.45891,207.67039,204.20421,199.58553,193.95186,187.89874,182.14302,177.22522,173.38397,170.58797,168.61661,167.09479,165.48106,163.097,159.28621,153.69632,146.54956,138.71231,131.44945,125.92947,122.71783,121.53764,121.44137,121.29478,120.28131,118.12611,114.93375,110.80972,105.59927,98.998749,91.010132,82.408127,74.798904,70.065056,69.402649,72.489838,77.340508,81.038231,81.022995,76.244774,67.551361,57.122601,47.322063,39.651459,34.365788,30.839069,28.287579,26.288601,24.772011,23.614779,22.28578,19.933365,15.92371,10.425805,4.5280805,-0.32452494,-3.2716553,-4.71346,-6.1878791,-9.4359608,-15.225168,-22.724239,-29.901186,-34.741112,-36.510128,-36.229145,-36.029228,-37.804688,-42.052116,-47.654949,-52.725792,-55.896873,-57.149994,-57.608711,-58.448124,-59.702175,-59.83469,-56.425518,-47.565205,-33.06596,-14.714023,4.5825152,22.186386,36.787186,48.519604,58.196243,66.282791,72.357704,75.404182,74.675621,70.485809,64.351921,58.38253,54.311275,52.780766,53.266163,54.576065,55.513821,55.261837,53.344212,49.382732,43.005825,34.096622,23.21796,11.812602,1.851174,-5.0355892,-8.496871,-9.8771563,-11.747719,-16.699226,-26.000586,-38.852726,-52.663082,-64.214813,-71.125999,-72.863068,-70.843864,-67.662979,-65.90303,-67.135757,-71.529266,-78.110641,-85.413925,-92.128845,-97.47464,-101.24129,-103.62099,-105.0039,-105.84491,-106.60241,-107.69132,-109.4105,-111.86522,-114.94662,-118.41104,-122.03394,-125.74839,-129.66846,-133.96098,-138.62901,-143.34334,-147.45512,-150.2332,-151.24112,-150.67068,-149.44055,-148.96353,-150.64447,-155.31584,-162.87582,-172.32608,-182.23486,-191.44728,-199.72479,-207.99548,-218.05031,-231.77243,-250.22061,-272.98654,-298.14542,-322.8526,-344.33121,-360.80298,-371.94501,-378.69791,-382.58273,-384.91861,-386.34677,-386.85199,-386.16724,-384.23663,-381.4213,-378.34421,-375.53421,-373.16354,-371.08499,-369.13129,-367.41962,-366.37622,-366.39655,-367.35114,-368.3205,-367.84857,-364.67545,-358.55637,-350.64349,-343.11465,-338.17468,-336.95773,-338.95563,-342.31207,-344.81937,-345.04654,-342.96555,-339.76257,-337.0123,-335.74936,-335.97919,-336.85202,-337.30237,-336.70395,-335.14526,-333.22385,-331.57196,-330.45807,-329.69955,-328.87933,-327.66599,-326.01086,-324.12473,-322.30161,-320.7366,-319.44354,-318.27628,-316.99408,-315.32245,-313.01761,-309.96555,-306.3017,-302.46561,-299.08813,-296.69794,-295.38071,-294.61816,-293.46924,-291.05145,-287.05887,-281.98566,-276.88202,-272.76608,-270.05228,-268.35687,-266.7959,-264.55902,-261.36389,-257.49826,-253.46884,-249.56544,-245.69878,-241.63503,-237.41283,-233.54968,-230.78488,-229.47627,-229.09254,-228.25394,-225.42485,-219.87869,-212.29128,-204.49745,-198.4812,-195.20639,-194.0495,-193.22926,-190.9698,-186.62785,-181.02382,-175.75137,-171.94521,-169.37236,-166.50412,-161.55113,-153.76863,-144.12788,-134.86092,-128.14153,-124.7508,-123.59225,-122.36024,-118.91277,-112.4646,-103.87904,-94.961136,-87.299721,-81.436165,-76.830666,-72.506744,-67.81488,-62.761959,-57.755791,-53.080521,-48.590771,-43.87859,-38.736851,-33.473141,-28.743231,-24.984226,-21.901672,-18.484709,-13.64209,-7.0460958,0.46099532,7.2882228,12.144424,15.011646,17.319891,21.116476,27.735165,36.866135,46.697456,55.073963,60.899761,64.814621,68.663544,74.124397,81.463959,89.315376,95.649033,99.248817,100.62685,101.69721,104.42219,109.40276,115.45367,120.50922,123.23492,124.1725,125.53768,129.74077,137.63876,147.77287,157.18864,163.3215,165.64571,165.91278,166.78534,169.8302,174.33406,177.85571,178.18111,175.27338,171.70627,171.0713,175.31134,182.83533,188.92372,188.48378,179.58192,165.47215,153.60016,151.88283,164.31047,188.46535,216.50333,239.12265,250.28604,250.04225,243.9527,239.62663,242.48106,253.12778,267.66312,280.36893,287.02487,286.91422,282.61652,278.0834,276.39377,278.50845,283.48407,289.62616,295.60428,300.83084,305.1084,308.11758,309.35062,308.62344,306.72031,305.50226,307.13113,312.70978,321.15619,329.12979,332.27026,327.22141,313.38763,293.44156,272.25113,254.74632,243.82013,239.32838,238.6476,238.41113,236.43436,232.78238,229.44592,228.8797,232.28757,238.66754,245.1864,248.68504,247.45149,242.2227,235.80292,231.4877,231.1974,234.4225,238.61879,240.82288,239.50006,235.47116,231.31964,229.6373,231.22849,234.45824,236.22414,233.98157,227.52985,219.36362,213.28168,212.07237,215.72958,221.36047,224.88963,223.51367,217.36607,209.34604,203.2356,201.31764,203.00882,205.34453,204.95287,200.21844,192.26408,184.18823,179.1292,178.43457,181.06158,184.47121,186.31602,185.79016,183.84457,182.28267,182.45644,184.43388,187.07431,188.80138,188.47025,185.80841,181.31996,175.91669,170.60439,166.33014,163.84923,163.45708,164.66647,166.15199,166.24117,163.85068,159.3119,154.4101,151.38242,151.36772,153.33975,154.41293,151.56546,143.79948,133.29225,124.60622,122.26921,128.18982,140.60513,155.31871,168.45718,178.89215,188.6403,200.91588,217.16571,235.20226,249.86542,255.9115,251.2339,238.2041,222.15559,207.99301,197.22716,187.46188,174.64958,156.47647,134.42982,113.04034,96.837227,87.241493,81.715706,75.872604,67.053947,56.716999,49.719803,50.811501,60.754055,74.964149,85.934921,88.037201,81.467125,72.465057,69.347984,76.785286,92.11097,106.29515,109.19417,95.845161,69.792686,41.28643,21.463285,16.162395,23.164188,34.349236,41.111015,39.423729,31.463173,23.141743,19.603323,21.840755,26.526548,28.784887,25.690107,18.040937,9.4334593,3.6433797,2.3716538,4.8483143,9.1957893,14.118305,19.41931,25.021881,29.568672,30.129354,23.639971,9.1397457,-11.0597,-32.583492,-52.130299,-70.400314,-92.426033,-124.49156,-169.261,-222.32251,-272.83331,-308.47284,-322.03027,-315.61612,-299.71246,-287.38232,-286.99203,-297.78354,-310.90414,-315.1499,-303.84598,-278.73886,-248.78568,-224.91898,-214.18913,-216.74501,-227.05074,-238.02545,-245.20245,-248.41986,-250.47859,-254.21118,-260.17548,-266.37906,-269.8157,-268.38892,-261.79922,-251.02126,-237.17952,-221.0166,-203.48201,-186.83824,-175.02568,-172.42931,-181.40605,-200.07257,-222.02303,-238.61301,-242.82698,-232.62056,-211.78413,-187.77403,-167.74622,-155.08009,-148.3412,-143.12114,-135.46162,-124.67809,-113.86259,-107.83103,-109.853,-119.21121,-131.09695,-138.92868,-137.75659,-126.81575,-109.82417,-92.931213,-81.526009,-77.678215,-79.530846,-82.80648,-83.416092,-79.632881,-72.673363,-65.540398,-61.005272,-60.033619,-61.569149,-63.655964,-65.010513,-65.901199,-67.712677,-71.51487,-76.693016,-80.714363,-80.370613,-73.810234,-62.052864,-48.907112,-39.189739,-36.251453,-40.316525,-48.676289,-57.612698,-64.814163,-70.721245,-77.933876,-89.082634,-104.58011,-121.75345,-135.95999,-142.99939,-141.3129,-132.63019,-120.75193,-109.33611,-100.11191,-92.544693,-84.951195,-76.137634,-66.423454,-57.48843,-51.366467,-49.440216,-52.118298,-59.20039,-70.334793,-84.946907,-101.59004,-117.36543,-128.25969,