Bandpass,0,0.20029,-92.931618,-80.687721,-67.820618,-61.982925,-66.310768,-75.524765,-77.78521,-62.103119,-26.97975,15.645045,44.709991,41.072598,-0.90708458,-68.418495,-135.46797,-175.8262,-176.31184,-142.70259,-94.987343,-55.169708,-35.176159,-32.025768,-32.51688,-23.606653,-1.3361554,27.37417,50.637444,60.614357,59.205029,56.612606,64.070351,86.021347,117.21275,146.58369,165.03052,171.54124,173.48804,181.09929,200.15877,228.0554,255.77335,274.08432,279.33899,274.78085,266.72913,258.87991,249.28807,232.49826,205.29169,171.52034,141.91641,128.27469,135.68076,158.24579,181.74416,191.89639,183.01768,161.20859,139.78,129.87692,132.5818,137.98441,132.01334,106.55294,66.017265,25.784323,3.2824042,7.4280195,33.242363,65.082108,86.276443,88.869194,77.293457,64.014526,60.48201,69.653381,84.914276,95.650871,95.160179,85.217361,74.203773,70.385193,75.356018,82.495316,81.652412,66.825958,41.398865,17.085997,7.0542951,17.679312,44.391827,74.372086,94.321991,98.23349,90.184387,80.566238,78.488197,85.487671,94.666489,95.646141,81.933975,55.837563,27.75042,10.352614,11.37445,29.303991,54.39246,74.042618,79.257904,68.61528,48.054337,27.262663,15.010617,15.767516,28.673302,48.557289,68.000427,79.596947,78.01976,61.71981,33.859489,1.8821033,-24.62686,-37.3162,-32.30542,-11.659167,17.768204,47.547367,71.191284,86.076546,92.929367,93.626862,89.074371,78.714272,61.923454,40.107601,17.732309,1.2047025,-3.9802642,3.809041,21.090485,40.513435,53.936852,55.725048,44.732124,24.365757,1.1484805,-17.343287,-24.486166,-16.355247,6.8343248,39.929733,73.396164,95.798225,97.887268,76.757919,37.911476,-6.2954402,-41.544003,-57.538013,-52.001297,-30.588041,-2.9240444,22.738884,43.039604,59.282116,74.062988,87.410606,95.349762,92.050804,74.178368,44.408607,11.498976,-13.501661,-22.800026,-15.85251,0.57267004,16.251585,22.958582,18.419661,6.7908092,-4.1541185,-7.1879354,1.1376616,19.454903,42.538078,63.203732,74.239624,70.134438,48.786911,13.049179,-28.743093,-64.356636,-81.665375,-73.793198,-42.829498,0.32529858,40.552883,65.505539,71.24234,63.25536,52.248215,47.204971,50.013966,54.951191,53.231552,39.559853,16.320692,-7.4054055,-21.388678,-20.733793,-9.0384245,3.8642814,8.1354208,0.14071546,-15.278265,-27.793432,-27.814859,-12.02702,15.002375,43.699547,64.637138,72.679054,67.99292,54.166721,35.471859,15.356117,-3.2328939,-16.86482,-21.679426,-15.138142,1.6357232,23.011488,40.849174,48.646011,45.288109,35.71978,27.694138,26.494583,31.134693,34.81213,29.611828,12.470128,-11.692266,-32.071655,-38.268536,-26.778276,-3.3697886,20.397385,34.387939,36.148685,32.035275,32.364376,43.729984,63.594719,80.875778,82.375786,61.068489,20.976742,-24.492222,-59.771877,-75.490524,-72.951714,-62.311256,-55.982796,-61.566971,-78.472961,-99.663589,-116.59946,-123.70462,-119.60906,-105.16032,-80.690811,-45.451183,-0.23517486,48.680534,87.822495,99.724525,70.698433,-0.51035333,-98.271141,-193.26431,-252.88904,-254.45935,-194.99039,-92.876068,19.36762,107.82234,149.56619,139.53302,89.63089,21.619064,-42.27121,-86.69619,-106.06593,-103.02902,-84.708527,-59.334892,-34.868675,-19.45397,-22.089022,-51.656784,-113.52897,-204.80182,-310.75916,-405.41391,-457.59973,-441.41809,-347.28387,-188.5992,-0.24011947,171.75859,285.89304,320.01624,278.88904,190.95952,95.627022,26.629984,-0.87787354,6.2973962,26.877968,39.473766,36.343773,29.217602,43.661308,104.23665,217.69286,363.07092,494.90286,559.6283,518.66992,367.63275,141.98509,-94.688385,-275.53946,-357.47791,-337.74304,-251.98212,-154.63786,-91.289322,-76.7416,-89.838974,-87.407394,-29.774965,95.607353,264.71979,426.26764,524.38824,522.83057,418.7536,240.75346,34.325554,-156.24013,-300.52902,-385.37143,-411.2565,-387.42603,-329.67215,-260.33408,-206.45122,-192.54028,-229.15004,-303.62051,-380.95187,-418.16888,-387.0816,-293.3689,-179.51166,-106.94283,-124.81071,-241.85222,-417.90866,-581.61603,-666.10797,-643.64551,-539.94568,-419.81351,-351.828,-371.49286,-463.05457,-569.26611,-622.74255,-580.95184,-446.09769,-260.73325,-83.960609,37.10569,85.367851,74.104118,33.309818,-7.4395051,-29.729723,-27.284657,-1.0010858,45.231056,103.9572,160.55675,192.20377,173.9196,90.897034,-49.48925,-214.30515,-354.67233,-425.25391,-404.22934,-303.30002,-162.36752,-31.575247,50.163403,69.898689,42.681976,1.7697464,-16.888002,11.452794,92.764915,213.77892,346.63287,456.28476,509.23932,482.83069,373.53534,201.43808,7.6381431,-156.56877,-246.14223,-238.14624,-140.00955,13.836277,175.53137,301.2554,364.72446,361.48547,303.93951,211.64333,102.87113,-8.7111025,-112.41046,-197.25208,-250.89032,-262.30542,-226.85165,-150.3298,-49.258614,53.321331,134.74629,179.40079,182.72458,151.61534,101.66709,52.382854,21.568842,20.100727,48.405994,96.048645,145.15138,176.87262,178.41986,147.29001,90.516747,19.349714,-57.405804,-137.14716,-221.75154,-311.37814,-398.07553,-464.18869,-487.89941,-453.7868,-362.60712,-234.29239,-101.64944,2.5131171,58.309628,65.176407,39.015385,2.5235276,-25.383492,-35.474041,-27.436327,-4.7911849,29.934689,76.300827,133.2377,195.5587,253.33144,295.47104,315.48941,315.3522,304.31012,292.92142,286.00244,279.21188,261.9487,225.09274,168.76106,104.97311,53.051155,30.106003,42.059532,80.494873,127.20438,163.81142,180.95772,181.95763,179.1739,185.50298,205.96921,234.10754,254.94023,252.79546,219.8401,161.06102,93.377686,39.30769,17.927824,36.829441,88.283478,151.23759,198.64717,207.64838,168.79057,90.577782,-2.8994017,-80.752472,-117.14091,-101.18801,-40.577053,42.745754,122.6227,179.56825,207.3105,212.25679,206.94836,201.64897,198.87085,193.52202,177.95181,148.35724,108.48125,68.466148,39.716366,28.975849,35.057583,49.911282,63.118259,67.079605,60.075523,45.898373,30.79744,19.822788,14.632433,13.660015,14.072804,14.053644,14.000067,16.060297,22.433933,33.504353,46.896347,58.045979,62.115032,56.411148,42.149055,24.545773,10.908394,7.3268285,15.430564,30.909008,44.867485,47.735947,34.014008,5.4605379,-29.078176,-57.329525,-68.99305,-60.138317,-34.409019,-0.64530337,31.485312,55.291893,68.392082,71.43322,65.77002,52.143955,31.388641,6.3853889,-16.698606,-29.590836,-25.515593,-3.2971733,30.744251,64.759201,86.540977,89.152641,73.787766,48.234268,21.951109,0.81014836,-15.327481,-30.931587,-50.387096,-73.899467,-96.435837,-110.3415,-109.85664,-94.634804,-70.144066,-44.944603,-26.770527,-19.829659,-24.577286,-39.332104,-61.909386,-89.765289,-118.69055,-141.61938,-149.4382,-134.39705,-94.710083,-37.590122,21.64473,64.719421,77.657761,56.625641,9.4709206,-47.688435,-96.963837,-125.07976,-126.92811,-105.40694,-68.592796,-26.21245,12.983465,42.492695,58.465839,59.900749,48.77319,29.694244,8.6544704,-8.979887,-20.345507,-25.766584,-27.780012,-29.067055,-30.595865,-31.147739,-28.455156,-21.075798,-9.6420002,3.3709121,15.101057,23.820114,29.333185,31.980545,31.12011,24.505396,9.4134493,-14.92486,-45.191109,-73.850784,-91.647842,-91.673538,-72.852509,-40.854866,-5.8515506,21.70484,35.072628,33.099316,19.452276,0.14755023,-19.002962,-33.84127,-42.075451,-42.968853,-37.262741,-27.416302,-17.548939,-12.376013,-15.155973,-25.650124,-39.532635,-50.078339,-51.564236,-42.551147,-27.00202,-12.34005,-5.4102092,-8.7077942,-19.208885,-30.594341,-37.528847,-39.290531,-40.351891,-47.372974,-64.34198,-88.871048,-112.10072,-122.56727,-112.01774,-79.916069,-34.029491,13.326909,51.396736,76.108643,91.439842,106.28041,128.50635,159.48982,192.06844,213.26897,210.63249,179.09807,125.01482,65.04071,20.067228,6.6678991,29.86178,80.56588,139.07033,183.10109,196.85437,176.86919,132.13831,78.719604,31.918823,0.26238337,-15.629107,-19.101624,-11.416645,11.996098,59.754921,137.34795,238.40295,340.08603,406.97189,403.57013,310.86243,139.12189,-69.889549,-254.05827,-351.992,-325.84113,-176.47589,55.438164,303.07339,496.27734,584.6059,551.82758,417.12985,223.84212,21.397146,-151.6725,-277.23352,-356.98019,-403.90216,-431.1196,-443.97772,-438.93726,-408.8988,-351.19516,-273.12042,-191.53473,-126.52277,-92.584503,-92.398277,-116.75375,-150.75838,-182.74345,-210.73215,-242.7574,-290.98398,-363.26205,-457.22205,-560.34027,-655.71521,-729.74805,-777.02509,-799.56647,-801.65607,-784.10089,-742.37189,-670.039,-565.2771,-435.806,-298.43848,-172.80951,-72.918655,-1.6022589,48.592197,88.872108,126.45563,160.8636,186.68547,200.63049,207.42142,219.48444,249.4946,299.9758,356.99194,393.23892,380.4032,304.68741,176.73805,29.707981,-94.381531,-163.21492,-168.04623,-125.79106,-68.764015,-28.032907,-19.303936,-38.09013,-65.32682,-79.021156,-65.112503,-22.375511,39.621319,106.67822,166.0975,210.04282,235.95808,245.57941,243.94661,238.46158,237.0208,244.69469,260.11792,274.13757,272.81512,244.4725,187.24763,112.35734,39.911659,-11.471376,-35.706329,-44.005753,-59.400517,-102.98032,-179.2393,-269.32492,-337.16064,-346.20813,-278.35709,-144.67067,18.090872,163.58514,256.24228,285.37213,266.32053,229.14653,201.88943,197.52716,210.80667,225.04099,223.67125,199.6507,158.08319,112.02247,75.052185,55.190697,52.829296,62.502541,76.34697,87.05909,89.534058,81.679642,65.14698,45.843548,33.193886,37.234745,64.003983,111.37144,168.04524,217.19733,243.5296,240.28595,212.30682,173.27072,138.55011,117.66943,110.56282,109.43018,104.69547,91.233246,71.237831,52.442791,43.348232,48.642384,67.36747,94.219833,122.32983,145.39505,158.23241,156.5663,137.62984,102.24343,57.152248,15.169504,-8.613019,-3.7445958,29.054604,76.105453,115.98178,129.89107,111.82348,72.462822,33.994633,18.173719,34.236198,73.632019,114.79366,135.29459,124.38211,88.662971,47.836098,23.260977,26.237358,52.714481,86.992226,111.52172,116.55473,104.04597,84.213173,67.792648,59.316162,55.484188,48.985703,34.539234,12.826477,-10.153292,-27.439154,-35.870445,-37.96167,-39.876316,-47.25309,-61.936218,-81.70192,-102.69604,-122.34613,-140.38626,-157.35678,-172.12003,-180.81923,-178.6933,-163.77235,-139.76607,-115.59023,-101.19418,-102.00776,-115.63898,-133.20117,-144.71582,-145.20586,-137.5201,-129.98027,-130.39737,-140.48813,-154.53044,-163.26387,-160.45268,-147.64836,-133.78191,-129.65198,-140.84529,-163.74863,-187.35561,-199.74782,-195.07866,-176.58995,-153.87561,-136.44691,-128.02446,-125.31008,-121.7911,-113.57922,-102.89398,-96.558861,-100.49395,-114.25385,-129.84666,-136.23927,-126.92136,-105.40199,-84.486763,-79.033195,-96.282211,-129.84792,-161.5611,-170.72243,-145.68799,-91.055328,-26.162535,24.425859,43.119991,27.495102,-9.7475471,-48.444752,-71.505501,-72.423546,-56.205227,-34.237053,-16.930927,-8.6026402,-6.9917274,-6.6670566,-3.3955848,3.4293146,11.350107,17.25914,19.51256,18.280909,14.338449,7.7684031,-1.9918815,-14.633389,-27.31506,-34.637177,-31.008942,-14.346313,11.281581,36.211002,49.295715,43.63813,20.707659,-9.7307453,-34.169987,-42.081093,-31.158922,-8.2276535,14.626848,26.476786,22.971346,7.9313221,-9.4358883,-19.820408,-18.516685,-7.1090751,8.3754549,21.337349,28.071262,28.981323,27.262035,26.273727,27.402256,29.600534,30.580042,28.606323,23.656906,17.325029,11.77815,8.6313286,8.4643736,11.073468,15.951262,22.400196,29.142471,33.916313,33.784378,26.459084,12.113685,-5.513958,-19.81612,-23.958904,-14.354556,6.935503,32.438957,52.36113,59.08672,50.730515,31.807928,10.690071,-4.6769228,-10.35294,-7.3873138,0.049958922,7.898006,14.5945,21.164587,29.226564,38.597267,46.437416,48.739952,43.221092,31.532232,19.031033,11.946971,13.626388,22.33181,32.195721,36.895218,33.747406,25.522381,18.661932,18.961561,27.508266,39.625057,47.678425,46.047085,35.049458,21.172272,13.280684,17.099154,31.443588,48.640911,58.9487,56.264305,41.614109,22.352465,7.7162657,3.6128695,9.8611603,21.384981,32.2775,39.900551,46.354866,56.534439,74.249733,99.064659,125.87639,147.39848,157.92921,156.19057,145.89424,134.16495,128.98512,136.81964,160.75468,198.90588,243.02673,278.2226,285.25592,246.36478,153.44948,15.128748,-141.75494,-278.89288,-360.26691,-367.40356,-308.6738,-217.24339,-137.49605,-105.74657,-134.26454,-206.34419,-284.71405,-328.94739,-313.24731,-236.27493,-119.16702,5.9480457,110.26344,178.26228,209.43092,212.65306,197.84956,170.05833,128.83405,72.305115,2.546037,-71.474968,-135.37091,-174.53542,-180.29449,-153.8331,-105.89169,-52.383945,-7.9666538,19.550663,31.50045,36.435368,44.970917,63.86002,92.164658,121.43907,139.88483,138.38878,115.23505,76.919991,34.533569,-2.2128119,-29.779787,-51.400414,-72.96003,-96.634956,-116.49216,-119.4165,-91.69931,-28.023077,62.336559,156.21243,224.66936,244.95947,210.45462,133.67056,41.073246,-37.493881,-79.558983,-76.334656,-32.840267,36.637367,114.48536,184.32042,233.28178,252.96848,240.29532,198.59987,137.98055,73.508247,21.002432,-8.2158604,-11.063934,7.0910478,35.820862,64.593842,86.454445,98.629951,100.5177,91.276192,69.364128,34.634235,-8.6711769,-50.800671,-79.072556,-83.442024,-62.012203,-22.933752,18.931715,49.066013,60.139214,54.726421,42.442787,33.424976,32.239201,35.859741,36.669548,28.267517,10.247961,-11.012831,-25.861563,-26.808943,-12.576677,11.416479,35.955425,52.245907,55.063362,43.652271,20.838827,-8.3290167,-37.499474,-59.651924,-68.2901,-59.622513,-34.982464,-1.7770963,28.430876,44.528622,41.034546,20.915228,-5.8624897,-27.502272,-36.408108,-32.575924,-22.420992,-13.957308,-11.50737,-13.343087,-13.652617,-7.3497257,5.6261468,19.488312,25.887621,19.198109,0.38614544,-23.023075,-40.85936,-45.680145,-36.408173,-18.30365,0.33246371,12.469619,15.187077,9.85186,0.24933976,-9.682909,-17.142958,-20.545155,-19.162766,-13.183935,-4.2628555,4.2078767,7.9773746,3.9981391,-7.4476213,-22.14395,-33.700054,-36.942314,-30.922266,-19.526777,-9.1374292,-4.7558055,-7.1328959,-12.837571,-17.19932,-18.021347,-17.337698,-19.799568,-28.691463,-42.41164,-54.163906,-55.541378,-41.971317,-16.497232,10.799523,27.750612,26.603605,8.1861162,-18.747288,-42.466564,-54.375076,-52.600689,-41.240524,-26.345051,-11.764263,2.2436032,16.950312,31.574512,41.278969,38.744213,18.707695,-17.440647,-60.275688,-95.562599,-110.59341,-100.1331,-68.671707,-27.900175,8.8840809,32.167953,38.721695,30.631247,12.475104,-11.008638,-35.415558,-55.856392,-66.575134,-62.411957,-41.831337,-9.5306892,23.731962,45.003273,45.186939,24.002222,-9.2475872,-39.988167,-55.668171,-52.04644,-34.900116,-16.165052,-6.7498212,-10.212018,-20.980803,-28.141542,-22.531816,-2.9617901,22.153212,38.837296,35.135651,8.0724573,-33.885891,-74.306747,-96.480858,-91.369339,-61.753197,-20.579573,15.494851,33.916393,31.423676,14.187108,-6.747056,-21.876755,-27.870964,-27.981005,-28.392605,-33.082668,-40.578949,-44.764336,-39.264023,-22.572245,-0.43294936,16.43531,18.263929,2.3463819,-24.534616,-49.198952,-59.173649,-49.725281,-26.564724,-2.4765902,10.194614,6.671237,-7.880116,-22.164997,-26.34136,-18.537857,-6.1267276,-0.88029414,-11.05366,-35.440338,-63.256847,-80.058655,-76.097076,-52.01643,-18.485735,9.8493814,22.271374,17.003899,0.66119474,-16.915882,-28.730238,-33.721912,-35.372936,-37.478626,-40.524899,-41.364864,-36.241997,-24.6548,-10.88136,-1.7228788,-1.8681843,-10.206261,-19.957335,-22.906219,-15.06331,0.15490681,13.682675,16.695335,6.9228735,-8.8775387,-18.271852,-10.591599,16.009686,52.343037,82.417542,91.831551,75.503326,40.338528,1.4432359,-25.747965,-32.897057,-21.790146,-1.8357459,15.899902,24.395536,23.078354,16.237974,9.1576462,4.6738114,2.100317,-1.3394134,-7.9783759,-17.860228,-28.579901,-36.572769,-38.820671,-33.995022,-22.717535,-7.2331243,9.0490026,22.032003,27.666138,23.163305,8.4507837,-12.909365,-34.194305,-47.662453,-47.665581,-33.2901,-9.1135921,16.455006,34.559864,39.414051,30.330158,11.474915,-10.296237,-28.313616,-38.345005,-39.429157,-33.300865,-23.025751,-11.620539,-1.2012732,7.1803517,13.182315,16.621264,17.064621,13.819079,6.3911719,-4.7505746,-17.544416,-28.36175,-33.016582,-28.580446,-15.249712,2.7681174,18.122023,22.913767,12.073539,-13.987859,-48.77282,-81.592583,-101.31039,-100.45737,-78.135429,-40.634705,0.40796086,31.669977,42.461956,28.379938,-6.8834081,-52.33353,-93.104919,-115.60999,-112.59467,-85.979767,-45.991608,-6.6751285,20.285688,30.450682,27.657848,20.646748,17.18523,19.161528,21.650904,16.631708,-0.86937696,-28.099154,-54.565334,-67.119949,-57.372234,-27.03878,12.122551,43.991734,56.234955,46.297558,21.943148,-3.6896768,-19.351862,-20.981087,-12.259339,-0.75802135,7.3723879,10.672116,11.842883,14.370286,19.061073,23.039772,21.788258,12.591679,-3.1831248,-20.596407,-34.016693,-40.299332,-40.098049,-36.588856,-32.761688,-29.377872,-25.030375,-18.06632,-8.7051296,0.41544002,5.7594147,5.3284192,0.11410774,-6.5880017,-11.488773,-13.426431,-13.606031,-13.772313,-13.886538,-11.469763,-3.5971134,9.6660538,23.147499,28.104128,17.340647,-8.993679,-41.037815,-62.794189,-60.508812,-31.270321,13.589442,53.084621,67.229324,47.933914,3.7786839,-44.335205,-74.336113,-74.561172,-49.152588,-14.381508,11.568651,19.059353,11.524595,1.7376386,2.5752409,18.217646,41.174316,56.755169,52.07222,24.125799,-17.67618,-55.78595,-72.999344,-60.554035,-21.929785,28.976854,73.827393,96.950058,90.73716,57.765476,9.4778652,-37.801678,-68.312531,-72.280945,-49.625034,-10.352675,29.044128,52.26881,50.297253,25.484259,-9.6168375,-38.437374,-48.561317,-37.582127,-13.516339,10.317888,22.879755,21.002199,9.8785696,-1.4979233,-6.8077021,-6.5969558,-7.5884233,-17.670584,-39.832325,-68.887665,-93.014503,-99.187592,-79.38945,-34.329899,26.840397,90.005302,140.5163,166.61961,161.30605,123.2746,57.844013,-22.325363,-97.995766,-146.99088,-150.74678,-101.70167,-8.0362787,107.22269,213.28876,282.32202,299.14893,265.73364,198.68932,121.47443,55.294849,12.769642,-3.5042992,1.8579481,21.526421,48.903042,79.162788,108.3855,132.39447,146.75171,148.1985,136.55786,115.6787,92.460274,74.242622,65.834236,67.751396,76.586281,87.257271,95.87059,101.60369,106.56326,113.72884,124.19188,135.39427,141.63118,136.83165,118.28623,89.230988,58.53273,37.23769,33.480221,48.410984,75.466866,103.58539,122.72521,128.63255,124.12411,116.18194,110.72562,108.41064,104.22079,91.232742,66.148613,32.907768,1.7310916,-16.139645,-14.919796,2.0944364,24.151041,39.032494,39.742382,27.775301,11.089186,-1.6524577,-6.6133118,-6.4412036,-7.163806,-12.791595,-21.701906,-27.592178,-24.469217,-12.089055,2.3276384,7.8728938,-2.8517375,-27.835793,-55.302242,-69.700851,-60.672432,-29.457611,11.365462,44.794765,58.763039,52.236645,34.505787,18.498138,12.655935,16.55969,22.738512,22.9235,14.19692,0.88376236,-8.8025751,-8.689395,1.1439151,14.726778,24.617344,27.019121,23.889397,20.673487,21.548082,25.862114,28.519581,24.066114,11.413874,-4.4622364,-15.409184,-15.7751,-6.9256163,2.7620678,2.769618,-12.850768,-41.316521,-72.29155,-93.686554,-98.364716,-87.54454,-69.020638,-51.763885,-40.717438,-35.122124,-31.016483,-25.598286,-20.004915,-18.487534,-24.759497,-38.433136,-54.35321,-65.452637,-67.104088,-59.838303,-48.477448,-38.411594,-31.829996,-26.763975,-19.678347,-9.6426649,-0.80617398,-0.98124021,-16.885542,-49.059414,-89.897316,-126.29679,-145.45601,-140.43954,-112.46159,-69.185669,-20.831423,23.10071,54.820759,67.517868,54.995052,13.37195,-55.435493,-140.80045,-223.8004,-282.02423,-297.12067,-261.56094,-181.40257,-74.045952,37.370941,130.10843,186.37917,196.04741,158.38298,83.382202,-8.3386068,-89.104019,-132.12332,-121.88905,-62.18169,23.46554,100.81817,140.08884,129.58578,80.333275,18.971457,-26.846701,-41.79361,-27.123568,5.8314242,47.25563,96.323746,158.3056,232.82832,302.1813,330.11215,275.65427,116.40205,-132.06937,-413.70947,-650.80353,-776.01599,-761.27264,-628.07336,-434.07007,-244.02795,-101.50019,-16.105839,29.083889,57.686066,81.898697,97.503723,93.421265,67.130684,33.621979,20.489412,51.739441,130.98076,235.50768,325.90533,365.85916,340.41019,262.00073,161.3912,69.704407,2.5678561,-44.933113,-91.136841,-154.48427,-242.67305,-349.9407,-462.08252,-564.05237,-644.60052,-695.96417,-710.90381,-681.49652,-601.99109,-474.45135,-312.91965,-142.20259,9.1193075,118.2058,175.09337,184.17682,160.25679,122.07439,86.649055,65.84433,64.592224,79.731445,99.750244,107.21243,85.27552,26.954117,-57.564949,-141.22054,-190.4928,-182.28773,-118.31683,-27.64031,46.132847,67.367958,28.27371,-45.851219,-109.92725,-123.78548,-73.861687,20.929144,122.30199,196.04094,230.77594,240.42859,249.54457,272.11908,298.7894,301.5701,253.36922,149.26564,14.914487,-104.34461,-167.50275,-160.14256,-101.13061,-29.949806,16.722654,24.171457,3.0553138,-23.408508,-38.183853,-41.477997,-46.774971,-65.73114,-94.058044,-109.90814,-87.189316,-15.019866,90.754715,193.47144,256.7211,267.43958,245.37405,231.44075,261.11462,339.31433,433.12366,488.00214,458.47162,335.06711,151.3947,-32.757835,-161.89648,-210.92049,-192.40701,-142.80083,-97.951889,-73.78167,-63.033306,-47.765728,-17.209602,21.867416,49.015411,44.773975,5.5745173,-51.447353,-96.961349,-105.68134,-70.049583,-3.2782922,69.191467,123.63687,148.72957,147.45753,131.01404,110.16679,90.090828,71.022385,52.518196,36.856339,28.575619,30.777252,41.643932,54.499744,61.866432,60.670296,54.60923,51.626205,58.015388,73.268173,89.399719,95.435043,84.134117,56.503677,21.171539,-10.788867,-32.05022,-42.291981,-46.864578,-52.376759,-62.521465,-76.741806,-91.850342,-104.55332,-112.58048,-113.88268,-105.50937,-84.36203,-50.428177,-10.41038,21.766504,29.809072,3.9018178,-51.310841,-115.18279,-158.44221,-156.65852,-102.78545,-11.614952,86.72773,160.87819,192.17917,181.03773,143.0192,98.071396,59.968903,32.023731,10.409824,-8.666172,-23.830433,-29.20405,-19.996889,1.609092,25.208864,37.127941,28.609684,1.7622279,-30.913958,-53.382736,-55.065563,-36.372002,-7.5458331,18.007315,31.322304,31.628475,24.453308,16.195253,9.4271593,2.1775661,-8.7942905,-23.720383,-38.143776,-45.307674,-40.874657,-26.387957,-8.7526608,4.0443158,7.9415455,4.9248309,0.7680161,0.16123354,2.9799657,4.6260686,0.28027248,-10.201357,-20.770304,-22.763184,-11.451841,9.1487827,27.230331,30.149426,13.276372,-15.2612,-37.775875,-36.966068,-6.7561727,42.913486,90.867302,116.61601,112.31818,87.35907,62.532303,57.201637,77.259178,111.25427,137.07587,135.10117,99.828262,43.043423,-13.151439,-48.997723,-57.727806,-48.034554,-37.368858,-40.589874,-61.002834,-88.964745,-108.41816,-106.98808,-83.477859,-48.556927,-18.745895,-7.6104789,-19.334002,-47.900455,-81.577454,-109.42804,-125.90981,-131.33745,-128.82841,-120.40745,-105.14479,-80.513641,-45.882332,-5.5603261,30.969496,52.315483,50.475731,25.378155,-13.912033,-52.251457,-74.497124,-71.792847,-45.101418,-4.3619695,36.207912,64.299034,74.205605,67.955002,52.74815,36.474396,23.926163,15.656968,9.6968946,4.5652924,1.3053372,3.0367191,12.290555,28.013058,44.529617,53.618629,48.83651,29.645826,2.7617023,-20.35903,-28.731627,-17.003616,12.16033,49.57513,83.828674,105.90318,111.83269,102.60535,82.2295,55.709297,28.101181,4.5551968,-9.7771654,-10.949121,1.6271954,23.502012,45.691635,57.971092,53.698093,33.556942,5.8237381,-17.416901,-26.287724,-18.111521,1.3988488,21.366261,31.49033,27.054926,10.579843,-10.395329,-27.680548,-36.267933,-35.675507,-28.65797,-18.733713,-8.3785219,1.1614544,8.8608141,12.978323,11.221866,2.0261273,-14.008372,-33.645752,-51.969574,-64.239952,-67.603516,-61.850002,-49.15089,-33.279057,-18.816923,-10.374059,-11.471344,-22.970119,-41.660675,-60.218079,-69.460472,-62.536793,-39.092178,-6.7751036,21.510502,33.793766,25.474401,2.1705158,-23.085236,-37.009563,-33.450684,-16.451061,3.0061994,14.563086,15.469412,12.299901,16.085825,33.951916,62.893627,90.188507,100.70239,86.69664,53.795635,18.912834,0.9854902,10.014287,41.187733,77.801918,101.20925,101.64675,83.339058,60.98082,50.206333,58.277264,80.772949,105.87395,122.82318,128.61299,128.51578,130.51889,138.00833,146.18123,144.98842,126.77509,93.374863,57.568787,37.435589,46.737534,87.078041,146.45886,204.87605,243.40366,251.537,229.18893,183.49944,123.63325,57.350784,-9.0173597,-68.504051,-112.26936,-131.24207,-120.15113,-81.248993,-24.880724,33.885662,80.662987,105.90405,105.61198,79.089394,26.483683,-51.04702,-148.06192,-251.06209,-338.26001,-385.35574,-375.91986,-311.28198,-213.9111,-121.14528,-71.24585,-88.152023,-172.2388,-301.27081,-440.44086,-555.9668,-625.71631,-642.8761,-613.00433,-548.02319,-461.11902,-364.60553,-269.94308,-187.73904,-126.28513,-89.135139,-73.629936,-72.065002,-75.333023,-76.959442,-74.955544,-70.356583,-63.710701,-52.359028,-30.888737,5.1487517,54.684196,109.10796,154.72931,178.75853,175.45088,148.74258,109.84978,71.389183,41.664764,22.393869,10.740962,3.6770968,1.347199,7.1106086,24.431322,53.041435,87.253067,117.7245,135.59605,136.37222,121.27139,95.607681,65.728477,36.699097,11.946494,-5.6741319,-13.067674,-7.6351767,10.693409,37.830887,66.121307,87.495789,97.533943,97.731483,94.163345,93.081757,96.216232,99.051285,93.550148,73.848991,41.260845,5.119442,-21.485203,-28.715092,-15.485555,9.96768,34.843922,48.933113,49.813438,43.087448,37.853107,40.553894,51.149845,63.798744,71.187302,69.389122,60.067814,48.867764,41.46854,40.166176,43.18985,46.831215,48.496311,48.331669,48.373653,50.155842,52.882828,53.765564,50.352581,43.015213,35.464855,32.560722,36.716412,45.462971,52.131733,49.584946,34.764751,11.100055,-12.918122,-28.23917,-30.073814,-20.077782,-4.6723676,9.2201843,18.162785,23.392883,28.700043,36.722576,46.375626,53.215908,52.444633,42.426041,26.284452,10.496375,1.4248393,2.0520375,10.897767,23.54339,35.46183,44.169262,49.462921,52.049515,52.034679,48.690666,41.738533,32.998859,26.765074,28.067314,39.581573,59.155521,79.832268,92.824348,91.994484,77.305855,55.16605,35.342499,26.12351,30.373043,44.555511,61.056854,72.316139,74.446487,68.547783,59.351505,52.266014,50.543304,53.93008,59.212566,62.102127,59.419861,50.604488,37.988266,25.796741,18.275621,17.683006,23.032309,30.312874,34.349476,31.622828,22.651934,12.465363,8.4928675,16.633596,37.501011,65.078468,88.906395,98.951981,90.650749,67.283829,38.255714,14.159581,1.4226823,-0.42263019,2.6116095,3.3819835,-1.7538329,-10.952744,-18.646969,-19.729513,-13.34109,-3.7846785,1.9706092,-1.4791055,-14.7379,-33.355114,-50.546192,-61.014343,-63.458385,-60.414364,-55.924164,-52.86235,-51.717094,-51.353897,-50.785877,-50.339085,-51.258667,-54.177036,-57.874577,-59.614113,-57.072224,-50.518852,-43.456013,-40.882889,-46.071754,-58.000874,-71.388428,-79.61795,-78.82502,-70.435791,-60.32021,-54.928715,-56.892433,-63.091854,-66.663269,-61.781097,-48.069939,-31.57803,-21.411131,-24.033722,-38.926182,-58.558319,-72.884399,-75.573837,-67.930489,-57.879353,-54.57391,-62.118305,-76.55304,-88.211021,-88.022743,-73.698845,-51.673687,-33.404762,-28.287012,-37.737236,-54.329914,-66.647682,-66.77301,-55.561409,-42.188171,-38.141983,-49.462608,-72.269562,-94.594002,-103.52042,-93.203743,-68.673798,-42.958107,-29.267767,-33.136356,-49.440487,-66.130424,-72.217537,-64.861542,-50.988338,-42.421345,-47.707027,-66.006294,-87.123268,-97.803101,-90.344864,-67.95993,-43.299583,-30.883089,-38.087696,-60.39653,-84.001305,-94.252403,-84.731453,-61.265469,-38.31205,-29.925699,-40.918129,-63.726398,-82.944084,-84.689873,-64.977425,-31.946993,-0.66369402,16.126278,15.468663,5.3111525,-1.2276419,5.4086699,25.10964,48.423164,62.900417,61.20562,45.722965,26.800934,15.958756,18.62537,31.126883,43.732929,47.527,40.407219,28.228603,20.448793,23.359621,35.574322,48.855675,53.723759,46.014339,29.920273,15.416393,11.768531,21.46874,38.652527,53.028812,56.651554,48.966885,36.782856,29.266834,31.457729,40.763973,48.857227,47.656494,35.278553,17.801296,5.5284371,6.1700478,19.508768,37.170513,47.747818,43.95705,27.174776,6.4432888,-7.2986755,-7.9074283,2.6868067,16.549597,25.488575,26.433849,22.849474,21.434031,26.647718,37.038857,45.992416,46.369648,35.769054,18.700378,4.0970421,-0.18593132,7.8092494,23.210068,37.785301,45.351002,45.396423,42.552807,42.464741,47.119251,53.016762,53.533234,43.856258,25.041367,4.2927508,-8.9003639,-8.3451061,5.1254926,24.129616,39.047981,43.419056,37.147343,25.831316,17.020052,15.933442,23.148565,35.150013,46.778294,53.721645,53.732399,46.53191,33.308502,16.599924,0.4583168,-9.9638367,-10.076365,1.6676803,22.022972,43.56588,57.995594,60.525051,52.644176,41.213791,34.120274,35.119858,41.316311,45.183743,40.038265,25.354683,8.1490059,-0.91531348,5.521872,26.010263,50.082745,63.910572,58.518459,35.427204,6.061687,-14.816385,-17.588306,-2.9153335,19.513214,37.523151,43.870316,39.775463,32.630043,29.888451,33.602257,39.345947,40.04425,31.740961,17.056091,3.8279529,-0.093585022,7.7938972,22.905411,36.624096,41.952114,37.793594,28.984924,22.281092,21.373684,24.595757,26.875782,24.29463,17.649002,12.170518,13.475913,22.764982,35.036221,42.005051,37.92775,24.185598,9.0871,2.5952418,9.3840847,25.072536,38.535988,39.064274,23.655949,-0.58463389,-20.799786,-26.733038,-17.492157,-2.0652196,6.8790331,1.773138,-14.47489,-30.264162,-33.135906,-18.392023,7.3717842,30.268719,38.000751,27.64921,7.1820908,-10.198453,-14.870399,-6.704916,5.8346963,12.487627,8.8434601,-0.70136958,-6.7697954,-2.7485261,9.335475,19.353121,15.989109,-4.7061586,-35.318207,-60.852585,-68.139442,-54.605175,-30.310659,-11.590685,-10.368213,-26.313206,-47.238251,-57.592064,-49.348705,-27.842375,-8.4298363,-6.0836225,-24.907751,-54.759064,-77.448257,-78.539566,-56.929665,-25.792812,-4.2166991,-5.0492535,-26.968184,-55.901066,-74.636887,-74.045135,-58.397774,-41.445629,-36.225063,-45.777786,-61.182896,-68.153397,-57.517578,-32.231293,-6.0002923,5.6244502,-4.362596,-29.606995,-54.408237,-63.826523,-53.073128,-29.96566,-9.0193167,-1.4196962,-7.7856455,-18.545731,-21.407885,-10.52914,9.0723248,24.914427,25.833624,9.997201,-13.446873,-30.250887,-30.445648,-14.803418,5.9792204,18.713997,16.58902,3.3827481,-9.7690182,-12.663486,-3.5022657,9.7242565,14.949413,4.8917274,-17.124361,-38.558041,-45.523109,-31.974003,-4.0783854,23.202803,35.162846,26.191305,2.7882042,-20.985521,-32.441158,-27.720648,-13.154873,-0.09262453,2.9717629,-4.3688684,-15.084672,-20.350498,-15.99173,-5.2562962,3.8045008,4.271606,-4.6547771,-17.053505,-24.353052,-21.139481,-8.6906013,6.0645623,15.251197,15.064694,7.7100115,-0.83030492,-5.3560462,-4.98769,-3.2361422,-4.752224,-11.300168,-20.005697,-25.232826,-22.77944,-13.364726,-2.8095496,1.4110234,-4.9680676,-19.961044,-36.186661,-45.126434,-42.087605,-28.763388,-11.926539,0.71324331,4.7464361,0.8236264,-6.8286948,-13.75835,-18.086632,-20.998346,-24.936256,-31.093716,-38.126457,-42.95319,-42.930935,-37.740841,-29.616287,-21.824049,-16.558414,-13.772674,-11.709995,-8.6392765,-4.4698749,-1.0911239,-1.2578279,-6.8800764,-17.904099,-32.425945,-47.732857,-61.381729,-71.606674,-77.098328,-76.813156,-70.422478,-59.262348,-46.864025,-38.079945,-36.681419,-42.627377,-50.92749,-53.447758,-43.264748,-19.316381,11.558796,36.894703,44.403008,28.253107,-7.7817731,-52.232868,-91.868935,-118.20234,-130.79077,-135.57076,-139.56104,-145.46037,-149.59094,-144.36214,-123.43547,-86.134804,-38.285824,10.840517,53.198212,85.059685,106.68977,119.36623,122.51943,113.65823,91.578407,60.59457,32.220242,21.979773,42.182533,94.517464,167.1147,238.49731,286.85651,299.72287,278.69525,236.63744,189.2372,146.11888,106.86382,64.09993,11.358677,-49.611771,-106.99718,-143.97018,-147.69243,-116.78989,-62.748821,-4.3920012,41.222843,66.111259,72.847588,69.94323,64.5923,57.657284,44.035019,17.880878,-21.05596,-64.434425,-97.966103,-108.38338,-90.678993,-51.351448,-5.8039351,28.514851,39.311577,23.193909,-15.466991,-68.971352,-130.6712,-196.43417,-262.63019,-322.57971,-364.63336,-373.99438,-338.14368,-253.22871,-128.02567,16.965826,155.27184,262.66299,324.39063,338.58511,314.90643,269.52307,218.91994,175.00429,143.02933,122.44639,109.62929,100.90646,94.546654,91.068474,92.110855,98.744499,110.30836,124.48041,138.5262,150.90729,162.08589,173.73845,186.56348,197.94781,201.18457,187.36736,149.63661,87.856773,11.104263,-63.930771,-118.52852,-139.22937,-123.37254,-80.0839,-26.150715,21.172617,50.825897,60.884689,56.745369,46.13546,34.134274,21.060999,4.1342025,-18.577871,-44.729507,-67.161247,-76.744591,-66.979401,-37.685265,4.3110943,47.794521,81.574944,98.386116,96.547699,79.147247,51.832752,20.736784,-8.5469685,-31.088329,-42.690575,-40.623219,-24.927155,0.59729916,28.772552,51.163425,61.21059,56.879387,41.422436,21.792219,5.494081,-2.5482135,-1.6417817,5.0933619,12.690866,16.664499,14.578811,6.4042454,-6.0676427,-20.095881,-32.639935,-40.71035,-41.688793,-33.894485,-17.356798,5.5905061,30.393251,51.285442,63.003857,62.574879,50.441765,30.422583,8.479928,-9.2691612,-18.570896,-18.337877,-10.739886,-0.027401915,9.459095,15.245308,17.715393,19.570169,23.91386,31.920698,41.430649,47.493301,44.863728,31.2605,9.5101061,-12.902481,-27.013556,-26.79591,-12.405334,9.6815109,29.890837,40.422909,39.016308,29.45335,18.602776,11.930971,10.35416,10.422207,7.6148701,0.41125709,-7.8152537,-10.641108,-3.1934073,13.528818,31.773846,40.733364,32.964931,9.6692486,-18.714304,-37.47118,-35.603237,-12.270866,22.199627,51.541935,62.122471,49.974747,22.319002,-7.1221089,-26.038391,-29.91041,-23.20039,-15.006862,-12.2264,-14.688389,-15.339389,-5.3138318,19.343567,53.54961,84.309654,96.620857,80.908569,37.959251,-21.160782,-79.912346,-123.1355,-142.54175,-138.58458,-118.53032,-92.350502,-68.66333,-52.327423,-44.123531,-41.967995,-42.735874,-43.929527,-44.743355,-46.292599,-50.916035,-60.699944,-75.775169,-93.28363,-107.85379,-113.7356,-107.74984,-91.440819,-70.99823,-54.60429,-48.42207,-53.417641,-64.917564,-75.298523,-78.334755,-72.676659,-62.402267,-54.362423,-53.99427,-62.186924,-75.059654,-86.617737,-92.44062,-91.994629,-88.212059,-84.857933,-83.679482,-83.369019,-80.986626,-74.707542,-65.781898,-58.176079,-56.034439,-60.739498,-69.705223,-77.889206,-81.092163,-78.78714,-74.458862,-73.107018,-77.572395,-86.239609,-93.832794,-94.901817,-87.71698,-75.868134,-66.327408,-65.109314,-73.333862,-86.329079,-96.463615,-97.89341,-90.136963,-78.124435,-68.731506,-66.169121,-69.389557,-73.291321,-72.892723,-67.533295,-62.04047,-63.781368,-77.342125,-100.34563,-123.39873,-134.61137,-126.19948,-99.232246,-63.597111,-33.134087,-18.764603,-23.548801,-42.274044,-65.33194,-84.122116,-94.614349,-97.266136,-94.076515,-85.421738,-69.206413,-43.001217,-7.5233488,31.309536,63.662834,80.086647,76.394882,56.139839,29.082968,6.4921851,-4.0163727,-1.2371662,10.505168,24.84252,36.995197,45.36348,50.559204,53.196457,52.479153,46.798958,35.840782,22.363495,11.908415,10.12255,19.228374,36.041878,53.168957,63.000496,62.205284,53.871284,45.778332,45.658752,56.273384,73.357376,87.823265,91.004601,79.84774,58.963703,38.330124,28.04524,33.226231,51.936901,77.074722,100.74866,118.28658,129.49547,136.72853,141.4062,141.61853,132.58269,109.81247,72.953201,27.743502,-15.391826,-45.548908,-56.119991,-47.571915,-26.844135,-3.8993218,12.571128,18.089729,12.854599,0.14184695,-15.887956,-31.57531,-43.885624,-49.908035,-46.799744,-32.75111,-8.5294695,21.580616,50.510784,70.894913,78.195953,72.753281,59.511509,45.479977,36.318829,33.952545,36.477676,40.21722,42.491982,43.32383,45.057369,50.28458,59.542347,70.372025,78.393837,79.729385,73.249687,61.273773,48.364746,39.056541,35.905807,38.895885,46.218182,55.587833,65.08213,73.106598,77.954506,77.819328,71.718048,60.843765,49.172024,42.321957,44.77737,56.907387,73.783112,87.030975,89.144913,77.944847,58.406956,40.383335,33.183762,40.040783,55.837578,69.703773,71.190079,56.459888,30.786268,5.7702131,-7.1341019,-2.9444883,14.406386,34.847454,48.29874,50.307022,43.820244,36.308907,34.4277,39.846573,48.88707,55.88905,57.687386,55.90229,55.406502,60.13129,69.362862,77.433258,77.338989,65.952141,47.129761,30.221069,24.536221,33.202667,50.543129,65.024467,66.233322,51.576099,28.347359,9.6395092,6.4734588,21.020464,45.184364,65.466171,71.066231,60.170929,40.566078,24.390369,20.532072,29.539721,44.106094,54.465744,54.892307,46.957821,37.591209,33.569237,36.460094,41.596272,41.762444,32.934254,17.921341,5.1694703,3.3175573,15.100875,34.789787,51.100441,53.899803,40.461254,17.234259,-4.0379505,-13.392332,-8.4142971,4.8819237,16.44528,18.852728,11.892997,2.2097788,-1.5520427,5.245306,20.042229,34.709835,40.804401,34.959618,20.98176,7.4587355,2.5761657,9.4645386,24.813049,41.238361,51.566704,52.280586,44.335705,31.498575,17.885288,6.466619,-0.88459867,-2.667459,2.2862561,13.604051,27.787159,37.961617,36.117485,17.256655,-16.836966,-56.845821,-89.364922,-103.19451,-95.157059,-72.033905,-47.262424,-34.042107,-38.614651,-57.436897,-79.717781,-93.716545,-93.114555,-79.928261,-62.576073,-50.557014,-49.003716,-56.181366,-65.088699,-67.92205,-60.69173,-45.464752,-29.221962,-20.194723,-23.719627,-39.627033,-62.231125,-82.718376,-92.792152,-88.094673,-70.129974,-45.959122,-25.653992,-18.288368,-27.919104,-51.29398,-78.593292,-97.33271,-97.996201,-78.855499,-47.452271,-17.630558,-3.2429419,-11.491781,-39.302406,-74.70517,-102.63841,-112.22958,-101.80805,-79.100037,-56.669456,-45.167259,-48.037338,-60.406174,-72.507584,-75.568512,-66.84803,-51.152519,-38.130772,-36.913254,-50.988068,-75.976768,-101.44183,-115.80672,-111.9903,-91.009743,-61.809505,-37.320553,-28.505571,-39.146038,-63.843166,-90.313019,-105.05997,-99.846046,-75.850731,-43.389053,-17.162197,-9.2606945,-23.370304,-53.114002,-85.378738,-106.88471,-110.54499,-98.317085,-79.216682,-63.823772,-58.523827,-62.667305,-70.055809,-73.541756,-69.797112,-61.343815,-54.748695,-56.244839,-67.568016,-84.557297,-99.327026,-104.64928,-97.940155,-82.594154,-66.03315,-55.705513,-55.274372,-62.924595,-72.408722,-76.036461,-68.034027,-46.842442,-15.663733,18.642397,47.747776,64.448029,65.002258,50.568882,27.137148,3.6713624,-11.138853,-12.334206,-0.75686848,17.440561,33.826122,41.840927,39.907974,31.801975,24.078791,22.073662,26.810343,34.610668,39.546291,37.156914,27.143948,13.474169,1.9785922,-2.9493854,-0.53024447,6.5033779,13.926428,18.476606,19.226788,17.316315,14.658602,12.794449,12.637569,14.918163,20.458452,29.607954,41.062939,51.161716,54.759239,47.788261,30.206041,7.3154469,-11.913549,-19.091541,-10.985849,8.370883,29.584883,42.960556,43.812183,34.818527,23.95956,19.315239,24.007668,34.480015,43.145287,43.605007,34.960594,22.371075,13.521425,13.394238,20.887495,29.576633,32.134918,25.445103,12.937254,2.5109155,1.3546295,11.067233,26.333042,38.082222,39.122673,28.611046,12.494707,-0.30925882,-3.4782217,2.9962037,13.236857,19.621275,17.820961,9.4560719,0.75926375,-1.7087741,4.6103573,16.68684,27.938984,32.392723,28.208971,18.421015,8.6808128,3.7323792,4.9548588,10.34846,16.563349,21.273529,24.229948,26.523153,29.008848,31.391804,32.79678,33.310371,35.032433,41.399426,54.81197,74.031265,93.287697,104.15502,99.511215,77.453621,42.891613,5.8238258,-22.791893,-35.356258,-29.997,-10.192925,17.509981,46.01223,69.110886,81.797722,80.329781,63.034073,31.864105,-6.4118505,-40.885033,-59.678558,-54.637829,-25.258631,20.408833,68.672569,105.63869,122.46989,117.91894,97.219933,68.501106,39.074387,13.611573,-5.3674846,-15.920584,-15.852585,-3.6395733,19.478668,48.021225,73.064987,85.557693,80.605858,60.271458,33.035583,9.951273,-0.54718727,3.6036758,17.742802,33.526882,43.492683,44.564217,38.760803,31.111984,26.346167,26.401155,30.021217,34.307465,36.962284,37.756729,38.451374,41.427345,47.999531,57.403938,66.922852,72.956718,72.477325,64.26722,49.5965,32.1381,17.081427,9.5217943,12.500677,25.423359,43.733631,60.388893,68.82959,66.180992,54.979935,42.218334,35.870609,40.559185,54.742413,71.16629,80.574211,76.76033,60.153679,37.827065,19.838545,13.910967,21.438528,37.038887,51.797997,58.235577,54.118782,43.060432,31.825209,26.177597,27.78882,33.854507,39.303162,39.93803,34.507751,24.632414,13.012001,1.3834434,-10.359076,-23.463663,-38.789589,-55.708004,-72.242027,-86.235359,-96.559334,-103.38712,-107.36198,-108.44144,-105.51531,-97.348228,-84.284233,-69.373856,-57.747044,-54.180382,-60.16843,-72.412186,-83.996231,-87.896561,-80.911484,-65.639023,-49.188114,-39.252178,-39.815449,-49.043053,-60.573414,-67.361443,-65.678162,-56.874851,-46.004173,-38.412174,-36.616535,-39.431702,-43.655663,-46.860176,-49.117199,-52.354679,-57.830948,-63.712177,-64.817101,-55.180862,-32.075737,1.1238358,35.359314,59.796341,67.197716,57.685936,38.65461,20.830395,12.751627,16.803385,28.900335,41.658173,48.849701,48.394711,42.317818,34.179504,26.059107,17.235392,5.3529453,-10.964458,-30.085865,-47.504704,-58.15847,-59.414833,-52.733711,-42.908077,-35.401573,-33.514091,-37.11747,-43.536774,-49.701847,-53.943554,-56.281578,-57.308445,-56.884193,-53.935482,-47.682713,-39.304363,-32.448288,-31.659073,-39.342945,-53.232376,-66.394585,-70.415894,-60.275681,-38.044289,-12.87114,3.2066367,1.5537784,-18.208712,-47.673477,-73.890503,-86.046326,-80.810669,-63.395218,-43.919888,-31.414001,-29.032724,-33.148548,-36.521812,-33.331028,-22.907969,-10.036066,-1.8922374,-3.6959181,-15.704001,-33.150383,-48.866497,-56.852852,-54.813095,-44.587585,-30.750006,-18.500648,-11.94901,-13.22646,-22.217838,-36.563168,-51.916649,-62.816246,-64.411568,-54.675041,-36.0271,-15.169365,-0.67687142,0.80537808,-12.120531,-34.662792,-57.98624,-73.430756,-76.554451,-68.822052,-56.117073,-45.099312,-39.630501,-39.294762,-40.654499,-40.17691,-36.83194,-32.736519,-31.580706,-36.005093,-45.680214,-57.277256,-66.25769,-69.299126,-65.904213,-58.374954,-50.383282,-45.076729,-43.726185,-45.370533,-47.309372,-46.01202,-38.13657,-21.613108,3.2641556,33.065483,61.407764,80.599663,84.547134,71.781708,46.959923,19.628349,0.41071123,-3.6817899,7.616148,28.025749,48.237141,60.805756,63.673283,60.373783,56.987457,57.873486,62.889729,67.786652,67.385399,59.367271,46.153889,33.662918,27.768791,30.782726,40.190189,50.35931,56.000008,55.098152,49.540607,43.287151,39.571339,39.135914,40.585022,42.303814,44.24004,47.988625,55.000271,64.290833,71.632828,71.307213,59.674603,38.312912,14.424523,-2.2224209,-4.3297372,8.8440151,30.886995,51.632084,62.613636,61.372749,52.116104,42.507942,38.746841,42.039253,48.548672,52.578011,50.671051,43.847538,36.567108,33.290047,35.130459,38.977818,39.734661,34.127491,23.430202,13.127593,9.601553,15.956327,29.744696,44.162315,52.022251,49.995861,40.42112,29.544485,23.385426,23.924303,28.07938,30.088202,25.6735,15.219649,3.8421826,-1.7361484,2.4859755,15.026315,29.501255,38.218632,36.579815,25.633318,11.317239,0.96557784,-0.75280899,5.8914938,16.325104,24.552256,26.401579,21.305807,11.909495,2.1698534,-4.6608987,-7.0651808,-5.1167979,0.19733593,7.4211884,14.6083,19.282223,19.021151,12.782948,2.2534912,-7.9532943,-11.974443,-5.7994266,9.8474579,28.769102,41.648811,40.632156,23.746815,-3.4519536,-30.246614,-46.094437,-46.080025,-33.39901,-17.388035,-8.1575661,-10.871081,-22.949179,-35.799648,-40.035305,-31.12228,-12.176445,7.7085299,18.606916,15.408117,0.74700499,-16.41655,-25.729029,-21.127314,-4.17135,16.725424,30.684921,30.032011,14.336755,-9.1366291,-28.718233,-33.725842,-19.449152,10.503531,45.492165,72.189049,80.141708,66.211235,35.963844,1.3160778,-24.68461,-33.72266,-26.015568,-10.090603,1.6250843,-0.54964042,-17.994028,-42.403732,-59.719925,-57.689846,-33.192833,4.8089194,38.768742,51.154491,33.823067,-6.9248748,-52.664272,-81.70121,-80.005844,-48.434883,-2.3169649,36.465397,50.709568,36.466751,4.4827957,-26.061733,-37.92942,-24.680521,6.5783381,39.62785,57.97047,53.156807,28.375111,-4.0684533,-29.44841,-37.641087,-26.974018,-3.5332325,22.91577,43.759121,54.650703,55.87571,50.566532,42.302074,33.46349,24.892792,16.516359,8.2177267,0.40016061,-5.9244475,-9.4023991,-8.8081703,-3.6316159,5.3390088,15.720613,23.919744,26.392897,21.450781,10.69734,-0.94620746,-7.1179142,-3.17816,10.934207,29.925097,45.274815,49.470005,40.144569,21.721813,3.3750427,-5.8000979,-1.8018364,11.959179,26.501303,32.373409,25.170563,8.2814932,-8.8049507,-15.778478,-7.4322233,13.129042,35.856861,49.004059,45.379791,26.200529,0.47431469,-19.690201,-25.274611,-14.754047,5.50594,24.871471,33.998737,29.35708,14.463662,-2.5737364,-13.677757,-15.03836,-8.7866678,-1.3960193,0.15388727,-7.6971416,-23.160465,-40.113159,-51.421066,-52.737419,-44.742825,-32.666706,-23.401487,-21.789555,-28.094431,-37.992012,-45.038445,-44.240765,-34.769554,-20.37644,-7.3661709,-1.3080069,-4.3099804,-14.267992,-26.323202,-35.524883,-39.126129,-37.319931,-32.272762,-26.335276,-20.671442,-15.095377,-8.9806404,-2.3719454,3.6298671,7.5190902,8.5566807,7.5170145,6.3478928,6.8809605,9.4693403,12.562083,13.628932,10.912343,4.855618,-1.8030082,-5.4398966,-3.6352265,3.3577616,12.689653,20.484259,23.913059,22.514004,18.043354,13.125379,9.6916962,8.207984,8.011199,8.2537136,8.5834951,9.0272112,9.3022594,8.3439178,4.7198329,-2.1356654,-10.753819,-17.62937,-18.820204,-12.417638,-0.3061597,12.201577,19.040653,16.999773,8.0238104,-1.4726586,-4.2209353,3.3248031,18.241793,32.126205,35.544106,23.512684,-1.2015803,-29.039551,-48.474579,-52.030983,-40.084187,-20.310856,-3.1976478,3.7326083,-0.3348577,-9.7955322,-16.527252,-14.923499,-5.0732403,7.634285,16.016108,15.483796,6.7306108,-4.7087193,-11.592212,-8.9067659,3.5498531,21.172777,36.907829,44.592705,41.628319,29.871126,14.595897,2.1669083,-2.5674505,1.7845731,12.5003,23.578375,27.851263,19.735138,-2.3481534,-34.892334,-70.191467,-99.027252,-114.13315,-112.92062,-98.220085,-76.695457,-55.764576,-40.579845,-32.544609,-29.929512,-29.980618,-31.145401,-34.070095,-40.856224,-53.115696,-70.075645,-87.932602,-100.94324,-103.80192,-94.172516,-74.175285,-50.088413,-30.287289,-22.148527,-29.075771,-48.818989,-73.89003,-94.16169,-100.85951,-90.429123,-66.534096,-39.006901,-19.854088,-17.889774,-34.490139,-62.679993,-90.249435,-105.5282,-102.94076,-85.438744,-62.512825,-44.896004,-38.908932,-43.59729,-52.163052,-56.681824,-53.17799,-43.997375,-36.110081,-36.487522,-47.456589,-64.898888,-80.371056,-85.822334,-78.072113,-60.458023,-40.853615,-27.419434,-24.623003,-31.647121,-43.679398,-54.871613,-61.037903,-60.745571,-54.756866,-44.832706,-33.010277,-21.686323,-13.902363,-12.933709,-20.868425,-36.897526,-56.628242,-73.351944,-80.967651,-77.037758,-64.122574,-48.433708,-36.493973,-31.753883,-33.198483,-36.721416,-38.287567,-36.778675,-34.673923,-36.158443,-43.950397,-56.936604,-70.145294,-77.060928,-72.841881,-56.553364,-31.32325,-2.6473191,23.884945,44.18259,56.095856,59.170753,54.483364,44.817711,34.683945,29.381914,32.891323,45.475315,62.613945,76.502846,79.874359,70.220306,51.825722,34.017899,26.260544,32.805653,50.137657,68.913078,79.378746,77.029442,65.043907,52.000851,46.368553,51.264404,62.793392,72.912781,74.834679,67.390343,55.559143,46.96986,46.856331,54.864361,65.7332,73.159561,74.012718,69.956505,65.502815,64.118202,65.405762,65.538353,60.661579,50.670795,40.33186,36.519642,43.235493,57.905098,71.880692,75.323975,63.52636,40.477165,17.047852,4.6656861,8.4313326,24.176325,41.467506,50.625038,49.072823,42.704647,41.272095,50.90596,68.968834,85.014717,87.531754,72.101273,45.364239,21.766417,14.778003,28.140621,52.959251,72.864563,74.243073,55.086311,26.680223,6.8259745,8.7037687,32.40873,64.59787,86.599403,85.953857,64.13282,35.566292,18.57546,23.902901,48.013004,75.307533,87.81324,76.284431,45.886059,13.075559,-4.2439027,2.7790732,29.06662,59.021393,75.858139,71.13726,49.006977,23.094582,8.3484068,12.805068,33.811901,60.294807,79.169319,82.020447,68.611328,45.967949,24.248909,11.908012,12.428924,23.642956,39.327278,52.05407,56.184864,50.126904,37.169216,24.447693,20.064734,29.215754,50.990955,77.689896,97.590988,100.32551,82.346863,49.466324,14.712814,-7.7471838,-9.5595293,7.763762,33.978794,55.830444,64.140282,58.268639,45.553185,36.263359,37.217957,47.836647,60.811684,66.769234,60.0051,41.916405,20.305569,5.1686225,3.5023828,15.944231,36.788101,56.99136,68.368752,66.922005,54.044506,35.522202,19.079441,11.509748,16.260263,32.103409,53.326706,71.590401,79.078194,71.868088,52.009884,27.047401,6.8364577,-1.0165213,5.1989508,20.603004,36.499207,45.157887,43.910439,36.196644,28.98806,28.201174,34.929405,44.79361,50.76445,47.646397,35.430828,19.482986,7.5292816,5.3468175,13.727682,28.354206,42.379253,49.980629,48.855648,40.577694,29.159679,19.063089,13.778784,15.268847,23.815809,37.760094,53.211437,64.440849,65.594208,53.475407,30.018133,2.6555002,-18.335615,-24.639694,-14.39015,6.3599443,26.365997,34.855183,27.000662,6.0678353,-18.959486,-38.740131,-48.612514,-50.320229,-49.65522,-51.882839,-58.138012,-65.151398,-68.249474,-65.309563,-58.727196,-53.927238,-55.470699,-63.564957,-73.574326,-79.029327,-76.12574,-66.564331,-56.632813,-53.022255,-58.195095,-68.544159,-76.759102,-76.913963,-68.842415,-58.704636,-55.154991,-63.525852,-81.871635,-101.6302,-112.63839,-109.35546,-94.302811,-76.479103,-65.797264,-67.124763,-77.716164,-89.540512,-94.780617,-90.789459,-81.305115,-73.34819,-72.164482,-77.781822,-85.504631,-89.828522,-88.834213,-85.796532,-86.734566,-95.55999,-110.30874,-123.34677,-125.79396,-113.46544,-90.392097,-67.382195,-56.20174,-62.824417,-83.896103,-108.6301,-124.9909,-126.41685,-115.06729,-99.830467,-90.561317,-92.237862,-102.53235,-114.00343,-119.18479,-115.21848,-105.22988,-95.87735,-92.929001,-97.762459,-106.85303,-114.27567,-115.42682,-109.64259,-100.34758,-93.006218,-92.35878,-100.48629,-116.39569,-136.77124,-157.05171,-172.33253,-178.1949,-171.85098,-153.60907,-127.90783,-102.78824,-87.225807,-87.022804,-101.26649,-121.58668,-135.27718,-131.19112,-105.51495,-64.222191,-20.567867,11.284107,23.191097,16.766243,1.8797427,-9.1696568,-8.4654655,3.5957704,19.386442,29.31975,28.052332,17.871099,7.2527976,5.4956312,16.683392,36.660137,54.93861,60.572456,48.666649,23.767941,-1.9340105,-14.771772,-6.8735719,19.36768,52.070553,75.560738,78.098808,57.732456,23.37052,-9.3839293,-25.52334,-17.497915,11.545316,49.48167,80.849876,93.64846,84.190132,58.005154,26.71059,2.5321362,-6.913898,-1.3039192,13.23088,27.807116,35.439182,34.375473,28.552744,25.011799,29.615675,43.29361,60.851269,73.164261,71.847389,54.087734,25.047108,-3.7089865,-19.312634,-13.855871,11.363071,45.955101,75.10408,86.578278,76.569588,51.35154,23.908527,7.321723,8.3933983,24.773487,46.890095,63.366497,66.844368,57.148102,40.435936,25.298861,18.295042,21.359715,32.078762,45.993881,59.099476,69.010674,74.563545,74.836533,68.873146,56.597141,40.183449,24.489351,15.612989,17.983601,31.632269,51.492821,69.474983,78.305565,74.933914,61.499012,43.416527,26.006657,12.001061,1.5362353,-5.6370149,-7.74191,-0.66720247,19.395962,51.834255,88.9972,117.61757,124.43103,103.30286,59.712643,9.5231876,-27.908743,-38.859344,-21.676291,13.013957,48.364193,70.121735,73.239082,62.818611,49.387394,41.795124,42.149765,45.608074,44.642811,34.683754,17.43568,-0.076877408,-9.8491964,-7.6823311,4.5638847,20.398228,32.577557,36.854176,33.434353,25.721519,17.68602,11.796735,8.6663294,8.0728607,10.026769,14.738049,21.481491,27.507526,28.362268,20.013039,1.7168939,-22.302717,-43.856201,-54.365131,-49.205349,-30.327269,-5.5205321,15.384094,25.301294,23.038357,13.183641,3.0273447,-1.5632999,1.0157168,7.9270425,14.123944,15.4577,10.874974,2.6914115,-4.8893456,-7.9845157,-4.8065405,3.6934428,14.362409,23.173706,26.82407,24.113338,16.662216,8.5918064,5.0204344,9.7358427,22.984411,40.595051,55.255104,59.707882,50.454597,29.982632,6.0879321,-11.629265,-16.379686,-7.4276414,9.8604851,27.195641,37.943745,40.454727,38.268105,37.20787,41.251221,49.754803,57.746181,59.08662,50.576015,34.513691,18.153326,10.279947,16.725775,37.161907,64.766586,88.893723,99.494301,91.35778,66.486191,33.702312,5.629343,-5.960217,5.1724362,36.773254,78.238503,114.23059,130.68906,120.859,88.52813,46.633839,11.528964,-4.493237,1.3457822,21.787815,44.269066,58.25024,60.901867,57.789536,58.155659,67.760551,83.885399,95.944061,91.727112,65.678848,24.036112,-16.759405,-38.054813,-29.130207,6.3106785,51.252674,83.79393,88.414063,63.949333,23.945429,-10.724154,-22.890249,-7.8410883,24.679966,55.937916,67.915794,52.096169,13.018691,-34.701252,-73.853279,-92.593231,-89.076881,-70.963066,-50.592281,-38.557808,-38.841213,-47.654774,-56.269272,-56.249222,-44.437267,-25.171452,-8.4974556,-5.0829611,-20.28096,-50.450409,-83.753716,-105.46975,-105.3998,-83.51622,-50.619415,-23.223549,-15.073175,-29.755709,-58.547298,-84.918419,-93.429352,-78.192116,-46.191608,-13.566264,3.0844715,-4.4774284,-32.048252,-65.746223,-89.817245,-94.936165,-82.398209,-62.190269,-46.503708,-42.710812,-49.803791,-59.990269,-64.06823,-57.181328,-41.664761,-25.631401,-18.423094,-25.611765,-46.158794,-72.925613,-95.937309,-106.64112,-101.27243,-82.126534,-56.50312,-33.880497,-22.338198,-25.433388,-40.691925,-60.474472,-75.161285,-77.535744,-66.402786,-47.518757,-30.999947,-26.238266,-36.854786,-58.497959,-80.9095,-93.314613,-90.214409,-74.277832,-54.641731,-41.5783,-40.668945,-49.893257,-61.301254,-66.151131,-60.334351,-46.81218,-33.695217,-29.262669,-37.021065,-53.72871,-71.390114,-81.808304,-80.885292,-70.269966,-55.744308,-43.703457,-37.998642,-38.812897,-43.729496,-49.795998,-55.048206,-58.695843,-60.314949,-59.077724,-53.82954,-43.973209,-30.364864,-15.347147,-1.7062509,8.792676,16.262598,22.303516,28.62871,35.69989,42.371395,46.80909,48.003601,46.744232,45.270012,45.772614,48.763977,52.47155,53.754757,50.016987,40.916687,28.812759,17.700832,11.32536,11.579585,17.991474,28.331575,39.730625,49.591618,55.985615,57.735271,54.566998,47.438301,38.689739,31.526976,28.703371,30.952955,36.187332,40.229961,38.971889,30.827379,17.959944,5.3619704,-1.8482088,-1.3468288,5.0800614,12.724744,16.981005,16.320351,13.297396,12.859233,18.940554,31.453798,45.605419,54.087433,50.972893,35.128193,11.25059,-12.011434,-25.827118,-24.939512,-9.7159929,14.189959,38.109852,53.470398,54.632149,40.717289,16.060665,-10.8684,-30.006491,-33.218288,-17.717787,12.102986,45.671841,70.169876,75.978561,61.107151,32.243519,1.6375341,-18.750263,-22.787418,-12.41798,4.5373802,19.601982,28.669418,33.754063,40.4403,52.74519,68.854538,80.77475,78.588142,57.026665,20.403669,-17.4571,-38.934505,-31.362108,5.7327943,58.928947,106.04214,125.87991,108.00175,57.806274,-5.4920297,-57.046101,-76.940163,-58.397671,-10.141756,47.828625,92.878525,108.85444,91.814835,50.254803,0.2717627,-41.727909,-65.31427,-68.673271,-56.947853,-37.809196,-17.019707,3.5477388,24.631657,46.30714,65.239113,74.691658,67.767067,42.171402,3.5136673,-35.345825,-59.275665,-57.977757,-31.513166,8.9289751,45.79594,63.281368,54.720451,25.505751,-9.9123516,-35.2957,-40.370098,-25.188322,0.83302438,24.321831,34.748493,29.126932,12.505269,-5.563694,-16.383101,-16.427969,-8.5325184,0.38507539,3.6362646,-1.2504847,-10.974588,-18.180807,-15.626944,-0.68331331,22.259224,43.011173,50.211735,37.286514,6.6884427,-30.093853,-57.29269,-62.377953,-42.588329,-6.8833966,28.091307,46.245724,40.260624,15.32188,-13.785289,-30.737591,-26.476732,-3.8781257,24.254869,42.590504,41.721523,22.862347,-3.6652963,-24.874966,-32.397453,-26.293669,-13.501002,-2.432904,2.4978585,2.9471083,4.3045096,10.933589,22.445738,33.561531,37.539593,30.714121,15.02422,-3.1018808,-16.611452,-21.742508,-19.429525,-13.540283,-7.5428386,-2.2065704,3.9926364,12.253872,20.885475,25.128513,19.962023,4.1541729,-17.396818,-35.130058,-39.734795,-27.71328,-4.0878005,19.677565,31.543716,25.177986,2.9910579,-25.733553,-50.280895,-64.113045,-67.368164,-65.124474,-63.020252,-63.305477,-63.84256,-60.415161,-50.492153,-35.775059,-21.834044,-15.15068,-19.539045,-34.142212,-54.025616,-72.704315,-84.914635,-88.143051,-82.530769,-69.864342,-52.679855,-33.96748,-17.128817,-5.5005674,-1.1811346,-3.7266736,-9.7681093,-14.228387,-12.768774,-4.1115746,9.2454538,22.481533,31.23213,33.94455,32.324028,29.673124,28.366465,28.283228,27.297318,23.420618,16.951979,10.924049,9.3216057,14.16575,23.468655,31.596533,32.026009,20.896067,-0.78049386,-27.521969,-52.020603,-68.332581,-73.810524,-69.044571,-56.481434,-39.107483,-20.126745,-3.4001675,6.4875526,5.492835,-7.5079193,-28.741556,-49.797695,-60.834644,-55.488655,-34.764233,-7.3375888,14.4024,20.669638,9.4566002,-12.466723,-33.386555,-43.116467,-38.343605,-23.795,-8.7321558,-1.075581,-2.7972975,-9.2853289,-12.850361,-8.0128174,4.7701201,19.186171,26.816574,22.227177,6.3893933,-13.492728,-27.5651,-28.298576,-14.246539,9.2089615,32.305828,45.250935,42.477959,25.060066,0.38572487,-20.72691,-28.398773,-17.904448,7.9585829,39.503193,63.826946,70.216553,54.963078,23.245741,-13.042603,-40.692093,-51.19416,-44.323002,-27.424456,-10.882867,-2.3612175,-3.0690234,-8.0693779,-10.21159,-5.1289725,5.8103557,16.357489,19.400879,11.574099,-4.4024467,-21.028736,-30.106379,-27.121607,-13.435057,4.7467227,19.734186,25.992645,22.176807,10.907142,-3.0298684,-14.760193,-20.710663,-19.139305,-10.215072,3.9847898,19.64489,31.953888,36.606739,31.606527,18.377731,1.345019,-14.01274,-23.59255,-26.1231,-22.77998,-15.369056,-4.550406,10.406423,29.977219,52.037037,70.813934,78.525116,69.287827,43.133438,7.4670038,-25.408386,-43.715691,-41.689358,-22.04306,5.9241939,31.338074,46.865543,51.086578,47.21048,39.600994,30.782486,20.899378,9.5653315,-1.8097696,-9.4562483,-9.2571678,-0.032076262,14.442386,26.569433,28.983625,19.108753,1.1996652,-15.69759,-22.808296,-16.625032,-0.72744322,16.659906,27.708092,29.345482,24.247282,18.105124,15.315268,16.142809,17.198681,14.615239,7.3962522,-1.6139995,-7.8556457,-8.6294193,-5.3497229,-2.6309059,-4.7245669,-11.890475,-19.522406,-20.988539,-12.447359,3.7142239,19.477516,25.825954,18.577732,1.5367353,-15.359536,-21.979355,-14.352026,2.659477,18.195669,22.054983,11.005839,-9.2089691,-27.394375,-33.684368,-25.323875,-7.9541273,8.1673098,14.421175,8.6096468,-4.4793177,-16.642311,-21.347404,-17.085119,-7.224309,2.9343998,9.5343456,11.720883,10.781582,8.1111116,3.9305506,-2.1942332,-9.6638393,-15.730753,-16.360262,-8.8913622,5.3002977,20.31638,28.339962,24.110586,8.5346823,-11.059351,-24.554047,-24.625383,-10.987099,9.3012962,25.717529,30.078384,20.864971,3.6351395,-12.51405,-20.159946,-17.342478,-7.8981676,1.5015935,5.5551476,3.2237334,-2.1921067,-5.5025654,-2.9205189,5.7282319,16.931265,25.325285,26.307047,18.152714,2.8591962,-14.43661,-27.157656,-29.607454,-19.290915,1.5324862,25.879051,44.13649,47.869583,33.933399,6.8634562,-22.092602,-39.457478,-35.766556,-10.553823,26.659986,60.260269,75.651421,66.113846,35.906315,-1.9751047,-32.196579,-44.299469,-37.050751,-17.907707,1.7681057,12.925932,13.094608,6.6251369,1.1448733,2.4862545,11.021471,21.384731,25.616045,17.906813,-1.6801589,-26.552017,-46.407539,-52.175251,-40.619186,-16.297787,10.186136,26.915295,26.181936,8.1668892,-19.03867,-43.155731,-53.438717,-45.642578,-23.821421,1.8786732,20.247841,24.267931,13.955165,-4.4879255,-22.480783,-33.565594,-36.11536,-32.955734,-28.478153,-25.228598,-22.143768,-15.447699,-1.5440742,19.978565,45.124081,66.830338,78.141228,75.472672,60.290932,38.482208,17.913971,5.4493189,4.6846428,15.086122,32.517975,50.745781,63.423294,66.132835,58.003799,42.326897,25.654827,15.358347,16.400192,28.782467,47.118744,62.888241,68.489609,61.062984,43.963856,24.965708,12.113431,9.5521736,15.71177,24.83897,30.850941,31.088373,27.660624,25.629625,29.287638,38.969299,50.447136,57.287704,54.650154,42.168015,24.194338,7.399004,-2.6869042,-4.0986047,1.3956647,10.081823,18.583412,25.138788,29.348747,31.071402,29.685503,24.460472,15.70173,5.552062,-2.5355046,-5.6323013,-3.3288805,1.6175305,4.7216597,2.5957859,-4.638546,-13.083078,-17.36175,-14.177399,-4.8368936,5.0520225,8.7654352,2.6913064,-11.043294,-25.326525,-31.939365,-26.347971,-10.569499,7.6295485,18.793354,16.791077,1.9820017,-19.130875,-37.387405,-45.537132,-41.425945,-28.342749,-12.743844,-0.89342827,3.7494047,1.3073884,-5.5101213,-13.262127,-19.42532,-23.200441,-25.416378,-27.835968,-32.205044,-39.31213,-48.294544,-56.509979,-60.256889,-56.336475,-43.90546,-25.643181,-7.3123899,4.4766641,5.4295478,-3.9828446,-18.321192,-29.663389,-31.688068,-23.189068,-8.9676704,2.6082563,4.2023072,-6.2343774,-23.999584,-39.94574,-45.431015,-37.254448,-19.820461,-3.2318397,1.8100154,-10.322609,-36.902451,-67.695976,-89.574417,-92.610382,-74.701004,-42.527843,-8.5038071,14.71387,19.509348,6.0004268,-18.873026,-45.104443,-64.179207,-72.19117,-70.216339,-62.165817,-51.664776,-39.927113,-25.862082,-8.2350531,11.650138,28.729523,35.639725,26.47049,0.86473989,-34.036049,-65.4058,-79.956635,-70.219849,-38.677452,2.636385,37.212997,51.531601,41.276356,13.193192,-18.340294,-38.301468,-38.061058,-19.03747,8.6577225,31.641764,39.844044,30.958979,10.773055,-10.441857,-23.346539,-23.924864,-14.76998,-2.9031281,4.4702969,3.9309177,-2.5146339,-8.892333,-8.9634523,-0.15647022,14.432727,27.180285,29.810848,18.109802,-5.0428877,-30.165026,-45.317467,-42.060417,-20.199131,11.35319,38.418835,48.445789,36.987644,10.28618,-17.632813,-32.042374,-25.124338,-0.04968458,30.706211,51.919292,53.494095,35.405571,7.1493421,-17.769218,-29.044933,-24.451828,-9.8913851,4.9876118,12.717545,11.942742,7.2732391,5.5513587,11.101848,22.916742,35.310081,41.375507,36.984306,22.980322,4.5388522,-11.597099,-20.223276,-19.502563,-10.959052,1.7870359,14.512964,23.441818,25.863306,20.707533,9.1988173,-4.8585486,-15.883726,-18.671682,-11.156891,3.7706962,18.846193,25.652161,19.057371,0.4107649,-22.563999,-39.446716,-42.505604,-30.772501,-10.429701,8.7386532,18.74498,17.477697,9.1450176,1.0350276,-1.2258604,3.0751736,9.8601561,13.403295,10.238001,1.2369661,-9.3498974,-17.000006,-19.872992,-19.56658,-19.286398,-20.931189,-23.37472,-23.332533,-18.276314,-9.2395258,-1.2571501,-0.71830583,-11.105359,-29.925461,-49.131348,-59.201355,-54.64127,-37.564793,-17.002136,-4.1132426,-6.003437,-21.755594,-43.009041,-58.726624,-61.332542,-50.679249,-33.690186,-20.123774,-17.100321,-25.540117,-40.307796,-53.578465,-59.195267,-55.520283,-45.509594,-34.498001,-27.343119,-26.556602,-32.038151,-41.920303,-53.557789,-64.057129,-70.493301,-70.375015,-62.648727,-48.803185,-33.121048,-21.361925,-18.142662,-24.346357,-36.230614,-47.111023,-50.956081,-45.902786,-35.535831,-26.971706,-26.715267,-36.684467,-52.805996,-67.088089,-71.987122,-64.492462,-47.550823,-28.092318,-12.988399,-5.4516716,-3.9586296,-4.0904617,-1.845614,3.821532,10.779983,15.701994,16.656137,14.432443,11.744539,11.034379,12.61016,14.564057,14.555717,12.09446,9.4752932,10.430622,17.245148,28.372042,38.498886,41.471378,34.468834,20.688065,8.4415655,6.7094474,19.545191,42.759922,65.227058,74.501648,63.779881,36.221581,3.9738786,-17.789185,-18.638441,1.7768589,33.730274,62.664497,76.712608,72.399979,55.611206,37.660297,28.916079,33.569534,48.169983,64.297218,73.503662,71.678787,60.658424,46.59346,36.345028,33.966583,38.998981,47.169979,52.872829,52.096992,44.46563,33.551033,25.385681,25.762709,37.392475,58.120804,81.127235,97.319199,99.13427,84.176941,56.877655,27.111462,6.1303482,1.5994332,14.175178,37.413452,61.104485,76.300758,79.373535,73.007179,63.796818,58.043537,58.276318,62.439178,65.955284,65.120689,59.571827,52.332184,47.598694,47.891644,52.494598,58.138386,61.313217,60.539993,57.062176,53.605431,52.229027,52.880421,53.677235,52.623672,49.383472,45.685406,43.957485,45.154316,47.44268,46.903831,39.999222,26.215811,9.0374031,-5.6048574,-12.567581,-10.399732,-2.0464923,7.1061964,12.557457,13.204155,11.43789,10.887935,13.4827,17.938702,20.749353,18.939909,12.565001,5.0566859,1.0371705,3.0483902,9.5171661,15.52336,16.028116,9.4518347,-0.88745868,-8.6216183,-8.4112625,0.38446483,12.941856,21.766182,21.346302,11.682196,-1.6490644,-11.004796,-11.547854,-4.3401418,4.3572745,7.1564069,0.39105058,-13.353644,-26.640978,-31.631178,-24.807653,-9.0981426,7.7997928,17.747833,16.48839,5.5146255,-9.2972574,-21.124359,-25.522669,-21.904608,-12.84451,-2.202781,6.5452471,11.026831,9.9666891,3.1947463,-7.9381037,-20.138002,-28.619776,-28.916794,-19.443438,-3.2436852,12.608045,20.242224,15.384346,0.3273122,-16.612131,-25.298498,-19.498775,-0.81607836,21.64397,35.92688,33.677761,14.712583,-12.901791,-37.257324,-48.897682,-45.391056,-31.748032,-16.785812,-7.8797641,-7.2467766,-11.707965,-15.620592,-14.834413,-9.1819344,-2.2121592,1.3018609,-1.6978519,-10.925123,-23.11281,-33.775234,-39.148365,-37.371597,-28.749941,-15.504756,-1.3908799,8.8970833,10.908686,2.3044729,-15.269939,-35.587936,-49.585327,-49.292561,-32.266552,-3.9920969,23.597311,37.337803,29.377621,1.5518689,-35.01466,-65.143829,-77.019005,-67.811974,-44.512238,-19.640785,-4.3892808,-3.0701063,-11.829606,-22.002811,-25.824188,-21.030268,-11.787092,-5.6918321,-8.8748178,-22.166031,-40.440826,-55.312939,-59.494301,-50.433613,-31.469009,-10.18681,4.9698248,8.1829348,-1.5662023,-20.277298,-40.533596,-54.263069,-55.757961,-43.963165,-23.173998,-1.6610365,11.509402,10.318811,-5.4027815,-29.694515,-53.080399,-66.963104,-67.599854,-57.561054,-43.875103,-33.924942,-31.463142,-35.030373,-39.586746,-40.214218,-35.487431,-28.391577,-24.262438,-27.148352,-36.975418,-49.341469,-58.047867,-58.738602,-51.356457,-39.970215,-30.248413,-26.292965,-28.790377,-35.390976,-42.699425,-48.288254,-51.395187,-52.122578,-50.159687,-44.359283,-33.7216,-19.061728,-3.8679616,6.7446432,8.7419567,1.9384043,-9.1282969,-17.139208,-15.882212,-3.835403,14.789448,32.29023,41.722244,40.607212,31.91836,21.881393,16.116621,16.594669,21.181421,25.762079,27.258612,25.422663,22.328957,20.211058,19.442579,18.26663,14.476481,7.7151499,0.50693393,-2.9887443,0.18298602,9.3100119,19.813309,25.72049,23.349901,13.781004,2.3680844,-4.5255361,-3.5157943,3.6935453,11.488157,14.045198,9.1173229,-0.5981009,-9.3795118,-12.36077,-8.7399292,-2.1707675,1.8745859,-0.066846803,-7.055654,-14.39912,-16.860815,-12.213752,-2.7315595,6.3238797,10.095192,7.0361786,-0.59594333,-8.8217316,-14.91878,-19.043251,-23.318377,-29.165648,-35.05814,-36.671684,-29.681854,-13.411129,7.3535705,24.038244,28.819864,19.32929,0.46122265,-18.078121,-27.16758,-23.356695,-10.517198,2.9085712,9.2450113,6.0893722,-2.8029649,-10.615978,-12.316339,-7.9494801,-2.2480338,-0.96056348,-6.5171647,-16.041683,-23.073856,-21.828234,-11.121538,4.6355319,17.983084,22.753199,17.374516,5.1545515,-8.3196716,-18.621595,-24.37044,-26.519156,-26.032492,-22.142759,-12.839976,2.6167648,21.191824,35.952538,39.206993,27.362534,4.3559804,-19.051897,-30.40074,-22.449375,2.2090933,31.871439,51.744652,51.979736,33.084545,5.536634,-16.189875,-21.661488,-9.9120483,10.768338,28.289658,34.003918,27.389179,15.580402,8.3583231,11.861247,24.846682,39.574272,46.536831,40.07428,21.627855,-1.0257931,-17.840736,-21.452589,-10.435424,10.485611,32.901302,48.333466,51.319675,40.981567,20.943808,-1.9864341,-19.87981,-26.079464,-17.467875,4.0559492,31.648619,55.546623,66.620018,60.1199,37.890366,7.8283429,-19.335918,-34.49699,-33.745789,-19.39155,1.8680795,22.452621,37.135712,44.431145,45.746426,43.230839,37.871563,29.04888,15.71465,-1.7106293,-20.087557,-33.949642,-37.57933,-27.829538,-6.274013,20.51087,42.914745,51.886044,42.752003,17.628893,-14.761341,-42.08009,-53.180779,-42.833965,-14.273468,21.769314,51.381634,63.360435,54.010071,28.537867,-1.658145,-24.478369,-32.600296,-26.191759,-11.62681,2.8144848,11.642487,14.534055,15.178253,17.582649,22.385118,25.663548,21.111526,4.2658496,-23.888023,-56.299061,-82.7854,-94.923027,-90.105263,-72.512161,-50.568054,-32.520554,-22.689075,-20.344727,-21.423792,-21.622213,-18.815302,-13.501497,-7.4411807,-1.8353696,3.5123701,9.5238447,16.361773,22.456974,24.977163,21.56176,12.153659,-0.40860304,-11.585217,-17.460209,-16.767466,-11.362524,-4.894546,-0.57329166,0.55089355,-0.20252214,-0.40743995,1.6932576,6.0719662,11.056457,14.421674,14.563444,11.007582,4.1560559,-5.2117023,-16.063505,-26.735455,-34.56279,-36.264774,-29.361496,-14.024532,5.8826184,23.633114,32.372742,28.517946,13.900455,-4.7692776,-19.084705,-23.151009,-16.490543,-3.9856467,7.1022334,11.295501,7.8223529,0.64788634,-4.2929816,-2.9113169,4.4877138,13.415297,17.978184,14.52995,4.0423551,-8.1506624,-15.061796,-11.706562,2.2257352,21.995922,39.827358,48.270588,43.383205,26.408974,3.3732107,-17.179272,-27.434017,-23.361488,-6.428051,16.79649,37.177338,46.85107,42.785431,28.353796,11.928649,2.8828187,6.8116865,22.427584,41.929874,54.896671,53.783264,38.070606,14.708449,-5.5114779,-13.695902,-7.4803762,8.0874548,23.889105,32.291355,31.579023,26.592762,25.197754,32.761589,48.098019,63.514053,69.145401,59.141979,35.999069,10.284561,-4.4336958,1.137198,26.49571,60.723175,87.331841,92.244919,70.902229,30.873631,-11.35655,-37.89748,-37.643196,-11.282587,29.136049,65.739594,82.773422,73.261543,41.435402,0.059813142,-35.819996,-55.587757,-57.029148,-45.864258,-31.430065,-21.056385,-16.294678,-13.049678,-5.4184618,9.1649628,26.768829,38.050552,33.374943,9.2080545,-28.083225,-63.752972,-81.349876,-71.296234,-36.671497,7.2946115,40.24184,46.773098,24.315643,-15.531621,-52.983604,-70.217102,-60.262581,-29.959597,4.3615398,25.846788,25.691055,6.7772732,-19.181313,-38.880604,-44.685547,-37.895641,-26.593306,-19.837185,-21.890972,-29.855232,-35.844582,-32.172894,-16.39023,6.6944008,27.062378,34.413033,23.366879,-3.6371505,-37.060276,-64.165565,-74.318298,-63.438892,-35.830429,-2.653059,22.395969,28.611347,12.864603,-18.702873,-52.840652,-74.603462,-73.880661,-50.138992,-13.018463,21.764278,39.469852,33.015331,5.9971652,-29.439716,-58.729469,-71.777779,-67.060448,-51.000546,-33.355312,-21.494246,-16.872608,-15.504771,-11.766022,-2.9067428,8.6090822,16.353045,13.924451,-0.81404668,-23.837267,-46.524307,-59.786667,-58.452667,-43.598759,-21.769041,-1.7162485,9.556407,9.5865383,1.0319111,-9.8715248,-16.060518,-12.454535,2.1049547,24.319386,47.450432,63.670185,67.088493,56.397099,35.91991,14.302803,1.0661979,2.4015195,18.232086,42.153751,64.48275,76.955559,76.624168,66.85334,54.927773,47.691021,47.778137,52.595371,56.523319,54.878563,47.127392,37.37598,31.864809,35.042564,46.62072,61.37529,71.780602,71.920288,60.466949,41.190048,20.925695,6.2961454,0.93427366,4.4371448,13.179976,22.211386,27.173376,25.532835,16.981752,3.2430024,-12.456203,-26.149509,-34.131813,-34.066757,-25.859753,-11.876008,3.6955175,16.134378,21.618799,18.266291,6.5358777,-10.925013,-29.786467,-44.825863,-51.111164,-45.601456,-28.78042,-5.4491029,16.222307,27.618883,23.617012,5.5908823,-18.440331,-37.170002,-41.533752,-29.556189,-7.7015228,12.349188,19.93708,11.25933,-8.567956,-28.47184,-37.716213,-31.846975,-14.838042,3.6860089,14.285155,12.967233,2.7799911,-8.9222746,-15.459906,-14.728032,-9.6531811,-5.3011737,-4.9532499,-7.9797153,-10.859652,-10.344877,-6.2417293,-1.6502309,-0.47257301,-4.1162262,-10.004713,-13.225893,-10.283549,-2.200412,5.5314698,6.4985776,-1.8432459,-15.560786,-26.015074,-25.280186,-11.800278,7.6471939,21.435583,20.227886,3.3601499,-19.787291,-34.721199,-30.385496,-6.2100358,26.735401,51.391079,53.953876,31.361795,-7.2412982,-45.678757,-69.319702,-72.076195,-58.137085,-38.117229,-22.499142,-16.414694,-18.427004,-23.210546,-25.762249,-24.330477,-20.617397,-17.814035,-18.249737,-22.212336,-28.272676,-34.321026,-38.306667,-38.371185,-32.911125,-21.247551,-4.856441,11.848273,22.420532,21.30253,7.4804192,-13.47791,-30.908295,-34.00584,-17.857664,12.966467,45.739559,65.556923,62.874184,38.426929,2.7649157,-29.254292,-45.798233,-43.12188,-25.863918,-3.0566208,17.234537,31.331661,39.823425,44.814793,47.053394,45.123352,37.074223,22.947645,6.0335331,-8.2665749,-15.238145,-13.337668,-4.6464095,6.8799739,17.916245,27.110626,34.391468,39.102852,38.900223,30.825897,14.196916,-6.8282304,-23.426149,-25.875877,-9.2201061,22.602787,57.164463,78.972931,77.27684,51.884228,13.56945,-21.315434,-39.019939,-34.795876,-14.136587,11.406156,30.94249,39.444164,38.686508,34.068756,29.925749,26.550013,20.652685,8.5598001,-10.285252,-31.936403,-49.54435,-56.859535,-51.484238,-36.084301,-17.130718,-2.0953693,3.4023111,-2.6235139,-18.156603,-37.975536,-55.24192,-63.601753,-59.457752,-43.726784,-22.128704,-3.3458462,4.6071725,-1.7569375,-19.436605,-40.280704,-55.216438,-59.100502,-53.309132,-44.383904,-39.488548,-41.532162,-47.183197,-49.197063,-41.646957,-24.611483,-5.0628829,6.8748693,4.0696259,-13.002897,-36.211838,-54.408024,-59.811592,-52.103603,-37.736088,-25.188902,-19.54438,-20.044653,-22.058475,-21.683439,-19.336679,-19.473684,-26.504789,-39.969467,-52.883121,-55.15464,-40.35326,-11.394535,19.099445,34.824909,25.072107,-8.3215199,-50.861382,-82.631676,-88.881027,-67.826279,-31.176647,2.7720652,19.250566,14.412557,-3.978606,-22.378214,-29.823668,-23.754656,-10.239744,0.80006731,1.909876,-7.9262581,-23.587437,-37.495399,-43.960548,-41.641293,-33.230129,-23.301159,-16.007584,-13.778337,-17.056374,-24.45746,-32.952171,-38.347301,-36.635666,-26.206305,-9.8286591,5.258759,10.140797,-0.92166305,-26.179829,-55.579769,-74.725151,-72.034027,-45.228001,-3.2354119,37.946835,63.321098,66.325409,51.394062,30.341326,15.043892,11.025736,15.734796,22.082132,24.366123,22.323639,20.597477,24.271206,33.951485,44.202789,46.742966,36.358681,15.397566,-6.5295463,-17.846203,-12.07163,7.9390669,31.452602,46.222443,45.750668,32.827576,17.148783,8.6599684,11.02841,19.495478,24.441542,18.240372,0.85313362,-19.529547,-31.261606,-26.412434,-5.8207693,21.092041,41.582294,46.665348,35.805927,16.639912,0.21164274,-5.2314453,1.7059927,15.672857,28.287542,32.980606,28.213741,17.617424,7.4672585,3.2132285,6.9109907,16.575882,27.381918,33.892426,32.347782,22.252293,6.7989306,-8.0496016,-15.689072,-11.607933,4.3304572,27.221584,48.70425,60.359138,57.417725,40.905796,17.03371,-5.8810015,-21.28582,-26.936766,-24.826422,-18.825245,-11.74547,-3.791373,6.670764,20.714558,36.657745,49.787674,54.448448,47.323544,29.889261,8.4353571,-8.5169783,-14.058312,-5.9836087,12.363332,33.714745,49.969074,55.257622,47.830688,30.387505,9.0806332,-8.3436165,-14.874506,-6.6261663,15.34473,44.643875,71.226501,85.019211,80.183372,58.027447,26.850035,-1.5392064,-17.063477,-15.711937,-0.67369503,20.217676,39.079941,51.802738,58.887512,63.10865,65.93232,65.444939,57.485222,39.374535,13.644567,-11.142042,-23.704782,-16.030241,11.38903,48.402504,79.286819,90.194191,76.051018,43.17688,6.2095175,-18.991432,-22.712263,-5.3324456,23.81605,51.597927,67.262863,66.572472,52.269974,31.365353,11.216055,-3.4541926,-11.388683,-13.670599,-11.813057,-6.4069433,2.9180129,16.360981,32.496449,47.549103,56.099705,53.186722,36.973618,10.641071,-17.743528,-37.849136,-41.420288,-26.441582,1.092822,29.163473,44.998806,41.287361,20.117935,-7.6886272,-27.871296,-30.068037,-13.2919,13.541735,36.451149,43.967834,33.21965,11.112275,-9.9728851,-19.341726,-13.794124,1.2332318,15.611431,20.927401,15.378035,4.2974019,-3.7247815,-2.4670489,8.1310282,22.224642,31.932734,32.178772,23.465334,11.079907,1.5851054,-0.96483386,3.2483845,10.867195,18.056845,22.804209,25.37821,27.032074,28.301998,28.390299,26.097469,21.428761,16.399511,14.147889,16.809978,23.678385,31.127106,34.604523,31.500223,22.962444,13.357023,7.6223106,8.2317429,13.77765,20.119545,23.300377,22.228218,19.28491,18.445856,22.206419,29.429197,35.608467,35.414711,25.868139,8.1154881,-13.23579,-32.643829,-46.29245,-53.258907,-54.748669,-52.353691,-46.856514,-38.484161,-28.218815,-18.793434,-14.148019,-17.299854,-27.962532,-41.750004,-51.95546,-53.186234,-44.716042,-31.340897,-20.933081,-19.980444,-29.75547,-45.496223,-59.165173,-64.1334,-58.928432,-47.771004,-37.650055,-33.846436,-36.754356,-41.972931,-43.535542,-38.157562,-27.760328,-18.629913,-17.679491,-28.071131,-46.839676,-65.973396,-76.386719,-72.599998,-55.6147,-32.521618,-13.150123,-5.5177741,-12.29674,-29.833027,-49.964909,-63.641647,-64.712036,-52.346741,-31.231215,-9.5735283,4.2340336,4.963932,-7.4209671,-27.906738,-48.692913,-62.596214,-66.035065,-60.17297,-49.694698,-39.914143,-33.84565,-30.906698,-27.988579,-22.214296,-13.616609,-5.9261522,-4.7413611,-13.972256,-32.641872,-54.131298,-68.681519,-68.120087,-50.382816,-21.336971,7.3074903,23.165758,18.977177,-3.8122997,-35.468941,-62.230049,-72.406975,-61.507339,-34.071941,-1.4956146,23.062565,30.312424,18.501026,-6.4121361,-33.959927,-54.105232,-61.521847,-57.220825,-46.90292,-37.090755,-31.259047,-28.161322,-23.318258,-12.768452,3.2517014,19.175896,26.619932,19.434357,-1.5808792,-27.361055,-44.047058,-39.888359,-12.002573,30.915394,71.881317,93.607162,87.139969,56.522949,16.857632,-13.299293,-21.170694,-5.7286248,22.645714,48.335064,58.873867,50.921185,30.82428,9.9701681,-1.9940327,-2.0867293,5.497272,13.074002,14.740184,9.947753,3.4120715,1.7224301,8.9258089,23.764374,40.07761,49.979958,47.936314,33.581379,11.981692,-8.5596981,-19.96887,-17.598467,-1.9763491,21.381088,43.920254,57.116615,55.698174,39.905602,15.786125,-6.9212189,-18.777695,-14.935324,2.3304479,24.357157,40.087395,41.521465,27.823124,5.7697387,-13.866159,-22.12059,-16.60181,-2.4857764,10.83824,15.48179,9.7105103,-1.2710184,-8.8561211,-6.6901803,5.0933805,19.729429,27.904068,23.547123,7.7220936,-11.843056,-25.327362,-26.674177,-17.110472,-4.1636968,3.1696539,0.054851294,-11.277945,-23.142693,-27.450069,-20.971079,-7.4671087,4.6590023,7.6960168,-0.4501211,-14.875097,-26.749174,-28.941315,-20.668587,-8.2137594,-1.1761299,-6.4859757,-23.826811,-45.297493,-59.618641,-58.465347,-41.254379,-15.610511,6.7275071,16.194668,10.327367,-5.3428578,-20.746716,-26.979139,-21.024179,-7.0137935,6.4122515,10.961563,3.0378523,-14.610902,-34.520775,-48.269001,-50.313175,-40.126259,-21.936382,-2.5811777,11.317851,15.671138,10.037763,-2.5666194,-16.900499,-27.345522,-29.883711,-23.632662,-11.336043,1.5818784,9.2595415,8.1047497,-1.3202232,-14.338696,-24.350742,-26.213949,-19.043182,-6.7954373,3.8548272,7.2902589,2.2462034,-7.3670578,-14.752464,-14.413698,-5.7890077,5.9505744,12.651669,8.0813885,-7.8138204,-27.910124,-41.043552,-37.818329,-16.010731,17.443363,49.138535,65.370224,58.730042,31.83457,-3.6349359,-32.08897,-40.883308,-25.714495,7.7488823,46.473686,75.533478,84.023193,69.059006,36.498226,-1.634771,-31.837835,-44.095421,-35.292171,-9.8786402,22.367788,50.496456,66.673004,68.744492,60.016373,46.548645,33.557301,22.99758,13.677484,3.6922293,-6.5750327,-13.15495,-10.197519,5.9920778,33.05191,61.634476,78.813667,74.567833,47.891678,8.7883434,-25.608929,-39.230812,-25.35161,9.6399641,49.256413,75.222328,76.57827,54.624165,21.16954,-8.5625305,-24.04504,-23.894199,-14.465847,-4.1082187,2.8249071,8.2165604,17.392986,33.48563,53.129631,66.863815,64.461716,42.012314,6.0978131,-28.069651,-44.057533,-33.147411,0.41537556,41.119694,70.126434,75.102631,56.476204,26.677593,2.9249253,-2.2895451,12.296016,36.662682,55.638042,57.544193,40.515347,13.179155,-10.358348,-18.223442,-6.9260216,17.197336,41.73238,54.883331,51.505867,35.421444,17.000162,7.4229379,12.621154,29.968267,49.394794,58.411358,48.589478,20.266344,-16.996977,-48.654663,-62.192074,-53.459736,-28.987919,-2.8544631,10.524746,4.0214043,-18.271048,-43.114632,-55.333996,-46.36644,-19.436356,11.673505,29.787392,23.621468,-5.9209023,-45.964092,-78.303741,-88.814873,-74.480858,-44.319649,-13.994053,2.6366477,0.27553779,-16.218416,-35.737556,-47.604198,-47.064552,-36.78104,-24.132942,-16.496632,-17.453794,-25.799456,-37.237499,-47.132755,-52.504513,-52.455757,-47.522213,-38.9981,-28.858709,-19.972992,-15.746682,-18.721804,-28.694889,-41.747849,-51.398563,-51.808361,-41.419044,-24.682835,-10.391188,-7.1056972,-18.157999,-39.23407,-60.225929,-70.517677,-64.744385,-45.668861,-22.511278,-5.7524133,-1.5192965,-8.7927017,-20.854834,-29.787682,-31.105427,-25.768097,-18.688133,-15.071804,-17.13588,-23.184898,-29.270361,-31.942463,-30.091364,-24.799017,-17.702662,-9.4249916,0.58639324,12.722744,25.603168,35.756222,39.23772,34.306602,23.275482,11.981503,6.837316,11.119883,22.838739,35.665077,42.498203,39.547657,28.438437,15.085599,6.107954,5.0592194,10.767792,18.637207,23.848137,24.283243,21.355492,18.439587,18.206848,20.774937,23.862108,24.646379,21.868219,16.643602,11.487834,8.3833466,7.3916664,6.8569846,5.0166035,1.7563815,-0.89413989,-0.024339668,5.9492011,15.702427,25.275187,30.176458,28.026867,20.022802,10.241223,3.2189732,1.353955,3.7637944,7.2401562,8.5579481,6.5584598,2.6738672,-0.32446337,-0.37431046,2.4779866,6.2337523,8.4348831,7.8736024,5.3205233,2.8253615,2.1612775,3.5443294,5.4948635,5.8654599,3.2654796,-2.0814483,-8.5187302,-13.891703,-16.498468,-15.486753,-10.707012,-2.5139132,8.0379114,18.706753,25.951632,25.895193,16.366762,-0.96861887,-19.934683,-31.686628,-28.723881,-9.1928883,21.027796,50.08934,65.377579,59.695473,35.142292,2.445946,-24.092077,-33.466251,-23.044552,0.7637437,26.432093,43.516308,47.684952,41.973351,33.897923,30.399786,33.663208,40.148514,43.202751,37.543766,22.928814,4.8823719,-7.92628,-8.2242689,5.8316298,29.23741,52.078976,63.902981,58.463047,36.669708,6.4358974,-20.495018,-33.357552,-26.766251,-2.8771758,29.558935,58.811958,74.895523,73.385902,56.750698,32.729591,10.636368,-2.6372542,-5.0875134,0.4667891,8.6841288,14.852693,17.188086,17.154915,17.835232,21.44533,27.521198,32.858234,33.267254,26.174885,12.608537,-2.6026325,-12.669522,-11.944367,1.1688635,22.929564,45.346992,59.333755,58.664169,43.012806,18.617571,-3.9537184,-14.187085,-6.3549433,17.556555,48.24316,72.885086,80.803108,68.386063,40.879906,10.045287,-11.298706,-15.204806,-2.0644732,20.106756,40.119736,49.403667,46.075161,35.214203,25.385828,23.488844,30.862078,42.762947,51.37281,50.502403,39.285141,22.806896,9.4014521,6.1749735,15.222466,32.512486,49.912861,59.187893,55.888203,41.265293,21.457642,4.5388546,-3.0715692,0.78790623,13.4187,28.729223,39.986263,42.621487,35.940365,23.083429,9.3377352,-0.40618661,-3.8810434,-2.3007655,0.56453156,0.62945741,-4.1265922,-12.444845,-20.456005,-23.916433,-20.777407,-12.601748,-3.9517467,-0.031718791,-3.8905125,-14.767812,-28.502161,-39.712498,-44.452911,-41.835835,-33.840637,-23.671618,-13.876255,-5.4366241,1.7452384,7.5764461,10.86455,9.6079245,2.3872764,-10.135107,-24.802681,-37.172729,-43.779881,-44.095741,-40.90696,-38.767071,-41.390396,-49.525478,-60.576839,-70.151955,-74.537521,-72.592354,-65.991867,-57.859837,-50.848747,-45.970932,-42.875607,-41.177231,-41.67675,-46.382389,-57.091072,-73.38591,-91.475166,-104.95811,-107.48018,-96.055161,-73.246117,-46.846909,-26.938631,-21.564976,-33.030338,-56.599907,-82.280258,-98.94735,-99.030663,-81.72599,-53.365974,-24.811483,-6.9803638,-6.4236565,-22.80814,-49.343845,-75.901253,-93.376404,-97.304329,-89.102631,-74.502388,-60.126354,-50.113033,-44.613441,-40.878532,-36.134731,-30.334196,-26.879587,-30.631193,-44.244236,-65.124763,-85.204918,-94.255379,-85.31839,-59.341782,-26.145092,-0.63548589,4.2289124,-15.754739,-53.129791,-91.61541,-113.5694,-108.46435,-78.093216,-35.799694,-0.080032952,14.215786,2.6367016,-27.487038,-61.50956,-85.214691,-91.650848,-83.525887,-70.173584,-61.131397,-60.206348,-63.517067,-62.633614,-50.877419,-28.875477,-5.7352533,5.3280301,-5.230855,-36.506729,-75.586021,-102.75231,-101.19399,-66.181419,-8.5771055,49.636501,85.826164,87.81189,59.700817,19.305151,-11.457606,-17.922729,0.36210164,30.696999,55.361382,61.91333,49.696362,29.013077,13.862018,12.911758,24.30027,37.348763,39.962246,26.97934,4.1615376,-14.777646,-16.403713,3.9191873,38.441338,70.673264,84.263725,72.003212,39.782627,3.30708,-20.445692,-22.094744,-4.12605,21.551889,40.97776,45.971725,37.983372,26.06144,20.536703,26.371485,40.092724,51.952156,51.87516,35.662586,7.8954597,-20.040813,-35.663399,-31.713245,-9.7670622,20.616417,46.596519,58.065742,51.954899,32.878208,10.143466,-7.0506024,-13.671434,-10.253508,-1.3051873,7.9974642,14.761948,19.332579,23.93895,30.175617,37.125549,41.475086,39.621902,30.418385,16.678848,4.269166,-0.87262511,3.9324551,16.488976,30.908623,40.942001,43.427059,39.712719,34.189796,30.955534,30.87726,31.092459,27.336481,17.531219,4.0882239,-6.8699665,-9.1296644,-0.58891219,14.804994,28.914825,34.148609,28.149799,15.366199,4.2998781,2.0378914,9.5358286,20.809523,26.766647,21.388441,6.298728,-9.411315,-14.336458,-1.93365,24.685745,53.498695,69.741501,64.117851,38.323185,4.6562376,-20.163773,-23.57209,-3.453721,31.116936,64.821503,83.816612,82.062759,63.198505,37.503948,16.106409,5.7274032,6.5631752,13.900062,22.009724,27.833107,32.356464,39.066589,50.575874,65.556656,78.01693,79.720123,64.806732,34.244423,-2.5794399,-30.667976,-35.973133,-12.803954,31.827635,79.815498,109.57509,106.41199,70.415367,17.436678,-27.970049,-44.417805,-24.323961,22.356979,73.368988,105.54539,106.1796,78.344231,37.696072,3.172858,-12.7828,-9.057169,6.2489271,22.591906,33.645889,39.818733,45.782932,55.534702,68.757439,80.820686,85.857689,80.276031,64.197609,40.380394,12.356962,-16.058142,-39.428661,-49.449337,-36.559586,4.6476784,68.807541,137.02493,182.0692,180.96175,128.82384,45.227272,-32.652073,-68.282898,-45.934978,19.318146,88.879951,122.22168,100.59324,38.442215,-25.066807,-49.966858,-20.442812,44.806274,103.73047,117.08975,73.318291,-3.7889297,-69.814674,-87.834595,-52.045303,8.4124336,48.252983,35.703632,-26.003374,-99.415512,-135.92894,-106.82327,-22.604969,71.798706,123.33645,102.41515,20.345037,-77.860077,-140.46916,-138.99947,-83.194519,-12.971171,26.281639,9.1707544,-58.404785,-146.92644,-222.56375,-264.64029,-271.04749,-251.04593,-213.67427,-161.80188,-95.967445,-23.309868,37.915535,64.715126,44.275181,-12.965746,-73.347214,-96.555702,-60.507874,21.122843,101.80732,126.64738,65.547272,-64.828209,-205.01518,-282.44824,-251.03268,-118.07344,57.341606,194.07028,230.25803,153.45161,3.670717,-150.56393,-248.2347,-263.47168,-211.10957,-130.31535,-58.812538,-13.825154,10.463104,30.513248,56.617134,83.461929,93.596962,70.287949,10.465508,-70.798965,-146.74477,-191.81146,-193.05931,-154.07248,-90.504684,-21.269592,39.047588,83.093193,109.16715,117.957,110.42423,87.802063,52.691418,9.6656132,-35.26984,-75.738274,-105.59718,-118.95831,-110.59489,-77.826172,-23.655579,40.862766,97.702469,127.56045,118.31625,71.843155,4.7462454,-58.380466,-96.156189,-100.07243,-77.174469,-44.397282,-18.192696,-5.9023261,-3.944654,-3.3066828,2.0192721,9.8098898,11.320696,-1.3483319,-27.647726,-56.522171,-71.977638,-63.009087,-31.352163,8.4097691,36.981655,41.880825,25.073393,1.7491343,-9.1463585,3.2556207,34.957516,69.554932,88.323593,81.56868,54.225254,22.471024,3.7229095,6.3652196,25.427195,46.488968,54.992355,45.053707,22.581968,1.2647157,-5.7059212,6.9233975,33.974354,63.175518,81.873947,83.159386,68.352371,45.216549,23.521021,10.547102,8.5476656,14.820086,23.804003,30.017857,30.654409,26.926901,23.626184,26.851601,40.621853,63.834946,89.346718,106.25368,104.86777,82.11985,44.350014,5.4336038,-19.360596,-20.809082,-0.39097267,30.624346,57.369434,69.449371,66.273453,56.548267,52.282745,60.905128,80.227959,99.267311,104.42772,87.408432,50.296097,5.051405,-32.109947,-48.194042,-38.815784,-9.1123409,29.545414,64.705421,87.10994,92.53894,81.388397,57.230076,25.532299,-7.1508331,-33.978771,-49.141178,-49.581661,-36.314018,-14.388519,8.7927666,26.137636,33.235062,29.371483,16.988085,0.23253767,-16.436607,-29.045019,-34.443874,-30.715803,-17.915962,1.2182602,21.370892,36.098816,40.306927,32.559986,15.870198,-3.6507611,-19.622574,-28.145674,-28.965242,-24.591208,-18.214254,-11.926268,-6.327817,-1.4482709,2.1250095,3.101068,0.61167693,-4.3169389,-8.4052172,-7.6722345,-0.22862934,11.568723,21.435341,22.330425,10.868203,-9.7979803,-30.769503,-41.866558,-37.368572,-19.586277,2.0581462,16.139809,15.61735,1.7394259,-16.849247,-29.244865,-28.576397,-15.745998,1.4661422,13.199959,13.232951,2.2806654,-12.826593,-23.301914,-23.296991,-12.806179,2.7295444,15.490932,19.120497,11.424956,-5.0054469,-24.049608,-38.316322,-41.556629,-30.685858,-7.0544176,23.421452,51.650494,68.249367,67.100113,48.053001,17.268917,-15.292388,-40.162949,-52.205265,-51.894096,-43.419567,-31.005583,-16.019262,3.0474284,27.64295,55.393322,78.531319,86.349953,70.875969,32.535686,-17.935833,-63.183434,-87.059792,-82.45903,-54.723579,-18.570782,9.807024,21.026712,16.55434,6.4098907,2.1789262,9.6229448,25.238922,38.609379,38.915199,21.632048,-8.4896069,-39.740944,-59.570263,-60.984215,-45.791676,-23.198778,-4.8191652,1.0971781,-6.7019672,-22.535318,-37.180492,-42.715279,-36.452156,-22.220097,-8.5015316,-4.305058,-14.616956,-37.524014,-64.485161,-83.908188,-86.601509,-70.563011,-42.551872,-15.265863,-1.1733983,-6.0046334,-25.447239,-47.146187,-57.295391,-48.436619,-24.119423,2.4014988,15.011164,3.5098455,-30.527622,-74.1381,-109.464,-122.8022,-111.26411,-83.546761,-54.691132,-38.002529,-38.670631,-52.325794,-68.791107,-78.408974,-77.22345,-68.373283,-59.46666,-57.910378,-66.920761,-84.131966,-103.03316,-116.06211,-117.73393,-106.62732,-85.826759,-61.943893,-43.036068,-35.801628,-42.737823,-60.348629,-79.589508,-89.071884,-80.15863,-51.691673,-11.688236,25.495085,45.676151,41.930233,18.413422,-11.41799,-31.520943,-31.409481,-11.292921,18.596052,43.99139,54.402187,48.302586,32.957943,19.376192,15.665542,22.77088,34.836555,43.500885,43.15197,33.900093,20.774096,10.135302,5.8948874,7.8899865,13.053777,18.093294,21.576122,24.060646,26.534338,28.701366,28.681835,24.474472,16.056704,6.3492475,-0.0015593492,0.51336312,7.6197443,16.766459,21.416893,16.913712,3.5557599,-13.121398,-25.189116,-26.691946,-16.968359,-0.97775829,13.507878,20.150303,17.258348,8.2313175,-0.80578244,-4.6199312,-1.6231061,5.6533751,12.359396,14.161378,9.4939375,0.16369031,-9.7486267,-15.908686,-15.640556,-8.9774704,1.3929693,11.13081,15.832683,12.760962,2.1834624,-12.248146,-24.491339,-28.400381,-20.540827,-2.2515185,20.252192,38.132828,43.73209,34.15205,12.77223,-12.193995,-31.467409,-38.896046,-33.927021,-21.143595,-7.2666936,2.6081543,7.4160852,9.9034204,14.06844,21.899611,31.435028,37.393589,34.138969,19.379951,-3.4976156,-25.942575,-37.637211,-31.324831,-6.7589717,28.265369,60.587921,77.129005,70.783607,44.027859,8.366869,-20.427803,-29.342728,-14.215622,18.077906,52.606247,73.31694,70.658661,46.127865,11.379601,-17.708574,-28.995773,-19.908018,1.9251629,23.493645,33.95409,30.637596,20.113605,13.713957,20.131615,39.459747,62.295761,74.665512,66.140984,36.550682,-2.6764619,-33.609879,-40.83839,-19.646151,21.086697,62.926781,86.859749,82.582756,53.36618,14.08176,-16.445595,-24.756601,-9.0252523,20.719885,48.242981,59.503189,49.468452,24.034861,-3.6293311,-20.134995,-18.557713,-1.385151,21.547295,38.757111,43.252567,35.831726,23.923893,16.814926,20.0557,32.227943,45.875862,52.017609,45.607426,28.733135,9.6124325,-2.1275318,-1.1875676,10.066857,22.810387,27.045513,18.035686,0.054581687,-15.075223,-14.305637,8.6781673,48.319309,88.115448,107.73365,93.049675,44.035011,-23.764227,-85.305252,-117.00819,-107.37986,-62.147202,-1.4265251,49.635349,72.151016,61.287659,27.024897,-12.079774,-38.632076,-44.595337,-33.927071,-18.70113,-11.186853,-16.393867,-29.195971,-37.559261,-30.014019,-3.1359432,35.270947,69.311256,83.013542,69.027252,33.248722,-7.3280253,-32.674351,-29.636213,1.4610605,46.984009,86.851326,104.47311,94.568069,64.918503,31.419243,9.3885765,5.9518995,17.469196,32.997414,41.402874,37.870483,26.187891,15.8062,15.713738,28.847977,50.226364,69.663834,77.306541,68.765488,47.126244,21.049829,0.36499634,-8.3214798,-3.8605311,10.003932,27.092575,41.516376,49.403431,49.327896,41.962456,29.610268,15.838334,4.8987646,0.55863076,4.4664464,14.858807,26.650267,33.393482,30.47032,17.887402,0.92593169,-12.101416,-14.10445,-3.2738314,15.399694,32.24765,37.788734,27.809652,5.8565631,-18.372408,-34.019699,-34.841335,-22.633726,-6.3923421,2.4506934,-3.7754357,-24.648451,-51.546253,-71.908127,-75.690933,-60.676937,-33.836952,-7.9984226,4.5204258,-1.9197711,-23.448349,-48.625629,-64.168182,-61.556625,-41.21944,-12.237338,12.18542,21.134907,11.062455,-12.918666,-39.955803,-58.90963,-63.47271,-54.458538,-38.368702,-23.340622,-14.829099,-13.313648,-15.041809,-15.094529,-10.841211,-3.7680948,1.3182808,-0.79585022,-12.366816,-30.759617,-49.048386,-58.936398,-54.613445,-35.709637,-7.9313974,18.979418,35.135151,34.603161,17.975903,-7.7158322,-31.781807,-44.247524,-40.00169,-20.925758,4.9887643,27.198008,37.267067,32.481857,16.692886,-1.9918596,-15.481153,-19.711956,-16.297676,-10.971014,-9.7440977,-15.004837,-23.840767,-29.636675,-26.110516,-11.484066,9.6883001,28.25918,35.017113,25.603281,3.1081779,-23.154894,-42.142635,-46.505077,-36.09771,-17.754438,-1.5002623,4.7630849,-0.7070365,-12.815659,-22.599718,-22.242018,-9.4983912,10.76557,28.740608,34.483234,22.986008,-3.0184071,-33.948139,-57.590912,-64.658318,-53.007874,-28.496447,-2.0400302,15.662767,19.133747,10.358271,-2.8201375,-11.265438,-9.6406832,0.68564355,12.476617,16.755844,7.9954333,-12.463226,-36.638504,-53.714821,-55.436005,-40.27335,-14.238689,11.993581,28.099012,28.700974,15.38056,-4.6403127,-22.211399,-30.410139,-27.227348,-15.804338,-2.465796,6.3042459,6.5647058,-1.7199011,-14.996876,-27.817024,-35.153099,-34.440487,-26.548132,-15.279552,-5.5757594,-1.1982478,-2.9881568,-8.6089382,-13.963384,-15.558608,-12.504801,-6.9749656,-2.8312891,-3.2364378,-8.7208853,-16.910505,-24.056484,-27.327967,-26.33246,-22.872892,-19.208399,-16.172207,-12.6303,-6.7750921,1.675679,10.153207,14.113659,9.9099226,-2.1446915,-16.800865,-26.124708,-23.986937,-10.084833,9.2430477,24.303301,27.681881,18.765009,4.1596661,-6.4779725,-6.7123661,2.3094115,12.347338,13.303448,-0.026924755,-24.037497,-47.891685,-59.78495,-54.03532,-34.549278,-12.481249,0.40697795,-1.5269083,-15.167573,-31.52795,-41.982533,-43.584583,-40.004646,-37.731552,-40.45293,-45.745594,-46.540829,-36.431698,-15.10618,10.056667,27.672228,29.170824,14.359673,-8.006896,-25.217373,-28.117752,-16.455681,1.2739434,13.295875,11.826676,-2.3928595,-20.968363,-33.306274,-33.039764,-21.450163,-6.0601163,4.2916574,4.5550261,-4.3187528,-16.950499,-27.31152,-32.010269,-31.202824,-27.183189,-22.272316,-17.741848,-14.269895,-12.957788,-15.456999,-22.65258,-32.871647,-41.41573,-42.541374,-33.160915,-15.873266,1.1779296,8.3318834,0.36205333,-19.309252,-39.212139,-45.57206,-30.227003,3.9221296,43.442623,70.982613,74.418839,53.382854,19.459383,-10.009685,-20.926874,-9.2113962,18.182667,48.069332,68.471771,74.361115,68.789215,59.451122,53.307163,52.621319,54.499718,53.695438,46.604065,33.97234,20.899797,14.341431,19.58481,37.453739,63.431694,88.978172,104.51366,103.06195,83.31636,50.92754,17.195379,-4.8311353,-5.6465669,16.199223,52.668949,89.061028,110.23267,107.44537,82.422569,46.407177,14.593287,-1.2136636,2.1622839,18.805557,38.002304,50.605072,53.750748,51.361584,50.485043,55.977051,66.888649,76.716393,77.272636,63.786659,38.246563,9.0868444,-12.541615,-17.909885,-4.6774206,22.097614,52.143467,74.193657,80.404076,69.283859,46.157269,21.042995,4.6951566,4.1903725,19.787165,44.524654,67.059525,76.782898,68.942978,47.166061,21.83077,4.8539968,3.5319901,16.802221,36.111534,50.484558,52.882076,44.095108,31.822891,25.493153,30.012131,42.327057,52.977245,51.728733,33.869987,3.3520551,-29.074423,-51.524223,-57.034691,-46.570705,-27.578068,-9.4114447,1.3901957,3.3495088,-0.89647675,-7.3859191,-13.265821,-17.453054,-19.730423,-19.670849,-16.652958,-11.013639,-5.1241617,-2.9767573,-7.9639082,-20.131731,-35.00209,-45.310673,-45.073551,-33.573025,-16.537777,-3.3644707,-1.7732222,-13.113206,-31.334774,-46.434139,-50.335667,-41.58485,-25.947165,-12.627324,-8.6075115,-14.734154,-25.931267,-35.138653,-38.149261,-36.053066,-33.762806,-35.845184,-42.728939,-50.051205,-51.663422,-44.232609,-30.180998,-16.780499,-11.799725,-18.473997,-33.115517,-47.037518,-51.707691,-43.968994,-28.115021,-13.561274,-9.5449457,-20.007782,-41.56546,-65.511856,-82.452629,-86.849915,-79.117332,-64.560135,-50.212448,-41.505325,-40.364342,-45.23513,-52.51506,-58.425541,-60.544022,-58.616627,-54.5583,-51.621651,-52.839893,-59.196754,-68.393951,-75.18689,-73.671066,-60.74369,-38.895546,-16.361025,-3.8137927,-8.8376827,-31.062202,-61.012302,-83.965279,-87.282669,-67.424751,-32.630634,0.60866898,15.735455,4.6905103,-27.802504,-66.630775,-94.085495,-98.806091,-81.063385,-51.705914,-25.670969,-13.886862,-18.077404,-31.089745,-42.138901,-43.657719,-35.734299,-25.722176,-23.435595,-34.815132,-57.71505,-82.212929,-95.353401,-87.882378,-59.482391,-19.775692,15.554656,31.783434,22.017706,-9.3469534,-48.319405,-77.500511,-83.97036,-65.208359,-30.200026,4.8688288,24.332636,20.449768,-3.1440787,-33.640865,-55.768806,-59.521835,-44.897137,-21.214005,-1.5104846,4.8332062,-2.8517239,-16.563494,-24.670973,-19.047779,-0.21177566,22.50289,35.922741,30.450098,5.8126879,-28.075014,-55.724163,-63.795094,-47.908665,-15.011633,19.913124,41.101109,39.56237,17.216871,-14.331658,-39.628506,-46.842613,-33.231583,-6.0568113,21.306063,35.979229,31.620018,10.992841,-16.000286,-37.627308,-46.154785,-41.231804,-29.222576,-19.04678,-16.915289,-22.873123,-31.033012,-33.315701,-24.572134,-6.1712875,14.04023,25.511772,20.552048,-1.285956,-32.373108,-60.259964,-73.421463,-66.638718,-43.368526,-14.005589,9.0378771,17.015776,8.6170025,-9.8399477,-27.722422,-35.245705,-28.055138,-9.1605606,12.592077,26.750286,26.207846,10.579158,-13.595037,-35.930573,-47.120945,-43.315735,-27.784107,-9.0158978,3.7633448,5.3196163,-3.1279907,-15.004144,-22.367517,-20.518303,-10.610273,1.1699029,7.2951913,3.2562277,-9.9375353,-26.448261,-38.896725,-42.17606,-35.593628,-22.347355,-7.0637965,6.8075628,18.138391,27.434668,35.278603,41.34433,44.778526,45.501549,45.141636,46.53793,51.894783,60.864521,70.133842,75.156807,73.119316,65.157288,56.153603,51.967667,55.762253,65.853661,76.631447,82.0839,79.674126,71.98925,65.026833,64.233788,70.957848,81.679703,90.501038,93.101532,89.392517,83.040421,78.324524,76.718704,75.834526,71.633995,62.333397,50.99614,44.540901,49.37812,66.467903,89.35125,107.00179,110.14944,97.199318,75.800179,58.692348,56.132061,69.531982,90.377464,105.26134,104.03167,86.056412,60.753628,42.084465,40.42057,56.717812,82.367798,104.54686,113.603,108.03043,94.350426,82.442612,79.487366,86.151619,96.933746,103.95531,101.64848,89.705589,73.039474,59.276711,55.35508,64.748024,86.124313,113.56718,138.19194,150.93799,146.02556,123.98295,92.650711,64.935364,53.491589,64.448158,93.498901,127.02148,148.40152,146.62338,122.441,88.374573,62.123154,56.873222,74.026505,102.63392,125.93979,131.19064,116.90151,93.319275,75.925667,76.035965,94.161659,119.99477,138.77319,140.00439,123.32153,98.228867,78.252701,73.196091,83.984612,102.71406,117.38808,118.37125,103.0845,76.868279,50.1455,33.654633,33.986282,51.035282,78.008301,103.81176,117.08323,110.68614,85.072563,48.915138,16.15033,0.15294588,7.4857984,34.428761,68.48864,94.562157,102.66941,92.973343,75.082222,61.902382,61.620575,72.675446,84.876183,86.07489,70.321884,42.407475,15.879201,5.5842714,19.165804,52.530151,91.865494,120.87099,128.92789,115.69704,90.04348,64.558258,49.182194,47.355507,56.106815,69.086182,80.236961,86.147736,86.46035,82.964737,78.341904,75.100746,74.7342,77.067039,80.0942,80.837715,77.218018,70.054649,63.622219,63.735016,73.918358,91.953682,109.4941,115.87391,104.41856,77.400085,45.988022,24.459406,21.777422,35.871132,54.698856,63.950344,56.682636,38.463551,24.186199,28.162674,53.842968,90.196762,117.67949,120.34096,96.298141,59.556747,31.751564,29.074949,52.937054,90.335327,123.22802,139.98627,140.74135,133.10629,122.18065,103.42971,65.321442,1.21577,-77.961212,-141.2657,-150.9922,-86.453178,35.736225,159.41226,209.97406,130.20145,-87.974098,-393.9462,-697.81311,-909.34412,-976.24933,-902.34674,-737.82184,-549.5296,-389.19315,-276.09042,-200.44202,-140.69246,-81.218834,-19.560566,38.522633,89.053513,135.3907,184.78053,239.34235,289.64005,316.96384,303.41351,242.31821,140.86768,12.554113,-134.78386,-305.43942,-510.39297,-752.51526,-1013.1332,-1251.5322,-1420.9916,-1493.2416,-1475.6338,-1408.3213,-1340.9124,-1302.0188,-1281.4814,-1238.2173,-1130.6443,-951.30072,-742.65546,-581.49451,-538.59955,-636.58093,-831.65833,-1031.7804,-1142.1725,-1112.7047,-960.34137,-754.54443,-575.58508,-471.21503,-436.92416,-429.69943,-404.19116,-347.00656,-287.00562,-275.2468,-347.60309,-493.81577,-652.73175,-737.71063,-678.27515,-455.22003,-110.63467,270.99258,599.10278,811.52618,891.38861,862.07117,767.5838,651.12482,542.22559,455.05185,393.67007,357.64258,343.90213,345.56894,351.26398,347.78455,325.70715,284.4346,232.85478,184.4848,149.69019,129.79118,116.86854,99.546997,71.255745,35.809975,6.6929555,0.14661305,25.838243,80.355705,147.28296,204.06349,232.22301,225.75484,193.44411,154.00212,126.55368,121.40591,135.83672,157.02438,170.40062,168.72314,156.61221,147.70273,155.83145,185.32431,226.43939,259.32364,264.86188,236.35393,184.85693,134.32391,108.66524,118.04505,152.70576,188.53011,201.4989,182.56245,143.79735,111.7395,111.6278,152.01006,219.20309,285.11111,323.71658,326.11215,304.89734,285.40628,289.43558,321.69611,367.24725,401.08057,403.42981,371.20615,318.81281,268.82104,239.08479,234.56111,248.05014,267.72568,285.02386,297.16382,303.42996,299.63574,276.84006,226.95427,152.01521,69.748863,9.3290825,-2.551018,42.059578,124.21622,204.75493,243.77869,222.5305,154.75854,80.146881,42.766506,66.581879,142.09567,231.84027,291.43451,293.9455,243.68587,172.14224,119.28653,111.66338,149.64705,210.05165,260.9834,279.24194,260.31277,216.62134,167.08475,125.71314,96.154633,74.25016,55.162361,39.156292,31.907724,39.574711,62.652908,93.338303,118.52307,126.64214,114.04622,86.980347,58.137505,40.05093,39.238579,54.130138,77.246651,99.657509,114.8805,120.37094,116.63162,105.3932,88.457008,67.813538,46.456097,28.755241,19.667019,22.978931,39.523701,66.376335,97.498787,125.56558,144.23863,150.09723,143.67308,129.29379,113.69417,103.6572,103.33252,112.27792,125.28317,134.4574,132.97055,118.75902,96.234665,74.779251,64.491547,71.213295,93.415123,122.6473,147.36606,158.11293,151.34554,130.08105,101.32736,72.047836,45.993519,23.004929,0.77496755,-22.325857,-45.213757,-64.019356,-73.905533,-71.647385,-57.523594,-35.550255,-11.951157,7.4152489,19.544018,25.595385,30.354635,39.843925,57.887291,83.094734,107.91638,120.79716,111.08539,74.724983,17.854418,-44.046871,-91.791885,-110.6243,-96.886726,-59.594006,-15.822493,17.835661,33.207634,33.576183,30.292398,35.140118,53.014614,79.113762,101.94132,109.86464,96.998413,65.041885,20.647551,-29.078798,-79.406227,-127.29565,-168.4624,-195.55495,-200.24568,-178.98651,-138.74245,-97.829704,-79.381302,-99.657295,-157.49979,-231.73947,-289.3685,-301.00604,-255.41779,-164.76155,-57.341148,37.992466,106.57637,153.00803,193.6841,241.79118,294.61304,331.76834,326.20251,261.64304,145.66284,9.8292723,-104.11077,-164.55824,-165.36081,-127.33583,-85.294762,-68.251785,-84.236794,-118.09699,-142.79581,-136.88016,-97.610497,-42.395004,1.5191567,12.335098,-15.196546,-68.837547,-127.60622,-174.1505,-203.21432,-221.80508,-242.1089,-272.37357,-311.56366,-350.54123,-378.24823,-388.46283,-382.95703,-369.60428,-357.28461,-350.99524,-349.9631,-349.2052,-342.88657,-327.16415,-301.07556,-265.68375,-222.68459,-173.64328,-120.20109,-64.765518,-11.065625,35.722363,69.17189,82.149002,68.125954,23.745474,-47.650913,-133.21342,-211.08876,-256.08575,-249.756,-190.80356,-99.98999,-15.121098,23.605871,-7.9581957,-104.74763,-232.0623,-339.26514,-381.45816,-338.40753,-221.11357,-63.096493,98.268311,239.68208,359.31873,470.35178,585.46552,702.26654,798.53613,840.08887,796.60449,656.42096,432.64426,158.24986,-125.87579,-383.03308,-587.55603,-725.31458,-790.88074,-785.26819,-716.14551,-599.08295,-456.6694,-313.76498,-190.34274,-95.813866,-28.624952,18.357521,50.040115,64.105721,52.318123,7.3348351,-69.655342,-165.92349,-261.22418,-336.45316,-381.32922,-396.14697,-386.83167,-357.29245,-304.96426,-223.18784,-108.84321,30.480406,175.7449,303.86108,399.05869,460.61057,501.11252,535.47632,567.36853,582.2597,552.59778,453.15784,277.70728,46.753971,-198.83557,-415.08203,-573.09363,-667.86768,-713.33594,-727.88708,-720.29712,-685.1969,-610.51105,-491.26419,-339.78687,-184.78792,-59.009464,17.181616,46.105145,50.390465,59.087242,90.456192,141.56807,190.63965,210.44171,184.78328,118.65215,36.577812,-29.409616,-55.367058,-36.369064,12.33497,63.693474,91.953003,84.022194,44.199131,-9.1961336,-53.153294,-70.90477,-59.690079,-31.971346,-9.3259258,-11.368392,-44.542561,-96.334885,-138.58437,-139.45502,-79.019989,39.196049,187.14986,323.1087,409.49988,428.83844,389.52161,318.84036,247.50688,194.69383,161.66602,136.51685,105.61772,63.734364,16.403696,-25.916901,-56.58622,-77.226326,-94.224403,-109.96847,-116.07807,-95.145424,-31.673609,74.253281,200.28366,308.47775,363.46219,352.10825,292.60641,226.23866,195.41449,220.12077,286.49475,354.30466,379.08304,336.04831,232.22371,100.57298,-19.227535,-101.25943,-143.22311,-161.27504,-174.97647,-193.02873,-208.79382,-207.31339,-177.78395,-122.30209,-55.004387,7.2764163,55.809204,94.498589,135.07974,186.56001,246.49014,300.32159,329.48907,322.88089,284.05267,229.42906,178.68546,143.59744,122.39198,102.85297,71.703003,23.92243,-33.846382,-87.469315,-123.77009,-137.52132,-132.74034,-118.18167,-100.75354,-81.56929,-57.055714,-23.777653,16.935812,58.121895,90.783134,109.41165,115.49582,116.46037,120.61578,131.39957,144.67006,150.81392,140.32179,109.38588,62.177864,8.6805162,-40.315762,-77.901466,-102.79773,-117.62711,-125.37009,-126.60629,-119.34192,-101.31711,-72.994972,-38.98209,-6.6756353,17.2491,30.441221,36.284813,42.018799,54.372478,75.068932,98.838516,115.36626,114.47868,91.943527,52.659317,9.185689,-23.98086,-37.509918,-31.846981,-16.60705,-4.9064474,-5.7758307,-19.107851,-36.247982,-45.964062,-42.101353,-27.922768,-14.009476,-10.664398,-19.562304,-30.379486,-25.397381,9.912158,76.474716,158.06685,227.58754,260.2049,245.98018,194.51561,128.81078,71.958344,34.73624,11.574702,-12.908416,-51.260597,-102.74234,-151.92363,-177.34094,-164.74289,-116.45864,-50.870037,7.7976618,43.048275,54.726875,57.567425,70.902138,106.10526,159.41454,214.09258,249.97577,254.20825,226.81853,178.57451,123.5413,71.598114,25.417803,-17.187864,-58.318966,-96.491333,-127.00071,-145.37538,-150.88106,-147.19994,-139.73593,-131.60973,-121.41693,-104.5051,-76.951668,-39.47398,1.448563,36.047237,55.738655,56.865002,41.695068,16.628954,-10.790698,-34.195511,-49.261459,-53.731876,-47.655991,-34.138626,-19.68066,-12.753082,-20.245832,-43.265903,-74.992371,-102.70885,-113.76933,-102.52826,-74.139771,-42.572552,-23.569988,-26.416727,-49.271408,-80.717117,-106.41508,-116.7119,-110.6974,-94.709953,-76.904381,-61.844467,-48.657318,-33.545525,-14.388395,6.1472178,21.288937,24.126236,12.03098,-11.529508,-38.938496,-62.688786,-79.07119,-89.053131,-96.223206,-103.64682,-111.92603,-119.49414,-124.36513,-125.58077,-123.2011,-117.18704,-106.66106,-90.677818,-70.176178,-49.311424,-34.391491,-30.309208,-36.577168,-46.054592,-48.135193,-35.175468,-8.3117237,21.449156,38.334793,30.568504,-2.4392514,-49.092354,-91.693695,-116.00657,-118.41109,-106.33176,-92.020821,-84.093842,-82.527565,-80.238785,-69.709465,-49.627411,-26.617123,-10.774542,-8.2619171,-16.44138,-25.291512,-24.348606,-10.339046,10.015971,24.276735,22.883522,6.1256819,-15.536842,-28.284906,-24.367388,-7.6518641,8.665801,10.812528,-6.2227435,-35.137455,-61.032116,-71.243652,-63.627808,-47.690331,-37.837788,-43.390209,-62.155361,-81.861656,-88.353439,-74.896133,-46.331356,-15.47701,5.5073953,12.759886,12.289177,14.77971,27.601536,49.704781,72.745224,87.224518,88.943382,81.118645,70.915398,63.35088,57.405834,47.39481,28.574106,2.6165335,-21.491774,-32.300312,-23.362705,1.9397622,31.836208,53.157806,59.227257,53.281097,45.150494,43.660156,50.206413,58.108257,58.146641,46.210072,27.365143,13.162342,13.827354,30.760427,54.735687,71.323135,70.036697,51.043816,24.912821,5.6120391,1.5995032,11.050714,24.280581,31.334255,29.157293,23.198954,22.424595,31.544123,46.349335,55.867294,50.110962,28.025187,-0.19074324,-18.482658,-14.832893,10.83111,46.04557,73.079483,79.406494,64.647209,39.667728,18.781042,10.469401,12.79345,16.230963,11.570723,-2.8442142,-19.559368,-27.100214,-18.083052,5.2745109,31.978739,48.831303,48.373821,33.103321,13.497149,1.4701818,3.615855,18.300478,37.819778,53.532547,60.374775,58.193764,49.912952,38.637024,26.062262,13.012516,1.0079721,-7.0101638,-7.7967558,-0.037752345,14.130111,29.738314,41.54874,46.833199,46.406975,43.243534,39.813679,36.239056,30.692314,21.680002,10.323362,0.67179233,-2.4426017,3.4139347,16.377575,31.135355,42.006336,46.105625,44.40831,40.138496,35.932518,32.108555,27.40288,21.432875,16.584503,17.30283,26.802708,43.519115,60.316002,67.826607,60.290726,40.076988,17.452915,5.1308522,10.733192,32.0299,58.239124,76.720421,80.697502,72.841125,62.296265,57.276379,58.503506,58.283955,46.106293,16.967827,-23.497551,-61.029549,-80.962265,-77.337387,-56.7561,-34.233139,-23.691284,-29.381371,-43.88739,-53.867119,-49.41618,-30.563969,-6.5592628,11.229477,17.484713,16.203905,16.737406,25.622765,40.416325,50.3936,44.019527,18.01371,-18.652149,-49.188267,-59.316315,-46.610935,-22.329426,-4.1815519,-4.7261658,-23.21512,-46.480782,-58.29253,-50.741524,-29.743357,-10.766915,-7.7035332,-22.643742,-43.831825,-53.458183,-40.079556,-7.0980248,28.725555,47.959194,41.251316,15.472125,-11.00727,-20.753195,-8.976613,13.46928,27.832197,20.598684,-7.033217,-39.894897,-59.306557,-56.023575,-36.664822,-19.059919,-19.598948,-41.267536,-70.724106,-86.694626,-74.221939,-35.18998,12.085933,44.149773,47.185707,25.505402,-1.9008802,-14.453909,-3.9851758,19.693163,35.3932,24.993196,-13.825954,-64.988419,-103.37641,-110.14909,-84.210358,-42.575405,-9.559329,-1.8028344,-18.613228,-43.455349,-55.226723,-41.861626,-7.6686387,29.879763,51.391842,47.421398,23.555637,-4.044044,-19.310049,-16.136765,-1.3594403,10.598112,7.5855412,-12.301788,-39.509319,-59.016705,-59.557381,-40.35664,-11.480848,12.095245,18.92742,7.0731897,-15.606431,-36.555012,-45.750744,-40.860161,-27.633003,-15.743734,-12.791362,-19.978594,-31.773891,-39.478283,-36.44162,-21.885601,-1.2318804,17.095089,26.414434,25.297756,17.856218,10.771861,8.9896774,12.772149,17.948294,19.153135,13.901402,4.7185879,-2.257488,-1.4669094,7.8126616,20.150526,26.861828,21.613329,5.2115779,-13.787216,-23.553787,-16.165529,6.9061704,34.699368,52.570118,50.681999,30.041225,2.2015915,-17.420652,-18.68598,-2.7319345,18.925333,31.697088,27.143042,8.3934374,-11.582827,-17.758154,-2.0405426,32.01149,71.471893,101.66497,114.27112,111.04979,101.31,95.244362,97.625816,105.72188,112.23468,110.78749,100.09232,84.212402,69.237511,59.084148,53.460205,49.190414,43.557896,36.910248,32.492683,33.668537,40.742794,49.950394,55.597191,53.95879,46.138752,37.68166,34.98999,40.885212,52.372463,62.257484,63.645119,54.368046,38.376156,23.158033,14.913303,14.710352,18.166405,18.801344,12.750221,1.6406236,-8.2835541,-10.18132,-1.0998814,15.992613,33.863049,45.174889,46.442547,39.389915,29.163639,20.901314,17.023569,16.84259,18.30241,20.220005,23.244869,28.907278,37.667793,47.63707,55.102669,56.601391,51.073864,40.542091,28.802563,19.064939,12.212477,6.8817081,1.1945356,-5.2463183,-10.680386,-12.403745,-8.9854164,-1.7604007,5.680264,9.8290491,9.8351059,8.3772936,9.9799166,17.705938,30.437181,42.749241,47.764549,41.35038,24.988712,5.3430896,-9.4015207,-14.253137,-10.248331,-3.591181,-1.588544,-7.9102283,-20.154234,-31.261724,-33.919838,-25.228046,-8.7580318,7.2372956,14.354522,8.5970736,-7.6596341,-27.255003,-42.225052,-47.760101,-44.001324,-35.053341,-26.264572,-21.639812,-22.755905,-29.317333,-40.37645,-55.044113,-72.225029,-89.905579,-104.98299,-114.20151,-115.7963,-110.67155,-102.07937,-93.734123,-87.505013,-82.277679,-74.960815,-63.126026,-47.527905,-32.601147,-24.258434,-26.15601,-36.849152,-49.954319,-57.639812,-55.543545,-46.044655,-37.569328,-39.977955,-58.598129,-90.51947,-125.57939,-151.64922,-161.15437,-154.90509,-140.95392,-129.23317,-125.39816,-127.75081,-129.08022,-122.06756,-104.58366,-81.341339,-60.838196,-49.732639,-48.547352,-51.701504,-51.894279,-45.79697,-36.990314,-33.870941,-43.726505,-66.971657,-95.686577,-117.8525,-124.80565,-117.0182,-104.1548,-99.015068,-109.09936,-131.37206,-153.91678,-163.71478,-155.55487,-136.07076,-119.81385,-119.51127,-136.68036,-158.96527,-166.50258,-143.8833,-90.441452,-22.330107,35.284237,61.486965,50.528751,14.014648,-26.642418,-52.61837,-57.32687,-47.836334,-37.988522,-38.333332,-49.607014,-63.662994,-70.542854,-66.329987,-56.196014,-50.665096,-57.94273,-77.896255,-102.00954,-119.35258,-124.29723,-120.42378,-117.71515,-124.92204,-142.52444,-161.54831,-169.53519,-159.93541,-138.50906,-121.92131,-128.72504,-167.9903,-232.65802,-301.90463,-351.23004,-364.22693,-339.10498,-286.72116,-222.32486,-157.16469,-95.509567,-38.387928,9.9062386,38.724548,35.289356,-5.38311,-71.396378,-133.04692,-153.04228,-103.87227,16.88735,182.44962,347.18262,466.5762,516.14154,499.02591,438.42093,359.80972,273.81592,170.1604,26.455139,-173.20238,-420.88248,-679.30115,-892.19336,-1005.8823,-991.22705,-855.07538,-636.04877,-387.56061,-156.96114,29.289701,168.74352,275.04001,364.81491,446.60651,516.59821,561.6582,566.68994,522.11377,428.40033,296.75592,146.52184,0.55919325,-120.34288,-202.93517,-245.28011,-256.871,-253.76396,-249.52507,-245.61266,-226.58409,-164.49236,-32.692028,176.2527,437.60159,694.81293,875.99677,920.98181,807.13239,561.31403,251.24893,-40.558262,-248.4075,-345.79181,-348.66302,-299.55737,-242.16801,-200.12801,-170.29559,-132.15167,-65.989632,31.544014,143.22003,239.63983,294.17566,295.29111,249.82516,177.04268,98.790741,32.489422,-9.5745707,-16.443054,24.563345,125.61594,290.71713,507.29572,743.58325,955.53156,1101.3644,1156.8906,1123.6859,1025.8879,897.81488,769.20099,655.79926,558.99207,472.7323,392.00461,317.32126,253.26328,203.51093,167.03371,138.66328,113.64394,92.461586,81.815575,90.24276,120.79905,165.60135,206.23869,220.59738,192.68204,120.26868,16.485523,-95.069237,-188.76237,-244.7971,-253.69275,-217.01735,-145.8477,-58.45747,22.514936,74.213593,79.511887,33.500359,-52.47382,-152.27353,-232.8107,-265.69168,-237.6248,-154.76955,-39.217575,80.079094,177.05057,234.43715,244.49002,206.56894,125.21808,10.949104,-117.35885,-232.03021,-301.47,-300.45883,-221.77112,-82.793106,77.656281,212.33504,283.09753,274.91727,199.95584,90.323151,-16.389208,-91.530914,-123.53613,-117.49657,-88.373901,-52.553833,-21.924147,-2.1035256,6.2497153,5.2957568,-1.3524874,-9.1046181,-12.89522,-8.4754486,5.7438483,27.407576,50.554619,67.692184,72.60479,62.46225,38.351002,4.4062333,-33.538727,-68.966576,-95.279343,-106.57068,-99.069603,-72.953964,-33.37764,10.539312,48.994991,75.780762,91.257614,102.12627,117.74359,144.75282,182.82329,223.75504,254.32304,261.32852,236.40414,178.6864,94.864281,-2.6821694,-98.59256,-177.49644,-227.12018,-241.29649,-221.94934,-178.69127,-125.23321,-73.56633,-28.700172,12.730023,58.402481,112.50784,168.85353,209.89624,213.76938,166.49048,72.618271,-42.585461,-142.23911,-194.55777,-188.65414,-140.61533,-85.958786,-61.942234,-88.901077,-160.36896,-246.88493,-310.96463,-324.91547,-282.35211,-198.42522,-100.22919,-13.776089,45.390945,74.198883,77.745033,63.034283,35.073509,-3.0624506,-47.74152,-92.854782,-130.49741,-153.9472,-160.81178,-154.14914,-140.91667,-128.89978,-124.03931,-129.2907,-144.74937,-167.92711,-193.54779,-213.45668,-218.06111,-200.05019,-159.26289,-105.78761,-58.331406,-37.087292,-53.815056,-104.2506,-167.61769,-214.57799,-220.31416,-176.28587,-94.557281,-2.4469068,69.683907,101.1918,88.286957,42.788559,-15.657087,-69.008194,-107.03777,-128.12587,-135.79935,-134.22429,-125.51294,-109.83919,-87.260765,-59.395771,-29.746939,-2.7873046,17.240974,27.034634,24.462666,8.9214048,-17.827751,-50.811592,-82.088943,-102.86365,-106.99797,-94.149834,-70.452301,-45.866772,-29.350086,-24.562197,-28.704805,-35.228828,-38.672485,-38.467598,-39.183311,-47.044697,-65.080666,-90.227661,-114.45223,-129.24203,-130.53876,-120.85664,-107.23591,-96.501869,-91.13205,-88.554634,-84.275177,-76.47496,-68.602722,-67.794739,-79.878296,-104.26167,-132.38403,-151.29164,-150.56824,-128.53654,-93.848381,-61.269985,-43.988682,-46.862415,-64.471901,-84.939713,-97.096443,-96.735321,-88.439468,-82.207161,-87.103653,-105.66568,-132.10452,-155.02313,-162.94957,-149.76274,-117.52032,-75.729813,-37.799076,-16.316586,-18.877138,-45.627796,-89.075844,-136.16853,-172.17909,-185.40959,-171.2173,-133.79929,-84.785889,-38.948364,-8.7224636,0.09583509,-10.395639,-32.35569,-56.399361,-75.566093,-87.161919,-92.020103,-92.261642,-89.356705,-83.730499,-75.847855,-67.531311,-62.086857,-62.726563,-70.170692,-81.149467,-89.203987,-87.810539,-74.281776,-52.158249,-30.437943,-19.677538,-26.793396,-51.228256,-84.548012,-113.7997,-127.057,-118.48733,-90.58802,-52.654224,-16.375387,9.2565918,21.362614,23.479885,22.852642,26.193573,36.034016,49.406746,59.433228,58.994091,44.666203,18.991768,-10.048432,-32.130714,-38.802864,-26.857094,0.61821777,35.806362,69.38501,93.777077,105.06203,103.08431,90.328102,70.592049,48.191532,27.730467,13.826531,10.226377,18.344173,36.021378,57.565861,75.592529,84.091042,81.224197,70.253014,57.90752,50.954666,52.795116,61.938847,73.120781,80.288467,79.669456,71.228378,57.953308,43.794304,31.781506,23.481186,19.781969,21.942209,31.626417,49.508907,73.3153,96.954765,112.00163,111.35345,93.299561,63.539669,33.541878,15.563855,16.686272,35.008591,60.224892,78.553894,79.652855,62.011333,34.040531,10.224719,4.2012563,22.130398,59.511528,102.87613,135.46468,144.2187,124.9894,83.869804,34.375736,-8.0071955,-31.456985,-31.39749,-10.927367,21.545841,56.013855,84.183586,101.21323,105.68878,98.559883,82.058426,59.282764,34.345024,12.399678,-1.171432,-2.5161195,8.7434931,28.626205,49.896221,65.039108,69.778709,65.239136,57.362659,53.662376,58.922848,72.240952,87.161079,94.986671,89.520081,70.635201,44.66111,21.371675,9.2249775,11.449935,24.994967,42.691849,57.221954,64.616699,65.506699,63.754387,63.568657,66.859459,72.220558,75.850372,73.67321,63.480213,46.132435,25.490356,7.2741656,-2.6871796,-0.36005199,14.881339,39.437901,65.975372,85.461945,90.357079,77.810043,51.361065,20.056644,-4.9691186,-15.046583,-7.5363708,13.325183,38.663792,59.050018,68.297546,65.186935,52.647312,35.390015,17.683294,2.4964263,-7.969183,-11.416569,-5.488811,10.891491,35.69133,62.955563,84.124847,91.300369,80.917442,55.786224,24.234175,-3.3339603,-18.707157,-18.806643,-5.990684,14.034931,35.204704,53.243267,66.077927,72.866615,72.836952,65.038147,49.237385,27.237925,3.4739177,-15.830789,-24.751497,-20.018948,-2.4927154,22.913197,48.748833,67.311592,72.882225,63.338406,40.842983,11.477798,-16.251764,-33.90971,-36.057804,-22.565912,0.88705313,24.771137,39.618866,40.22308,27.999151,10.136444,-4.1913395,-8.6126165,-2.728724,8.1019125,16.217913,16.303905,8.4867992,-1.9204586,-7.7983046,-4.6117473,6.8647075,21.09013,31.138941,32.785542,26.813295,18.260593,13.221175,15.252642,23.524176,33.630005,40.327667,40.408569,34.06229,24.220491,14.654428,8.1859598,6.0032697,8.1116304,14.153986,23.750109,36.098186,49.338676,60.482071,66.312569,64.897186,56.769287,44.952068,33.705803,26.716291,25.781639,30.669874,39.974426,52.136852,65.800682,79.323425,90.102264,94.67524,90.092476,76.020927,56.221096,38.076244,29.837034,36.688442,57.682594,85.382286,108.71975,117.83457,108.52898,84.118103,53.823116,28.621923,16.692099,20.587011,37.190731,59.990826,82.158684,98.838051,107.82001,108.84977,102.50124,89.575706,71.353035,50.321911,30.584673,17.309954,15.150672,26.218836,48.575527,76.101639,100.09739,112.21553,107.69663,87.59407,58.91325,32.332523,18.175112,22.153349,42.696342,71.161316,95.045586,102.95591,89.216461,56.094894,12.693705,-28.883657,-58.256905,-70.252281,-65.802383,-50.311264,-30.735342,-13.024808,-0.98655242,3.4324646,-0.67256546,-13.503985,-34.023331,-59.03566,-82.916649,-98.759636,-100.84717,-87.361664,-61.873775,-32.566238,-9.2725372,0.44560775,-5.6057386,-23.42457,-44.643387,-60.173271,-64.024567,-55.645874,-39.856964,-24.525442,-17.089609,-21.45632,-36.554737,-57.064518,-75.87426,-87.098007,-88.277359,-80.838821,-68.761597,-56.307159,-46.118599,-38.707607,-33.478775,-30.42959,-31.180483,-38.360863,-53.46991,-74.521851,-95.231766,-106.84917,-102.1938,-79.917374,-46.471977,-14.216715,3.8784723,0.4511562,-22.360184,-53.569977,-78.421738,-85.379463,-71.471092,-43.311111,-13.455955,5.809154,7.9597521,-5.6371064,-27.568975,-48.684849,-62.295235,-66.197433,-62.027012,-52.995861,-41.75071,-29.570145,-16.994143,-5.0129018,4.2475362,7.8606229,3.2024603,-10.862438,-33.274529,-60.678593,-87.751671,-107.86248,-114.22717,-101.81374,-69.782402,-23.522816,25.158916,60.766006,69.473457,45.179562,-6.6611814,-69.796013,-122.84649,-147.72084,-136.96991,-96.619972,-43.185448,3.5742338,28.591175,26.505144,1.9488634,-34.173866,-69.897652,-96.22496,-108.62354,-106.40305,-91.415535,-67.309341,-39.478676,-14.872504,-0.72765899,-2.1705656,-19.771553,-48.633026,-79.948631,-104.54015,-116.6081,-115.69073,-105.87117,-92.90979,-81.175583,-72.215424,-65.573311,-60.897831,-59.53447,-64.229652,-77.003792,-96.667068,-117.89234,-132.87263,-134.94766,-122.24039,-99.172653,-74.873421,-59.216816,-58.534775,-73.117493,-97.567177,-123.51032,-143.10875,-151.69814,-148.65338,-136.63284,-120.01261,-103.36747,-90.407692,-83.397728,-82.897896,-87.815918,-95.878853,-104.53107,-111.94789,-117.62452,-122.11619,-126.01331,-128.83662,-128.71643,-123.31855,-111.6144,-95.362602,-79.133156,-68.489807,-67.111565,-74.492195,-85.698448,-93.604309,-92.550888,-81.463387,-64.659645,-49.821472,-44.17469,-50.874649,-67.447136,-86.955338,-101.13625,-103.83816,-93.18499,-71.746872,-45.060513,-19.489521,-0.38210893,8.9875402,7.7329483,