Bandpass,0,0.16541,-94.48335,-232.4155,-317.5374,-341.6582,-320.3958,-282.8283,-255.8973,-252.1746,-267.0712,-285.6541,-293.8804,-287.1533,-271.589,-258.3235,-255.3574,-262.4099,-271.7741,-273.9741,-264.1659,-245.0497,-224.7881,-211.6508,-209.1076,-214.3869,-221.0293,-223.356,-219.8159,-213.2049,-208.0631,-207.3262,-210.5223,-214.519,-215.9716,-213.5807,-208.6405,-203.7349,-200.7369,-199.6459,-199.0174,-197.4755,-195.054,-193.273,-193.9137,-197.4285,-202.2204,-205.382,-204.4372,-198.8846,-190.4953,-182.1785,-176.2151,-173.0316,-171.2831,-169.0829,-165.4467,-160.9463,-157.1837,-155.5307,-156.0493,-157.3551,-157.4469,-154.9448,-149.8835,-143.6341,-138.0992,-134.7722,-134.2314,-136.2134,-140.0161,-144.8089,-149.6733,-153.503,-155.111,-153.6644,-149.2626,-143.2022,-137.5786,-134.3164,-134.1344,-136.1174,-138.1907,-138.2652,-135.3888,-130.1792,-124.3545,-119.6829,-117.0498,-116.1964,-116.1725,-116.0924,-115.6229,-114.9165,-114.1533,-113.1558,-111.4426,-108.695,-105.2388,-102.0817,-100.3617,-100.5295,-101.8456,-102.6167,-101.0981,-96.5218,-89.59109,-82.11956,-76.04015,-72.42826,-71.12563,-71.13025,-71.38947,-71.40437,-71.2628,-71.18949,-71.06189,-70.36175,-68.60802,-65.91716,-63.14609,-61.38303,-61.06565,-61.39318,-60.57312,-56.90355,-50.0492,-41.62078,-34.53723,-31.44146,-33.10733,-37.88459,-42.6038,-44.43304,-42.53104,-38.42633,-34.86901,-33.89725,-35.39977,-37.15255,-36.33943,-31.58587,-24.15028,-17.44714,-15.13283,-18.93551,-27.57992,-37.48674,-44.80507,-47.5178,-46.34114,-43.94031,-43.04702,-44.72586,-47.86958,-50.17234,-49.84245,-46.88934,-43.13805,-40.98961,-41.78012,-44.84237,-47.88437,-48.44741,-45.49964,-40.14717,-35.01247,-32.66812,-34.09745,-38.10254,-41.99893,-43.1418,-40.36323,-34.49668,-27.74635,-22.34039,-19.29144,-17.95949,-16.60331,-13.5165,-8.059663,-1.012659,5.878998,10.83881,12.90925,12.28266,10.01789,7.409298,5.413499,4.43529,4.486092,5.486051,7.429177,10.27791,13.70464,16.94512,18.98607,19.06896,17.22983,14.49816,12.52354,12.74634,15.54984,19.91677,23.86237,25.48021,24.02847,20.41604,16.7616,15.23704,16.85873,20.94708,25.58793,28.82519,29.84767,29.43227,29.35795,31.162,35.04047,39.61834,42.75877,42.92942,40.24038,36.48524,34.12087,34.81206,38.4409,43.20945,46.76746,47.67043,46.27899,44.56258,44.97089,49.06236,56.69281,66.15769,75.09041,81.51683,84.48164,84.05882,80.96772,76.20528,70.92089,66.4314,64.06256,64.63384,67.76043,71.46197,72.55317,67.86375,55.78275,37.28571,15.77683,-4.28395,-19.30785,-28.04947,-31.86021,-33.65274,-36.22351,-40.86941,-46.97924,-52.62623,-55.65105,-54.53155,-48.63864,-37.97553,-22.80566,-3.554521,18.97955,43.3785,67.66709,89.76534,108.0733,121.7771,130.6581,134.5833,133.1699,126.0029,113.4168,97.27537,81.08226,69.03087,64.29911,67.48745,76.1294,85.68986,91.60759,91.29716,85.07824,75.59502,66.20499,59.33976,55.72724,54.73002,55.31104,56.83022,59.14268,62.10751,65.09097,67.04705,67.23237,66.02936,65.12096,66.64572,71.70986,79.2177,85.93707,88.00819,83.14083,72.19751,59.09462,48.94797,45.43268,48.89465,56.29996,63.05237,65.58536,63.21711,58.23799,54.30635,54.21632,58.39622,64.95071,71.04887,74.68243,75.68679,75.51311,76.05016,78.37041,82.18384,86.22882,89.20193,90.53627,90.56136,90.07245,89.73725,89.79096,90.17365,90.87135,92.09546,94.11259,96.90086,100.0079,102.8573,105.3856,108.5222,114.0321,123.5942,137.554,154.1021,169.5105,179.4515,180.8083,173.0301,158.3248,140.6231,123.8985,110.7236,101.6995,95.84374,91.50275,87.19668,82.03835,75.74785,68.53512,61.07001,54.47907,50.14072,49.09668,51.25992,54.89311,56.88932,53.98661,44.4343,29.21022,11.98108,-2.384731,-10.08531,-10.24247,-5.309814,0.2566681,2.340752,-0.7644643,-7.707501,-15.15874,-19.92765,-20.84635,-19.32095,-18.29383,-20.2931,-25.78572,-32.80022,-38.01171,-38.59276,-33.72161,-24.89602,-14.95649,-6.489615,-0.5873756,3.340109,6.707933,10.49943,14.45621,17.2233,17.32124,14.27951,9.184524,4.263517,1.744227,2.668544,6.360006,10.83896,13.90699,14.25326,11.9585,8.180881,4.309398,1.166853,-1.255484,-3.432082,-5.650574,-7.586362,-8.443113,-7.587445,-5.220575,-2.572608,-1.389582,-2.950707,-7.200216,-12.57265,-16.69046,-17.60134,-14.86489,-9.861173,-5.132659,-3.11469,-4.955474,-10.04766,-16.46257,-21.97202,-25.05523,-25.37591,-23.60584,-20.84561,-18.07552,-15.92697,-14.75072,-14.74645,-15.93082,-17.93911,-19.89848,-20.63906,-19.26771,-15.81684,-11.48971,-8.201927,-7.552149,-9.79705,-13.51384,-16.28457,-16.10599,-12.72315,-8.036939,-5.234329,-7.086041,-14.3717,-25.38137,-36.80224,-45.4665,-49.91518,-50.86684,-50.39108,-50.39746,-51.46181,-52.73569,-52.9076,-51.46928,-49.314,-48.18023,-49.26546,-51.9885,-53.83002,-51.53484,-43.03189,-28.90607,-12.46065,1.755706,10.13827,11.67717,8.153146,2.859713,-1.284649,-3.075005,-3.080484,-2.595816,-2.35001,-1.941609,-0.3855035,2.671232,6.025225,7.07481,3.127011,-6.899826,-21.47453,-36.87227,-48.8844,-54.86968,-54.98055,-51.8653,-49.05792,-49.02363,-51.96632,-56.02445,-58.60883,-58.02325,-54.40724,-49.5448,-45.77337,-44.73396,-46.67954,-50.63704,-55.16472,-59.1428,-62.13229,-64.20129,-65.49471,-65.94647,-65.35142,-63.69647,-61.42742,-59.36934,-58.28977,-58.37032,-58.98023,-58.96966,-57.37792,-54.14311,-50.35272,-47.80791,-48.05968,-51.42899,-56.56472,-60.86055,-61.60276,-57.31264,-48.61084,-38.11773,-29.3812,-25.2964,-26.77677,-32.33556,-38.81242,-42.90611,-42.76538,-38.83963,-33.54708,-29.93742,-30.03379,-33.73019,-38.81572,-42.10735,-41.07933,-35.1331,-25.84937,-16.15339,-8.882577,-5.538606,-5.833426,-8.155208,-10.56777,-11.73407,-11.30161,-9.681214,-7.513707,-5.236276,-2.982241,-0.7529481,1.386332,3.29816,4.927122,6.420542,7.999383,9.593509,10.50784,9.471738,5.211285,-2.697505,-13.22446,-24.01621,-32.34114,-36.39011,-36.17911,-33.46506,-30.66779,-29.42877,-29.70321,-29.97748,-28.49555,-24.69097,-19.85495,-16.51174,-16.83419,-21.08377,-27.13274,-31.48679,-31.27773,-26.04601,-18.18517,-11.70607,-10.00002,-13.91416,-21.28339,-28.19896,-31.25287,-29.42003,-24.48405,-19.8172,-18.31273,-20.7419,-25.50256,-29.81974,-31.58239,-30.63027,-28.72002,-28.24332,-30.56107,-35.03074,-39.34153,-40.93992,-38.65327,-33.49506,-28.15329,-25.4605,-26.75203,-31.0863,-35.77664,-37.93073,-36.11191,-31.1782,-25.83342,-23.14132,-24.82813,-30.30265,-36.9326,-41.43052,-41.62047,-37.64837,-31.99759,-28.28103,-29.42444,-36.16299,-46.61874,-57.18412,-64.24472,-65.87582,-62.65406,-57.18969,-52.68149,-51.26588,-53.0405,-56.22501,-58.30721,-57.47579,-53.55107,-47.93829,-42.72536,-39.51525,-38.6935,-39.49746,-40.75235,-41.73983,-42.63388,-44.26375,-47.40847,-52.11129,-57.4574,-61.92228,-64.04827,-63.02334,-58.87544,-52.27145,-44.16611,-35.55525,-27.42804,-20.7801,-16.48712,-14.97548,-15.87535,-17.95759,-19.55424,-19.33515,-17.02382,-13.59013,-10.73557,-9.92403,-11.52902,-14.61003,-17.4572,-18.53653,-17.24197,-14.00744,-9.788519,-5.378922,-1.093064,2.958012,6.279869,7.679891,5.653042,-0.6296723,-10.37632,-21.03076,-29.26563,-32.66735,-31.1103,-26.88379,-23.35514,-22.90822,-25.46294,-28.58267,-29.20718,-25.94563,-20.39749,-16.49433,-18.10095,-26.30167,-38.13892,-47.78096,-49.62116,-41.53393,-26.32088,-10.36104,-0.1709349,1.168788,-4.379184,-11.09888,-12.92442,-6.926245,5.143485,18.07935,26.38293,27.41385,22.69839,16.76101,14.33922,17.74821,25.90294,35.40191,42.78807,46.49582,47.35051,47.51002,48.72018,51.10319,53.1993,53.10191,49.82972,43.99842,37.41644,31.97416,28.6098,27.01329,26.15074,25.14991,23.88631,22.92105,22.91846,24.04499,25.79121,27.30878,27.95266,27.59494,26.49955,24.92063,22.82359,20.02419,16.68189,13.73844,12.85245,15.69866,22.97482,33.75396,45.67304,55.96127,62.76202,65.96735,67.07189,68.12659,70.44778,73.87099,76.97976,78.1216,76.53437,72.86115,68.76479,65.92731,65.10493,65.83078,66.90087,67.26963,66.73801,66.00664,66.10516,67.6339,70.33604,73.26644,75.39369,76.20533,75.89848,75.08322,74.2421,73.37057,72.05042,69.87377,66.89368,63.73946,61.30056,60.19353,60.38923,61.28841,62.19411,62.85141,63.66429,65.38666,68.46523,72.44765,75.88444,76.85045,73.84895,66.61849,56.3997,45.5102,36.44613,30.94405,29.42762,31.03498,34.13371,37.03396,38.59229,38.50371,37.24928,35.77835,35.07357,35.74201,37.76396,40.48316,42.86566,43.94012,43.24963,41.09034,38.40794,36.36563,35.79862,36.82996,38.85623,40.90396,42.14046,42.24908,41.46095,40.27057,39.04581,37.81451,36.35717,34.51384,32.46264,30.72719,29.86965,30.06748,30.87456,31.37469,30.68727,28.52159,25.42365,22.52209,20.89775,20.95513,22.19448,23.54612,24.07105,23.58873,22.81114,22.87018,24.5171,27.50485,30.58451,32.17664,31.34662,28.48858,25.24895,23.66678,24.98633,28.83531,33.28874,35.8454,34.80534,30.27054,24.18078,19.33144,17.902,20.31718,25.08651,29.70607,32.09568,31.74145,29.88143,28.64835,29.69453,33.1314,37.42705,40.32364,40.22623,37.20763,33.02518,30.11267,30.14936,33.05612,37.02558,39.56406,38.93214,35.12402,29.8298,25.42679,23.63452,24.63424,27.14968,29.37384,30.11944,29.46889,28.54881,28.63195,30.18735,32.5177,34.20037,34.03239,31.84003,28.61631,25.90025,24.80557,25.33207,26.40473,26.59813,25.07664,22.14429,19.06267,17.27925,17.5619,19.57599,22.12833,23.86882,23.9842,22.47918,19.94893,17.09885,14.39065,12.02476,10.17826,9.197412,9.498137,11.18486,13.69428,15.82104,16.25957,14.40496,10.89234,7.444115,5.983455,7.480702,11.23921,15.12262,16.68281,14.56812,9.374385,3.385563,-0.6881607,-1.253872,1.244677,4.591612,6.087946,4.103421,-1.024587,-7.253374,-12.05794,-13.85144,-12.74972,-10.27245,-8.234037,-7.5768,-7.879914,-7.826242,-6.270311,-3.171457,0.2321932,2.147385,1.381422,-1.816935,-5.783913,-8.358489,-8.135209,-5.300556,-1.528441,1.011445,0.9415392,-1.500491,-4.591485,-6.125821,-4.693799,-0.4928078,4.792995,8.94693,10.43935,9.197574,6.50692,4.141186,3.264916,3.772982,4.440629,3.762175,0.9521664,-3.519937,-8.170925,-11.37712,-12.33072,-11.50142,-10.31844,-10.2819,-12.05683,-15.10652,-18.09359,-19.78133,-19.85534,-19.13421,-19.02133,-20.53317,-23.54104,-26.73171,-28.36179,-27.36,-24.09709,-20.30394,-18.15038,-19.00076,-22.59585,-27.16783,-30.43875,-30.92081,-28.74935,-25.57093,-23.56336,-24.19749,-27.46559,-32.0028,-35.97319,-38.13629,-38.44609,-37.86597,-37.59466,-38.24944,-39.53273,-40.56055,-40.58261,-39.5808,-38.34906,-38.01896,-39.37085,-42.38405,-46.31218,-50.19009,-53.41533,-56.01132,-58.44594,-61.15745,-64.16444,-67.01411,-69.0908,-70.03888,-69.99361,-69.46993,-69.0078,-68.85806,-68.92533,-68.99097,-69.01047,-69.24149,-70.07098,-71.68373,-73.82561,-75.87109,-77.18185,-77.50594,-77.12267,-76.60161,-76.34326,-76.2349,-75.70484,-74.18571,-71.66971,-68.94704,-67.2835,-67.68718,-70.21005,-73.77428,-76.69243,-77.61636,-76.33777,-73.92246,-72.07603,-72.10825,-74.14086,-77.06004,-79.23943,-79.59447,-78.28376,-76.63815,-76.34626,-78.41798,-82.56198,-87.34219,-90.99641,-92.3961,-91.56741,-89.50361,-87.45027,-86.14355,-85.48541,-84.79424,-83.42999,-81.32997,-79.12836,-77.79923,-78.08388,-80.07864,-83.21272,-86.59817,-89.48994,-91.57974,-92.98583,-94.00887,-94.87118,-95.59485,-96.07121,-96.21506,-96.06752,-95.78215,-95.53097,-95.41663,-95.46261,-95.63983,-95.87509,-95.99052,-95.62649,-94.26154,-91.40961,-86.94247,-81.34965,-75.72836,-71.40179,-69.31792,-69.53716,-71.13759,-72.6443,-72.79648,-71.21944,-68.63542,-66.44218,-65.92186,-67.51701,-70.59306,-73.82239,-75.93382,-76.37077,-75.47491,-74.10809,-72.99475,-72.23695,-71.31027,-69.53764,-66.70348,-63.36124,-60.59249,-59.34374,-59.77181,-61.05475,-61.85461,-61.16983,-59.04037,-56.58009,-55.22285,-55.57164,-56.57009,-55.61813,-49.74614,-37.31264,-19.2836,0.720602,17.82441,28.12227,30.59008,27.58911,23.57951,22.62137,25.95553,31.00853,32.46358,24.94279,5.961636,-22.3982,-54.01694,-81.2569,-98.23013,-103.184,-98.876,-90.84443,-84.57918,-83.07336,-85.93685,-90.33546,-93.03814,-92.35085,-88.91044,-85.04632,-83.2599,-84.78097,-89.0121,-94.08037,-98.02381,-99.86093,-99.92875,-99.39532,-99.34839,-100.0879,-101.0348,-101.2645,-100.2537,-98.34102,-96.60548,-96.2384,-97.82111,-100.9436,-104.4043,-106.8706,-107.6113,-106.8875,-105.7797,-105.5494,-106.8919,-109.4877,-112.097,-113.1378,-111.4501,-106.8174,-99.98033,-92.12287,-84.12738,-76.02058,-66.93478,-55.63501,-41.30519,-24.12791,-5.270622,13.76519,32.07279,49.97646,68.92856,90.65057,115.9742,144.1,172.7988,199.5268,222.873,243.438,263.576,286.0133,312.1359,340.9351,369.3268,393.7027,411.8745,424.2535,433.5374,443.0553,454.702,467.69,478.8099,484.099,480.8983,469.2025,451.6137,432.0192,413.912,399.2115,388.1459,379.9199,373.5738,368.3615,363.5631,358.0884,350.4203,339.1616,323.9282,305.9546,287.87,272.6253,262.1063,256.2278,253.0383,249.7708,244.1619,235.261,223.3649,209.2546,193.471,176.2104,157.9941,140.5981,127.474,123.0851,131.2808,153.3802,186.9654,226.0117,262.3945,288.1665,297.7769,289.4706,265.6086,231.9151,195.9763,165.3375,145.5885,138.9045,143.5071,154.3547,164.953,169.6569,165.539,153.0066,134.957,115.0261,95.9333,78.8076,63.67722,50.54539,40.10038,33.44909,31.0563,31.77337,32.90832,31.59754,26.74697,20.18388,15.9749,17.98132,26.97265,39.16632,47.40094,44.61364,27.78543,0.03781562,-30.51087,-54.65505,-66.64304,-66.78064,-60.63909,-55.41227,-55.63842,-60.81833,-66.23354,-66.29708,-58.24939,-43.91988,-28.57504,-17.72704,-13.99594,-15.95317,-19.52373,-20.86758,-18.81013,-15.31995,-13.88829,-17.03724,-24.6507,-34.16037,-42.31355,-47.21131,-49.23333,-50.30642,-52.16002,-54.87931,-56.79527,-55.76847,-50.93256,-43.63192,-36.86857,-33.59348,-34.96395,-39.70964,-44.97264,-48.03656,-47.79423,-45.0683,-41.71766,-39.2726,-38.09489,-37.58438,-37.154,-37.1218,-38.75606,-43.35373,-51.01361,-60.0326,-67.49966,-70.84351,-69.39668,-64.96305,-60.97696,-60.70731,-65.57181,-74.52789,-84.82725,-93.59477,-99.22987,-101.8405,-102.6165,-102.7009,-102.3996,-101.2121,-98.57363,-94.68914,-90.79439,-88.63467,-89.47337,-93.29493,-98.7162,-103.6793,-106.5044,-106.7084,-105.1634,-103.6009,-103.8089,-106.9391,-113.2057,-121.9489,-131.9065,-141.5281,-149.3004,-154.099,-155.5655,-154.3365,-151.9399,-150.2592,-150.7306,-153.6684,-158.105,-162.2929,-164.6337,-164.512,-162.5538,-160.1684,-158.6698,-158.514,-159.1358,-159.4361,-158.5927,-156.651,-154.5139,-153.3617,-153.9023,-155.9255,-158.4656,-160.4093,-161.1811,-161.042,-160.858,-161.5016,-163.3084,-165.8868,-168.3849,-169.9848,-170.3111,-169.5243,-168.1036,-166.5139,-164.9753,-163.4381,-161.7254,-159.6774,-157.2161,-154.313,-150.9713,-147.2512,-143.3555,-139.6455,-136.536,-134.27,-132.7157,-131.3449,-129.4673,-126.5962,-122.7614,-118.5554,-114.8739,-112.5065,-111.7998,-112.5713,-114.2754,-116.2629,-117.9678,-118.9266,-118.7216,-116.9881,-113.5532,-108.643,-102.9559,-97.45965,-92.94248,-89.5754,-86.78883,-83.61842,-79.35889,-74.14462,-69.01813,-65.3845,-64.11151,-64.82864,-65.91381,-65.26335,-61.4469,-54.58526,-46.38012,-39.23938,-34.98209,-33.87188,-34.57378,-35.05244,-33.8662,-31.05401,-28.05378,-26.69019,-27.85835,-30.74827,-33.13744,-32.64347,-28.21191,-20.92906,-13.61223,-9.315215,-9.549991,-13.21649,-16.87579,-16.28635,-8.423146,7.043885,27.57174,48.89981,66.9189,79.28046,85.99603,88.84884,90.08939,91.2081,92.42773,93.09703,92.58501,91.03776,89.48311,89.23731,91.02097,94.40754,98.01102,100.337,100.7768,100.0827,99.95041,101.8841,105.9944,110.5073,112.3678,108.7332,98.56229,83.41974,66.9989,53.5561,46.06966,45.07024,48.72181,54.02636,58.41827,60.86718,61.93289,62.8979,64.61339,66.81154,68.30542,67.86828,65.19483,61.28379,57.98761,57.0001,58.90902,62.87435,67.10515,69.81187,70.05592,68.04509,64.76881,61.30865,58.27689,55.70535,53.35908,51.16726,49.43113,48.66421,49.20371,50.9023,53.1356,55.12003,56.32919,56.71891,56.6245,56.4393,56.31232,56.09676,55.54317,54.58858,53.4857,52.67442,52.48631,52.92004,53.65837,54.33311,54.81807,55.31782,56.15774,57.42345,58.75151,59.479,59.11917,57.83754,56.55359,56.49526,58.40082,61.87335,65.35383,66.85105,65.07479,60.31381,54.48864,50.26657,49.67597,53.01021,58.6476,63.91264,66.49464,65.61739,62.31759,58.71795,56.7621,57.16872,59.1734,61.14126,61.60762,60.09481,57.25965,54.35842,52.43922,51.78104,51.8867,51.9637,51.5151,50.65467,49.9724,50.09614,51.26824,53.20027,55.26193,56.82811,57.52936,57.28151,56.1316,54.10732,51.21457,47.57512,43.57652,39.85184,37.04916,35.51857,35.12013,35.31288,35.48425,35.31652,34.94661,34.81506,35.3019,36.40878,37.70253,38.56255,38.55329,37.67173,36.29625,34.90534,33.77461,32.90374,32.21699,31.87132,32.38907,34.43979,38.34974,43.67195,49.14853,53.2084,54.76823,53.85839,51.65044,49.78423,49.34843,50.10917,50.49015,48.37165,42.28711,32.33132,20.23906,8.581201,-0.4482092,-5.976203,-8.591913,-9.693377,-10.50617,-11.42771,-12.0937,-12.05432,-11.51983,-11.57164,-13.5864,-18.17872,-24.33831,-29.40752,-30.08496,-23.99568,-11.02028,6.385585,24.09468,37.9958,45.62541,46.93894,43.94447,39.50806,36.03193,34.67027,35.32348,37.18729,39.38847,41.30139,42.50301,42.60694,41.2756,38.50062,34.92905,31.85658,30.68326,32.00146,34.84956,36.71095,34.46922,25.95869,11.30253,-6.77065,-23.94476,-36.22795,-41.78199,-41.67218,-39.12295,-37.68969,-39.37537,-43.75011,-48.52649,-51.1886,-50.66579,-48.02751,-45.80112,-46.36296,-50.39812,-56.406,-61.53368,-63.25004,-60.82856,-55.75756,-50.85476,-48.65274,-50.03093,-53.88374,-57.95406,-60.24603,-60.12317,-58.46173,-56.86749,-56.54105,-57.56627,-59.03344,-59.83939,-59.53199,-58.61964,-58.13512,-58.82969,-60.61026,-62.6524,-64.11797,-64.90639,-65.83347,-67.99049,-71.65923,-75.55988,-77.06847,-73.46931,-63.58604,-48.79876,-32.73881,-19.70405,-12.63782,-11.79643,-14.86157,-18.4054,-19.82296,-18.60293,-16.25977,-15.07613,-16.52795,-20.38622,-24.99102,-28.42191,-29.71905,-29.34934,-28.66806,-28.81718,-29.86823,-30.8101,-30.3782,-28.10433,-24.84109,-22.34435,-22.18958,-24.73006,-28.82389,-32.50982,-34.21634,-33.69163,-32.08289,-31.13372,-32.06575,-34.88747,-38.55348,-41.80373,-44.04238,-45.63917,-47.45886,-50.00779,-52.86041,-54.83134,-54.81339,-52.69321,-49.66475,-47.64281,-48.11574,-51.17569,-55.4055,-58.73026,-59.70908,-58.42794,-56.39729,-55.52122,-56.80955,-59.69155,-62.38723,-63.09624,-61.21391,-57.77524,-54.83088,-54.16955,-56.22356,-59.86895,-63.23105,-64.94298,-65.0192,-64.78006,-65.89748,-69.20387,-74.07342,-78.75712,-81.46499,-81.46089,-79.4836,-77.23431,-76.2832,-77.1132,-78.87742,-79.99595,-79.16649,-76.13839,-71.80383,-67.58836,-64.57777,-62.91862,-61.80595,-60.00213,-56.50851,-51.0096,-43.9005,-35.98264,-28.09134,-20.85511,-14.64357,-9.61238,-5.721294,-2.692221,0.03334297,3.252964,7.847346,14.57716,23.90604,35.90639,50.20004,65.91574,81.68763,95.82129,106.7293,113.5634,116.764,118.0949,119.9359,123.9963,130.0843,135.7056,136.9716,130.556,115.7604,95.48101,75.35306,61.29817,56.6712,60.55371,68.20757,73.53262,72.24619,64.04905,52.58778,43.28079,40.26321,44.20164,52.16058,59.4936,62.5503,60.59248,55.85069,51.83887,51.06533,53.57367,57.14891,58.93255,57.34061,53.03443,48.37245,45.75312,45.97036,47.65502,48.15301,45.27512,38.80222,30.80178,24.54693,22.69878,25.84197,32.20468,38.69349,42.58311,42.87257,40.57069,37.85125,36.65632,37.597,39.7412,41.31782,40.83168,37.9089,33.42026,28.89605,25.65646,24.18277,24.05356,24.39569,24.49897,24.20329,23.84573,23.8687,24.38879,25.02998,25.13855,24.22879,22.37553,20.26973,18.88817,18.9424,20.42763,22.54347,24.05455,23.90834,21.77677,18.23859,14.48473,11.72062,10.57466,10.8304,11.61062,11.89312,11.08143,9.323279,7.428836,6.465517,7.243087,9.950172,14.08908,18.68563,22.64064,25.06247,25.48062,23.91898,20.86506,17.15738,13.79939,11.70508,11.43209,12.99439,15.85904,19.16379,22.06524,24.05779,25.09612,25.47238,25.55021,25.53349,25.42551,25.17655,24.8796,24.83506,25.39855,26.70183,28.45806,30.03373,30.78447,30.45271,29.35445,28.19009,27.57816,27.61789,27.80195,27.37511,25.92821,23.81443,22.06274,21.77526,23.37166,26.17412,28.65939,29.27162,27.3169,23.37805,18.97556,15.68019,14.24682,14.30693,14.79715,14.78895,14.11862,13.38426,13.32892,14.11125,15.05425,15.13907,13.91673,12.13748,11.48395,13.38744,17.60957,21.58295,21.18958,12.78865,-4.548717,-27.92531,-51.45309,-68.76997,-75.96973,-73.35988,-65.0806,-56.80676,-52.83036,-54.14571,-58.5183,-62.32666,-62.95925,-60.30375,-56.52252,-54.41415,-55.51649,-59.19696,-63.26036,-65.60156,-65.7483,-65.25027,-66.65839,-71.75059,-80.19457,-89.5068,-96.38216,-98.56387,-96.09644,-91.20515,-86.90045,-85.20052,-86.05403,-87.59628,-87.52347,-84.6673,-79.79325,-75.12553,-72.92152,-73.99621,-77.09563,-79.49779,-78.48098,-72.81402,-63.42244,-52.93039,-44.36736,-39.7873,-39.4912,-42.15487,-45.64524,-48.01031,-48.1349,-45.86517,-41.72035,-36.49808,-31.01341,-26.01958,-22.19788,-20.06199,-19.76338,-20.9237,-22.66794,-23.94497,-24.00605,-22.79122,-20.97262,-19.59882,-19.51414,-20.88578,-23.11546,-25.18853,-26.25393,-26.08831,-25.16345,-24.28972,-24.05822,-24.4369,-24.77067,-24.19485,-22.20308,-19.01903,-15.54835,-12.92746,-11.9407,-12.64669,-14.40435,-16.26177,-17.44699,-17.67252,-17.10288,-16.06918,-14.76447,-13.14401,-11.07715,-8.616866,-6.148393,-4.272343,-3.463774,-3.735227,-4.54348,-5.041618,-4.546371,-2.940276,-0.7498957,1.155618,2.06629,1.826742,0.8889589,0.009613146,-0.2024894,0.4146488,1.602188,2.982769,4.408331,6.089884,8.419188,11.597,15.34887,18.93109,21.45575,22.3363,21.58277,19.76686,17.70591,16.07516,15.20523,15.14725,15.90444,17.60089,20.41753,24.32237,28.79622,32.82002,35.22219,35.25191,33.05402,29.73586,26.93549,26.07812,27.71632,31.30823,35.541,39.02525,40.95378,41.40286,41.12741,41.02254,41.57145,42.60891,43.49911,43.61508,42.81939,41.65825,41.146,42.22749,45.19749,49.38489,53.30239,55.24697,54.10341,49.96652,44.25901,39.21421,36.90781,38.28889,42.69126,48.12537,52.25549,53.58617,52.23114,49.81668,48.5233,49.7683,53.2529,56.94464,58.04209,54.42962,45.81551,33.93344,21.70421,11.84369,5.698292,2.919089,2.060342,1.649117,1.035646,0.5367039,0.8861573,2.444175,4.751482,6.721817,7.322116,6.233562,4.034536,1.774612,0.264138,-0.4190364,-0.8420525,-1.625985,-2.787712,-3.523301,-2.651817,0.5410907,5.61375,10.94132,14.44496,14.68313,11.66747,6.910739,2.672652,0.8391485,2.067344,5.625259,9.938551,13.45066,15.30503,15.52864,14.75023,13.72871,13.00048,12.77165,13.00111,13.51512,14.07398,14.42327,14.41072,14.15834,14.16157,15.13894,17.5967,21.32558,25.18246,27.44249,26.66422,22.62642,16.737,11.53488,9.438467,11.39957,16.26877,21.32988,23.77544,22.30058,17.87855,13.2252,11.25326,13.40533,18.85995,25.04899,29.15642,29.66899,27.0734,23.34502,20.62374,19.94801,20.81637,21.76705,21.51418,19.85302,17.75382,16.63157,17.32247,19.4677,21.69741,22.48106,21.07702,17.98253,14.63275,12.57234,12.62884,14.55545,17.2944,19.61508,20.72669,20.54784,19.5818,18.56428,18.12241,18.56961,19.84202,21.51524,22.89747,23.25171,22.15665,19.88005,17.50207,16.5538,18.16789,22.12351,26.37116,27.51025,22.2222,9.043871,-10.45465,-31.86959,-49.6361,-59.44717,-60.21523,-54.52125,-47.27268,-43.2411,-44.77168,-50.85084,-57.96627,-62.21017,-61.43747,-56.30414,-49.70718,-45.05166,-44.38853,-47.45666,-52.08492,-55.60612,-56.39928,-54.67747,-52.14948,-50.85282,-51.90626,-54.91441,-58.31157,-60.37489,-60.25705,-58.43426,-56.33971,-55.43687,-56.32573,-58.39648,-60.22578,-60.45564,-58.62157,-55.43809,-52.37294,-50.77464,-51.06532,-52.4915,-53.58744,-53.08712,-50.74884,-47.59212,-45.3737,-45.58879,-48.56277,-53.17046,-57.37513,-59.30403,-58.25374,-55.06489,-51.63432,-49.85091,-50.5532,-53.0962,-55.75699,-56.73335,-55.15344,-51.53085,-47.44289,-44.63791,-44.09558,-45.5551,-47.72445,-49.0265,-48.43776,-46.0057,-42.811,-40.44117,-40.25146,-42.7273,-47.18282,-51.87312,-54.48334,-52.85773,-45.76474,-33.45795,-17.78607,-1.727731,11.56362,19.87157,22.71197,21.42312,18.47353,16.29841,16.23846,18.10552,20.5641,22.06594,21.78462,20.03309,17.96899,16.84078,17.26424,18.95453,21.02114,22.56608,23.17738,23.03184,22.62151,22.37229,22.45225,22.86904,23.70395,25.21712,27.67329,30.98475,34.48055,37.04731,37.65643,35.98038,32.67852,29.12037,26.66633,25.93312,26.51184,27.31226,27.30633,26.17246,24.42737,22.99235,22.52275,22.99561,23.83025,24.42187,24.64544,24.91742,25.73759,27.06335,28.05412,27.48817,24.66364,20.17332,15.92029,14.19165,16.25518,21.34922,26.78845,29.27192,26.70817,19.4822,10.38982,3.208994,0.7289013,3.366102,9.13905,14.94534,18.30253,18.50157,16.55018,14.10374,12.19395,10.63682,8.471252,5.032324,0.8259047,-2.474002,-2.979893,0.1351081,5.894619,11.86739,15.42935,15.19074,11.70556,7.056063,3.590244,2.620581,3.853648,5.831475,7.010881,6.745929,5.563572,4.636146,4.87375,6.285304,8.002772,8.899012,8.340215,6.545602,4.357515,2.620459,1.637596,1.069722,0.3091369,-0.9754541,-2.542294,-3.733107,-3.961637,-3.168637,-1.892451,-0.907244,-0.659249,-0.9158925,-0.8773441,0.2977688,2.893113,6.350931,9.502669,11.17504,10.81484,8.769321,6.079154,3.946348,3.182395,3.935971,5.773003,7.984339,9.898705,11.04762,11.17732,10.20781,8.243719,5.630527,2.967228,0.9641765,0.1653108,0.6626513,2.002139,3.396285,4.163469,4.150593,3.868409,4.212903,5.90289,8.95782,12.54366,15.32403,16.14742,14.69322,11.69132,8.566745,6.691088,6.658484,8.000138,9.503329,9.947599,8.826902,6.63415,4.546609,3.710453,4.563232,6.606086,8.755424,10.03596,10.16883,9.66746,9.382258,9.80404,10.60601,10.77956,9.313496,6.004105,1.836675,-1.381801,-1.992799,0.4973668,4.992681,9.297893,11.28376,10.06732,6.49117,2.615268,0.5017515,1.04608,3.540975,6.230986,7.474049,6.758885,4.936952,3.551018,3.733664,5.424865,7.430452,8.273814,7.253661,4.981806,3.026444,2.892159,5.02087,8.48242,11.56566,12.86447,12.13756,10.37577,9.060127,9.152812,10.53071,12.24647,13.40794,14.01694,15.12496,18.13501,23.7076,31.02377,37.97385,42.21825,42.48972,39.31837,34.73179,31.13094,30.05748,31.58502,34.61872,37.76762,40.12492,41.45774,41.80307,40.96169,38.42314,33.89078,28.01367,22.64424,20.19588,22.30036,28.55682,36.27599,41.58314,41.39334,35.15194,25.27684,15.97306,11.06485,12.08496,17.69825,24.70932,29.95748,31.91949,31.13094,29.33827,28.11455,27.91018,28.10171,27.84586,26.98657,26.29278,26.85126,29.10337,32.30355,34.8589,35.36349,33.58895,30.70868,28.54215,28.31948,29.82913,31.55388,31.7267,29.57729,25.89211,22.48776,20.95103,21.52783,22.95255,23.35736,21.64057,18.34443,15.40125,14.89571,17.6542,22.61676,27.40838,29.74387,28.73506,25.27885,21.32785,18.59663,17.59044,17.55499,17.2766,16.0669,14.20866,12.58154,11.81876,11.70797,11.32658,9.825883,7.253429,4.733559,3.785641,5.217491,8.397221,11.48233,12.52611,10.73611,7.014091,3.369047,1.585503,2.057514,3.60102,4.378786,3.274793,0.7224196,-1.627668,-2.182644,-0.6901919,1.448503,2.154079,0.2894408,-3.246259,-5.871432,-5.065825,-0.4440679,5.276981,7.249669,1.040647,-14.68289,-36.95153,-59.59467,-76.1082,-82.70205,-79.86328,-71.65947,-63.33755,-58.68323,-58.59461,-61.45158,-64.74382,-66.77711,-67.41583,-67.62514,-68.37822,-69.82018,-71.24934,-71.80631,-71.24053,-70.14539,-69.49432,-69.87445,-71.02922,-72.05849,-72.11965,-71.08354,-69.64916,-68.82998,-69.20625,-70.51288,-71.86108,-72.41901,-72.0136,-71.18604,-70.64542,-70.56463,-70.28744,-68.7559,-65.39072,-60.7934,-56.68029,-54.98558,-56.64663,-60.8866,-65.51375,-68.11169,-67.41068,-63.98171,-59.83036,-57.18175,-57.22743,-59.60442,-62.83924,-65.37248,-66.41631,-66.13338,-65.12943,-63.77582,-61.93153,-59.27977,-55.97273,-52.97129,-51.70697,-53.18247,-57.13027,-61.89687,-65.25404,-65.70677,-63.45597,-60.35721,-58.82772,-60.37098,-64.65299,-69.71745,-73.19847,-73.73112,-71.67189,-68.69964,-66.63084,-66.27338,-67.07182,-67.70797,-67.15656,-65.40808,-63.35539,-61.99405,-61.5809,-61.4473,-60.62632,-58.82924,-56.95844,-56.6311,-58.90259,-63.01082,-66.11887,-64.44906,-55.31413,-38.89241,-18.61643,0.1904774,12.77222,17.16338,14.96578,10.28361,7.467793,8.947927,14.29714,20.90197,25.68624,26.82071,24.49537,20.48668,16.95693,15.29301,15.61076,17.05585,18.54496,19.41669,19.63913,19.58282,19.63118,19.9269,20.37613,20.81593,21.15768,21.39447,21.51082,21.41593,20.99161,20.22304,19.29464,18.54047,18.26304,18.53854,19.15454,19.73523,19.96416,19.75626,19.2601,18.70959,18.2562,17.90702,17.61264,17.40301,17.44192,17.92571,18.90281,20.16377,21.31788,22.0312,22.25699,22.26942,22.44734,22.94572,23.50163,23.54992,22.61581,20.72453,18.53166,17.03697,17.02507,18.58673,21.0409,23.32989,24.63551,24.82911,24.4525,24.26742,24.69352,25.52909,26.1541,26.05505,25.2891,24.5291,24.63539,26.04021,28.38762,30.69985,31.99696,31.94651,31.10888,30.58388,31.28474,33.31688,35.87864,37.74998,38.04296,36.7216,34.56067,32.6068,31.52912,31.30148,31.40079,31.32256,31.00688,30.84032,31.2582,32.26816,33.30968,33.60742,32.78745,31.29829,30.26219,30.78577,33.15909,36.5246,39.30233,40.17535,39.00012,37.01815,36.15608,37.80228,41.82999,46.52014,49.49106,49.10168,45.46648,40.45135,36.63309,35.85886,38.26288,42.31549,45.81298,47.16484,46.17641,43.91117,41.81218,40.73285,40.51764,40.35872,39.61668,38.4669,37.89054,38.99191,42.1111,46.35941,49.94104,51.11402,49.21863,45.13545,40.88611,38.58941,39.37521,42.84648,47.34473,50.81768,51.7748,49.85386,45.79091,40.93565,36.65195,33.89573,33.07765,34.11906,36.55362,39.61181,42.32996,43.76891,43.34945,41.1631,38.06229,35.39453,34.44306,35.81995,39.13543,43.14,46.28293,47.42268,46.33085,43.74637,40.97971,39.27467,39.24876,40.65877,42.56487,43.7866,43.42892,41.25945,37.8027,34.13112,31.44587,30.60256,31.76606,34.3289,37.14369,38.99123,39.0994,37.47533,34.89204,32.51622,31.34377,31.71999,33.18724,34.74288,35.36576,34.54731,32.54128,30.21839,28.61078,28.40144,29.6156,31.65494,33.62437,34.76407,34.77219,33.89005,32.75798,32.14639,32.68114,34.63324,37.79153,41.40259,44.20879,44.63318,41.15582,32.8423,19.85202,3.687811,-13.02322,-27.24582,-36.53632,-39.92984,-38.30531,-34.01146,-29.88447,-28.07771,-29.24682,-32.46859,-35.90909,-37.88172,-37.72127,-36.03058,-34.18527,-33.42383,-34.06885,-35.35585,-35.97387,-34.98259,-32.53981,-29.95509,-28.99193,-30.80776,-35.16814,-40.43395,-44.3709,-45.34251,-43.19492,-39.31736,-35.8461,-34.48466,-35.63251,-38.31072,-40.87929,-42.0514,-41.5755,-40.19371,-38.97731,-38.55096,-38.74012,-38.86536,-38.42683,-37.64163,-37.39304,-38.58467,-41.33905,-44.63794,-46.75071,-46.24427,-42.96423,-38.31802,-34.6095,-33.77388,-36.2708,-40.81245,-45.10566,-47.1558,-46.33324,-43.58719,-40.72784,-39.29325,-39.729,-41.35248,-43.02465,-43.9908,-44.29633,-44.53281,-45.1941,-46.17579,-46.83725,-46.57574,-45.45458,-44.3424,-44.38767,-46.1549,-49.07018,-51.64741,-52.43179,-51.0339,-48.50021,-46.656,-46.78462,-48.53243,-49.87172,-48.30041,-42.58848,-33.92124,-25.55665,-21.02551,-21.88743,-26.4416,-30.3079,-28.69386,-19.08009,-2.760685,15.70615,30.84039,39.01962,40.10406,37.05027,33.86932,33.26756,35.37751,38.23608,39.50789,38.23537,35.45425,33.36918,33.74567,36.66491,40.48337,42.97688,42.84072,40.50827,37.74366,36.33548,36.82305,38.15026,38.47487,36.55891,32.75479,28.87669,27.02087,28.11711,31.20257,33.92724,33.99342,30.60294,24.98299,19.6522,16.90796,17.48684,20.22597,22.88439,23.55433,21.75527,18.56613,15.79044,14.75903,15.54778,17.05052,17.7753,16.78372,14.17824,10.8988,8.062031,6.33413,5.711621,5.75776,6.010986,6.230129,6.335853,6.192942,5.509655,4.008915,1.755643,-0.6656425,-2.365526,-2.714986,-1.901567,-1.045747,-1.677297,-4.810768,-10.17545,-16.13362,-20.42991,-21.3835,-18.82267,-14.18928,-9.722164,-7.209489,-7.066645,-8.290571,-9.295305,-9.073864,-7.938906,-7.364027,-9.034217,-13.70503,-20.5919,-27.66431,-32.65761,-34.18064,-32.27595,-28.15776,-23.38326,-19.02545,-15.37381,-12.27061,-9.75858,-8.494652,-9.56685,-13.77979,-20.86826,-29.20821,-36.3123,-39.92324,-39.11673,-34.79366,-29.25085,-25.04039,-23.73575,-25.25506,-28.08766,-30.26042,-30.47907,-28.81495,-26.58676,-25.54362,-26.84105,-30.38013,-34.85138,-38.42146,-39.65857,-38.18975,-34.78226,-30.87046,-27.83992,-26.48382,-26.86964,-28.59352,-31.17362,-34.28917,-37.74044,-41.22477,-44.17256,-45.85758,-45.76432,-43.99724,-41.41922,-39.34381,-38.8863,-40.33318,-42.92428,-45.23551,-45.98518,-44.80468,-42.4962,-40.58879,-40.42383,-42.30454,-45.24745,-47.51033,-47.61908,-45.2798,-41.62407,-38.61095,-37.93063,-40.04124,-43.92263,-47.67447,-49.599,-49.11956,-47.00493,-44.78983,-43.79863,-44.36759,-45.74328,-46.66345,-46.22621,-44.47197,-42.32571,-40.96656,-41.0572,-42.34409,-43.87154,-44.65483,-44.35059,-43.47648,-43.02975,-43.76043,-45.57241,-47.45967,-48.04486,-46.41443,-42.73871,-38.30712,-34.92706,-34.02227,-35.91957,-39.70568,-43.71061,-46.33522,-46.77967,-45.31172,-42.9853,-41.00436,-40.0954,-40.20796,-40.65622,-40.59167,-39.52247,-37.59952,-35.53481,-34.2027,-34.15697,-35.31641,-36.99408,-38.25507,-38.40668,-37.35849,-35.6491,-34.12369,-33.44656,-33.73732,-34.54144,-35.16005,-35.1255,-34.51367,-33.87137,-33.78857,-34.39258,-35.11886,-34.97094,-33.16538,-29.77174,-25.90658,-23.27776,-23.2653,-26.06063,-30.40291,-34.14364,-35.3799,-33.52324,-29.67803,-26.05962,-24.75806,-26.54329,-30.40559,-34.11007,-35.45417,-33.50003,-29.07398,-24.24768,-21.11303,-20.5594,-21.75618,-22.6094,-20.91748,-15.56299,-7.083568,2.656522,11.47747,18.01568,22.38952,26.10365,31.29231,39.70134,51.8806,66.89776,82.63152,96.47567,106.184,110.5783,109.9244,105.8731,100.9834,97.94812,98.77499,104.1926,113.5226,125.0724,136.8782,147.4873,156.4257,164.1717,171.6931,179.8059,188.6971,197.8207,206.176,212.7809,217.1124,219.2984,220.0145,220.1738,220.5427,221.4208,222.5038,222.9527,221.6874,217.8157,211.0741,202.0726,192.2003,183.1468,176.2247,171.797,169.1194,166.7407,163.2575,158.0569,151.6237,145.2104,140.0853,136.7716,134.7629,132.8666,129.9653,125.6977,120.6177,115.7149,111.6176,108.0165,103.7405,97.48743,88.79325,78.59303,68.98434,62.24473,59.64784,60.76885,63.69017,66.00504,66.03075,63.54498,59.65419,55.94919,53.50697,52.36872,51.76987,50.8988,49.61241,48.59968,48.85871,50.84834,53.92112,56.47618,56.82422,54.24561,49.5666,44.81441,42.06231,42.0976,43.6855,43.92915,39.60125,28.78626,11.97418,-7.974343,-26.97619,-41.41222,-49.51652,-51.84285,-50.6842,-48.83294,-48.35522,-49.94219,-53.03371,-56.49523,-59.39782,-61.48023,-63.13279,-65.01318,-67.59126,-70.87624,-74.44965,-77.71828,-80.21943,-81.82005,-82.73988,-83.42588,-84.36237,-85.89313,-88.09036,-90.70989,-93.245,-95.08898,-95.77615,-95.2227,-93.84224,-92.43822,-91.87301,-92.65155,-94.62272,-97.00377,-98.74477,-99.07869,-97.95434,-96.10287,-94.66283,-94.55821,-95.97807,-98.25948,-100.2686,-101.0523,-100.3914,-98.92117,-97.73013,-97.69269,-98.91551,-100.66,-101.7709,-101.3745,-99.41925,-96.73815,-94.60479,-94.03802,-95.26868,-97.647,-100.0154,-101.2997,-100.985,-99.24594,-96.74982,-94.30341,-92.57363,-91.96844,-92.63393,-94.44844,-96.97094,-99.41917,-100.8254,-100.4115,-98.05474,-94.53292,-91.31292,-89.86195,-90.80602,-93.4437,-95.98203,-96.48898,-94.05894,-89.50356,-85.05827,-83.15616,-84.90077,-89.11346,-92.59239,-91.54734,-83.50481,-68.6594,-49.93948,-31.723,-17.89853,-10.27478,-8.125679,-8.988113,-10.15323,-9.982199,-8.383806,-6.345899,-4.977035,-4.715852,-5.164026,-5.524694,-5.246964,-4.391587,-3.491134,-3.059918,-3.151801,-3.304106,-2.912025,-1.754707,-0.274138,0.6207931,0.1283502,-1.860267,-4.555036,-6.600444,-6.76491,-4.58511,-0.6008421,3.943518,7.728631,9.959802,10.62148,10.31128,9.813506,9.695252,10.13125,10.98741,12.03501,13.11653,14.17093,15.1513,15.93727,16.34369,16.2322,15.64306,14.85239,14.29793,14.40763,15.40818,17.21429,19.43915,21.51714,22.89128,23.20294,22.42344,20.87985,19.15401,17.86849,17.43615,17.88925,18.89043,19.94364,20.70485,21.21069,21.85955,23.12216,25.13143,27.414,28.97497,28.74295,26.16346,21.58887,16.21869,11.58364,8.849388,8.321978,9.424456,11.12266,12.52105,13.26005,13.51676,13.67834,13.97015,14.31486,14.49573,14.44035,14.3514,14.52947,15.00906,15.3278,14.70932,12.65207,9.569012,6.976464,6.931387,10.89802,18.65374,27.96181,35.36428,37.81192,34.27856,26.44053,17.955,12.66872,12.71653,17.56014,24.49698,30.31445,33.11955,33.2826,32.9827,34.67758,39.44637,46.19387,52.17678,54.51026,51.76726,44.76711,36.16126,29.11639,25.87141,26.9199,31.14314,36.65987,41.80798,45.73369,48.38107,50.07873,51.09341,51.45131,51.06101,49.96257,48.4692,47.0912,46.31159,46.36526,47.14876,48.25553,49.06863,48.84583,46.82154,42.40413,35.4862,26.75941,17.79766,10.71742,7.422751,8.73191,13.83968,20.48926,25.87864,27.9149,26.19399,22.17538,18.43585,17.36217,19.96439,25.40938,31.48997,35.74822,36.65007,34.22963,29.93177,25.82878,23.65187,24.1198,26.817,30.56315,34.01477,36.18309,36.69117,35.7479,33.93163,31.91321,30.20312,28.9798,28.03204,26.84768,24.84464,21.68563,17.54318,13.17859,9.745964,8.380439,9.727272,13.63817,19.16345,24.85593,29.24901,31.31389,30.73797,27.96018,23.99279,20.10936,17.4862,16.87298,18.37168,21.40233,24.90292,27.73129,29.12642,29.01423,27.98125,26.89885,26.38071,26.38957,26.25585,25.13841,22.6771,19.42074,16.69962,15.92158,17.63317,20.88965,23.36634,22.26086,15.57999,3.168154,-13.0761,-29.92469,-44.13481,-53.69571,-58.41828,-59.64881,-59.35444,-59.12493,-59.58987,-60.47725,-61.12712,-61.07438,-60.33784,-59.29796,-58.33216,-57.49956,-56.50156,-54.92915,-52.61098,-49.81415,-47.16023,-45.31606,-44.6503,-45.06326,-46.07837,-47.11354,-47.76846,-47.96974,-47.92676,-47.96299,-48.33859,-49.15063,-50.3272,-51.66743,-52.89302,-53.69278,-53.78551,-53.02014,-51.47643,-49.4996,-47.60629,-46.26896,-45.67664,-45.6142,-45.55649,-44.96286,-43.60965,-41.76986,-40.10527,-39.30716,-39.68536,-40.94743,-42.32403,-42.99104,-42.55978,-41.33895,-40.20358,-40.11338,-41.54724,-44.17329,-46.9617,-48.69113,-48.58412,-46.72191,-44.01418,-41.73987,-40.92142,-41.86165,-44.07811,-46.63128,-48.62786,-49.60575,-49.61556,-49.01138,-48.14448,-47.1769,-46.12603,-45.04956,-44.19072,-43.92218,-44.49653,-45.78485,-47.22702,-48.09667,-47.95859,-47.02119,-46.11094,-46.21498,-47.83163,-50.53926,-53.11377,-54.18312,-53.06591,-50.25137,-47.17415,-45.35293,-45.40573,-46.58085,-47.18075,-45.68471,-41.89594,-37.33501,-34.49688,-35.28719,-39.53352,-44.52697,-46.02784,-40.33238,-26.32269,-6.34729,14.62747,31.20636,39.96237,40.79194,36.57302,31.41639,28.54772,28.97724,31.571,34.27694,35.6158,35.50972,35.02224,35.33951,36.76855,38.46259,39.03368,37.59957,34.51715,31.28238,29.64397,30.50633,33.33591,36.44816,37.99156,37.00175,33.88346,30.07931,27.18377,26.09659,26.71077,28.23853,29.84987,31.15045,32.19037,33.09517,33.68261,33.42945,31.8559,29.05357,25.92361,23.87176,24.07317,26.75862,30.98828,35.10214,37.5953,37.89404,36.56395,34.84416,33.82801,33.82714,34.30675,34.39346,33.58274,32.15213,30.99231,30.98615,32.34594,34.37031,35.78847,35.49,33.18646,29.6061,26.1046,23.94291,23.65359,24.84085,26.48392,27.52486,27.39656,26.21891,24.62045,23.34108,22.84928,23.15744,23.8734,24.41468,24.27094,23.20897,21.37023,19.2373,17.47762,16.70261,17.22077,18.89267,21.16318,23.26863,24.51828,24.49852,23.10216,20.4114,16.57098,11.80244,6.58322,1.846208,-1.044078,-0.695778,3.618933,11.32751,20.40763,27.9627,31.36573,29.4597,23.1846,15.25691,9.006758,6.932333,9.672364,15.87395,22.95069,28.27997,30.23713,28.63151,24.49402,19.47847,15.24357,13.0422,13.53986,16.75028,22.0227,28.13422,33.58907,37.13725,38.32003,37.72166,36.69091,36.58969,37.95721,40.1043,41.44701,40.44936,36.62558,30.97473,25.53415,22.28264,22.05982,24.16727,26.90651,28.70127,29.08039,28.88127,29.5614,32.08171,36.12889,40.19638,42.48666,42.03047,39.28495,35.82914,33.36749,32.72153,33.46537,34.40677,34.52873,33.70238,32.67324,32.36053,33.01761,33.90794,33.78605,31.8702,28.5982,25.5689,24.61348,26.56871,30.58456,34.48565,36.02776,34.26311,30.13472,25.89096,23.68844,24.29189,26.72766,29.1091,30.06599,29.77439,29.83851,32.02776,36.67288,41.81667,43.78671,38.9999,25.99731,6.52939,-14.97687,-33.3192,-44.76582,-48.47962,-46.45873,-42.18247,-38.81899,-37.95118,-39.37297,-41.80679,-43.94484,-45.1573,-45.572,-45.66539,-45.78164,-45.91662,-45.8455,-45.40499,-44.6663,-43.88486,-43.30412,-42.99714,-42.87287,-42.81514,-42.80992,-42.93451,-43.22371,-43.54999,-43.65854,-43.36675,-42.78321,-42.34521,-42.57937,-43.71741,-45.42708,-46.90187,-47.31229,-46.36432,-44.59697,-43.1767,-43.26729,-45.33546,-48.82332,-52.41063,-54.72263,-55.05644,-53.70464,-51.69143,-50.12336,-49.57863,-49.89909,-50.47553,-50.76947,-50.69547,-50.59431,-50.84805,-51.44402,-51.83495,-51.23748,-49.19101,-46.00108,-42.74106,-40.76258,-40.97915,-43.34754,-46.8596,-50.05062,-51.72937,-51.522,-49.94128,-47.99445,-46.59421,-46.12034,-46.35012,-46.72905,-46.7659,-46.29541,-45.473,-44.56878,-43.73122,-42.90311,-41.93513,-40.80359,-39.75917,-39.27996,-39.82555,-41.52824,-44.00357,-46.42768,-47.87527,-47.77681,-46.26463,-44.20684,-42.86464,-43.29747,-45.78374,-49.56236,-53.07008,-54.62827,-53.28075,-49.36789,-44.50005,-40.87165,-40.1781,-42.65372,-46.72129,-49.49376,-47.94292,-40.22595,-26.5489,-9.176567,8.415036,22.84012,31.96792,35.47956,34.65707,31.61197,28.37338,26.24119,25.60093,26.1509,27.31542,28.60438,29.77278,30.78722,31.6915,32.4861,33.08872,33.37809,33.27967,32.83978,32.24427,31.77051,31.6797,32.09465,32.91948,33.85594,34.51687,34.59831,34.01341,32.91214,31.56791,30.20808,28.89931,27.5773,26.20557,24.94291,24.16649,24.28991,25.45489,27.2997,29.00264,29.64111,28.70215,26.4515,23.90653,22.38422,22.84496,25.3978,29.24934,33.1248,35.91651,37.18677,37.26458,36.9251,36.89118,37.47038,38.50568,39.60325,40.41159,40.76335,40.62298,39.96561,38.75976,37.10925,35.42867,34.4403,34.87108,36.96267,40.11575,42.97208,44.01321,42.38911,38.48616,33.8368,30.35127,29.28511,30.55763,32.85375,34.46287,34.34462,32.74963,31.00481,30.60186,32.18139,35.07975,37.73414,38.68614,37.52831,35.18106,33.32044,33.33648,35.49553,38.8291,41.7841,43.17334,42.79208,41.33091,39.71287,38.373,37.01842,35.02735,32.17784,29.12391,27.21227,27.68536,30.78619,35.38591,39.44985,41.10913,39.70137,36.12832,32.31784,30.11445,30.29069,32.25382,34.57055,35.91998,35.84036,34.82333,33.78174,33.30292,33.23497,32.85788,31.48741,29.05305,26.24052,24.1021,23.4126,24.20553,25.78597,27.17543,27.67035,27.15219,25.99801,24.73522,23.72588,23.09738,22.88804,23.1944,24.11422,25.48332,26.64772,26.55911,24.2935,19.74891,14.05762,9.324395,7.691107,10.17387,15.95886,22.63785,27.34572,28.21218,25.31091,20.55559,16.59056,15.31931,16.915,19.86468,21.98038,21.74396,19.17913,15.76263,13.47439,13.59004,15.93938,19.04046,20.98153,20.50105,17.64422,13.65732,10.24858,8.671157,9.142445,10.86075,12.53516,13.08441,12.12609,10.04642,7.687987,5.875974,5.034916,5.065742,5.499753,5.816124,5.756371,5.471853,5.42931,6.104228,7.612669,9.495544,10.83016,10.68909,8.756731,5.746897,3.288885,3.187864,6.330963,11.80556,16.8045,17.56525,11.03295,-3.525348,-23.82028,-45.22603,-62.63126,-72.58195,-74.65751,-71.37411,-66.70895,-64.04925,-64.67099,-67.5143,-70.26742,-71.02148,-69.48708,-67.07314,-65.85494,-67.14236,-70.57536,-74.30829,-76.15566,-74.95433,-71.28101,-67.08382,-64.48009,-64.48954,-66.50036,-68.78167,-69.67793,-68.70168,-66.81309,-65.71771,-66.66157,-69.51655,-72.77997,-74.48672,-73.47182,-70.15353,-66.34003,-64.16223,-64.80577,-67.8317,-71.49935,-73.86882,-73.98095,-72.37419,-70.65362,-70.41772,-72.24665,-75.38372,-78.26139,-79.49097,-78.65773,-76.44531,-74.07468,-72.50249,-71.92223,-71.86801,-71.75352,-71.39389,-71.10017,-71.29197,-71.96718,-72.49946,-71.98485,-69.95164,-66.90054,-64.22781,-63.47523,-65.35565,-69.21593,-73.34648,-76.00324,-76.48425,-75.52875,-74.73428,-75.35191,-77.29632,-79.09869,-78.92656,-76.01996,-71.53753,-68.09654,-68.12865,-72.01392,-77.21832,-79.16997,-73.55127,-58.78909,-37.2833,-14.58579,3.108743,11.8287,11.50907,5.652892,-0.72995,-3.677537,-1.93368,3.041877,8.459809,11.98486,12.85047,11.80923,10.20793,8.968658,8.155363,7.302076,6.104769,4.877602,4.411965,5.36332,7.647495,10.31351,12.01203,11.74919,9.43404,5.880714,2.306627,-0.3199347,-1.680568,-2.0764,-2.097266,-2.271012,-2.90996,-4.143879,-5.979052,-8.255171,-10.53546,-12.12053,-12.32234,-10.914,-8.446774,-6.112474,-5.097418,-5.782419,-7.348148,-8.177516,-6.931354,-3.647251,-0.07064326,1.168412,-1.831551,-8.8105,-17.08173,-22.76406,-22.88905,-17.12575,-8.019363,0.4832114,5.354689,6.210684,5.339084,6.004089,10.13707,16.94549,23.40388,26.3538,24.84014,21.10109,19.44696,23.63675,34.36636,48.48185,60.48675,65.48886,61.83573,51.89788,40.6008,32.68882,30.3887,32.77954,37.01828,40.41184,41.91953,42.21572,42.5198,43.23909,43.50324,41.93085,37.99524,32.88601,29.10789,28.98606,33.08573,39.68508,45.75259,48.84301,48.65042,47.15015,47.19102,50.46453,56.22609,61.66728,63.73241,61.17998,55.50146,50.04297,47.87396,49.79935,53.83308,56.50006,55.12863,49.62551,42.56749,37.53865,36.80185,39.8304,43.6627,44.8601,41.7874,35.73573,30.14893,28.44337,31.80606,38.37293,44.30524,46.08689,42.61472,35.8112,29.42176,26.77729,28.89738,34.03911,38.87916,40.526,38.12598,33.15847,28.36379,26.0711,26.9648,29.974,33.2082,35.24103,35.89681,36.10201,36.98994,38.93066,41.15248,42.21059,40.98427,37.54514,33.30826,30.33634,30.18344,32.96294,37.20472,40.61374,41.3201,38.92383,34.73952,31.09483,30.06455,32.33684,36.84573,41.37283,43.77943,43.17727,40.37492,37.34415,36.02352,37.14991,39.80797,41.96906,41.71522,38.42633,33.22786,28.42696,26.25764,27.66842,31.84676,36.73046,40.16433,40.99557,39.48108,36.84726,34.3746,32.65067,31.46009,30.2961,29.03001,28.16017,28.39027,29.80541,31.27706,30.65034,25.76309,15.76472,1.905511,-12.77674,-24.79744,-31.8653,-33.87427,-32.66866,-30.75545,-29.77938,-29.71802,-29.26474,-27.09803,-23.13926,-18.92303,-16.78193,-18.3557,-23.4044,-29.75106,-34.4598,-35.55647,-33.20828,-29.59663,-27.50925,-28.49923,-31.74129,-34.32039,-32.82043,-25.2966,-12.48303,2.459508,15.49539,23.66628,26.35861,25.25107,23.09135,22.09615,22.90188,24.58461,25.58753,24.89277,22.69666,20.2355,18.95596,19.60847,21.83027,24.43526,26.17346,26.451,25.5715,24.38099,23.5875,23.20973,22.52093,20.53027,16.71546,11.54851,6.471513,3.277399,3.191047,6.131448,10.56583,14.08611,14.47581,10.7693,3.789166,-4.13313,-10.1546,-12.19421,-9.87549,-4.67508,0.817754,4.185658,4.385643,2.257393,0.06493124,0.2761661,4.192442,11.13369,18.62217,23.50601,23.47308,18.19829,9.536295,0.6597536,-5.429182,-7.260661,-5.459562,-2.247343,-0.1747523,-0.7559457,-3.713892,-7.200511,-8.844089,-7.049139,-1.858747,5.062679,11.28928,14.86976,15.28101,13.61377,11.91686,12.06476,14.75365,19.13214,23.2399,24.997,23.2304,18.2267,11.57874,5.446967,1.638348,0.9456902,3.01025,6.691854,10.68606,14.06717,16.529,18.28776,19.78046,21.35115,23.07414,24.75977,26.09317,26.81768,26.8745,26.44714,25.88832,25.5537,25.59422,25.81124,25.67006,24.52675,21.99626,18.29274,14.31525,11.35513,10.50068,12.0216,15.0983,18.11526,19.4442,18.33016,15.37707,12.30707,11.06385,12.72379,16.83412,21.58254,24.74357,24.8801,22.11768,18.03543,14.7412,13.67029,14.82088,16.86728,18.06296,17.36649,15.09729,12.72462,11.93074,13.53502,16.93887,20.42579,22.11929,21.006,17.41508,12.69359,8.328499,5.089064,2.727217,0.3933694,-2.543914,-5.841621,-8.356641,-8.707469,-6.23077,-1.623807,3.172403,5.863741,5.009374,0.8739173,-4.584144,-8.643328,-9.227306,-6.069718,-1.016522,2.727003,2.070292,-4.477715,-16.03693,-29.6867,-41.74688,-49.39907,-51.86404,-50.58126,-48.32648,-47.73437,-49.99332,-54.36327,-58.74207,-60.94191,-59.96352,-56.5745,-52.88499,-51.17633,-52.64473,-56.76089,-61.58208,-64.81667,-65.02042,-62.27021,-57.97992,-54.03481,-51.79275,-51.52002,-52.52029,-53.77501,-54.62997,-55.08508,-55.57017,-56.4291,-57.5295,-58.28859,-58.09314,-56.80359,-54.97349,-53.60102,-53.56385,-55.10062,-57.67432,-60.30193,-62.13601,-62.91682,-63.03342,-63.18016,-63.87074,-65.12659,-66.52556,-67.53818,-67.88451,-67.68208,-67.30238,-67.07858,-67.09096,-67.1787,-67.13808,-66.92762,-66.71296,-66.70959,-66.96646,-67.27151,-67.28561,-66.81773,-66.04565,-65.49371,-65.75676,-67.13514,-69.42176,-71.99382,-74.14233,-75.44518,-75.94032,-76.02669,-76.18968,-76.75529,-77.81474,-79.30149,-81.08111,-82.9144,-84.31789,-84.46517,-82.34563,-77.20753,-69.10201,-59.17169,-49.41754,-41.95462,-38.10789,-37.83868,-39.84717,-42.30511,-43.79892,-43.94108,-43.32055,-42.883,-43.18491,-44.02148,-44.64347,-44.37387,-43.15823,-41.6423,-40.72094,-40.87659,-41.79526,-42.55202,-42.26107,-40.74614,-38.74755,-37.49696,-37.92365,-40.0221,-42.82663,-45.02764,-45.83936,-45.52645,-45.22571,-46.15966,-48.74546,-52.19589,-54.89704,-55.34522,-53.07092,-48.97666,-44.88428,-42.58034,-42.92991,-45.56354,-49.24994,-52.65929,-55.01874,-56.30347,-56.94395,-57.34698,-57.58496,-57.44304,-56.71324,-55.46187,-54.05324,-52.92566,-52.31511,-52.17177,-52.32861,-52.77479,-53.77827,-55.69622,-58.57278,-61.81763,-64.26559,-64.68166,-62.46888,-58.1507,-53.29865,-49.89213,-49.43436,-52.30811,-57.69743,-64.06496,-69.86414,-74.07357,-76.32158,-76.6664,-75.31827,-72.544,-68.81362,-64.96773,-62.15108,-61.40075,-63.07339,-66.48013,-70.03658,-71.94912,-71.09879,-67.63134,-62.89813,-58.77417,-56.73648,-57.21894,-59.56894,-62.55761,-65.07042,-66.55308,-67.00548,-66.65286,-65.622,-63.912,-61.64685,-59.36304,-57.98976,-58.4125,-60.82779,-64.32961,-67.08299,-67.08694,-63.13189,-55.3727,-45.14356,-34.10615,-23.26239,-12.47221,-0.8138991,12.44309,26.91301,40.90982,52.2444,59.59932,63.63835,67.07848,73.53979,85.72219,103.9438,125.8941,147.8085,166.4206,180.5871,191.651,202.3672,215.0408,230.0011,245.3267,257.9453,265.4604,267.5642,266.2615,264.7754,265.8905,270.7137,278.5584,287.9049,297.6972,308.0515,319.8951,333.7624,348.6021,361.4744,368.4872,366.5239,354.8128,335.4121,312.3004,289.5916,269.8409,253.3655,238.8115,224.5294,209.8341,195.4319,182.8344,173.2256,166.5778,161.5636,156.3111,149.4938,141.0876,132.3482,125.0733,120.6063,119.1483,119.7035,120.5849,120.1476,117.3611,112.0373,104.7475,96.59068,88.9376,83.16705,80.3567,80.96693,84.63345,90.24919,96.36828,101.7704,105.8727,108.7266,110.6017,111.4638,110.7688,107.8202,102.5158,95.97758,90.49402,88.59351,91.63348,98.70627,106.6105,111.0871,108.7744,98.8479,83.43051,66.51367,51.98468,41.86226,35.70429,31.43315,26.98158,21.69842,16.66588,13.79834,14.37608,17.99769,22.63638,25.75708,25.7626,22.8549,18.78246,15.67506,14.72347,15.53161,16.5009,15.94078,13.15939,8.848841,4.571566,1.73205,0.7239064,0.7709497,0.5053399,-1.147699,-4.363637,-8.440553,-12.36077,-15.4648,-17.78931,-19.89379,-22.3676,-25.40466,-28.73666,-31.9349,-34.80767,-37.57694,-40.6889,-44.40519,-48.48518,-52.21665,-54.80307,-55.85982,-55.69282,-55.16085,-55.21463,-56.38231,-58.52655,-60.98741,-62.99503,-64.08717,-64.29095,-64.0158,-63.78271,-63.98836,-64.82722,-66.36049,-68.59934,-71.50336,-74.89319,-78.3745,-81.38656,-83.40537,-84.19256,-83.93251,-83.1488,-82.43372,-82.15423,-82.31765,-82.67523,-82.98294,-83.23466,-83.70292,-84.74992,-86.53608,-88.81989,-90.99526,-92.35328,-92.42478,-91.21115,-89.16592,-86.96474,-85.18474,-84.07915,-83.5435,-83.27843,-83.03389,-82.80441,-82.87609,-83.7011,-85.63902,-88.68903,-92.32331,-95.5345,-97.13098,-96.20412,-92.60177,-87.15968,-81.53159,-77.5955,-76.65337,-78.77674,-82.64816,-86.03751,-86.74069,-83.55628,-76.82906,-68.28925,-60.25891,-54.62969,-52.1068,-52.06736,-53.04301,-53.52275,-52.64737,-50.47202,-47.7436,-45.402,-44.1117,-44.04942,-44.98146,-46.48914,-48.16094,-49.64636,-50.61255,-50.71766,-49.68519,-47.48046,-44.45295,-41.3225,-38.94388,-37.94505,-38.41338,-39.81116,-41.19415,-41.63669,-40.66916,-38.50111,-35.9243,-33.93325,-33.24529,-33.94994,-35.4567,-36.76704,-36.94686,-35.56813,-32.90919,-29.81225,-27.26479,-25.92003,-25.79714,-26.31873,-26.65672,-26.19004,-24.81172,-22.91432,-21.07157,-19.6275,-18.4641,-17.11339,-15.15386,-12.63619,-10.23339,-8.971422,-9.652741,-12.30466,-16.00602,-19.23863,-20.61045,-19.55359,-16.60809,-13.1174,-10.50752,-9.551925,-10.02672,-10.92576,-11.08522,-9.841184,-7.359005,-4.485824,-2.255686,-1.359174,-1.862088,-3.280267,-4.900372,-6.124835,-6.652762,-6.454393,-5.629623,-4.289349,-2.538229,-0.5380203,1.43953,3.047516,3.990002,4.170476,3.769605,3.201329,2.961527,3.436156,4.74626,6.68257,8.751455,10.32505,10.86661,10.16449,8.47979,6.507975,5.114846,4.924027,5.951764,7.516206,8.539162,8.142673,6.231456,3.700262,2.069964,2.682853,5.880959,10.66334,15.08617,17.24632,16.32425,13.07882,9.472788,7.605472,8.546397,11.73897,15.3285,17.22684,16.30167,13.00317,9.084414,6.597162,6.760454,9.338943,12.84769,15.41146,15.74982,13.7423,10.31874,6.826885,4.297592,3.021214,2.60493,2.379643,1.853365,0.947386,-0.06919921,-0.830117,-1.118878,-0.9753344,-0.6412622,-0.425904,-0.5832638,-1.246899,-2.412572,-3.948196,-5.622492,-7.165182,-8.352515,-9.08282,-9.380116,-9.311879,-8.869906,-7.918164,-6.288279,-3.996251,-1.433283,0.6406134,1.377756,0.2872198,-2.418634,-5.824331,-8.715523,-10.18623,-10.08807,-9.036493,-7.960033,-7.48419,-7.565663,-7.632515,-7.13274,-6.094181,-5.249808,-5.567295,-7.454492,-10.19417,-12.09054,-11.37991,-7.435691,-1.527422,3.425455,4.102998,-1.577824,-13.32187,-28.46447,-43.14302,-54.00717,-59.56314,-60.49264,-58.89683,-57.00178,-56.09336,-56.20882,-56.60307,-56.54065,-55.86026,-54.98924,-54.50601,-54.64346,-55.10415,-55.30108,-54.80413,-53.65808,-52.33347,-51.36809,-50.97782,-50.91822,-50.70072,-49.98743,-48.87574,-47.86612,-47.53205,-48.13344,-49.44252,-50.90607,-52.01893,-52.64368,-53.05264,-53.66811,-54.68216,-55.83949,-56.53548,-56.18442,-54.62024,-52.27629,-50.01734,-48.72564,-48.87197,-50.31271,-52.40424,-54.35437,-55.60538,-56.05116,-56.00291,-55.95044,-56.25551,-56.93877,-57.6546,-57.86677,-57.14114,-55.41638,-53.10791,-50.96816,-49.73484,-49.72034,-50.57124,-51.36389,-51.03708,-48.9637,-45.34,-41.13285,-37.56329,-35.4001,-34.47891,-33.77635,-32.04169,-28.62829,-24.00209,-19.56623,-16.8451,-16.50049,-17.79395,-18.88253,-17.82886,-13.7446,-7.372478,-0.7112746,4.131093,6.19334,6.275411,6.529437,9.254424,15.59206,24.87374,34.97663,43.44863,48.73575,50.82699,51.01382,50.99238,51.88955,53.76685,55.81701,57.03394,56.89311,55.63682,54.05697,52.97643,52.78407,53.28382,53.89182,54.01067,53.33592,51.94307,50.15723,48.32393,46.6201,44.98845,43.19501,40.96259,38.12051,34.70936,31.00223,27.41035,24.29475,21.76466,19.57974,17.25467,14.34983,10.79761,7.051016,3.912318,2.096544,1.777316,2.423654,3.079476,2.954443,1.955934,0.7892439,0.5041574,1.739565,4.161384,6.504274,7.263323,5.632392,2.089418,-1.794432,-4.252085,-4.385871,-2.7178,-0.8527129,-0.4487044,-2.152605,-5.196333,-7.924256,-8.905622,-7.888432,-5.944971,-4.697317,-5.12888,-6.785573,-7.925383,-6.55828,-1.71975,5.8375,13.99354,20.44138,23.96656,25.05137,25.47347,27.2016,31.30574,37.51608,44.61751,51.3181,56.99597,61.89899,66.79065,72.40187,79.10291,86.95465,95.96543,106.2346,117.7885,130.249,142.6416,153.623,162.077,167.7391,171.3971,174.5284,178.5318,184.0388,190.6797,197.3392,202.6441,205.2854,204.0776,197.9338,186.1351,168.9907,148.5207,128.5423,113.6124,107.0702,109.0933,116.0354,121.7587,120.5552,110.1578,93.05866,75.18921,62.54345,57.65633,58.09455,57.98001,51.7355,37.78124,19.81967,4.769731,-1.501143,1.992103,10.46409,16.19104,13.51439,2.9874,-8.014829,-8.896103,8.214886,43.52927,88.5946,129.9583,155.6165,160.7927,149.9987,134.4161,126.1662,132.5862,153.3889,181.8116,208.6729,226.892,234.1518,232.7018,227.0006,220.8851,215.8733,211.2406,205.3777,197.3034,187.3673,176.8613,166.9926,157.9641,148.7543,137.6659,123.2838,105.3046,84.83007,64.03808,45.41169,30.87101,21.16662,15.78713,13.45368,13.02917,14.44298,19.11896,29.53579,47.94128,74.73215,107.3468,140.4143,167.3458,182.7887,184.7891,175.5526,160.3264,144.9122,133.0484,124.9984,118.0132,108.3201,93.47519,73.78245,52.07243,32.10087,16.58222,5.995914,-1.231465,-7.419796,-14.08403,-21.09133,-26.97096,-30.10485,-30.00544,-27.88838,-26.19133,-27.32191,-32.34189,-40.3084,-48.61901,-54.18246,-54.84795,-50.42916,-42.87994,-35.56852,-31.98096,-34.38523,-42.99945,-55.97883,-70.21732,-82.6217,-91.31717,-96.26659,-99.04185,-101.8842,-106.5257,-113.3811,-121.4972,-129.2568,-135.3962,-139.7347,-143.1857,-147.0638,-152.1193,-157.9427,-163.1198,-166.0923,-166.2187,-164.3764,-162.7155,-163.6432,-168.6049,-177.3193,-187.8932,-197.7206,-204.6912,-208.0406,-208.4741,-207.573,-206.8871,-207.2312,-208.4967,-209.9818,-210.95,-211.0699,-210.5165,-209.7488,-209.1693,-208.8801,-208.6625,-208.1543,-207.0966,-205.5035,-203.6831,-202.1165,-201.2522,-201.3157,-202.187,-203.4064,-204.3177,-204.3031,-203.0421,-200.6776,-197.7803,-195.1164,-193.2773,-192.3613,-191.8767,-190.9391,-188.7027,-184.8119,-179.6641,-174.3055,-169.9983,-167.6407,-167.2871,-168.0115,-168.1731,-166.0007,-160.2722,-150.8099,-138.6008,-125.4929,-113.5732,-104.4685,-98.84526,-96.28844,-95.59718,-95.34923,-94.47926,-92.61239,-90.04327,-87.40235,-85.23929,-83.72231,-82.60643,-81.42757,-79.77245,-77.45798,-74.53875,-71.19428,-67.61005,-63.9427,-60.35354,-57.03237,-54.11864,-51.54596,-48.93176,-45.66159,-41.21193,-35.56668,-29.4686,-24.25829,-21.30253,-21.25119,-23.54737,-26.51471,-28.05518,-26.63311,-22.02529,-15.43266,-8.882054,-4.238807,-2.356102,-2.788281,-4.160182,-4.930905,-4.109461,-1.571437,2.098239,6.04486,9.568644,12.33029,14.32704,15.76608,16.96302,18.29354,20.11951,22.62769,25.62216,28.43262,30.09538,29.81342,27.48592,23.9709,20.84659,19.71389,21.38765,25.44394,30.41768,34.57124,36.80967,37.21215,36.87959,37.21055,39.06162,42.29676,45.96867,48.96724,50.68592,51.28319,51.4152,51.67899,52.19036,52.59142,52.46368,51.8076,51.20229,51.47866,53.10277,55.7011,58.09418,58.89236,57.31181,53.70884,49.47299,46.31783,45.37085,46.6106,48.96527,50.99175,51.706,51.05993,49.81743,48.96003,49.03314,49.86213,50.78302,51.19963,51.05767,50.9121,51.52513,53.27195,55.75156,57.88514,58.48005,56.93677,53.67939,50.03306,47.58982,47.40117,49.42464,52.53134,55.0629,55.65255,53.88167,50.44902,46.7878,44.34515,43.90725,45.291,47.53704,49.45927,50.24987,49.8209,48.74653,47.87254,47.84695,48.8298,50.51373,52.38758,54.04846,55.35848,56.37906,57.17331,57.65692,57.63327,56.99754,55.95161,55.04057,54.93868,56.07433,58.33742,61.06686,63.35706,64.51624,64.4014,63.43021,62.27526,61.45339,61.07003,60.87334,60.539,59.95349,59.2836,58.78856,58.5462,58.33736,57.81667,56.86107,55.81528,55.3775,56.12422,57.94269,59.78479,59.9996,57.13778,50.79188,41.95219,32.62282,24.8804,19.90759,17.55746,16.67213,15.90538,14.51316,12.63016,10.93104,9.995727,9.880757,10.19914,10.61582,11.32538,13.07531,16.6373,22.06822,28.31441,33.53474,36.03511,35.25084,32.12698,28.59681,26.44473,26.26896,27.21655,27.67354,26.45731,23.71009,20.87366,19.73413,21.14043,24.25337,26.8473,26.51862,22.07346,14.24647,5.323673,-2.075389,-6.310917,-7.378773,-6.61424,-5.744931,-5.943348,-7.419847,-9.668407,-12.03388,-14.13517,-15.8843,-17.22183,-17.90947,-17.6388,-16.39849,-14.77014,-13.81148,-14.48976,-17.00537,-20.50233,-23.4603,-24.58562,-23.64613,-21.66289,-20.27599,-20.66946,-22.75912,-25.22424,-26.38954,-25.39401,-22.84843,-20.5041,-20.11836,-22.25089,-25.80901,-28.67377,-29.02407,-26.50844,-22.49757,-19.25078,-18.53891,-20.60941,-24.13881,-27.15577,-28.29211,-27.53617,-26.03381,-25.14543,-25.44728,-26.36634,-26.66063,-25.36063,-22.48787,-19.04742,-16.33173,-15.05446,-14.93508,-15.01403,-14.4373,-13.12246,-11.80874,-11.4603,-12.46599,-14.23741,-15.52266,-15.23302,-13.20363,-10.33249,-7.98569,-7.070113,-7.424413,-7.969044,-7.523942,-5.724947,-3.377369,-1.958176,-2.551473,-4.912527,-7.302709,-7.260893,-2.88969,6.085052,18.08691,30.39017,40.3255,46.3286,48.33881,47.48921,45.40059,43.5234,42.79571,43.61271,45.92527,49.31554,53.04303,56.18386,57.93015,57.96404,56.67226,55.00354,53.97864,54.11239,55.12109,56.12218,56.23051,55.17323,53.51878,52.3469,52.57822,54.38079,57.05043,59.42592,60.56208,60.23162,58.94967,57.55848,56.67876,56.38873,56.29711,55.88543,54.84933,53.20318,51.15854,48.94902,46.78084,44.93235,43.82532,43.87613,45.11992,46.85131,47.64411,45.92278,40.88084,33.20522,25.05436,19.13817,17.3156,19.51207,23.65941,26.78821,26.68695,23.14872,18.04745,14.16889,13.51239,16.1011,20.0279,22.68077,22.34743,19.17562,14.90071,11.56196,10.07537,9.612277,8.18202,4.024258,-3.10334,-11.57464,-18.70741,-22.21195,-21.38846,-17.38275,-12.42751,-8.619326,-6.986145,-7.326192,-8.744134,-10.39095,-11.8851,-13.22288,-14.41219,-15.2333,-15.38518,-14.88405,-14.33931,-14.76989,-16.98306,-20.9133,-25.42049,-28.78776,-29.67212,-27.91952,-24.68793,-21.75847,-20.44678,-20.81765,-21.7141,-21.5935,-19.61377,-16.25025,-13.03175,-11.56068,-12.47157,-15.01148,-17.52121,-18.4933,-17.51236,-15.46556,-13.90722,-14.01108,-15.81445,-18.2357,-19.83419,-19.78293,-18.40166,-16.89825,-16.50106,-17.56507,-19.24709,-19.96993,-18.39249,-14.27279,-8.702365,-3.564374,-0.5545708,-0.3277646,-2.237321,-4.757771,-6.299562,-5.948573,-3.766635,-0.5836032,2.511615,4.666542,5.517346,5.159912,3.964796,2.391616,0.8910664,-0.1175532,-0.2701183,0.671765,2.716552,5.569015,8.655954,11.26374,12.74619,12.73051,11.24919,8.752103,5.989521,3.788838,2.778573,3.149641,4.558421,6.241679,7.334304,7.268003,6.064225,4.350381,3.052245,2.897144,3.981255,5.646344,6.764314,6.302012,3.876052,-0.0009000899,-4.128066,-7.176519,-8.316484,-7.588631,-5.8454,-4.303896,-3.961484,-5.164435,-7.526828,-10.19954,-12.31558,-13.37789,-13.40703,-12.82087,-12.15391,-11.78955,-11.84094,-12.21347,-12.76492,-13.4383,-14.26779,-15.26554,-16.29119,-17.03652,-17.19627,-16.75992,-16.24275,-16.65494,-19.12403,-24.30016,-31.84216,-40.32016,-47.68235,-52.1246,-52.95193,-50.94587,-48.00493,-46.19838,-46.73676,-49.42193,-52.88312,-55.45665,-56.16716,-55.22584,-53.75779,-52.95796,-53.24349,-53.97144,-53.91698,-52.19827,-49.01612,-45.68563,-43.88494,-44.57535,-47.29417,-50.30796,-51.57463,-49.94437,-45.86108,-41.12094,-37.85067,-37.32111,-39.32489,-42.4449,-44.99299,-45.98098,-45.53255,-44.54587,-43.92479,-43.9497,-44.20689,-44.05851,-43.25286,-42.17791,-41.56962,-41.8965,-42.91115,-43.74379,-43.51263,-42.02464,-40.03735,-38.83261,-39.34275,-41.41526,-43.75016,-44.61832,-42.93437,-39.00096,-34.41704,-31.18125,-30.53679,-32.27377,-34.91718,-36.66193,-36.4489,-34.52329,-32.16763,-30.83244,-31.25514,-33.10184,-35.29665,-36.75175,-36.99716,-36.33993,-35.52736,-35.22088,-35.63424,-36.52656,-37.44661,-37.99393,-37.91436,-37.04872,-35.30161,-32.74213,-29.79764,-27.31176,-26.29173,-27.37732,-30.33934,-33.98513,-36.65248,-37.07909,-35.13177,-31.91653,-29.14029,-28.09898,-28.9398,-30.68096,-31.97299,-32.07071,-31.31882,-30.77806,-31.23302,-32.29724,-32.32333,-29.30503,-22.25938,-12.17889,-1.840788,5.527927,7.983202,5.934838,1.872719,-1.110501,-1.10379,1.615394,4.94097,6.387317,4.688711,0.5515916,-3.852115,-6.251223,-5.592892,-2.504102,1.295614,4.138411,5.315578,5.206179,4.678535,4.305355,3.995989,3.267544,1.86307,0.1585936,-1.001473,-0.9367596,0.273683,1.740145,2.370576,1.7271,0.4899932,0.1187294,1.866367,5.79995,10.53752,13.95504,14.46669,12.04852,8.31813,5.577706,5.422853,7.799753,11.10266,13.21361,12.77879,9.897593,5.837532,2.071236,-0.632557,-2.430527,-3.859916,-5.039445,-5.330345,-3.806503,-0.2397338,4.17473,7.027331,5.914402,-0.01361918,-9.184919,-18.10175,-23.03843,-21.99548,-15.74211,-7.298778,-0.1616126,3.656488,4.593666,4.982112,7.38291,12.90104,20.52588,27.84476,32.60312,34.07854,33.42868,32.8681,34.28551,38.19966,43.65162,48.97396,52.80791,54.68134,54.8361,53.58664,50.80828,46.02164,39.04006,30.68601,22.95828,18.37476,18.78007,24.30844,33.14797,42.3082,48.98818,51.80912,51.26637,49.22873,47.84447,48.48322,51.23059,55.08315,58.59446,60.55772,60.41905,58.34499,55.06173,51.62592,49.17964,48.67269,50.53591,54.41521,59.15005,63.13581,65.00697,64.33595,61.93846,59.54009,58.89929,60.82771,64.66846,68.56846,70.44519,69.13998,65.10282,60.2057,56.75867,56.25678,58.55125,61.90035,63.8801,62.65636,57.92424,51.02037,44.15996,39.23569,36.84351,36.06132,35.0941,32.41025,27.72733,22.28156,18.20924,17.35984,20.18952,25.36307,30.32333,32.55733,30.90041,26.17568,20.80953,17.61915,18.40902,23.12068,29.96258,36.4006,40.43124,41.43581,40.20363,38.21419,36.69114,36.00785,35.75272,35.29879,34.41525,33.47157,33.11674,33.69309,34.85942,35.72683,35.4475,33.85096,31.6614,30.09962,30.10423,31.67879,33.81504,35.06439,34.40456,31.83911,28.35837,25.30172,23.56654,23.18108,23.49282,23.78222,23.82825,24.0065,24.87428,26.58065,28.59514,29.99618,30.14086,29.20094,28.10188,27.81233,28.43012,28.73759,26.65226,20.43193,9.934673,-2.880487,-14.63242,-22.07715,-23.6943,-20.39363,-14.94417,-10.48306,-8.977875,-10.49926,-13.61835,-16.55369,-18.28232,-18.95321,-19.45898,-20.58559,-22.38201,-24.16725,-25.10397,-24.86711,-23.91033,-23.14797,-23.30822,-24.43091,-25.8564,-26.68355,-26.34637,-24.90141,-22.87572,-20.853,-19.16146,-17.90027,-17.22383,-17.56151,-19.47663,-23.16916,-27.98131,-32.35717,-34.4682,-33.23013,-29.08558,-23.97569,-20.38904,-19.98738,-22.63551,-26.4816,-29.08684,-28.93822,-26.40133,-23.495,-22.60871,-24.96474,-29.79198,-34.73777,-37.26241,-36.13855,-32.13202,-27.46797,-24.46143,-24.18854,-26.00648,-28.1532,-28.97069,-27.93395,-25.86731,-24.28818,-24.38614,-26.32156,-29.24776,-31.94708,-33.5821,-34.05792,-33.82851,-33.39711,-32.94315,-32.34726,-31.53426,-30.77489,-30.63196,-31.52826,-33.26598,-34.92641,-35.33566,-33.85389,-30.94601,-28.0649,-26.79996,-27.77832,-30.03106,-31.31824,-29.32671,-23.07112,-13.65063,-3.858886,3.185677,5.62548,3.766212,-0.1995585,-3.450835,-4.031253,-1.733251,2.0591,5.3683,6.803954,6.229827,4.607775,3.229273,2.879662,3.447751,4.148502,4.130847,3.040181,1.196049,-0.6679282,-1.873924,-2.165215,-1.767912,-1.171606,-0.8117908,-0.8518519,-1.146542,-1.349608,-1.057926,0.0694524,2.215884,5.310571,8.946822,12.39312,14.77666,15.42689,14.23664,11.81542,9.279217,7.722505,7.624785,8.545266,9.324524,8.730821,6.209664,2.294115,-1.595451,-3.887872,-3.736791,-1.531959,1.268491,2.912163,2.316536,-0.3204774,-3.606025,-5.694863,-5.282248,-2.305267,2.016144,5.80358,7.460555,6.422147,3.347609,-0.3012975,-3.026821,-3.984436,-3.260848,-1.659357,-0.1790031,0.4958218,0.2359611,-0.6322157,-1.637359,-2.469424,-3.11646,-3.799163,-4.799232,-6.306477,-8.353691,-10.82009,-13.43967,-15.78575,-17.27902,-17.30368,-15.464,-11.89207,-7.403975,-3.326963,-0.9716173,-0.9723291,-2.870126,-5.247378,-6.446589,-5.53077,-2.935498,-0.3686439,0.08585069,-2.792513,-8.494502,-14.85468,-19.10761,-19.36961,-15.68369,-9.972217,-4.880513,-2.175263,-1.682339,-1.457345,0.8545743,6.272771,13.45008,19.08221,19.62907,13.40694,1.821234,-11.03807,-20.2889,-22.62195,-17.85133,-8.821688,0.2139095,5.793117,6.806909,4.64944,2.034245,1.285855,3.11879,6.507802,9.554235,10.69039,9.478579,6.62957,3.396255,0.8427749,-0.5509928,-0.8184264,-0.1898691,1.133737,2.943076,4.832559,6.131914,6.144351,4.595211,1.972605,-0.5518574,-1.67201,-0.665284,2.172993,5.692891,8.572704,10.09242,10.50081,10.73341,11.68498,13.53728,15.60433,16.8024,16.41737,14.63252,12.45327,11.07125,11.1094,12.26222,13.56583,14.09214,13.56852,12.48843,11.65789,11.52971,11.84217,11.84627,10.96933,9.406378,8.156498,8.39551,10.577,13.90359,16.60908,16.96864,14.4248,10.08189,6.182266,4.822979,6.691189,10.6207,14.27835,15.5748,13.92674,10.5757,7.774425,7.357828,9.612586,13.1507,15.84006,16.16617,14.1366,11.15747,9.00661,8.612737,9.48294,10.16084,9.40395,7.257674,5.242583,5.445418,9.024246,15.0807,20.6829,22.15734,16.9933,5.306681,-9.987276,-24.42865,-34.04581,-37.10533,-34.68861,-29.87453,-26.0375,-25.19954,-27.26317,-30.42239,-32.39962,-31.77509,-28.6951,-24.66871,-21.65166,-20.98053,-22.72414,-25.74933,-28.40186,-29.39473,-28.43965,-26.32499,-24.44353,-24.04313,-25.59102,-28.55282,-31.67528,-33.60728,-33.54304,-31.57604,-28.6074,-25.87821,-24.37881,-24.43113,-25.63973,-27.20124,-28.37452,-28.84782,-28.81073,-28.72261,-28.94584,-29.48083,-29.96282,-29.91528,-29.09103,-27.68613,-26.28733,-25.58957,-26.04825,-27.6782,-30.09384,-32.74685,-35.18866,-37.188,-38.65628,-39.46799,-39.35511,-38.00185,-35.31864,-31.71627,-28.16199,-25.89088,-25.86477,-28.24766,-32.21092,-36.23269,-38.7894,-39.0942,-37.48531,-35.22543,-33.79899,-34.07855,-35.8269,-37.82902,-38.60318,-37.2995,-34.27101,-30.96923,-29.18462,-30.03034,-33.2258,-37.086,-39.24738,-37.75888,-31.97927,-22.84098,-12.3853,-2.859473,4.138174,8.071948,9.335167,8.77422,7.216679,5.260519,3.344279,1.910161,1.434898,2.243045,4.233158,6.75747,8.823558,9.565872,8.728345,6.842208,4.956604,4.048511,4.462443,5.720817,6.828784,6.882833,5.605401,3.47148,1.359915,-0.03663576,-0.6560116,-1.079868,-2.117664,-4.24252,-7.248968,-10.35395,-12.66801,-13.72293,-13.72121,-13.35364,-13.32822,-13.92271,-14.8507,-15.50958,-15.424,-14.58339,-13.45597,-12.68183,-12.66401,-13.32456,-14.17733,-14.65187,-14.45215,-13.72709,-12.96559,-12.70723,-13.25754,-14.56585,-16.29777,-18.02221,-19.38436,-20.19417,-20.43234,-20.22835,-19.83877,-19.61134,-19.89198,-20.87765,-22.47598,-24.28377,-25.73804,-26.39637,-26.19038,-25.49189,-24.92943,-25.05424,-26.06046,-27.73395,-29.64672,-31.44904,-33.02988,-34.42657,-35.55322,-35.9783,-34.97906,-31.91021,-26.68208,-20.01654,-13.23675,-7.642116,-3.79926,-1.187809,1.539561,5.79177,12.18945,20.13545,28.06652,34.25103,37.6747,38.52591,38.03959,37.85343,39.29211,42.97057,48.85559,56.59692,65.79882,76.00964,86.49241,96.06596,103.2962,107.0807,107.324,105.2416,102.9783,102.6127,105.0316,109.3225,113.0959,113.6477,109.3899,100.774,90.19687,80.89468,75.40076,74.3577,76.30933,78.54024,78.51402,75.136,69.20289,62.84514,58.29506,56.64906,57.27024,58.11927,56.80742,51.82077,43.27491,32.85194,22.98012,15.71097,11.87287,10.89842,11.34529,11.75013,11.31207,10.03896,8.351423,6.480289,4.119785,0.6213619,-4.372662,-10.28716,-15.46168,-17.72004,-15.43332,-8.49301,1.413151,11.46178,18.98878,22.72293,23.26944,22.58398,22.76882,24.90929,28.62323,32.52859,35.26334,36.36766,36.46731,36.69407,37.78876,39.53725,40.93639,40.96144,39.385,37.03819,35.30818,35.1936,36.57872,38.25449,38.70995,37.17467,34.19465,31.31343,30.03832,30.78261,32.5144,33.40733,32.10268,28.75123,25.11198,23.56769,25.63276,30.88937,37.04737,41.13573,41.1204,36.98497,30.63736,24.74374,21.22713,20.33788,20.79522,20.81318,19.28991,16.40654,13.32279,11.2635,10.6602,10.91398,10.88495,9.718066,7.415953,4.787193,2.847801,2.128672,2.372388,2.804178,2.744425,2.098417,1.36607,1.168879,1.650751,2.205815,1.769592,-0.4836945,-4.480969,-9.074213,-12.50444,-13.27042,-10.92516,-6.366879,-1.48259,1.656214,1.632102,-1.81435,-7.782227,-14.62399,-20.5455,-24.15187,-24.7938,-22.65756,-18.62586,-13.95759,-9.875688,-7.189011,-6.085939,-6.184825,-6.819542,-7.405425,-7.688187,-7.740457,-7.738766,-7.692083,-7.334478,-6.275742,-4.311211,-1.668623,1.014752,3.008497,3.917356,3.940999,3.778355,4.217727,5.662716,7.89015,10.19108,11.79208,12.2808,11.76605,10.69495,9.484254,8.243018,6.782347,4.893176,2.676535,0.6640919,-0.3843409,0.1011974,2.131212,5.071469,7.903124,9.674653,9.894262,8.670481,6.574179,4.348635,2.635496,1.81431,1.953155,2.81357,3.887689,4.502538,4.038495,2.227472,-0.6116398,-3.586843,-5.582119,-5.824723,-4.368024,-2.174668,-0.6744761,-0.9883595,-3.23548,-6.33774,-8.470694,-7.942627,-4.031603,2.661934,10.51069,17.60833,22.55101,24.87812,25.03611,24.0046,22.84863,22.40466,23.13725,25.08809,27.85051,30.59765,32.27147,31.9674,29.3972,25.15679,20.56604,17.06823,15.48026,15.54176,16.08086,15.74464,13.86547,10.9046,8.158109,6.885094,7.41621,8.848269,9.567901,8.294878,4.968529,0.8649454,-2.181704,-2.992246,-1.913968,-0.7616367,-1.816327,-6.466617,-14.3194,-23.32725,-30.86714,-35.14358,-36.1104,-35.4283,-35.53785,-38.41402,-44.6736,-53.44102,-62.91794,-71.27652,-77.41666,-81.31325,-83.90632,-86.65697,-90.93989,-97.417,-105.5807,-113.6659,-119.1066,-119.4865,-113.6335,-102.2836,-87.81007,-72.99332,-59.39264,-46.28055,-30.92104,-10.26641,16.75514,47.69852,76.88296,97.60418,105.234,99.54771,84.94083,68.33131,55.85844,50.1468,49.59423,49.9409,47.10701,39.62091,29.31722,20.07898,15.5245,17.0537,23.29501,31.0675,37.09995,39.45177,37.96093,33.74124,28.29408,22.85193,18.20748,14.85003,13.05607,12.76033,13.35941,13.76168,12.83496,10.05098,5.876565,1.559451,-1.63151,-3.226026,-3.841798,-4.69129,-6.62053,-9.373266,-11.66506,-12.09447,-10.28813,-7.443401,-5.789628,-7.232352,-12.05506,-18.58437,-24.12087,-26.58483,-25.81185,-23.63455,-22.67721,-24.65802,-29.32017,-34.69222,-38.46622,-39.5314,-38.61793,-37.64347,-38.2725,-40.74351,-43.80295,-45.77528,-45.96425,-45.32963,-45.90617,-49.34351,-55.61978,-62.89,-68.64324,-71.39518,-71.72605,-71.89612,-74.24931,-79.51096,-86.16982,-91.43733,-93.15524,-91.3519,-88.33521,-87.21632,-89.82755,-95.46668,-101.3437,-104.4672,-103.7134,-100.6574,-98.59357,-100.36,-106.4283,-114.5246,-121.0537,-123.3877,-121.5189,-118.015,-116.3358,-118.6316,-124.4609,-131.203,-135.8392,-136.9242,-135.5055,-134.4975,-136.9904,-144.5999,-156.7498,-171.1714,-185.0937,-196.3457,-203.8429,-207.48,-207.7925,-205.7599,-202.7553,-200.396,-200.0759,-202.2941,-206.2305,-210.0221,-211.7587,-210.6906,-207.8419,-205.5169,-205.9112,-209.661,-215.2984,-220.0559,-221.529,-219.1813,-214.6639,-210.772,-209.7029,-211.7664,-215.3853,-218.3,-219.1214,-218.1459,-216.9359,-217.0479,-218.8795,-221.4923,-223.4944,-224.2793,-224.6288,-226.1916,-230.1676,-236.2015,-242.3492,-246.2345,-246.6228,-244.3103,-241.6434,-240.9803,-243.138,-246.9206,-250.04,-250.7761,-249.1701,-246.9037,-245.961,-247.0658,-249.0453,-249.6008,-246.9359,-241.0265,-233.5945,-226.8078,-221.649,-217.1956,-211.3594,-202.5286,-190.8451,-178.071,-166.0762,-155.0611,-142.9632,-126.717,-104.6178,-78.14073,-51.72447,-30.36817,-16.47812,-8.070727,0.3103473,14.39147,36.70523,65.17923,94.78439,121.1848,143.9258,166.9332,195.8788,234.1495,280.1319,327.7184,369.6946,401.7362,424.1816,440.396,452.9582,460.6126,458.6354,442.98,415.7489,388.2048,378.4952,404.3569,474.1098,580.7695,702.6204,810.4227,878.0375,891.6324,853.5938,780.0446,693.7543,615.9,559.9312,529.2653,518.8071,519.0899,521.224,521.0901,521.2374,529.6307,555.2982,602.4052,665.4791,728.7774,771.0574,774.4689,733.3862,658.4241,572.8118,502.2723,463.4983,457.4463,471.2217,487.5612,496.2783,500.7577,515.3984,555.3727,624.8088,710.8338,787.3806,827.1467,815.0167,755.4791,670.074,586.5475,526.045,495.112,486.1837,484.8871,479.116,464.513,444.0665,423.457,406.0554,390.941,374.5703,354.1401,329.7625,304.0186,279.5775,257.1617,235.5315,213.407,191.5035,172.7116,159.9898,153.5101,149.5078,142.1502,127.4554,106.4059,84.67722,68.64814,60.26595,54.63922,42.76098,18.28138,-15.97017,-46.61147,-55.57055,-30.64594,25.30205,92.53152,142.0529,149.2267,106.0654,25.34875,-65.78355,-139.2041,-178.7539,-185.9447,-176.0354,-167.6407,-172.3598,-190.1769,-212.3316,-228.7948,-235.1174,-234.545,-234.805,-242.4021,-258.4753,-278.7058,-296.8007,-308.759,-314.9969,-319.1824,-325.0791,-333.8363,-343.6292,-351.594,-356.3348,-359.0666,-362.5634,-368.8572,-377.5257,-385.9238,-391.1839,-392.4817,-391.8564,-392.9007,-398.2741,-407.7799,-418.3992,-426.2521,-429.1104,-427.7226,-425.0983,-424.3607,-426.7309,-431.0432,-435.0177,-437.2224,-438.229,-440.0918,-444.5925,-451.5974,-458.8411,-463.3211,-463.3493,-459.7744,-455.4534,-453.3585,-454.6431,-458.0272,-460.9132,-461.3586,-459.4692,-457.1798,-456.639,-458.42,-460.9392,-461.5795,-458.6972,-453.0648,-447.5631,-445.2641,-447.2021,-451.4131,-454.0531,-451.8794,-444.4782,-434.6623,-426.7712,-423.9355,-426.168,-430.5214,-433.1488,-431.8587,-427.3742,-422.5138,-419.917,-419.9659,-420.3979,-417.9077,-410.6283,-399.7715,-389.2546,-383.4901,-384.7937,-392.009,-401.2312,-408.0573,-409.8745,-406.818,-400.992,-394.6981,-388.9936,-383.4593,-377.1212,-369.5677,-361.3704,-353.4406,-345.9478,-337.7837,-327.1191,-312.7793,-295.3815,-277.3189,-261.4004,-248.9772,-238.8571,-227.8407,-212.6312,-191.9113,-167.1863,-141.8013,-118.768,-98.85373,-80.242,-60.00638,-36.38601,-10.27479,15.17275,36.61987,52.92398,66.13531,80.28876,98.64258,121.1253,143.8012,160.9786,168.9754,169.3441,169.5382,180.2498,210.5042,262.8666,331.1644,401.9302,459.015,489.3278,487.3365,456.5434,407.6768,354.6063,309.75,280.6582,268.6966,269.8617,277.0515,282.8335,281.9126,272.7409,258.0671,244.3104,239.8217,252.2047,285.2499,336.4169,396.0092,448.955,479.2205,475.6274,436.859,373.155,303.3383,247.7722,220.052,221.247,239.7482,257.2856,258.5077,239.455,210.4272,191.3756,201.7433,249.7545,326.6697,409.2062,469.1905,485.8111,454.4778,388.1506,310.7587,246.354,209.4161,200.7527,210.1767,223.6708,230.8014,228.6613,221.03,214.1664,212.2207,214.9236,218.4423,218.3403,212.515,202.3676,191.7491,184.6185,182.925,185.869,190.7111,194.413,195.0687,192.4564,187.6384,182.089,176.9277,172.6003,169.001,165.781,162.6071,159.2414,155.4788,151.0242,145.4184,138.0672,128.4449,116.4264,102.6723,88.83615,77.33552,70.61073,70.06266,75.17215,83.34401,90.73669,93.82153,90.9144,82.87473,72.52425,63.07547,56.42751,52.29287,48.6427,43.16484,34.81674,24.51256,14.53301,7.047973,2.702348,0.1594439,-3.112934,-9.313411,-18.9868,-30.7157,-41.97873,-50.61548,-55.99361,-59.19896,-62.20716,-66.60703,-72.67746,-79.34394,-84.96427,-88.40865,-89.75481,-90.22195,-91.44097,-94.53305,-99.52807,-105.404,-110.658,-114.0403,-115.0717,-114.1315,-112.1462,-110.1227,-108.7483,-108.2442,-108.4668,-109.1701,-110.2645,-111.9308,-114.5304,-118.3496,-123.3112,-128.8455,-134.0244,-137.9456,-140.1603,-140.9089,-140.9712,-141.1956,-141.9628,-142.94,-143.3229,-142.4496,-140.41,-138.2159,-137.3442,-138.8693,-142.6846,-147.3448,-150.6823,-150.9026,-147.5426,-141.7308,-135.5764,-131.0602,-129.0415,-128.9345,-129.1911,-128.2517,-125.3795,-120.9684,-116.2077,-112.4035,-110.3431,-109.989,-110.5286,-110.6383,-108.8185,-103.7639,-94.77981,-82.21146,-67.65917,-53.73267,-43.21589,-37.90073,-37.65299,-40.30994,-42.63726,-41.95144,-37.54711,-31.07131,-25.54657,-23.54747,-25.58857,-29.71921,-32.61162,-31.5186,-25.92722,-17.88116,-10.77073,-7.319968,-8.001049,-10.83363,-12.65847,-11.06863,-5.805987,1.201933,7.117014,9.928278,9.571053,7.795509,6.967431,8.624398,12.68975,17.75627,22.1445,24.98691,26.65246,28.32023,31.06878,35.11822,39.68996,43.50861,45.56784,45.67511,44.50198,43.20581,42.90971,44.33261,47.66379,52.61265,58.50074,64.36851,69.14823,71.96823,72.52106,71.2888,69.43182,68.30392,68.81917,71.02338,74.14425,77.09241,79.10216,80.11202,80.6574,81.40953,82.70245,84.40589,86.18704,87.91335,89.8103,92.17077,94.80902,96.68566,96.12105,91.60706,82.79987,71.05202,59.0565,49.70479,44.76223,44.12006,46.04528,48.26056,49.1848,48.61518,47.5017,47.07351,47.93397,49.71858,51.4693,52.39042,52.4189,52.21789,52.63417,54.03596,56.01101,57.62487,58.04146,57.06887,55.26935,53.59801,52.84872,53.28232,54.63301,56.39456,58.11748,59.49856,60.26915,60.09193,58.65623,55.97205,52.61688,49.65186,48.12327,48.39459,49.76702,50.72815,49.77964,46.39015,41.45246,36.90648,34.69177,35.65352,39.07286,43.12003,45.94335,46.69979,45.87992,44.75681,44.3591,44.67635,44.63288,42.84877,38.67453,32.81895,27.14787,23.78054,24.03704,27.85414,33.95998,40.6213,46.45655,50.85492,53.8501,55.67875,56.39985,55.83973,53.84064,50.57623,46.66518,43.00227,40.42847,39.45646,40.19059,42.42082,45.76097,49.71822,53.7081,57.10005,59.37312,60.32333,60.17953,59.48921,58.79439,58.29206,57.72404,56.60358,54.64719,52.10277,49.71294,48.30093,48.24409,49.2037,50.32279,50.76233,50.20312,48.94721,47.54853,46.26456,44.77391,42.42629,38.8785,34.62884,30.96658,29.24707,29.89912,31.85895,32.91871,30.89974,24.98234,16.34435,7.645504,1.614663,-0.4163263,0.8673837,3.360974,4.942428,4.763639,3.605818,3.115089,4.478761,7.460829,10.45108,11.47891,9.496396,5.065644,0.00418479,-3.75295,-5.31306,-5.262322,-5.145705,-6.392842,-9.415366,-13.43338,-17.06011,-19.18878,-19.59211,-18.91599,-18.19135,-18.27085,-19.54751,-22.01856,-25.48692,-29.65298,-34.04795,-37.98959,-40.7782,-42.12977,-42.55764,-43.32465,-45.82317,-50.6743,-57.15792,-63.44866,-67.64537,-68.98621,-68.41436,-68.02636,-69.67694,-73.64591,-78.32195,-81.2289,-80.79343,-77.6628,-74.60669,-74.91425,-80.24709,-89.35106,-98.54672,-103.8019,-103.129,-97.80922,-91.64089,-88.69286,-90.95747,-97.36488,-104.7037,-109.7767,-111.3657,-110.7924,-110.8422,-113.8769,-120.4197,-129.0565,-137.5452,-144.236,-148.8132,-151.9665,-154.4284,-156.2354,-156.782,-155.5943,-153.1135,-150.797,-150.3629,-152.6997,-157.2323,-162.2016,-165.6275,-166.226,-163.6428,-157.9541,-149.0601,-136.6821,-121.1881,-104.6234,-90.9192,-84.64346,-88.67596,-102.1702,-120.2724,-136.1491,-144.3854,-143.7964,-137.8765,-132.5074,-132.3009,-137.8441,-145.615,-150.5923,-149.8073,-144.5084,-139.4817,-140.0237,-148.5811,-163.2971,-179.3456,-192.052,-199.6079,-203.5642,-206.8885,-211.1389,-214.9005,-214.6901,-207.7287,-194.5573,-179.4923,-168.4227,-165.3211,-169.8069,-177.4701,-182.7736,-182.6137,-178.1543,-173.737,-173.6871,-179.2413,-187.7159,-194.4208,-195.9254,-192.3912,-187.3499,-185.1946,-188.1663,-194.9602,-201.8554,-205.432,-204.8863,-202.3192,-200.8772,-202.246,-205.3769,-207.4,-205.9786,-201.2916,-196.0786,-193.6847,-195.5391,-199.9898,-203.4307,-202.9381,-198.4785,-192.9916,-190.2259,-191.8909,-196.2758,-199.4339,-198.1512,-192.4936,-185.9724,-183.0493,-185.744,-191.865,-196.3432,-194.8518,-187.1361,-177.5099,-171.9018,-173.4347,-179.7302,-184.132,-180.2885,-167.0125,-149.8389,-137.8511,-137.5911,-148.1431,-160.9431,-164.7605,-152.7686,-126.9802,-96.98351,-73.70204,-62.39569,-59.68785,-56.71461,-46.18105,-28.26117,-10.91762,-4.057158,-11.37022,-25.63689,-31.21645,-12.64194,36.04704,107.3836,184.696,251.8237,301.9238,339.5528,374.7562,413.4646,451.164,474.6914,471.4716,440.0822,394.7809,360.2136,358.9824,399.5236,471.8849,553.9319,623.9639,671.6766,700.7626,722.1652,743.2357,760.7307,762.5872,737.3117,684.2394,617.1964,558.442,526.3899,525.1359,542.7644,559.8669,562.8131,553.097,546.4454,561.9714,608.255,675.2586,737.5425,767.136,748.4258,686.3384,603.2021,526.6795,476.1461,455.1497,453.4908,456.2087,453.2242,443.795,434.0089,430.2151,433.4423,438.5491,438.0464,427.4761,408.3514,386.7805,369.0518,357.3763,348.7101,337.1747,318.1964,291.5271,261.287,233.3452,211.8754,197.21,185.8896,172.4425,151.7273,120.951,81.11636,37.93587,1.798773,-14.10177,1.925592,54.13518,134.3817,221.482,286.9013,305.5236,266.9154,181.2015,75.74092,-16.56827,-71.81163,-85.00941,-70.31223,-51.58457,-48.80276,-67.90821,-99.50261,-126.4996,-135.671,-126.0243,-109.171,-101.8397,-115.2831,-147.942,-185.5083,-208.1252,-200.5115,-159.5785,-95.93816,-29.21724,19.91616,37.10607,18.26731,-30.50839,-96.04288,-162.5089,-215.8915,-247.6295,-256.7857,-249.9764,-238.5969,-233.7893,-240.9517,-256.4206,-268.4433,-262.623,-229.534,-170.7091,-99.65508,-37.04327,-2.226968,-5.245267,-43.16587,-102.2777,-164.602,-215.1987,-246.7988,-260.1849,-261.1389,-256.3351,-250.4633,-245.5913,-242.159,-240.2708,-240.2419,-242.2573,-245.8089,-249.6322,-252.3316,-253.1992,-252.5788,-251.4412,-250.5205,-249.6777,-248.0028,-244.5702,-239.2501,-232.9332,-226.9916,-222.3845,-219.0886,-216.2878,-213.1555,-209.5884,-206.3086,-204.2104,-203.4867,-203.2358,-201.9465,-198.575,-193.4276,-188.1592,-184.774,-184.2712,-185.8743,-187.4297,-186.7585,-183.0727,-177.4957,-172.3,-169.4001,-169.0752,-169.8359,-169.4729,-166.5821,-161.512,-156.0913,-152.3599,-151.1686,-151.6256,-151.7289,-149.7177,-145.2162,-139.3857,-134.053,-130.4454,-128.4403,-126.8147,-124.2698,-120.4741,-116.3591,-113.4739,-112.8488,-114.1687,-115.8364,-115.8975,-113.2184,-108.177,-102.4503,-98.0797,-96.39794,-97.4303,-100.0138,-102.4302,-103.1223,-101.1333,-96.19644,-88.62016,-79.15157,-68.85632,-58.93181,-50.37803,-43.62674,-38.36529,-33.75758,-29.01847,-24.01083,-19.43974,-16.43647,-15.74287,-17.03541,-18.89943,-19.56516,-17.98069,-14.51893,-10.79123,-8.616888,-8.781219,-10.40726,-11.40647,-9.784995,-4.990734,1.571985,7.237092,9.591732,7.894562,3.529603,-0.7768034,-2.493383,-0.6542076,3.719508,8.326764,10.93814,10.5824,7.942559,4.858331,3.328425,4.600638,8.759197,14.86094,21.39364,26.78067,29.78392,29.80025,27.06515,22.69918,18.45874,16.14837,16.86123,20.41781,25.36948,29.66565,31.68151,31.05315,28.82303,26.79762,26.48645,28.25528,31.1799,33.65448,34.34821,32.92184,30.11993,27.26744,25.55698,25.57376,27.26114,30.20075,33.90213,37.8867,41.59969,44.38299,45.6833,45.44082,44.35051,43.67403,44.55508,47.17875,50.33855,51.79823,49.387,42.25211,31.52633,19.96132,10.67635,5.709955,5.180754,7.49313,10.39179,12.18815,12.44334,11.79802,11.20562,11.16786,11.48409,11.61281,11.28909,10.88558,11.22329,12.95868,15.99912,19.3885,21.7817,22.22649,20.75471,18.41438,16.72554,16.89672,19.25048,23.14944,27.38779,30.77521,32.59046,32.73406,31.61073,29.88862,28.27136,27.32652,27.3604,28.33652,29.88722,31.46126,32.58375,33.09423,33.2031,33.29864,33.62012,34.03283,34.10001,33.44123,32.13647,30.84585,30.49162,31.65792,34.1071,36.78584,38.39165,38.17006,36.41882,34.33289,33.25779,33.84205,35.65542,37.54161,38.44499,38.11364,37.15175,36.39072,36.06365,35.47422,33.50709,29.69016,25.01295,21.76274,22.26519,27.22357,34.78513,41.13052,42.46324,37.30299,27.66031,18.2268,13.90501,17.04879,26.03978,36.07486,41.73653,39.86398,31.09836,19.30289,9.341963,4.598873,5.631525,10.52451,16.42151,21.09925,23.64452,24.0806,22.57011,19.02578,13.49811,6.960052,1.668267,0.5068349,5.481018,16.25267,29.77036,41.44616,47.35294,46.20557,39.94078,32.53391,27.75455,27.19874,29.71825,32.48102,32.88598,30.10501,25.3564,20.88722,18.45623,18.33873,19.42607,20.21218,19.89405,18.82323,18.06762,18.48508,20.02049,21.71923,22.4101,21.53521,19.52808,17.50121,16.49636,16.83931,18.03552,19.22386,19.82372,19.90287,20.03638,20.80424,22.32408,24.14661,25.54839,25.96901,25.26465,23.6391,21.38993,18.73895,15.91195,13.37368,11.92636,12.44912,15.32379,19.90959,24.49743,26.92988,25.63814,20.52789,13.15894,6.061251,1.531937,0.5829187,2.608104,5.905582,8.684297,9.939496,9.725246,8.771389,7.804525,7.05505,6.245263,4.981709,3.210274,1.37911,0.1998506,0.1840682,1.28543,2.885602,4.12705,4.371882,3.514436,1.989638,0.5124498,-0.28151,-0.1105294,0.85666,2.083867,2.875208,2.643528,1.169187,-1.240264,-3.790971,-5.492767,-5.620369,-4.122839,-1.722764,0.4209424,1.357774,0.9272084,-0.1052762,-0.5054545,0.6150129,3.136318,5.878727,7.253487,6.23203,3.010129,-1.105127,-4.543155,-6.513763,-7.529727,-9.020166,-12.24958,-17.25608,-22.56085,-25.91173,-25.64261,-21.78715,-16.21658,-11.67185,-10.28364,-12.48597,-16.97102,-21.64269,-24.89883,-26.40083,-26.89851,-27.34658,-28.01647,-28.26706,-27.11213,-24.13324,-20.03057,-16.37681,-14.72601,-15.69905,-18.67758,-22.29361,-25.32782,-27.35593,-28.70596,-29.83754,-30.70568,-30.67225,-29.08476,-26.05839,-22.7722,-20.89428,-21.42433,-23.76131,-25.77615,-25.02826,-20.44051,-13.31753,-6.919269,-4.707164,-8.295751,-16.40805,-25.54968,-32.01388,-33.96371,-32.26329,-29.54815,-28.18601,-28.50585,-28.48941,-25.13239,-16.56159,-3.495565,10.91607,22.75942,29.43732,30.84379,28.97475,26.37224,24.53596,23.35445,21.80679,19.26964,16.36642,14.69849,15.66988,19.31565,24.06097,27.65308,28.63987,27.34091,25.59554,25.44173,27.64903,31.14774,33.76365,33.74382,30.99035,27.13339,24.40207,24.11148,25.85266,27.94917,28.81855,28.20808,27.37049,28.02662,30.88585,34.85555,37.61079,37.20183,33.57705,28.88557,26.23346,27.66525,32.73187,38.66818,42.11583,41.26537,36.97189,32.09493,29.51967,30.24749,32.87938,34.84341,34.46583,32.36015,31.05968,33.05929,38.60676,44.85787,47.16286,41.80999,28.51693,11.01837,-4.729721,-13.69658,-14.37504,-9.286237,-3.164806,-0.05018561,-1.103611,-4.410294,-6.688062,-5.630168,-1.327195,4.043759,7.861163,8.791592,7.442616,5.621979,4.887199,5.499618,6.49732,6.718027,5.894602,4.938364,5.184824,7.202125,10.12502,12.09772,11.57492,8.545169,4.745105,2.618178,3.685727,7.461597,11.70576,13.89593,12.93496,9.90715,7.336103,7.416897,10.43262,14.45816,16.59103,14.91044,9.842587,3.994415,0.5385526,1.202878,5.185006,9.700205,11.79237,10.21324,6.155222,2.399877,1.483011,4.091347,8.702664,12.62702,13.70187,11.51975,7.454035,3.582835,1.315714,0.6421813,0.4141762,-0.660506,-3.090824,-6.377803,-9.566956,-12.06803,-14.07498,-16.25884,-18.99941,-21.78925,-23.33584,-22.36858,-18.59734,-13.11186,-7.858589,-4.485829,-3.318439,-3.203625,-2.403275,0.002559613,3.138542,4.51192,1.364403,-7.544448,-20.80407,-34.61995,-44.43465,-47.06121,-42.16946,-32.3342,-21.63645,-13.61895,-9.701883,-8.863872,-8.661636,-6.928986,-3.163985,1.154653,3.453522,1.617258,-4.67629,-13.57712,-21.85259,-26.42757,-25.86984,-21.05039,-14.64808,-9.76912,-8.410704,-10.56423,-14.40467,-17.42574,-17.8727,-15.68082,-12.40531,-10.22072,-10.58829,-13.38439,-16.99977,-19.34231,-19.12751,-16.66879,-13.68359,-12.2327,-13.45005,-16.85116,-20.65556,-22.92538,-22.81676,-21.15907,-19.99288,-21.34253,-25.96387,-32.82869,-39.64692,-44.10415,-45.07743,-43.13472,-40.08469,-37.91217,-37.76189,-39.53524,-42.23653,-44.74306,-46.46379,-47.49951,-48.30391,-49.1673,-49.92577,-50.0826,-49.21645,-47.34077,-44.94709,-42.69781,-41.01161,-39.84533,-38.83106,-37.66182,-36.42529,-35.62461,-35.84868,-37.30741,-39.56435,-41.67939,-42.69861,-42.19233,-40.5063,-38.55921,-37.31118,-37.23024,-38.06722,-39.05129,-39.35038,-38.49787,-36.5416,-33.88392,-30.98646,-28.18174,-25.71573,-23.93704,-23.40031,-24.69491,-28.00823,-32.67825,-37.09324,-39.14759,-37.15377,-30.7744,-21.43928,-11.91442,-5.127472,-2.798161,-4.589958,-8.283914,-10.94387,-10.48766,-6.817196,-1.862182,1.521439,1.210103,-2.904423,-8.756442,-13.19628,-13.73372,-9.944441,-3.727681,1.744739,3.784556,1.634517,-3.216144,-7.997151,-10.29345,-9.363874,-6.386625,-3.559399,-2.682663,-4.138341,-6.861146,-9.229712,-10.20697,-9.941082,-9.459801,-9.744969,-10.9089,-12.10553,-12.25129,-11.01583,-9.306791,-8.804304,-10.79306,-15.09277,-19.89572,-22.74275,-22.07307,-18.32549,-13.79792,-11.27216,-12.25867,-16.02304,-20.07948,-21.86981,-20.51961,-17.46898,-15.50246,-16.79017,-21.26419,-26.4885,-29.19331,-27.5047,-22.3519,-17.01453,-14.98901,-17.50903,-22.3857,-25.04556,-21.24478,-9.798281,6.416097,21.89004,31.52982,33.46423,29.89228,25.48701,24.38862,27.70381,33.05549,36.39475,34.85066,28.75313,21.54872,17.7006,19.946,27.64917,37.23985,44.38076,46.44867,43.8027,39.16756,35.67862,34.93611,36.28076,37.62358,37.12219,34.51827,31.26805,29.47374,30.42213,33.73785,37.67651,40.28718,40.62114,39.19786,37.49611,36.90492,37.87809,39.82795,41.72609,42.90201,43.44003,43.9111,44.67906,45.32607,44.64133,41.22176,34.31392,24.3718,13.00518,2.36934,-5.646172,-10.01834,-10.76208,-8.71752,-5.153757,-1.375984,1.590025,3.232169,3.686035,3.682504,4.229184,6.077923,9.214088,12.69324,15.01488,14.91257,12.13777,7.739847,3.607723,1.480401,1.995779,4.362472,6.874086,7.965412,7.161062,5.333481,4.118789,4.874433,7.833631,11.96755,15.6031,17.37411,16.9161,14.93217,12.67911,11.26618,11.19496,12.32478,14.1306,15.97793,17.23792,17.30225,15.69223,12.35793,8.015987,4.190384,2.706196,4.75063,10.00302,16.45036,21.186,21.88565,18.15099,11.88374,6.361734,4.478698,7.159103,12.89255,18.67986,21.81184,21.39363,18.69791,16.18391,15.85913,18.05342,21.36622,23.74899,23.94939,22.33467,20.56701,20.38992,22.36935,25.43184,27.47662,26.6175,22.22825,15.15326,7.066183,-0.4788911,-6.612463,-11.01911,-13.38295,-13.02803,-9.206093,-1.923393,7.325941,15.63823,19.82131,18.04778,11.04509,1.982482,-5.034625,-7.074043,-3.866281,2.219592,7.69992,10.06793,9.173966,7.078166,6.52762,9.067307,13.99872,18.8241,20.85213,18.91026,14.07119,8.967285,6.173716,6.7149,9.619736,12.74098,14.23888,13.7341,12.41088,12.06455,13.7846,17.16719,20.56733,22.19049,21.2802,18.60732,15.94817,14.90744,15.86103,17.70395,18.56462,17.0198,13.03943,8.070438,4.215016,3.017985,4.600697,7.650651,10.24019,10.95455,9.648729,7.409099,5.787984,5.807748,7.343585,9.233435,10.01486,8.824748,5.922929,2.551478,0.2508723,0.05317961,2.01991,5.345626,8.892227,11.77912,13.66748,14.62461,14.75318,13.93801,11.94239,8.810812,5.250242,2.615596,2.352897,5.143368,10.2712,15.70048,18.96542,18.46159,14.41285,8.89017,4.774938,4.197016,7.336468,12.3135,16.27246,17.03992,14.37672,10.05828,6.727885,6.228,8.441086,11.37187,12.42413,10.08012,4.927292,-0.618409,-3.72832,-2.842715,1.411891,6.61892,10.00607,10.02149,7.100873,3.223789,0.6145401,0.4466933,2.322024,4.74727,6.181451,5.915415,4.255035,2.011824,-0.2164708,-2.409264,-4.900082,-7.816898,-10.71688,-12.77352,-13.43319,-13.03872,-12.87396,-14.46916,-18.54955,-24.34146,-29.7783,-32.58097,-31.59126,-27.51258,-22.55657,-19.18298,-18.70631,-20.64591,-23.21285,-24.59833,-24.20585,-23.01765,-22.86214,-25.07783,-29.46964,-34.26297,-37.11052,-36.52474,-32.8235,-27.98615,-24.4818,-23.77427,-25.38583,-27.05995,-25.92239,-19.98617,-9.204662,4.428456,17.71089,27.52613,31.99241,31.02143,26.16298,19.89958,14.70744,12.21084,12.69466,15.12076,17.65601,18.53487,16.90961,13.29374,9.343883,7.037261,7.643291,11.03674,15.74765,19.73145,21.41862,20.43815,17.61234,14.28287,11.44659,9.272913,7.290761,5.043428,2.686086,1.038041,1.020738,2.879116,5.787698,8.203399,8.803049,7.39289,5.142292,3.909359,5.045575,8.453465,12.54243,15.15881,14.91506,12.06032,8.320102,5.80628,5.707545,7.61261,9.886926,10.82005,9.752613,7.432302,5.394638,4.839577,5.816043,7.285729,8.003751,7.561481,6.803624,7.263695,9.95728,14.35436,18.27835,18.89462,14.2288,4.305273,-8.781467,-21.88295,-32.25747,-38.61576,-41.21981,-41.15041,-39.36478,-36.22043,-31.71491,-26.14356,-20.567,-16.63521,-15.80468,-18.4468,-23.46349,-28.71224,-32.02552,-32.2359,-29.63316,-25.65134,-22.04787,-20.08716,-20.14275,-21.8062,-24.2824,-26.75639,-28.57298,-29.27717,-28.67025,-26.93404,-24.71122,-22.94851,-22.45775,-23.39224,-25.011,-25.99523,-25.23468,-22.63267,-19.37285,-17.36673,-18.13627,-21.80115,-26.85301,-30.93767,-32.21746,-30.47647,-27.24671,-24.84432,-24.9138,-27.40762,-30.66688,-32.5539,-31.89646,-29.29624,-26.77639,-26.50591,-29.45667,-34.8742,-40.89958,-45.89067,-49.53692,-53.00881,-58.04339,-65.60226,-75.02155,-84.24183,-90.96586,-93.96074,-93.62682,-91.46104,-88.798,-85.73607,-81.02227,-73.06184,-61.42007,-47.81504,-35.86632,-29.59893,-31.46956,-40.99385,-54.72997,-67.63602,-75.09495,-74.63683,-66.61235,-53.69308,-39.6044,-27.75412,-20.27487,-17.68044,-19.03617,-22.43658,-25.6162,-26.59418,-24.24575,-18.65032,-11.04139,-3.305218,2.814998,6.456655,7.946977,8.514252,9.561714,11.90977,15.42687,19.23125,22.30369,24.12845,24.98372,25.74828,27.384,30.41782,34.70266,39.53166,43.97303,47.20985,48.74143,48.4327,46.4897,43.42952,40.02077,37.13045,35.44661,35.16417,35.80598,36.33404,35.56638,32.72739,27.85919,21.87634,16.22357,12.30925,10.96838,12.18378,15.13518,18.50835,20.92457,21.35873,19.45779,15.67842,11.17755,7.419683,5.586395,6.01134,7.946692,9.867567,10.25176,8.462288,5.213369,2.275706,1.498342,3.676023,7.955297,12.21356,14.26487,13.20428,10.05015,7.224265,7.113451,10.55801,16.20563,21.17337,22.6645,19.58089,13.16167,6.266076,1.745221,0.8996483,2.930252,5.649484,6.931692,5.96576,3.562635,1.428583,0.9780459,2.495396,5.141307,7.679175,9.322072,10.08544,10.46111,10.76311,10.73074,9.754098,7.559352,4.783209,2.887997,3.343907,6.576183,11.43934,15.69046,17.2634,15.55605,11.85933,8.584416,7.742251,9.667453,12.84783,15.00374,14.69853,12.36839,10.02379,9.775464,12.19294,15.68377,17.45757,15.55796,10.63882,6.195341,6.867719,15.68262,31.87763,50.73663,65.72607,71.8349,68.2419,58.75366,49.71379,46.54714,50.8804,59.85014,67.93509,70.22105,65.24033,55.80967,47.48786,45.57173,52.32248,65.87336,81.30077,93.15535,98.05198,96.0123,90.01358,84.16096,81.55769,82.96588,86.85056,90.62825,92.34135,91.83848,90.83076,91.81219,96.41367,104.0674,111.7236,114.8864,109.5532,94.19424,70.78732,44.34127,21.03001,5.761706,0.297034,2.793161,8.948228,14.13274,15.42709,12.59523,7.635838,3.319349,1.606174,2.79593,5.739663,8.79902,10.85371,11.74092,11.96945,12.05531,12.0295,11.47833,10.03456,7.883794,5.832009,4.816448,5.179714,6.250912,6.609639,4.946246,0.9873235,-4.145536,-8.453655,-10.20273,-9.002378,-6.135728,-3.895244,-4.300894,-7.97279,-13.84491,-19.88169,-24.33007,-26.71112,-27.93278,-29.47546,-32.20415,-35.60085,-37.94345,-37.33835,-32.97191,-25.77367,-18.04549,-12.25614,-9.714536,-9.930152,-11.06287,-11.2053,-9.746816,-7.999732,-8.691657,-14.56719,-26.84312,-44.34155,-63.75743,-80.92221,-92.43591,-96.89661,-95.20975,-89.93516,-84.08033,-79.93238,-78.41635,-79.1522,-81.0337,-82.95752,-84.33778,-85.2064,-85.95327,-86.90562,-88.02606,-88.88896,-88.95291,-87.96545,-86.24941,-84.69296,-84.3717,-85.991,-89.41045,-93.56326,-96.86948,-97.98725,-96.54139,-93.40486,-90.32935,-89.04191,-90.28399,-93.3194,-96.27505,-97.19341,-95.26221,-91.50238,-88.42112,-88.68719,-93.45824,-101.2924,-108.3371,-109.8819,-102.5937,-86.31476,-64.46186,-42.71106,-26.55767,-18.94324,-19.13682,-23.42367,-27.2122,-27.43136,-23.96074,-19.38514,-17.27897,-20.02593,-27.3885,-36.59912,-43.87197,-46.44965,-44.03829,-38.86169,-34.35596,-33.28025,-36.29888,-41.77654,-46.81634,-48.88997,-47.12664,-42.59515,-37.52427,-33.99866,-32.90973,-33.71295,-35.02508,-35.60314,-35.06956,-33.97257,-33.22367,-33.33836,-34.00986,-34.30005,-33.30791,-30.86017,-27.74376,-25.28929,-24.54215,-25.54619,-27.22964,-28.03372,-26.94467,-24.29471,-21.76162,-21.42752,-24.33862,-29.37395,-33.17852,-31.39565,-20.72914,-0.8291906,25.0213,50.90524,70.59492,80.12651,79.37688,71.87421,62.96508,57.30151,56.92509,60.85715,66.24586,70.28521,71.76398,71.41071,70.99984,71.90949,74.12966,76.34562,76.97919,75.44435,72.71469,70.79611,71.42327,74.85303,79.57731,83.20242,83.94724,81.8065,78.60253,76.86404,78.23685,82.44677,87.48251,90.87775,91.25069,89.10231,86.35959,84.99332,85.65633,87.26712,87.8358,85.97058,82.03596,78.13589,76.88056,79.70798,85.86323,92.73048,97.33778,98.09573,95.6675,92.43157,90.9038,92.1655,95.28257,98.06623,98.60828,96.55373,93.2696,90.84896,90.66312,92.47648,94.71777,95.68671,94.83548,93.19167,92.61299,94.3812,98.13387,101.9456,103.5768,102.0842,98.67227,96.09352,96.84319,101.2281,106.5716,108.1963,101.781,85.81708,62.77825,38.30246,18.76675,8.509266,8.095367,14.41501,22.4192,27.50509,27.35158,22.44859,15.29698,8.897172,5.346468,5.141156,7.321697,10.18707,12.14084,12.29785,10.68235,8.044222,5.436014,3.740985,3.32394,3.932564,4.88311,5.43765,5.187612,4.237894,3.088668,2.295388,2.127251,2.452934,2.922235,3.301766,3.698647,4.477357,5.905356,7.794139,9.447519,10.03955,9.219152,7.519918,6.215104,6.599694,9.093311,12.7499,15.5717,15.53691,11.77412,5.157192,-2.087923,-7.577863,-10.07035,-10.08032,-9.445229,-10.12056,-12.97202,-17.31628,-21.4657,-23.88391,-24.1657,-23.1997,-22.43988,-22.8171,-24.06913,-24.96524,-24.28452,-21.86315,-18.95197,-17.5746,-19.24996,-23.90155,-29.69226,-33.95085,-34.66381,-31.6211,-26.51984,-21.96547,-19.98833,-20.97569,-23.62924,-25.91215,-26.33986,-24.8026,-22.44785,-20.7763,-20.59332,-21.5104,-22.30505,-21.87084,-20.11305,-18.19242,-17.93882,-20.77979,-26.82907,-34.67686,-42.01279,-46.73169,-47.91716,-46.18798,-43.25996,-40.98597,-40.39179,-41.19574,-42.0296,-41.23074,-37.80231,-32.06731,-25.70155,-21.09294,-20.3123,-24.14836,-31.66824,-40.54023,-48.00715,-52.0849,-52.42444,-50.41613,-48.48325,-48.91186,-52.80038,-59.63786,-67.68343,-74.89149,-79.85845,-82.3271,-83.04674,-83.19608,-83.76344,-85.21346,-87.53763,-90.48695,-93.7403,-96.86463,-99.18575,-99.80014,-97.8869,-93.21415,-86.50918,-79.36603,-73.59518,-70.3294,-69.3998,-69.40673,-68.51823,-65.55576,-60.72458,-55.52747,-51.89585,-51.06058,-52.85703,-55.87842,-58.367,-59.25979,-58.7323,-57.9167,-58.02041,-59.45153,-61.52872,-62.94451,-62.64709,-60.53044,-57.47671,-54.74549,-53.14997,-52.59189,-52.26089,-51.33274,-49.65272,-47.89934,-47.10095,-47.83782,-49.70476,-51.4368,-51.66348,-49.80975,-46.54269,-43.44725,-42.10753,-43.17167,-45.9749,-48.95688,-50.58797,-50.21743,-48.32405,-46.05577,-44.40287,-43.56521,-42.91612,-41.55277,-39.03302,-35.79224,-32.95461,-31.66595,-32.37779,-34.53701,-36.87594,-38.1143,-37.64768,-35.83067,-33.72049,-32.46972,-32.72602,-34.35939,-36.61323,-38.53843,-39.45394,-39.20433,-38.13647,-36.855,-35.90771,-35.5447,-35.63744,-35.78514,-35.55112,-34.73209,-33.52193,-32.45764,-32.13027,-32.77932,-34.01282,-34.8765,-34.33646,-31.96527,-28.42373,-25.34912,-24.55044,-26.83331,-31.09892,-34.33195,-32.68305,-23.23908,-5.624309,17.43904,41.00211,59.8383,70.53762,72.72352,68.83716,62.69909,57.67184,55.38787,55.59782,57.01508,58.49909,59.81002,61.55096,64.46646,68.6567,73.27902,76.9239,78.40427,77.42028,74.69903,71.5471,69.14803,68.05638,68.16366,69.06973,70.52487,72.61081,75.53616,79.25273,83.2075,86.47178,88.1947,88.0937,86.65201,84.86736,83.70669,83.59035,84.2205,84.83308,84.69198,83.51392,81.59515,79.61082,78.26913,78.03126,79.02381,81.10008,83.92568,87.01978,89.78023,91.59586,92.10085,91.44151,90.36655,89.94315,90.97349,93.41302,96.20998,97.78364,96.98174,93.9726,90.46071,88.92506,91.17021,96.95985,103.5795,106.7359,102.4629,89.08783,68.22167,44.20889,22.30509,6.528155,-1.737784,-3.760985,-2.279795,0.08303647,1.894675,2.996058,3.793545,4.421662,4.425371,3.150625,0.4674172,-2.806427,-5.200987,-5.489146,-3.585813,-0.7837572,0.9307593,0.1145931,-3.125124,-7.051912,-9.269349,-8.186687,-4.066846,1.022966,4.369558,4.187856,0.6487215,-4.265836,-7.972765,-8.797829,-6.855013,-3.790257,-1.621455,-1.466506,-2.974349,-4.772122,-5.551689,-5.010818,-4.005445,-3.847063,-5.288339,-7.956923,-10.66479,-12.37706,-13.11682,-14.08766,-16.82499,-21.89396,-28.04766,-32.53656,-32.53302,-26.8672,-16.97394,-6.37032,1.132329,3.46654,1.371445,-2.185738,-3.902207,-2.209503,1.744444,4.803613,3.777242,-2.522647,-12.41577,-22.18485,-28.09338,-28.38985,-24.12499,-18.356,-14.27109,-13.39011,-14.88307,-16.34579,-15.48726,-11.67641,-6.431025,-2.600752,-2.756258,-7.723875,-16.06267,-24.72044,-30.45379,-31.24957,-27.06461,-19.62089,-11.48511,-4.947189,-1.212786,-0.1848862,-0.801607,-1.679718,-1.75025,-0.6396019,1.300388,3.268792,4.442534,4.353522,3.049428,0.9805444,-1.301371,-3.440793,-5.378835,-7.196237,-8.812976,-9.793022,-9.459017,-7.326566,-3.61239,0.5434499,3.392454,3.365451,-0.06283186,-5.941239,-12.16141,-16.42225,-17.3434,-15.11276,-11.30504,-7.99134,-6.660333,-7.568681,-9.836039,-12.14007,-13.51443,-13.75661,-13.27015,-12.5739,-11.91292,-11.26289,-10.66327,-10.50378,-11.39362,-13.57901,-16.28711,-17.57616,-15.02201,-7.027838,5.975873,21.2532,34.76313,43.02788,44.86264,41.9432,37.81816,35.89188,37.54765,41.52819,44.94446,45.27406,42.09697,37.45385,34.56201,35.66603,40.36995,45.54708,46.97541,41.78846,30.29549,16.06516,4.160405,-1.506824,-0.2268081,5.190121,9.975673,9.952501,3.664809,-7.025747,-18.1028,-25.58688,-27.52313,-24.74508,-20.1264,-16.85931,-16.75864,-19.47924,-22.96197,-24.75375,-23.42106,-19.30346,-14.27225,-10.69042,-10.17226,-12.79122,-17.11305,-20.98959,-22.67112,-21.65705,-18.86263,-16.05083,-14.84856,-15.88896,-18.52818,-21.27539,-22.67354,-22.13078,-20.22472,-18.32027,-17.73361,-18.94973,-21.36032,-23.67371,-24.73668,-24.25707,-22.97532,-22.18523,-22.90724,-25.24321,-28.31666,-30.82732,-31.85765,-31.41093,-30.34916,-29.78603,-30.35568,-31.83174,-33.34348,-34.0201,-33.61688,-32.70158,-32.27899,-33.11523,-35.21436,-37.79057,-39.74137,-40.29779,-39.42839,-37.76911,-36.17312,-35.21774,-34.98791,-35.22661,-35.65778,-36.19819,-36.90159,-37.73436,-38.44593,-38.72632,-38.56747,-38.50866,-39.42157,-41.80759,-44.97506,-46.72241,-43.95097,-34.11835,-16.82094,5.424532,27.82095,45.19903,54.28308,55.11349,50.83979,45.9805,44.11356,46.26056,50.80648,54.87543,56.25278,54.6871,51.8433,50.06177,50.7815,53.64894,56.82957,58.25464,56.95396,53.62694,50.13251,48.28385,48.75131,50.74745,52.6333,52.98407,51.41123,48.65733,46.00243,44.44596,44.23011,44.94453,46.04354,47.31203,48.93507,51.16515,53.9097,56.62883,58.67368,59.81839,60.53661,61.72279,63.96844,66.90023,69.12209,68.95819,65.62954,60.09363,54.8837,52.83572,55.32096,61.00771,66.00146,65.4742,56.0418,37.64635,13.91454,-9.274478,-26.30485,-34.17801,-33.55737,-28.07966,-22.40627,-20.07614,-22.19517,-27.46369,-33.29517,-37.29181,-38.29464,-36.60468,-33.47177,-30.29899,-28.03059,-26.95702,-26.88314,-27.42266,-28.2161,-29.00045,-29.59806,-29.92095,-30.01048,-30.05719,-30.33026,-31.00936,-32.01472,-32.9642,-33.32062,-32.67206,-30.98154,-28.65389,-26.36261,-24.7321,-24.04942,-24.16173,-24.59388,-24.80285,-24.42636,-23.41753,-22.04354,-20.78222,-20.17351,-20.64442,-22.31424,-24.83008,-27.33062,-28.66003,-27.85838,-24.76573,-20.42415,-16.9394,-16.69562,-21.17873,-29.98331,-40.60198,-49.27757,-52.6261,-49.25356,-40.49041,-29.77398,-20.92566,-16.22976,-15.37411,-15.88129,-14.81506,-10.78249,-5.036685,-0.9661273,-2.190889,-10.3263,-23.72685,-38.00095,-48.08294,-50.73788,-46.10997,-37.45442,-29.23706,-24.71462,-24.37008,-26.04866,-26.6137,-24.05153,-18.73741,-13.12903,-10.14185,-11.26476,-15.60415,-20.44527,-22.95474,-21.94607,-18.60001,-15.69855,-15.84934,-19.80917,-25.93402,-31.08545,-32.42887,-29.03778,-22.36261,-15.33781,-10.72149,-9.680609,-11.42614,-13.99863,-15.60804,-15.63528,-14.70581,-13.89501,-13.70764,-13.58736,-12.32363,-9.081679,-4.328849,0.03425419,1.522625,-1.558494,-9.034304,-18.75039,-27.53637,-32.703,-33.24289,-30.08973,-25.38076,-21.23335,-18.77845,-17.95737,-18.05945,-18.52021,-19.39151,-21.17936,-24.22567,-28.13372,-31.71179,-33.53866,-32.81519,-29.93591,-26.37545,-23.90612,-23.60485,-25.24827,-27.47379,-28.61103,-27.6824,-24.97533,-21.8548,-19.94534,-20.18477,-22.30018,-24.98996,-26.6683,-26.31827,-23.98295,-20.66265,-17.74854,-16.348,-16.85855,-18.94547,-21.82453,-24.6291,-26.66373,-27.49508,-26.95331,-25.13871,-22.44758,-19.5468,-17.21443,-16.05756,-16.24186,-17.40609,-18.85228,-19.92986,-20.38247,-20.43929,-20.57819,-21.12414,-21.958,-22.55627,-22.34925,-21.15701,-19.38332,-17.8035,-17.06273,-17.22541,-17.71232,-17.70348,-16.75606,-15.19579,-13.9629,-13.95764,-15.30449,-17.08125,-17.78561,-16.33722,-12.98496,-9.458976,-8.132078,-10.58418,-16.43176,-23.21494,-27.55964,-27.04355,-21.68911,-14.1445,-8.340348,-7.325315,-11.52221,-18.44461,-24.09084,-25.22263,-21.20091,-14.29132,-8.273889,-6.196043,-8.634285,-13.50004,-17.47407,-18.15479,-15.56515,-12.06846,-10.73768,-13.17676,-18.15425,-21.91426,-20.04065,-9.817707,8.240135,30.51956,51.96608,68.30307,77.62707,80.65707,79.7535,77.45937,75.45027,74.34878,74.22408,75.18983,77.5789,81.5862,86.75754,91.83221,95.20981,95.82258,93.85481,90.78401,88.63159,88.84133,91.45945,95.13447,97.9463,98.56958,97.0583,94.77793,93.55486,94.56197,97.62099,101.306,103.7554,103.6773,100.9726,96.66425,92.25469,88.93757,87.11575,86.42711,86.17001,85.78802,85.13779,84.42845,83.95509,83.83901,83.94747,83.9937,83.73325,83.11177,82.29246,81.57687,81.26375,81.51142,82.23809,83.10225,83.60207,83.30163,82.12595,80.56281,79.60014,80.30815,83.20788,87.75834,92.35179,94.97124,94.28692,90.59944,85.9994,83.43805,85.05038,90.5756,96.84263,98.8161,91.8699,74.21446,48.19524,19.67824,-4.297897,-18.49058,-21.58356,-16.44412,-8.446189,-2.791106,-2.210309,-6.150636,-11.67027,-15.37693,-15.27518,-11.58249,-6.25915,-1.718627,0.4445559,0.0330028,-2.029065,-4.472213,-6.390529,-7.489253,-7.86378,-7.618059,-6.685917,-5.001366,-2.862521,-1.163991,-1.250748,-4.399045,-11.18112,-21.06608,-32.47389,-43.25374,-51.3502,-55.36872,-54.85031,-50.25051,-42.7157,-33.78244,-25.06082,-17.9147,-13.16715,-10.90951,-10.52737,-10.99963,-11.38838,-11.31075,-11.14496,-11.83417,-14.3645,-19.18464,-25.87174,-33.23606,-39.80429,-44.42905,-46.7135,-47.05443,-46.32059,-45.37435,-44.68964,-44.24096,-43.6674,-42.58545,-40.87539,-38.80709,-36.97002,-36.05209,-36.55562,-38.55229,-41.56834,-44.66593,-46.73195,-46.90666,-44.98933,-41.61631,-38.07934,-35.80784,-35.73165,-37.84606,-41.22807,-44.5257,-46.66442,-47.37332,-47.21323,-47.08609,-47.52711,-48.23837,-48.20043,-46.33288,-42.30696,-36.96692,-32.01677,-29.07538,-28.62327,-29.50599,-29.37771,-25.93695,-18.30782,-7.77474,2.599164,9.333532,10.17212,5.12697,-3.627784,-12.93177,-20.21358,-24.59414,-26.95575,-29.02816,-32.10814,-36.21011,-40.14856,-42.45276,-42.50537,-41.14795,-40.34497,-42.06735,-47.06256,-54.26057,-61.20665,-65.31048,-65.20882,-61.47486,-56.28236,-52.21814,-50.94734,-52.46608,-55.3343,-57.68892,-58.38287,-57.57115,-56.40993,-56.11954,-57.0404,-58.31374,-58.41224,-56.19858,-51.82904,-46.89087,-43.62517,-43.65765,-46.99271,-51.9011,-55.81673,-56.74757,-54.38332,-50.24388,-46.77598,-45.92319,-48.01756,-51.63301,-54.46025,-54.64758,-51.7817,-46.92614,-41.73872,-37.27615,-33.28683,-28.47176,-21.55605,-12.46019,-2.770026,4.886424,8.237907,6.718619,1.916242,-3.211719,-5.931535,-5.2101,-2.195251,0.5875214,0.841796,-2.060672,-6.671334,-10.3271,-10.75334,-7.441044,-1.982283,2.811783,4.467561,2.155485,-2.979105,-8.578685,-12.40756,-13.4447,-12.15219,-9.888721,-7.951536,-6.8899,-6.472456,-6.20178,-5.919929,-6.028836,-7.172369,-9.637199,-12.93491,-15.90758,-17.31906,-16.5569,-13.98312,-10.70336,-7.917653,-6.276978,-5.650667,-5.411856,-4.99495,-4.316393,-3.773674,-3.860958,-4.719226,-5.975056,-6.994764,-7.362733,-7.215105,-7.1626,-7.842055,-9.422788,-11.44731,-13.14206,-13.97836,-14.03931,-13.8573,-13.76885,-13.22582,-10.63075,-3.968603,8.006966,24.72006,43.56038,60.77702,73.0836,79.11291,79.90217,78.13977,76.62166,76.83633,78.46408,80.01591,80.10121,78.46921,76.16408,74.75701,75.22952,77.29895,79.65018,80.88603,80.51697,79.28336,78.56458,79.28423,81.10356,82.50333,81.76704,78.23571,72.97205,68.33208,66.6552,68.87841,73.96468,79.52405,83.22977,84.12015,82.95754,81.4529,80.94463,81.46406,81.86712,80.92443,78.55716,76.23904,76.10656,79.23932,84.24142,87.22231,83.46819,70.03685,47.78516,21.56658,-1.703798,-16.17202,-19.69885,-14.61671,-6.234791,0.01263436,1.15677,-2.33624,-7.56569,-11.355,-12.17714,-10.73797,-9.054178,-8.812525,-10.18151,-11.8404,-12.11396,-10.35547,-7.578248,-5.874767,-7.004735,-11.10228,-16.38721,-20.10738,-20.13694,-16.22992,-10.15362,-4.644403,-1.861005,-2.294942,-4.771515,-7.450354,-9.11604,-9.900652,-11.00471,-13.65777,-18.0516,-22.97547,-26.40196,-26.64694,-23.37397,-17.82399,-12.1631,-8.379656,-7.392074,-8.839005,-11.55535,-14.32514,-16.41099,-17.59913,-17.89681,-17.24536,-15.54572,-12.97942,-10.31516,-8.836509,-9.778769,-13.55277,-19.255,-24.87597,-28.19514,-27.91461,-24.37395,-19.40747,-15.40067,-14.07969,-15.73058,-19.27502,-23.0946,-26.05079,-28.04763,-29.8165,-32.11526,-34.92142,-37.20203,-37.45036,-34.66839,-29.16521,-22.6208,-17.32391,-14.99661,-15.89382,-18.71475,-21.39092,-22.29888,-21.2009,-19.38,-18.90098,-21.41881,-27.19617,-34.85256,-41.95972,-46.14145,-46.10728,-42.12483,-35.75643,-29.06776,-23.73121,-20.45276,-18.92425,-18.23711,-17.48595,-16.24704,-14.72052,-13.51893,-13.24711,-14.10575,-15.72511,-17.30758,-18.00556,-17.34798,-15.49252,-13.17399,-11.3583,-10.77985,-11.59472,-13.33059,-15.15245,-16.29311,-16.40787,-15.67321,-14.59843,-13.7034,-13.26692,-13.29633,-13.69155,-14.43736,-15.64864,-17.40896,-19.52313,-21.41114,-22.2928,-21.62378,-19.5275,-16.90629,-15.07546,-15.05597,-16.91482,-19.56999,-21.24719,-20.39173,-16.54407,-10.67891,-4.781095,-0.8792273,-0.05544358,-1.979577,-5.196481,-7.969549,-9.177085,-8.769048,-7.583719,-6.712619,-6.845027,-7.971526,-9.558243,-10.99072,-11.94772,-12.47333,-12.76172,-12.88333,-12.69253,-11.99447,-10.81457,-9.519164,-8.640453,-8.495737,-8.887166,-9.146335,-8.566402,-6.965376,-4.982349,-3.833882,-4.600856,-7.460712,-11.37455,-14.50021,-15.16815,-12.86736,-8.645083,-4.630682,-2.916384,-4.416495,-8.360566,-12.71,-15.25392,-14.75299,-11.49654,-7.009921,-3.147365,-1.139417,-1.131221,-2.396823,-3.988726,-5.343482,-6.465805,-7.640208,-8.956456,-10.04299,-10.23322,-9.056752,-6.701224,-4.085926,-2.438882,-2.609149,-4.531385,-7.189305,-9.127443,-9.22548,-7.294573,-4.162612,-1.220537,0.2977523,-0.1006475,-2.013993,-4.449971,-6.368527,-7.150958,-6.770791,-5.650842,-4.349189,-3.278823,-2.589115,-2.213714,-1.99872,-1.809587,-1.577898,-1.29915,-1.018092,-0.8172861,-0.7977181,-1.03368,-1.514906,-2.117733,-2.644655,-2.922446,-2.906264,-2.702865,-2.481803,-2.326392,-2.136906,-1.688358,-0.841273,0.2258907,0.948454,0.5920861,-1.300478,-4.476782,-7.856292,-9.899718,-9.366143,-6.08601,-1.286897,2.811007,4.053343,1.585832,-3.378737,-7.750331,-7.738844,-0.5508231,14.18567,33.98212,54.30878,70.34642,78.88807,79.5274,74.61565,68.06285,63.58538,63.2462,66.9126,72.77432,78.5255,82.54216,84.47607,85.05893,85.37112,86.08247,87.11757,87.87756,87.80186,86.85215,85.58199,84.761,84.80634,85.42673,85.72545,84.72057,81.97142,77.91614,73.70792,70.64169,69.50574,70.23604,72.04533,73.91718,75.13655,75.54897,75.42878,75.10419,74.62067,73.68349,71.89763,69.12886,65.72205,62.42593,60.05825,59.12166,59.58458,60.93258,62.41395,63.32876,63.22961,62.00557,59.91166,57.58404,55.99756,56.25103,59.11112,64.42905,70.71839,75.24963,74.82179,67.02076,51.42919,30.16195,7.355596,-12.26151,-25.10672,-29.98763,-28.2957,-23.11261,-17.7366,-14.37789,-13.60827,-14.68883,-16.42559,-17.98088,-19.20569,-20.41237,-21.86695,-23.40804,-24.45749,-24.39913,-23.05114,-20.91798,-19.0574,-18.63182,-20.3852,-24.29724,-29.55163,-34.79963,-38.58916,-39.81145,-38.04049,-33.68117,-27.87274,-22.14698,-17.91625,-15.9726,-16.21569,-17.76615,-19.43698,-20.33378,-20.26326,-19.71367,-19.42931,-19.85268,-20.80223,-21.60257,-21.58154,-20.58512,-19.14113,-18.12644,-18.15152,-19.09279,-20.12863,-20.29145,-19.17822,-17.31098,-15.84991,-15.80732,-17.28461,-19.29661,-20.37991,-19.64464,-17.57798,-15.99742,-17.07526,-21.97341,-29.94339,-38.5168,-44.7662,-46.93775,-45.4954,-42.93021,-42.42607,-46.12913,-54.00282,-63.86224,-72.4897,-77.13991,-76.61312,-71.42671,-63.22126,-53.90985,-45.09895,-37.94209,-33.22892,-31.36951,-32.15608,-34.50545,-36.56683,-36.38927,-32.91505,-26.71331,-19.89355,-15.0904,-14.02229,-16.48145,-20.42068,-23.15378,-22.96888,-20.15779,-16.79358,-15.38623,-17.25869,-21.68852,-26.36888,-28.8979,-28.33358,-25.81457,-23.85037,-24.74734,-29.18089,-35.80219,-42.08223,-45.7932,-46.1596,-43.98346,-40.78067,-37.61924,-34.50463,-30.71383,-25.77158,-20.27885,-15.91537,-14.51907,-16.84585,-21.8756,-27.21417,-30.41101,-30.38409,-28.03597,-25.64625,-25.40744,-28.02272,-32.24298,-35.61652,-35.96782,-32.67913,-27.01052,-21.31855,-17.71298,-16.98675,-18.41471,-20.43345,-21.6795,-21.71744,-21.07367,-20.67206,-21.13739,-22.42722,-23.96847,-25.1111,-25.53517,-25.35268,-24.90343,-24.46206,-24.09317,-23.72476,-23.32911,-23.01939,-22.97672,-23.28436,-23.83461,-24.41073,-24.88194,-25.34117,-26.04473,-27.17815,-28.63699,-30.02604,-30.91701,-31.19191,-31.18514,-31.46292,-32.3545,-33.57217,-34.24752,-33.44637,-30.8498,-27.12318,-23.64609,-21.70263,-21.63894,-22.57942,-22.95655,-21.56459,-18.44427,-14.97215,-13.01963,-13.69664,-16.51374,-19.5696,-20.71295,-18.95108,-15.17234,-11.65849,-10.66076,-12.94475,-17.26592,-21.14992,-22.48287,-20.87111,-17.86041,-15.85476,-16.4474,-19.28181,-22.22515,-22.76791,-19.73475,-14.16929,-8.788602,-6.341298,-7.93103,-12.3876,-17.08133,-19.62564,-19.33991,-17.52669,-16.41864,-17.53666,-20.57696,-23.57168,-24.19796,-21.3511,-15.92154,-10.26623,-6.734759,-6.223665,-7.687351,-8.886082,-7.837458,-4.009164,1.482351,6.711328,10.18219,11.62465,11.87205,12.0247,12.57867,13.17675,13.12237,12.20627,11.13759,11.16391,13.08369,16.36814,19.12485,19.10856,15.25794,8.788372,3.051832,2.077412,8.52601,22.1955,39.93988,57.07419,69.50491,75.44035,75.82744,73.40985,71.06882,70.4172,71.36533,72.72207,73.30424,72.801,71.90099,71.71751,72.96438,75.45457,78.21169,80.07883,80.39719,79.33075,77.66052,76.22781,75.40572,74.92908,74.17391,72.67308,70.53025,68.45715,67.39069,67.93073,69.92946,72.50127,74.47575,75.04749,74.25229,72.97684,72.45763,73.54348,76.14046,79.20362,81.31473,81.55708,80.16329,78.50393,78.35252,80.79694,85.44226,90.42739,93.34844,92.60773,88.41257,82.76808,78.37311,76.98113,78.15953,79.22898,76.51223,67.2695,51.26686,31.095,11.02974,-4.944438,-14.88744,-19.50555,-21.35702,-23.19579,-26.43148,-30.5437,-33.6764,-33.95309,-30.68711,-24.80676,-18.34015,-13.3573,-11.02451,-11.26211,-13.08131,-15.2803,-17.045,-18.16099,-18.84846,-19.44544,-20.18824,-21.17574,-22.43735,-23.97368,-25.71082,-27.45294,-28.9417,-30.05671,-31.02011,-32.41472,-34.89505,-38.70673,-43.31047,-47.42003,-49.53271,-48.71262,-45.16899,-40.23663,-35.69995,-32.81174,-31.58382,-30.80726,-28.84126,-24.74639,-19.09483,-13.9402,-11.88894,-14.72242,-22.29458,-32.30127,-41.08664,-45.12031,-42.46072,-33.53534,-20.91134,-8.20262,1.37594,6.173271,6.521842,4.299913,1.889659,1.028187,2.059293,3.897115,4.685428,2.816494,-2.187897,-9.360919,-16.69397,-22.04276,-24.07269,-22.76502,-19.24197,-15.05298,-11.34986,-8.426206,-5.855002,-3.085511,-0.07583863,2.47717,3.488541,2.212062,-1.121432,-5.185465,-8.095017,-8.33581,-5.58077,-0.9357847,3.526165,5.707107,4.425766,-0.09142277,-6.362298,-12.31622,-16.13507,-16.90631,-14.86532,-11.1983,-7.52759,-5.284038,-5.173125,-6.914825,-9.370687,-11.04637,-10.80793,-8.49851,-5.133681,-2.503727,-2.310853,-5.252887,-10.55151,-16.23976,-20.10769,-20.82614,-18.62504,-15.13775,-12.48648,-12.13001,-14.12852,-17.22789,-19.67322,-20.2343,-18.82972,-16.4171,-14.29445,-13.29301,-13.38139,-13.87323,-14.02671,-13.58471,-12.88848,-12.5304,-12.83814,-13.59024,-14.16674,-14.01721,-13.08334,-11.85742,-11.02769,-10.96772,-11.45323,-11.82095,-11.47468,-10.37541,-9.158639,-8.765591,-9.828506,-12.22066,-15.0842,-17.3287,-18.2768,-18.03849,-17.37517,-17.15907,-17.79071,-18.95111,-19.82673,-19.64043,-18.13323,-15.70577,-13.17247,-11.31711,-10.5346,-10.73907,-11.5185,-12.37659,-12.90468,-12.84123,-12.08272,-10.72427,-9.115163,-7.832856,-7.480971,-8.354187,-10.15309,-11.98705,-12.75199,-11.72573,-9.032415,-5.657846,-2.955575,-1.914289,-2.633913,-4.347073,-5.972701,-6.83619,-7.071531,-7.435068,-8.666487,-10.85077,-13.24679,-14.72669,-14.54184,-12.89155,-10.88244,-9.877603,-10.65327,-12.91479,-15.49251,-17.0821,-17.04063,-15.72403,-14.18756,-13.49121,-14.10359,-15.78185,-17.9367,-20.14675,-22.40461,-24.92274,-27.69621,-30.22451,-31.67821,-31.4393,-29.6189,-27.12794,-25.17715,-24.51374,-24.92737,-25.40883,-24.88094,-22.99661,-20.42506,-18.39409,-17.81014,-18.60476,-19.83492,-20.50284,-20.48883,-20.82322,-22.92954,-27.23019,-32.06874,-33.86247,-28.67935,-14.48456,7.260236,31.7264,52.69094,65.36114,68.5145,64.77518,58.94379,55.38523,56.00138,59.83715,64.32957,67.2342,67.96365,67.59396,67.74165,69.23438,71.53049,73.22719,73.20245,71.50273,69.32983,68.1483,68.59874,70.01051,70.87276,69.93523,67.148,63.78875,61.67862,62.03951,64.75552,68.50002,71.5821,72.8965,72.34834,70.57253,68.27748,65.78472,63.10886,60.42316,58.41839,58.10925,60.11475,63.92123,67.77242,69.44798,67.55531,62.50223,56.43828,52.08315,51.13284,53.26307,56.40664,58.15577,57.36946,54.90292,52.96221,53.51244,56.84747,61.33086,64.52625,64.9476,63.1882,61.54453,62.27672,65.61671,68.9167,67.67429,57.98165,38.98852,13.86508,-11.39189,-30.69913,-40.64556,-41.7686,-37.74554,-33.12614,-30.99723,-31.86309,-34.16768,-35.86846,-35.93645,-34.8736,-34.09713,-34.78518,-37.0396,-39.8926,-42.0411,-42.71717,-42.09389,-41.01268,-40.32507,-40.35868,-40.85345,-41.33219,-41.5324,-41.55107,-41.61233,-41.70963,-41.47378,-40.42996,-38.46878,-36.13803,-34.4578,-34.30285,-35.75321,-37.88657,-39.23598,-38.6764,-36.1914,-33.00056,-30.92003,-31.30468,-34.2122,-38.28625,-41.43815,-41.92559,-39.22403,-34.24384,-28.84497,-24.98999,-23.99458,-26.19716,-31.06047,-37.49983,-44.20633,-49.85524,-53.25915,-53.56238,-50.49046,-44.54996,-37.0142,-29.63351,-24.15898,-21.88691,-23.39374,-28.51808,-36.48433,-46.04335,-55.58216,-63.28121,-67.43876,-66.96714,-61.89207,-53.54933,-44.27428,-36.602,-32.31078,-31.76353,-33.88301,-36.75935,-38.56264,-38.28558,-35.99055,-32.52418,-28.9634,-26.1317,-24.39863,-23.7443,-23.92592,-24.58595,-25.285,-25.54861,-25.01962,-23.67798,-21.96268,-20.63375,-20.37137,-21.32582,-22.93103,-24.16293,-24.1452,-22.73235,-20.67047,-19.17373,-19.1504,-20.56008,-22.34746,-23.03402,-21.62204,-18.23948,-14.11248,-10.86938,-9.616337,-10.36615,-12.15346,-13.7198,-14.28147,-13.87693,-13.10851,-12.52383,-12.12606,-11.37839,-9.687631,-6.982414,-3.921446,-1.537733,-0.5428085,-0.7910456,-1.311399,-0.9304234,0.9151184,3.732562,6.208452,6.990946,5.497664,2.226018,-1.620952,-4.903123,-7.164971,-8.696604,-10.04346,-11.37912,-12.24446,-11.87739,-9.888462,-6.757925,-3.730774,-2.116296,-2.45619,-4.154658,-5.876068,-6.466496,-5.765757,-4.714228,-4.636315,-6.174354,-8.63664,-10.27803,-9.403497,-5.590075,-0.1759093,4.388505,5.98619,4.170815,0.5133168,-2.317935,-2.193906,1.14569,5.925738,9.4498,9.795708,7.019434,3.111993,0.7523279,1.656034,5.554189,10.41207,13.69439,13.85292,11.12234,7.209051,4.17524,3.290634,4.550509,7.038671,9.736727,12.13514,14.24738,16.1301,17.41805,17.35392,15.38787,11.91518,8.515843,7.331346,9.806223,15.52861,21.96361,25.40372,22.73132,13.0585,-1.677986,-17.52438,-30.29716,-37.39725,-38.72779,-36.33417,-33.10192,-31.30648,-31.77316,-33.94947,-36.6356,-38.79776,-39.96637,-40.09654,-39.13842,-36.73741,-32.31563,-25.49955,-16.58441,-6.706515,2.435028,9.188994,12.60212,12.80829,11.0001,9.016783,8.710747,11.30969,16.96503,24.63332,32.36818,37.99428,39.97725,38.15805,33.98272,30.00574,28.77406,31.54909,37.50086,43.85737,47.05029,44.36735,35.30083,21.89424,7.86572,-3.062004,-8.78546,-9.580738,-7.660004,-5.820459,-5.953854,-8.198506,-11.11552,-12.68353,-11.48687,-7.428861,-1.64743,4.214202,8.883774,11.98007,13.9513,15.58167,17.44577,19.64971,21.96521,24.17263,26.32514,28.731,31.67782,35.11508,38.5442,41.21833,42.54838,42.45458,41.44804,40.37799,39.99171,40.56,41.78424,43.02794,43.73546,43.80271,43.69124,44.21698,46.09993,49.48,53.61925,56.95664,57.53924,53.71899,44.87598,31.8666,16.9591,3.183716,-6.712349,-11.30277,-11.0387,-8.010877,-4.960618,-3.970242,-5.469886,-8.086231,-9.441151,-7.505299,-1.781875,6.331944,14.22291,19.41001,20.80908,19.20229,16.65704,15.25502,15.89484,17.87997,19.52177,19.36544,17.26559,14.63595,13.70367,16.2177,22.39113,30.71956,38.76773,44.43979,46.96284,47.01465,45.98653,44.89585,43.6689,41.25378,36.46627,29.0062,19.95652,11.42041,5.485112,3.128914,3.726058,5.43752,6.248585,5.036174,2.061245,-1.352129,-3.706388,