Bandpass,0,0.16541,-89.252335,899.91333,1316.4395,1088.6503,444.88083,-180.46625,-418.74088,-202.53271,213.20897,456.69971,315.95877,-115.72749,-524.43909,-617.75879,-340.41351,93.044609,364.53964,287.7814,-62.187008,-415.2713,-511.74152,-291.03702,72.925842,308.95264,250.6835,-46.588654,-355.82404,-451.16336,-272.40567,38.483101,249.78465,212.82918,-33.453583,-299.4017,-389.7164,-246.15033,16.173889,200.58105,176.12279,-29.61179,-257.50912,-338.82907,-218.90642,7.689929,172.37775,158.56021,-15.632158,-216.27589,-296.06589,-202.01067,-9.823328,136.74614,133.26646,-11.462667,-187.08855,-266.48221,-198.56314,-41.34597,85.898109,92.590179,-18.675089,-158.87833,-222.15709,-164.34331,-32.572529,73.439751,76.962776,-20.384123,-143.16238,-200.61002,-153.89113,-42.420464,48.315079,51.418755,-32.993301,-140.41687,-191.63879,-151.21178,-51.603146,33.243107,43.553596,-23.262255,-113.14649,-157.33228,-123.41333,-37.903381,35.066494,41.714012,-22.655334,-111.85371,-163.73601,-145.05774,-73.511467,-2.2040393,20.331303,-15.514565,-76.188492,-112.24414,-95.586021,-39.032108,15.1613,27.849659,-8.2462473,-64.494179,-98.877502,-87.436287,-41.226898,2.9982524,10.509856,-26.20598,-82.935463,-122.22382,-120.42833,-83.447449,-40.478794,-21.626694,-36.526154,-69.37986,-92.911812,-89.739059,-64.87397,-40.536629,-38.072342,-61.186211,-93.14653,-109.69347,-97.576149,-64.714394,-34.560184,-29.101271,-53.183033,-91.506874,-120.09053,-123.44126,-104.90194,-83.073433,-77.553131,-94.758858,-124.00086,-146.05417,-147.35634,-129.28833,-106.16136,-94.084854,-99.371681,-114.93211,-126.73835,-124.91259,-110.9066,-95.640236,-90.504662,-98.409843,-111.70884,-118.36697,-111.44049,-94.551994,-79.242104,-76.295891,-87.641449,-104.88691,-115.50986,-112.00356,-97.166389,-81.684341,-75.902802,-81.925415,-91.838516,-93.297318,-78.355133,-49.173744,-16.650591,6.8496213,15.363873,12.348521,7.1147528,7.698226,15.487837,25.284264,30.256599,27.713745,21.266209,17.905508,22.435139,33.608246,44.915802,49.392345,44.795853,35.294235,28.441723,29.721474,38.669476,49.353191,54.746819,51.742611,43.188793,35.619743,34.498398,40.502457,49.46867,55.83416,56.872318,54.556587,53.75634,58.225727,67.440987,76.650909,80.100983,75.077545,63.863464,52.249996,45.721928,46.027401,50.460728,54.186203,53.805,49.619823,45.129715,44.318951,48.79575,56.778843,64.476288,68.689003,68.729462,66.420845,64.420776,64.265503,65.54953,66.644859,66.166618,63.930527,60.706699,57.140915,52.907894,46.93615,38.602219,28.902584,20.507648,16.398716,17.901125,23.500914,29.403229,31.627903,28.360718,21.057398,13.594391,10.027241,12.379827,19.78797,29.365877,38.055252,44.192787,47.898472,50.293873,52.337448,54.18169,55.416054,55.82296,55.907742,56.707363,59.004269,62.571236,66.071632,67.754105,66.493607,62.477692,57.095028,52.13802,48.875256,47.573444,47.67622,48.38245,49.153809,49.842636,50.495289,51.141273,51.827896,52.866333,54.989826,59.127243,65.794159,74.464813,83.41848,90.30896,93.233307,91.703362,86.930435,81.236015,76.937286,75.36515,76.549446,79.642776,83.680031,88.103127,92.724808,97.264099,100.93003,102.5049,101.00516,96.535706,90.730659,86.358917,86.162148,91.487221,101.46028,113.20592,123.07211,128.28204,128.19264,124.52134,120.41251,118.79076,120.80978,125.17324,128.69736,127.88079,120.73931,107.99236,92.966591,80.194534,73.349884,73.533104,78.785355,85.104485,88.461945,86.789169,80.915359,74.002823,69.831596,70.880585,77.207924,86.635872,96.005188,102.72076,105.75745,105.71465,104.09566,102.3754,101.40118,101.33327,101.94881,102.96729,104.17469,105.37474,106.35131,106.96408,107.30184,107.6851,108.39112,109.22899,109.30984,107.3209,102.28958,94.419838,85.40757,77.880249,74.147896,74.953323,78.998993,83.604263,86.14846,85.446472,82.228302,78.46286,76.004105,75.457253,75.980392,76.085098,74.825897,72.534256,70.603783,70.51017,72.769173,76.545517,80.138924,81.959778,81.307693,78.477646,74.252327,69.277855,63.836113,58.127773,52.705807,48.54237,46.519775,46.667217,47.783749,47.892254,45.359577,39.942413,32.954372,26.320583,21.126808,16.757225,11.419794,3.8969579,-4.6311865,-10.127364,-7.3045321,7.3509469,32.888283,63.331154,89.905998,105.04697,106.0085,96.044685,82.490463,72.865822,71.219269,76.674225,84.747398,90.381607,90.781914,86.512497,80.549255,76.219551,75.427589,78.086494,82.724976,87.529739,91.056946,92.378464,90.988976,86.915909,81.083565,75.493393,72.687225,74.444611,80.389488,87.546188,91.483711,88.679535,78.782631,65.280716,53.91658,49.583942,53.470707,62.180393,69.419472,69.290466,59.276054,41.240921,20.043659,0.79465002,-13.50766,-22.677141,-28.300205,-31.989639,-34.247917,-34.608593,-32.688747,-29.144146,-25.695808,-24.201336,-25.520744,-29.080709,-33.471153,-37.574707,-41.294266,-45.254986,-49.689724,-53.428429,-53.934593,-48.602039,-36.555542,-19.709244,-2.2275238,11.425285,18.681799,19.933006,17.795021,15.104807,13.003223,10.373935,4.9573188,-4.6923065,-17.796589,-31.473625,-42.299416,-48.236141,-49.633823,-48.688316,-47.814342,-48.107014,-48.933254,-48.838905,-47.007118,-44.138027,-42.084206,-42.518452,-45.638348,-49.897709,-53.010056,-53.532967,-51.894508,-50.096279,-50.267719,-53.087116,-57.221466,-60.251453,-60.504036,-58.534573,-57.172649,-59.974201,-68.996307,-83.305183,-99.204224,-112.09612,-118.87002,-119.39271,-116.26749,-113.11156,-112.48079,-114.69619,-118.16312,-120.79321,-121.49096,-120.74078,-120.0211,-120.57767,-122.46859,-124.53062,-125.23664,-123.80698,-120.80385,-117.83528,-116.6097,-117.98648,-121.60484,-126.23309,-130.50078,-133.49165,-134.87906,-134.6815,-132.98802,-129.94878,-126.01955,-122.1542,-119.61958,-119.39771,-121.52377,-124.87078,-127.66404,-128.51463,-127.34267,-125.54298,-125.18835,-127.70007,-132.81512,-138.54828,-142.23927,-142.07431,-138.14294,-132.36487,-127.33239,-124.79976,-124.76519,-125.69135,-125.66999,-123.73873,-120.49728,-117.66145,-116.9013,-118.75214,-122.29139,-125.72873,-127.4553,-126.84505,-124.34287,-120.90655,-117.29897,-113.75618,-110.19778,-106.69068,-103.68342,-101.74057,-100.96178,-100.59859,-99.311607,-96.052139,-91.03083,-86.047104,-83.782761,-86.332718,-93.809502,-103.91898,-112.87261,-117.19871,-115.44516,-108.80968,-100.36573,-93.379662,-89.713608,-89.184837,-90.112267,-90.558647,-89.432869,-86.832603,-83.58992,-80.508377,-77.902428,-75.724861,-74.067055,-73.522469,-75.023102,-79.195175,-85.695549,-93.070854,-99.348091,-103.04888,-103.98421,-103.28468,-102.60213,-102.97057,-104.06148,-104.33928,-102.05337,-96.461632,-88.514824,-80.548256,-75.129395,-73.719208,-75.913948,-79.6856,-82.460793,-82.417305,-79.298203,-74.361488,-69.586273,-66.639969,-66.172249,-67.742836,-70.29789,-72.824104,-74.780334,-76.113045,-76.952942,-77.275078,-76.788559,-75.129639,-72.206032,-68.424606,-64.605972,-61.599018,-59.820511,-59.021263,-58.457592,-57.391716,-55.609825,-53.593468,-52.16452,-51.760845,-51.786251,-50.519512,-45.792778,-36.189079,-22.125706,-6.1419301,7.9245515,16.578726,18.322206,14.426101,8.3513632,4.0713191,4.1644158,8.6829634,15.365355,21.000456,23.12101,21.078045,15.987844,9.7591801,3.9379728,-0.87541598,-4.7613378,-7.7219205,-9.1212339,-7.8360243,-3.0620368,4.817543,14.008876,22.022467,26.955822,28.527046,28.149094,27.947308,29.335842,32.087765,34.522854,34.693348,31.773678,26.721327,21.772039,19.124914,19.711023,22.853367,26.980621,30.817146,34.163044,37.719612,42.152618,47.172749,51.411736,53.27021,52.150082,49.129559,46.48497,46.285549,49.000034,53.120247,56.140583,56.278584,53.758919,50.734459,49.842594,52.357357,57.220013,61.657539,63.013485,60.562477,56.066544,52.674095,52.891968,56.987331,62.873863,67.512901,68.840179,66.914047,63.57906,61.003326,60.213482,60.680378,61.17112,61.111118,61.311935,63.41148,68.383698,75.255966,81.127342,82.698196,78.414841,69.788345,60.892662,56.208267,58.085491,65.393188,74.190277,79.986206,80.184311,75.254639,68.056236,61.911945,58.744766,58.392044,59.32206,60.041332,60.129021,60.248451,61.299072,63.478638,66.008141,67.700645,67.886833,66.952377,66.060616,66.268303,67.699158,69.388229,69.897301,68.231316,64.384094,59.154442,53.450058,47.690758,41.827595,35.976856,31.122797,29.201481,32.281239,41.237892,54.793091,69.671944,81.970062,89.023293,90.68512,89.221939,87.863495,88.873917,92.303772,96.155441,97.814301,95.824776,90.903793,85.584518,82.739067,83.900101,88.386238,93.713806,96.996986,96.486107,92.379234,86.531639,81.344086,78.534439,78.463982,80.277054,82.61364,84.37854,85.128006,84.964401,84.161087,82.863686,81.075356,78.871361,76.597275,74.828629,74.070602,74.405434,75.370567,76.210747,76.380943,75.970879,75.733604,76.637321,79.182869,82.917183,86.493629,88.307877,87.373947,83.926048,79.370743,75.589272,73.980042,74.784119,77.062134,79.291969,80.193832,79.286453,76.895195,73.712044,70.290665,66.855225,63.525337,60.710537,59.272186,60.204762,63.962692,69.879745,76.155907,80.56311,81.54464,79.069633,74.688362,70.691505,68.832436,69.364677,70.976364,71.658524,69.968483,65.907303,60.885265,56.833797,55.06337,55.606537,57.439445,59.368839,60.916798,62.538914,64.985458,68.248009,70.897377,70.440659,64.685654,53.38707,39.131035,26.733175,21.241117,25.47735,38.42522,55.397999,70.013756,77.031418,74.632408,65.024704,53.137142,44.159107,41.220608,44.326,50.897053,57.408825,61.109516,60.940113,57.369957,51.531479,44.363983,36.307598,27.597733,18.761927,10.815852,4.9376884,1.8374577,1.3017972,2.2888989,3.5531027,4.3833494,4.9381738,5.9361777,7.9222822,10.647752,13.036758,13.801216,12.292122,8.9835815,5.2222581,2.3880963,1.0412459,0.66368359,0.20076433,-0.96025133,-2.2736151,-2.1323915,1.2110453,8.470437,18.671265,29.479059,38.33707,43.716423,45.716404,45.693699,45.236004,45.197426,45.411194,45.181503,44.09956,42.52776,41.380299,41.384632,42.421165,43.50013,43.462166,41.91935,39.708969,38.416161,39.165394,41.450497,42.856625,40.031693,30.476839,14.152009,-6.0869007,-25.570086,-39.894711,-46.89798,-47.46843,-44.798176,-42.54641,-42.956543,-45.932701,-49.485176,-51.172298,-49.644226,-45.413391,-40.477688,-37.09631,-36.468117,-38.063072,-39.938667,-39.805649,-36.214489,-29.222212,-20.241028,-11.24769,-3.8608403,1.2009643,4.0652614,5.2330227,5.1051807,3.8622925,1.7412705,-0.59149683,-1.9940921,-1.3536143,1.5541033,5.3983269,7.3957448,4.3746209,-5.6015019,-21.899145,-41.103382,-58.229816,-68.878448,-71.261436,-67.01844,-60.33271,-55.767948,-55.950817,-60.32127,-65.597313,-67.674286,-63.918385,-54.637974,-42.998329,-33.496799,-29.849693,-33.377739,-42.625099,-54.255428,-64.635849,-71.275269,-73.49781,-72.222168,-69.172989,-66.038307,-63.959751,-63.446579,-64.5504,-67.069191,-70.655998,-74.866844,-79.252563,-83.531746,-87.748108,-92.24601,-97.38237,-103.09288,-108.60576,-112.58675,-113.76489,-111.74668,-107.50812,-103.14451,-100.86274,-101.69941,-104.7215,-107.28767,-106.36835,-100.26066,-89.710846,-77.720367,-68.053192,-63.253906,-63.327858,-65.881378,-67.652672,-66.512459,-62.714401,-58.63855,-57.214104,-60.034565,-66.355644,-73.578629,-78.856087,-80.746811,-79.858505,-78.128456,-77.315292,-77.781929,-78.402451,-77.610298,-74.793045,-70.999512,-68.419632,-68.97422,-72.993233,-78.912674,-84.218552,-87.002922,-87.078934,-85.91848,-85.497498,-86.880936,-89.529144,-91.771286,-92.060181,-90.095085,-87.033844,-84.699135,-84.399582,-86.221489,-89.241341,-92.390106,-95.21479,-97.902885,-100.56553,-102.42934,-101.74499,-96.72435,-87.008247,-74.638977,-63.695126,-58.563805,-61.743553,-72.453857,-86.892708,-100.00455,-107.74059,-108.57862,-103.62591,-95.535637,-87.105682,-80.39785,-76.633675,-76.476395,-80.108528,-86.873825,-94.847946,-100.99364,-102.25319,-97.197792,-87.243546,-76.470818,-69.835777,-70.598854,-78.414963,-89.275009,-97.451302,-98.414474,-91.097878,-78.268852,-64.879494,-55.420689,-51.794022,-52.796051,-55.294296,-56.223179,-54.190887,-49.88961,-45.299583,-42.348049,-41.854877,-43.269234,-45.1642,-46.070549,-45.167736,-42.555077,-39.090019,-35.950241,-34.11261,-33.920471,-34.887215,-35.849758,-35.480682,-32.982811,-28.620232,-23.73386,-20.125914,-19.079767,-20.569286,-23.176714,-24.845041,-24.060993,-20.749912,-16.302402,-12.691076,-11.2297,-11.777895,-12.909489,-12.923053,-11.004342,-7.7497101,-4.7013083,-3.2313139,-3.5655236,-4.6372018,-4.8728995,-3.3471243,-0.46985245,2.3046825,3.5632448,3.0422618,1.9417508,2.1612573,4.937129,9.8157234,14.719229,17.147415,15.785939,11.480315,6.9102163,5.1179752,7.7799573,14.272852,22.085701,28.287123,31.127993,30.827349,29.150875,28.154808,28.942011,31.181667,33.588634,34.935905,34.889626,34.156136,33.934849,35.11552,37.762856,41.167656,44.338482,46.549622,47.603592,47.729702,47.302528,46.635254,45.962513,45.524914,45.582634,46.285023,47.50584,48.841305,49.860115,50.459965,51.024258,52.151188,54.035583,55.911266,56.043407,52.474197,44.215336,32.185856,19.218927,8.9563923,4.1359429,5.2159991,10.158577,15.540099,18.37006,17.568111,14.26418,10.817208,9.2314072,9.9842863,11.959479,13.42534,13.319647,11.942591,10.612365,10.580314,12.019631,13.838359,14.47441,13.118401,10.482347,8.5170221,9.198863,13.163529,19.110502,24.425365,26.677078,25.066242,20.916328,16.900892,15.494761,17.606398,22.202946,27.08802,30.276531,31.086399,30.31879,29.524176,29.921516,31.688337,34.013126,35.759651,36.218761,35.448162,34.06282,32.742508,31.874666,31.565321,31.903055,33.141163,35.548294,38.997654,42.655396,45.136574,45.181484,42.483109,38.091576,34.022804,32.204487,33.369255,36.603783,39.886009,41.313255,40.263031,37.751492,35.763351,35.990479,38.79126,43.022602,46.808098,48.697369,48.444561,46.937096,45.406307,44.531525,44.073879,43.252354,41.516563,39.091866,36.865196,35.699425,35.71426,36.115849,35.74971,33.993362,31.312059,29.013083,28.316431,29.39875,31.15328,31.945557,30.930733,29.032505,28.820259,33.205296,43.673481,59.138721,76.17897,90.586678,99.364769,102.03349,100.55371,98.013885,96.932365,98.158302,100.87912,103.51357,104.78026,104.26637,102.29046,99.376114,95.858559,91.923615,87.947685,84.723618,83.247643,84.126228,87.028114,90.651093,93.337784,93.996925,92.724365,90.686546,89.325127,89.416748,90.629158,91.8657,92.128242,91.255844,89.99025,89.318932,89.594238,90.119041,89.568649,87.003204,82.750351,78.467606,76.231461,77.192261,80.690468,84.482056,86.006927,83.92836,78.956367,73.409477,69.78405,69.251152,71.04612,73.123894,73.614449,72.091522,69.809364,68.76976,70.271904,73.940964,77.896141,79.942383,78.976212,75.659126,71.915756,69.612808,69.324753,70.021225,69.875259,67.62336,63.534866,59.315022,56.993793,57.54213,60.148106,62.649433,62.853661,59.89349,54.746815,49.600616,46.484089,46.049389,47.25391,48.100052,46.919674,43.382454,38.631184,34.526218,32.52216,32.868706,34.557983,35.951881,35.647102,33.085766,28.668137,23.453333,18.714344,15.56886,14.739391,16.383102,19.964514,24.26436,27.667826,28.754169,26.97006,22.999512,18.519491,15.364132,14.516249,15.524964,16.745955,16.3106,13.254539,8.104825,2.5461681,-1.62669,-3.5984638,-3.9614913,-4.2163906,-5.6948557,-8.6374283,-12.047548,-14.411793,-14.785685,-13.497539,-11.987252,-11.888688,-13.978029,-17.694729,-21.544153,-24.089819,-24.854242,-24.532021,-24.409721,-25.435303,-27.604849,-30.085392,-31.954121,-32.990398,-33.920055,-35.906754,-39.631645,-44.615829,-49.297207,-51.86998,-51.374966,-48.346733,-44.600986,-42.294319,-42.840137,-46.329586,-51.754635,-57.813831,-63.738152,-69.616631,-76.069412,-83.546066,-91.739738,-99.48896,-105.20753,-107.57059,-106.0862,-101.30907,-94.675858,-88.092232,-83.415054,-81.913246,-83.772339,-87.782303,-91.430588,-91.578812,-85.649628,-72.898438,-55.120026,-36.271233,-20.991243,-12.63267,-11.791755,-16.15941,-21.835987,-25.42441,-25.739363,-24.164892,-23.478821,-25.881788,-31.454813,-38.006531,-42.405544,-42.555527,-38.755867,-33.566078,-30.238409,-30.696461,-34.343231,-38.466507,-39.999184,-37.522221,-32.231277,-27.238104,-25.63505,-28.547155,-34.413887,-39.968586,-42.304394,-40.719437,-37.167351,-35.018127,-36.904236,-43.005836,-50.853127,-56.769382,-58.05357,-54.551315,-48.664772,-43.837997,-42.49688,-44.727684,-48.47356,-51.048458,-50.947456,-48.780602,-46.753765,-47.064037,-50.266659,-54.675373,-57.197418,-55.104565,-47.671093,-36.702709,-25.660095,-17.908386,-15.102519,-16.583193,-20.029797,-22.895693,-23.761257,-22.874666,-21.681992,-21.736107,-23.679296,-26.875847,-29.841995,-31.153027,-30.265265,-27.783632,-25.054047,-23.351261,-23.153261,-23.930302,-24.572887,-24.205488,-22.889645,-21.754568,-22.4048,-25.888485,-31.821894,-38.253113,-42.473221,-42.42627,-37.949348,-31.071587,-25.077358,-22.757385,-24.813459,-29.382971,-33.052544,-32.849384,-28.064571,-20.795458,-14.822143,-13.443822,-17.5655,-25.209213,-32.761108,-37.183319,-37.801586,-36.540394,-36.467716,-39.605106,-45.443142,-51.151104,-53.363804,-50.387623,-43.379082,-35.711727,-30.931494,-30.625538,-33.581722,-36.757591,-37.380939,-34.766754,-30.648964,-27.844307,-28.198372,-31.245928,-34.520065,-35.306953,-32.637505,-28.12327,-25.013487,-26.059471,-31.602116,-39.181255,-44.969131,-46.118752,-42.502327,-36.712589,-32.347023,-31.727005,-34.564186,-38.43576,-40.707527,-40.567154,-39.755207,-41.457653,-48.067223,-59.301296,-71.961624,-81.565613,-84.86499,-81.687485,-74.967003,-68.974045,-66.876274,-69.128548,-73.603325,-77.234543,-78.016418,-76.062889,-73.143311,-71.158653,-70.700089,-70.70517,-69.410179,-65.871864,-60.927902,-56.857506,-55.911385,-58.688934,-63.49279,-67.181374,-67.060555,-62.651424,-56.200603,-51.552917,-52.006638,-58.396652,-68.521545,-78.241158,-83.613335,-82.878418,-77.239792,-70.098831,-65.241928,-64.972755,-69.109879,-75.240013,-79.969223,-80.489174,-75.733932,-66.684723,-55.793251,-45.849205,-38.800556,-35.023533,-33.35516,-31.890177,-29.195513,-25.342613,-22.160393,-22.437014,-28.354057,-39.941433,-54.474632,-67.331581,-74.03479,-72.455765,-63.932533,-52.56358,-42.964993,-37.725269,-36.0625,-34.546913,-29.530336,-19.843395,-8.073185,0.48044872,0.68323421,-9.3590956,-26.86272,-45.478561,-58.379108,-61.578358,-55.619476,-44.753391,-34.220764,-27.326323,-24.013058,-21.631382,-17.215502,-9.6993685,-0.64992225,6.8680997,10.452609,10.070264,8.1708546,8.1362829,12.073874,19.37641,26.971058,31.113041,29.628433,23.261217,15.349431,10.062608,10.246059,16.073734,25.170174,34.001492,39.680096,41.219254,39.699741,37.449276,36.805431,39.111153,44.32922,51.28133,58.250401,63.629654,66.402344,66.370773,64.135658,60.859947,57.879166,56.27145,56.540405,58.540348,61.661861,65.157028,68.409637,71.014755,72.685799,73.146957,72.175529,69.819572,66.629166,63.662407,62.14249,62.891838,65.873444,70.163132,74.42865,77.656792,79.678955,81.152252,83.003868,85.709274,88.896492,91.550995,92.682938,91.994545,90.084091,88.048828,86.774933,86.42231,86.464828,86.235397,85.549088,84.916153,85.161934,86.72612,89.180428,91.374039,92.166489,91.258293,89.514534,88.497818,89.475647,92.554916,96.542091,99.649193,100.5936,99.366516,97.170876,95.592491,95.583572,96.940758,98.594368,99.451813,99.170547,98.32328,97.883728,98.45591,99.832802,101.19582,101.76941,101.40633,100.64989,100.241,100.48184,100.98756,101.05353,100.36446,99.46244,99.531006,101.5589,105.45454,109.79548,112.50077,112.06505,108.55325,103.65915,99.733551,98.384544,99.556732,101.6862,102.81076,101.88205,99.413826,97.074471,96.552269,98.482109,102.11717,105.862,108.18517,108.23264,105.78728,100.78912,92.989487,82.172661,68.84581,54.797329,42.875851,35.841648,34.857014,38.584103,43.605682,46.089462,43.792912,37.221199,29.227877,23.297407,21.553455,23.675419,27.29772,29.530348,28.590673,24.575773,19.049242,13.893463,10.262016,8.2492027,7.2979245,6.85918,6.7468519,6.9926567,7.4669785,7.7103968,7.1909976,5.775238,3.9549394,2.5353241,1.9498014,1.7473716,0.7572372,-2.0520039,-6.5888233,-11.319113,-14.01621,-13.218476,-9.4242296,-5.0911565,-3.248703,-5.5120821,-10.820094,-15.869757,-17.149017,-13.355911,-6.6087012,-1.5166842,-2.5217991,-11.081221,-24.463428,-36.998932,-43.123878,-40.432487,-30.929478,-19.771643,-12.308266,-11.221174,-15.420213,-21.202524,-24.787861,-24.579512,-21.807467,-19.326536,-19.509932,-22.661312,-26.911674,-29.538301,-28.742186,-24.715094,-19.387192,-15.145644,-13.439675,-14.159133,-16.070316,-17.866472,-19.035131,-19.965336,-21.319164,-23.227201,-24.971481,-25.434227,-24.008686,-21.297907,-19.034788,-19.167336,-22.627047,-28.547979,-34.461315,-37.40686,-35.348568,-28.106346,-17.319124,-5.5356803,4.9839044,13.072227,18.704338,22.442492,24.778244,25.848738,25.649889,24.458408,23.01247,22.207283,22.480026,23.370367,23.686651,22.292824,19.035191,15.126634,12.592752,13.011961,16.334534,20.628422,23.069649,21.673128,16.692839,10.726392,7.3301935,8.9185209,15.241529,23.435253,29.661724,31.331409,28.501942,23.567913,19.468904,17.620216,16.951334,14.692673,8.3705282,-2.3477111,-15.217011,-26.691828,-34.061958,-37.015259,-37.595173,-38.619217,-41.666523,-46.013309,-49.219212,-48.917675,-44.541824,-37.783749,-31.487415,-27.772682,-26.721296,-26.554031,-25.181562,-22.043108,-18.926733,-19.137165,-25.479563,-38.318153,-54.931316,-70.571136,-80.599724,-82.484421,-76.622116,-65.733246,-53.378883,-42.505676,-34.685257,-30.152815,-28.297495,-28.177839,-28.866781,-29.692686,-30.487051,-31.776587,-34.684788,-40.372616,-49.171707,-59.909897,-69.981277,-76.336121,-76.960716,-71.998123,-63.772411,-55.609146,-50.109402,-47.91386,-47.705185,-47.403423,-45.735424,-43.127106,-41.342918,-42.15583,-45.989609,-51.480217,-56.258415,-58.411289,-57.621769,-55.225609,-53.1852,-52.725952,-53.589874,-54.400948,-53.836533,-51.73243,-49.307079,-48.330917,-49.826141,-53.228642,-56.627083,-57.944908,-56.269264,-52.424519,-48.403961,-46.054245,-45.908947,-46.949306,-47.42382,-46.135025,-43.30328,-40.433479,-39.31282,-40.854137,-44.574814,-49.023685,-52.794598,-55.371574,-57.212318,-59.062424,-61.073811,-62.450939,-61.956493,-58.951519,-54.202793,-49.792397,-48.063259,-50.219303,-55.489777,-61.442924,-65.299065,-65.440437,-62.187199,-57.39613,-53.207275,-50.79546,-49.922092,-49.490818,-48.610088,-47.349186,-46.649239,-47.50322,-50.066147,-53.399841,-56.068474,-57.14616,-56.868259,-56.408325,-56.918335,-58.545921,-60.196671,-60.279469,-57.928802,-53.796761,-49.767441,-47.716129,-48.162663,-49.812714,-50.393768,-48.270535,-43.720539,-38.930576,-36.641293,-38.329231,-43.178375,-48.575462,-51.808548,-51.799053,-49.669884,-47.77742,-47.931244,-50.099365,-52.527531,-53.151531,-51.221413,-47.900372,-45.376015,-45.158615,-46.884716,-48.589344,-48.295712,-45.724945,-42.76149,-42.195454,-45.578663,-51.789738,-57.489784,-59.304119,-56.247967,-50.620453,-46.601887,-47.426052,-53.081089,-60.197334,-64.266525,-62.671436,-56.40131,-49.256481,-45.152145,-45.499023,-48.546223,-51.070351,-51.003819,-48.883343,-46.950638,-46.661568,-46.768341,-43.852428,-35.282314,-22.424227,-11.258787,-9.1026192,-19.009762,-35.602768,-45.800007,-35.018757,4.3136663,67.151817,137.06653,194.20967,225.57745,231.40369,223.67966,217.62244,221.37486,230.41521,230.25708,205.82843,151.73248,77.048752,1.7292821,-53.227085,-76.005814,-68.834282,-45.167999,-21.494108,-8.8675966,-8.8274822,-15.202863,-19.720688,-17.494488,-9.2598562,0.26222599,6.0750332,6.0310388,1.6388798,-3.4190581,-5.7089677,-3.8780282,0.88647389,5.6464252,7.1693654,3.5213594,-4.5693994,-12.992639,-14.761585,-2.1740866,29.702923,79.644638,139.0088,194.03024,231.2774,243.80479,234.62543,215.22865,199.59137,196.88092,207.03758,221.84875,230.82964,228.23569,216.78587,205.72105,204.40927,215.56253,232.42018,241.79349,231.23061,196.05153,142.16179,83.181885,33.799679,3.2511294,-7.6386218,-4.8656173,3.177983,9.9656668,12.675441,11.333035,6.7498403,-0.84723312,-11.600487,-24.810694,-38.127064,-48.126919,-52.068233,-49.579304,-43.004704,-36.073048,-31.758821,-30.777197,-31.669977,-32.291943,-31.539186,-30.067308,-29.557199,-31.175642,-34.444008,-37.379936,-37.803909,-34.839615,-29.510803,-24.017958,-20.243942,-18.577866,-17.880993,-16.56435,-13.942261,-10.849621,-9.0727272,-10.016406,-13.577597,-18.035839,-21.041027,-21.015636,-18.029938,-13.61195,-9.7017403,-7.5106163,-7.030756,-7.4144554,-7.8166733,-8.0218573,-8.4220514,-9.4544249,-11.019953,-12.388527,-12.686696,-11.590145,-9.6689243,-8.0860157,-7.833518,-9.0408306,-10.848572,-11.944803,-11.398705,-9.2308931,-6.3584709,-3.9896955,-2.9028666,-3.0823505,-3.9001124,-4.6460538,-5.0006914,-5.1376553,-5.4427652,-6.1097002,-6.9273472,-7.3989072,-7.0793719,-5.8775926,-4.1271892,-2.414217,-1.3068535,-1.1508121,-1.9945136,-3.5967045,-5.4515376,-6.8392787,-6.9828348,-5.3570957,-2.0560668,2.0155311,5.3514214,6.4719,4.6970072,0.61808556,-4.07127,-7.3663812,-7.9522119,-5.8402381,-2.2667124,1.0731525,2.9736357,3.2707503,2.7010629,2.2323394,2.3623602,2.8590958,3.0695887,2.5128963,1.2884411,0.00071045145,-0.7156058,-0.67904395,-0.26369289,-0.035997622,-0.21714061,-0.41551697,0.12070652,1.8881874,4.6161618,7.2891831,8.7576513,8.5343189,7.1854424,5.9698596,5.9131851,6.9520559,7.8070974,6.7820458,3.0327666,-2.5478954,-7.5174732,-9.168931,-6.1954207,0.30947441,7.2204933,11.002572,9.6763697,3.9636986,-3.0886917,-7.8056359,-7.9123683,-3.7228897,2.1647103,6.4246001,6.8573179,3.4743488,-1.7323526,-6.0811872,-7.7155962,-6.4704704,-3.6941831,-1.2783284,-0.56068963,-1.7298317,-3.9624791,-6.0624247,-7.1364164,-6.9344268,-5.7767525,-4.2530627,-2.9464486,-2.3106511,-2.6533089,-4.1043205,-6.5190234,-9.3966608,-11.950309,-13.381167,-13.244977,-11.688643,-9.3837194,-7.1722131,-5.6390333,-4.8829064,-4.6230607,-4.5418801,-4.5951977,-5.0479908,-6.2007298,-8.0127468,-9.9258919,-11.06648,-10.738647,-8.9013166,-6.3033214,-4.1559653,-3.5137534,-4.7207732,-7.2381954,-9.9370041,-11.669275,-11.797174,-10.422367,-8.2576904,-6.2719188,-5.3097501,-5.8325696,-7.818327,-10.79192,-13.956838,-16.423416,-17.513002,-17.050407,-15.495599,-13.792171,-12.946959,-13.53237,-15.391445,-17.738626,-19.617838,-20.450415,-20.338303,-19.942801,-20.035955,-21.03236,-22.802572,-24.856476,-26.719984,-28.211445,-29.433325,-30.541574,-31.535023,-32.274666,-32.719669,-33.141453,-34.05159,-35.803909,-38.144672,-40.120686,-40.560429,-38.909904,-35.851891,-33.163898,-32.739491,-35.318901,-39.802605,-43.748642,-44.891556,-42.75211,-39.201797,-37.433651,-39.856667,-46.269115,-53.642242,-57.865234,-56.439545,-50.289696,-43.232052,-39.111183,-38.291401,-35.939472,-23.708061,5.6232834,53.048859,110.97857,165.53345,202.7531,215.49094,207.06473,189.37088,176.32919,176.33244,188.08832,202.30676,208.18526,200.679,183.97279,168.8407,165.37407,175.56761,190.56328,194.67107,174.16479,125.79345,59.867104,-4.1844339,-47.495316,-61.284267,-50.840477,-31.783587,-20.839615,-26.438328,-44.367615,-60.657497,-59.711136,-32.913483,16.950405,77.426811,132.7048,170.69934,187.27252,186.11156,175.34518,163.37607,156.04163,155.72755,161.70596,170.67107,177.15958,174.41177,156.32957,120.31017,69.574234,13.224833,-36.751968,-70.468071,-84.500587,-83.073471,-75.230301,-69.633408,-70.151955,-74.89566,-79.044899,-79.238289,-76.205322,-73.601555,-73.829735,-74.062424,-65.917969,-39.912113,7.6467977,69.875107,130.46884,171.13078,181.4384,165.24065,139.23398,123.8731,131.52528,158.77795,187.6494,195.30501,166.83212,103.76839,23.573503,-49.444805,-96.338547,-111.91451,-105.00113,-91.294456,-83.720764,-86.174789,-93.776672,-98.424652,-95.284782,-85.849884,-76.033226,-71.315544,-72.782867,-76.873512,-78.709908,-76.231834,-71.869713,-70.469406,-75.092255,-83.999573,-91.327126,-91.222046,-82.529564,-70.469017,-63.687317,-68.324699,-83.000443,-98.269119,-101.26286,-82.802429,-42.572693,10.81091,64.689369,108.86919,139.55447,158.48473,168.4949,169.17943,156.14076,124.57881,74.674561,14.668304,-41.115059,-78.673897,-91.440399,-83.669479,-67.898811,-57.967457,-61.803345,-78.189087,-99.053452,-115.33704,-122.44745,-121.98457,-119.17266,-118.31606,-119.67228,-119.81225,-114.8868,-104.15953,-91.107773,-81.273911,-78.459518,-82.05957,-87.511513,-89.603859,-86.345596,-80.670372,-78.715561,-85.747383,-102.40142,-123.71256,-141.59082,-149.19885,-144.54489,-131.20171,-115.91977,-104.77151,-100.18064,-100.42031,-101.5306,-100.20227,-95.816406,-90.588226,-88.013306,-90.739487,-99.106277,-111.00212,-122.88243,-131.2641,-133.97105,-130.70573,-122.89386,-112.99215,-103.55082,-96.347786,-91.899689,-89.551498,-88.113762,-86.71582,-85.36898,-84.857948,-85.996475,-88.745888,-91.863777,-93.445129,-92.097595,-87.978355,-82.913383,-79.387314,-78.979218,-81.271347,-84.0168,-84.536263,-81.467392,-75.71125,-69.930168,-66.916542,-67.907806,-71.93998,-76.6026,-79.603371,-80.048592,-78.63533,-76.788338,-75.522247,-74.914711,-74.492271,-74.044044,-74.032478,-75.152061,-77.390572,-79.496323,-79.542763,-76.399147,-71.036346,-66.475845,-66.060928,-71.039528,-79.210373,-85.89267,-86.915985,-81.722084,-74.245377,-70.487114,-73.94902,-81.84388,-84.935493,-71.795837,-35.403728,21.784033,87.590408,145.26865,181.35789,191.84782,183.22708,168.0488,157.86752,157.75824,165.3367,174.19888,179.00125,178.7269,176.31821,175.53641,177.73332,180.99124,182.1021,179.64357,175.59621,174.0977,178.16553,186.86621,195.22978,197.28743,190.3067,177.26836,165.64938,162.99075,171.90132,187.61407,199.66853,196.79593,172.26859,126.93978,68.790649,9.8202009,-37.770592,-64.465782,-64.950188,-38.776726,9.2920904,69.511711,128.80492,174.30617,197.93324,199.79408,188.15137,175.28072,171.0618,177.87314,189.95222,197.80727,195.0356,183.14665,171.02185,168.99414,181.12012,200.68469,212.2354,199.47063,154.57585,83.499535,3.9341593,-62.964909,-102.46989,-112.34467,-102.09336,-86.450783,-77.302483,-78.625671,-86.719193,-94.610123,-97.256493,-94.266853,-88.966049,-85.159981,-84.224785,-84.504166,-83.11692,-78.565071,-72.133263,-67.111031,-66.492905,-70.846733,-77.831848,-83.64283,-85.350632,-82.591309,-77.586243,-73.617462,-73.02771,-75.986916,-80.650871,-84.427277,-85.462494,-83.48629,-79.676239,-75.816414,-73.347664,-72.817215,-73.891838,-75.765854,-77.65416,-79.123466,-80.171272,-81.09639,-82.268478,-83.910606,-85.984879,-88.225143,-90.291367,-91.952202,-93.178902,-94.091072,-94.804131,-95.311523,-95.512962,-95.377335,-95.095825,-95.059387,-95.623375,-96.814087,-98.224693,-99.23848,-99.463326,-99.057022,-98.655296,-98.897461,-99.881943,-101.00139,-101.36734,-100.58098,-99.27282,-98.916603,-100.91325,-105.51545,-111.37657,-116.15266,-117.86168,-116.12325,-112.4137,-109.1178,-108.00451,-109.18449,-111.27702,-112.63512,-112.68675,-112.35348,-113.20909,-116.03735,-119.97301,-123.01784,-123.6488,-122.27201,-121.2024,-122.82569,-126.99603,-129.5267,-123.17129,-100.96516,-60.184925,-4.5943098,56.462677,111.72988,152.48398,175.43507,182.83376,180.23868,173.5867,167.19135,163.27724,162.51596,164.60658,168.41794,172.00983,173.17416,170.64838,165.28564,160.06804,158.45552,161.86652,168.07874,172.07834,169.298,159.28398,147.0602,140.62598,145.57736,160.10942,173.94614,172.59396,144.95129,89.920731,17.962736,-53.533665,-108.41144,-138.63708,-146.01694,-138.21202,-122.14227,-99.355522,-66.343254,-19.26021,40.542774,104.29323,158.71257,192.41081,201.75652,192.55653,176.57513,165.12993,163.62555,170.01204,177.5289,179.54152,173.37143,161.12166,147.62492,137.30893,132.0204,130.79993,131.19841,130.94705,128.97647,125.52308,121.67445,118.80154,118.04737,119.82414,123.37537,126.7316,127.42049,123.86277,116.72807,109.20996,105.62215,108.77908,117.60615,126.56425,127.54021,113.38663,81.267532,34.085999,-20.551943,-72.974945,-114.14725,-137.32245,-138.61122,-117.20502,-75.865494,-21.423536,35.722347,83.936386,114.15449,123.45235,116.2422,102.03858,90.750404,88.064537,93.518143,102.18006,108.57563,110.1581,108.16642,105.69373,104.76864,104.79124,103.42767,99.046867,92.558182,87.027779,85.302422,87.573982,90.985481,91.802116,88.546333,83.531059,81.303711,84.929863,92.957993,99.713913,99.203514,90.004799,77.33831,70.152756,74.61058,88.318665,99.727478,93.951935,61.838852,6.5009112,-57.24778,-110.65799,-141.32301,-149.43349,-145.98,-144.14821,-149.68349,-156.69991,-151.76158,-123.50944,-71.3936,-7.6789789,48.630512,82.026749,88.411026,75.980904,59.109043,49.633236,51.152203,59.341427,67.012733,69.712067,67.963928,65.27536,64.279015,64.488472,63.411217,59.739517,55.485535,54.734898,59.549774,66.20311,65.204399,46.072189,4.2477388,-54.448811,-115.23492,-161.36272,-182.66228,-180.4319,-165.74025,-152.39954,-149.16295,-155.92409,-165.80844,-171.11668,-168.79298,-161.8705,-156.44279,-156.82259,-162.53099,-169.0954,-171.71419,-168.85098,-163.11835,-159.01532,-159.44551,-163.71201,-168.38705,-170.18903,-168.52347,-165.74278,-165.05186,-167.83434,-172.56061,-176.11029,-176.38057,-174.0247,-171.8792,-172.52611,-175.99019,-179.5266,-179.80537,-175.81694,-170.10388,-167.11934,-169.78027,-176.87218,-183.54184,-184.84872,-179.86282,-173.02731,-171.2226,-178.10641,-189.63203,-194.34308,-179.07893,-136.99533,-72.887558,-2.1484883,56.433369,89.939522,97.210922,88.046631,76.568214,73.095154,79.443062,89.992653,97.034546,96.381332,89.597122,81.927818,78.046608,78.947418,82.050537,83.973724,83.485489,82.270767,83.06768,86.890953,91.757378,94.067131,91.597633,85.680809,80.669762,80.882294,87.244843,96.258636,102.28741,101.67721,95.71138,90.058319,90.792557,99.561378,111.23122,115.80424,103.59521,70.543312,20.530493,-36.390739,-88.378372,-125.97322,-143.94209,-140.69473,-116.89142,-74.998955,-20.145786,39.057262,91.540031,127.20637,141.27309,136.77458,123.20961,111.67188,109.20069,115.76366,125.63961,132.07846,131.98163,127.48109,123.60345,124.02315,128.20413,132.06786,131.5847,126.40868,120.59023,119.6146,125.90639,136.31924,143.85838,142.76627,133.38165,122.93379,121.04301,132.47513,152.00395,165.31664,156.16736,115.83504,49.150219,-26.794554,-90.7519,-127.624,-135.09398,-123.08691,-106.94382,-98.774742,-102.06272,-112.07822,-120.86958,-123.02739,-118.56224,-111.67064,-107.02379,-106.56075,-108.89896,-111.27953,-112.14519,-112.25575,-113.63716,-117.44729,-122.64517,-126.62271,-127.33643,-125.24165,-123.42912,-125.70509,-133.92314,-146.49104,-159.17986,-167.73468,-170.50801,-169.32018,-167.99559,-169.62999,-174.47943,-179.86932,-182.08659,-178.87228,-170.80026,-160.69009,-151.60031,-144.88513,-139.64848,-133.85986,-126.20485,-117.27201,-109.222,-104.21409,-102.75863,-103.20479,-102.76089,-99.372704,-93.197388,-86.689293,-83.23542,-85.204399,-92.598732,-103.0578,-113.09229,-119.72588,-121.60014,-119.06303,-113.43754,-106.0946,-97.909889,-89.281532,-80.471878,-71.891281,-64.119125,-57.748642,-53.292454,-51.273937,-52.375015,-57.354305,-66.565781,-79.246681,-93.057968,-104.37605,-109.46529,-106.09288,-94.747375,-78.690567,-62.64183,-50.665989,-44.353195,-42.29755,-41.202023,-38.024204,-31.961246,-25.129705,-21.517574,-24.766779,-36.016064,-53.00341,-70.913048,-84.478195,-90.188011,-87.468796,-78.368279,-66.137497,-53.646938,-42.49477,-33.078278,-25.239832,-18.813347,-13.647811,-9.2400656,-4.5202379,1.7355105,9.9163971,18.655497,24.800917,24.658726,16.04591,0.010216984,-18.935982,-34.460476,-41.217129,-37.328785,-25.158695,-9.9296446,3.0144238,10.743991,13.69964,14.691644,16.748386,21.230162,27.315924,32.98682,36.652061,38.228985,38.980976,40.35051,42.730618,45.11694,45.900543,44.206879,40.774445,37.688259,37.105991,39.845524,44.82349,49.752476,52.63269,53.022488,52.228836,52.312515,54.621681,58.881302,63.458031,66.585297,67.659424,67.677162,68.501343,71.474678,76.366959,81.409927,84.416092,84.220818,81.464874,78.19046,76.54026,77.4496,80.201721,83.097359,84.72039,84.895248,84.688828,85.508881,87.988976,91.478683,94.49752,95.806091,95.304848,94.105766,93.726891,94.996819,97.464111,99.739571,100.52378,99.57663,97.926292,97.162369,98.317253,101.13725,104.26405,106.1918,106.30616,105.25461,104.38585,104.67921,105.96567,107.03783,106.59489,104.33835,101.38861,99.655464,100.55189,103.94947,108.15437,110.99192,111.29582,109.76797,108.56221,109.81224,114.07693,119.78831,124.14597,124.92628,122.01883,117.62983,114.94209,116.04337,120.45091,125.21534,126.59679,122.30577,112.9391,101.742,92.858917,89.136154,90.751526,95.378265,99.641411,100.9135,98.43045,93.258606,87.384346,82.639641,80.085754,80.009865,82.235657,86.331635,91.550972,96.696678,100.2535,100.92928,98.362503,93.503731,88.297394,84.731125,83.776207,84.876419,86.327003,86.321823,84.013199,79.931076,75.541519,72.293243,70.808319,70.722939,71.194107,71.62352,72.036278,72.860359,74.336006,76.078171,77.193672,76.911873,75.25576,73.198128,72.095123,72.728989,74.627159,76.19381,75.654716,72.240799,66.824463,61.545311,58.613323,59.024929,61.994736,65.444839,67.211487,66.184662,62.679253,57.878986,52.814182,47.61264,41.522987,33.640762,23.774481,12.813606,2.3359146,-6.2601352,-12.488461,-16.883089,-20.452614,-23.915171,-27.27673,-30.028652,-31.759018,-32.661148,-33.509933,-35.101116,-37.58569,-40.251549,-41.995121,-42.204372,-41.417671,-41.212013,-43.273769,-48.187363,-54.733295,-60.221996,-61.756332,-57.724861,-48.664547,-37.005833,-25.878586,-17.689236,-13.252222,-11.857289,-12.068456,-12.660748,-13.131189,-13.594297,-14.303226,-15.231339,-16.014202,-16.230412,-15.747671,-14.848641,-14.05516,-13.806863,-14.237461,-15.179704,-16.335104,-17.433393,-18.267141,-18.646738,-18.426039,-17.687325,-16.988277,-17.426638,-20.325605,-26.594687,-36.106152,-47.519955,-58.770729,-68.01442,-74.491241,-78.75843,-82.115738,-85.570251,-89.009796,-91.143097,-90.270355,-85.39341,-76.934837,-66.586472,-56.389069,-47.669037,-40.561211,-34.448132,-29.004328,-25.081423,-24.723665,-30.149105,-42.228424,-59.389458,-77.704468,-92.266838,-99.218361,-97.394234,-88.737129,-77.284012,-67.269363,-61.311901,-59.548153,-60.038502,-60.111904,-57.882523,-53.162186,-47.369743,-42.583447,-40.310627,-40.663769,-42.389908,-43.734428,-43.660904,-42.727757,-43.066437,-47.361435,-57.286942,-72.212448,-88.936562,-102.72655,-109.25821,-106.53115,-95.783142,-80.910904,-66.675285,-56.61161,-51.705425,-50.452732,-50.149075,-48.597881,-45.264412,-41.30291,-38.584599,-38.418629,-40.760963,-44.322769,-47.399006,-48.823952,-48.464127,-47.031422,-45.459465,-44.321999,-43.656174,-43.207703,-42.810314,-42.561752,-42.674446,-43.172112,-43.738628,-43.898113,-43.41766,-42.608021,-42.232761,-43.015518,-45.0574,-47.596363,-49.346088,-49.259563,-47.240162,-44.308708,-42.06073,-41.711571,-43.318527,-45.685844,-47.041393,-46.088364,-42.795605,-38.450397,-34.952778,-33.787247,-35.279137,-38.53595,-42.037979,-44.467598,-45.278202,-44.732803,-43.505535,-42.191208,-41.053211,-40.107121,-39.37175,-39.018902,-39.273014,-40.1465,-41.255592,-41.918816,-41.525192,-39.93494,-37.615459,-35.377846,-33.856155,-33.06987,-32.377182,-30.878693,-28.026167,-24.045166,-19.891169,-16.762428,-15.478143,-16.109808,-18.069363,-20.545771,-22.956612,-25.103598,-26.967112,-28.365217,-28.81613,-27.788462,-25.203171,-21.802074,-19.020464,-18.312536,-20.28067,-24.168896,-28.121159,-30.1467,-29.261036,-26.105871,-22.629025,-20.976906,-22.254644,-25.913458,-30.142311,-33.008934,-33.616875,-32.540615,-31.276386,-31.098166,-32.103413,-33.108414,-32.483707,-29.381594,-24.525646,-19.998156,-18.107183,-20.017733,-24.99757,-30.750612,-34.635975,-35.037422,-32.087482,-27.384436,-22.966482,-20.221163,-19.364225,-19.689394,-20.285301,-20.672106,-20.959755,-21.52243,-22.525162,-23.69306,-24.479092,-24.460728,-23.634014,-22.380335,-21.157816,-20.186205,-19.384121,-18.593613,-17.8762,-17.593092,-18.156282,-19.623743,-21.479628,-22.839037,-23.000347,-21.968824,-20.531002,-19.738209,-20.081717,-20.914358,-20.574144,-17.232718,-9.9981785,0.41200638,11.883771,21.91959,28.859512,32.581482,34.280251,35.509251,37.12661,38.823879,39.510979,38.259693,35.143463,31.390926,28.73245,28.355499,30.145763,32.712215,34.199116,33.395348,30.4709,26.903481,24.648466,25.045853,28.089607,32.449078,36.190758,37.76796,36.737041,33.853115,30.560129,28.202896,27.394026,27.836473,28.632935,28.863565,28.10391,26.622534,25.186136,24.604967,25.274456,26.955973,28.908424,30.294437,30.639778,30.091061,29.323503,29.141296,29.993719,31.690868,33.502106,34.600033,34.598305,33.852665,33.314674,33.989418,36.301552,39.759521,43.154999,45.222332,45.389809,44.170029,42.924316,43.101723,45.378986,49.211884,53.086094,55.348236,55.147465,52.937424,50.234928,48.761452,49.451656,51.885998,54.452633,55.125576,52.413727,45.981243,36.675072,26.053568,15.759696,7.0830541,0.84075844,-2.5448318,-2.9970732,-0.88078403,2.8594034,6.7560463,9.2305422,9.257472,6.9252815,3.4957113,0.81415868,0.32783344,2.2641585,5.48456,8.1469126,8.8071451,7.2916284,4.7914176,3.1093309,3.5358329,6.0766935,9.5360842,12.396757,13.9039,14.603414,15.930006,19.070377,23.835197,28.319746,29.669189,25.575836,15.65479,1.8803524,-12.198986,-23.042631,-28.62673,-29.086082,-26.227734,-22.302515,-18.791798,-15.862628,-12.671699,-8.1801481,-1.9002504,5.8533931,14.235202,22.335604,29.443464,34.938374,37.995491,37.481667,32.309547,22.164217,8.1699686,-7.0181384,-19.937704,-27.611456,-28.766224,-24.299837,-16.694704,-8.6686602,-1.8064721,4.0521407,10.319424,18.359755,28.165234,37.819897,44.116722,44.029034,36.248932,21.975687,4.5660753,-11.7207,-23.212103,-27.850361,-25.42466,-17.148542,-5.0080962,8.7448816,21.866266,32.332539,38.692802,40.539993,38.816444,35.609322,33.339901,33.664772,36.686764,40.980232,44.477562,45.720455,44.718018,42.876144,42.046474,43.311535,46.293575,49.424965,50.979916,50.169544,47.581989,44.711601,42.941792,42.693939,43.29884,43.613602,42.885643,41.226486,39.386662,38.062355,37.308243,36.52602,35.030285,32.723843,30.309652,28.816599,28.765985,29.630527,30.071674,28.875685,25.952858,22.63921,20.977262,22.369251,26.490681,31.24938,33.91478,32.755634,28.153145,22.464758,18.708069,18.882292,22.951195,29.050701,34.686687,38.096317,38.940842,38.036163,36.497536,34.999935,33.640739,32.345291,31.321449,31.078194,31.952507,33.574768,34.837837,34.575089,32.556103,30.040768,29.32567,32.390038,39.447083,48.405956,55.748589,58.412544,55.555019,49.065781,42.449394,38.737648,38.736145,40.711166,41.699295,39.571381,34.499279,28.875231,25.754374,26.853172,31.411892,36.646473,39.473381,38.379105,34.24696,29.661728,27.202333,27.852665,30.526978,32.940624,33.184547,30.950636,27.643627,25.376411,25.56123,28.022148,31.161551,33.006832,32.418659,29.692898,26.231197,23.56752,22.420099,22.363432,22.271019,21.176155,18.960316,16.433342,14.788028,14.810207,16.356331,18.413986,19.682346,19.295715,17.247799,14.280527,11.335052,8.9199162,6.7842898,4.0892658,-0.028876193,-5.8368325,-12.68895,-19.209583,-23.88895,-25.784275,-24.964924,-22.478516,-19.866453,-18.482849,-18.955282,-21.030739,-23.838469,-26.391312,-28.050272,-28.733427,-28.813665,-28.817923,-29.121899,-29.795858,-30.641954,-31.351282,-31.665096,-31.461098,-30.758606,-29.688814,-28.473003,-27.410244,-26.839334,-27.046587,-28.139948,-29.960693,-32.109093,-34.103401,-35.60268,-36.565788,-37.237247,-37.949394,-38.848907,-39.721836,-40.050766,-39.306938,-37.329163,-34.563774,-31.991674,-30.731174,-31.494579,-34.18269,-37.855999,-41.135937,-42.857162,-42.641552,-41.084763,-39.44067,-38.95562,-40.201824,-42.767845,-45.475227,-47.000828,-46.561172,-44.28574,-41.090698,-38.153721,-36.312134,-35.727909,-35.978378,-36.46096,-36.819153,-37.11425,-37.663303,-38.696777,-40.101563,-41.433395,-42.177429,-42.056332,-41.164783,-39.853031,-38.478798,-37.238705,-36.207413,-35.519047,-35.482132,-36.454929,-38.512367,-41.157085,-43.373249,-44.1194,-43.018475,-40.776024,-38.94035,-39.011845,-41.376141,-44.753975,-46.632912,-44.568481,-37.661003,-27.318161,-16.768551,-9.5130148,-7.5542202,-10.411559,-15.487638,-19.56164,-20.528267,-18.381437,-14.923827,-12.462497,-12.337498,-14.181516,-16.313091,-16.959427,-15.521163,-13.110007,-12.059745,-14.720461,-22.227833,-33.900658,-47.53125,-60.352047,-70.157043,-76.053101,-78.560883,-79.108398,-79.208397,-79.698036,-80.35746,-80.054749,-77.352005,-71.305969,-62.084499,-51.064617,-40.304821,-31.613085,-25.697981,-21.910765,-18.798592,-15.215148,-11.347661,-8.981451,-10.711202,-18.430349,-31.918831,-48.385105,-63.337059,-72.415955,-73.261513,-66.433235,-54.92907,-42.618431,-32.484081,-25.61306,-21.382629,-18.567907,-16.589338,-16.106356,-18.624086,-25.4074,-36.408436,-49.880608,-62.924244,-72.660553,-77.386093,-77.097725,-73.153839,-67.317902,-60.75227,-53.527412,-44.907627,-34.235817,-21.900007,-9.7944546,-0.92842448,1.7278767,-3.3492782,-15.271598,-30.750469,-45.170731,-54.287544,-55.779514,-49.946583,-39.266682,-27.099358,-16.236712,-8.0200682,-2.3667076,1.4915234,4.136167,5.5361691,5.2854853,3.2482312,0.07970272,-2.810262,-3.89025,-2.3534968,1.3713499,5.7946649,9.1478615,10.31852,9.3990984,7.5553522,6.3306546,6.8110747,9.111927,12.413774,15.451568,17.142084,17.030283,15.395973,13.057601,11.021316,10.125233,10.773667,12.813581,15.589441,18.191044,19.83843,20.252289,19.806274,19.330276,19.621923,20.926722,22.715492,23.94397,23.685087,21.763739,18.980314,16.738386,16.263023,17.872322,20.755707,23.41144,24.489574,23.535261,21.194233,18.779869,17.490471,17.756866,19.086981,20.445965,20.892391,20.078793,18.363317,16.546034,15.449523,15.590569,17.060081,19.570244,22.562872,25.32472,27.141964,27.539133,26.555853,24.893908,23.74749,24.276695,26.934662,31.037186,34.913261,36.674458,35.251476,31.116379,26.217823,23.075827,23.480646,27.510738,33.445576,38.658367,41.013779,39.996479,36.943176,34.260292,34.085709,37.157269,42.510303,48.130188,52.132744,53.760624,53.62793,53.121696,53.384056,54.542122,55.678478,55.554081,53.604614,50.5382,48.096199,48.065521,51.130013,56.298805,61.335743,64.003883,63.401665,60.548351,57.784004,57.265724,59.4384,62.449417,62.967705,58.032272,46.891029,31.721033,16.724703,6.0392036,1.6192671,2.3069932,4.6323442,4.8797574,1.2148381,-5.3620157,-11.759776,-14.750031,-12.935717,-7.5681119,-1.7704933,1.3051443,0.24760969,-3.9601762,-8.7221394,-11.486012,-11.229403,-8.9073534,-6.6862793,-6.5360408,-9.0867252,-13.404662,-17.710953,-20.484795,-21.226601,-20.468279,-19.158012,-17.938612,-16.834082,-15.503266,-13.787703,-12.084041,-11.231392,-11.98461,-14.460851,-17.971104,-21.372723,-23.708084,-24.696831,-24.761288,-24.598259,-24.624235,-24.691545,-24.261969,-22.887142,-20.632002,-18.130667,-16.241297,-15.553644,-16.097492,-17.436621,-19.044201,-20.656515,-22.340754,-24.249718,-26.289206,-27.993469,-28.740641,-28.164516,-26.450256,-24.270586,-22.384869,-21.182386,-20.504869,-19.879063,-18.977528,-17.94194,-17.29859,-17.511042,-18.516113,-19.637878,-20.01041,-19.244524,-17.841242,-16.985443,-17.781599,-20.429039,-23.944269,-26.708628,-27.544544,-26.599741,-25.367599,-25.706375,-28.41069,-32.268112,-34.315456,-31.292763,-21.518608,-6.0811787,11.412936,26.46125,35.784443,38.781181,37.556435,35.587933,35.840958,39.375515,45.114296,50.733601,54.044151,54.073822,51.365788,47.513016,44.328457,43.11628,44.307934,47.463856,51.50074,55.02652,56.746647,55.91732,52.728302,48.3993,44.804794,43.658485,45.581581,49.550148,53.105686,53.338722,48.218224,37.607983,23.440691,8.950963,-2.6457815,-9.3776464,-11.087531,-9.1697979,-5.7130198,-2.5271108,-0.48987067,0.59586817,1.7127208,4.129714,8.90312,16.487661,26.490784,37.595383,47.707722,54.381752,55.484409,49.928238,38.198177,22.420694,5.8824835,-7.8687124,-16.028189,-17.287001,-12.084557,-2.3142846,9.3673153,20.361177,28.80584,33.934536,36.058048,36.242962,35.831589,35.964703,37.230663,39.498478,41.935093,43.181145,41.665165,36.041351,25.704752,11.258869,-5.271132,-20.691652,-31.43783,-34.73568,-29.691765,-17.782076,-2.4016504,12.432123,23.665846,30.305532,33.435871,35.132694,36.869335,38.349232,37.503918,31.743437,19.79497,3.0576084,-14.393998,-27.296152,-31.466133,-25.681,-12.179997,4.4482017,19.363405,29.436157,34.111904,34.899937,33.99324,32.940083,32.116283,31.141125,29.753887,28.4188,28.190714,29.942823,33.538551,37.59433,40.093578,39.532696,35.898701,30.845163,26.910904,26.206963,29.318018,35.02858,40.991737,44.920921,45.629669,43.39917,39.588428,35.826588,33.288685,32.395695,32.950294,34.461098,36.379299,38.148365,39.18108,38.94915,37.245789,34.469711,31.664505,30.149673,30.850674,33.691296,37.452621,40.269379,40.549713,37.817871,32.98513,27.873579,24.257147,22.974289,23.617096,24.943693,25.718477,25.439993,24.518,23.838354,24.052156,25.087753,26.207279,26.543753,25.722771,24.122147,22.585222,21.794641,21.762049,21.814489,21.109581,19.324205,17.014086,15.34589,15.335985,17.092575,19.595034,21.208254,20.639381,17.727821,13.547944,9.7484426,7.5619817,7.1399698,7.6407509,7.972044,7.6273365,6.9927959,6.8953848,7.7429824,8.9518089,9.1878672,7.355279,3.6510081,-0.16262487,-1.6630225,0.57342458,5.6114888,10.114777,9.8845062,2.2113311,-12.355006,-29.978872,-45.401875,-54.670116,-57.122261,-55.457649,-53.882057,-55.519924,-60.712109,-67.206841,-71.997055,-73.490601,-72.523911,-71.55722,-72.656036,-75.710075,-78.191238,-76.702652,-69.331322,-57.226471,-44.294098,-35.117542,-32.377312,-35.37957,-40.594513,-43.829777,-42.658115,-37.625095,-31.604301,-27.857374,-28.108601,-31.801748,-36.832771,-41.075649,-43.596897,-44.81591,-45.695179,-46.720207,-47.490261,-47.193939,-45.525707,-43.255123,-41.930977,-42.874664,-46.179882,-50.47134,-53.654079,-54.183243,-52.009655,-48.574093,-45.876175,-45.264202,-46.749214,-49.243759,-51.468105,-52.827862,-53.647758,-54.664654,-56.242729,-57.962818,-58.92606,-58.542412,-57.179424,-56.124252,-56.812248,-59.831604,-64.413902,-68.80835,-71.326988,-71.37252,-69.76062,-68.128288,-67.843033,-69.157707,-71.165115,-72.538857,-72.504189,-71.349899,-70.146782,-69.920921,-70.912827,-72.469551,-73.628998,-73.928444,-73.788376,-74.129944,-75.463081,-77.116608,-77.246254,-73.752693,-65.602722,-53.713326,-40.773933,-30.024416,-23.664198,-21.815657,-22.638323,-23.499971,-22.489666,-19.389002,-15.583682,-13.050056,-13.078296,-15.489337,-18.748068,-20.824036,-20.249664,-16.789083,-11.429177,-5.8113294,-1.4852488,0.63647121,0.44862211,-1.4917728,-4.25035,-6.7970653,-8.2419901,-8.0420837,-6.1701546,-3.1737573,-0.035810813,2.1718783,2.7202852,1.5301026,-0.81596106,-3.3717926,-5.2747602,-6.0996537,-5.9466047,-5.2624412,-4.5474777,-4.137115,-4.1534767,-4.5826731,-5.3556685,-6.3498912,-7.3389382,-7.9963269,-8.0279245,-7.383595,-6.3850284,-5.6157808,-5.5725942,-6.2781014,-7.1447701,-7.2616715,-5.9948277,-3.5335484,-0.9750641,0.21159951,-0.90460682,-3.9839518,-7.3863597,-8.9915056,-7.4880991,-3.4027748,0.79306388,1.6843688,-3.4146399,-14.95919,-30.639042,-46.124126,-56.759682,-59.42152,-53.695377,-41.904179,-28.052946,-16.218155,-9.0785198,-7.1464791,-8.9190407,-11.793204,-13.316068,-12.243647,-8.9794178,-5.225256,-3.0196717,-3.6288528,-6.8505807,-11.106114,-14.290172,-14.921893,-12.94438,-9.700325,-7.0920501,-6.4352131,-7.7145681,-9.7003775,-10.827512,-10.237816,-8.2819328,-6.1558461,-4.9596925,-4.8864608,-5.1661825,-4.8443317,-3.8351991,-3.4254713,-5.7304263,-12.330209,-22.941748,-35.056652,-44.905907,-49.257118,-46.983959,-39.46703,-29.624414,-20.236752,-12.640822,-6.5493655,-0.94637227,4.7172198,9.9399042,13.580137,14.854403,14.057775,12.36423,10.802178,9.2013063,6.0181212,-0.65299904,-11.481753,-24.854845,-37.254532,-44.993965,-46.257626,-42.081146,-35.541954,-29.628839,-25.211113,-20.545036,-12.771822,-0.49525523,14.299958,26.425524,29.912422,21.369184,2.2829542,-21.176579,-40.833797,-50.201584,-47.185272,-34.446281,-17.478392,-1.6984408,9.7850237,16.712873,20.654295,23.416256,25.967491,28.352938,30.290909,31.751137,33.018677,34.300644,35.354034,35.572021,34.531357,32.552727,30.746767,30.391932,32.03212,34.960609,37.531559,38.155132,36.316002,32.90062,29.589264,27.730135,27.487848,27.861227,27.536974,25.937389,23.683369,22.130568,22.33054,24.206497,26.58275,28.07061,28.155302,27.645451,28.091951,30.550749,34.591862,38.34016,39.622726,37.483425,32.997112,28.737526,27.163252,28.961885,32.482758,34.700714,33.134338,27.480793,19.884445,13.639423,11.155342,12.505083,15.498359,17.232626,16.119295,13.08532,11.187903,13.885073,23.023001,37.729542,54.800182,70.255791,81.117752,86.447342,87.250366,85.545868,83.287918,81.727226,81.364037,82.229759,84.120003,86.60244,88.925072,90.087135,89.203041,86.007423,81.161232,76.089279,72.373764,71.035423,72.125748,74.858932,78.163628,81.275146,83.994919,86.501915,88.921799,91.016228,92.245094,92.164482,90.864296,89.103714,88.000702,88.434471,90.521652,93.494797,96.07132,97.109581,96.188141,93.801262,91.089813,89.27626,89.107361,90.569901,92.981911,95.373711,96.954453,97.447937,97.16021,96.765038,96.912598,97.844254,99.201996,100.1453,99.745476,97.477936,93.555458,88.903328,84.760117,82.106483,81.241302,81.752968,82.894089,84.10714,85.339333,86.922966,89.10582,91.594948,93.511887,93.895424,92.47776,90.187653,88.921501,90.567162,95.802124,103.44563,110.89828,115.54411,116.31718,114.40481,112.49338,112.85509,115.39009,116.92776,112.45686,97.814995,72.397667,40.274864,8.8991098,-14.065791,-24.160515,-21.964371,-12.389348,-1.9011626,4.7250876,6.3279018,5.0420938,4.1880918,5.8312058,9.5403938,12.992964,13.843865,11.496571,7.5622888,4.7349563,4.8968468,7.7773933,11.09411,12.088704,9.4238548,4.1598439,-0.85512513,-2.7883232,-0.63239121,4.1682205,8.6774216,10.366611,8.6883993,5.281641,2.675046,2.3505774,3.456778,3.0454004,-2.2755725,-14.288407,-31.979156,-51.936172,-70.065544,-83.56839,-92.020645,-97.00782,-100.67751,-104.1961,-107.06792,-107.65575,-104.46568,-97.318893,-87.677261,-77.974983,-70.430122,-66.077538,-64.548676,-64.613632,-65.045982,-65.249855,-65.328018,-65.671883,-66.438126,-67.285133,-67.511375,-66.460175,-63.911121,-60.2384,-56.290535,-53.098854,-51.555527,-52.143631,-54.736824,-58.496647,-61.957741,-63.417999,-61.646446,-56.70163,-50.445366,-46.322433,-48.246704,-58.905025,-78.210732,-102.73421,-126.57803,-143.4798,-149.25963,-143.46326,-129.37697,-112.37943,-97.446602,-87.07148,-80.642075,-75.531029,-69.220459,-61.225105,-53.709942,-50.447254,-54.704327,-67.252792,-85.610359,-104.9193,-119.95655,-127.18439,-125.81253,-117.48078,-104.9757,-90.874825,-76.901382,-64.187248,-53.988724,-48.107594,-48.516029,-56.285439,-70.46833,-87.71209,-103.01146,-111.36948,-109.62815,-97.645706,-78.349686,-56.741508,-38.343136,-27.672817,-27.155531,-36.615307,-53.341751,-72.703766,-89.28125,-98.369492,-97.47506,-87.231491,-71.227898,-54.649685,-42.2141,-36.316452,-36.277565,-39.056561,-41.026611,-39.851181,-35.476665,-29.795372,-25.301897,-23.604988,-24.654341,-27.033379,-28.999382,-29.543533,-28.824978,-27.804798,-27.432962,-27.979422,-28.930939,-29.449154,-29.013453,-27.790747,-26.506624,-25.948174,-26.457434,-27.740219,-29.072741,-29.72818,-29.339609,-28.00922,-26.168001,-24.333509,-22.921713,-22.169687,-22.125898,-22.644726,-23.384218,-23.868809,-23.667356,-22.640556,-21.112404,-19.811655,-19.548643,-20.771906,-23.261593,-26.168802,-28.414915,-29.244186,-28.619698,-27.23888,-26.165802,-26.293396,-27.92837,-30.697151,-33.777557,-36.294098,-37.665707,-37.767696,-36.891983,-35.579792,-34.418468,-33.864067,-34.117432,-35.073315,-36.36319,-37.494801,-38.044926,-37.817661,-36.882729,-35.474003,-33.82119,-32.037441,-30.145432,-28.21439,-26.481098,-25.322756,-25.057793,-25.698166,-26.849712,-27.879953,-28.284616,-28.012396,-27.491024,-27.273739,-27.49383,-27.4928,-25.933672,-21.431704,-13.394523,-2.5825214,8.9872999,18.814978,24.995888,27.039333,25.993618,23.822447,22.383528,22.560328,23.987576,25.464418,25.773663,24.427366,21.935812,19.484682,18.236582,18.666149,20.300282,21.998159,22.605213,21.61138,19.445477,17.24085,16.204918,16.950638,19.17227,21.849054,23.84687,24.54739,24.117645,23.264542,22.657438,22.429373,22.120281,21.119757,19.299053,17.352066,16.532194,17.888361,21.489191,26.196518,30.222954,32.178619,31.940111,30.739561,30.36474,31.966228,35.265957,38.722706,40.571411,40.042542,37.918201,36.018803,35.953941,37.999809,40.899139,42.745602,42.344364,40.084263,37.680584,36.944557,38.443275,41.022011,42.569065,41.517044,38.023403,33.966724,31.718361,32.526848,35.655018,38.900482,40.154087,38.897236,36.559677,35.459385,37.069588,40.870022,44.651253,46.105122,44.576698,41.673786,40.190659,42.000126,46.364372,49.92601,48.554058,39.95311,25.363604,9.2026281,-3.2082887,-8.4621191,-6.7279372,-1.3064593,3.532872,5.0144691,3.1232381,0.05564291,-1.5681509,-0.43964791,2.8504219,6.5731215,9.2444906,10.577446,11.38951,12.679379,14.673904,16.593739,17.278395,16.137199,13.658566,11.073285,9.4308052,8.8015575,8.2238264,6.4511123,2.9515469,-1.583416,-5.6089587,-7.7249036,-7.5996161,-6.1739993,-5.0136271,-5.2671828,-6.9396973,-8.9407082,-9.8278208,-8.7268972,-5.8623633,-2.4545276,-0.15909046,-0.42687014,-4.0573545,-10.970181,-20.086384,-29.311041,-35.806641,-36.776501,-30.690966,-18.43696,-3.620816,8.4800816,13.081922,8.1566515,-4.4840436,-20.010695,-32.933258,-39.663387,-39.7939,-35.418327,-29.095377,-21.955751,-13.318906,-2.0831072,11.180437,23.11869,28.582874,23.381407,7.1454439,-15.621714,-37.20536,-50.244377,-51.152798,-41.412365,-26.09688,-10.726302,1.4770111,10.286198,16.981943,22.062452,24.021914,20.199125,9.1081829,-7.5064054,-24.554644,-35.782696,-36.99659,-28.286768,-13.815715,0.6866231,11.091093,16.705875,19.756863,23.109413,27.9624,33.133831,36.317039,36.236149,34.00145,32.594696,34.820679,41.219231,49.495319,55.94894,57.941753,55.669765,51.978497,50.339455,52.417809,56.963799,60.823681,61.347343,58.444469,54.754601,53.717655,56.849022,62.164143,64.990318,60.802303,48.308914,30.765223,14.578607,5.9966416,7.8758831,18.44599,32.689243,45.324585,53.486141,57.552208,59.898605,62.688843,66.300934,69.367874,70.192055,68.350594,65.271378,63.381073,64.481438,68.538864,73.736633,77.718712,79.127205,78.376366,77.189491,77.303215,79.28582,82.265259,84.669304,85.367973,84.380768,82.694893,81.419136,80.962013,80.851097,80.287155,78.962509,77.486473,77.072891,78.705467,82.384804,86.997612,90.900345,92.813225,92.436462,90.434845,87.892441,85.669228,84.07605,82.977676,82.10434,81.259338,80.295753,79.007484,77.176895,74.846901,72.589607,71.412323,72.147003,74.604935,77.107819,76.916695,71.54261,60.265759,44.892818,29.125666,16.750105,9.6523504,6.878582,5.3699741,1.9679469,-4.5432,-12.645617,-19.059538,-20.863235,-17.410175,-10.827406,-4.7972822,-2.4207773,-4.5185442,-9.3958082,-14.122368,-16.41744,-15.908887,-14.032177,-12.777925,-13.234157,-14.927547,-16.345188,-16.182142,-14.384428,-12.250914,-11.54643,-13.269263,-16.932823,-20.842253,-23.157093,-23.015358,-20.988602,-18.617855,-17.393911,-17.877645,-19.505774,-21.133713,-21.882748,-21.704029,-21.31724,-21.628077,-23.061289,-25.259014,-27.311798,-28.330812,-27.974094,-26.614601,-25.095991,-24.274431,-24.631269,-26.140673,-28.389244,-30.810133,-32.884628,-34.249584,-34.739407,-34.413826,-33.577259,-32.741116,-32.480328,-33.202827,-34.935249,-37.259682,-39.475178,-40.932865,-41.378696,-41.110367,-40.839382,-41.306458,-42.843544,-45.126171,-47.280739,-48.330772,-47.773666,-45.974659,-44.122227,-43.701767,-45.717949,-50.08308,-55.558064,-60.363914,-63.189579,-64.031158,-64.306519,-66.049583,-70.532028,-77.076134,-82.828377,-83.796593,-76.739319,-60.946804,-38.91901,-15.493886,4.1793537,16.778873,21.953854,21.937233,19.958681,18.435104,17.959967,17.552294,15.831406,12.255901,7.6169262,3.5344653,1.3794434,1.3917202,2.5779722,3.415539,2.8488555,0.90487593,-1.4485149,-3.0491121,-3.3523753,-2.7701955,-2.3569739,-3.1095767,-5.373374,-8.7195148,-12.301402,-15.378969,-17.636614,-19.127594,-19.97731,-20.13895,-19.412874,-17.697678,-15.239016,-12.638698,-10.579884,-9.4581738,-9.1974783,-9.4001503,-9.728735,-10.231464,-11.350196,-13.574258,-16.968971,-20.920834,-24.31673,-26.0919,-25.83007,-24.047831,-21.97673,-20.953413,-21.754333,-24.235237,-27.455173,-30.198046,-31.604458,-31.591576,-30.865568,-30.539692,-31.554937,-34.184357,-37.859852,-41.414196,-43.638783,-43.895817,-42.472767,-40.469326,-39.239483,-39.663574,-41.654739,-44.207214,-45.996521,-46.201683,-45.05262,-43.740032,-43.707592,-45.746426,-49.466995,-53.507404,-56.369221,-57.349522,-56.950832,-56.4776,-57.067581,-58.803555,-60.52491,-60.511044,-57.623165,-52.163448,-45.867657,-41.000088,-39.104259,-40.191822,-42.868469,-45.288097,-46.297771,-46.036041,-45.633465,-46.269676,-48.25745,-50.77887,-52.43544,-52.216984,-50.218601,-47.617695,-45.926823,-46.018017,-47.554741,-49.188591,-49.381786,-47.330467,-43.430252,-39.038197,-35.724464,-34.487354,-35.372761,-37.648407,-40.342842,-42.781174,-44.815716,-46.683468,-48.655472,-50.739658,-52.623611,-53.871723,-54.233643,-53.864407,-53.315281,-53.287388,-54.273075,-56.280399,-58.806091,-61.097969,-62.582664,-63.214348,-63.512512,-64.218857,-65.748764,-67.78672,-69.345085,-69.340454,-67.38578,-64.280273,-61.789829,-61.727947,-64.832199,-70.150291,-75.410797,-78.256859,-77.636726,-74.474861,-71.151222,-70.065369,-72.174713,-76.442635,-80.554993,-82.429237,-81.513611,-79.024818,-77.006523,-76.903534,-78.663223,-80.970596,-82.386261,-82.495056,-82.17823,-82.797577,-84.931473,-87.684433,-89.193932,-88.050087,-84.595612,-81.071419,-80.363884,-84.144447,-91.701958,-100.33881,-107.10524,-110.66358,-111.95064,-113.16461,-115.84814,-119.54023,-122.07753,-121.37984,-117.37213,-112.48778,-110.19585,-112.51331,-118.36766,-124.21341,-126.70456,-125.60433,-124.70361,-129.75288,-144.52719,-167.65688,-192.59712,-211.10228,-218.11858,-214.82968,-207.62697,-203.45067,-204.49414,-205.89052,-198.16592,-173.08775,-129.17319,-73.202225,-16.633549,30.819578,66.292381,94.258331,122.21063,154.57463,189.07106,218.04788,233.87192,234.64079,226.19455,218.87955,221.08347,233.79805,249.85907,258.45999,252.08456,231.44116,205.31993,185.58449,180.55693,190.88416,210.16199,229.46034,242.56126,248.64108,251.1606,254.33224,259.92081,266.48843,271.17889,272.30136,270.61914,268.48615,267.75134,268.27472,268.2984,266.32407,262.85049,260.37637,261.4646,266.32541,271.97266,273.97247,269.81131,261.43176,254.7267,255.7505,265.82855,278.89923,283.35278,267.87631,228.11395,170.12498,108.31518,58.755081,31.566811,26.623919,34.81406,43.832172,44.933548,36.794888,24.646217,15.780263,14.557999,19.96751,26.885252,29.787054,26.292656,18.337778,10.503601,6.8658643,8.4977598,13.11312,16.839487,16.799576,12.842888,7.4865565,4.3125296,5.9372993,12.748036,22.969757,33.789768,42.746975,48.627037,51.546349,52.408863,52.187107,51.432602,50.184372,48.201664,45.318954,41.718872,37.993107,34.962757,33.335243,33.359451,34.668137,36.424706,37.731895,38.09034,37.634987,36.989681,36.817741,37.353722,38.22937,38.71513,38.213509,36.661427,34.563103,32.642151,31.378281,30.772329,30.499481,30.303209,30.287649,30.844299,32.247879,34.246929,36.019474,36.606953,35.561939,33.337543,31.090452,29.98315,30.455345,31.989895,33.555687,34.403477,34.596729,34.823788,35.570576,36.258713,35.068459,29.741892,18.964739,3.4436483,-14.099051,-30.127125,-42.009277,-49.198914,-53.139156,-55.979694,-58.968407,-61.581284,-61.940659,-58.195293,-49.897938,-38.450226,-26.355043,-15.845041,-7.8612766,-2.0635142,2.2172518,4.8648157,4.6024842,-0.28191778,-10.558311,-24.979685,-40.310772,-52.55101,-58.666531,-57.830559,-51.510372,-42.475426,-33.423019,-26.02659,-20.79229,-17.513023,-15.777111,-15.124899,-14.884043,-14.063229,-11.648351,-7.2519565,-1.6500773,3.3272986,5.6921735,4.52284,0.70970798,-3.3772452,-5.2180533,-3.684057,0.21892886,3.9557016,5.0946565,2.9406621,-0.91140229,-3.5131605,-2.435111,2.6066647,9.4189444,14.532409,15.205669,11.006223,4.024991,-2.3550887,-5.3401036,-4.1187301,-0.011797575,4.5687747,7.5933685,8.398139,7.6775055,6.6677065,6.1811991,6.1446233,5.8630056,4.7133918,2.71577,0.57661873,-0.79376882,-0.92496312,-0.14270674,0.58849412,0.21549417,-1.815448,-5.2735715,-9.2862701,-12.779693,-14.954222,-15.570331,-14.962521,-13.838136,-12.978098,-12.949927,-13.908643,-15.541945,-17.192602,-18.142759,-17.960901,-16.746519,-15.119842,-13.925388,-13.789816,-14.787489,-16.427563,-17.988014,-18.996759,-19.548883,-20.23987,-21.739565,-24.27442,-27.361351,-29.987135,-31.145546,-30.412462,-28.209618,-25.598026,-23.729649,-23.282978,-24.200047,-25.841436,-27.42584,-28.472523,-29.003384,-29.433868,-30.270382,-31.815916,-34.038624,-36.630791,-39.177246,-41.318951,-42.842022,-43.688385,-43.924789,-43.702827,-43.220333,-42.680882,-42.256374,-42.068211,-42.197556,-42.710312,-43.662823,-45.063923,-46.808899,-48.641876,-50.203506,-51.169991,-51.41584,-51.09502,-50.569901,-50.212448,-50.193836,-50.397808,-50.519337,-50.288303,-49.673382,-48.933647,-48.489365,-48.702881,-49.71315,-51.415359,-53.566975,-55.915695,-58.250332,-60.361362,-61.990723,-62.868462,-62.855713,-62.100601,-61.061375,-60.318531,-60.249218,-60.765167,-61.31353,-61.189484,-59.999855,-57.992706,-56.024067,-55.146168,-56.038445,-58.607151,-61.983082,-64.911362,-66.30722,-65.682411,-63.257725,-59.777061,-56.185802,-53.346436,-51.860657,-51.957058,-53.386162,-55.346302,-56.559635,-55.611538,-51.523548,-44.328514,-35.310822,-26.677637,-20.715952,-18.805019,-20.788132,-25.054428,-29.30864,-31.629709,-31.264906,-28.768312,-25.47304,-22.652546,-20.864347,-19.812298,-18.728947,-16.981421,-14.515312,-11.899549,-9.9998693,-9.5152779,-10.646285,-13.039165,-15.973335,-18.648933,-20.434546,-21.012081,-20.424225,-19.044834,-17.467852,-16.304951,-15.92849,-16.271271,-16.821543,-16.877592,-15.967761,-14.201877,-12.308932,-11.278421,-11.773906,-13.668612,-16.022301,-17.569664,-17.463074,-15.819866,-13.70947,-12.546471,-13.234619,-15.58691,-18.400196,-20.164351,-19.983521,-18.138275,-15.92837,-14.880758,-15.808556,-18.307053,-21.003626,-22.405893,-21.81563,-19.734076,-17.506668,-16.438229,-16.948269,-18.312649,-19.165527,-18.445738,-16.175499,-13.548061,-12.228384,-13.277757,-16.381668,-19.9137,-21.876507,-21.212597,-18.70446,-16.867178,-18.792198,-26.514896,-39.792957,-55.9958,-71.209389,-81.987465,-86.821075,-86.566956,-83.676643,-80.747253,-79.26326,-79.21273,-79.66716,-79.799278,-79.576614,-79.661247,-80.659576,-82.366814,-83.672829,-83.302818,-80.898994,-77.602165,-75.561424,-76.551132,-80.591202,-85.606308,-88.540794,-87.334732,-82.460381,-76.872482,-74.22998,-76.465797,-82.355438,-88.178085,-90.166412,-87.130455,-81.380173,-77.152695,-77.516289,-81.945419,-86.479073,-86.631332,-81.13887,-73.710472,-71.017815,-77.714653,-91.63266,-102.74818,-97.462006,-66.301949,-10.553699,56.573448,115.6123,150.49478,156.65216,142.6922,124.60606,116.08557,120.97858,132.5134,139.49571,135.08427,122.03913,110.72007,111.08141,124.16449,139.21425,138.9852,110.31388,53.25948,-17.343454,-79.405327,-115.82377,-123.89391,-115.94465,-110.72568,-120.92602,-144.6747,-166.36787,-166.28442,-132.96092,-70.66964,2.4737203,64.373199,100.60135,110.88525,107.0338,104.30816,112.01117,128.97183,146.00996,152.93695,145.13861,125.69483,102.37986,82.290291,68.020988,57.711887,48.294186,39.072483,32.839275,33.795567,44.007004,61.172901,79.44754,92.78215,98.439095,98.251701,96.852875,98.232872,103.08052,108.68388,111.27634,109.00056,103.32905,97.994499,96.311897,98.886337,103.33849,106.1656,105.32269,101.65108,98.182426,97.904343,101.6451,107.57496,112.59553,114.52537,113.47468,111.47446,110.74571,111.97672,113.90975,114.50591,112.74709,109.65149,107.67706,108.91243,113.39604,118.85299,122.12517,121.32219,117.15584,112.46208,110.19651,111.29948,113.96764,114.91452,111.8043,105.17417,98.440399,95.850304,99.652473,108.3603,117.35432,121.59159,118.80569,111.17274,104.26099,103.67625,111.22152,122.78786,129.35756,120.88722,91.301018,42.151707,-16.976048,-71.775124,-108.95254,-121.87775,-113.50351,-95.01635,-80.589142,-80.510147,-95.931847,-117.92854,-131.58298,-123.31057,-87.849731,-31.336311,31.21578,82.798477,112.09892,118.01366,108.80052,96.675827,91.129738,94.718987,103.37083,110.41155,111.39496,106.64491,100.22214,96.497215,96.98452,99.644127,100.91059,98.710861,94.109024,90.365448,90.220764,93.586906,97.512421,98.518654,95.511795,90.9244,89.013649,92.449509,99.802467,106.08472,106.30036,99.560631,90.540489,86.658958,92.404716,104.60081,112.29098,102.15041,66.573868,9.4118052,-54.653843,-107.30455,-136.34607,-142.14827,-136.69455,-135.64769,-148.19742,-170.90884,-189.38965,-186.8174,-154.20276,-96.276909,-29.615469,25.722775,56.063271,59.939022,47.035061,31.554808,24.30673,28.001875,37.833073,46.103123,47.547646,42.15271,34.277279,29.276903,30.098824,35.897625,43.142178,48.103844,48.988281,46.508308,42.856167,40.006252,38.514042,37.472385,35.47324,31.831253,27.253109,23.545883,22.556511,24.986141,29.798466,34.618076,36.955368,35.593548,31.315384,26.472885,23.576685,23.730963,25.9261,27.728886,26.998419,23.489614,19.157152,16.791777,17.831545,20.947218,22.655155,19.841757,12.558336,4.8942361,2.7501104,9.4323549,21.815598,29.996468,21.49522,-11.847136,-68.211861,-135.06613,-194.34424,-230.98344,-240.06036,-228.45308,-210.17793,-198.32886,-198.47693,-207.2464,-216.36023,-219.01532,-214.25182,-206.7029,-202.45853,-204.38095,-210.31119,-215.25012,-215.58055,-211.9398,-208.50023,-209.27025,-214.42603,-219.76411,-219.99782,-213.5175,-204.77008,-201.83572,-210.2509,-227.20358,-240.57864,-234.44629,-198.24982,-134.10873,-57.377777,10.383846,52.124958,63.41301,53.270924,37.620907,29.731232,33.612537,43.997593,52.047459,52.330574,46.258152,40.065899,39.412666,44.893539,51.777802,53.953926,48.907726,39.867111,33.461464,34.662678,42.849773,52.027088,55.134445,49.30389,38.140141,29.237366,28.655172,36.382385,46.186821,50.081539,44.217003,31.854767,21.112246,18.987282,26.016438,35.648796,39.087471,32.265793,19.746649,12.17055,18.347681,37.159103,55.190876,52.701691,15.133669,-56.578041,-143.46887,-215.99231,-247.76549,-228.1436,-166.81505,-88.224861,-19.335594,22.405638,34.790497,28.267429,17.778122,14.286494,20.473558,31.901077,41.641319,44.895615,40.996468,32.401009,22.198309,12.154102,2.4137671,-7.4137735,-16.939569,-24.495258,-27.733904,-24.844339,-15.607626,-1.7529607,13.493338,26.443235,34.206768,35.775581,32.509632,27.687229,25.097406,27.184223,33.69537,41.73447,47.408623,48.232338,44.789284,40.445347,39.117592,42.494522,48.66666,53.323658,52.910957,47.592651,41.711506,40.964207,47.82235,58.253689,62.354191,49.178246,13.258827,-41.10104,-100.66035,-149.13223,-174.99503,-176.83151,-163.22229,-147.42729,-140.10335,-144.27086,-155.15178,-164.44247,-166.01967,-159.53113,-149.96986,-143.96802,-145.45987,-153.4502,-163.02525,-168.633,-167.39558,-160.4687,-151.88408,-145.87868,-144.46858,-146.63513,-149.36821,-149.72125,-146.58531,-141.21826,-136.35194,-134.47137,-136.24562,-139.98056,-142.45081,-140.77203,-134.37509,-125.92135,-120.35936,-122.229,-132.40582,-146.13051,-153.85706,-145.11374,-113.80632,-62.228828,-1.3275566,53.427811,88.786598,99.648575,90.999588,74.77861,63.433132,63.774036,74.47805,88.342896,97.560402,98.596748,93.765442,88.862389,88.778778,94.169739,101.33771,105.1934,103.06981,96.684937,90.936974,90.45961,96.395233,105.62743,112.94856,114.58905,110.63232,104.68596,101.14188,102.03821,105.75797,108.43769,107.0034,101.60079,95.647697,93.464424,97.186325,105.17933,113.10029,116.84518,115.27757,110.79721,107.37827,107.54607,110.53905,113.03753,111.94183,107.11941,101.97506,101.23051,107.37121,118.33468,128.31247,131.41713,125.86689,115.75209,108.87327,111.70683,124.57033,140.15144,146.60257,133.61372,98.029762,45.834137,-10.525652,-57.826908,-87.595451,-98.703064,-96.222107,-87.839645,-80.155769,-76.683289,-77.937965,-82.738266,-89.48925,-96.787323,-103.48871,-108.74667,-112.25067,-114.4022,-116.01095,-117.50304,-118.23889,-116.71397,-111.83976,-104.51182,-98.077454,-96.770157,-102.5794,-112.45772,-118.09383,-109.20393,-79.040642,-29.050451,30.360794,83.938644,118.63366,129.72462,122.52282,108.73292,99.727844,100.76655,109.42546,118.74213,122.62006,119.82742,114.15886,111.07925,113.51683,119.85001,125.38052,126.024,121.41217,115.13921,112.04556,114.61343,121.16661,127.19526,128.78761,125.57242,120.92995,119.27267,122.43978,128.01657,131.05237,128.11024,120.66678,115.05168,118.39831,132.97095,152.71976,164.84174,156.05222,120.15167,62.374752,-2.2700977,-55.939968,-86.323845,-91.798973,-80.749428,-65.896545,-57.263725,-57.819157,-63.828773,-68.93605,-68.91069,-64.060181,-58.207375,-55.483406,-57.412457,-62.211872,-66.472801,-67.73716,-66.045723,-63.472164,-62.185802,-62.589096,-62.896946,-60.397705,-53.422001,-42.605911,-30.61097,-20.573923,-14.38906,-11.927592,-11.553815,-11.397759,-10.432889,-8.7112808,-6.8221889,-5.1884103,-3.8132527,-2.5997858,-1.825672,-2.2128756,-4.3972106,-8.1689959,-12.15429,-14.366199,-13.42576,-9.6935034,-5.4950576,-4.1496744,-8.2781086,-18.357731,-32.370365,-46.732964,-57.946209,-64.023201,-64.979416,-62.285416,-57.781574,-52.758305,-47.653473,-42.342014,-36.64114,-30.626955,-24.60722,-18.88522,-13.568995,-8.5769243,-3.796423,0.76398748,4.9464445,8.5261955,11.302351,13.125661,13.892995,13.596169,12.452552,11.017673,10.114486,10.508779,12.471272,15.527411,18.641098,20.797953,21.629145,21.607285,21.586224,21.925432,21.812609,19.372707,12.67937,1.1459022,-13.593158,-27.993309,-38.087856,-41.373051,-37.9967,-30.531317,-22.46557,-16.334909,-12.617712,-10.006057,-6.7616739,-2.1812475,2.8259559,6.4017382,7.1331668,5.1719952,2.2768102,0.72745085,1.8402438,5.0901508,8.4389648,9.6629286,7.814075,3.8725526,0.18621589,-0.92653382,1.4727263,6.4429226,11.747496,15.086944,15.215275,12.349887,7.7912011,3.1364849,-0.38893232,-2.1813037,-2.146744,-0.50257456,2.2938128,5.508101,8.1837082,9.4433107,8.9577818,7.2755241,5.6989856,5.6546474,7.8649688,11.829304,15.989368,18.549141,18.498219,16.230564,13.376065,11.929729,13.183469,17.070679,22.272835,26.979792,29.833294,30.522224,29.751055,28.686253,28.261494,28.742601,29.742878,30.595707,30.808735,30.329536,29.507856,28.829327,28.608263,28.818262,29.138788,29.171959,28.699739,27.838898,27.006224,26.703293,27.227158,28.465292,29.905394,30.88195,30.940542,30.107992,28.885319,27.933817,27.625898,27.748928,27.588976,26.39241,23.942377,20.868185,18.432613,17.859303,19.577284,22.857931,26.114319,27.733212,26.96479,24.333605,21.312347,19.449963,19.484121,20.974274,22.661285,23.303097,22.449102,20.67618,19.169653,18.94755,20.230633,22.332693,24.092474,24.533197,23.334742,20.876644,17.913258,15.156345,13.033401,11.700117,11.178887,11.43313,12.301018,13.389552,14.107928,13.920098,12.693726,10.885716,9.3672342,8.932457,9.7886972,11.38811,12.761887,13.170853,12.64018,11.986873,12.278966,14.063965,16.894531,19.506134,20.568876,19.532871,17.000559,14.363021,12.932239,13.147163,14.381838,15.466899,15.539219,14.609864,13.451831,12.909729,13.167032,13.549919,13.056706,11.244815,8.7923517,7.2257009,7.8802767,10.746716,14.030087,14.852753,10.797053,1.3914366,-11.395314,-24.01726,-33.109146,-37.118526,-36.870731,-34.789753,-33.321678,-33.561813,-34.894745,-35.765373,-34.973145,-32.592167,-29.929781,-28.611128,-29.454531,-31.906128,-34.392654,-35.326691,-34.087543,-31.357349,-28.650278,-27.397997,-28.198675,-30.660015,-33.831371,-36.840878,-39.285812,-41.176083,-42.591999,-43.41066,-43.35437,-42.313538,-40.643024,-39.12521,-38.545338,-39.145733,-40.36721,-41.126999,-40.517574,-38.492584,-36.066048,-34.833229,-36.054699,-39.842728,-44.957195,-49.36446,-51.262276,-49.99958,-46.388115,-42.256638,-39.518951,-39.266354,-41.33548,-44.51025,-47.180389,-48.08725,-46.812477,-43.850689,-40.318722,-37.484486,-36.312412,-37.163219,-39.710907,-43.081944,-46.173355,-48.053715,-48.302868,-47.141457,-45.273235,-43.499985,-42.301735,-41.615948,-40.952545,-39.788082,-38.003841,-36.086468,-34.938507,-35.382187,-37.639557,-41.108829,-44.596909,-46.903236,-47.435726,-46.507889,-45.13763,-44.445728,-44.977245,-46.316826,-47.215542,-46.179337,-42.229965,-35.459885,-27.101023,-19.060431,-13.130054,-10.23439,-10.068958,-11.305344,-12.273366,-11.795604,-9.7616711,-7.1442447,-5.4369431,-5.8036203,-8.4012508,-12.262928,-15.821956,-17.78264,-17.82074,-16.678852,-15.586042,-15.366252,-15.830893,-15.90346,-14.462923,-11.392765,-8.1191673,-7.1774359,-10.938515,-20.192736,-33.453957,-47.47118,-58.723198,-65.061287,-66.553169,-65.057793,-62.838902,-61.111588,-59.433208,-56.280018,-50.366623,-41.778996,-32.130219,-23.618528,-17.627878,-13.846806,-10.558794,-5.9775987,0.22447717,6.2322774,8.7934017,4.9925108,-5.917027,-21.713987,-37.945702,-49.821011,-54.240089,-50.914509,-42.096184,-31.216465,-21.264648,-13.736182,-8.5289488,-4.5940733,-0.80730754,3.4324872,8.0659142,12.570807,16.249119,18.447147,18.713619,16.965572,13.656191,9.8162813,6.8215899,5.8818264,7.4687181,11.021185,15.160312,18.351627,19.655418,19.123461,17.607235,16.11828,15.169586,14.531149,13.539445,11.713788,9.2188654,6.8264046,5.3921218,5.220818,5.7885685,6.050169,5.1472135,3.0353839,0.58287376,-0.95750898,-0.76993686,0.95619053,3.1014037,4.2997522,3.7859657,1.8484284,-0.40864924,-1.8276639,-1.9675977,-1.3614194,-1.0886388,-1.9556751,-3.846216,-5.6971745,-6.1422257,-4.4183793,-0.94518602,2.8156884,5.1602368,5.1232562,3.0461631,0.38806984,-1.1042072,-0.3736589,2.3883739,5.9049535,8.5727873,9.3616066,8.3458967,6.5990133,5.5480418,6.1718383,8.4775991,11.510583,13.857951,14.363699,12.692224,9.4791775,6.0203075,3.6646068,3.203131,4.536777,6.7720494,8.6960201,9.3989305,8.7351065,7.3810854,6.4501481,6.8594818,8.7961197,11.592497,14.102151,15.373439,15.224636,14.359099,13.922566,14.750602,16.768612,18.942001,19.850525,18.567884,15.31223,11.445937,8.7861814,8.6150627,10.973293,14.661184,17.940882,19.50935,19.154161,17.717897,16.438303,16.117504,16.655376,17.216124,16.865463,15.210523,12.595998,9.7397928,7.0958843,4.4349608,0.98581529,-3.9154131,-10.102334,-16.309568,-20.622099,-21.44212,-18.416599,-12.754428,-6.7141423,-2.537508,-1.4339172,-3.173842,-6.4687095,-9.8405285,-12.42335,-14.236905,-15.851898,-17.761322,-19.929468,-21.819469,-22.838673,-22.844078,-22.320204,-22.088591,-22.75116,-24.264246,-25.950302,-26.945898,-26.775362,-25.648998,-24.276487,-23.327337,-22.919626,-22.499411,-21.197912,-18.414696,-14.215495,-9.2687664,-4.3830256,-0.0033307625,3.94138,7.7156286,11.239634,13.813181,14.442421,12.68178,9.4634037,7.2589102,9.2438431,17.750845,32.823769,51.757267,70.028038,83.243668,89.117966,88.416321,84.365997,80.881004,80.601479,83.808235,88.716599,92.833618,94.48098,93.585075,91.379051,89.375786,88.389732,88.258484,88.361008,88.446449,89.080086,91.314774,95.78968,101.91711,107.81382,111.15086,110.45843,106.06751,100.0546,95.17292,93.401993,94.993965,98.57222,102.15732,104.40901,105.272,105.65591,106.4607,107.70467,108.41885,107.40201,104.28886,100.12274,96.943222,96.585938,99.47493,104.24533,108.50675,110.28967,109.23412,106.72839,104.90031,105.14232,107.17574,109.29689,109.63303,107.52688,104.06284,101.33434,100.93941,102.76163,104.93639,105.09753,102.08986,96.952278,92.419243,91.18396,94.050026,99.250557,103.4892,104.1086,100.97527,96.76004,95.27462,98.794456,106.03567,112.15939,110.99718,98.340782,74.449959,44.330631,15.583886,-5.0226555,-14.44614,-14.282586,-9.4080381,-5.2643766,-5.3107438,-9.8806753,-16.780825,-23.013361,-26.531193,-27.120859,-26.139833,-25.486843,-26.501431,-29.372545,-33.24474,-36.815342,-39.022884,-39.47942,-38.503853,-36.829456,-35.187122,-33.979496,-33.184433,-32.505455,-31.664602,-30.659893,-29.820284,-29.601669,-30.229801,-31.423536,-32.425858,-32.408688,-31.072289,-29.087294,-28.052969,-29.890768,-35.924286,-46.117188,-58.894772,-71.674797,-81.848083,-87.711624,-88.908897,-86.234207,-81.017807,-74.502457,-67.546753,-60.717274,-54.558487,-49.737202,-46.895428,-46.298897,-47.552719,-49.637753,-51.31601,-51.700222,-50.658443,-48.809177,-47.107185,-46.26313,-46.335312,-46.721378,-46.539364,-45.165459,-42.619289,-39.589256,-37.099617,-36.013733,-36.639492,-38.628246,-41.190308,-43.487732,-44.990871,-45.629726,-45.698814,-45.610016,-45.657993,-45.933216,-46.410786,-47.123558,-48.270828,-50.155113,-52.959782,-56.503315,-60.151592,-62.995319,-64.241486,-63.619598,-61.56361,-59.038895,-57.084248,-56.314873,-56.667435,-57.533703,-58.198318,-58.310749,-58.099667,-58.19722,-59.186512,-61.16217,-63.590897,-65.573715,-66.359512,-65.797501,-64.444107,-63.244293,-62.961033,-63.681629,-64.690872,-64.797966,-62.951744,-58.822712,-53.048916,-47.020481,-42.310745,-40.030022,-40.401077,-42.735115,-45.792458,-48.340858,-49.652039,-49.72736,-49.181477,-48.870583,-49.456173,-51.105198,-53.445652,-55.76865,-57.35836,-57.788731,-57.064976,-55.576874,-53.919704,-52.681011,-52.277714,-52.879181,-54.40744,-56.587078,-59.025059,-61.308994,-63.108124,-64.244591,-64.700752,-64.555,-63.888134,-62.735085,-61.136875,-59.2715,-57.559013,-56.612392,-56.98484,-58.811272,-61.563232,-64.129257,-65.269211,-64.252144,-61.324432,-57.696594,-54.988701,-54.399227,-56.057686,-58.946903,-61.46159,-62.292469,-61.12521,-58.753548,-56.560978,-55.705002,-56.500317,-58.347584,-60.194775,-61.191666,-61.110718,-60.304417,-59.299061,-58.358482,-57.334808,-55.886066,-53.863411,-51.553856,-49.583534,-48.544308,-48.609333,-49.405685,-50.221859,-50.392094,-49.594749,-47.895119,-45.57225,-42.922161,-40.210659,-37.778515,-36.13163,-35.830746,-37.161701,-39.792629,-42.717705,-44.64286,-44.662163,-42.821663,-40.173916,-38.222103,-38.055782,-39.711342,-42.170834,-44.004547,-44.236488,-42.865986,-40.721317,-38.789612,-37.529476,-36.668156,-35.610394,-34.11327,-32.661297,-32.188255,-33.298515,-35.573505,-37.568443,-37.652729,-35.213879,-31.379177,-28.613422,-29.245125,-33.728573,-39.750793,-42.89624,-38.684807,-24.942307,-3.1856267,21.795393,43.98661,58.757858,64.684471,63.722046,59.810333,56.801079,56.848679,59.988155,64.862282,69.934906,74.386368,78.245346,81.877525,85.344124,88.140511,89.482689,88.895927,86.656219,83.7584,81.421043,80.450539,80.866615,82.007668,83.019623,83.401237,83.269348,83.210945,83.857338,85.475639,87.829605,90.362061,92.536438,94.088646,95.033493,95.466255,95.357658,94.54174,92.937454,90.836388,88.990517,88.334137,89.430046,91.971169,94.716385,96.019363,94.735336,90.994377,86.329651,82.98671,82.735413,85.852509,90.896362,95.452904,97.445457,96.241951,92.901878,89.433723,87.550484,87.718269,89.082054,90.258614,90.404884,89.796196,89.509758,90.460678,92.526947,94.469025,94.792564,92.989456,90.226257,88.825081,90.668327,95.454239,99.99247,99.224487,88.645164,66.892311,37.038078,5.7417526,-19.430346,-33.203289,-34.707191,-27.49132,-17.5406,-10.403385,-8.8962269,-12.412343,-17.935373,-21.991953,-22.424097,-19.141941,-13.69089,-8.1100321,-3.8312092,-1.1852504,0.37272581,1.6310718,3.0534256,4.5976343,5.9335351,6.8136935,7.297399,7.6824918,8.2335892,8.9425211,9.520957,9.6409273,9.2403135,8.6457996,8.3873844,8.8114529,9.7737494,10.674111,10.866141,10.185423,9.196949,8.9034214,10.020296,12.279246,14.30022,14.265506,11.092286,5.3817549,-0.55788875,-3.8028045,-2.4833972,2.9683235,9.8458796,14.588613,14.822211,10.778902,5.1600451,1.4393601,1.6034379,4.736042,7.3796377,5.5175076,-3.0005813,-17.061678,-32.764072,-45.450138,-52.045425,-52.322578,-48.448086,-43.270035,-38.541882,-34.194386,-28.973982,-21.832914,-13.018466,-4.1202927,2.872997,6.7704735,7.7800159,7.1630101,6.2959361,5.8775105,5.8264613,5.8245969,5.9445987,6.7584949,8.7755995,11.648656,13.847023,13.208392,8.1436996,-1.2467018,-12.896009,-23.562254,-30.233465,-31.325354,-27.046185,-18.893248,-8.7879829,1.5338544,10.619406,17.130646,19.880817,18.299332,13.040328,6.1224089,0.17325494,-3.0139477,-3.770262,-4.7259221,-9.491374,-20.429594,-36.81076,-54.56197,-67.940262,-72.29055,-66.351997,-52.808056,-36.809956,-23.383421,-15.21915,-12.00195,-11.422019,-11.011449,-9.5864086,-7.5156713,-5.908586,-5.4997687,-6.0725827,-6.7406521,-6.7325349,-5.9947829,-5.148303,-4.886054,-5.3436327,-5.973455,-6.0289869,-5.2620425,-4.2487226,-4.0375304,-5.3432178,-7.8883944,-10.423371,-11.474869,-10.330699,-7.5656967,-4.7114372,-3.269069,-3.7355211,-5.3207483,-6.5619211,-6.4167628,-5.0767374,-3.9222178,-4.6226401,-7.9680729,-13.208015,-18.345568,-21.216158,-20.683676,-17.231966,-12.630599,-8.9305878,-7.4201283,-8.1270218,-10.061076,-11.932136,-12.850996,-12.628809,-11.614972,-10.305577,-9.0345659,-7.9133868,-6.9633117,-6.2562628,-5.9244223,-6.0463824,-6.5361347,-7.1544638,-7.6502028,-7.9216695,-8.0667162,-8.2775402,-8.6608591,-9.1222048,-9.4033298,-9.2440948,-8.5520954,-7.4659638,-6.2855668,-5.3352332,-4.8554831,-4.9694633,-5.6974363,-6.9643006,-8.5823841,-10.252053,-11.635404,-12.499128,-12.836136,-12.850476,-12.771555,-12.609285,-12.052095,-10.648582,-8.210638,-5.1679649,-2.5618343,-1.5642018,-2.7428772,-5.5348148,-8.3381577,-9.277565,-7.2470479,-2.5987859,2.9853566,7.4066844,9.3051891,8.7407942,6.9801564,5.5545845,5.2360229,5.6228738,5.5932236,4.2688618,1.7670965,-0.83089536,-2.2950227,-2.2514324,-1.6019018,-1.9616407,-4.4172916,-8.4394379,-11.760489,-11.434513,-5.5106287,5.6948967,19.53775,32.268639,40.821285,44.117069,43.177349,40.106892,36.699005,33.5737,30.316488,26.368122,21.92152,18.133003,16.487076,17.776028,21.434227,25.720156,28.656895,29.131878,27.463308,25.107031,23.73753,24.308302,26.651793,29.781719,32.60532,34.541389,35.682739,36.496193,37.355122,38.252522,38.8512,38.763958,37.819897,36.138611,34.016968,31.772041,29.675251,27.988216,26.995903,26.935377,27.83449,29.39592,31.067633,32.308331,32.886162,32.988049,33.034962,33.320332,33.744038,33.867081,33.277817,32.006279,30.650784,30.066263,30.789326,32.600613,34.567928,35.590912,35.101624,33.43705,31.608089,30.6126,30.77475,31.58741,32.174171,32.026642,31.450731,31.355749,32.512844,34.840084,37.303768,38.602863,38.20462,36.962311,36.749973,39.200813,44.306561,49.846043,52.171543,48.038826,36.463814,19.498501,1.4268136,-13.188472,-21.511242,-23.409391,-20.987156,-17.121752,-13.966542,-12.251974,-11.588332,-11.312994,-11.169714,-11.377973,-12.190443,-13.422532,-14.401506,-14.390819,-13.134629,-11.067371,-9.016716,-7.6549597,-7.1707344,-7.4490275,-8.6014519,-11.339846,-16.744423,-25.438972,-36.719051,-48.354481,-57.411469,-61.728134,-61.130108,-57.523327,-53.682285,-51.437309,-50.439972,-48.379417,-42.589821,-32.035759,-18.347689,-5.1542735,3.9271159,7.3637109,6.4769659,4.3689995,3.6804004,4.6509619,4.7919655,0.44789737,-10.705956,-27.809229,-46.799122,-62.279003,-70.162987,-69.54583,-62.777134,-53.840839,-46.12175,-40.88509,-37.214252,-33.191925,-27.409126,-19.852694,-11.781106,-4.9014626,-0.5247373,0.78476006,-0.96965283,-5.5632715,-12.670885,-21.679596,-31.463078,-40.476158,-47.272301,-51.160252,-52.521885,-52.498413,-52.197121,-51.94968,-51.158504,-48.872169,-44.699432,-39.395824,-34.651424,-32.158871,-32.56554,-35.034409,-37.754105,-39.100357,-38.697071,-37.671757,-37.923107,-40.868919,-46.48159,-53.224525,-58.912605,-61.932228,-62.055035,-60.378345,-58.503506,-57.529354,-57.498333,-57.58305,-56.80159,-54.740036,-51.819027,-48.989918,-47.122616,-46.505459,-46.744946,-47.061138,-46.738052,-45.449558,-43.323612,-40.794308,-38.387218,-36.550816,-35.556526,-35.438744,-35.970806,-36.722538,-37.238632,-37.290863,-37.054604,-37.050152,-37.817566,-39.49511,-41.590694,-43.158508,-43.332649,-41.898621,-39.502281,-37.30035,-36.229465,-36.364479,-36.823746,-36.340332,-34.160847,-30.675018,-27.31599,-25.738024,-26.772097,-29.841869,-33.251945,-35.199879,-34.881718,-32.982723,-31.231274,-31.294931,-33.717999,-37.565464,-40.976479,-42.251625,-40.781647,-37.265739,-33.152142,-29.727865,-27.465029,-26.001614,-24.675713,-23.169043,-21.785006,-21.18663,-21.819727,-23.464947,-25.255713,-26.159185,-25.590374,-23.74226,-21.417387,-19.487816,-18.354021,-17.758028,-17.055954,-15.746404,-13.891724,-12.153257,-11.422221,-12.284597,-14.653011,-17.780441,-20.634031,-22.400652,-22.842735,-22.332888,-21.58906,-21.286188,-21.75803,-22.919975,-24.4069,-25.809322,-26.863791,-27.506393,-27.793152,-27.766924,-27.37093,-26.466537,-24.939064,-22.81562,-20.310654,-17.762953,-15.500788,-13.720457,-12.451825,-11.618136,-11.123761,-10.882528,-10.754057,-10.452518,-9.5508051,-7.6619711,-4.7417288,-1.3149143,1.5983227,2.9308996,2.2055855,-0.029669575,-2.3329885,-3.1354108,-1.7892317,0.73868924,2.0808594,-0.32715777,-7.5878034,-18.151508,-27.899405,-31.674534,-25.626001,-9.2021685,14.277195,38.84185,58.324898,68.847351,70.13916,65.148537,58.293732,53.361401,52.109203,54.115566,57.682014,61.079041,63.396317,64.655113,65.357361,65.941956,66.547958,67.156166,67.868889,69.011993,70.935486,73.672302,76.761665,79.433731,81.072891,81.641228,81.740379,82.232346,83.660164,85.869644,88.109856,89.557945,89.906746,89.59523,89.503349,90.313446,91.989098,93.757561,94.635162,94.145851,92.725357,91.502319,91.572823,93.247398,95.788872,97.839211,98.26561,96.864456,94.452019,92.287743,91.231407,91.214142,91.376656,90.756622,89.022705,86.728722,84.914948,84.35952,85.036263,86.178345,86.89312,86.855225,86.537994,86.788452,88.060516,89.910599,91.194771,90.882858,88.902931,86.338791,84.734795,84.935356,86.311378,87.047966,85.448059,81.415665,76.998833,75.371117,78.657036,85.901367,92.60791,92.453499,80.46524,55.947605,23.429478,-9.0551682,-33.531612,-45.605759,-46.083656,-39.934006,-33.344627,-30.621807,-32.605118,-37.227943,-41.542912,-43.766663,-44.099617,-44.027081,-44.832287,-46.484489,-47.674828,-46.890629,-43.677204,-39.134113,-35.266621,-33.638008,-34.266502,-35.545876,-35.269051,-32.082844,-26.409111,-20.22016,-15.8121,-14.370885,-15.251122,-16.41642,-15.743247,-12.352552,-7.1405168,-2.2061937,0.43318671,0.028894655,-2.5204983,-5.2785378,-6.4420347,-5.3403749,-2.6887476,-0.01480689,1.320686,0.88517076,-0.71441251,-2.366806,-3.2425816,-3.3208015,-3.3512118,-4.3173685,-6.7625055,-10.394393,-14.190732,-16.926096,-17.815619,-16.935829,-15.224231,-14.074547,-14.714705,-17.619926,-22.18165,-26.768148,-29.204582,-27.574816,-21.108679,-10.810458,0.51624668,9.0180922,11.158289,5.1932464,-7.9137373,-24.652018,-40.236431,-50.470722,-53.338234,-49.556969,-41.862015,-33.449051,-26.447716,-21.229475,-16.82839,-12.0823,-6.6994319,-1.5643376,1.8651947,2.6095016,0.92582476,-1.7430142,-3.5824478,-3.4216259,-1.2777909,1.8833581,4.9181409,7.1879673,8.639761,9.2654524,8.4459906,4.8342571,-2.9370618,-15.079552,-29.819275,-43.626587,-52.579773,-54.159164,-48.402195,-37.681778,-25.22942,-13.347779,-2.4786072,8.2734547,19.561695,30.327738,37.596302,37.868717,29.345737,13.559237,-4.7384257,-19.533237,-26.30138,-23.982088,-15.068157,-3.8654473,5.9354215,12.899887,17.839628,22.407969,27.426367,32.130867,34.788967,34.142067,30.57015,26.114473,23.32863,23.752777,27.047024,31.336273,34.476494,35.35387,34.372986,32.910011,32.230659,32.685642,33.705563,34.476707,34.683609,34.711983,35.184162,36.256847,37.310253,37.341721,35.795177,33.16711,30.850443,30.237864,31.69293,34.156757,35.744205,34.97617,31.806128,27.701365,24.681829,23.957964,25.111694,26.405422,26.021223,23.375851,19.591326,16.779057,16.616304,19.185827,22.871378,25.380934,25.207706,22.558258,19.156481,17.094316,17.517555,19.998087,22.942287,24.686499,24.517513,22.977482,21.343758,20.717773,21.353102,22.609146,23.458094,23.13545,21.518911,19.087482,16.612358,14.840186,14.313375,15.285791,17.624109,20.69239,23.373573,24.397923,22.950512,19.247215,14.650084,11.097199,10.068032,11.688238,14.588262,16.693542,16.497702,13.987888,10.558001,7.9011059,6.5944896,5.3737135,1.6978408,-6.6410189,-19.856405,-35.571301,-49.78088,-58.880665,-61.556499,-59.380653,-55.75341,-53.861301,-54.927174,-57.809101,-60.118225,-60.052269,-57.715794,-55.082481,-54.673569,-57.866791,-63.962574,-70.604111,-75.244553,-76.684151,-75.689972,-74.343353,-74.596718,-77.008835,-80.464729,-83.007858,-83.184578,-80.999519,-77.880165,-75.725922,-75.708031,-77.612541,-80.117645,-81.759789,-81.90239,-81.058449,-80.390991,-80.785744,-82.174393,-83.59198,-83.925652,-82.812897,-81.026833,-80.027069,-80.937981,-83.640465,-86.634666,-87.8442,-85.901062,-81.090836,-75.309776,-70.998634,-69.68792,-71.073608,-73.236435,-73.89785,-71.928169,-68.134491,-64.796227,-64.216759,-67.20475,-72.461632,-77.281212,-79.124794,-77.075562,-72.264206,-67.041702,-63.492168,-62.286057,-62.595909,-63.035259,-62.866596,-62.560219,-63.289421,-65.761589,-69.31871,-72.088585,-72.206718,-69.288826,-65.032524,-62.334385,-63.325085,-67.564285,-71.684196,-70.925285,-61.784489,-44.201084,-21.900127,-0.61371398,14.783532,22.516844,24.24057,23.401089,22.820675,23.11684,22.916407,20.54785,15.877069,10.886556,8.5207157,10.585922,16.214767,22.06827,24.272348,20.869717,13.157382,4.972301,0.33553845,0.96139932,5.2450185,9.3762207,9.8353243,5.6315513,-1.1600747,-6.8648567,-8.6589899,-6.3663821,-2.4412053,-0.20919138,-1.5926288,-5.8518238,-10.15502,-11.548695,-8.9770889,-4.0018597,0.23181497,1.0649831,-1.9475241,-6.7633996,-10.16157,-9.7374353,-5.2968197,1.1777401,6.8500319,9.7020445,9.4886103,7.4879174,5.4020414,4.2706947,4.1232109,4.4582186,5.0063586,6.0631876,8.0817738,10.866416,13.099874,12.754571,8.2892447,-0.11348224,-10.171141,-18.398722,-21.856113,-19.708511,-13.612697,-6.6572065,-1.5101844,1.0516975,2.304589,4.363873,8.4439116,13.793867,18.059855,18.859194,15.515175,9.7569647,4.8480191,3.6423037,6.799005,12.321143,16.753977,17.316034,13.630607,7.9709826,3.8721962,3.9887919,8.5361986,15.25818,20.883963,23.1105,21.85734,19.054625,17.18557,17.583805,19.59465,21.105556,20.049931,15.877246,10.037393,5.1837821,3.6148033,5.9277534,10.688954,15.273149,17.324028,15.967012,12.123073,7.8470111,5.1639071,5.0856185,7.2829952,10.456165,13.075766,14.059723,13.103188,10.633254,7.5364728,4.8288879,3.3598721,3.5730023,5.3509941,8.0165386,10.558655,12.057525,12.133945,11.169277,10.121922,9.9908772,11.213305,13.362546,15.358874,16.094669,15.104971,12.867857,10.539546,9.2834272,9.6093521,11.130356,12.870454,13.901619,13.884275,13.168623,12.422876,12.078524,12.000228,11.621002,10.447093,8.5642748,6.7582188,6.1145539,7.3233585,10.13515,13.348728,15.388486,15.157707,12.669377,9.0794268,6.0983329,5.1189699,6.5492415,9.6963234,13.215542,15.823366,16.864754,16.464382,15.266974,14.001759,13.154842,12.899776,13.233121,14.136526,15.610329,17.562876,19.676338,21.403303,22.15427,21.588812,19.830786,17.458723,15.257347,13.864401,13.509299,13.980378,14.815487,15.584559,16.093346,16.407169,16.712547,17.129711,17.601198,17.918373,17.85463,17.313046,16.396141,15.358704,14.472281,13.876686,13.498543,13.084742,12.344189,11.136786,9.6141586,8.2223682,7.5306001,7.9396214,9.4084549,11.364314,12.892148,13.153583,11.834044,9.3602886,6.7259455,4.9792185,4.6441398,5.4218259,6.3789649,6.5395432,5.5244842,3.8182206,2.4492376,2.2497075,3.1716218,4.1652966,3.8134744,1.4237967,-2.0824976,-4.1340618,-1.5374998,7.8496494,23.680435,42.779465,60.243435,71.550781,74.661713,71.028397,64.95977,61.622906,64.662827,74.606445,88.792816,102.78031,112.45322,115.76487,113.32982,107.73048,102.05287,98.478127,97.597473,98.637978,100.27855,101.4892,101.93319,101.82389,101.47635,100.93693,99.94693,98.222427,95.802269,93.184647,91.137131,90.304161,90.873184,92.511116,94.585793,96.493546,97.861305,98.51519,98.309311,97.028976,94.52179,91.00177,87.275856,84.621078,84.248734,86.601082,90.923042,95.460129,98.278473,98.287758,95.861389,92.639832,90.588524,90.857193,93.138977,95.930916,97.529007,97.115608,95.237144,93.375,92.918144,94.243958,96.526924,98.380959,98.853813,98.049927,96.937035,96.502197,96.919182,97.398911,96.881065,95.048309,92.809464,91.702591,92.452049,93.64608,91.624832,82.008842,62.218834,33.542522,1.3709764,-26.798906,-44.673492,-50.013199,-45.447262,-36.825539,-30.094515,-28.490452,-31.554653,-36.301819,-39.577583,-40.036652,-38.595638,-37.319351,-37.720284,-39.721146,-41.929787,-42.879116,-42.213943,-40.915203,-40.423042,-41.367748,-42.916248,-43.281223,-41.062523,-36.444721,-31.338005,-28.286543,-28.854301,-32.594036,-37.320606,-40.510639,-40.872219,-39.022202,-36.847313,-36.052593,-36.955498,-38.377525,-38.671421,-37.094952,-34.495373,-32.782097,-33.559589,-36.920967,-41.301445,-44.531036,-45.351353,-44.31015,-43.376312,-44.529018,-48.31184,-53.377693,-57.350864,-58.401089,-56.425335,-53.024693,-50.331997,-49.562206,-50.333664,-51.21867,-51.061993,-50.031101,-49.560432,-51.186806,-55.136013,-59.771049,-62.441425,-61.267433,-56.666737,-51.515018,-49.699783,-53.893791,-63.915405,-76.684959,-87.778564,-93.601532,-92.899239,-86.85231,-77.96228,-68.645363,-60.463421,-54.294086,-50.988224,-51.742683,-57.736824,-69.257271,-85.024803,-102.35563,-118.1954,-130.40811,-138.48424,-143.22342,-145.66425,-146.05113,-143.57137,-137.01448,-125.83677,-110.84762,-94.052017,-77.826881,-64.0784,-53.970337,-48.283806,-47.90004,-53.756451,-66.060387,-83.240417,-101.52768,-115.81184,-121.6106,-117.158,-104.36513,-87.969734,-73.25663,-63.607914,-59.255131,-57.85836,-56.418354,-53.252998,-48.830265,-45.066696,-43.712944,-44.985573,-47.349991,-48.530861,-47.009205,-42.994301,-38.26936,-35.077484,-34.805336,-37.271946,-40.965569,-43.958389,-44.877739,-43.408337,-40.193291,-36.375084,-33.123215,-31.336149,-31.479685,-33.449276,-36.460445,-39.130989,-39.916096,-37.83329,-33.118721,-27.350407,-22.808216,-21.313295,-23.188419,-26.997742,-30.294796,-30.981813,-28.473524,-23.956503,-19.595692,-17.204388,-17.220634,-18.608334,-19.680286,-19.246271,-17.31646,-14.938529,-13.357194,-13.129488,-13.812537,-14.397446,-14.125724,-13.072869,-12.08303,-12.124578,-13.552169,-15.810871,-17.782875,-18.512508,-17.788754,-16.191442,-14.608732,-13.608105,-13.121186,-12.641638,-11.742473,-10.489331,-9.424243,-9.1353722,-9.7501373,-10.749525,-11.260184,-10.621364,-8.8181248,-6.4699602,-4.3917069,-3.0523589,-2.3226507,-1.6776483,-0.6803273,0.63118684,1.7467307,2.071285,1.3997892,0.12115718,-1.0003808,-1.3019077,-0.60641015,0.75298941,2.2552853,3.5838554,4.7707043,5.9856882,7.1612501,7.7935209,7.1369658,4.6998558,0.68473202,-3.9860277,-8.1447515,-11.07253,-12.945731,-14.708583,-17.429291,-21.558323,-26.5879,-31.346619,-34.7313,-36.379757,-36.830719,-37.073269,-37.808308,-38.940132,-39.651875,-39.013802,-36.705833,-33.356823,-30.258854,-28.627522,-28.871252,-30.320124,-31.57098,-31.232838,-28.642237,-24.173841,-19.032362,-14.693366,-12.302464,-12.294113,-14.331067,-17.511641,-20.720364,-23.000227,-23.850632,-23.369965,-22.180195,-21.129566,-20.874613,-21.537024,-22.634001,-23.350473,-23.01943,-21.526131,-19.376558,-17.371164,-16.0874,-15.513988,-15.092793,-14.151695,-12.436931,-10.369147,-8.8229389,-8.5544405,-9.6526518,-11.392121,-12.605949,-12.353909,-10.462223,-7.5966654,-4.8379493,-3.0484834,-2.4365325,-2.5673552,-2.7597725,-2.5602522,-1.969668,-1.3054501,-0.85272449,-0.59455049,-0.2244709,0.58791775,1.9042684,3.436254,4.7393475,5.5223169,5.8181453,5.8737726,5.8509693,5.6089706,4.8078828,3.3367705,1.7870052,1.5776455,4.5003448,11.816047,23.372223,37.290039,50.509609,60.013214,64.140358,63.313225,59.777943,56.482079,55.666801,57.89455,61.987167,65.852783,67.712944,67.053528,64.809357,62.733807,62.353012,64.112709,67.189255,70.04174,71.357986,70.83255,69.326813,68.330948,69.058189,71.714722,75.377884,78.548538,80.034691,79.622871,78.119492,76.730652,76.158203,75.97847,74.714424,70.604248,62.650787,51.358181,38.731155,27.524553,20.141518,17.749113,20.024654,25.574421,32.708569,40.116585,47.123989,53.509647,59.126453,63.641579,66.5756,67.586624,66.774849,64.778885,62.580036,61.119141,60.937,62.019688,63.898186,65.912636,67.48716,68.295273,68.284241,67.603653,66.503937,65.243637,64.007591,62.831047,61.54982,59.822697,57.262489,53.654728,49.169544,44.436375,40.392651,37.92971,37.483467,38.779152,40.888237,42.607063,42.994442,41.807491,39.612301,37.507244,36.597435,37.487339,40.042259,43.516693,46.947872,49.582249,51.114338,51.656349,51.527897,51.046848,50.459114,50.006325,50.002701,50.776825,52.44949,54.684593,56.635021,57.226547,55.705933,52.163773,47.684425,43.946693,42.417557,43.556297,46.492039,49.400349,50.410469,48.557655,44.254726,39.026432,34.671337,32.335384,32.008728,32.685677,33.032272,32.132656,29.888561,26.902527,24.001942,21.750404,20.240641,19.233152,18.46784,17.889593,17.633474,17.814993,18.315348,18.743397,18.613937,17.620447,15.815569,13.585151,11.446373,9.809495,8.8422737,8.4817543,8.5328608,8.757288,8.9071569,8.7370872,8.0588808,6.8510699,5.349803,4.009604,3.2897913,3.356427,3.8944883,4.1972489,3.5369716,1.6170861,-1.1866944,-3.9868817,-5.8851438,-6.5140133,-6.2650814,-6.0348883,-6.6361389,-8.257617,-10.342285,-11.982509,-12.578751,-12.311985,-12.087977,-12.960309,-15.402196,-18.920509,-22.296246,-24.32115,-24.558224,-23.620102,-22.767187,-23.077652,-24.733322,-26.897694,-28.274891,-27.985926,-26.185814,-24.01404,-22.910633,-23.745554,-26.323988,-29.570715,-32.243469,-33.684544,-34.118259,-34.330376,-34.992661,-36.127659,-37.092403,-37.084866,-35.807457,-33.812622,-32.275574,-32.330269,-34.39677,-37.926662,-41.711941,-44.541039,-45.78952,-45.615654,-44.714874,-43.860214,-43.540615,-43.873875,-44.746136,-45.990429,-47.451771,-48.938465,-50.181911,-50.913288,-51.032146,-50.71777,-50.344368,-50.216328,-50.316772,-50.298813,-49.782749,-48.761909,-47.775238,-47.625977,-48.764168,-50.767624,-52.385036,-52.261848,-49.952518,-46.499744,-44.02169,-44.359493,-47.534431,-51.053581,-50.718258,-42.697567,-25.77116,-2.4001286,22.126633,42.110306,54.107746,58.342125,58.088261,57.472225,59.059616,62.677994,66.091621,66.957733,64.70916,61.117794,59.202255,61.239899,67.213013,74.709976,80.341141,81.760124,79.023758,74.480728,71.318153,71.700417,75.611946,81.006935,85.048691,85.624886,82.284683,76.207748,69.419563,63.824211,60.566673,59.897278,61.37994,64.179031,67.280022,69.673752,70.588455,69.748466,67.504494,64.674088,62.104565,60.196857,58.714382,57.04039,54.729984,51.962063,49.530865,48.333237,48.688915,49.994217,51.009689,50.640606,48.694927,46.077023,44.23896,44.222313,45.925114,48.097576,49.088646,47.862644,44.629337,40.700191,37.702293,36.685078,37.671768,39.85194,42.164326,43.809708,44.393852,43.770584,41.912289,39.05909,36.045208,34.381542,35.701729,40.617744,47.598888,52.741287,50.950657,38.239223,14.031269,-17.860586,-50.345024,-75.885056,-89.685463,-91.597214,-85.765747,-78.276093,-74.116699,-75.076981,-79.567986,-84.219833,-86.151451,-84.568214,-80.895226,-77.596512,-76.569832,-78.12883,-81.092155,-83.760124,-85.051323,-85.069778,-84.820152,-85.354271,-86.960854,-88.925858,-89.989799,-89.182228,-86.495354,-82.976837,-80.18425,-79.322701,-80.568993,-82.973045,-84.996376,-85.383705,-83.871483,-81.323586,-79.206894,-78.702904,-79.976311,-82.048996,-83.381866,-82.838203,-80.446442,-77.467484,-75.676689,-76.259308,-78.993881,-82.266945,-83.982529,-82.877716,-79.472885,-76.060081,-75.67382,-80.576561,-91.072166,-105.27151,-119.89622,-131.64964,-138.43005,-139.83138,-136.82631,-130.96581,-123.60538,-115.53066,-107.04147,-98.28933,-89.587021,-81.514542,-74.81163,-70.152153,-67.905411,-67.953438,-69.617401,-71.755348,-73.078247,-72.636124,-70.284569,-66.85508,-63.838684,-62.649582,-63.829582,-66.669769,-69.539055,-70.792168,-69.737549,-67.056061,-64.370819,-63.206848,-63.994522,-65.772743,-66.807869,-65.740936,-62.510876,-58.433128,-55.366177,-54.507507,-55.614059,-57.164982,-57.360203,-55.297573,-51.562244,-47.861336,-45.966396,-46.660374,-49.34375,-52.488724,-54.574013,-54.865715,-53.585754,-51.474762,-49.161907,-46.825008,-44.338715,-41.706619,-39.361214,-38.042099,-38.316559,-40.106525,-42.603374,-44.673458,-45.496529,-45.00589,-43.841949,-42.878662,-42.676136,-43.236553,-44.188316,-45.192188,-46.209419,-47.407837,-48.799679,-49.949371,-50.06427,-48.48925,-45.285412,-41.445446,-38.504059,-37.711758,-39.271027,-42.140205,-44.570313,-45.071674,-43.225983,-39.853939,-36.458275,-34.311687,-33.758827,-34.13047,-34.260799,-33.231026,-30.869101,-27.74675,-24.761971,-22.632729,-21.61544,-21.545382,-22.059706,-22.778965,-23.331436,-23.290377,-22.194645,-19.748034,-16.106974,-12.024531,-8.6559229,-7.0419598,-7.5319996,-9.5051813,-11.608965,-12.432057,-11.2533,-8.4421349,-5.2745676,-3.2603209,-3.3481746,-5.4331422,-8.408906,-10.712609,-11.067276,-9.0585775,-5.2964554,-1.1214844,1.9878763,3.0462894,1.971141,-0.3971079,-2.6846135,-3.6356583,-2.7430391,-0.53991282,1.6439422,2.4015439,1.1017767,-1.6056207,-3.9875309,-4.1115756,-0.97553384,4.7694831,10.984819,15.084726,15.399767,12.071236,6.929534,2.4135571,0.18621968,0.30001608,1.4210274,1.9335974,1.1693655,-0.080702774,-0.12948315,2.3456347,7.2182097,12.785119,16.74073,17.63798,15.854851,13.37816,12.492769,14.21315,17.508335,19.890608,19.063126,14.618658,8.7102184,5.2255397,7.9000335,18.430771,35.626339,55.994614,75.349785,90.518066,100.29778,105.3673,107.44295,108.30025,109.15728,110.55297,112.52773,114.83635,117.06882,118.74148,119.46793,119.20099,118.38742,117.8601,118.45452,120.55922,123.90191,127.73814,131.32442,134.34177,136.95932,139.49606,141.95155,143.79791,144.24167,142.80589,139.81035,136.36371,133.81256,132.98898,133.765,135.22394,136.32901,136.61549,136.41914,136.49408,137.32515,138.66817,139.68211,139.5701,138.24596,136.49692,135.46495,135.77795,136.95546,137.56703,136.11835,132.12349,126.65218,121.94649,120.28485,122.7492,128.6124,135.68184,141.3692,143.86699,142.82021,139.23541,134.81,131.12007,129.06499,128.72878,129.57698,130.80418,131.6805,131.81845,131.30727,130.65161,130.48245,131.12965,132.2984,133.12967,132.74277,131.01062,129.03476,128.81908,132.07181,138.68282,145.82634,148.48724,141.48123,122.11653,92.091454,57.450962,26.386686,5.8475409,-1.359177,2.49718,11.538412,19.306192,21.719584,18.467543,12.298456,6.8554063,4.4322586,4.909863,6.3108611,6.4222703,4.3703036,1.1783005,-0.95835102,-0.15643393,3.8444347,9.308197,13.241616,12.798667,6.5916662,-4.7188482,-18.749987,-32.372532,-42.824474,-48.494686,-49.154583,-45.69429,-39.592854,-32.377621,-25.24752,-18.921618,-13.683677,-9.5421457,-6.4104328,-4.2251806,-2.959938,-2.5483575,-2.7848608,-3.2897398,-3.5931931,-3.3192906,-2.3785071,-1.0536771,0.090367787,0.45019633,-0.32892099,-2.1602123,-4.5091839,-6.5748806,-7.5747843,-7.0151668,-4.8531327,-1.5124286,2.2314241,5.4567523,7.3445311,7.4203053,5.7242537,2.8383908,-0.27864003,-2.6284759,-3.569175,-3.0922167,-1.8238282,-0.71032256,-0.51702338,-1.3936125,-2.7577426,-3.5961821,-3.0542216,-1.0013745,1.7571888,3.7833781,3.7018828,0.93404752,-3.9343092,-9.3763323,-13.648917,-15.646034,-15.424604,-14.112096,-13.2402,-13.863399,-15.946214,-18.359131,-19.493248,-18.164076,-14.315825,-9.1437922,-4.5658021,-2.3207951,-3.1655672,-6.5781755,-11.09806,-15.095272,-17.54771,-18.427187,-18.529301,-18.892529,-20.163342,-22.2647,-24.525396,-26.151661,-26.732395,-26.472233,-26.031189,-26.098049,-26.980228,-28.466043,-30.024223,-31.181957,-31.808201,-32.106098,-32.329937,-32.451454,-32.054153,-30.589365,-27.865494,-24.441004,-21.597172,-20.802086,-22.907785,-27.539412,-33.081844,-37.353313,-38.652058,-36.616669,-32.413914,-28.132166,-25.705109,-25.955132,-28.269989,-31.056206,-32.67152,-32.288338,-30.220953,-27.594507,-25.623428,-24.961952,-25.490532,-26.591095,-27.657499,-28.472834,-29.220976,-30.173632,-31.316383,-32.204403,-32.165646,-30.724813,-27.9699,-24.619709,-21.740685,-20.274178,-20.636942,-22.595596,-25.445683,-28.361467,-30.71813,-32.243584,-32.975151,-33.100014,-32.791996,-32.128147,-31.108677,-29.754181,-28.224211,-26.889347,-26.294313,-26.981964,-29.218037,-32.740246,-36.701164,-39.920612,-41.404461,-40.895187,-39.123096,-37.528236,-37.506351,-39.551292,-42.808113,-45.384853,-45.347324,-41.880234,-35.924881,-29.850018,-26.265738,-26.626684,-30.442608,-35.58371,-39.515404,-40.722321,-39.458752,-37.384621,-36.355022,-37.169498,-39.099838,-40.486744,-39.971699,-37.498665,-34.376499,-32.345287,-32.298363,-33.590221,-34.494678,-33.592972,-31.185217,-29.708128,-32.714142,-42.881035,-60.192894,-81.4198,-101.30699,-114.89524,-119.73508,-116.82389,-109.83321,-103.14349,-99.802048,-100.4453,-103.5838,-106.86646,-108.48372,-107.95454,-106.03067,-103.99168,-102.86587,-103.00602,-104.1233,-105.59615,-106.79338,-107.26527,-106.8186,-105.55285,-103.8759,-102.42906,-101.8534,-102.44717,-103.90459,-105.35213,-105.74859,-104.46933,-101.72976,-98.555573,-96.272408,-95.795555,-97.144386,-99.474785,-101.59856,-102.65585,-102.52676,-101.76035,-101.12202,-101.09132,-101.63139,-102.32614,-102.71947,-102.58099,-101.93102,-100.87817,-99.471375,-97.727989,-95.809349,-94.144073,-93.304077,-93.636734,-94.898918,-96.215988,-96.50663,-95.171005,-92.58847,-90.020729,-88.883537,-89.80085,-92.073486,-93.986038,-93.843193,-91.109802,-86.893822,-83.386505,-82.546059,-84.839989,-88.879272,-92.235107,-92.961159,-90.850227,-87.581703,-85.610504,-86.475548,-89.62648,-92.585976,-92.436104,-87.752045,-79.76194,-71.922333,-68.035789,-69.935173,-76.073631,-81.893608,-81.869797,-72.195938,-52.731834,-27.227043,-1.7395617,17.930059,28.539736,30.412636,26.821072,22.201006,20.130676,21.995485,26.831617,32.246941,35.848217,36.450188,34.529423,31.795971,30.183563,30.816454,33.483662,36.866428,39.360531,40.021835,39.103268,37.884953,37.901642,40.018288,43.892967,48.139717,51.09214,51.716278,50.141052,47.513901,45.296757,44.442009,44.933464,45.928288,46.360893,45.608078,43.819492,41.761959,40.335926,40.094463,41.040348,42.75803,44.723061,46.559265,48.109615,49.351139,50.28677,50.919533,51.302116,51.565445,51.847504,52.151199,52.262959,51.853848,50.752285,49.208519,47.911034,47.637032,48.671688,50.345009,51.045765,48.832386,42.396385,31.87027,18.996264,6.4975572,-3.0553391,-8.2879038,-9.4160538,-7.8015738,-4.964416,-1.6572914,2.4459953,8.2878962,16.512897,26.708681,37.310928,46.265205,52.057613,54.485996,54.692879,54.437008,55.054577,56.757545,58.701843,59.761837,59.480469,58.531391,58.329727,59.987118,63.274067,66.317711,66.358391,61.240376,50.81628,37.419334,25.044996,17.608835,17.184845,23.152996,32.680122,42.220852,49.189964,52.925709,54.529331,55.827232,58.158588,61.693302,65.575897,68.659981,70.281021,70.581482,70.262222,70.021446,70.105293,70.253922,70.017838,69.168983,67.904198,66.723877,66.111198,66.258667,67.018013,68.062279,69.09877,69.966232,70.576637,70.804192,70.462601,69.417351,67.739006,65.740387,63.820694,62.204403,60.77906,59.194782,57.201305,54.996506,53.304028,53.052586,54.805531,58.296894,62.407711,65.658791,66.959358,66.165657,64.100655,62.018501,60.847515,60.68676,60.863377,60.493568,59.165119,57.288383,55.885811,55.959156,57.843483,60.958466,64.106483,66.122581,66.474152,65.462723,63.944901,62.784042,62.382908,62.558174,62.779591,62.572945,61.816986,60.771076,59.864658,59.422245,59.506413,59.947773,60.492786,60.934132,61.134621,60.963772,60.249317,58.835175,56.741825,54.316071,52.223404,51.216087,51.759296,53.720695,56.331673,58.494267,59.304134,58.512642,56.659515,54.780319,53.839874,54.210743,55.500523,56.826077,57.360764,56.807552,55.495834,54.043102,52.814995,51.568123,49.556908,46.081364,41.136059,35.707424,31.45063,29.861763,31.407827,35.152763,39.153328,41.440601,41.036064,38.411335,35.126553,32.875069,32.515518,33.661892,35.039501,35.334248,33.976151,31.379831,28.550055,26.377964,25.127073,24.427267,23.706139,22.671551,21.44965,20.282291,19.075157,17.261303,14.248059,10.256508,6.9613857,7.3121037,14.347733,29.482279,51.208035,75.09951,95.362099,107.29306,109.42142,104.16212,96.565453,91.7724,92.510063,97.953377,104.5242,108.12378,106.51263,100.51154,93.409706,89.006531,89.4701,94.239189,100.52643,105.02261,105.73381,102.8874,98.478523,94.873688,93.412178,93.847923,94.858536,95.14402,94.30571,92.931091,91.917778,91.614761,91.463165,90.422241,87.863533,84.244278,81.004997,79.689415,80.866676,83.624741,86.046349,86.407318,84.315735,81.011635,78.589943,78.631683,81.137848,84.468102,86.321693,85.110901,80.838364,74.951385,69.349159,65.265671,62.770641,61.131454,59.64241,58.223167,57.330524,57.317322,57.845497,57.935188,56.708424,54.257576,51.841644,51.023006,52.160324,53.299458,50.442654,39.377232,18.181564,-11.080792,-42.655403,-69.442413,-86.21331,-91.935219,-89.913643,-85.722816,-84.163223,-86.988037,-92.589462,-97.609322,-99.319496,-97.281609,-93.387222,-90.456505,-90.425377,-93.2742,-97.249962,-100.06997,-100.24528,-97.729752,-93.652382,-89.49617,-86.342545,-84.600914,-84.206963,-84.954506,-86.631317,-88.902725,-91.162964,-92.623596,-92.694077,-91.421432,-89.638039,-88.62989,-89.469719,-92.411606,-96.727058,-101.08064,-104.20187,-105.44366,-104.93591,-103.33591,-101.42529,-99.833694,-98.987282,-99.161781,-100.44902,-102.58555,-104.80907,-106.00108,-105.22015,-102.41522,-98.863876,-96.928032,-99.084,-106.65505,-118.93798,-133.26328,-146.02399,-154.15224,-156.26669,-152.92422,-145.94987,-137.34685,-128.46872,-119.87838,-111.81139,-104.76041,-99.660973,-97.496552,-98.600075,-102.18613,-106.52033,-109.70902,-110.66156,-109.63344,-108.00164,-107.39733,-108.71823,-111.61172,-114.722,-116.52561,-116.23506,-114.23473,-111.81998,-110.43429,-110.87944,-112.9513,-115.66767,-117.89532,-118.97186,-118.96565,-118.47266,-118.13915,-118.24677,-118.62148,-118.89327,-118.89234,-118.87316,-119.36845,-120.72299,-122.59309,-123.76921,-122.53141,-117.4465,-108.22961,-96.190125,-83.945442,-74.448174,-69.748993,-70.09697,-73.846039,-78.24144,-80.707222,-79.991341,-76.600784,-72.338966,-69.234581,-68.458931,-69.799667,-71.919731,-73.184685,-72.549187,-70.011177,-66.440598,-62.969471,-60.362892,-58.745567,-57.790802,-57.170475,-56.915291,-57.4249,-59.125244,-62.018696,-65.452271,-68.295403,-69.4617,-68.490715,-65.856544,-62.814251,-60.844101,-60.966805,-63.26865,-66.867188,-70.329666,-72.339485,-72.293991,-70.556488,-68.254005,-66.729713,-66.922302,-68.974228,-72.249527,-75.725647,-78.526108,-80.291924,-81.195709,-81.626762,-81.783775,-81.470184,-80.247185,-77.845947,-74.539001,-71.169724,-68.754898,-67.877144,-68.263878,-68.868027,-68.45607,-66.365341,-62.952183,-59.424438,-57.140385,-56.805603,-58.074226,-59.800911,-60.765923,-60.391338,-58.989399,-57.41367,-56.391331,-56.014854,-55.733192,-54.811489,-52.896961,-50.273273,-47.636612,-45.590054,-44.253399,-43.277332,-42.22097,-40.961136,-39.778988,-39.038353,-38.722103,-38.244755,-36.773102,-33.884861,-30.082848,-26.718447,-25.271118,-26.413738,-29.506454,-32.920422,-35.036465,-35.276791,-34.465412,-34.24506,-35.918892,-39.491753,-43.563839,-46.157906,-45.930214,-42.967052,-38.666485,-34.835449,-32.642521,-32.11087,-32.40229,-32.572739,-32.190155,-31.394348,-30.469528,-29.395615,-27.828735,-25.554037,-22.992516,-21.224443,-21.345289,-23.544502,-26.631489,-28.516726,-27.486658,-23.462976,-18.316456,-14.87195,-15.143252,-18.94208,-23.844059,-26.622713,-25.25658,-20.182051,-13.941756,-9.4643879,-8.1601419,-9.1498823,-10.147847,-9.3337917,-6.8180189,-4.5639076,-4.7320728,-7.5881462,-10.529181,-9.1020451,0.45444551,18.705368,42.195137,64.929443,81.339447,88.976852,89.387215,86.780716,85.470993,87.704048,93.076088,99.599495,105.43034,110.0015,113.91698,117.93876,122.02097,125.19791,126.39171,125.45867,123.60685,122.80161,124.54975,128.92281,134.50851,139.30684,141.92467,142.25264,141.23077,139.98749,139.05443,138.22418,137.06044,135.54399,134.25238,133.8857,134.52858,135.31306,134.87802,132.39987,128.46204,125.05057,124.52953,128.18005,135.25136,143.19348,148.98738,150.77498,148.79987,145.12648,142.38434,142.35884,145.25549,149.94527,154.85266,158.81798,161.4335,162.82588,163.2507,162.89883,162.01842,161.11531,160.91209,161.97958,164.2989,167.14691,169.4861,170.62956,170.68462,170.40224,170.51514,171.08971,171.47054,170.96176,169.75768,169.29829,171.50992,177.18034,184.48586,188.84427,184.59663,167.87169,139.09297,103.58227,69.685837,45.256771,34.306774,35.5811,43.729397,52.303482,56.869747,56.614002,53.812397,51.787567,52.7085,56.458084,60.982143,63.631966,62.566963,57.472111,49.415695,40.186726,31.604712,25.09606,21.534996,21.204672,23.807854,28.59277,34.667316,41.407791,48.682377,56.624249,64.97908,72.444511,76.59478,74.727005,65.364136,49.58654,31.266081,15.802906,7.8497677,9.1997766,18.03145,29.977503,40.431717,46.781258,49.319897,50.422237,52.621292,56.857262,61.971973,65.661743,66.150955,63.426456,59.229996,55.873325,54.724251,55.397232,56.168934,55.29842,52.331928,48.507458,45.994946,46.487911,50.077816,55.138134,59.274731,60.718346,59.280544,56.308876,53.730965,52.835247,53.555767,54.661736,54.665806,52.835724,49.677799,46.628849,45.191765,46.060402,48.740826,51.84288,53.821762,53.726654,51.567207,48.168163,44.669487,41.982624,40.47253,39.963165,39.979916,40.047009,39.879875,39.410278,38.685986,37.740677,36.521423,34.909821,32.814342,30.274302,27.511566,24.893608,22.81476,21.544811,21.113983,21.291809,21.675325,21.849722,21.547691,20.734322,19.582453,18.359137,17.286331,16.445343,15.76352,15.073897,14.203268,13.039406,11.552821,9.7817068,7.8090467,5.7551293,3.7854199,2.1106155,0.95263064,0.47010136,0.66981399,1.353001,2.1413121,2.5926838,2.3681736,1.3746382,-0.19266653,-1.9405284,-3.467473,-4.560946,-5.2977281,-5.9884686,-6.9901142,-8.4869604,-10.363139,-12.241731,-13.668587,-14.334502,-14.207133,-13.504945,-12.548839,-11.606432,-10.841154,-10.391172,-10.492456,-11.506223,-13.766805,-17.301382,-21.601685,-25.645287,-28.240589,-28.564283,-26.606823,-23.250582,-19.894886,-17.806278,-17.547161,-18.801899,-20.685837,-22.331451,-23.382048,-24.095968,-25.027308,-26.530672,-28.447596,-30.197441,-31.20434,-31.348295,-31.101122,-31.225887,-32.231445,-33.965916,-35.658127,-36.415668,-35.861607,-34.469082,-33.332996,-33.493893,-35.251144,-37.943771,-40.390198,-41.738392,-42.17292,-42.970955,-45.786972,-51.54422,-59.601154,-67.748611,-73.126572,-73.606628,-68.891441,-60.721439,-52.068535,-45.751972,-43.210121,-44.04364,-46.494797,-48.519108,-48.827274,-47.364475,-45.065281,-43.139008,-42.359436,-42.753944,-43.791046,-44.854176,-45.650528,-46.30114,-47.105701,-48.198738,-49.371937,-50.200371,-50.382099,-50.035942,-49.718346,-50.106861,-51.537399,-53.710014,-55.800148,-56.961025,-56.930958,-56.345448,-56.489941,-58.557312,-62.804913,-68.132599,-72.422234,-73.569107,-70.718346,-65.040016,-59.557831,-58.010525,-63.230034,-75.79393,-93.601326,-112.58617,-128.24809,-137.31824,-138.85634,-134.37573,-127.04473,-120.38513,-117.02904,-117.98051,-122.55902,-128.9221,-134.88577,-138.72072,-139.6722,-138.08,-135.11246,-132.24452,-130.68199,-130.94189,-132.73445,-135.17064,-137.18823,-138.0051,-137.41246,-135.80772,-133.98746,-132.81578,-132.90936,-134.44379,-137.12016,-140.27673,-143.10063,-144.88293,-145.24849,-144.2838,-142.50084,-140.62839,-139.30377,-138.80226,-138.93855,-139.19185,-138.9826,-137.94518,-136.05421,-133.56638,-130.86154,-128.31645,-126.28423,-125.13225,-125.21618,-126.71218,-129.37598,-132.42819,-134.75517,-135.42636,-134.27234,-132.13412,-130.52124,-130.77332,-133.18626,-136.67854,-139.30263,-139.38266,-136.60718,-132.353,-128.94682,-128.24962,-130.43642,-133.79309,-135.74281,-134.51186,-130.3674,-125.55887,-122.88374,-123.70312,-126.66186,-128.01469,-123.50681,-110.78359,-90.926468,-68.182251,-47.999779,-34.471222,-28.598692,-28.283489,-29.905952,-30.465202,-29.01544,-26.667295,-25.34729,-26.233274,-28.884022,-31.545879,-32.335739,-30.473501,-26.774761,-23.139439,-21.414967,-22.361824,-25.318748,-28.685961,-30.848843,-30.959171,-29.161457,-26.246786,-23.056131,-20.04368,-17.227001,-14.459044,-11.755319,-9.4187145,-7.8835845,-7.4108605,-7.8629122,-8.7202845,-9.3347101,-9.2606211,-8.4676561,-7.3195772,-6.3487363,-5.9654903,-6.25986,-6.9818606,-7.6804023,-7.9068089,-7.3797555,-6.0574951,-4.123848,-1.9279213,0.093691282,1.5144701,2.0528469,1.7330928,1.003948,0.70499581,1.8006421,4.9131408,9.8355055,15.296363,19.197552,19.338552,14.368056,4.5180049,-8.2872,-21.076008,-30.968409,-36.264343,-36.940132,-34.323673,-30.172398,-25.707516,-21.157927,-16.030085,-9.8529596,-2.8459609,3.9789665,9.3778448,12.727081,14.568029,16.416759,19.887684,25.650169,32.887516,39.641739,43.87759,44.635967,42.574612,39.567459,37.617367,37.758625,39.613819,41.839394,43.126404,43.087978,42.470463,42.59071,44.410892,47.881279,51.976559,55.373718,57.295715,57.954594,58.319069,59.394726,61.525097,64.18647,66.397438,67.441162,67.395096,67.106781,67.639923,69.571648,72.613106,75.795685,78.082565,78.989395,78.810463,78.326828,78.22261,78.617798,79.028816,78.767204,77.494881,75.56002,73.89492,73.545662,75.129829,78.541122,83.044838,87.663773,91.604103,94.493324,96.358162,97.435829,97.981346,98.181076,98.172295,98.091942,98.083,98.25103,98.620758,99.14283,99.750366,100.4146,101.14832,101.95576,102.78387,103.53613,104.15562,104.71138,105.39821,106.41783,107.80943,109.36178,110.7016,111.52826,111.83987,111.97552,112.41289,113.4427,114.95227,116.49718,117.63678,118.29892,118.88112,119.95947,121.76674,123.81412,124.99326,124.19702,121.11998,116.70614,112.86597,111.52306,113.50504,117.95642,122.68668,125.31476,124.57053,120.99087,116.59447,113.73126,113.79412,116.54611,120.41695,123.52,124.72173,124.11811,122.70055,121.53173,121.03758,120.88464,120.46143,119.54744,118.63017,118.60279,120.04144,122.59105,124.94614,125.51804,123.40201,119.02144,114.00299,110.31532,109.17637,110.38968,112.51028,113.72967,112.93736,110.32681,107.21374,105.21731,105.31773,107.33019,110.0421,111.8519,111.49065,108.43662,102.89337,95.490433,86.989403,78.179222,69.925247,63.180168,58.792057,57.132816,57.771049,59.464993,60.593613,59.869942,56.970177,52.716267,48.679874,46.400379,46.62928,48.997059,52.254818,54.925354,55.989883,55.255322,53.258354,50.832722,48.628628,46.85218,45.322063,43.742977,41.989246,40.224953,38.8153,38.114105,38.267342,39.135872,40.35532,41.478889,42.12825,42.100212,41.411942,40.284988,39.069729,38.115604,37.616249,37.492249,37.386387,36.810684,35.403683,33.17659,30.602194,28.464613,27.513357,28.084404,29.887276,32.082268,33.622272,33.69458,32.048447,29.060951,25.533455,22.341791,20.114502,19.068243,