Bandpass,0,0.16541,124.87415,-1076.6307,-1583.4182,-1307.2711,-524.91455,236.39482,528.41003,267.55414,-238.60809,-539.26996,-375.10632,144.56485,642.2746,763.83252,439.19073,-76.307312,-400.62848,-308.06128,113.72489,541.67358,663.23718,403.55252,-30.8099,-315.18732,-248.89841,103.96645,473.14877,588.54407,377.16086,7.496397,-244.19861,-200.24348,93.309105,410.34106,517.76099,345.95447,32.345989,-188.06134,-158.49355,88.663582,363.86533,465.64481,328.09772,62.921486,-129.97192,-112.22108,94.769249,332.49783,426.98813,316.23444,90.269928,-81.425331,-77.134254,90.552528,290.1824,373.00491,282.61755,92.230629,-54.479927,-51.482555,93.665062,270.11929,349.03629,278.31412,117.21883,-11.762059,-15.092368,104.79713,255.4519,325.77167,267.8862,129.3351,14.239011,4.8673029,102.5055,229.87109,290.61893,240.1049,115.45114,4.951334,-18.078239,52.793465,156.49005,212.96645,183.00188,94.919922,20.204115,18.278728,92.469299,189.14867,239.01825,208.56078,123.48548,47.996235,36.682465,95.202782,178.09775,223.86821,200.30206,126.68553,57.74279,42.608589,89.688744,162.60913,208.72987,197.98019,143.31302,88.807571,75.67215,112.03618,168.45493,201.26089,185.42857,132.44958,80.720657,66.573586,97.891876,149.47107,182.63147,173.81537,131.00084,86.526482,72.560074,97.776726,142.10406,172.5145,167.43678,131.69225,91.603485,74.816406,90.254051,122.75572,145.54085,140.49026,111.02978,78.551079,65.790268,79.979462,108.16416,127.59348,122.89499,97.117744,68.772476,57.606236,70.008781,94.78495,112.0018,107.93211,84.922287,59.15913,48.425385,59.156765,82.24691,100.284,100.46503,83.543312,62.471607,52.193344,58.439888,73.795784,83.648743,77.308693,55.972557,31.808088,19.091362,24.0597,40.816269,55.973099,58.332996,46.47884,28.99445,17.592665,18.488361,28.30378,37.16568,36.31197,24.426506,8.1821375,-3.0591302,-4.188271,2.223892,8.3160782,7.0641375,-2.5535126,-15.093812,-22.980217,-22.191027,-15.046557,-8.1898899,-7.4929838,-13.804517,-22.642914,-27.870667,-26.429241,-20.550848,-15.886762,-17.095137,-24.273619,-32.887894,-37.172699,-34.410614,-26.917707,-20.338272,-19.588894,-25.454626,-34.254787,-40.677929,-41.596375,-38.074387,-34.238171,-34.023205,-38.30061,-44.463871,-48.63203,-48.681862,-45.793602,-43.409824,-44.49057,-49.198635,-54.762951,-57.589561,-56.004372,-51.570461,-48.01609,-48.586636,-53.771011,-61.032951,-66.68277,-68.478729,-67.077255,-65.354759,-66.193108,-70.392456,-76.197975,-80.688477,-81.922997,-80.259865,-77.952942,-77.427246,-79.562286,-83.215439,-86.228661,-87.062233,-85.805244,-83.874702,-82.755882,-82.843849,-83.297615,-82.965729,-81.571358,-80.139946,-80.265808,-82.764435,-86.79512,-90.232521,-91.125488,-89.213783,-86.345787,-85.381546,-88.256798,-94.533073,-101.47993,-105.70271,-105.26398,-100.89558,-95.509842,-92.362122,-93.100578,-96.964622,-101.56987,-104.63947,-105.45615,-105.08996,-105.36501,-107.39926,-110.78661,-113.96091,-115.40741,-114.79975,-113.24231,-112.476,-113.65115,-116.54879,-119.77136,-121.71397,-121.59342,-119.82469,-117.55275,-115.7696,-114.71327,-113.97998,-113.20148,-112.69128,-113.48071,-116.63466,-122.30637,-129.23828,-135.15085,-137.86331,-136.47729,-131.88292,-126.26947,-121.94612,-120.1901,-120.77755,-122.38757,-123.52937,-123.38102,-122.08032,-120.42213,-119.28481,-119.19435,-120.23058,-122.1854,-124.73315,-127.45997,-129.81186,-131.15192,-131.03702,-129.5929,-127.68604,-126.64404,-127.56715,-130.60634,-134.69789,-138.01582,-138.9509,-137.04791,-133.30797,-129.63481,-127.74575,-128.21901,-130.2648,-132.33545,-133.14223,-132.39436,-130.7908,-129.32596,-128.44984,-127.71279,-126.16174,-123.19521,-119.22499,-115.6028,-113.78758,-114.30025,-116.22896,-117.73129,-117.31501,-115.10435,-113.21295,-114.84106,-122.50171,-136.36609,-153.72166,-169.93457,-180.45728,-182.8297,-177.63612,-167.97736,-157.83115,-150.22672,-146.16216,-144.69022,-143.92789,-142.29948,-139.32243,-135.62105,-132.3331,-130.36806,-129.95294,-130.63998,-131.65465,-132.31047,-132.26285,-131.53261,-130.37555,-129.11809,-128.03511,-127.27825,-126.83632,-126.52814,-126.05114,-125.09549,-123.48245,-121.2464,-118.5964,-115.77241,-112.89527,-109.92988,-106.8054,-103.61165,-100.70937,-98.629135,-97.778671,-98.135246,-99.150063,-99.977219,-99.925301,-98.855309,-97.250626,-95.879517,-95.244179,-95.176224,-94.871559,-93.382103,-90.270775,-85.999557,-81.764885,-78.840782,-77.819038,-78.225601,-78.774071,-78.119019,-75.652367,-71.8517,-67.970749,-65.27623,-64.31575,-64.665871,-65.28627,-65.212563,-64.116966,-62.382744,-60.686642,-59.421368,-58.385567,-56.962528,-54.6488,-51.536205,-48.376209,-46.149071,-45.415905,-45.899662,-46.600376,-46.3923,-44.721516,-41.947857,-39.107555,-37.2551,-36.814758,-37.353516,-37.896862,-37.550968,-36.01265,-33.65572,-31.190315,-29.17535,-27.729876,-26.605627,-25.502451,-24.343004,-23.290571,-22.52803,-22.023476,-21.518404,-20.775667,-19.876913,-19.273991,-19.467827,-20.502052,-21.671415,-21.764162,-19.796665,-15.800422,-11.088095,-7.7019858,-7.2856221,-10.058869,-14.587508,-18.567087,-20.174345,-19.130293,-16.771389,-15.069461,-15.254394,-16.980703,-18.61935,-18.476089,-16.074045,-12.568861,-9.964035,-9.6583033,-11.371016,-13.264005,-13.236534,-10.497263,-6.2540007,-2.9409833,-2.4549332,-4.6509085,-7.2607021,-7.4345112,-3.9094014,1.7631469,5.9646511,5.4149213,-0.34350467,-8.2050037,-13.27233,-12.174997,-5.7243481,1.1256235,2.4118478,-4.3188634,-15.004656,-19.853472,-7.9978604,26.364584,79.890572,140.65114,193.30763,226.18484,236.38036,230.1877,218.83388,212.18893,214.09309,221.73491,228.92914,230.83923,227.06468,221.35039,218.50203,220.8576,226.76875,232.0123,232.9912,229.39186,224.41582,222.43587,225.73474,232.63206,238.36688,238.22508,230.8591,219.5752,210.67519,209.85327,218.89624,234.70738,251.14906,262.41339,265.76208,262.06461,254.14972,244.44902,233.74992,221.8819,209.58148,199.77496,196.85582,204.03003,220.41835,240.14326,254.58118,256.90247,246.29251,229.06862,215.56351,214.2065,226.12143,243.5239,253.1499,243.04993,209.06535,157.39975,101.8653,57.350815,33.07943,29.172609,38.018745,49.234329,55.182522,54.056107,49.241192,45.91922,47.291836,52.69384,58.443859,60.54884,57.381901,50.687195,44.446205,42.460663,46.181011,54.020973,62.425934,67.940079,69.026428,66.651138,63.425022,61.917133,63.166172,66.22393,68.921951,69.335518,67.03196,63.342701,60.499374,60.176472,62.365604,65.323898,66.67572,64.998543,60.868347,56.638248,55.022549,57.358238,62.676426,68.227852,71.158829,70.254517,66.600082,62.733147,60.892258,61.587185,63.47411,64.56897,63.853512,62.045181,60.941555,61.855412,64.392258,66.601341,66.47612,63.675793,60.061478,58.475895,60.570816,65.347534,69.680244,70.626877,67.855072,64.206451,63.673985,68.068695,74.904388,78.438255,73.58741,60.112087,43.822353,33.356457,34.265255,44.480103,54.84869,55.203945,42.389454,24.662786,18.65694,39.803925,91.80294,162.06436,226.80479,263.43674,262.96637,234.6969,200.16029,180.01968,182.2224,198.85443,213.39182,213.15923,198.41986,181.95378,179.59529,198.46831,231.24191,260.50009,270.1904,256.07169,227.71686,200.59686,183.94815,173.41667,154.38997,114.41801,56.316574,2.2853358,-15.188026,28.843241,135.8931,280.17493,419.68195,515.9707,551.1496,532.58984,483.73013,427.85828,375.4534,322.43277,258.93939,181.41121,99.061569,30.317743,-8.0835743,-11.699164,8.5167847,32.553333,42.790836,33.140732,10.428678,-12.059037,-23.965101,-23.943029,-19.039818,-18.748886,-28.406439,-46.394501,-66.416733,-82.457016,-92.501915,-98.552094,-103.51344,-107.86164,-108.87798,-103.01404,-89.382225,-71.457947,-55.465179,-46.504345,-45.292084,-48.039894,-49.729427,-48.487087,-47.790401,-54.602127,-74.33947,-105.92816,-140.44627,-164.78001,-168.5834,-150.61047,-120.5759,-95.071991,-89.367744,-109.26537,-147.30484,-185.45169,-203.12907,-186.75002,-136.11375,-64.531029,7.397366,61.285751,89.02079,95.326401,93.591858,97.281548,111.70956,130.8992,141.50987,131.76323,100.19917,58.840862,28.312634,27.090132,60.697575,117.06103,170.98607,195.64848,175.0442,110.88354,20.685829,-71.187515,-144.15083,-188.0058,-202.97307,-194.81303,-169.33859,-130.11674,-80.151703,-25.123983,25.382042,60.569363,73.775276,66.876373,50.385368,38.567024,42.210518,63.334461,94.92942,125.65424,146.34169,154.26311,152.8604,147.79405,142.49837,136.44492,127.09885,113.74831,99.977921,92.510948,96.774048,112.01855,129.44365,135.07358,116.21711,68.059624,-3.2845266,-82.986191,-153.82629,-203.35374,-228.38565,-234.99173,-234.51173,-237.96231,-251.56085,-275.08603,-303.18292,-328.42075,-344.46631,-348.12964,-339.84494,-322.88062,-301.92981,-281.7005,-265.86249,-256.42361,-253.44951,-255.04895,-257.6723,-256.87006,-248.6024,-230.90184,-205.2973,-177.16373,-154.37254,-144.35776,-150.70322,-171.01654,-197.61931,-221.32718,-236.82663,-246.87004,-262.60825,-299.09894,-367.61279,-468.43002,-588.0705,-702.9754,-788.41278,-828.54071,-822.74408,-785.12427,-737.48645,-699.4679,-680.77667,-679.15161,-684.42682,-685.82715,-678.16614,-663.68207,-649.08307,-640.21979,-637.98303,-637.92633,-633.54358,-620.76495,-600.56262,-577.94617,-558.13208,-542.60931,-527.92554,-508.18494,-479.69196,-444.58273,-410.77487,-387.88083,-381.41217,-388.88989,-400.46375,-403.9039,-391.08078,-362.06772,-324.44675,-288.38019,-260.61911,-241.18185,-224.59825,-204.59937,-178.92561,-150.9704,-127.21368,-112.30322,-105.2535,-99.469666,-86.69799,-62.326405,-28.522047,6.8821392,35.032921,51.229496,57.368591,60.299,67.409935,82.420212,103.88461,126.83419,145.80025,156.79567,157.05405,143.43748,111.73521,58.484867,-15.191508,-100.36411,-180.6927,-237.55978,-257.95474,-240.89972,-198.48956,-150.46608,-114.99118,-100.57888,-103.51292,-111.86221,-113.40295,-102.68509,-83.33593,-64.795815,-56.006145,-60.078884,-72.923203,-86.087646,-91.561409,-85.487228,-68.937592,-46.034451,-21.241257,2.3043895,22.782869,38.799149,48.924923,52.342934,50.057941,45.416256,43.043495,46.512085,56.16209,68.63958,78.701462,82.334396,79.288658,73.416428,70.559853,75.263748,88.28804,106.33618,124.008,136.66826,142.51958,142.84824,140.63368,138.63919,138.18738,139.14209,140.73752,142.4416,144.24577,146.37259,148.86769,151.54424,154.33214,157.6447,162.29713,168.87411,176.9505,184.79732,189.93802,190.33051,185.47324,176.73817,166.733,158.13245,152.72598,151.18738,153.47766,159.31866,168.19919,178.89044,189.03064,195.48187,195.6609,189.21223,178.85699,169.51889,165.85449,169.47723,177.63011,184.39249,183.99794,174.42133,159.02245,145.06509,139.80106,146.3671,161.96368,179.46083,191.49361,194.57211,190.72499,185.74973,185.27635,191.20889,200.81883,209.01701,212.24968,211.39259,211.64339,219.33867,237.62004,263.67654,289.39221,305.19269,304.96768,289.30548,265.26086,242.85252,230.26469,230.30467,239.80136,251.92918,259.92343,260.13535,253.01515,241.91292,230.7464,221.99918,216.06499,212.02287,209.0891,207.69328,209.46114,216.10645,227.91606,242.78761,256.51263,264.33017,263.05441,252.68948,236.61865,220.15024,208.07758,202.49678,202.06264,203.12738,202.166,198.12791,193.33524,192.33134,199.25117,215.16635,236.92688,258.21716,272.32791,275.21286,267.27454,253.04002,239.00085,230.76436,230.86145,238.06992,248.30968,256.50861,258.59796,252.95001,240.89543,226.25522,214.03322,208.60596,211.95651,222.63416,236.01189,245.95383,247.33989,238.35757,221.43927,202.29654,187.43904,181.34419,184.6223,193.98654,203.90462,209.00835,206.09436,194.92506,177.74147,157.99019,138.96642,122.8819,110.5162,101.34322,93.947594,86.583206,77.752327,66.656082,53.346821,38.500916,22.921467,7.0605178,-9.1366882,-25.961824,-43.43359,-60.90477,-77.059494,-90.299271,-99.259804,-103.16223,-101.89259,-95.942345,-86.402832,-75.026031,-64.116783,-55.984276,-51.976528,-51.570515,-52.207699,-50.263233,-42.815311,-29.220337,-11.448854,7.1385136,23.817419,37.914291,50.535252,62.754272,73.68058,80.162193,78.868347,69.695076,58.111645,54.296124,68.771843,106.63763,163.75029,227.36574,281.16086,311.88812,313.94873,289.61966,245.5614,188.57359,123.6979,55.608505,-8.6162834,-58.616451,-83.769142,-79.001366,-49.610264,-11.179538,16.496666,18.57498,-7.8794851,-53.367989,-102.11708,-140.92,-165.06873,-178.01978,-185.93492,-191.7916,-193.76425,-189.00485,-179.44373,-174.24678,-185.81693,-221.25708,-275.33063,-330.82233,-367.46631,-374.34106,-357.40652,-336.3812,-332.16806,-352.84256,-387.87274,-415.12576,-416.45844,-391.29367,-358.29578,-343.09045,-359.85104,-399.6051,-434.36316,-435.64709,-395.61035,-335.99121,-297.20941,-312.83624,-384.9996,-476.90317,-528.62555,-487.88474,-337.83344,-105.54662,153.258,383.1998,554.04956,667.27655,742.78931,797.14398,829.14056,822.43378,762.23712,653.13196,524.25928,417.06833,363.04898,366.01361,400.69702,428.71539,421.60803,376.36151,314.17581,264.41367,245.0629,252.52449,266.53671,265.659,242.06502,205.65524,175.37474,164.42467,169.83435,173.39111,152.99979,96.729546,10.544518,-84.623116,-163.78287,-209.5602,-218.00706,-196.6115,-157.67178,-112.24919,-68.017311,-30.517824,-4.7637329,5.3865423,-0.12477106,-15.626227,-31.286659,-38.360916,-35.075253,-28.907614,-32.98439,-58.231533,-106.02641,-166.11305,-221.33801,-256.45633,-265.74081,-255.01643,-237.34361,-225.40468,-225.26175,-234.73712,-246.47787,-253.05992,-250.89578,-241.21263,-228.536,-218.34998,-215.31189,-222.27209,-239.59987,-264.58289,-291.49615,-313.24722,-324.6391,-325.72311,-322.78259,-325.3316,-339.98883,-364.63843,-386.95047,-389.21231,-357.55444,-290.49478,-201.5294,-113.70692,-48.881886,-17.652035,-15.641534,-27.95179,-38.685341,-39.596767,-32.893917,-27.236597,-30.326918,-43.315521,-60.522327,-74.06044,-79.62706,-79.207695,-78.920654,-83.826721,-93.671234,-102.76492,-104.16776,-95.222122,-80.468361,-69.743256,-72.534744,-92.190269,-123.66502,-156.17378,-178.99734,-186.8564,-181.79716,-170.9102,-161.74651,-158.37997,-160.19244,-163.45366,-164.09419,-159.748,-150.13368,-136.20897,-119.23409,-100.53525,-81.842361,-65.447311,-53.612144,-47.44577,-46.128021,-47.268566,-48.352989,-48.30571,-47.9729,-49.063103,-52.278896,-56.106941,-57.375679,-53.411579,-44.336277,-33.741322,-26.980452,-27.995033,-36.744633,-49.062504,-59.17466,-63.271194,-61.710514,-58.308998,-57.177364,-59.333508,-61.574299,-58.578033,-46.926117,-28.262384,-9.2273979,2.0926661,1.070004,-10.379314,-24.624031,-32.637295,-29.100517,-15.079634,3.3111815,19.184711,29.131033,34.633327,39.905849,47.939011,57.763096,65.009567,65.413834,58.679878,49.70747,45.915909,52.133266,66.37925,79.533562,79.504242,57.630253,13.565294,-44.226955,-102.56663,-149.72295,-180.08994,-195.01164,-199.93727,-200.24161,-198.4726,-194.37985,-186.9702,-176.54134,-164.98856,-154.26939,-144.47433,-133.30843,-117.68636,-96.435562,-72.087906,-50.220055,-36.479488,-33.126614,-37.408424,-42.96616,-43.497627,-36.390568,-24.044306,-12.102992,-5.8162446,-6.8928313,-12.785772,-18.685017,-20.743902,-18.383247,-14.283017,-12.285793,-14.768929,-21.235344,-28.894211,-34.613087,-36.794567,-35.966831,-33.905758,-32.129944,-30.916784,-29.440403,-26.722099,-22.517801,-17.435472,-12.281615,-7.2842865,-1.9149275,4.5084324,11.954306,19.344673,25.163822,28.647989,30.653297,33.441799,39.388744,49.440193,62.398197,75.548599,86.158134,92.69165,94.786201,91.991905,82.355507,62.255096,28.136578,-20.605562,-79.450615,-139.04175,-188.35953,-219.36292,-230.56935,-227.45563,-219.341,-214.4881,-216.21886,-222.19543,-227.05611,-226.56378,-220.60347,-213.24377,-210.03902,-214.49248,-226.00676,-240.51564,-253.14282,-260.94214,-263.88263,-263.61832,-261.21341,-255.71927,-244.80949,-227.0748,-204.21942,-181.28987,-164.34955,-156.8414,-156.99068,-158.16002,-152.28738,-134.53224,-106.35226,-75.061668,-50.007706,-37.541424,-37.674332,-44.26918,-48.489346,-43.368675,-26.888102,-2.0662479,25.521646,50.937595,71.812248,88.184891,100.94755,110.42338,116.24529,118.49876,118.99435,121.36375,129.55414,145.56868,168.00992,192.56413,214.2686,230.13216,240.354,247.2925,252.88885,256.39087,254.11989,241.69415,217.41451,184.58961,151.08989,126.09714,115.7979,120.50063,134.85329,150.99451,162.7468,168.42079,170.74367,174.21646,181.70663,192.39961,202.25279,206.50861,202.63707,191.96164,179.1331,169.89891,168.48119,175.89545,189.85432,206.02101,219.82471,228.0166,229.48175,225.21889,217.6599,209.60866,203.13925,198.84746,195.80988,192.36046,187.35847,181.23207,176.04474,174.30708,177.04669,182.27563,184.98247,179.01196,160.06409,128.23524,88.596413,49.300369,18.083466,-1.0347744,-9.1297808,-11.165513,-12.964075,-18.063915,-26.132874,-33.639805,-36.215889,-31.290497,-19.589638,-4.8356256,8.0159044,14.98501,14.640418,8.4232769,-0.2240862,-7.3632631,-9.9779921,-6.7577763,1.9447349,14.80402,30.426729,47.983013,67.241386,88.026077,109.48103,129.70741,146.1819,156.88611,161.53845,162.07837,161.85573,163.73347,168.09508,172.02885,170.45323,158.85374,136.2469,106.65044,78.019821,58.984364,54.9958,65.909317,86.273262,108.12129,124.71033,133.21349,135.08713,134.21907,134.18303,136.27145,139.32263,141.17749,140.64793,138.69899,138.16084,142.23605,152.74565,169.09964,188.45477,206.83008,220.51959,227.15776,226.1371,218.4536,206.23851,192.18883,178.97948,168.68689,162.32008,159.64023,159.41713,160.07901,160.47041,160.32103,160.16327,160.75723,162.39127,164.51189,165.93092,165.48842,162.75366,158.3228,153.52686,149.73462,147.67508,147.16895,147.3842,147.4035,146.72554,145.40724,143.81842,142.23465,140.57678,138.4735,135.5829,131.92685,127.98637,124.47527,121.9296,120.37651,119.29593,117.89882,115.54529,112.04124,107.63963,102.76952,97.693596,92.335655,86.395737,79.66259,72.281586,64.749825,57.594585,50.932102,44.238514,36.581532,27.282461,16.663879,6.394021,-0.90749955,-2.7400901,2.0217283,12.367018,25.367077,37.352192,45.4828,48.897091,48.824226,47.623829,47.323563,48.510136,50.205914,50.754971,49.117611,45.714886,42.245918,40.553947,41.242828,42.948135,42.806831,37.952785,27.22373,12.092086,-3.7598441,-16.04541,-21.827122,-20.802734,-15.293923,-9.0219145,-5.3782477,-6.0926671,-10.889162,-18.130686,-25.939438,-33.121788,-39.4622,-45.38699,-51.35323,-57.398109,-63.092285,-67.841553,-71.278,-73.480652,-74.926483,-76.25898,-78.045242,-80.643478,-84.186073,-88.60453,-93.633995,-98.811249,-103.53809,-107.25881,-109.70673,-111.08309,-112.02888,-113.35439,-115.64626,-118.9668,-122.82423,-126.4382,-129.14861,-130.73318,-131.46356,-131.89618,-132.55128,-133.67915,-135.22702,-136.9713,-138.67873,-140.16989,-141.26418,-141.6945,-141.10916,-139.20355,-135.91014,-131.51324,-126.5977,-121.85827,-117.89361,-115.10944,-113.75339,-113.98575,-115.85623,-119.14912,-123.21154,-126.96514,-129.2245,-129.23349,-127.1246,-123.97522,-121.33856,-120.46159,-121.6428,-124.14431,-126.74401,-128.5912,-129.80042,-131.3606,-134.38541,-139.19708,-144.89365,-149.76262,-152.33638,-152.41193,-151.31671,-151.15855,-153.47084,-158.11069,-163.16402,-165.99438,-164.82639,-159.87413,-153.27953,-147.87016,-145.50471,-146.04413,-147.58524,-147.7757,-145.33356,-140.78185,-135.94952,-132.62294,-131.29494,-130.87822,-129.58269,-126.35733,-121.90346,-118.54021,-118.95571,-124.60442,-134.73566,-146.63203,-156.88681,-162.95499,-164.13696,-161.58925,-157.56348,-154.43445,-154.00069,-157.17154,-163.83797,-172.72256,-181.28387,-186.02113,-183.4695,-171.73676,-151.88687,-128.26239,-107.22901,-94.677841,-93.435318,-101.94865,-115.02422,-126.2897,-131.08624,-128.26913,-120.0544,-110.19108,-101.66122,-95.264305,-89.779457,-83.377716,-75.237442,-66.31559,-58.877995,-55.212482,-56.399254,-61.851845,-69.752953,-77.942223,-84.641968,-88.684952,-89.362465,-86.273018,-79.444763,-69.650826,-58.558598,-48.396099,-41.168701,-37.843002,-38.021172,-40.343018,-43.364094,-46.319416,-49.257133,-52.481277,-55.761589,-57.974762,-57.562595,-53.604897,-46.806194,-39.650036,-35.441063,-36.657318,-43.516731,-53.60907,-62.869141,-67.41687,-65.307266,-57.298943,-46.303665,-35.886444,-28.642591,-25.25923,-24.629072,-24.805313,-24.189377,-22.313377,-19.881088,-18.164747,-18.178133,-20.108639,-23.291138,-26.677847,-29.483871,-31.610756,-33.601192,-36.167645,-39.598335,-43.423645,-46.570335,-47.927711,-46.982246,-44.120052,-40.398815,-36.934086,-34.304272,-32.372707,-30.640011,-28.860785,-27.449528,-27.326403,-29.249043,-33.076397,-37.521229,-40.661667,-40.968216,-38.210968,-33.631371,-29.213846,-26.488817,-25.634747,-25.475113,-24.381945,-21.487118,-17.384899,-13.84304,-12.707455,-14.733461,-19.128195,-24.106342,-28.07509,-30.645174,-32.795826,-36.10574,-41.590881,-48.934822,-56.603558,-62.726131,-66.125031,-66.827591,-65.790199,-64.11261,-62.325531,-60.207878,-57.163326,-52.791492,-47.209709,-40.940273,-34.543373,-28.350605,-22.514135,-17.267714,-13.081718,-10.47553,-9.571455,-9.7652159,-9.8841267,-8.8650188,-6.5480437,-3.9968784,-3.0073037,-5.0179901,-10.103208,-16.748901,-22.631212,-25.939915,-26.389629,-25.241127,-24.312595,-24.652195,-25.783489,-26.045893,-23.796223,-18.639238,-11.835234,-5.6046891,-1.8121055,-0.92740643,-1.9458892,-3.2601769,-3.8141723,-3.701812,-3.8103328,-4.8240476,-6.3740716,-7.0027466,-4.9972796,0.51131809,9.0031319,19.005266,29.213259,39.477188,50.892479,64.859703,81.728508,99.98877,116.65334,128.69812,134.70941,135.72275,134.73228,135.17209,139.27812,147.25093,157.58229,168.18211,177.52484,185.16132,191.46306,196.98509,201.99791,206.48489,210.46919,214.27029,218.38281,223.02411,227.71523,231.28476,232.38884,230.24602,225.09479,218.04761,210.42458,203.01163,195.73686,187.95883,179.1237,169.28705,159.09692,149.22835,139.67084,129.40871,116.80195,100.52081,80.512947,58.429413,37.234295,20.181644,9.6794586,6.5871754,10.221974,18.9639,31.075325,45.316261,61.117603,78.33551,96.80352,115.95091,134.67896,151.54881,165.20151,174.83969,180.56999,183.43968,185.10718,187.23796,190.8609,195.97415,201.60423,206.31465,208.93077,209.12355,207.55913,205.54753,204.38881,204.76581,206.48436,208.64941,210.12152,209.96965,207.68898,203.13623,196.32161,187.26534,176.04298,162.97711,148.80212,134.62671,121.64323,110.70422,101.98835,94.946335,88.567383,81.83252,74.123734,65.393654,56.042297,46.60965,37.480812,28.768801,20.414558,12.404758,4.939096,-1.5799037,-6.7395868,-10.371099,-12.694723,-14.247432,-15.61998,-17.157007,-18.808722,-20.23708,-21.120987,-21.469944,-21.733311,-22.604998,-24.610653,-27.713341,-31.189371,-33.888535,-34.776417,-33.484062,-30.564743,-27.298809,-25.120699,-24.941595,-26.700947,-29.370554,-31.415113,-31.49424,-29.07778,-24.688292,-19.657534,-15.507925,-13.245028,-12.894682,-13.511736,-13.666163,-12.172718,-8.6900949,-3.8592596,1.120896,5.2716932,8.5303764,11.92857,17.078453,25.188797,36.143997,48.205349,58.587357,64.675873,65.267021,61.156574,54.747997,48.887283,45.559376,45.138569,46.542244,48.106663,48.60994,47.842831,46.46524,45.352314,44.925884,44.912552,44.632381,43.549053,41.656555,39.430614,37.407372,35.722813,33.964455,31.449978,27.733603,22.976221,17.91362,13.441625,10.103083,7.8223257,6.0526428,4.2140603,2.1073775,0.023925373,-1.503906,-2.1144114,-1.8907182,-1.3079106,-0.90044725,-0.89122015,-1.0432681,-0.83650953,0.14975967,1.9012192,3.8966711,5.3463769,5.6000104,4.4941635,2.4584262,0.33854976,-0.96433842,-0.86948365,0.64628309,3.0326021,5.3691592,6.7149749,6.4796033,4.673471,1.9225671,-0.7827816,-2.5145113,-2.8180544,-1.9036951,-0.51425695,0.4627521,0.42583248,-0.70314455,-2.5508947,-4.5988607,-6.5097303,-8.2663298,-10.058219,-12.030543,-14.097964,-15.963507,-17.318422,-18.058334,-18.339882,-18.42836,-18.455242,-18.283642,-17.605593,-16.217936,-14.276239,-12.323046,-11.03854,-10.861913,-11.734717,-13.143504,-14.437721,-15.211824,-15.502464,-15.687094,-16.180706,-17.158577,-18.493866,-19.924578,-21.290445,-22.639078,-24.120113,-25.770258,-27.392065,-28.661219,-29.407457,-29.850494,-30.570045,-32.167088,-34.810467,-37.982773,-40.6394,-41.729668,-40.777336,-38.159191,-34.904552,-32.145123,-30.565044,-30.183441,-30.561432,-31.234098,-32.030518,-33.056904,-34.391609,-35.772923,-36.575989,-36.157368,-34.350899,-31.744987,-29.48432,-28.652891,-29.598825,-31.638079,-33.359707,-33.38089,-31.111776,-27.077671,-22.61904,-19.168184,-17.541943,-17.645353,-18.697536,-19.765995,-20.241245,-19.984207,-19.141047,-17.849096,-16.096916,-13.840199,-11.246754,-8.8246069,-7.2669458,-7.0672998,-8.1536551,-9.8135691,-11.007081,-10.907152,-9.3446474,-6.8815446,-4.4646835,-2.8732634,-2.296787,-2.2893431,-2.1071212,-1.2054821,0.40638152,2.1461091,3.1552031,2.7206087,0.59275091,-2.9298604,-7.1352959,-11.147405,-14.188024,-15.807858,-16.078423,-15.713449,-16.033983,-18.683432,-25.090055,-35.838192,-50.240803,-66.391266,-81.775116,-94.230011,-102.81945,-108.18273,-112.16421,-116.89128,-123.75713,-132.80917,-142.82088,-151.96376,-158.69936,-162.43637,-163.66592,-163.58434,-163.46349,-164.10901,-165.63969,-167.61938,-169.39731,-170.45009,-170.5721,-169.87317,-168.64175,-167.17313,-165.64883,-164.10861,-162.50858,-160.82309,-159.12961,-157.61957,-156.51135,-155.89594,-155.59906,-155.15962,-153.97833,-151.59624,-147.97093,-143.59087,-139.33563,-136.12572,-134.5289,-134.52716,-135.56436,-136.84061,-137.68442,-137.80093,-137.28212,-136.4126,-135.41998,-134.33109,-133.00577,-131.29532,-129.19559,-126.88304,-124.61417,-122.56796,-120.7478,-119.01393,-117.2225,-115.371,-113.64147,-112.29836,-111.4954,-111.11343,-110.7462,-109.87329,-108.14898,-105.65347,-102.94855,-100.86478,-100.08867,-100.74557,-102.21419,-103.32017,-102.86728,-100.26434,-95.911423,-91.096268,-87.399033,-85.886482,-86.528206,-88.177277,-89.153366,-88.115166,-84.725029,-79.72052,-74.361588,-69.606285,-65.534546,-61.3745,-56.086926,-49.093758,-40.645454,-31.580206,-22.663811,-14.011025,-5.0486679,4.9011574,15.8061,26.485283,34.950874,39.416512,39.37318,36.021282,31.714779,28.700224,27.90942,28.562651,28.840723,27.202362,23.503883,19.199253,16.48786,16.950678,20.537895,25.537045,29.523581,30.687378,28.727816,24.824402,20.790134,17.999569,16.753742,16.391994,15.954719,14.88605,13.32466,11.878029,11.138058,11.322631,12.262215,13.653088,15.308806,17.192968,19.244287,21.207319,22.686016,23.436646,23.677206,24.119253,25.604919,28.540403,32.520847,36.465473,39.249805,40.456978,40.739143,41.500019,44.05191,48.768501,54.788548,60.484932,64.417931,66.170532,66.538017,66.965073,68.611946,71.658844,75.278854,78.251556,79.768562,79.880173,79.308464,78.804672,78.540367,77.980728,76.330025,73.221886,69.143326,65.259995,62.726437,61.930931,62.187656,62.105625,60.423717,56.797375,52.051094,47.746246,45.331635,45.379101,47.324081,49.807674,51.371841,51.10289,48.916729,45.430981,41.592976,38.300468,36.164158,35.423306,35.951759,37.315479,38.902603,40.153618,40.84127,41.249748,42.08847,44.103275,47.559299,51.916283,55.965313,58.43689,58.770626,57.572468,56.416416,57.024994,60.263721,65.546227,71.042267,74.614601,74.96431,72.32048,68.269264,64.827827,63.317078,63.697086,64.736481,64.877876,63.251377,60.224537,57.182911,55.708771,56.670769,59.756237,63.681709,66.908669,68.421898,68.142693,66.807709,65.465065,64.925949,65.472717,66.919548,68.898788,71.141357,73.574936,76.218628,78.993362,81.611023,83.638268,84.709969,84.769249,84.188744,83.685547,84.044807,85.764877,88.785927,92.443489,95.69915,97.573959,97.598419,96.056358,93.874939,92.181602,91.733437,92.519356,93.768555,94.386414,93.591522,91.39296,88.620651,86.475288,85.852982,86.843903,88.706078,90.327354,90.888176,90.316689,89.265297,88.64698,89.04776,90.398102,92.098564,93.483475,94.282356,94.754395,95.411247,96.540436,97.886093,98.735229,98.369598,96.577896,93.867218,91.209175,89.472176,88.909714,89.044312,89.026382,88.233063,86.715622,85.207291,84.69252,85.816978,88.504608,91.995758,95.246597,97.419357,98.178299,97.672707,96.303062,94.477364,92.510559,90.666534,89.220551,88.423141,88.36042,88.826744,89.346123,89.375534,88.577209,86.97731,84.899101,82.72258,80.65419,78.683624,76.756119,75.008316,73.845505,73.743927,74.87661,76.826981,78.637871,79.236977,78.017029,75.214813,71.831795,69.117134,67.909203,68.222763,69.312523,70.147049,69.984093,68.704109,66.740128,64.705994,62.993843,61.588203,60.168293,58.380039,56.079975,53.416107,50.74091,48.443569,46.788311,45.788559,45.110817,44.030243,41.515388,36.517757,28.433975,17.543991,5.1382132,-6.856504,-16.667189,-23.500723,-27.921183,-31.498383,-35.872185,-41.763004,-48.538292,-54.630756,-58.572128,-59.99612,-59.957699,-60.339275,-62.70504,-67.334122,-73.059128,-78.016647,-80.820564,-81.393715,-80.925407,-81.006882,-82.541618,-85.166183,-87.560226,-88.416306,-87.396553,-85.421799,-84.100632,-84.691216,-87.297119,-90.827087,-93.723221,-94.948212,-94.567963,-93.565048,-93.053772,-93.465057,-94.264481,-94.376305,-92.994995,-90.212578,-87.040855,-84.838196,-84.551247,-86.275864,-89.380867,-93.026649,-96.652023,-100.07573,-103.19732,-105.61961,-106.59265,-105.428,-102.13495,-97.786583,-94.235634,-93.218689,-95.33564,-99.551346,-103.60124,-105.14043,-102.99976,-97.816689,-91.667076,-86.919518,-84.992485,-85.732956,-87.73526,-89.340729,-89.664474,-89.021667,-88.53479,-89.222565,-91.173286,-93.318298,-93.924202,-91.482117,-85.459747,-76.50666,-66.056969,-55.618576,-46.170689,-37.959068,-30.702343,-23.990429,-17.602282,-11.591536,-6.1731987,-1.5580066,2.1355412,4.8665557,6.6245685,7.4311438,7.4024386,6.8043265,6.015142,5.3775516,5.0194354,4.7724023,4.2690272,3.1819446,1.4619113,-0.58262897,-2.427896,-3.6190565,-4.020854,-3.8775098,-3.6478293,-3.7276833,-4.2443924,-5.0574608,-5.9604111,-6.9408422,-8.3103542,-10.593647,-14.218714,-19.183445,-24.905262,-30.369461,-34.529343,-36.768932,-37.194984,-36.603168,-36.122295,-36.700115,-38.675018,-41.640961,-44.675217,-46.823673,-47.608929,-47.304951,-46.825111,-47.255363,-49.246132,-52.564911,-56.054241,-58.054455,-57.121944,-52.715714,-45.522568,-37.253864,-29.996389,-25.412289,-24.149324,-25.711618,-28.812979,-32.009121,-34.294697,-35.401783,-35.709114,-35.867275,-36.365967,-37.265816,-38.208572,-38.671906,-38.322048,-37.282932,-36.186592,-35.967834,-37.475273,-41.053703,-46.280621,-51.997356,-56.666115,-58.940533,-58.21809,-54.914524,-50.299744,-45.935513,-42.965118,-41.607292,-41.124825,-40.296474,-38.141457,-34.49181,-30.08255,-26.105234,-23.492609,-22.37335,-22.041218,-21.467073,-20.034834,-18.02405,-16.504522,-16.675032,-19.043144,-22.970121,-26.900328,-29.175386,-28.958981,-26.710091,-23.905333,-22.167786,-22.325663,-23.968317,-25.76,-26.305828,-25.031702,-22.545092,-20.276131,-19.641975,-21.252907,-24.623646,-28.519381,-31.677311,-33.445297,-33.978474,-33.943512,-33.985207,-34.319096,-34.68,-34.594257,-33.739941,-32.141083,-30.097073,-27.948065,-25.87682,-23.887793,-21.947008,-20.137209,-18.678457,-17.780647,-17.438505,-17.340097,-16.99115,-16.007545,-14.404238,-12.694833,-11.721298,-12.285852,-14.763572,-18.876871,-23.725592,-28.049181,-30.613567,-30.589243,-27.80678,-22.815781,-16.721582,-10.834567,-6.2373748,-3.4304652,-2.2122881,-1.8627537,-1.5520829,-0.76964891,0.45665681,1.6684473,2.338903,2.2605615,1.7149392,1.3208969,1.6672233,2.9738679,5.0007601,7.2508459,9.3127308,11.09837,12.813956,14.698278,16.731886,18.542179,19.588518,19.50835,18.38603,16.754372,15.320885,14.596441,14.664948,15.228945,15.876095,16.369658,16.76725,17.306128,18.158123,19.237429,20.192747,20.581715,20.110529,18.799692,17.004026,15.305427,14.342018,14.623275,16.351206,19.274027,22.643082,25.368856,26.411383,25.292278,22.469194,19.298418,17.492842,18.286762,21.754972,26.715858,31.339846,34.151211,34.834267,34.34066,34.220535,35.603355,38.495453,41.860134,44.418362,45.606876,46.008339,46.928127,49.398781,53.322475,57.396694,59.930176,60.010628,58.193771,56.178917,55.638966,56.99892,59.047836,59.7243,57.585506,52.932678,47.727253,44.228138,43.193325,42.885574,39.689667,30.128403,13.111958,-8.9872894,-31.182888,-48.229927,-57.144577,-58.445293,-55.465603,-52.25716,-51.403595,-53.012188,-55.32069,-56.32283,-55.25032,-52.977928,-51.228256,-51.26387,-53.028141,-55.294697,-56.635666,-56.461475,-55.389843,-54.724602,-55.466991,-57.586121,-60.050911,-61.562359,-61.438923,-60.0341,-58.429207,-57.661392,-58.045803,-59.03857,-59.675797,-59.227318,-57.600891,-55.267078,-52.84446,-50.70546,-48.8862,-47.297935,-45.985165,-45.157932,-44.947369,-45.103889,-44.946163,-43.690342,-40.974865,-37.196434,-33.361576,-30.493156,-28.972622,-28.286072,-27.388384,-25.468645,-22.596144,-19.776487,-18.334766,-19.007462,-21.345404,-23.8461,-24.763582,-23.102243,-19.183426,-14.45277,-10.678111,-9.0498219,-9.7096624,-11.916927,-14.646407,-17.181484,-19.347731,-21.332504,-23.31975,-25.241369,-26.788301,-27.588707,-27.343327,-25.791414,-22.577368,-17.21623,-9.2941589,1.1747652,13.503848,26.461771,38.798134,49.884377,60.041412,70.277069,81.532303,93.887466,106.25459,116.80293,123.90071,127.01067,126.98885,125.60429,124.58547,124.7852,125.95645,127.22011,127.86187,127.91015,128.12874,129.46719,132.36476,136.37355,140.32848,142.92923,143.36031,141.60187,138.32121,134.49542,131.02228,128.48978,127.10444,126.67849,126.6201,125.9894,123.73857,119.15683,112.34396,104.40255,97.115059,92.159508,90.242859,90.660736,91.59745,91.053162,87.889938,82.392281,76.020531,70.525063,66.970787,65.248245,64.310295,62.9063,60.301693,56.546612,52.213966,47.896313,43.870522,40.14397,36.755432,33.99155,32.261662,31.685238,31.735695,31.309208,29.300739,25.369009,20.361151,16.029064,14.12238,15.382339,19.072844,23.369093,26.379646,27.168406,26.148903,24.641596,23.930082,24.455391,25.651772,26.463669,26.124081,24.636908,22.666502,20.98864,19.961956,19.422731,19.046505,18.840689,19.324968,21.203972,24.750141,29.375504,33.769848,36.581116,37.203232,36.125763,34.584671,33.739296,33.939281,34.586121,34.671764,33.590496,31.62215,29.722588,28.766258,28.79891,28.873672,27.638765,24.302725,19.310078,14.232868,10.910185,10.384275,12.327703,15.326516,17.808477,18.981007,19.161779,19.324661,20.231691,21.794321,23.119858,23.193798,21.687845,19.293242,17.319016,16.821058,17.867666,19.461645,20.189678,19.16993,16.664312,13.948548,12.53025,13.230865,15.718906,18.764549,21.008568,21.725939,21.112791,19.97736,19.113152,18.806864,18.786615,18.57777,17.953278,17.132526,16.597494,16.68507,17.267923,17.755634,17.40918,15.748199,12.790252,9.0055084,5.0748296,1.6477906,-0.7584796,-1.7351316,-0.96494132,1.674861,5.9189138,10.995616,15.759194,19.096193,20.42164,19.96981,18.67045,17.643515,17.587536,18.414192,19.337011,19.347853,17.788109,14.685177,10.690046,6.7000198,3.4186721,1.098552,-0.439069,-1.5901629,-2.7276299,-4.0627995,-5.6297216,-7.3331356,-8.9983416,-10.412985,-11.389343,-11.856785,-11.936378,-11.918808,-12.111973,-12.627401,-13.253322,-13.537531,-13.068589,-11.786842,-10.099872,-8.684104,-8.0689487,-8.2735548,-8.7628441,-8.7898178,-7.9217162,-6.3978033,-5.0554261,-4.8418527,-6.2150412,-8.8247528,-11.68706,-13.73781,-14.401226,-13.813916,-12.597462,-11.390391,-10.500786,-9.9152527,-9.5964022,-9.7551918,-10.795527,-12.902761,-15.583746,-17.594368,-17.476992,-14.490869,-9.357996,-4.2484488,-1.8462787,-3.9298408,-10.280569,-18.621454,-25.711273,-29.022743,-28.052633,-24.504137,-21.243364,-20.658657,-23.394966,-28.18623,-32.829742,-35.663216,-36.635101,-37.348728,-40.107433,-46.578793,-56.877323,-69.556549,-82.427895,-93.654297,-102.47367,-109.20828,-114.68483,-119.52052,-123.73731,-126.88637,-128.50995,-128.57362,-127.5717,-126.26557,-125.26814,-124.76955,-124.57238,-124.37393,-124.06413,-123.81232,-123.88229,-124.32053,-124.76464,-124.54537,-123.05597,-120.16768,-116.41335,-112.78574,-110.23233,-109.12982,-109.05797,-109.03229,-108.08552,-105.86838,-102.90846,-100.35209,-99.315681,-100.2142,-102.465,-104.75852,-105.75661,-104.8218,-102.35297,-99.529083,-97.610031,-97.205376,-97.936287,-98.676491,-98.210701,-95.908287,-92.020149,-87.454895,-83.212074,-79.843735,-77.264153,-74.979813,-72.538048,-69.872856,-67.327858,-65.376862,-64.26902,-63.859741,-63.737175,-63.534462,-63.189171,-62.961605,-63.208588,-64.090073,-65.429878,-66.830887,-67.951653,-68.731361,-69.390976,-70.210442,-71.254562,-72.264259,-72.809616,-72.603775,-71.748055,-70.716812,-70.072311,-70.096718,-70.596474,-71.022232,-70.831642,-69.853821,-68.412689,-67.131073,-66.552261,-66.829475,-67.671005,-68.540955,-68.941231,-68.56424,-67.228088,-64.688759,-60.527748,-54.257778,-45.615822,-34.850605,-22.78677,-10.583416,0.69206893,10.427986,18.564892,25.398853,31.2549,36.259724,40.344563,43.425571,45.58046,47.060562,48.127144,48.859009,49.116535,48.728436,47.777752,46.751839,46.386936,47.250198,49.315342,51.8395,53.682724,53.923061,52.40337,49.855228,47.491791,46.292248,46.401951,47.009506,46.772934,44.53714,39.922752,33.468731,26.298521,19.559996,13.985477,9.7877531,6.8594909,5.0551229,4.3259187,4.6353707,5.7732568,7.2685709,8.5190659,9.0788717,8.9113541,8.4241982,8.2483826,8.8969011,10.515821,12.869276,15.536233,18.161518,20.589079,22.813612,24.828852,26.520178,27.698427,28.247858,28.2638,28.061222,28.037071,28.48539,29.501482,31.039074,33.05851,35.625248,38.853085,42.714893,46.868809,50.668365,53.413036,54.72163,54.798332,54.39817,54.472275,55.674622,58.008297,60.814892,63.111233,64.079567,63.442646,61.541172,59.113064,56.932522,55.511005,54.984642,55.182991,55.782875,56.444923,56.888428,56.921238,56.457882,55.53154,54.275105,52.853268,51.371769,49.8302,48.174141,46.43293,44.847363,43.866089,43.957691,45.314873,47.630428,50.118202,51.821133,52.066402,50.813747,48.681973,46.618511,45.390171,45.18457,45.547134,45.676456,44.888294,42.968674,40.22213,37.220322,34.438786,32.020473,29.800507,27.544655,25.215996,23.07688,21.551281,20.933722,21.130068,21.597221,21.532175,20.222879,17.390697,13.362885,8.9947615,5.367662,3.3749156,3.3509891,4.8924131,6.9645438,8.2903137,7.8964806,5.5946913,2.1580858,-0.94267172,-2.1793098,-0.70946789,3.1433828,7.9460549,11.762159,13.031916,11.28974,7.3591418,2.9397602,-0.17846261,-0.85881448,1.0357106,4.7945781,9.3299093,13.645219,17.058435,19.151308,19.614956,18.204081,14.882644,10.048221,4.6138525,-0.20735,-3.3678932,-4.4590044,-3.9004979,-2.7024632,-1.9056569,-2.0063579,-2.6888447,-3.0131614,-1.9457102,1.0666139,5.7865448,11.285816,16.371389,20.096109,22.09783,22.630112,22.317255,21.791361,21.3976,21.091196,20.543398,19.377535,17.406836,14.755298,11.803244,8.9868412,6.5591741,4.4504824,2.3216369,-0.20058325,-3.2327769,-6.4679689,-9.257431,-10.923525,-11.1366,-10.131348,-8.6207075,-7.4456453,-7.1635184,-7.8154411,-8.9942074,-10.136954,-10.826967,-10.905751,-10.3572,-9.1105728,-6.9757195,-3.8136961,0.1643517,4.2260513,7.2873311,8.408124,7.338975,4.7475829,1.9197308,0.069389306,-0.31967902,0.32234216,1.0948077,1.4226567,1.6558545,3.0092342,6.7995024,13.427574,21.784431,29.548334,34.29818,34.831234,31.897356,27.879221,25.574526,26.780117,31.493473,38.159325,44.746655,49.952957,53.802574,57.336388,61.687454,67.207802,73.226547,78.556267,82.349487,84.687355,86.494095,88.853966,92.22213,96.084618,99.300125,100.87856,100.65123,99.369392,98.169609,97.784004,98.046501,98.036629,96.757034,93.870712,89.982323,86.263275,83.67321,82.310905,81.343513,79.573067,76.268578,71.712196,67.09613,63.834652,62.733662,63.541645,65.144951,66.250633,66.101974,64.784523,62.977272,61.373257,60.187054,59.068279,57.43721,54.96944,51.876904,48.800621,46.413929,45.028797,44.474892,44.311272,44.194405,44.130325,44.44149,45.492508,47.384846,49.833065,52.287003,54.185417,55.15234,55.024132,53.75145,51.324074,47.832092,43.631512,39.448025,36.249687,34.870449,35.570103,37.816479,40.478588,42.36927,42.835857,42.038296,40.732239,39.684883,39.091206,38.365082,36.44265,32.406376,26.034229,17.931036,9.1725264,0.70219928,-7.1347108,-14.645446,-22.437073,-30.919502,-39.994015,-49.102737,-57.558434,-64.896759,-71.010498,-76.009171,-79.95549,-82.70932,-84.010033,-83.730423,-82.092575,-79.656654,-77.063492,-74.704529,-72.561676,-70.348251,-67.863991,-65.309326,-63.311916,-62.607201,-63.558205,-65.830841,-68.461136,-70.307037,-70.627869,-69.445267,-67.472366,-65.666229,-64.688148,-64.598938,-64.950066,-65.170959,-64.971191,-64.489189,-64.109268,-64.101189,-64.352829,-64.392273,-63.68634,-62.005455,-59.595955,-57.03352,-54.853477,-53.212227,-51.817764,-50.184212,-48.037109,-45.579788,-43.412144,-42.125759,-41.833626,-41.968262,-41.535744,-39.72451,-36.515896,-32.896034,-30.474173,-30.661282,-33.847824,-39.059196,-44.322418,-47.578671,-47.656994,-44.777592,-40.316143,-35.983128,-32.904957,-31.137133,-29.866043,-28.132389,-25.594765,-22.840837,-21.05143,-21.241096,-23.572824,-27.198303,-30.737206,-33.094406,-34.090702,-34.497116,-35.446239,-37.601269,-40.631264,-43.355934,-44.498695,-43.58997,-41.44783,-39.9053,-40.905701,-45.469177,-53.11359,-62.047867,-70.014862,-75.310867,-77.448853,-77.173889,-75.915428,-75.039955,-75.303505,-76.712807,-78.738197,-80.653351,-81.788155,-81.62355,-79.802086,-76.169113,-70.881882,-64.507103,-57.977211,-52.340855,-48.383156,-46.302856,-45.632137,-45.460411,-44.853058,-43.246758,-40.623959,-37.403114,-34.143135,-31.250837,-28.851713,-26.865854,-25.202555,-23.927374,-23.291067,-23.607626,-25.061237,-27.555765,-30.684362,-33.824772,-36.30584,-37.574722,-37.318298,-35.528076,-32.515999,-28.881472,-25.415537,-22.932194,-22.050819,-22.99954,-25.531769,-29.016962,-32.686001,-35.922146,-38.449123,-40.313866,-41.678631,-42.559006,-42.69191,-41.64798,-39.147018,-35.38501,-31.139282,-27.526611,-25.49674,-25.326649,-26.417942,-27.550186,-27.485096,-25.601471,-22.206921,-18.348412,-15.231265,-13.580876,-13.307044,-13.641965,-13.639547,-12.720716,-10.948203,-8.9032316,-7.2862172,-6.5130463,-6.5434852,-6.9994998,-7.4411268,-7.5922322,-7.3853474,-6.8505845,-5.9875741,-4.7504396,-3.1612453,-1.4434129,-0.033098843,0.5879274,0.15504234,-1.1907289,-2.9235623,-4.3639336,-4.9822817,-4.5940051,-3.3453262,-1.5337884,0.58977437,2.9005518,5.3309927,7.7453594,9.8900642,11.484977,12.399668,12.778685,13.004642,13.50016,14.486791,15.853741,17.217197,18.125542,18.278454,17.637051,16.392794,14.859434,13.381392,12.299342,11.933669,12.516155,14.053071,16.198761,18.269957,19.475784,19.294973,17.797873,15.693959,14.022622,13.622742,14.673763,16.583326,18.300261,18.875059,17.937244,15.812745,13.232591,10.839361,8.8149986,6.8586812,4.5036154,1.5368788,-1.7756042,-4.8199973,-7.0413876,-8.3609381,-9.3262281,-10.882509,-13.884468,-18.621386,-24.615356,-30.7918,-35.918941,-39.086468,-40.003117,-39.012386,-36.872746,-34.442173,-32.412136,-31.173683,-30.818876,-31.226503,-32.168118,-33.388435,-34.644318,-35.713139,-36.396538,-36.544636,-36.107674,-35.192001,-34.073338,-33.123917,-32.652317,-32.718822,-33.034252,-33.033833,-32.131111,-30.040911,-26.989775,-23.666353,-20.902443,-19.242823,-18.652357,-18.550283,-18.174496,-17.071178,-15.410585,-13.91923,-13.447859,-14.424566,-16.525694,-18.774836,-20.023199,-19.533119,-17.325785,-14.10235,-10.807229,-8.1090145,-6.1005802,-4.3609939,-2.2908344,0.51694036,4.0896111,8.1342964,12.238725,16.042896,19.284538,21.756573,23.295542,23.876743,23.763132,23.553753,24.006603,25.670349,28.539219,31.996525,35.164318,37.503208,39.290676,41.618252,45.816486,52.590981,61.38776,70.426331,77.463448,80.901047,80.613106,78.0047,75.260422,74.218002,75.517532,78.492996,81.810066,84.407593,86.148247,87.808403,90.477325,94.798561,100.54578,106.76566,112.33486,116.53075,119.25721,120.84308,121.63174,121.6954,120.87196,119.0556,116.47697,113.72719,111.48645,110.14919,109.61838,109.41277,108.99544,108.0706,106.63261,104.75736,102.34113,99.044922,94.543327,88.918274,82.878799,77.562538,73.952713,72.238701,71.545448,70.26902,66.888062,60.808861,52.753498,44.45443,37.818878,34.024582,33.026829,33.699329,34.471634,34.083374,32.075367,28.841482,25.317783,22.532557,21.227016,21.643858,23.478039,25.956356,28.037518,28.730791,27.472958,24.413633,20.42753,16.769222,14.4858,13.885323,14.383136,14.86283,14.383853,12.831722,11.103652,10.676373,12.770283,17.579227,24.01465,30.124458,33.963974,34.450851,31.766512,27.141178,22.199142,18.244808,15.838135,14.793266,14.490268,14.262481,13.658294,12.512616,10.887767,8.9805899,7.0482097,5.3442311,4.0422912,3.1609433,2.54544,1.9526095,1.2164007,0.39375031,-0.22551402,-0.28452986,0.38573658,1.5938917,2.8381062,3.5777843,3.56495,3.0093327,2.4429123,2.3487852,2.7936244,3.3257198,3.240145,2.064584,-0.050972376,-2.3246133,-3.7653983,-3.7921832,-2.6569388,-1.3748457,-1.1618977,-2.7001443,-5.6824489,-8.935895,-11.070428,-11.266814,-9.7209835,-7.4713335,-5.724834,-5.1187596,-5.3969717,-5.7084761,-5.3226409,-4.2696767,-3.4505172,-4.1041765,-6.9543729,-11.595371,-16.55303,-20.03837,-20.961473,-19.585718,-17.406261,-16.309557,-17.514187,-20.9242,-25.262325,-28.864054,-30.618986,-30.490597,-29.351835,-28.325302,-28.110777,-28.733671,-29.810623,-31.052023,-32.573559,-34.765675,-37.832973,-41.391396,-44.490974,-46.12299,-45.89407,-44.385403,-42.897423,-42.696106,-44.23819,-46.897228,-49.392193,-50.644768,-50.487667,-49.73283,-49.538937,-50.50452,-52.120663,-52.994339,-51.739689,-47.972191,-42.744068,-38.100956,-35.99984,-37.239819,-41.052486,-45.583759,-48.948303,-50.205536,-49.694859,-48.599258,-48.087284,-48.604546,-49.728386,-50.596378,-50.554005,-49.572628,-48.199001,-47.139793,-46.814175,-47.180496,-47.906017,-48.691422,-49.471279,-50.340458,-51.292686,-52.016365,-51.954033,-50.626945,-48.010334,-44.68084,-41.597832,-39.628643,-39.108788,-39.713203,-40.711212,-41.424549,-41.576721,-41.301357,-40.812351,-39.971657,-38.067444,-33.987381,-26.723475,-15.935017,-2.2526796,12.850196,27.556513,40.323242,50.326981,57.560421,62.592171,66.156601,68.788582,70.654846,71.613647,71.425148,69.98365,67.456841,64.276329,60.995018,58.083752,55.762867,53.947845,52.335396,50.588352,48.525528,46.216694,43.931984,41.977215,40.51524,39.484444,38.667698,37.870152,37.091324,36.57452,36.690117,37.714066,39.633362,42.099609,44.566387,46.537838,47.791458,48.455448,48.905296,49.544136,50.587692,51.962574,53.359909,54.408211,54.878033,54.82431,54.602436,54.743736,55.729248,57.746227,60.535843,63.425602,65.574371,66.354683,65.702477,64.239655,63.058285,63.224781,65.232841,68.698425,72.490234,75.26149,76.118164,75.066978,72.999672,71.231079,70.859528,72.305092,75.248573,78.932816,82.572243,85.590385,87.579506,88.118431,86.709846,83.001587,77.197586,70.333794,64.084938,60.02911,58.683479,58.876366,57.936489,52.761959,41.306484,23.711645,2.4357514,-18.756805,-36.459797,-49.087761,-57.385479,-63.753765,-70.79921,-79.90947,-90.594711,-100.87771,-108.43937,-111.85612,-111.28409,-108.30011,-105.07325,-103.35239,-103.77569,-105.77261,-108.00405,-109.05035,-108.0069,-104.76319,-99.92643,-94.502853,-89.512497,-85.68882,-83.341988,-82.385925,-82.472824,-83.156197,-84.015533,-84.712669,-84.994431,-84.683609,-83.694641,-82.074692,-80.030983,-77.894562,-76.005173,-74.561577,-73.524811,-72.648186,-71.636551,-70.349823,-68.923836,-67.720413,-67.122299,-67.290642,-68.036163,-68.891251,-69.348503,-69.127472,-68.313187,-67.287743,-66.499474,-66.20594,-66.333755,-66.523857,-66.325996,-65.434273,-63.848171,-61.892811,-60.099628,-59.00116,-58.917603,-59.812634,-61.278465,-62.673534,-63.378757,-63.073994,-61.899677,-60.397587,-59.227131,-58.7854,-58.941311,-59.059124,-58.333584,-56.267719,-53.015461,-49.367321,-46.36063,-44.728592,-44.515011,-45.09285,-45.579811,-45.394939,-44.607758,-43.861069,-43.920471,-45.144112,-47.217793,-49.329029,-50.6703,-50.950409,-50.590351,-50.484035,-51.479095,-53.899788,-57.390854,-61.145847,-64.344391,-66.515388,-67.627113,-67.908157,-67.579636,-66.709602,-65.277153,-63.355003,-61.22213,-59.2724,-57.751976,-56.511513,-54.982498,-52.452785,-48.51136,-43.395523,-38.005665,-33.540398,-30.933821,-30.400442,-31.335182,-32.612133,-33.10556,-32.151543,-29.732975,-26.348848,-22.701466,-19.399128,-16.80707,-15.051362,-14.087986,-13.748909,-13.749996,-13.716141,-13.280908,-12.246213,-10.704721,-9.0132294,-7.5894446,-6.6370873,-5.9848366,-5.178019,-3.8004911,-1.8307687,0.22146958,1.5357901,1.4649067,-0.006009087,-2.1313012,-3.7271273,-3.7801967,-1.9856533,1.1116793,4.4533215,7.0594926,8.5002975,8.9632645,8.9181433,8.6557236,8.0535994,6.7431407,4.5448952,1.8253595,-0.53339291,-1.5859723,-0.91464031,1.0560409,3.2731156,4.6940589,4.9409261,4.5256944,4.4762802,5.5967979,7.8533144,10.305024,11.642203,10.987129,8.4393864,5.0203986,2.0730863,0.5232923,0.47335577,1.3416325,2.3781011,3.150445,3.6682889,4.1249514,4.5423985,4.6692109,4.2543859,3.4782214,3.1384478,4.3274264,7.7155838,12.902998,18.342287,22.004774,22.463434,19.742807,15.380458,11.618695,10.195354,11.461316,14.342292,17.121096,18.504955,18.29744,17.299408,16.594786,16.766769,17.582418,18.309067,18.367691,17.813932,17.303057,17.598881,19.020374,21.241869,23.571878,25.464153,26.848438,28.029333,29.258602,30.356625,30.727179,29.79513,27.541496,24.697035,22.388264,21.445469,21.866468,22.851368,23.418234,23.166407,22.610516,22.795551,24.435484,27.211746,29.815239,30.818933,29.854433,28.273266,28.736582,33.853065,44.632603,59.701572,75.79493,89.268425,97.758949,101.05768,100.77863,99.152161,97.761337,96.971886,96.269127,95.09848,93.52626,92.254807,92.047783,93.059731,94.612473,95.608261,95.28878,93.79171,92.100327,91.412132,92.356422,94.586746,97.007103,98.460304,98.415588,97.227371,95.849876,95.248787,95.908096,97.705376,100.14349,102.70033,105.0406,107.00368,108.48288,109.37782,109.69605,109.70379,109.94101,111.00315,113.18705,116.24393,119.44627,121.96933,123.35486,123.74405,123.71061,123.80192,124.10999,124.18598,123.37752,121.36796,118.54104,115.89809,114.55098,115.10041,117.29073,120.15353,122.53833,123.6907,123.53261,122.51737,121.21405,119.93038,118.61468,117.05131,115.15147,113.09068,111.18206,109.58893,108.10927,106.2152,103.3417,99.230904,94.089798,88.445076,82.790581,77.269585,71.61261,65.376472,58.323181,50.679504,43.095516,36.319107,30.78993,26.408161,22.620966,18.768967,14.476553,9.8508587,5.3793178,1.6011446,-1.2413887,-3.3640001,-5.3249993,-7.7075577,-10.785045,-14.356582,-17.839287,-20.562092,-22.100559,-22.475798,-22.117323,-21.617249,-21.414345,-21.583172,-21.844164,-21.784367,-21.153086,-20.046551,-18.857351,-18.010763,-17.655729,-17.527311,-17.103666,-15.988602,-14.27829,-12.641001,-11.994186,-12.925281,-15.205741,-17.743893,-19.083317,-18.209654,-15.196675,-11.270921,-8.2007723,-7.334085,-8.8519077,-11.703187,-14.278829,-15.41997,-15.132157,-14.550414,-15.171923,-17.845602,-22.172384,-26.711338,-29.865986,-30.879927,-30.294994,-29.572851,-30.12611,-32.389664,-35.533142,-37.992546,-38.465206,-36.720886,-33.721378,-31.008894,-29.800043,-30.387497,-32.205032,-34.435852,-36.6745,-39.144539,-42.325066,-46.293301,-50.32008,-53.090115,-53.470119,-51.329697,-47.832581,-44.934834,-44.345226,-46.573135,-50.655891,-54.737484,-57.13773,-57.25507,-55.774162,-54.107033,-53.47448,-54.223652,-55.773003,-57.1376,-57.621735,-57.207859,-56.433834,-55.925598,-55.970287,-56.434799,-57.038197,-57.706333,-58.68359,-60.283672,-62.46664,-64.597115,-65.634315,-64.696548,-61.651886,-57.328491,-53.166115,-50.494335,-49.873741,-50.899986,-52.570381,-53.95282,-54.718098,-55.213493,-56.077293,-57.696037,-59.886856,-62.004257,-63.365898,-63.681129,-63.189137,-62.438637,-61.897121,-61.681892,-61.592178,-61.386475,-61.068802,-60.95248,-61.448818,-62.743225,-64.61039,-66.518463,-67.956329,-68.748985,-69.129211,-69.509132,-70.115654,-70.759239,-70.917969,-70.097794,-68.231049,-65.837669,-63.824768,-63.036068,-63.822647,-65.88662,-68.469742,-70.746208,-72.175339,-72.632317,-72.305962,-71.5009,-70.508156,-69.606659,-69.121567,-69.406197,-70.682457,-72.818001,-75.218559,-76.981651,-77.295731,-75.884468,-73.221764,-70.349976,-68.366859,-67.861732,-68.632652,-69.859497,-70.632477,-70.513809,-69.785973,-69.233902,-69.601822,-71.072975,-73.108124,-74.752274,-75.220024,-74.389664,-72.889954,-71.720367,-71.641479,-72.71891,-74.306473,-75.47364,-75.598648,-74.744675,-73.580307,-72.90451,-73.096458,-73.860565,-74.442047,-74.173668,-72.986549,-71.530823,-70.801903,-71.496681,-73.51416,-75.93763,-77.532967,-77.462677,-75.766441,-73.298401,-71.155472,-69.960266,-69.46254,-68.725243,-66.786079,-63.372353,-59.196594,-55.611431,-53.800381,-53.981106,-55.112026,-55.311169,-52.78664,-46.78278,-38.033901,-28.486134,-20.436621,-15.528756,-14.086136,-15.065692,-16.592772,-16.780027,-14.446896,-9.4572601,-2.5995238,4.8675275,11.769507,17.441257,21.878756,25.599045,29.301357,33.49033,38.225994,43.103645,47.460831,50.701664,52.573135,53.255928,53.233799,53.02631,52.940235,52.973057,52.902599,52.483711,51.61832,50.400417,49.033245,47.702194,46.504227,45.475636,44.674133,44.22646,44.283932,44.910198,45.992485,47.262241,48.433083,49.369289,50.162045,51.046993,52.210217,53.61821,55.001167,56.015114,56.477596,56.509529,56.472538,56.732903,57.41074,58.293213,58.982197,59.18261,58.93174,58.600895,58.651337,59.296276,60.292179,61.006016,60.730881,59.066681,56.146503,52.589836,49.227661,46.762581,45.533028,45.459652,46.143208,47.030117,47.582413,47.435482,46.54113,45.256794,44.300289,44.509758,46.453865,50.069485,54.557457,58.666069,61.26823,61.926926,61.101494,59.835209,59.086697,59.117687,59.344353,58.775845,56.769917,53.594631,50.376957,48.408405,48.22155,49.0494,49.079975,46.426113,40.256168,31.387817,21.945843,14.249822,9.5761442,7.5251999,6.3609161,4.1022577,-0.2977367,-6.3806334,-12.524445,-16.948866,-18.757912,-18.413536,-17.409945,-17.397806,-19.297041,-22.884905,-27.02282,-30.31431,-31.788347,-31.262772,-29.27853,-26.737978,-24.490282,-23.057648,-22.562141,-22.799868,-23.374342,-23.830639,-23.771818,-22.950418,-21.314032,-18.979517,-16.138231,-12.940691,-9.4334269,-5.5938411,-1.4421332,2.8493795,6.9332342,10.375667,12.805799,14.034833,14.084036,13.130716,11.434793,9.3007555,7.070694,5.0913143,3.6076415,2.6136866,1.7733563,0.5319311,-1.5663325,-4.5007987,-7.5859065,-9.6639128,-9.6583319,-7.2178888,-3.0636525,1.2275825,3.9576108,4.187572,2.2664912,-0.32102618,-1.7332083,-0.75008953,2.600564,7.1235585,11.18242,13.634435,14.425364,14.511847,15.188599,17.247095,20.474194,23.774572,25.817844,25.806717,23.913334,21.151707,18.795792,17.70611,17.949257,18.891829,19.660616,19.663534,18.866684,17.702721,16.718134,16.209309,16.072762,15.936635,15.45789,14.57752,13.572522,12.886909,12.866574,13.573895,14.792291,16.198385,17.570799,18.889961,20.268255,21.773735,23.288048,24.517422,25.168564,25.182108,24.865955,24.825884,25.716331,27.947752,31.513096,36.018101,40.872246,45.506344,49.489491,52.512249,54.312614,54.661724,53.465534,50.921009,47.584328,44.237041,41.569252,39.849152,38.80225,37.82267,36.431126,34.71027,33.419704,33.660557,36.234627,41.057014,46.989914,52.246651,55.189312,55.104771,52.539661,49.012718,46.264656,45.451855,46.700336,49.214996,51.823624,53.612896,54.302532,54.193726,53.790577,53.371914,52.790054,51.610672,49.491005,46.550034,43.489319,41.364914,41.106163,43.021568,46.553566,50.431641,53.181179,53.76329,52.039913,48.825321,45.481899,43.253979,42.68737,43.456612,44.709641,45.741562,46.592949,48.176971,51.795059,58.273449,67.220634,76.889503,84.8078,88.891006,88.44249,84.48027,79.20359,74.90696,72.960381,73.406471,75.324692,77.638214,79.79731,81.914635,84.342468,87.080177,89.504471,90.659462,89.913834,87.500137,84.510178,82.296257,81.65506,82.343315,83.261192,83.184067,81.54464,78.734833,75.735931,73.357071,71.630836,69.788177,66.80629,62.103619,55.854156,48.686474,41.008778,32.507137,22.262753,9.4839344,-5.6316442,-21.543074,-35.85487,-46.415062,-52.353195,-54.399639,-54.293243,-53.691597,-53.324947,-52.949669,-52.083931,-50.947212,-50.870892,-53.813862,-61.2519,-73.169212,-87.840919,-102.57836,-114.97101,-123.8392,-129.33078,-132.19458,-132.82602,-130.81418,-125.33578,-116.11272,-104.2168,-92.074226,-82.548668,-77.608826,-77.387688,-80.213524,-83.590607,-85.528801,-85.438309,-84.118629,-82.955704,-82.908447,-83.931442,-85.135094,-85.486984,-84.539024,-82.709221,-80.985359,-80.299286,-80.995346,-82.700233,-84.609909,-85.956032,-86.354759,-85.878494,-84.896996,-83.856903,-83.144386,-83.056984,-83.809639,-85.495506,-88.00058,-90.951553,-93.782135,-95.923576,-97.026146,-97.080582,-96.367805,-95.277496,-94.118874,-93.038582,-92.070953,-91.245949,-90.645691,-90.355362,-90.351891,-90.436012,-90.28978,-89.648636,-88.484283,-87.072182,-85.884132,-85.357231,-85.669014,-86.645332,-87.847092,-88.780876,-89.118423,-88.818405,-88.10408,-87.318077,-86.718704,-86.293495,-85.658363,-84.093582,-80.736801,-74.898582,-66.39637,-55.754738,-44.139095,-32.994682,-23.514679,-16.176516,-10.583696,-5.7117987,-0.44741863,5.8524885,13.067441,20.425516,26.936438,31.894211,35.182358,37.250381,38.823368,40.537621,42.695011,45.219852,47.7733,49.917198,51.247105,51.484516,50.55909,48.686249,46.384708,44.353355,43.18642,43.028252,43.366535,43.144997,41.220173,36.971699,30.737907,23.795986,17.8354,14.162291,13.047258,13.574381,14.08588,12.992444,9.5226526,4.0289617,-2.2780082,-7.983685,-12.140232,-14.612875,-15.975521,-17.085669,-18.616644,-20.79414,-23.42021,-26.08942,-28.419788,-30.167452,-31.213627,-31.508575,-31.064552,-30.01503,-28.669924,-27.472046,-26.823446,-26.858032,-27.306223,-27.56848,-26.994799,-25.230888,-22.431185,-19.202215,-16.295139,-14.21901,-12.998894,-12.2186,-11.316255,-9.94767,-8.1940861,-6.4906545,-5.3279853,-4.9199047,-5.0489864,-5.1866283,-4.8104963,-3.71859,-2.142642,-0.58998233,0.48857105,1.0011392,1.3038421,2.0221913,3.7076614,6.5226431,10.121626,13.779246,16.681847,18.226366,18.191107,16.731621,14.250236,11.234698,8.1447096,5.3694348,3.2279022,1.9670084,1.7310274,2.5097783,4.0965466,6.0887489,7.94977,9.1284208,9.2116556,8.0678015,5.9266429,3.3480363,1.0630329,-0.27266976,-0.31719646,0.8410176,2.7582438,4.8746543,6.7933578,8.4406834,10.012634,11.743948,13.656337,15.465884,16.730263,17.150251,16.818573,16.223633,15.971199,16.386837,17.267855,17.978884,17.864258,16.723677,15.025755,13.682294,13.492502,14.603654,16.354837,17.641087,17.595091,16.156576,14.147657,12.779921,12.892325,14.410105,16.386604,17.615538,17.422819,16.118628,14.805202,14.6589,16.156769,18.760548,21.269768,22.607716,22.509378,21.641081,21.062508,21.390711,22.240604,22.347322,20.329004,15.61764,8.9568815,2.1275208,-2.9545462,-5.2299023,-4.9874825,-3.5843215,-2.5945146,-2.9159617,-4.3482218,-5.8295426,-6.1141472,-4.443018,-0.83671242,4.0690389,9.4322882,14.546842,18.937006,22.258049,24.203512,24.577898,23.509415,21.610376,19.884731,19.349915,20.561197,23.33223,26.846149,30.107397,32.462559,33.874413,34.798759,35.773746,37.008656,38.236996,38.903858,38.532101,37.012489,34.645241,31.950247,29.414328,27.352085,25.932613,25.277473,25.486776,26.53529,28.124067,29.649912,30.391008,29.841982,27.991899,25.342848,22.628157,20.400854,18.768404,17.460941,16.18763,15.019522,14.496935,15.335854,17.889938,21.719248,25.582769,27.919998,27.576672,24.363733,19.127043,13.29284,8.1581764,4.3280759,1.5890163,-0.7654404,-3.3996985,-6.525351,-9.8345947,-12.770862,-14.936315,-16.382626,-17.626791,-19.40011,-22.274525,-26.353897,-31.169191,-35.818855,-39.297703,-40.888401,-40.46246,-38.559792,-36.192387,-34.434368,-33.973576,-34.843388,-36.482006,-38.09634,-39.127472,-39.539478,-39.74947,-40.24144,-41.123329,-41.944958,-41.93713,-40.546562,-37.914864,-34.947258,-32.862881,-32.465752,-33.593643,-35.129238,-35.61993,-34.157188,-30.973846,-27.36797,-24.973232,-24.809774,-26.697227,-29.390572,-31.346674,-31.634256,-30.417616,-28.726484,-27.687103,-27.731253,-28.302086,-28.24066,-26.58832,-23.269854,-19.204088,-15.764009,-13.930978,-13.684676,-14.018682,-13.573811,-11.493564,-7.9724941,-4.16606,-1.5279058,-0.9853816,-2.4463103,-4.9096632,-7.0777183,-8.0736837,-7.8316126,-6.9547353,-6.1792603,-5.8181591,-5.5505929,-4.6840177,-2.7037821,0.26199216,3.3827507,5.535521,5.9511943,4.7074137,2.7612171,1.4846494,1.9619141,4.4487858,8.302124,12.415771,15.91162,18.696285,21.578506,25.891529,32.829517,42.841885,55.373463,69.044243,82.149048,93.235703,101.52982,107.078,110.60532,113.17136,115.74905,118.85916,122.38313,125.63754,127.70809,127.92076,126.22939,123.29871,120.19735,117.83563,116.46071,115.52649,114.05255,111.27931,107.21114,102.67461,98.812096,96.308372,94.859116,93.272423,90.199905,85.066788,78.600708,72.578873,68.898972,68.519745,70.917534,74.388924,76.998611,77.574463,76.1502,73.643959,71.068893,68.85302,66.716248,64.119873,60.885254,57.475536,54.713329,53.155979,52.628422,52.308563,51.339966,49.522366,47.526089,46.392654,46.611206,47.421734,46.912739,42.979389,34.615253,22.732098,9.9450703,-0.61817372,-6.8240776,-8.5024195,-7.3589573,-5.9482169,-6.3508539,-9.3004065,-14.151942,-19.544989,-24.242968,-27.639593,-29.7446,-30.836103,-31.134903,-30.740656,-29.802727,-28.703587,-28.045809,-28.418093,-30.104437,-32.943409,-36.419846,-39.895142,-42.801277,-44.695702,-45.223949,-44.125694,-41.365772,-37.320568,-32.838856,-29.037903,-26.877907,-26.745802,-28.315603,-30.789122,-33.3647,-35.621895,-37.572632,-39.37677,-40.970333,-41.918545,-41.63068,-39.789536,-36.67112,-33.098755,-30.041645,-28.12999,-27.415722,-27.515465,-27.98082,-28.580036,-29.274063,-29.950024,-30.206497,-29.465189,-27.407824,-24.415228,-21.591166,-20.203537,-20.820065,-22.725431,-24.114838,-23.074883,-18.797186,-12.231,-5.6788769,-1.5133908,-0.79886156,-2.710747,-5.1517859,-6.1789699,-5.3072171,-3.8267183,-3.9267912,-7.2198277,-13.65883,-21.565237,-28.721788,-33.762432,-36.906384,-39.556862,-43.082706,-47.664101,-52.025204,-54.244488,-53.077274,-48.871464,-43.446381,-39.024311,-36.94746,-37.038017,-37.992455,-38.482944,-38.170918,-37.934353,-39.182838,-42.769855,-48.270679,-54.115341,-58.467796,-60.249458,-59.648731,-57.845993,-56.219589,-55.602936,-56.048485,-57.139637,-58.500175,-60.061882,-61.904305,-63.859829,-65.283875,-65.268326,-63.221432,-59.421558,-55.115208,-52.009289,-51.410385,-53.510895,-57.246075,-60.801907,-62.474392,-61.405945,-57.84433,-52.87574,-47.865002,-43.927742,-41.648258,-41.061352,-41.784805,-43.186028,-44.545162,-45.235268,-44.918625,-43.685486,-42.026165,-40.590988,-39.830921,-39.722389,-39.764297,-39.280144,-37.857891,-35.653328,-33.353603,-31.80821,-31.548628,-32.490795,-33.99818,-35.254139,-35.703537,-35.295502,-34.402126,-33.500065,-32.841808,-32.32748,-31.638996,-30.523663,-29.027132,-27.52247,-26.520861,-26.38553,-27.122646,-28.369362,-29.582615,-30.322336,-30.476341,-30.307018,-30.290958,-30.82695,-31.960522,-33.278652,-34.056736,-33.612427,-31.695452,-28.690084,-25.476522,-22.974693,-21.591656,-20.890675,-19.714487,-16.750469,-11.253018,-3.5102236,5.2418294,13.440508,20.008991,24.880844,28.918201,33.272579,38.586273,44.535748,50.003101,53.758831,55.209377,54.721882,53.317173,51.938423,50.784512,49.157349,45.937202,40.389481,32.787647,24.450449,17.158062,12.293027,10.207212,10.159286,10.813759,10.972735,10.116695,8.4937983,6.789403,5.63557,5.2584186,5.4210186,5.6212034,5.3791075,4.4539123,2.9207165,1.1293516,-0.4023982,-1.1297305,-0.64597327,1.1541145,3.9789793,7.1899137,10.017777,11.867468,12.556494,12.354079,11.804499,11.45565,11.66818,12.604626,14.34504,16.967451,20.464739,24.532591,28.430294,31.136833,31.844101,30.551277,28.353973,27.122169,28.615616,33.484665,40.766735,48.261478,53.651009,55.741089,55.067783,53.463417,52.814816,53.774872,55.254066,55.053452,51.283672,43.699585,34.103508,25.529566,20.667757,20.450792,23.619524,27.48189,29.372738,27.948963,23.627043,18.042593,12.996161,9.5778236,7.9303231,7.6184492,8.1801195,9.3964214,11.123245,12.920189,13.89184,12.990633,9.6493874,4.3059993,-1.6088279,-6.3151593,-8.6173744,-8.5558863,-7.3514266,-6.6546292,-7.5569954,-9.9740334,-12.77246,-14.538112,-14.479357,-12.891641,-10.909084,-9.7357111,-9.8759899,-10.865096,-11.657267,-11.396534,-10.050983,-8.4903078,-7.9539862,-9.2516842,-12.206577,-15.695345,-18.262756,-18.934618,-17.739132,-15.635115,-13.910378,-13.425709,-14.153648,-15.262974,-15.663026,-14.656096,-12.306955,-9.3359041,-6.6420212,-4.7779193,-3.7008677,-2.9283423,-1.962634,-0.68712807,0.52762914,1.0687264,0.5056569,-1.0891008,-3.1344221,-4.854094,-5.7108483,-5.6918783,-5.2790332,-5.1385622,-5.7332268,-7.0889173,-8.8298197,-10.418738,-11.423794,-11.649788,-11.096355,-9.8366098,-7.9518738,-5.5841708,-3.0431688,-0.83171749,0.50058895,0.63097,-0.30550021,-1.7075402,-2.7752426,-2.9204791,-2.0731494,-0.68406808,0.5851562,1.2878886,1.4555739,1.5271615,2.0009997,3.0569553,4.4167986,5.5418129,6.0247302,5.8900614,5.5786014,5.6188397,6.2209725,7.0968037,7.655755,7.454226,6.5784001,5.6668549,5.5237112,6.5700107,8.5185757,10.525714,11.749512,11.947866,11.693022,12.017847,13.694045,16.61404,19.712698,21.529316,21.087883,18.544411,15.175161,12.686983,12.260898,13.912657,16.555517,18.708565,19.3941,18.665245,17.459272,16.910389,17.590897,19.170338,20.687296,21.221983,20.507677,19.081327,17.89422,17.662617,18.399513,19.435375,19.904743,19.370272,18.170904,17.264812,17.662689,19.804018,23.259287,26.936041,29.660994,30.793531,30.521189,29.685625,29.260521,29.790358,31.101999,32.432129,32.879105,31.918594,29.702986,26.992268,24.762768,23.703701,23.861536,24.611557,24.969736,24.091097,21.711424,18.319273,14.976149,12.870668,12.815476,14.916035,18.551529,22.657942,26.167616,28.402876,29.262938,29.153439,28.725109,28.557739,28.925051,29.720407,30.548571,30.927916,30.517139,29.280016,27.525625,25.804193,24.693672,24.5632,25.421459,26.928928,28.575394,29.932961,30.844439,31.437586,31.959314,32.542263,33.070057,33.251976,32.877872,32.087063,31.448055,31.746614,33.566177,36.898014,41.032234,44.83131,47.25985,47.880444,47.033867,45.604427,44.516617,44.263504,44.734303,45.412273,45.783028,45.676197,45.329151,45.159061,45.422821,46.006645,46.484955,46.398716,45.558559,44.17141,42.716747,41.665493,41.22718,41.273869,41.460381,41.435654,41.003078,40.151634,38.98402,37.631416,36.224751,34.917622,33.896,33.318642,33.20335,33.345474,33.359478,32.855152,31.650963,29.873604,27.848169,25.821955,23.694328,20.948479,16.868979,10.946078,3.2340653,-5.5597296,-14.323877,-21.994354,-27.951216,-32.142868,-34.896378,-36.56881,-37.284336,-36.928612,-35.387943,-32.849632,-29.934389,-27.540297,-26.467758,-27.042017,-28.96019,-31.459013,-33.710449,-35.223484,-36.035427,-36.607327,-37.509388,-39.092609,-41.330513,-43.898243,-46.410038,-48.649681,-50.647739,-52.567669,-54.490433,-56.257057,-57.496998,-57.854153,-57.288631,-56.261219,-55.649139,-56.383591,-58.969273,-63.14473,-67.901909,-71.906891,-74.13929,-74.419647,-73.522217,-72.776711,-73.346375,-75.569221,-78.739616,-81.47641,-82.492912,-81.343483,-78.719429,-76.115158,-75.045227,-76.252899,-79.354233,-83.105843,-86.121407,-87.611259,-87.727203,-87.347961,-87.47702,-88.636536,-90.608513,-92.634659,-93.902954,-94.000084,-93.072655,-91.652992,-90.313805,-89.388176,-88.899704,-88.680107,-88.535767,-88.334862,-87.993431,-87.44072,-86.653214,-85.757187,-85.095535,-85.137611,-86.216675,-88.238304,-90.584824,-92.356056,-92.863625,-92.081032,-90.710663,-89.727837,-89.602577,-89.664398,-88.071167,-82.531837,-71.481346,-55.087288,-35.497337,-16.121387,-0.27123296,10.158194,15.304338,16.981226,17.613495,19.07527,22.032198,26.033703,30.151787,33.688576,36.523582,38.973553,41.37294,43.730869,45.707279,46.883831,47.087318,46.505344,45.514198,44.37117,43.030563,41.244827,38.883923,36.220585,33.930588,32.753468,33.01395,34.332008,35.748287,36.221397,35.196499,32.882431,30.057592,27.535095,25.644865,24.07807,22.191475,19.553928,16.348446,13.339536,11.411797,10.982327,11.683081,12.535285,12.513053,11.136202,8.7152004,6.1030445,4.1316123,3.1075304,2.6877091,2.1920917,1.1228828,-0.46277297,-1.963068,-2.5969808,-1.8690208,0.16496427,2.9726758,5.8689041,8.3498936,10.2335,11.568744,12.448017,12.900715,12.946485,12.729619,12.573983,12.858616,13.770753,15.119754,16.383205,17.00157,16.747002,15.911276,15.157981,15.108992,15.928572,17.190525,18.135979,18.167519,17.257126,15.992196,15.219309,15.513783,16.820953,18.501728,19.745314,20.069832,19.579977,18.823547,18.363977,18.375658,18.543421,18.329544,17.413565,15.991252,14.718273,14.329681,15.186805,17.048532,19.208044,20.891832,21.654522,21.527843,20.86702,20.045643,19.233128,18.397532,17.487581,16.608477,16.02013,15.941212,16.315008,16.74612,16.700565,15.857085,14.358747,12.756944,11.649482,11.248095,11.194509,10.799089,9.5850506,7.7799883,6.3843679,6.6945314,9.5194073,14.565942,20.409147,25.124868,27.252136,26.529577,23.968603,21.220266,19.619459,19.480923,20.055986,20.142693,18.93911,16.592939,14.110004,12.699727,12.989091,14.60731,16.39525,17.094345,16.075403,13.659471,10.853957,8.6961098,7.627841,7.2837119,6.7980785,5.4113545,2.9831829,0.09864416,-2.2804503,-3.3878706,-3.0943239,-1.9605745,-0.88906002,-0.59704345,-1.2243584,-2.2915189,-3.0097053,-2.7441869,-1.3593539,0.74237335,2.892185,4.5669255,5.7000065,6.7142105,8.2587261,10.797914,14.282434,18.091152,21.28739,23.062057,23.13088,21.872025,20.127815,18.777536,18.316322,18.673002,19.363529,19.881731,20.087866,20.35471,21.374401,23.735327,27.52202,32.184029,36.762653,40.351364,42.526089,43.500751,43.929401,44.486622,45.48447,46.751663,47.833584,48.374233,48.434223,48.542572,49.443401,51.679813,55.251442,59.539345,63.544144,66.317558,67.37281,66.879379,65.561211,64.36174,64.041489,64.892471,66.68631,68.857407,70.812477,72.203918,73.030701,73.52639,73.91243,74.174217,74.009117,72.996269,70.897209,67.898521,64.619125,61.834263,60.046494,59.1525,58.428413,56.885075,53.822155,49.271805,44.062847,39.442951,36.450497,35.37582,35.600433,35.88332,34.910294,31.791821,26.260462,18.529629,8.9868727,-2.0295765,-14.222891,-27.146635,-40.028454,-51.80349,-61.40226,-68.148094,-72.026062,-73.654709,-73.976395,-73.854431,-73.808571,-74.010368,-74.477837,-75.283989,-76.609375,-78.606186,-81.194984,-83.972351,-86.328262,-87.717148,-87.911644,-87.076714,-85.62632,-83.972771,-82.341675,-80.761238,-79.195015,-77.68158,-76.351959,-75.309364,-74.482872,-73.603897,-72.364723,-70.66642,-68.7687,-67.199768,-66.450294,-66.64492,-67.427208,-68.163269,-68.346725,-67.931282,-67.347672,-67.173569,-67.676079,-68.557465,-69.113281,-68.72963,-67.393478,-65.850784,-65.263351,-66.551178,-69.833961,-74.341072,-78.861359,-82.448616,-84.926239,-86.867226,-89.077492,-91.943199,-95.089073,-97.574661,-98.480568,-97.467987,-94.917793,-91.555649,-87.836075,-83.534622,-77.856392,-70.008125,-59.849998,-48.174999,-36.408085,-25.907499,-17.317999,-10.386016,-4.3296967,1.5175554,7.2444744,12.390284,16.417656,19.266294,21.566647,24.334232,28.334747,33.548779,39.108509,43.765404,46.594269,47.484905,47.119263,46.473606,46.189339,46.221996,45.972672,44.780209,42.427864,39.337166,36.352768,34.294662,33.580788,34.133587,35.561218,37.419949,39.34721,41.003281,41.946278,41.638683,39.68045,36.158524,31.853418,28.076895,26.130276,26.636124,29.126677,32.168041,34.007187,33.422504,30.326593,25.79756,21.528467,18.999849,18.814957,20.523159,22.97113,24.938303,25.690781,25.180616,23.850389,22.2286,20.591192,18.881985,16.898235,14.578941,12.182445,10.226899,9.2284813,9.4039574,10.527311,12.034414,13.317262,14.034184,14.253997,14.354366,14.744514,15.588476,16.701496,17.68038,18.17732,18.131506,17.796949,17.537745,17.521473,17.52313,16.995602,15.394967,12.572611,8.9779215,5.5109296,3.0747433,2.0758383,2.1758354,2.4651334,1.9788536,0.2606689,-2.3614783,-4.9593849,-6.5445504,-6.6443391,-5.5720963,-4.2365713,-3.6155143,-4.2158208,-5.8366075,-7.7518396,-9.1678247,-9.6551294,-9.2980862,-8.5085163,-7.6727085,-6.8942809,-6.0054183,-4.8148746,-3.3884594,-2.1346836,-1.6084628,-2.1496112,-3.598954,-5.2956648,-6.3807354,-6.2330155,-4.7776823,-2.4880013,-0.094202742,1.8090898,3.0170305,3.6965902,4.1475754,4.5329499,4.7737713,4.6768398,4.1931748,3.6076646,3.4996717,4.4652839,6.7559524,10.059037,13.575117,16.375187,17.851501,18.011616,17.447176,16.991343,17.25631,18.311533,19.681925,20.659605,20.73975,19.919373,18.682354,17.687319,17.361734,17.668642,18.205893,18.580305,18.804684,19.424679,21.236877,24.726662,29.568512,34.543709,38.008625,38.708622,36.48489,32.434059,28.371428,25.859688,25.346716,25.922901,25.860569,23.634985,18.829874,12.390984,6.0806737,1.4703784,-0.91464257,-1.7871475,-2.535639,-4.2888393,-7.210989,-10.466776,-12.8509,-13.644977,-13.124974,-12.383897,-12.595624,-14.219442,-16.684015,-18.767708,-19.424267,-18.500845,-16.862444,-15.830721,-16.304832,-18.15098,-20.276638,-21.35428,-20.724974,-18.882589,-17.204592,-17.084488,-19.015867,-22.219187,-25.061844,-26.018482,-24.576445,-21.528505,-18.48358,-16.91361,-17.330324,-19.082222,-20.857197,-21.537758,-20.860363,-19.489328,-18.508148,-18.694799,-20.053497,-21.873941,-23.231045,-23.565132,-22.964188,-21.997965,-21.26013,-20.952364,-20.786619,-20.245329,-18.994703,-17.156406,-15.255865,-13.891408,-13.350482,-13.422199,-13.518102,-13.017244,-11.625141,-9.5475883,-7.4028916,-5.9405494,-5.7154617,-6.8577247,-9.0107899,-11.439968,-13.26871,-13.777324,-12.678506,-10.266975,-7.3533068,-4.9629259,-3.8985164,-4.3665628,-5.8762841,-7.4973855,-8.3615894,-8.1325216,-7.1636434,-6.239357,-6.0535812,-6.7561464,-7.8653517,-8.609971,-8.4739027,-7.5673027,-6.5523014,-6.1529689,-6.579721,-7.2877765,-7.2876287,-5.8520689,-3.1632941,-0.42973015,0.69254911,-0.90688103,-4.9666405,-9.7274294,-12.650541,-11.626756,-6.0184164,3.0401139,13.237136,22.222292,28.651316,32.593082,35.155678,37.639851,40.759678,44.361366,47.71909,50.128574,51.376709,51.805138,51.989704,52.313084,52.751171,53.013344,52.910141,52.65641,52.863228,54.191833,56.88414,60.483833,63.952667,66.140175,66.341309,64.618622,61.708027,58.578465,55.917454,53.844746,52.002739,49.935871,47.500095,45.038837,43.218891,42.635136,43.432693,45.178303,47.056561,48.272755,48.429543,47.673458,46.551514,45.684696,45.453796,45.859749,46.598919,47.266956,47.550446,47.307358,46.533085,45.287907,43.669624,41.854382,40.149902,38.973114,38.707779,39.490986,41.054176,42.744236,43.761238,43.51886,41.943581,39.540237,37.168667,35.63472,35.30825,35.972099,36.981224,37.637306,37.562679,36.857765,35.952148,35.239063,34.713875,33.841923,31.753866,27.677074,21.367393,13.291232,4.4371905,-4.1587148,-11.923141,-19.007097,-26.141853,-34.152691,-43.389515,-53.391788,-62.988533,-70.800514,-75.888367,-78.202057,-78.587334,-78.342216,-78.560646,-79.615433,-81.052742,-81.940453,-81.461563,-79.41349,-76.336815,-73.213623,-70.921326,-69.760895,-69.327286,-68.787231,-67.396248,-64.955772,-61.953606,-59.315018,-57.90937,-58.085182,-59.480019,-61.194611,-62.227055,-61.937641,-60.317524,-57.949364,-55.70541,-54.344727,-54.197445,-55.062012,-56.334454,-57.291431,-57.398003,-56.517319,-54.947544,-53.280472,-52.14082,-51.909943,-52.545727,-53.578384,-54.293068,-54.030109,-52.474751,-49.803905,-46.616341,-43.672691,-41.565365,-40.475967,-40.136429,-40.007153,-39.57436,-38.608448,-37.24939,-35.88158,-34.877022,-34.358166,-34.119106,-33.752888,-32.912647,-31.554087,-30.01132,-28.849325,-28.563337,-29.288376,-30.685026,-32.076031,-32.769852,-32.400524,-31.099119,-29.403278,-27.9562,-27.164286,-27.003187,-27.074154,-26.866642,-26.066441,-24.72891,-23.224827,-22.005543,-21.339262,-21.178362,-21.228224,-21.160624,-20.830391,-20.362185,-20.063452,-20.228178,-20.954687,-22.078606,-23.242567,-24.045498,-24.184679,-23.532869,-22.147102,-20.241344,-18.149549,-16.275572,-15.007728,-14.593426,-15.013066,-15.924619,-16.736128,-16.801292,-15.660481,-13.21637,-9.7643814,-5.8746953,-2.193141,0.74950963,2.6625588,3.5475426,3.6954939,3.63255,3.9918475,5.2988043,7.717629,10.882125,13.952222,15.950346,16.26438,15.057503,13.315084,12.427654,13.479888,16.623196,20.906158,24.69714,26.488585,25.636034,22.615763,18.674147,15.110113,12.641887,11.224829,10.368649,9.6681499,9.1412935,9.1401672,9.9372129,11.343765,12.700926,13.299433,12.939372,12.19193,12.10138,13.460924,16.136045,18.939007,20.228033,18.918152,15.275691,10.953964,8.1812544,8.548892,12.116957,17.373922,22.066229,24.387562,23.821512,21.181501,17.911701,15.157358,13.20099,11.55982,9.5754023,7.0194254,4.2843556,2.0664115,0.82424676,0.44243297,0.35266191,0.010314265,-0.64575028,-1.1106043,-0.68810594,0.9390077,3.3610139,5.5868154,6.6112804,6.0329647,4.3068142,2.4580154,1.4431099,1.5754507,2.3807538,2.9564991,2.5801482,1.1653111,-0.71059954,-2.1879015,-2.6364205,-1.9640942,-0.55887073,1.0402889,2.481982,3.7219229,4.8825421,6.0071564,6.9250922,7.3386531,7.0593057,6.2009439,5.1695166,4.4431353,4.2961302,4.6656823,5.2569022,5.8077917,6.315938,7.0519199,8.3342581,10.213457,12.287167,13.793516,13.954339,12.380541,9.3097572,5.5445399,2.1299989,-0.053363729,-0.58036488,0.46035197,2.6233547,5.3664269,8.2843485,11.238117,14.367822,18.016348,22.593378,28.400799,35.450199,43.333099,51.224617,58.074142,62.953167,65.428627,65.77697,64.90139,63.955509,63.840309,64.828064,66.513618,68.117065,68.960274,68.836334,68.056099,67.158295,66.486603,65.928909,65.012665,63.310802,60.887047,58.451126,57.058926,57.489788,59.674824,62.567802,64.609062,64.565842,62.268238,58.778511,55.845036,54.921272,56.312351,58.961201,61.019909,60.88657,58.107918,53.628307,49.257153,46.68734,46.643532,48.627541,51.342621,53.471439,54.309097,53.903988,52.714603,51.102654,49.050076,46.284492,42.681339,38.608738,34.926895,32.606632,32.205444,33.544796,35.800404,37.947544,39.282394,39.711914,39.673397,39.782219,40.451717,41.700863,43.209846,44.526508,45.273991,45.271023,44.572716,43.477627,42.502552,42.262142,43.197945,45.212242,47.404896,48.155968,45.659851,38.745132,27.576202,13.810965,0.042436279,-11.245841,-18.676842,-22.398064,-23.716661,-24.206757,-24.843685,-25.667393,-26.109083,-25.677881,-24.489069,-23.261219,-22.806953,-23.41054,-24.567013,-25.297449,-24.838158,-23.224356,-21.348413,-20.430624,-21.247179,-23.631987,-26.585901,-28.916126,-29.974678,-30.009436,-29.916321,-30.589502,-32.32436,-34.664665,-36.758682,-37.938145,-38.104286,-37.675793,-37.18589,-36.862751,-36.512932,-35.775681,-34.523041,-33.069897,-32.010479,-31.794512,-32.369114,-33.175915,-33.530289,-33.115402,-32.22353,-31.5522,-31.692152,-32.6828,-33.976704,-34.86034,-35.034031,-34.913982,-35.398224,-37.220875,-40.334419,-43.774918,-46.153202,-46.483414,-44.809376,-42.201546,-40.107494,-39.471035,-40.194027,-41.288349,-41.605213,-40.645618,-38.908169,-37.547466,-37.580051,-39.171856,-41.476337,-43.119125,-43.001106,-40.901299,-37.519005,-33.979004,-31.165031,-29.320829,-28.13349,-27.164549,-26.269556,-25.693672,-25.79858,-26.660185,-27.871063,-28.723513,-28.659601,-27.667074,-26.325388,-25.447256,-25.546799,-26.49333,-27.58901,-28.022198,-27.393757,-25.965385,-24.46858,-23.609837,-23.609726,-24.086176,-24.356573,-23.950354,-22.982716,-22.132675,-22.23048,-23.715719,-26.312119,-29.126492,-31.112297,-31.615292,-30.679243,-28.949053,-27.258913,-26.17292,-25.749517,-25.639139,-25.410128,-24.869677,-24.176224,-23.695635,-23.723822,-24.273819,-25.06422,-25.701241,-25.919647,-25.721933,-25.337969,-25.054918,-25.047903,-25.324472,-25.799721,-26.419142,-27.216118,-28.250809,-29.479439,-30.668678,-31.446148,-31.479044,-30.670187,-29.232752,-27.578426,-26.081772,-24.875462,-23.817394,-22.654594,-21.26837,-19.820759,-18.684851,-18.193583,-18.37812,-18.889025,-19.17738,-18.83392,-17.865276,-16.715559,-16.00569,-16.153889,-17.126476,-18.485058,-19.696789,-20.494019,-21.034204,-21.748873,-22.988274,-24.715427,-26.473272,-27.659321,-27.922539,-27.403008,-26.636726,-26.180407,-26.213919,-26.406315,-26.157799,-25.068312,-23.31308,-21.649141,-21.013716,-21.950558,-24.228645,-26.907763,-28.825253,-29.209784,-28.048418,-25.994041,-23.895229,-22.265001,-21.027973,-19.687094,-17.769419,-15.232932,-12.557717,-10.468714,-9.4883223,-9.6249723,-10.401039,-11.186085,-11.594884,-11.673982,-11.756431,-12.101482,-12.590137,-12.712569,-11.882564,-9.882802,-7.1390586,-4.6142774,-3.3481772,-3.8944962,-5.9832263,-8.6109467,-10.516811,-10.783609,-9.2416077,-6.4761,-3.4669132,-1.0821421,0.29751697,0.85097378,1.0981134,1.5566305,2.4797018,3.7985191,5.2565813,6.6178112,7.8144631,8.9667282,10.298839,12.031139,14.315925,17.226683,20.759027,24.798582,29.059587,33.055584,36.177315,37.897259,38.024319,36.862366,35.1455,33.7374,33.232124,33.680511,34.620014,35.416229,35.728333,35.81374,36.465294,38.591087,42.674267,48.438206,54.927166,60.958412,65.6707,68.838112,70.777809,71.950951,72.55542,72.400856,71.146141,68.713173,65.557434,62.572094,60.662472,60.268353,61.157558,62.630009,63.985641,64.927513,65.625999,66.423187,67.423134,68.29689,68.466377,67.538231,65.656921,63.491154,61.833397,61.08498,60.998455,60.872574,60.067863,58.473888,56.593594,55.194462,54.799854,55.408379,56.642574,58.178497,60.069496,62.648243,66.036224,69.648743,72.163551,72.12249,68.850952,63.068169,56.688171,51.831268,49.634026,49.643677,50.233635,49.789074,47.860977,45.478451,44.380798,45.69907,49.034992,52.632545,54.565655,54.113571,52.315041,51.245426,52.480946,55.845474,59.396141,60.748528,58.850445,54.90205,51.630707,51.261467,53.512238,55.073086,51.147289,38.278,16.754601,-8.9651079,-32.212791,-47.380951,-52.622021,-50.441238,-45.938984,-43.855247,-46.194973,-51.717735,-57.339191,-60.344841,-59.971176,-57.503975,-55.095898,-54.281879,-55.198566,-56.872437,-58.155983,-58.52364,-58.191967,-57.634453,-57.023983,-56.11573,-54.640476,-52.803074,-51.369068,-51.168179,-52.363464,-54.099319,-54.911003,-53.702824,-50.616291,-47.105659,-45.06028,-45.506027,-47.774761,-49.767723,-49.210426,-45.104225,-38.413616,-31.521044,-26.800444,-25.244982,-26.030396,-27.248014,-27.254478,-25.702253,-23.586609,-22.359392,-22.803658,-24.487898,-26.158146,-26.729515,-26.114061,-25.265083,-25.412012,-27.062382,-29.520914,-31.297766,-31.127718,-28.871309,-25.642578,-23.053238,-22.09004,-22.406933,-22.530485,-20.848457,-16.716391,-10.943357,-5.3461213,-1.6858128,-0.69366235,-1.7961318,-3.6541526,-5.0898247,-5.7555161,-6.1308875,-6.9277115,-8.3844395,-9.973299,-10.717029,-9.8689842,-7.4625793,-4.3446975,-1.6770625,-0.25129554,-0.070618391,-0.44754118,-0.5111919,0.23865803,1.687185,3.2835777,4.4651461,5.0087094,5.0849171,5.0287232,5.0399098,5.0521731,4.8550825,4.3466148,3.6917088,3.2376423,3.23083,3.5464685,3.6572175,2.912828,0.98267817,-1.8215634,-4.5777459,-6.1668501,-5.8565702,-3.7238457,-0.66264832,2.0449791,3.3679883,3.0286877,1.5988106,0.14664555,-0.36227477,0.41709131,2.0423605,3.5349014,3.8903196,2.5640113,-0.31558135,-4.0873909,-7.9391465,-11.30386,-14.065671,-16.49754,-19.005302,-21.842768,-24.950113,-27.977592,-30.451654,-31.98188,-32.414688,-31.890612,-30.81255,-29.753742,-29.328426,-30.039063,-32.122852,-35.442764,-39.480381,-43.463661,-46.604084,-48.354782,-48.578224,-47.550003,-45.807381,-43.927776,-42.346725,-41.283588,-40.768738,-40.710251,-40.938889,-41.218777,-41.264076,-40.811172,-39.74844,-38.236462,-36.71843,-35.762054,-35.775345,-36.736156,-38.099609,-38.968643,-38.469978,-36.154568,-32.216049,-27.413118,-22.74033,-19.02317,-16.641855,-15.501448,-15.220861,-15.399223,-15.798769,-16.361383,-17.09321,-17.93166,-18.70471,-19.214458,-19.38199,-19.343283,-19.41531,-19.936117,-21.066202,-22.667362,-24.332935,-25.557316,-25.956762,-25.431166,-24.196268,-22.688585,-21.405163,-20.755957,-20.977568,-22.11241,-24.029221,-26.464312,-29.083214,-31.571947,-33.747368,-35.638683,-37.471169,-39.512268,-41.818577,-44.00946,-45.224106,-44.353367,-40.491856,-33.40736,-23.769783,-12.974236,-2.5997458,6.2456365,13.357711,19.415188,25.517584,32.540939,40.670979,49.362625,57.71809,65.02813,71.136307,76.414055,81.390991,86.304573,90.875,94.453262,96.440269,96.69912,95.694695,94.280281,93.279869,93.133667,93.808266,94.978134,96.303337,97.588181,98.727089,99.53196,99.641678,98.655655,96.446159,93.429031,90.548164,88.893532,89.125114,91.04248,93.593979,95.372055,95.341583,93.390678,90.385414,87.698997,86.49218,87.153908,89.19281,91.586594,93.334595,93.879829,93.203163,91.631149,89.568924,87.362671,85.337273,83.882042,83.409721,84.13266,85.791084,87.574715,88.397186,87.44696,84.709358,81.105209,78.088417,76.879669,77.773186,79.951241,81.955383,82.559036,81.52005,79.744789,78.748238,79.732643,82.85144,87.113976,90.982857,93.275642,93.787918,93.236855,92.569283,92.10099,91.077377,87.983192,81.442116,71.148277,58.221169,44.716488,32.550076,22.470879,13.710244,4.5366859,-6.6003385,-20.012165,-34.424404,-47.545246,-57.213848,-62.465542,-63.921959,-63.327133,-62.546467,-62.626015,-63.423962,-63.950169,-63.129429,-60.492363,-56.402851,-51.757725,-47.422848,-43.796894,-40.761875,-37.996265,-35.38726,-33.233505,-32.092831,-32.381233,-34.000259,-36.253746,-38.129932,-38.795036,-38.014553,-36.263031,-34.466793,-33.530209,-33.904842,-35.417782,-37.419785,-39.141975,-40.057774,-40.072491,-39.476971,-38.72995,-38.20789,-38.051437,-38.165001,-38.338295,-38.403717,-38.342037,-38.29092,-38.467327,-39.053993,-40.107815,-41.526146,-43.074333,-44.45266,-45.374252,-45.634369,-45.163658,-44.062595,-42.608089,-41.216385,-40.351276,-40.389973,-41.489902,-43.51746,-46.083824,-48.684082,-50.877903,-52.421185,-53.28286,-53.551193,-53.307358,-52.568813,-51.357269,-49.849819,-48.491543,-47.945507,-48.847496,-51.468136,-55.475563,-59.966957,-63.797005,-66.054512,-66.436577,-65.315598,-63.468376,-61.633915,-60.162048,-58.946663,-57.648735,-56.029896,-54.158596,-52.355213,-50.9352,-49.954693,-49.158691,-48.18034,-46.849609,-45.378597,-44.268776,-43.982635,-44.599323,-45.702065,-46.596825,-46.734657,-46.062695,-45.066788,-44.471992,-44.796841,-46.054619,-47.790359,-49.408508,-50.546936,-51.229343,-51.697056,-52.061985,-52.061172,-51.126595,-48.754536,-44.928894,-40.289116,-35.889236,-32.668159,-30.955269,-30.326044,-29.901743,-28.902676,-27.107262,-24.942102,-23.176584,-22.446957,-22.9216,-24.293697,-26.050224,-27.789507,-29.362112,-30.774765,-31.989527,-32.823017,-33.051537,-32.640644,-31.893572,-31.355736,-31.497375,-32.383972,-33.585594,-34.426666,-34.434906,-33.688766,-32.810177,-32.583614,-33.443817,-35.177242,-37.046368,-38.259346,-38.468731,-37.960945,-37.412834,-37.394569,-37.976837,-38.72625,-39.095863,-38.930557,-38.714005,-39.354092,-41.622501,-45.611546,-50.574703,-55.271698,-58.610317,-60.187321,-60.404778,-60.120655,-60.088665,-60.556038,-61.252773,-61.726875,-61.753773,-61.523827,-61.491684,-62.018166,-63.074009,-64.217155,-64.854156,-64.60141,-63.506481,-62.000427,-60.637539,-59.805149,-59.574257,-59.740131,-59.972912,-59.955719,-59.445915,-58.287041,-56.43713,-54.032375,-51.42305,-49.089268,-47.414272,-46.421288,-45.660995,-44.383797,-41.9543,-38.278572,-33.959728,-30.038225,-27.434483,-26.422106,-26.465401,-26.536282,-25.718212,-23.715973,-20.952368,-18.209427,-16.074871,-14.575471,-13.234543,-11.484406,-9.1150112,-6.425477,-3.9745326,-2.1303985,-0.77450258,0.60047519,2.4597294,4.7912197,7.0219817,8.3957348,8.5730524,8.0211868,7.8769064,9.3278475,12.91468,18.244877,24.345636,30.435587,36.57436,43.695717,52.93623,64.673485,77.937073,90.660149,100.70447,107.06297,110.47988,113.05765,117.04687,123.53828,131.85353,140.00406,145.92458,148.71086,149.10248,148.93774,149.95433,152.70341,156.24783,158.80214,158.88226,156.2372,152.00491,148.04065,145.87265,145.93375,147.49872,149.29005,150.3114,150.37183,150.01282,149.95613,150.48666,151.1902,151.20268,149.78362,146.82668,142.98109,139.31992,136.77502,135.68446,135.70145,136.075,136.09334,135.41397,134.11469,132.49681,130.82019,129.15981,127.45703,125.68649,123.98154,122.60506,121.7778,121.49051,121.44543,121.18594,120.34189,118.8365,116.9242,115.04104,113.57075,112.67654,112.29134,112.24228,112.39458,112.70183,113.13761,113.59014,113.83814,113.66182,113.02109,112.1521,111.46613,111.27517,111.52009,111.72025,111.24232,109.76123,107.60641,105.69424,104.97278,105.63017,106.53762,105.34842,99.34745,86.711357,67.552422,44.166512,20.285927,-0.3485859,-15.419818,-24.786446,-30.224962,-34.346249,-39.269608,-45.711357,-52.879047,-59.121773,-62.91782,-63.665852,-61.914585,-58.995361,-56.322632,-54.751816,-54.297523,-54.294792,-53.862125,-52.40551,-49.924145,-47.004902,-44.547016,-43.367931,-43.8689,-45.889301,-48.786469,-51.685768,-53.789375,-54.624889,-54.152641,-52.712307,-50.849594,-49.10199,-47.82687,-47.129795,-46.905834,-46.960629,-47.146465,-47.444782,-47.953503,-48.78653,-49.943161,-51.229187,-52.291325,-52.764854,-52.461834,-51.488407,-50.206486,-49.042511,-48.246181,-47.749485,-47.230186,-46.360508,-45.093433,-43.793129,-43.094654,-43.545414,-45.23407,-47.648388,-49.884026,-51.115768,-51.069084,-50.208626,-49.514004,-49.9538,-51.949791,-55.131485,-58.512058,-60.974747,-61.792801,-60.909698,-58.866394,-56.467632,-54.404041,-53.026466,-52.340263,-52.148396,-52.212284,-52.338882,-52.389988,-52.268826,-51.93071,-51.410358,-50.818066,-50.272694,-49.800472,-49.279789,-48.50058,-47.329163,-45.87965,-44.563423,-43.951233,-44.50267,-46.312332,-49.022594,-51.95488,-54.381752,-55.788033,-55.997372,-55.141533,-53.544792,-51.61768,-49.798431,-48.506817,-48.054565,-48.513103,-49.621838,-50.847183,-51.62682,-51.694435,-51.280357,-51.01799,-51.557949,-53.099499,-55.143196,-56.6642,-56.648945,-54.690403,-51.271088,-47.53756,-44.685127,-43.32209,-43.20039,-43.466152,-43.250824,-42.212452,-40.68721,-39.386131,-38.880318,-39.247894,-40.12149,-41.074894,-42.037327,-43.402534,-45.724709,-49.205059,-53.347073,-57.064976,-59.224728,-59.288307,-57.636822,-55.340309,-53.500053,-52.574127,-52.11644,-51.096958,-48.597637,-44.44083,-39.357822,-34.607384,-31.304417,-29.888559,-30.046379,-31.086945,-32.473423,-34.130726,-36.327885,-39.245312,-42.565506,-45.415833,-46.751266,-45.957253,-43.285297,-39.820595,-36.968472,-35.747894,-36.303284,-37.911705,-39.460178,-40.088657,-39.612423,-38.495747,-37.438988,-36.875755,-36.711731,-36.459572,-35.65852,-34.284645,-32.871902,-32.256432,-33.098808,-35.475689,-38.783905,-42.006073,-44.175159,-44.77544,-43.879761,-41.993473,-39.740208,-37.585907,-35.735184,-34.205593,-32.982021,-32.132076,-31.819487,-32.230503,-33.473255,-35.502739,-38.090313,-40.834389,-43.213154,-44.691959,-44.885147,-43.72736,-41.563282,-39.06855,-36.991138,-35.819069,-35.556942,-35.76165,-35.84354,-35.465321,-34.7855,-34.369789,-34.800388,-36.221111,-38.122356,-39.535591,-39.547848,-37.829998,-34.846527,-31.605612,-29.096581,-27.758589,-27.299313,-26.953571,-25.994083,-24.164183,-21.782784,-19.50635,-17.950588,-17.426605,-17.912218,-19.177277,-20.876322,-22.494078,-23.215504,-21.92869,-17.523512,-9.4285631,1.909269,14.959448,27.613007,38.058617,45.555626,50.644485,54.658962,58.841232,63.61935,68.500534,72.619812,75.534279,77.678467,80.126228,83.795204,88.646133,93.477188,96.539253,96.639557,94.032761,90.481613,88.370583,89.361061,93.39402,98.66008,102.57937,103.22228,100.34156,95.431488,90.819939,88.36264,88.506088,90.2183,91.745735,91.684799,89.729073,86.712082,84.012962,82.743362,83.193634,84.793449,86.512222,87.401016,86.971008,85.270752,82.725357,79.90226,77.336205,75.442123,74.467438,74.438393,75.116783,76.031464,76.629921,76.515465,75.656174,74.440094,73.525925,73.554802,74.869621,77.380775,80.628334,83.980766,86.850227,88.824692,89.693573,89.415009,88.091217,85.978172,83.496727,81.186035,79.570671,78.980316,79.414078,80.537949,81.838165,82.864166,83.438171,83.721779,84.10672,84.991684,86.564186,88.694923,90.983444,92.91143,94.012413,93.976044,92.657425,90.019821,86.066689,80.80674,74.259705,66.481873,57.586617,47.753353,37.235401,26.375048,15.612494,5.456265,-3.6085901,-11.257159,-17.439693,-22.393192,-26.510815,-30.117762,-33.278797,-35.768982,-37.253502,-37.58667,-37.040855,-36.289551,-36.10561,-36.921711,-38.51651,-40.048786,-40.469856,-39.11026,-36.107105,-32.406174,-29.309504,-27.807764,-28.071415,-29.38892,-30.581692,-30.650755,-29.285328,-26.960117,-24.600584,-23.043861,-22.619106,-23.067642,-23.800394,-24.293833,-24.372602,-24.232716,-24.238325,-24.656384,-25.502012,-26.566681,-27.573345,-28.334524,-28.814558,-29.081453,-29.209194,-29.208553,-29.02479,-28.584818,-27.849636,-26.841568,-25.648081,-24.419664,-23.366245,-22.732233,-22.726645,-23.415464,-24.628914,-25.955854,-26.864199,-26.911058,-25.939266,-24.148235,-21.993082,-19.96764,-18.398619,-17.367962,-16.793407,-16.590063,-16.783373,-17.482401,-18.7281,-20.330305,-21.830246,-22.651623,-22.379112,-21.008659,-19.013124,-17.163891,-16.186668,-16.425917,-17.690701,-19.358419,-20.678463,-21.120491,-20.600471,-19.490362,-18.429203,-18.043306,-18.710312,-20.460661,-23.030607,-26.00721,-28.973833,-31.585844,-33.563282,-34.646042,-34.58213,-33.194748,-30.51169,-26.878164,-22.955017,-19.549698,-17.321402,-16.4923,-16.724195,-17.254644,-17.253275,-16.230026,-14.281445,-12.036249,-10.322728,-9.7370176,-10.348997,-11.702282,-13.092476,-13.947178,-14.081543,-13.69418,-13.139888,-12.65639,-12.239524,-11.745722,-11.13106,-10.630046,-10.71104,-11.800369,-13.941722,-16.629164,-18.964291,-20.087435,-19.646332,-18.017271,-16.124346,-14.938783,-14.938483,-15.842878,-16.783123,-16.813574,-15.469377,-13.048541,-10.459269,-8.7264032,-8.4430542,-9.4743814,-11.064817,-12.266821,-12.437806,-11.536447,-10.086128,-8.8690825,-8.5504465,-9.4357414,-11.452871,-14.304305,-17.650097,-21.202023,-24.704153,-27.870607,-30.379019,-31.963587,-32.559391,-32.3904,-31.913717,-31.621944,-31.804281,-32.407234,-33.08572,-33.423473,-33.196674,-32.523758,-31.808403,-31.504879,-31.841864,-32.668587,-33.519341,-33.867924,-33.434181,-32.371994,-31.229362,-30.692369,-31.240189,-32.887287,-35.147041,-37.240257,-38.449516,-38.446693,-37.433762,-36.029415,-34.960835,-34.716942,-35.336815,-36.433895,-37.430893,-37.869122,-37.621468,-36.900414,-36.076042,-35.430122,-35.003246,-34.623234,-34.07851,-33.302441,-32.429371,-31.677029,-31.13937,-30.648338,-29.825459,-28.314262,-26.049528,-23.375942,-20.9149,-19.241762,-18.567413,-18.624586,-18.831676,-18.629135,-17.776619,-16.436106,-15.018458,-13.92878,-13.396235,-13.484673,-14.22376,-15.701227,-17.996069,-20.983397,-24.183884,-26.841438,-28.262671,-28.240177,-27.268618,-26.353775,-26.470884,-27.981997,-30.387381,-32.59655,-33.571472,-32.939865,-31.18261,-29.274591,-28.023375,-27.554447,-27.289597,-26.42016,-24.527584,-21.895222,-19.27058,-17.230114,-15.59543,-13.336929,-9.0792522,-1.9099934,8.0260887,19.536055,30.98823,41.130943,49.60688,56.869385,63.611656,70.129189,76.045509,80.551483,82.947647,83.092102,81.461662,78.835281,75.876472,72.930962,70.152679,67.791756,66.344536,66.381699,68.148361,71.249687,74.717995,77.495934,79.051193,79.69944,80.375641,81.963112,84.611557,87.516563,89.347237,89.077057,86.687744,83.275261,80.463242,79.475929,80.445976,82.382591,83.80365,83.617722,81.701385,78.836517,76.098045,74.13047,72.797173,71.412621,69.366814,66.692467,64.174713,62.916969,63.642746,66.188889,69.524223,72.293808,73.562279,73.314491,72.429703,72.166626,73.477036,76.538803,80.73996,85.067261,88.632614,91.030693,92.363541,92.98481,93.169289,92.920311,92.006683,90.16571,87.320175,83.678879,79.688934,75.903786,72.859901,71.007202,70.664055,71.933136,74.553993,77.755814,80.239998,80.403351,76.798485,68.676476,56.363251,41.257229,25.40103,10.792805,-1.2560068,-10.426189,-17.241322,-22.581148,-27.141983,-31.132639,-34.336868,-36.45071,-37.448513,-37.733658,-37.981728,-38.784889,-40.331276,-42.325798,-44.202469,-45.494209,-46.131008,-46.487141,-47.155914,-48.594269,-50.848663,-53.51313,-55.927071,-57.487774,-57.907902,-57.304657,-56.114685,-54.913303,-54.234066,-54.444401,-55.681919,-57.836361,-60.578384,-63.45499,-66.05571,-68.199867,-70.043457,-72.009583,-74.531746,-77.724815,-81.181023,-84.05439,-85.443512,-84.889954,-82.702934,-79.884178,-77.643669,-76.747711,-77.0681,-77.614296,-77.064026,-74.51342,-70.023422,-64.639038,-59.852932,-56.804401,-55.661472,-55.533607,-54.96352,-52.72187,-48.465187,-42.903454,-37.404076,-33.267979,-31.079281,-30.468021,-30.384054,-29.702353,-27.817863,-24.919605,-21.826214,-19.503361,-18.539135,-18.852713,-19.768883,-20.391682,-20.061745,-18.655928,-16.588617,-14.541143,-13.087422,-12.426603,-12.358508,-12.490823,-12.533136,-12.489484,-12.632575,-13.286077,-14.566622,-16.264839,-17.952948,-19.25264,-20.081127,-20.697514,-21.500017,-22.697807,-24.08115,-25.065735,-25.012077,-23.630978,-21.210663,-18.501186,-16.309477,-15.052516,-14.552363,-14.203075,-13.393826,-11.900411,-9.9806728,-8.1173286,-6.6042876,-5.2909794,-3.6934934,-1.4157814,1.4171458,4.0534363,5.4714313,5.0134225,2.8897929,0.19155343,-1.6529715,-1.6766804,0.061622813,2.5116801,4.2620621,4.3837891,2.963207,0.99395519,-0.29444724,-0.23524554,0.86206466,1.941224,1.9105279,0.36587062,-2.145062,-4.4830499,-5.660697,-5.4831071,-4.6741047,-4.413281,-5.5868464,-8.2296057,-11.50136,-14.19382,-15.432354,-15.130592,-13.933059,-12.71721,-12.001121,-11.645517,-11.031437,-9.5796947,-7.2583637,-4.73561,-3.0628767,-3.0710077,-4.8437467,-7.5919237,-10.016545,-10.964354,-10.011913,-7.6576457,-5.0239978,-3.2432024,-2.8670077,-3.6152391,-4.5817871,-4.7637382,-3.610456,-1.2930819,1.4374566,3.7026808,4.9901333,5.4083519,5.569953,6.1865268,7.6208806,9.65767,11.617516,12.735893,12.577488,11.246897,9.2883825,7.3569117,5.8729277,4.8674612,4.0918036,3.2948134,2.4704285,1.9083438,2.0178802,3.0458944,4.8774595,7.0511026,8.9803505,10.242286,10.756003,10.749229,10.547783,10.331093,10.011235,9.3086901,7.9731512,6.0099096,3.7724824,1.862694,0.88844436,1.2026746,2.7498238,5.0858479,7.5540891,9.535408,10.670617,10.975306,10.81308,10.743141,11.297947,12.768806,15.076989,17.782091,20.232437,21.807207,22.1593,21.36124,19.891079,18.458195,17.734152,18.09301,19.463432,21.352842,23.03915,23.861101,23.496458,22.113935,20.325697,18.944004,18.632832,19.605131,21.513552,23.604784,25.081713,25.503387,25.015982,24.280884,24.121008,25.063681,27.026691,29.326784,31.016068,31.367529,30.24255,28.136129,25.875387,24.14115,23.078068,22.203369,20.653269,17.622591,12.760779,6.331605,-0.91390675,-8.0514898,-14.310715,-19.271938,-22.887722,-25.378597,-27.091354,-28.384153,-29.552408,-30.778713,-32.097164,-33.389614,-34.441921,-35.06181,-35.210327,-35.066864,-34.967266,-35.225956,-35.934196,-36.861481,-37.543201,-37.532623,-36.689358,-35.337147,-34.181244,-34.002518,-35.271214,-37.876026,-41.112568,-43.946842,-45.433498,-45.095577,-43.096703,-40.139725,-37.152386,-34.908806,-33.749699,-33.50676,-33.641262,-33.518677,-32.693996,-31.090273,-29.005768,-26.959896,-25.454203,-24.757481,-24.810354,-25.28861,-25.789663,-26.045897,-26.053646,-26.047373,-26.329441,-27.046118,-28.036684,-28.850615,-28.940575,-27.940199,-25.880772,-23.223516,-20.677439,-18.887552,-18.152235,-18.317217,-18.90118,-19.382278,-19.487459,-19.326313,-19.300339,-19.846048,-21.163515,-23.086241,-25.161873,-26.887041,-27.949448,-28.329407,-28.202158,-27.70677,-26.731461,-24.857843,-21.51203,-16.246759,-9.0000992,-0.18925516,9.4081278,18.916447,27.630007,35.161987,41.431458,46.538422,50.624928,53.801449,56.155113,57.798264,58.899651,59.669037,60.308918,60.968632,61.723232,62.569794,63.420074,64.086617,64.293419,63.754101,62.324821,60.168549,57.815655,56.026577,55.467934,56.348843,58.236145,60.2057,61.303265,61.084728,59.916119,58.818935,58.904968,60.707191,63.808441,67.0177,69.020264,69.12748,67.669075,65.773582,64.656311,64.848488,65.851547,66.445107,65.46978,62.601181,58.627544,55.046074,53.215786,53.579967,55.427902,57.331295,57.980251,56.911678,54.708946,52.588825,51.66095,52.317513,54.093494,56.024952,57.233463,57.362926,56.634575,55.554008,54.517273,53.591,52.587387,51.338558,49.945869,48.814785,48.44709,49.131741,50.741615,52.770077,54.586037,55.751991,56.217278,56.27972,56.34642,56.636471,56.996136,56.932911,55.858612,53.421776,49.758999,45.524124,41.655094,38.966732,37.757557,37.634647,37.671165,36.848339,34.574486,31.01136,27.019743,23.734852,21.989567,21.898563,22.832087,23.786219,23.92601,22.98247,21.284435,19.440639,17.904324,16.713074,15.561087,14.123721,12.37651,10.656079,9.3955564,8.7069473,8.1116085,6.6446109,3.3238623,-2.2681205,-9.6330509,-17.459332,-24.143826,-28.464355,-30.060701,-29.502735,-27.953106,-26.629549,-26.334808,-27.241186,-28.96405,-30.829582,-32.192383,-32.68169,-32.309914,-31.426708,-30.541399,-30.075481,-30.145651,-30.490217,-30.605545,-30.05377,-28.787745,-27.293333,-26.424755,-26.981779,-29.249508,-32.775017,-36.538921,-39.450558,-40.892937,-41.001225,-40.51136,-40.27351,-40.725842,-41.641785,-42.289299,-41.888958,-40.088367,-37.18182,-33.975262,-31.40546,-30.13957,-30.348969,-31.719105,-33.626328,-35.364552,-36.341068,-36.222775,-35.035709,-33.192474,-31.391018,-30.356535,-30.494507,-31.625734,-32.990437,-33.590275,-32.734367,-30.494532,-27.779873,-25.934317,-26.043003,-28.327314,-31.984261,-35.580944,-37.794254,-38.081059,-36.904865,-35.404266,-34.711159,-35.317928,-36.847027,-38.331154,-38.819881,-37.958714,-36.224064,-34.7043,-34.56403,-36.482388,-40.346405,-45.331924,-50.305809,-54.335274,-57.055309,-58.729374,-59.994301,-61.43541,-63.219769,-64.986145,-66.056999,-65.864021,-64.352234,-62.124638,-60.221619,-59.633408,-60.803909,-63.402565,-66.496681,-69.030701,-70.34436,-70.446587,-69.913422,-69.500839,-69.717422,-70.597832,-71.770226,-72.727455,-73.111412,-72.855545,-72.154259,-71.339455,-70.766907,-70.752144,-71.520279,-73.122192,-75.332268,-77.617256,-79.267052,-79.679726,-78.65802,-76.516838,-73.890984,-71.330681,-68.942139,-66.33432,-62.943127,-58.536846,-53.554131,-49.011879,-46.005444,-45.113121,-46.099613,-48.115547,-50.242287,-51.985008,-53.360493,-54.541698,-55.379299,-55.244415,-53.407463,-49.73148,-45.136269,-41.353676,-39.950474,-41.155735,-43.28997,-43.322086,-38.398815,-27.526106,-12.385401,3.2857511,15.477244,21.8661,22.836531,20.999653,19.548178,20.458017,23.589172,27.137272,29.043776,28.423456,26.134544,24.216101,24.632889,28.14609,33.964745,40.289211,45.316048,48.072292,48.660103,47.920506,46.856403,46.197666,46.27887,47.138832,48.639938,50.493771,52.248886,53.377373,53.51215,52.715313,51.560169,50.893223,51.36433,53.007477,55.160946,56.807968,57.135849,55.957062,53.727585,51.175697,48.81908,46.710125,44.564274,42.134911,39.517025,37.126938,35.366428,34.239128,33.24477,31.681135,29.1735,26.055849,23.300375,21.991776,22.663853,24.929956,27.659565,29.600843,30.062227,29.238955,28.012905,27.393742,27.973616,29.710852,32.1008,34.531822,36.543953,37.847366,38.189247,37.291698,35.010365,31.641256,28.110561,25.786665,25.880142,28.703384,33.230816,37.296791,38.431583,34.965714,26.855915,15.812367,4.661633,-3.7443795,-7.5699358,-6.5575771,-1.9468644,4.1205311,9.4051609,12.27364,12.104733,9.3413868,5.2364597,1.3971382,-0.73643589,-0.32656211,2.6501138,7.4845109,13.067306,18.317268,22.51219,25.393953,27.055836,27.740524,27.702148,27.200138,26.564692,26.203691,26.468214,27.426479,28.710072,29.592344,29.320524,27.537989,24.536102,21.150021,18.326468,16.607058,15.839628,15.297251,14.130745,11.872445,8.6842394,5.2166305,2.1978216,0.032446351,-1.3442613,-2.3049712,-3.2197001,-4.2333965,-5.2696495,-6.2073393,-7.043427,-7.8817258,-8.7499905,-9.4152937,-9.400506,-8.2638912,-5.9864006,-3.1833301,-0.93137372,-0.24787831,-1.5133706,-4.2073793,-7.1573057,-9.1797352,-9.7324581,-9.1746931,-8.4761906,-8.5681238,-9.7573977,-11.577259,-13.153645,-13.824135,-13.585381,-13.070046,-13.078986,-13.995296,-15.482682,-16.672911,-16.715416,-15.322043,-12.951113,-10.522391,-8.8652515,-8.2657652,-8.3921242,-8.6115427,-8.4537172,-7.8991885,-7.3161283,-7.1231556,-7.4380298,-7.9620271,-8.1677227,-7.6419091,-6.3386545,-4.578999,-2.8229194,-1.3934941,-0.34543359,0.45724827,1.1517993,1.7462546,2.1529651,2.3448684,2.4847934,2.8941624,3.8563156,5.3911023,7.1787391,8.7149801,9.6127758,9.8516045,9.8011951,9.9976444,10.819499,12.277869,14.050677,15.718582,17.024076,17.971975,18.717106,19.345686,19.731298,19.582214,18.645844,16.914787,14.678047,12.379813,10.393328,8.8774185,7.8117361,7.1607757,7.0109773,7.5458016,8.8582544,10.746011,12.674088,13.983692,14.244351,13.523949,12.38453,11.587255,11.686368,12.769565,14.501355,16.416821,18.243858,20.024218,21.961637,24.132837,26.301071,27.995171,28.815157,28.747252,28.249441,28.023136,28.606865,30.056824,31.922976,33.529976,34.37154,34.365887,33.833553,33.256458,33.011471,33.251102,33.959587,35.067924,36.485214,38.012146,39.248329,39.653454,38.813953,36.775043,34.17976,32.031807,31.146624,31.609371,32.622295,32.914673,31.519476,28.436914,24.721357,21.866978,20.827873,21.28511,21.663679,19.952696,14.869979,6.6722651,-2.8900855,-11.454626,-17.233849,-19.800426,-20.035072,-19.338608,-18.663454,-17.998093,-16.603697,-13.78542,-9.6281786,-5.1653981,-1.8441445,-0.63035423,-1.3459893,-2.6865492,-2.9333942,-0.93620574,3.2242908,8.2791815,12.474619,14.50695,14.154427,12.283552,10.28775,9.3236837,9.7754173,11.192778,12.657747,13.315063,12.769003,11.181343,9.0948982,7.1354113,5.7573819,5.1257577,5.1347556,5.5135798,5.9643726,6.2930608,6.5002799,6.7961402,7.5117455,8.9206228,11.043113,13.544664,15.814965,17.223969,17.439983,16.634686,15.440949,14.660011,14.863287,16.108912,17.940731,19.679863,20.845737,21.458654,22.035357,23.263622,25.53351,28.598352,31.579489,33.342491,33.063126,30.684969,27.017042,23.404142,21.128279,20.840988,22.309589,24.593361,26.542572,27.353233,26.898663,25.69368,24.548832,24.12607,24.633924,25.795652,27.06003,27.900576,28.030922,27.447521,26.329231,24.897165,23.326996,21.733431,20.178282,18.644423,16.973244,14.830909,11.78475,7.5065665,2.0137005,-4.2084885,-10.322627,-15.479028,-19.212032,-21.663591,-23.488173,-25.482853,-28.161993,-31.537022,-35.23082,-38.833706,-42.242077,-45.730423,-49.693382,-54.235588,-58.913574,-62.850052,-65.191704,-65.633507,-64.660149,-63.320553,-62.653809,-63.122715,-64.41774,-65.755898,-66.46949,-66.482719,-66.347672,-66.812675,-68.22229,-70.174805,-71.696251,-71.837372,-70.300835,-67.668976,-65.060745,-63.431286,-62.976532,-63.045074,-62.623375,-61.071705,-58.610336,-56.213879,-54.965248,-55.2882,-56.572105,-57.458027,-56.630085,-53.628468,-49.182613,-44.862339,-42.26263,-42.206867,-44.412308,-47.75618,-50.921017,-53.012329,-53.824684,-53.696621,-53.145741,-52.55373,-52.057789,-51.616074,-51.103855,-50.33445,-49.027885,-46.841408,-43.538124,-39.229042,-34.501778,-30.268906,-27.345051,-25.97826,-25.649599,-25.322226,-24.034655,-21.482246,-18.203594,-15.224423,-13.367761,-12.674296,-12.321301,-11.107028,-8.1916895,-3.6129394,1.7543142,6.7476149,10.588838,13.222034,15.112944,16.699406,17.935255,18.297846,17.277721,14.989144,12.41161,11.004565,11.880852,15.071148,19.403811,23.144026,25.024336,25.003319,24.225813,24.158712,25.424099,27.085653,26.899204,22.455816,12.587671,-1.7772909,-17.821156,-32.0065,-41.579437,-45.619274,-45.146107,-42.342747,-39.404491,-37.648075,-37.263676,-37.674923,-38.150871,-38.262592,-37.976246,-37.454205,-36.804047,-35.984608,-34.908329,-33.612663,-32.330505,-31.38496,-30.981768,-31.056746,-31.296938,-31.326719,-30.931662,-30.168596,-29.294392,-28.57406,-28.108858,-27.80233,-27.477299,-27.046635,-26.604029,-26.361998,-26.478359,-26.89819,-27.334845,-27.422209,-26.952181,-26.046721,-25.146734,-24.810953,-25.435339,-27.052973,-29.324837,-31.716791,-33.750603,-35.183743,-36.03014,-36.440796,-36.547924,-36.385696,-35.9338,-35.235603,-34.487129,-34.013084,-34.126919,-34.956512,-36.34729,-37.909595,-39.187862,-39.855701,-39.831364,-39.264778,-38.428886,-37.596268,-36.968685,-36.667652,-36.740158,-37.129704,-37.612926,-37.765137,-37.036144,-34.963047,-31.445324,-26.929014,-22.356012,-18.844032,-17.217875,-17.619221,-19.407959,-21.429657,-22.534416,-22.098083,-20.293915,-17.990601,-16.337355,-16.236887,-17.935774,-20.880308,-23.855473,-25.319843,-23.812948,-18.332775,-8.6189966,4.7046218,20.175783,35.764236,49.350761,59.305729,64.973785,66.858994,66.399788,65.397568,65.332573,66.868004,69.759422,73.185402,76.300911,78.707146,80.590965,82.483482,84.807617,87.502625,89.961388,91.324921,90.961861,88.847778,85.616142,82.245651,79.561378,77.83342,76.694489,75.408104,73.318146,70.217278,66.437683,62.642521,59.468521,57.235153,55.863857,55.003078,54.23447,53.220116,51.735809,49.645309,46.914307,43.704262,40.4739,37.948376,36.866714,37.573448,39.677151,42.032009,43.152454,41.912136,38.166172,32.921768,27.905025,24.716074,24.023962,25.256359,26.967953,27.679729,26.705391,24.49337,22.307402,21.464577,22.60117,25.39262,28.85095,31.961834,34.233887,35.827858,37.234962,38.774956,40.284828,41.212997,41.038025,39.704201,37.760563,36.102676,35.492523,36.178764,37.858337,39.974796,42.115593,44.21442,46.421764,48.761295,50.856678,51.971508,51.380917,48.845398,44.861816,40.4958,36.869114,34.603802,33.556801,32.994087,32.07719,30.350763,27.944073,25.404171,23.317478,21.988855,21.36838,21.217522,21.337299,21.660688,22.144508,22.574659,22.484158,21.30867,18.721767,14.935661,10.741552,7.2145791,5.2243986,5.0283089,6.1856365,7.8417554,9.2090616,9.9606495,10.317319,10.802712,11.840006,13.445339,15.197305,16.484852,16.871428,16.355782,15.383185,14.610759,14.566174,15.387755,16.778597,18.186785,19.105625,19.330812,19.04064,18.662777,18.607618,19.023668,19.722624,20.327465,20.561769,20.498144,20.587214,21.409437,23.271957,25.901058,28.463177,29.968103,29.861156,28.450058,26.860285,26.46896,28.093924,31.406574,34.954044,36.84164,35.729332,31.582624,25.734318,20.205162,16.666018,15.634048,16.348331,17.35622,17.420494,16.189896,14.259041,12.647216,12.083831,12.573572,13.488654,14.066003,13.929202,13.27476,12.629189,12.397031,12.556757,12.730388,12.557932,12.069361,11.741721,12.163641,13.533675,15.368948,16.677746,16.531418,14.676663,11.771165,9.0553322,7.6429477,7.8741617,9.1451349,10.323457,10.478655,9.455575,7.928906,6.922811,7.1275773,8.4640923,10.164278,11.282848,11.276232,10.264305,8.8334217,7.56669,6.6674895,5.9510608,5.1872668,4.4999695,4.4700141,5.8001981,8.7359648,12.655004,16.172373,17.783043,16.690966,13.310682,9.099021,5.7841506,4.4440203,4.990603,6.3637834,7.2881694,7.0910983,6.0546598,5.0965123,5.0289216,5.9280663,7.0640292,7.448503,6.6176262,5.0839591,4.0993619,4.8396778,7.5401077,11.186099,14.028714,14.651011,12.916628,10.155653,8.3924074,9.0246363,11.741243,14.368646,13.808778,7.5911007,-4.8062277,-21.584667,-39.385231,-54.742023,-65.450401,-71.187294,-73.189957,-73.317871,-73.087669,-73.166382,-73.451591,-73.513069,-73.030121,-71.97567,-70.539551,-68.961166,-67.443932,-66.188126,-65.440453,-65.439659,-66.247665,-67.594604,-68.902985,-69.544937,-69.201309,-68.079132,-66.807915,-66.047417,-66.056381,-66.526695,-66.824051,-66.492409,-65.673042,-65.115608,-65.720978,-67.883789,-71.072815,-73.966774,-75.117592,-73.762581,-70.287971,-66.046944,-62.632374,-61.042152,-61.232643,-62.299129,-63.121803,-63.037777,-62.120869,-60.944965,-60.063614,-59.611767,-59.312592,-58.85001,-58.283287,-58.14151,-59.075378,-61.291252,-64.193565,-66.55883,-67.209991,-65.792328,-63.129513,-60.867805,-60.562298,-62.73634,-66.498093,-69.97805,-71.352272,-69.852974,-66.172523,-62.03693,-59.225277,-58.629406,-59.892097,-61.781967,-63.011532,-62.965698,-61.916515,-60.662155,-59.895401,-59.744549,-59.768581,-59.358208,-58.225349,-56.627972,-55.1814,-54.397541,-54.271843,-54.193867,-53.235924,-50.632515,-46.15778,-40.194324,-33.48893,-26.771408,-20.463036,-14.611159,-9.0340376,-3.5485039,1.8614045,7.0103989,11.601426,15.374488,18.244032,20.372663,22.148699,24.054785,26.450191,29.343758,32.279232,34.44236,35.003719,33.567318,30.489241,26.851452,24.041016,23.114346,24.277843,26.781105,29.297771,30.588551,30.075598,28.01683,25.218807,22.507959,20.310177,18.586887,17.115957,15.868266,15.177004,15.559209,17.310349,20.166946,23.297808,25.664349,26.539057,25.860386,24.207521,22.424021,21.138103,20.475058,20.112089,19.595636,18.683916,17.490767,16.364904,15.621387,15.323178,15.248716,15.036693,14.384414,13.16623,11.424297,9.2856321,6.8968654,4.421597,2.0662851,0.064236358,-1.41337,-2.3700941,-3.0247045,-3.7197881,-4.7376881,-6.1457353,-7.7862606,-9.4242392,-10.940088,-12.407413,-13.974145,-15.62227,-16.998991,-17.491232,-16.552841,-14.097507,-10.685261,-7.3352942,-5.0367622,-4.2431879,-4.6700487,-5.5308652,-6.0599933,-5.9748082,-5.5674815,-5.3703604,-5.6400189,-6.0432754,-5.7995248,-4.216701,-1.266997,2.2111471,4.8731289,5.6090307,4.2150598,1.5620207,-0.87080455,-1.8318862,-1.0036051,0.84361482,2.3303361,2.2767749,0.35277459,-2.7959366,-5.9702349,-8.0832443,-8.6500483,-7.8426404,-6.1604223,-4.0103884,-1.5129778,1.3503571,4.4015236,7.0443392,8.3830013,7.6616688,4.7625527,0.42799106,-3.9767373,-7.062417,-8.0516214,-7.0959883,-5.1068048,-3.2146935,-2.1799002,-2.0804691,-2.418745,-2.5314631,-2.0242674,-0.9698016,0.21668972,1.1012889,1.5207214,1.6518042,1.8384427,2.3169398,3.0366092,3.6936131,3.9422905,3.6282475,2.8805618,2.0068827,1.2775294,0.76232904,0.34273976,-0.10968699,-0.52650362,-0.57867897,0.16388527,1.9282891,4.4871731,7.1488309,9.0384779,9.5336504,8.604269,6.8478622,5.1852937,4.385498,4.6913252,5.7553806,6.9039526,7.5495181,7.493113,6.9443932,6.2793365,5.7249851,5.1967521,4.3968129,3.0947406,1.3824425,-0.28824264,-1.3273188,-1.3502493,-0.41852894,0.98331279,2.2234225,2.8766108,2.9354184,2.7548318,2.7811985,3.2493291,4.0396519,4.7721906,5.0586748,4.742311,3.9798498,3.1344795,2.5666175,2.4558642,2.7431509,3.1931887,3.5128825,3.4592233,2.9130166,1.9310309,0.78180063,-0.069366857,-0.081748098,1.119673,3.466449,6.299099,8.5056286,8.9681425,7.1431298,3.4666483,-0.68897837,-3.5640407,-3.8346548,-1.2903705,3.0147815,7.2540736,9.7306948,9.7265463,7.8539243,5.7324429,5.1725321,7.2972245,12.042112,18.250469,24.263296,28.670942,30.855259,31.103506,30.31012,29.468899,29.214945,29.604527,30.184818,30.279613,29.347647,27.26342,24.411278,21.553339,19.516973,18.826603,19.446796,20.774858,21.915098,22.120962,21.183044,19.543242,18.047857,17.454105,17.960995,19.044361,19.716249,19.083389,16.893442,13.749035,10.854431,9.4339781,10.160518,12.931056,17.120152,22.14979,28.01446,35.415417,45.385105,58.588261,74.690285,92.164696,108.67961,121.89331,130.27505,133.56711,132.70616,129.30347,124.98553,120.91621,117.6694,115.40248,114.12874,113.87987,114.67208,116.34821,118.45897,120.31641,121.23062,120.81108,119.16145,116.85192,114.67764,113.3267,113.12054,113.9361,115.31585,116.68241,117.54848,117.64825,116.97777,115.77037,114.43343,113.44792,113.22408,113.9312,115.36742,116.95937,117.94732,117.71723,116.13781,113.71741,111.45801,110.43221,111.26888,113.80566,117.10196,119.82758,120.84536,119.70166,116.78433,113.08134,109.67524,107.23265,105.73144,104.5329,102.7327,99.605247,94.940269,89.146935,83.113136,77.899017,74.383308,72.975739,73.478233,75.137489,76.881851,77.676094,76.872086,74.412399,70.787453,66.7519,62.92868,59.499043,56.143833,52.269207,47.39043,41.453075,34.904488,28.473326,22.786367,18.044382,13.937183,9.8306732,5.1008959,-0.58200228,-7.1635656,-14.320198,-21.669754,-28.934956,-35.979752,-42.742363,-49.153629,-55.115906,-60.547722,-65.436958,-69.841316,-73.829796,-77.421417,-80.589737,-83.347527,-85.847572,-88.400497,-91.358078,-94.913231,-98.948921,-103.05719,-106.74168,-109.68299,-111.88718,-113.60651,-115.08043,-116.28315,-116.87585,-116.42616,-114.76183,-112.20823,-109.51362,-107.46812,-106.43932,-106.12842,-105.7289,-104.41771,-101.88889,-98.600487,-95.575928,-93.871292,-94.018593,-95.757965,-98.187729,-100.21683,-101.0533,-100.48458,-98.860382,-96.858749,-95.195114,-94.398651,-94.69236,-95.955132,-97.75132,-99.448753,-100.44365,-100.44247,-99.663612,-98.80352,-98.715523,-99.93364,-102.31382,-105.04304,-107.0621,-107.67772,-106.98495,-105.80833,-105.16422,-105.56758,-106.63334,-107.25706,-106.29349,-103.32036,-99.001022,-94.799805,-92.20816,-91.94532,-93.607986,-95.955902,-97.627609,-97.837074,-96.654358,-94.767357,-92.949989,-91.609108,-90.673248,-89.821167,-88.82386,-87.736687,-86.829445,-86.349625,-86.321899,-86.528053,-86.653145,-86.458839,-85.848831,-84.807884,-83.316498,-81.360878,-79.056488,-76.770958,-75.090073,-74.571449,-75.406685,-77.225471,-79.21846,-80.55011,-80.818115,-80.255333,-79.524742,-79.232513,-79.487564,-79.816101,-79.499184,-78.103348,-75.830147,-73.428703,-71.719597,-71.055756,-71.09774,-71.06572,-70.296066,-68.714676,-66.895462,-65.664955,-65.535355,-66.369789,-67.516258,-68.308334,-68.562363,-68.697159,-69.370766,-70.882713,-72.778038,-73.971634,-73.361053,-70.549828,-66.201057,-61.758369,-58.67083,-57.578789,-57.950821,-58.388908,-57.417076,-54.29089,-49.375664,-43.915623,-39.370743,-36.71637,-36.070984,-36.789383,-37.892521,-38.558262,-38.428764,-37.641991,-36.651772,-35.974354,-35.977337,-36.760746,-38.130409,-39.653385,-40.791157,-41.094158,-40.402245,-38.960064,-37.366009,-36.343903,-36.424683,-37.690235,-39.714413,-41.740273,-43.010239,-43.088936,-42.027916,-40.307415,-38.598965,-37.466778,-37.136063,-37.412632,-37.771709,-37.574814,-36.33448,-33.930298,-30.687895,-27.272669,-24.421047,-22.61342,-21.841759,-21.601578,-21.135633,-19.820858,-17.498175,-14.561264,-11.748407,-9.7520456,-8.8705177,-8.9026003,-9.3379059,-9.7142649,-9.9128027,-10.206337,-11.038465,-12.683342,-15.008805,-17.493208,-19.481129,-20.515165,-20.545008,-19.906115,-19.110266,-18.595083,-18.576624,-19.052624,-19.894978,-20.927422,-21.93302,-22.625814,-22.672838,-21.817583,-20.057941,-17.749672,-15.515794,-13.954933,-13.288389,-13.163535,-12.771708,-11.263993,-8.2597303,-4.1609254,-0.069092222,2.6914232,3.2266784,1.5879037,-1.098242,-2.9400046,-1.8853973,3.6352642,14.264326,29.586546,48.293308,68.532158,88.313972,105.88053,119.97661,130.00031,136.02191,138.6796,138.9825,138.07295,137.00262,136.56195,137.17863,138.88739,141.37497,144.10786,146.53516,148.31944,149.50681,150.54135,152.08585,154.70973,158.59315,163.40778,168.44864,172.9503,176.41042,178.7408,180.1769,181.03236,181.48077,181.51479,181.09392,180.34373,179.6207,179.34845,179.70689,180.38652,180.61093,179.47047,176.40204,171.53448,165.68103,159.96637,155.29771,151.98141,149.6916,147.77869,145.70631,143.35065,141.00952,139.16557,138.19102,138.18456,139.00792,140.43892,142.29027,144.39796,146.51021,148.20358,148.94504,148.3109,146.24611,143.19427,139.98949,137.53828,136.44354,136.7567,137.97479,139.27301,139.85638,139.27657,137.59338,135.33279,133.26645,132.09404,132.14314,133.20769,134.61,135.48322,135.15331,133.41383,130.50418,126.75034,122.04578,115.51019,105.6356,90.986191,71.168465,47.544525,23.199389,2.0205796,-12.764068,-19.898075,-20.581907,-17.858856,-15.201321,-15.017951,-17.82272,-22.417789,-26.874739,-29.689325,-30.462799,-29.816359,-28.734432,-27.848612,-27.136341,-26.171131,-24.66786,-22.880554,-21.544008,-21.395384,-22.623081,-24.651646,-26.444017,-27.143547,-26.633602,-25.630367,-25.222364,-26.134052,-28.181334,-30.278982,-31.020266,-29.49272,-25.843801,-21.257734,-17.355299,-15.365761,-15.542574,-17.137327,-18.913803,-19.878649,-19.802921,-19.256407,-19.173588,-20.236359,-22.444153,-25.110924,-27.268486,-28.223412,-27.938475,-27.024578,-26.35997,-26.566715,-27.650261,-29.008549,-29.801582,-29.463291,-28.053411,-26.235996,-24.886005,-24.545004,-25.045782,-25.540628,-24.942251,-22.544388,-18.472826,-13.699857,-9.5958633,-7.2550917,-6.9649286,-8.1094885,-9.5522213,-10.273036,-9.9002323,-8.8536406,-8.0500479,-8.3713017,-10.209935,-13.329395,-17.067266,-20.710485,-23.801439,-26.222399,-28.074749,-29.497808,-30.576801,-31.384226,-32.073471,-32.897564,-34.092812,-35.692127,-37.4161,-38.759228,-39.259335,-38.798523,-37.737804,-36.775089,-36.585712,-37.445824,-39.057922,-40.681225,-41.493286,-40.98241,-39.168125,-36.557884,-33.895973,-31.853779,-30.807737,-30.774551,-31.485798,-32.536491,-33.543667,-34.274078,-34.714783,-35.062744,-35.620758,-36.624557,-38.077724,-39.694321,-41.007996,-41.607124,-41.35968,-40.474434,-39.339298,-38.232838,-37.114403,-35.668716,-33.611031,-31.054205,-28.649988,-27.33032,-27.74114,-29.708805,-32.125771,-33.422451,-32.423386,-29.101503,-24.748215,-21.394875,-20.77169,-23.389736,-28.279907,-33.53862,-37.34919,-38.873138,-38.509411,-37.42963,-36.745052,-36.858643,-37.387386,-37.633976,-37.223244,-36.437534,-36.026268,-36.647541,-38.355331,-40.503288,-42.136608,-42.603813,-41.975342,-40.997429,-40.627224,-41.464504,-43.437401,-45.903519,-48.046436,-49.279575,-49.416725,-48.571041,-46.938782,-44.669441,-41.906166,-38.911346,-36.114647,-33.994022,-32.856823,-32.692047,-33.2234,-34.135181,-35.296314,-36.797588,-38.761646,-41.076195,-43.284012,-44.761074,-45.092766,-44.385231,-43.265335,-42.532013,-42.677097,-43.603088,-44.738171,-45.467991,-45.573395,-45.356693,-45.367714,-45.939327,-46.888241,-47.616985,-47.55146,-46.589664,-45.217434,-44.188351,-43.990688,-44.491291,-45.025002,-44.873989,-43.793732,-42.206524,-40.927753,-40.632435,-41.452824,-42.986004,-44.671085,-46.216305,-47.732883,-49.482124,-51.467476,-53.242207,-54.137684,-53.769478,-52.424278,-50.985126,-50.39357,-51.021404,-52.431847,-53.744053,-54.356686,-54.484287,-55.064568,-57.056435,-60.633369,-64.908089,-68.470825,-70.418808,-71.143799,-72.256622,-75.617493,-82.097816,-90.937233,-100.17683,-107.89696,-113.40459,-117.53706,-121.87989,-127.48727,-134.06093,-140.20073,-144.52962,-146.81743,-148.20792,-150.32967,-153.95134,-158.24725,-161.32492,-161.69977,-159.60736,-157.05928,-156.44148,-158.60681,-161.94853,-163.36717,-160.66878,-154.71481,-149.53386,-149.83916,-157.24405,-167.66727,-172.02927,-160.43724,-127.77402,-77.439934,-20.80805,27.639227,56.967224,64.599358,56.696545,44.101936,36.369534,37.321693,44.417862,51.779869,54.582142,51.971413,46.93623,43.657597,44.41946,48.200462,51.718113,51.967918,48.372921,43.085674,39.366291,39.287182,42.389217,46.150455,47.828411,46.325958,42.80558,39.719952,39.034584,40.920391,43.785221,45.532318,45.091064,43.132175,41.506252,41.856339,44.409519,