Bandpass,0,0.16541,-494.05026,4184.9302,6161,5091.8911,2054.0378,-902.26398,-2033.9156,-1015.5872,957.14795,2131.302,1497.7374,-519.74274,-2454.5017,-2929.5972,-1671.8876,327.24551,1583.8834,1221.489,-418.5936,-2080.3831,-2549.3896,-1536.0254,154.42366,1257.6532,992.89868,-388.47409,-1830.9283,-2279.0125,-1446.5853,7.7143378,1000.2345,828.10297,-337.88824,-1617.3436,-2091.5867,-1470.4922,-270.3078,603.29132,534.57227,-368.2059,-1388.8214,-1758.1505,-1221.7813,-204.28377,531.81628,460.10361,-333.23911,-1237.6031,-1586.2922,-1146.1781,-269.77249,386.95389,356.23221,-308.3916,-1093.774,-1421.4888,-1072.48,-330.9071,245.39313,243.88792,-308.25433,-983.58789,-1284.0438,-1007.4077,-381.60355,120.8539,138.61317,-319.71777,-898.24768,-1168.8512,-946.62921,-413.80099,29.760265,67.949638,-305.08881,-795.44019,-1038.5508,-869.74554,-436.42896,-76.744247,-63.486736,-406.33215,-854.55603,-1089.8531,-960.45093,-583.92279,-249.35812,-198.96072,-453.65775,-808.03168,-990.86639,-866.8728,-530.47552,-227.74561,-170.73979,-384.2731,-695.52264,-867.99658,-776.12128,-491.58896,-222.4725,-155.89763,-323.03784,-583.69531,-736.36334,-668.06238,-433.08789,-206.4631,-151.43977,-301.14688,-539.72687,-692.21777,-653.12872,-458.88821,-254.52153,-183.90454,-286.76666,-476.45132,-610.08569,-595.23419,-453.68201,-298.46191,-245.74455,-329.46863,-480.89362,-584.47516,-565.05969,-440.90646,-305.60962,-256.11816,-322.67215,-451.97754,-552.81366,-566.49561,-508.05911,-448.61572,-454.95526,-534.26385,-626.51282,-649.87897,-564.22632,-404.44202,-258.44409,-206.05067,-263.57159,-374.15204,-449.91501,-434.41217,-340.22186,-235.90662,-193.82048,-237.84695,-328.49954,-394.29962,-384.65994,-305.18417,-210.81801,-163.86179,-188.8716,-257.15509,-310.55386,-305.28625,-243.03497,-167.3363,-129.60922,-151.04027,-208.32103,-252.56181,-246.10857,-189.63876,-120.22794,-83.065918,-98.534752,-148.73033,-192.25748,-195.16852,-154.7636,-99.295891,-65.010307,-68.441429,-94.558739,-108.85169,-83.575417,-18.4011,59.433857,114.86721,129.61116,113.68157,96.17318,102.9604,138.11212,182.32489,208.69695,203.52718,176.68564,154.32504,159.82944,197.20772,248.83116,288.61722,300.62961,289.61975,276.3949,282.03909,312.73883,355.93475,389.92953,399.45294,385.9101,365.4537,357.00018,369.22241,395.64557,420.64612,431.3046,426.33408,416.01181,413.80753,426.16904,447.75259,465.10168,465.78317,446.55771,415.34882,386.28268,371.47491,374.68802,390.02313,405.37006,407.94257,389.10162,347.12686,287.996,224.49831,173.50519,151.13643,166.65317,217.55305,288.98071,359.00928,408.06689,427.8179,424.43814,414.13882,413.39832,429.67566,458.11124,485.90933,501.22467,500.6622,490.71469,482.68289,484.92178,497.74435,514.13898,525.30621,526.84442,521.32452,515.83319,516.6568,525.0661,537.03149,546.67236,550.61578,550.04895,549.2063,551.7428,557.888,564.47955,567.6795,566.16058,562.29938,560.5083,564.01776,572.5321,582.46722,589.52924,591.70587,590.51929,589.73474,592.56689,599.43317,607.79163,614.03461,615.97577,614.16815,611.25104,609.9624,611.31085,614.13928,616.22089,615.95923,613.46259,610.33759,608.4931,608.85669,610.82092,612.63635,612.35443,608.70782,601.52948,591.68866,580.73547,570.43439,562.26154,556.93787,554.17029,552.81482,551.50031,549.42017,546.78021,544.53821,543.55939,543.80042,544.19055,543.38959,540.88544,537.54126,535.05817,534.69537,536.28687,538.4884,540.22736,542.20502,546.97937,557.07837,572.24213,588.00684,597.35522,595.09198,582.26276,567.12915,560.91443,570.00311,589.28918,601.65613,585.4223,526.61951,429.28125,317.13477,224.52953,180.67891,195.55006,255.23209,329.44153,386.98083,410.56311,403.06909,382.54178,369.7626,376.14325,398.73849,424.32858,438.96936,436.5864,421.56265,404.56744,395.13113,396.0304,402.73874,407.55463,405.08771,395.367,382.89664,372.88226,367.57068,365.18829,361.88522,354.9726,345.01828,335.38596,329.70377,329.15854,331.52292,332.53854,328.6636,319.33347,307.28549,296.80386,291.05713,290.2038,291.3876,290.54922,284.90338,274.59393,262.58295,252.89067,248.25298,248.56981,251.03113,251.81169,248.30081,240.51385,230.83652,222.29465,216.50223,212.67865,208.43829,201.82622,193.11879,184.94225,180.38512,180.30547,181.87718,179.83194,170.03439,153.13017,135.43828,125.69201,128.98621,141.61333,150.63513,139.56583,97.718361,27.979506,-51.99411,-116.72045,-144.78098,-129.28331,-81.04361,-22.677532,23.003872,43.712883,41.706367,29.503252,20.649641,21.518633,28.92403,34.257694,30.678495,18.265785,3.8593316,-3.8822889,-0.51546222,11.218536,23.29458,27.60034,20.777422,5.5973773,-11.655203,-25.607767,-34.873466,-41.893353,-50.121246,-60.932919,-72.578766,-81.768692,-86.457832,-87.589828,-88.470276,-92.311363,-99.874229,-109.02292,-116.53509,-120.8165,-123.50397,-128.76276,-140.75064,-160.99174,-187.39461,-215.43381,-240.53651,-260.03864,-273.60818,-282.26874,-287.11392,-288.7941,-287.99545,-286.18134,-285.62714,-288.42761,-295.13385,-304.14929,-312.54453,-317.87622,-319.75607,-320.01291,-321.29562,-325.1373,-330.93076,-336.59125,-340.39105,-342.52454,-345.13358,-350.69519,-359.96762,-371.10406,-380.71725,-386.19995,-387.59262,-387.54147,-389.27527,-394.03442,-399.87668,-402.83698,-399.70209,-390.42654,-378.41214,-368.39185,-363.40814,-363.05508,-364.24167,-363.87314,-361.41711,-359.39264,-361.37451,-368.99896,-380.27899,-390.63004,-396.00955,-395.93915,-394.14349,-396.17377,-405.53842,-420.97778,-436.7782,-445.94437,-444.12338,-431.76016,-413.30383,-394.35013,-378.86761,-368.25385,-362.32101,-360.78226,-363.6232,-370.01434,-377.05255,-380.15588,-375.76062,-364.87091,-354.67639,-356.17728,-378.34451,-422.08249,-478.0701,-530.53406,-565.24719,-577.02399,-571.91351,-562.46582,-558.93365,-562.08344,-562.43323,-546.62634,-506.93549,-447.70905,-384.42963,-335.77567,-313.57016,-316.81393,-333.31436,-347.56317,-349.70901,-340.13358,-327.32306,-321.15173,-326.38293,-340.50867,-356.71381,-369.2291,-377.03726,-383.51984,-392.80087,-405.88522,-419.58997,-428.96155,-431.18259,-427.90411,-424.21371,-425.02994,-431.63544,-440.91089,-447.77487,-448.95044,-445.24951,-440.75156,-439.61612,-443.01144,-448.46658,-452.02972,-451.4425,-447.79337,-444.36591,-443.67358,-445.17657,-445.68546,-442.27921,-435.379,-429.21243,-428.77844,-435.30164,-443.84061,-445.67123,-434.73068,-414.01398,-396.94125,-401.39194,-438.90933,-505.39304,-579.64465,-631.93256,-638.66272,-595.0741,-518.4632,-439.67798,-387.45456,-374.40244,-392.42258,-419.66846,-434.33539,-426.7962,-403.11835,-378.69025,-366.84677,-370.13794,-379.64142,-382.14536,-369.85623,-345.86951,-321.76831,-309.18619,-311.29605,-320.23932,-322.49649,-308.80099,-281.98996,-257.28476,-254.2207,-284.78049,-344.84439,-414.25983,-465.79492,-478.09918,-445.6113,-380.31616,-304.97534,-242.04506,-204.32774,-191.72723,-194.63254,-200.9043,-202.14194,-196.2325,-185.89828,-175.22597,-166.74498,-160.54608,-155.24582,-149.50975,-142.90742,-135.74686,-128.4082,-120.92931,-113.16269,-105.21316,-97.621109,-91.040474,-85.67041,-80.966476,-75.948112,-69.921082,-63.074131,-56.494804,-51.604271,-49.458065,-50.424187,-54.390068,-61.175549,-70.656975,-82.396111,-95.080536,-106.36926,-113.51149,-114.5008,-109.01836,-98.454155,-84.914383,-69.88694,-53.545177,-35.229992,-14.746163,6.5824661,26.058886,41.045631,50.730858,56.880379,62.844452,71.339676,82.503159,93.654877,101.06353,102.57138,99.247665,94.869354,93.572563,97.370651,105.36112,115.18193,125.50438,137.4063,153.16588,172.98853,192.04575,200.51837,187.63728,147.97163,86.259979,17.380623,-39.319893,-68.700104,-66.787376,-42.036419,-10.073523,15.091996,28.337019,35.043674,46.307091,70.741325,107.81994,146.67384,171.01514,167.33458,131.78299,72.069359,3.6158955,-57.66563,-101.99287,-128.39058,-142.44942,-150.86621,-156.03792,-153.74272,-135.1577,-92.128387,-22.886805,64.88221,155.48882,230.86421,277.89737,293.97858,287.89835,275.39478,271.31888,282.24094,303.29343,320.98849,320.63052,294.43207,245.98076,188.66039,138.97357,108.54611,99.253464,103.98012,112.16199,116.49597,116.71503,118.37107,127.81747,146.95117,171.26973,192.47345,203.76611,204.21706,199.22081,196.75159,201.96356,213.80692,225.96007,231.43533,227.68904,218.67503,212.32185,215.04121,226.99409,241.49179,249.2618,245.0567,232.35883,222.90543,230.87608,264.91425,322.62027,390.83295,451.70428,491.25726,505.73843,502.38596,494.38409,492.93301,500.79749,510.74997,509.65106,486.00317,437.1322,372.39444,310.71875,273.40424,275.25735,317.97675,388.85403,465.64655,525.73816,555.59338,556.07343,540.86798,528.54016,532.01965,551.01984,571.6875,574.12964,544.10974,482.59549,407.62177,346.9274,324.91046,350.75177,414.06439,490.34167,553.09222,586.00024,588.75342,574.07867,558.58759,553.2428,558.81622,568.15485,572.78973,569.10876,560.22302,552.92273,552.41467,558.72284,567.10059,571.81537,570.36163,565.06708,561.09912,562.4953,569.16974,577.01862,580.9425,578.52234,571.69305,565.26947,563.46014,566.9021,572.30212,574.85706,571.64819,563.57758,554.54077,548.54462,546.91895,547.61035,546.96735,542.59723,535.15155,527.75848,523.60956,523.57275,525.64276,526.61554,524.66565,520.80621,518.05823,518.92169,523.0979,527.2962,527.41833,521.56097,511.53271,501.58432,495.13867,491.95871,488.09079,478.98529,463.71826,447.03888,437.10733,439.7113,452.54724,463.79495,456.97537,420.14587,354.33011,275.84698,210.33716,181.04539,197.47134,250.59428,317.35599,371.9567,397.81512,393.89499,372.53018,350.74411,340.4791,343.21796,351.39682,354.82791,347.64346,331.51904,313.70767,301.78085,298.79755,301.92496,304.99753,302.91348,294.79648,283.97791,275.15652,270.95227,270.2767,269.48721,265.27625,257.0997,247.41266,239.65219,235.55235,233.82039,231.15457,224.82579,214.86433,204.15889,196.31429,192.81607,191.65662,188.58977,180.2549,166.92496,152.72643,142.89607,139.84167,140.86868,139.51431,129.9666,111.67522,90.709579,76.287682,74.14045,80.880524,83.504669,65.32399,15.587362,-62.638245,-151.30338,-224.33107,-259.45325,-248.7404,-202.20506,-142.6344,-94.588524,-73.492271,-80.321144,-103.94752,-128.94604,-144.03252,-146.65918,-142.06505,-138.3974,-141.39536,-151.69511,-165.70139,-178.70613,-187.89708,-193.48465,-197.71533,-202.89525,-209.90663,-218.04279,-225.94508,-232.75523,-238.65616,-244.56812,-251.38481,-259.35818,-268.00922,-276.51129,-284.19467,-290.82025,-296.49683,-301.3696,-305.33017,-307.95618,-308.74469,-307.54349,-304.96237,-302.50262,-302.21878,-305.93719,-314.34213,-326.43094,-339.7598,-351.50146,-359.81097,-364.69669,-367.80496,-371.19421,-375.8916,-381.25449,-385.65161,-388.01184,-389.04999,-391.0817,-396.33209,-404.87448,-413.86517,-419.01859,-417.65387,-411.24551,-405.36163,-406.45697,-417.28098,-434.06009,-447.92154,-450.40198,-439.92157,-424.85986,-420.46844,-440.57056,-488.57019,-553.31537,-612.91785,-645.01343,-637.96375,-596.69049,-539.82953,-489.90759,-462.22183,-458.60492,-469.07669,-479.59119,-480.70532,-472.01187,-460.33667,-453.76947,-455.92932,-464.12933,-472.08209,-474.68353,-471.31403,-465.54535,-461.9137,-462.46167,-465.68283,-468.51297,-469.65717,-471.54672,-479.26706,-497.06616,-524.87738,-557.35986,-586.24866,-604.54578,-609.85962,-604.83087,-594.58606,-583.10455,-570.96997,-555.862,-535.18787,-508.83258,-480.05743,-453.96893,-434.685,-423.14893,-416.99191,-412.38004,-406.47504,-398.8591,-391.13458,-385.22479,-381.73007,-379.50558,-376.64136,-371.99649,-366.099,-360.75735,-357.70334,-357.2774,-358.10666,-357.99216,-355.37299,-350.3562,-344.6384,-340.41339,-339.02209,-340.2132,-342.42337,-343.79971,-343.25412,-340.9064,-337.74484,-334.84705,-332.72403,-331.17444,-329.63959,-327.72458,-325.50443,-323.44403,-322.04956,-321.52542,-321.66043,-321.9787,-322.02023,-321.56699,-320.70737,-319.74698,-319.04504,-318.85541,-319.21411,-319.89368,-320.4454,-320.34662,-319.22708,-317.07977,-314.32138,-311.61768,-309.52356,-308.12888,-306.94186,-305.12552,-301.98383,-297.41205,-292.01593,-286.7937,-282.55597,-279.44403,-276.86365,-273.89203,-269.90469,-265.01248,-260.01303,-255.87682,-253.10156,-251.36633,-249.72621,-247.22942,-243.54935,-239.2019,-235.18797,-232.28667,-230.47159,-228.85765,-226.24341,-221.91388,-216.1776,-210.26428,-205.61543,-203.0006,-202.02077,-201.32761,-199.4346,-195.61446,-190.31714,-184.84654,-180.5097,-177.79048,-176.08038,-174.13063,-170.91481,-166.32137,-161.21036,-156.79636,-153.77727,-151.80884,-149.70306,-146.24393,-141.08542,-135.11662,-130.00885,-127.19659,-126.93657,-128.07309,-128.70845,-127.40038,-124.15034,-120.54277,-118.89838,-120.90662,-126.53606,-133.87659,-140.03464,-142.59279,-140.82481,-135.99695,-130.60046,-126.94194,-125.84856,-126.15794,-125.23392,-120.22514,-109.43617,-93.16317,-73.63253,-54.107338,-37.587799,-25.679489,-18.099428,-12.997821,-7.9243512,-1.002937,8.1992121,18.481169,27.570274,33.178375,34.081135,30.751089,25.289448,20.720592,19.977711,24.998016,36.237637,52.696686,72.338295,92.688522,111.4236,126.82948,138.08145,145.3156,149.47459,151.95316,154.14609,157.06638,161.18616,166.53893,172.9693,180.32979,188.47977,197.11198,205.59544,213.04825,218.69727,222.34377,224.612,226.7422,229.97258,234.85551,240.9483,247.11479,252.282,256.17569,259.54227,263.6828,269.58044,277.18484,285.3273,292.33063,296.92178,298.86923,298.97079,298.47116,298.36252,299.05615,300.59058,303.10858,307.1196,313.23782,321.52808,330.9704,339.56604,345.20633,346.8688,345.38937,343.23624,343.30032,347.35156,355.06146,364.18518,371.80396,375.89526,376.31686,374.67331,373.22174,373.5321,375.70685,378.56082,380.5506,380.81458,379.68649,378.43225,378.4527,380.48315,384.2536,388.74139,392.78952,395.69229,397.43842,398.54636,399.65973,401.16263,403.00943,404.81616,406.12579,406.69534,406.66345,406.51962,406.8808,408.17032,410.35638,412.90451,415.00861,416.01221,415.79532,414.88223,414.16354,414.3606,415.54724,417.04678,417.80731,417.05286,414.80615,411.93521,409.66788,408.86566,409.51483,410.75601,411.42282,410.72574,408.63782,405.75842,402.80292,400.11609,397.56155,394.83737,391.9324,389.32819,387.74927,387.6279,388.69806,390.06876,390.77893,390.45856,389.60156,389.20789,390.01178,391.8457,393.63586,394.09625,392.67191,390.05685,387.86206,387.5874,389.5629,392.59625,394.62061,393.96152,390.40024,385.31583,380.79166,378.2674,377.63058,377.35007,375.55179,371.30121,365.22632,359.07367,354.5242,352.09064,350.84235,349.11221,345.65894,340.46054,334.60611,329.41223,325.44318,322.16492,318.47955,313.7258,308.37265,303.84891,301.58295,301.92606,303.75177,305.06732,304.25143,301.06635,296.72244,292.92517,290.55884,288.93896,286.1929,280.54712,271.65485,261.04181,251.32964,244.72174,241.73575,241.00021,240.21544,237.60893,232.9198,227.3125,222.37595,218.97192,216.74162,214.55431,211.48515,207.54863,203.63849,200.75081,199.11714,197.93913,195.94762,192.36739,187.53915,182.69438,179.01797,176.69507,174.68265,171.4278,166.04018,159.05537,152.18982,147.2171,144.75742,143.8674,142.75233,140.0966,136.0294,131.98619,129.53603,129.03297,129.12378,127.5443,122.68452,114.7965,105.93343,98.613167,94.145531,91.838371,89.669769,85.921982,80.529457,75.080276,71.426636,69.961975,68.957718,65.611259,58.140858,47.360283,36.417004,28.687361,25.268476,23.974701,20.780003,12.847006,0.95595354,-10.637186,-17.120277,-16.896263,-13.366958,-13.037628,-20.848583,-35.912468,-51.045429,-57.190262,-50.385994,-36.66964,-30.973505,-49.597099,-100.10526,-174.7243,-251.8067,-305.36926,-317.80176,-288.67514,-234.63278,-180.45869,-146.4893,-139.46881,-151.61787,-167.62819,-174.70506,-169.4348,-157.79031,-149.17249,-149.01233,-154.91376,-158.56122,-151.66603,-131.72211,-103.79023,-77.401604,-60.899326,-56.982796,-62.099354,-69.603394,-74.216148,-74.801239,-73.964005,-75.271523,-80.350365,-87.865898,-94.799835,-98.785965,-99.703522,-99.528069,-100.85478,-105.42516,-113.76663,-125.97823,-142.68192,-165.03378,-193.53667,-226.52573,-259.68161,-287.3277,-304.98495,-311.63998,-310.21552,-305.85428,-303.06863,-303.55936,-306.02338,-307.89526,-307.66531,-306.09897,-305.55081,-307.97754,-313.1962,-318.73679,-321.46497,-319.85187,-315.27588,-311.39926,-311.99475,-318.65729,-329.89038,-342.09567,-351.71521,-357.07782,-358.82779,-358.8808,-358.85431,-359.15872,-359.29257,-358.90057,-358.5835,-359.7113,-363.35043,-369.18484,-375.37918,-379.63095,-380.72327,-379.43817,-378.10052,-379.00735,-382.83417,-388.16269,-392.47998,-393.92999,-392.54642,-390.07687,-388.55478,-388.71185,-389.44791,-388.77924,-385.55576,-380.62109,-376.46951,-375.569,-378.55151,-383.62933,-387.73615,-388.61996,-386.38086,-383.31409,-382.15216,-383.99496,-387.47858,-389.83102,-389.04507,-385.51617,-381.84314,-380.8511,-383.28134,-386.94312,-388.11682,-384.32224,-376.45212,-368.59207,-365.45197,-369.10089,-377.32333,-384.87671,-386.90512,-382.18289,-373.89966,-367.38687,-366.36118,-370.35413,-375.18652,-376.16003,-371.64029,-364.35629,-359.35403,-359.99344,-364.90149,-368.23669,-363.31552,-347.21127,-323.12698,-298.79611,-281.89993,-275.57364,-277.01355,-280.01147,-279.48886,-274.7551,-269.2446,-267.13651,-269.57825,-273.49545,-273.95804,-268.27802,-258.55606,-250.45911,-248.90135,-253.89169,-260.05405,-260.82166,-254.70045,-248.91843,-256.96127,-290.44791,-349.97037,-420.99246,-478.36902,-497.89172,-468.69275,-399.37772,-314.16599,-241.08366,-198.81461,-189.38455,-200.1606,-213.1088,-215.30989,-204.67726,-188.37265,-176.08058,-173.09241,-177.53032,-182.7865,-182.7451,-175.88799,-165.67323,-157.44012,-154.43806,-155.87238,-158.13023,-157.98991,-155.31738,-153.31253,-156.22838,-166.25185,-181.7039,-197.69177,-208.66486,-211.18071,-205.27167,-193.89209,-181.15283,-170.58055,-164.25572,-162.84328,-165.93663,-172.18752,-179.21841,-183.77881,-182.56804,-173.61855,-157.5441,-137.80853,-119.63394,-107.95376,-105.39902,-111.29827,-122.10253,-132.90147,-139.23439,-138.42894,-130.09662,-115.85083,-98.547089,-81.343185,-66.793137,-56.159611,-49.151798,-44.244652,-39.518677,-33.656281,-26.562489,-19.233568,-12.945078,-8.291255,-4.7398262,-1.0305076,3.8555365,9.8674374,15.84555,20.360716,22.856693,24.242588,26.430901,31.06966,38.339848,46.705284,53.86541,58.300701,60.33831,61.955502,65.407173,71.603607,79.37442,86.162247,89.700951,89.538383,87.362068,85.910606,87.228592,91.460403,96.977615,101.6882,104.56171,106.29342,108.68385,113.24046,120.04331,127.68231,134.26572,138.71953,141.41884,143.7243,146.83266,150.85263,154.81998,157.62036,159.07112,160.27043,162.8766,167.81763,174.41661,180.66484,184.54381,185.49071,184.93053,185.41505,188.89955,195.3394,202.61713,207.90901,209.59264,208.39349,206.96681,208.17339,213.19896,220.77003,227.96635,232.05322,232.09885,229.3441,226.18486,224.56718,224.92944,226.34932,227.64172,228.47873,229.63992,232.20299,236.3174,240.55479,242.4407,239.92244,232.83173,223.34891,215.11032,211.47441,213.98131,221.8694,232.80154,244.21184,254.39864,262.80817,269.58502,274.94293,278.90857,281.57397,283.5145,285.87106,289.86713,296.01572,303.58481,310.78259,315.65897,317.21988,316.07092,314.17072,313.81381,316.42352,321.83588,328.45261,334.14026,337.35687,337.90424,336.94342,336.30954,337.50775,340.90805,345.54404,349.62357,351.50592,350.64636,347.98322,345.49667,345.11322,347.54245,351.75406,355.49353,356.62045,354.48911,350.46921,347.18011,346.83615,349.74847,354.01682,356.71194,355.83606,351.75406,347.07239,344.97754,347.13867,352.64023,358.72562,362.8356,364.44534,365.29178,367.75427,372.58563,377.80771,379.82874,376.16696,367.78378,359.05936,355.03006,357.62234,363.68372,366.66577,361.28876,348.1011,334.37555,329.89645,339.72287,358.60751,371.43027,360.5896,316.74396,246.55003,172.12518,121.53191,114.98704,154.38052,222.1111,290.0191,333.42996,342.50049,324.86899,298.85837,281.91238,281.28574,292.03119,302.50662,303.10208,292.40573,277.24457,267.24594,267.96262,277.12689,286.1907,285.77466,271.33203,245.5752,216.57281,193.17522,180.7766,179.71782,186.61639,197.08595,207.82495,217.00801,223.4007,225.50267,221.74864,211.71626,197.308,182.74786,173.02979,171.56204,178.36929,189.92369,200.7141,205.68414,202.28476,191.24516,175.94029,160.89626,150.19131,146.30078,149.57465,158.30014,169.24252,178.56529,182.95651,180.64619,171.92746,158.93958,144.80447,132.53171,124.18896,120.61192,121.56456,126.0351,132.42448,138.66223,142.49637,142.1244,136.99141,128.26207,118.49816,110.51656,105.99139,104.6519,104.63212,103.79081,101.13566,97.372482,94.188118,92.783615,92.747299,92.150124,88.866768,82.196976,73.575981,65.772156,61.063847,59.674316,59.618137,58.124802,53.652855,47.038528,40.915813,37.793411,38.176979,40.122707,40.5769,37.533306,31.411507,24.616127,19.593203,16.854368,14.507312,9.7227592,1.0838014,-9.9776134,-19.850199,-25.165083,-25.256815,-22.823799,-22.205244,-26.444937,-35.254677,-45.378719,-53.096016,-56.979729,-58.80365,-61.878597,-68.111168,-76.164612,-82.352432,-83.76989,-81.244797,-79.524002,-84.033104,-96.280701,-111.47279,-120.81548,-117.778,-104.38545,-92.796677,-99.935677,-137.43878,-202.75677,-277.35361,-334.13742,-350.70679,-321.15747,-259.62024,-193.30579,-148.87654,-139.75656,-161.22995,-195.42023,-222.49368,-231.20323,-222.97627,-208.1754,-197.94786,-197.25598,-203.15715,-208.52928,-207.93008,-201.35301,-193.61284,-190.33992,-193.77908,-201.38589,-207.96852,-209.56717,-206.19121,-201.55927,-200.23143,-204.32436,-212.14075,-219.54654,-222.95612,-221.74678,-218.47272,-216.8905,-219.32033,-225.20882,-231.78047,-236.14677,-237.28462,-236.52206,-236.33107,-238.43449,-242.63571,-247.14969,-250.07498,-250.84354,-250.57188,-251.09865,-253.47163,-257.03607,-259.8197,-259.966,-257.21494,-253.39099,-251.53459,-254.22043,-262.12439,-273.70679,-286.13763,-296.81888,-304.55588,-309.74817,-313.64774,-317.30057,-320.89374,-323.86023,-325.54263,-325.86569,-325.52567,-325.58755,-326.80234,-329.13089,-331.7926,-333.79108,-334.55667,-334.29236,-333.82416,-334.08206,-335.55536,-338.04993,-340.85706,-343.18225,-344.54825,-344.94443,-344.68961,-344.15747,-343.57104,-342.97855,-342.36896,-341.78348,-341.30777,-340.95029,-340.52979,-339.70636,-338.18353,-335.96027,-333.44205,-331.29269,-330.08759,-329.98322,-330.63184,-331.41284,-331.83026,-331.79758,-331.59897,-331.54871,-331.60101,-331.21948,-329.63986,-326.36539,-321.5368,-315.87677,-310.20267,-304.83148,-299.31854,-292.76947,-284.56134,-274.98657,-265.33569,-257.29007,-251.9725,-249.26927,-247.88916,-246.14729,-242.97542,-238.50523,-233.86075,-230.33118,-228.5014,-227.91449,-227.4409,-226.03273,-223.30748,-219.59201,-215.49928,-211.45634,-207.58195,-203.95721,-200.94559,-199.14207,-198.85451,-199.49693,-199.49258,-196.99924,-191.13792,-182.89175,-174.89812,-170.04044,-169.62616,-172.37021,-174.99467,-174.20699,-168.82259,-160.59015,-153.07555,-149.27477,-149.54865,-151.3201,-150.79504,-145.55595,-136.23088,-126.05502,-118.6191,-115.39913,-114.84058,-113.66306,-109.43503,-102.51409,-95.880577,-92.931526,-94.837914,-99.451927,-102.65383,-101.21888,-95.099426,-87.382317,-81.887962,-80.191483,-80.381119,-78.63913,-72.5681,-63.700394,-57.02523,-57.505123,-65.938622,-77.346771,-83.523254,-78.413712,-62.673649,-43.908348,-31.881046,-31.616993,-39.251827,-44.082409,-36.21645,-15.091698,7.1478572,10.683841,-20.564606,-87.671783,-172.75008,-245.57062,-277.79196,-257.09943,-193.33835,-113.22802,-46.762012,-12.974099,-12.706847,-31.560081,-50.226467,-55.577293,-46.260796,-30.573015,-19.186022,-17.952822,-25.114525,-33.821213,-37.416191,-33.614944,-25.076241,-16.638102,-11.653416,-10.057538,-9.1873665,-6.3021464,-0.72472042,5.8950377,11.120032,13.68257,14.334846,15.073551,17.499256,21.651947,26.17795,29.589434,31.549849,33.163124,36.071976,41.104794,47.54023,53.559963,57.548595,59.269993,60.061905,61.926319,66.189369,72.678505,79.948799,86.325371,90.982101,94.322464,97.482475,101.40347,106.16981,111.03726,115.03915,117.66519,119.12818,120.1028,121.22277,122.75609,124.67142,126.9608,129.8802,133.8597,139.12727,145.34105,151.53935,156.49391,159.26846,159.65308,158.24113,156.14914,154.56786,154.36678,155.87244,158.82637,162.49171,165.90765,168.29663,169.54269,170.52357,173.02884,179.14107,190.26512,206.27388,225.27524,244.21822,260.08755,271.0845,277.19238,279.89212,281.28223,283.14978,286.45386,291.31888,297.28055,303.44821,308.47641,310.55832,307.76376,298.81128,283.94409,265.31229,246.42094,230.74893,220.23386,214.52286,211.50438,208.86314,205.7292,203.38318,204.53568,211.58145,224.873,242.04826,258.79938,270.61557,274.52078,269.95404,258.56079,243.31378,227.62202,214.81168,207.8571,208.95506,218.72462,235.33902,254.31538,269.57785,275.73105,270.61197,256.74658,240.69939,230.36446,231.40833,244.63014,265.58344,286.62424,300.29578,302.34482,293.00931,276.24701,257.64328,242.23009,233.18185,231.61844,237.09053,248.13728,262.60446,277.85052,291.15891,300.4686,305.13135,306.17868,305.77078,306.0155,307.81763,310.47391,312.28415,311.78369,308.78345,304.5318,300.91324,299.25555,299.56448,300.67734,301.16135,300.27051,298.27768,296.00842,294.02087,292.13361,289.70111,286.4068,282.88068,280.5329,280.59222,283.00726,286.08347,287.27371,284.71295,278.48077,270.67285,264.14236,260.7063,260.02899,259.96216,258.11948,253.59146,247.59868,242.62769,240.6721,241.8322,244.25635,245.42809,243.83743,239.8297,235.07729,231.16788,228.4492,226.01988,222.80554,218.75719,215.0867,213.23949,213.40166,213.85303,211.92635,206.06105,197.41803,189.6203,186.47308,189.11403,194.72284,198.02113,194.8179,185.19153,173.8663,167.15938,168.38786,175.01672,179.91963,176.32167,163.16003,146.82704,137.3755,141.07494,154.17462,162.63445,149.13776,103.9094,32.850464,-42.553509,-94.474556,-102.50197,-64.270149,3.1544311,71.979355,117.53691,129.52815,114.74535,90.580894,73.932892,72.296509,81.78569,92.15123,94.655746,87.497871,75.760841,66.778709,64.669479,67.840919,70.800896,68.519569,60.034233,48.855766,40.197136,37.249756,39.186451,42.114544,42.029037,37.507751,30.291451,23.56925,19.442902,17.495296,15.41332,11.02723,4.1275024,-3.3084829,-8.5830221,-10.274383,-9.257947,-8.0326815,-8.9089985,-12.420324,-17.091339,-20.651958,-21.732506,-20.784283,-19.612762,-19.96686,-22.295986,-25.592546,-28.366737,-29.934322,-30.987545,-33.001987,-36.946522,-42.310619,-47.23526,-49.707977,-48.981754,-46.193989,-43.727451,-43.747345,-46.919193,-52.157139,-57.507397,-61.487553,-63.940468,-65.876579,-68.535515,-72.427147,-77.047745,-81.39592,-84.798477,-87.36409,-89.735199,-92.404327,-95.2136,-97.49205,-98.73391,-99.238457,-100.11288,-102.52989,-106.75322,-111.70564,-115.511,-116.72259,-115.38657,-113.13406,-112.15687,-113.74104,-117.40061,-121.2675,-123.50108,-123.71737,-123.37864,-124.80222,-129.45096,-136.72731,-144.18364,-149.07381,-150.20293,-148.78424,-147.68027,-149.52715,-155.01595,-162.48318,-169.03455,-172.37628,-172.10934,-169.7365,-167.62326,-167.8633,-171.88019,-180.77916,-195.66083,-217.06255,-243.53954,-270.49753,-290.75641,-297.42917,-287.96625,-266.87112,-244.8056,-233.77414,-240.6994,-263.19864,-290.48853,-309.35767,-311.83734,-299.80359,-283.40775,-274.11389,-276.78091,-286.1626,-290.56274,-280.6806,-257.93591,-236.36235,-235.90483,-270.44855,-337.66556,-417.24484,-479.37375,-499.23856,-469.56137,-404.14359,-330.51651,-275.98663,-254.90669,-263.86792,-286.59305,-304.72784,-307.83548,-297.17569,-282.15701,-272.78424,-273.29745,-280.66556,-288.02444,-290.02414,-286.28711,-280.96741,-279.25195,-283.56885,-292.10782,-300.38055,-304.41089,-303.21408,-298.98672,-295.16879,-293.96304,-295.07001,-296.34348,-295.65851,-292.52374,-288.31967,-285.13669,-284.18192,-284.93793,-285.61685,-284.49609,-281.13864,-276.66373,-272.95108,-271.39407,-272.05908,-273.75876,-274.89822,-274.47528,-272.59012,-270.20834,-268.41245,-267.65787,-267.47964,-266.78159,-264.49969,-260.25696,-254.66397,-249.11537,-245.17018,-243.799,-244.86156,-247.11017,-248.78763,-248.57596,-246.39804,-243.55779,-242.00334,-243.00652,-245.98471,-248.24731,-246.00961,-236.28557,-218.66998,-195.95784,-173.1255,-155.1174,-144.5985,-140.89374,-140.67772,-139.9805,-136.33865,-129.88536,-122.84827,-117.88205,-116.31879,-117.39277,-118.83865,-118.4057,-115.30135,-110.67149,-106.84964,-105.85686,-108.06728,-111.83529,-114.31493,-113.02734,-107.32619,-98.970558,-91.485664,-88.609726,-92.577621,-103.06049,-117.25,-131.01805,-140.5764,-143.85303,-140.99016,-133.84317,-124.86564,-116.02453,-108.27477,-101.71922,-96.155685,-91.534683,-88.021286,-85.729073,-84.484268,-83.952522,-84.125313,-85.771484,-90.341705,-99.12204,-112.00192,-126.65183,-138.83578,-143.97079,-139.23715,-125.07826,-105.16428,-84.746567,-68.282684,-57.652218,-51.906719,-48.536884,-45.319035,-41.527534,-37.833038,-35.16695,-33.540779,-31.778799,-28.385754,-22.873121,-16.467379,-11.531236,-9.968812,-11.686807,-14.251614,-14.129152,-8.8145962,1.5005771,13.84406,24.083958,29.27854,29.305683,26.793922,25.46694,27.994104,34.674385,43.653713,52.347527,59.017086,63.484661,66.682213,69.566368,72.30735,74.343994,75.171288,75.149918,75.622528,78.17112,83.529755,90.960243,98.587845,104.50564,107.89849,109.41806,110.57303,112.59856,115.62679,118.7442,120.8628,121.73457,122.33006,124.26467,128.65276,135.2009,142.20615,147.50281,149.74333,149.16592,147.35472,146.18576,146.6917,148.6002,150.80316,152.35606,153.25342,154.41425,156.89912,160.9415,165.52084,168.83022,169.36884,166.9464,162.92883,159.54385,158.66783,160.83206,165.02364,169.34511,172.08501,172.56023,171.30452,169.61488,168.82283,169.72815,172.42505,176.46184,181.11237,185.58099,189.11984,191.1468,191.41905,190.19019,188.19487,186.37256,185.42812,185.49023,186.11465,186.66742,186.84805,186.98164,187.84009,190.07668,193.65306,197.68193,200.84857,202.17548,201.63197,200.16367,199.08963,199.24649,200.44704,201.62888,201.61465,199.99049,197.51666,195.77873,196.27861,199.52646,204.69485,210.04103,213.83035,215.20854,214.53807,213.06737,212.19554,212.78528,214.87386,217.84421,220.85326,223.23029,224.66451,225.1799,225.00871,224.46597,223.85101,223.35136,222.95151,222.40962,221.37683,219.64819,217.40656,215.26176,213.98253,214.02931,215.18205,216.55688,217.0833,216.19389,214.28392,212.5912,212.49698,214.64026,218.40073,222.10909,223.89619,222.68246,218.71182,213.32111,208.12059,204.12227,201.35225,199.13225,196.76114,194.08321,191.55484,189.81308,189.1189,189.13176,189.21082,189.02757,189.01447,190.26094,193.84972,200.03856,207.84462,215.3634,220.68947,222.90976,222.57007,221.3251,220.97275,222.44188,225.32262,228.19887,229.56941,228.81253,226.63936,224.78697,225.13071,228.70961,235.18939,243.03664,250.28839,255.48492,258.25812,259.27133,259.58289,259.84427,259.8512,258.75571,255.82764,251.26573,246.46262,243.42531,243.59692,246.78464,250.94177,253.09268,250.96671,244.38417,235.49123,227.60376,223.3038,222.95862,224.61365,225.3448,223.19185,218.39207,213.0936,209.76662,209.438,211.00351,212.10533,210.92569,207.55986,203.91617,202.17462,202.94321,204.54442,204.07799,199.57121,191.63174,183.2762,177.90881,176.84853,178.26711,178.4687,174.71181,167.50497,160.51796,157.91818,160.93013,166.23238,167.70291,160.63603,145.54941,128.64249,118.1132,118.54051,127.25262,135.61548,134.90073,122.96211,106.83486,98.656128,106.75504,127.49637,143.80048,132.59998,77.882828,-18.053205,-132.21091,-229.69556,-279.5755,-269.40005,-210.56975,-131.87808,-65.131889,-30.865103,-31.498978,-54.509811,-82.371735,-102.72825,-113.13593,-118.81014,-126.23708,-137.53397,-149.10716,-154.77515,-150.54213,-137.51717,-121.2188,-108.19182,-102.54248,-104.64841,-112.42108,-123.61769,-137.1759,-152.63135,-168.41206,-180.81224,-184.96619,-177.56119,-159.54892,-136.85759,-118.29169,-111.61663,-120.01695,-140.8907,-167.49261,-192.26167,-209.85591,-218.40155,-218.78807,-213.03632,-203.06459,-190.51129,-177.26173,-165.76302,-158.48065,-156.68047,-159.42151,-163.65648,-165.62294,-162.79288,-155.19745,-145.29726,-136.48907,-131.19724,-129.71793,-130.44302,-131.18016,-130.62605,-129.05322,-127.87866,-128.5421,-131.5139,-136.05956,-140.80325,-144.59946,-147.09677,-148.69493,-150.07341,-151.73975,-153.93274,-156.84895,-160.85757,-166.38145,-173.439,-181.20607,-188.05292,-192.22578,-192.85559,-190.64548,-187.69261,-186.41847,-188.18962,-192.48528,-197.18744,-199.87802,-199.36317,-196.45618,-193.48924,-192.8309,-195.34312,-199.78162,-203.55832,-204.40891,-201.90706,-197.84033,-195.17714,-196.25636,-201.33704,-208.42186,-214.45699,-217.13586,-216.16811,-213.24684,-210.80942,-210.46152,-212.11179,-214.33798,-215.64319,-215.65688,-215.40118,-216.42903,-219.467,-223.57983,-226.53639,-226.21794,-222.14752,-216.06918,-211.09743,-209.90308,-213.06985,-218.68306,-223.43454,-224.55746,-221.38058,-215.55988,-209.9129,-206.66809,-206.26195,-207.38559,-208.11913,-207.29398,-205.14754,-202.89581,-201.62679,-201.36418,-200.97879,-198.98671,-194.64146,-188.5414,-182.34181,-177.79579,-175.79034,-176.00224,-177.33006,-178.72566,-179.82265,-180.97385,-182.76834,-185.45399,-188.6991,-191.81947,-194.23801,-195.80066,-196.73457,-197.33748,-197.68631,-197.59856,-196.84367,-195.39351,-193.49123,-191.49785,-189.67468,-188.0994,-186.7634,-185.70613,-184.99548,-184.52571,-183.83186,-182.19014,-179.07257,-174.6848,-170.12685,-166.89662,-165.93723,-166.86472,-168.02025,-167.47604,-164.40308,-159.82315,-156.08003,-155.23932,-157.46867,-160.60602,-161.38504,-157.60855,-149.7818,-140.96974,-134.8391,-133.17943,-134.67821,-135.92068,-133.9888,-128.7877,-123.29905,-121.40884,-124.79681,-131.23723,-135.79597,-134.30891,-126.67784,-117.36681,-112.33567,-114.33285,-120.04492,-121.72923,-112.95833,-94.912697,-78.577148,-80.29599,-112.3544,-173.91592,-248.20781,-308.60468,-331.01123,-305.90604,-243.23225,-167.2688,-104.37082,-70.506149,-65.391258,-75.880821,-85.753082,-85.563599,-76.824738,-68.78096,-70.758575,-85.476555,-107.48526,-127.14879,-136.94441,-135.6796,-128.07205,-120.50792,-116.29815,-113.77305,-108.27789,-96.302315,-78.587662,-59.97982,-46.236767,-40.164951,-39.842575,-40.11763,-36.235943,-27.026886,-15.496117,-6.5618052,-3.6373079,-6.446928,-11.463229,-14.4659,-13.307072,-8.9761648,-4.3925023,-1.9907162,-1.9336588,-2.1953983,-0.31135181,4.6232753,11.24023,16.982109,20.12328,21.162453,22.490278,26.522289,33.649376,41.547073,46.456165,45.652267,39.44416,31.3011,25.938362,26.552982,32.976105,41.91666,49.117634,52.034492,51.356468,50.479485,53.352745,62.097569,75.840973,91.353737,104.94068,114.33692,119.51149,122.0864,123.96578,126.16505,128.54424,130.45023,131.66519,132.92567,135.64859,141.07286,149.40302,159.5052,169.32965,176.79669,180.6572,180.91875,178.70992,175.7339,173.60014,173.29489,174.94109,177.88437,181.05676,183.49347,184.8073,185.40074,186.27318,188.47224,192.4547,197.72325,202.9888,206.81287,208.38266,207.96661,206.77745,206.32994,207.68541,211.0204,215.71724,220.82384,225.52145,229.30945,231.89388,233.01782,232.4913,230.45078,227.59789,225.0903,223.98602,224.52928,225.80035,226.10512,223.99483,219.30971,213.51288,208.97643,207.57651,209.47624,212.9305,215.31499,214.76491,211.36671,207.10866,204.60855,205.4549,209.25444,213.99077,217.40208,218.40512,217.60399,216.60263,216.6963,217.93071,219.20171,219.2702,217.8831,216.12569,215.72321,217.80576,222.05257,226.84123,230.27731,231.34253,230.35805,228.52118,226.98291,226.22112,226.11615,226.46138,227.23933,228.24327,228.34843,225.30051,216.702,201.93092,183.694,167.70816,160.0311,163.29451,174.30693,185.10445,187.47542,178.46613,163.15846,152.22577,154.9772,171.86652,191.50987,195.08005,166.54601,103.24571,20.353294,-54.180153,-92.247498,-79.236458,-21.278683,57.899025,128.71637,169.55856,175.29985,156.56184,131.19603,113.65843,108.44807,110.61553,111.75787,106.84896,97.444153,89.76857,89.741859,98.751625,112.99908,126.45623,134.95924,138.41731,139.7478,141.64377,143.8114,142.85242,134.93159,119.27856,99.912788,84.183716,78.905106,86.507072,103.6318,123.01043,137.39496,143.1385,141.41946,136.7002,133.68083,134.69809,138.92549,143.42038,144.97957,141.56453,132.69016,119.03319,101.9443,83.317017,65.688675,52.077755,45.226463,46.473106,54.945412,67.720398,81.019356,91.804352,98.842262,102.64606,104.46022,105.08854,104.41344,101.89581,97.582298,92.743263,89.515091,89.65097,93.172096,97.86274,100.05116,96.303162,85.077019,67.425941,46.438236,25.854353,8.7023201,-3.3737354,-9.9750309,-11.408629,-8.2947416,-1.5780218,7.2466831,16.119772,22.883537,26.085424,25.630953,22.811687,19.610071,17.664885,17.516907,18.573242,19.74799,20.295202,20.249855,20.201197,20.614191,21.242649,21.110128,19.122458,14.908398,9.2911663,4.0127072,0.82123405,0.46412814,2.2140634,4.2369962,4.5932636,2.2778125,-2.3066545,-7.6915417,-12.252331,-15.118006,-16.551205,-17.625744,-19.463499,-22.534937,-26.442102,-30.26568,-33.197254,-35.024261,-36.170452,-37.31543,-38.898769,-40.872723,-42.86713,-44.618465,-46.310387,-48.52906,-51.820477,-56.155735,-60.728687,-64.320198,-66.069534,-66.159966,-65.903534,-67.056068,-70.708984,-76.447403,-82.373955,-86.087563,-86.082901,-82.713089,-78.080521,-74.878357,-74.882988,-78.039513,-82.70491,-86.851173,-89.394424,-90.747597,-92.253738,-94.961487,-98.682304,-102.06529,-103.66784,-103.2277,-102.13371,-102.63389,-106.25402,-112.54655,-119.14608,-123.21901,-123.37217,-120.67559,-118.00607,-118.08833,-121.57967,-126.58662,-130.03293,-129.96581,-127.15199,-124.74328,-126.13817,-132.48848,-141.63747,-149.32828,-151.92842,-148.80269,-142.66696,-137.66231,-136.51875,-138.84038,-141.73193,-142.25969,-139.86241,-136.84064,-136.49289,-140.29297,-146.33247,-150.39722,-149.06485,-142.56181,-135.09732,-132.142,-136.4344,-145.65105,-153.68468,-154.90903,-148.47574,-139.37787,-135.14682,-140.2534,-152.2601,-162.92047,-164.08153,-154.61407,-143.29503,-144.78448,-170.36678,-219.01566,-274.84155,-313.45758,-314.29749,-271.94333,-199.71971,-123.23656,-67.50116,-44.979099,-51.214714,-69.899986,-83.636612,-83.604935,-72.66227,-60.94191,-57.72176,-65.197998,-77.896233,-87.34996,-88.253174,-81.739403,-73.853249,-70.76255,-74.354507,-81.255287,-85.659798,-83.659325,-75.894691,-66.793732,-61.198444,-60.970673,-63.986198,-66.051132,-64.153702,-58.62429,-52.726784,-50.146427,-52.316242,-57.51004,-62.232525,-63.752934,-61.888817,-58.822186,-57.239269,-58.278378,-60.800865,-62.422165,-61.412807,-57.994507,-54.098038,-51.851326,-51.99757,-53.427708,-54.112373,-52.654827,-49.264534,-45.456081,-42.78471,-41.650295,-41.099869,-39.741207,-37.000492,-33.695744,-31.447985,-31.376514,-33.104721,-34.887802,-34.823807,-32.2715,-28.410269,-25.49016,-25.281258,-27.828575,-31.407166,-33.706928,-33.392673,-30.925749,-28.082602,-26.55479,-26.673262,-27.194357,-26.302084,-23.090538,-18.431814,-14.558783,-13.598129,-16.042524,-20.238379,-23.328531,-23.153973,-19.982256,-16.980595,-19.035816,-30.429218,-52.499668,-82.470726,-114.09015,-139.90553,-154.2419,-155.57214,-147.15045,-135.49191,-127.28448,-126.17686,-131.11649,-137.25076,-139.04924,-133.933,-124.17246,-115.63795,-113.87168,-119.83247,-128.27539,-130.43015,-119.98022,-98.892326,-79.083794,-77.920311,-109.16475,-174.11674,-258.23157,-335.85464,-381.2128,-380.08356,-335.94308,-267.36597,-198.33206,-146.9727,-118.85571,-107.88892,-103.26503,-97.484009,-90.391434,-87.229553,-92.784523,-106.14175,-119.84639,-124.04793,-112.74456,-87.854454,-58.369137,-35.157818,-24.814791,-26.426188,-33.065475,-36.702999,-33.148998,-23.932186,-14.293375,-9.0842199,-9.538722,-12.961421,-15.162848,-13.601388,-8.9270639,-4.0105348,-1.4539607,-1.6013155,-2.5177498,-1.8004453,1.3217849,5.2985492,7.5125866,6.4624934,3.1183398,0.33116594,0.69637424,4.5028639,9.391017,12.072595,10.882479,7.2357464,4.8121648,6.959774,14.171458,23.509924,30.483917,32.093128,28.875183,24.476795,23.05374,26.383865,32.78318,38.581676,41.013634,40.321892,39.467163,41.655033,47.585461,54.601028,58.507599,56.782436,50.726513,44.797699,43.450977,47.78017,54.571743,58.693066,57.19936,52.050495,49.113316,53.788383,66.274231,80.132919,85.749611,76.762321,55.047234,30.332731,13.945406,10.393339,12.539861,4.349966,-29.539135,-92.881195,-172.48549,-242.51251,-276.69183,-261.76501,-204.43507,-127.78385,-59.277878,-17.307152,-3.7685597,-6.2805376,-7.7875638,2.777102,25.070194,49.637192,65.465088,67.417557,58.929905,48.894798,45.481037,51.231594,62.405106,72.396309,76.446785,74.401741,70.014809,67.809547,69.985664,75.441002,81.202164,84.834793,85.944901,85.848,85.992439,86.592903,86.577469,84.767036,81.184654,77.328217,75.135635,75.473999,77.403168,78.868027,78.334564,76.102463,74.224403,75.00798,79.178696,85.096161,89.680313,90.450737,87.236351,82.314392,78.85215,78.749092,81.41349,84.337662,85.038406,82.945747,79.863144,78.658005,81.122772,86.553383,92.087006,94.591629,92.796761,88.182877,84.016876,83.21096,86.477669,92.013039,96.852364,98.895561,98.188919,96.639755,96.473923,98.608124,102.10036,105.00818,105.95154,105.1935,104.4454,105.56087,109.09705,113.80509,117.42397,118.20543,116.08373,112.68054,110.18591,109.95074,111.79371,114.46157,116.81743,118.80699,121.44827,125.85165,132.0329,138.46822,142.81664,143.3775,140.2903,135.62802,132.28842,132.40678,136.31873,142.6832,149.55421,155.56491,160.40602,164.39566,167.66718,169.77316,170.11298,168.83942,167.39758,168.02707,172.34283,179.92633,188.05721,193.05197,192.54797,187.26419,180.92493,178.14516,181.4593,189.38484,196.89867,198.22629,190.32965,174.94266,157.83644,145.70656,142.56227,147.79765,157.0316,165.03389,168.76413,168.57668,166.94981,165.7955,164.36012,159.30211,147.01904,126.70981,102.05755,80.219444,68.499199,70.57547,84.505836,103.70626,120.36294,129.3429,130.45314,127.93346,127.67748,133.8876,147.0168,163.94713,180.02148,191.58322,197.58458,199.53943,200.10872,201.31488,203.43774,205.11603,204.44243,200.32024,193.28825,185.38507,179.16728,176.43248,177.32024,180.25029,182.72279,182.57274,179.04013,173.10938,166.94164,162.69788,161.37549,162.2789,163.40117,162.49356,158.22838,150.83116,141.88744,133.50877,127.37963,124.20434,123.759,125.35696,128.32021,132.14313,136.33252,140.17975,142.76164,143.26427,141.43993,137.86827,133.79901,130.62608,129.27765,129.84393,131.59929,133.34496,133.87256,132.373,128.71645,123.57608,118.33033,114.64444,113.73791,115.59719,118.6222,120.13926,117.76531,110.96773,101.78413,93.945038,90.572777,91.698784,93.286613,88.795876,72.797203,44.658993,9.9226456,-21.872446,-42.009754,-47.340733,-42.008621,-34.903172,-34.261284,-42.753078,-56.224323,-66.9683,-69.388786,-64.19883,-58.138779,-59.180801,-70.396187,-86.883835,-98.390602,-96.477325,-81.733475,-65.94368,-66.906677,-98.215378,-159.83559,-235.40965,-298.58539,-325.41876,-306.19397,-250.16112,-180.64326,-123.36781,-94.505714,-94.703529,-111.64111,-128.75122,-134.60661,-127.79252,-115.3114,-106.52043,-106.86395,-115.11413,-125.16985,-130.58072,-128.62683,-121.57237,-114.80335,-113.46675,-119.81325,-132.59637,-148.39935,-163.69106,-176.31921,-185.84578,-192.96255,-198.62564,-203.40489,-207.17499,-209.06439,-207.6442,-201.47113,-190.0152,-174.64864,-159.03331,-148.30313,-147.04071,-156.88956,-175.14085,-195.33173,-209.84459,-213.29842,-204.94826,-188.78372,-171.30051,-158.23534,-152.08646,-151.67326,-153.70557,-155.16632,-154.97824,-154.06993,-154.08554,-155.82542,-158.53787,-160.46393,-160.12204,-157.34772,-153.36169,-149.88547,-147.99725,-147.55275,-147.53082,-146.97408,-145.78543,-144.79128,-145.05203,-146.95998,-149.80884,-152.16312,-152.77086,-151.37775,-148.87975,-146.72211,-145.96918,-146.6713,-147.92203,-148.5184,-147.7542,-145.84253,-143.76213,-142.71172,-143.55807,-146.5692,-151.4563,-157.54135,-163.8744,-169.30063,-172.62906,-173.0144,-170.4424,-165.99446,-161.58372,-159.15027,-159.70238,-162.78546,-166.76231,-169.78372,-170.85085,-170.27621,-169.23994,-168.76904,-168.89363,-168.62953,-166.84372,-163.38474,-159.59972,-157.73814,-159.52679,-164.84535,-171.4556,-176.08089,-176.22342,-171.57542,-164.11671,-156.85081,-152.02846,-150.01605,-149.47699,-148.60065,-146.41324,-143.23347,-140.05286,-137.46797,-135.11783,-132.12717,-128.18048,-124.25227,-122.21079,-123.40274,-127.24239,-131.02014,-131.35994,-126.50293,-117.80859,-109.22437,-104.84169,-106.10413,-110.66872,-113.90628,-112.17097,-105.57681,-98.174843,-95.161888,-98.932732,-106.83417,-112.50663,-110.22397,-99.340828,-85.537315,-77.516869,-80.986938,-93.970428,-107.06449,-109.20765,-95.700882,-73.226532,-57.963657,-67.016586,-107.75323,-171.45406,-235.56754,-273.9649,-269.82065,-224.04301,-154.62408,-87.409775,-43.533337,-30.33824,-40.239719,-57.252758,-66.737206,-62.663895,-48.828793,-34.355938,-27.039063,-28.7743,-35.43454,-40.509106,-39.651966,-33.154995,-25.08499,-20.088179,-20.203636,-23.732679,-26.673033,-25.546717,-19.682959,-11.531738,-4.9354429,-2.5729754,-4.242239,-7.0520926,-7.3704505,-3.2768588,4.0570621,10.99735,13.791167,11.214993,5.8108683,2.739641,6.7174416,18.801283,35.112339,48.594753,53.068485,47.221916,35.893799,27.395815,28.053501,37.149803,45.678982,40.376793,11.359018,-40.77697,-102.72618,-153.04021,-171.61717,-149.31778,-92.597885,-20.653034,43.393421,82.579109,92.337898,80.149696,59.613907,42.804062,35.160831,35.1366,37.772961,39.276661,39.599342,41.784523,49.089252,62.159206,78.170227,92.312424,100.43108,101.05981,95.714546,87.572144,79.625244,73.503899,69.468178,67.201889,66.59687,67.934296,71.468842,76.906082,83.290665,89.438484,94.59137,98.800308,102.75878,107.21719,112.40015,117.82012,122.58498,125.96333,127.82819,128.7184,129.52122,131.00179,133.45331,136.62766,139.92789,142.72205,144.61534,145.57736,145.90279,146.05243,146.45604,147.35963,148.76839,150.48131,152.16699,153.42337,153.8172,152.96339,150.713,147.42142,144.11899,142.33527,143.4632,147.87624,154.33311,160.23601,162.90007,161.29616,157.18651,154.64429,157.77271,167.63072,180.18954,186.92775,178.34763,148.92139,100.83467,44.208218,-6.7505536,-39.931454,-50.655537,-43.310642,-28.443901,-17.003536,-14.975959,-21.304983,-29.940639,-34.415176,-31.98517,-24.89551,-18.302006,-16.51721,-20.16794,-26.053663,-29.592028,-28.031605,-22.213795,-15.763519,-12.377691,-13.132114,-15.634687,-15.541979,-9.3631029,3.3244689,19.638538,35.157593,46.419758,52.529434,54.98822,56.124767,57.378284,58.62476,58.854168,57.495186,55.272762,53.923134,55.006393,58.748024,63.80624,68.15535,70.439407,70.810776,70.661949,71.482635,73.708061,76.409767,78.037086,77.636986,75.635216,73.602455,73.185493,74.992348,78.233376,81.345093,83.099251,83.370071,83.030174,83.126282,84.022362,85.183128,85.730446,85.273346,84.292046,83.727402,84.095863,84.879066,84.762032,82.62513,78.550232,74.008949,70.981148,70.588387,72.270004,74.189476,74.643059,73.428337,72.075882,72.658669,76.010452,80.744186,83.972404,83.36747,79.082481,73.974449,71.714714,73.983788,78.833885,81.684021,78.577423,69.523193,59.339069,54.899166,60.214306,72.615707,83.049942,81.047539,61.756554,30.648069,2.4611235,-5.7246251,16.293219,65.611397,126.78017,179.08186,206.55664,205.24745,183.86891,157.99692,141.51082,140.22427,150.86122,165.07849,175.36073,179.01271,178.25883,177.22285,178.41638,181.23003,183.13931,182.31467,179.47153,177.57639,179.72263,186.82036,196.79453,205.82283,210.6837,210.57843,207.27312,203.64343,201.76645,201.87134,202.70572,202.82587,201.74681,200.14578,199.11964,199.20061,199.93155,200.27882,199.47878,197.60515,195.42145,193.68445,192.50327,191.29283,189.3638,186.66319,184.04156,182.77493,183.64427,186.23308,188.97874,189.99809,188.17448,183.81656,178.48334,174.10374,171.9355,171.95743,172.98358,173.36046,171.82591,168.09608,162.94527,157.80028,154.06261,152.45659,152.69106,153.61783,153.8663,152.67062,150.4146,148.47284,148.29405,150.20241,152.73788,153.19023,149.27361,141.01695,131.52136,125.68619,127.21811,135.51324,144.46342,144.40714,126.66254,88.376015,34.91576,-21.808962,-68.481262,-96.326118,-104.69456,-100.41747,-93.471046,-91.547424,-96.591324,-105.01349,-111.02113,-110.73907,-104.57632,-96.633675,-91.887764,-93.16259,-99.777962,-108.47214,-115.68993,-119.60328,-120.66245,-120.6288,-121.04673,-122.30977,-123.83778,-124.97524,-125.73656,-126.77582,-128.67529,-131.23445,-133.43629,-134.19774,-133.33882,-131.97383,-131.92728,-134.51624,-139.55547,-145.33496,-149.64883,-151.20236,-150.43575,-149.19365,-149.46545,-152.05859,-156.1004,-159.67793,-161.14114,-160.16336,-157.85858,-155.9341,-155.51578,-156.46796,-157.63544,-157.76744,-156.42393,-154.22517,-152.31432,-151.47501,-151.5726,-151.72105,-151.03201,-149.3773,-147.59215,-146.95279,-148.28009,-151.28616,-154.61736,-156.58264,-156.11337,-153.36946,-149.64998,-146.69815,-145.82434,-147.31741,-150.39117,-153.60132,-155.46402,-154.99631,-152.0168,-147.17473,-141.73988,-137.20224,-134.76143,-134.85771,-136.95479,-139.73814,-141.70778,-141.90337,-140.36755,-138.05452,-136.20605,-135.56107,-135.90292,-136.26302,-135.68398,-134.06462,-132.521,-132.97812,-137.18546,-145.71744,-157.5381,-170.36794,-181.61815,-189.35921,-192.84212,-192.42651,-189.13681,-184.217,-178.91417,-174.43941,-171.8757,-171.87599,-174.25613,-177.81151,-180.65475,-181.06181,-178.42159,-173.70851,-169.10393,-166.89124,-168.22528,-172.50127,-177.71321,-181.59221,-182.83348,-181.67671,-179.52711,-177.91997,-177.53242,-177.87579,-177.8159,-176.50647,-174.06029,-171.49385,-170.00705,-170.12717,-171.33578,-172.4465,-172.46452,-171.31137,-169.88589,-169.39716,-170.42229,-172.35349,-173.65021,-172.77153,-169.19534,-163.85631,-158.70421,-155.65199,-155.5685,-157.92365,-161.25542,-164.10103,-165.77051,-166.50064,-166.98145,-167.66829,-168.39716,-168.5528,-167.61252,-165.61835,-163.20702,-161.18329,-159.97989,-159.43031,-159.02199,-158.39139,-157.59416,-156.8331,-155.77617,-153.01743,-146.27625,-133.49501,-114.32862,-91.084335,-68.325989,-51.09,-42.549839,-42.431057,-47.161194,-51.769741,-52.502441,-48.649014,-42.529285,-37.695583,-36.504776,-38.596226,-41.227921,-41.23349,-37.324497,-31.238823,-26.971952,-28.545246,-37.683617,-52.809975,-69.913994,-84.683472,-94.555077,-99.49511,-101.21415,-101.53155,-101.06879,-99.098198,-94.497215,-86.989601,-77.713951,-68.707321,-61.70443,-57.140594,-54.07283,-51.046223,-47.243698,-43.06596,-39.725471,-38.174618,-38.18557,-38.293388,-36.686153,-32.429974,-26.159899,-19.732634,-15.064099,-12.942136,-12.612082,-12.381815,-10.785112,-7.4806075,-3.295552,0.53897595,3.3412895,5.4067998,7.6306038,10.671798,14.347294,17.746458,19.975252,20.919197,21.364075,22.290297,23.81708,24.616781,22.363499,15.071445,2.5110738,-13.250324,-28.618654,-40.146126,-46.101994,-46.998611,-44.815918,-41.510975,-37.829388,-33.16914,-26.486204,-17.510199,-7.3546152,1.9297558,8.5410938,12.008636,13.408635,14.570709,16.841955,20.275082,23.791878,26.174944,27.156034,27.806442,29.930494,34.863235,42.490582,51.160881,58.556824,62.963566,64.131966,63.235458,62.028027,61.805931,62.834232,64.51915,66.080284,67.17791,68.060204,69.201546,70.785095,72.469551,73.626282,73.851341,73.339981,72.817421,73.061874,74.369278,76.360199,78.278236,79.565399,80.291962,81.120422,82.820313,85.67778,89.223915,92.482254,94.570938,95.249748,95.048157,94.907799,95.605263,97.352417,99.818214,102.49911,105.12107,107.75939,110.60162,113.56992,116.13985,117.5518,117.30896,115.61678,113.42384,111.97949,112.15629,113.96021,116.54514,118.72626,119.66829,119.32175,118.35609,117.67078,117.82607,118.76018,119.94304,120.81992,121.21965,121.45329,122.05773,123.37941,125.28731,127.2011,128.4064,128.45236,127.39517,125.7671,124.31914,123.69762,124.21401,125.78252,128.00417,130.3287,132.2327,133.37761,133.72089,133.54256,133.35283,133.68619,134.85648,136.79507,139.07268,141.10907,142.46022,143.01721,143.00311,142.78549,142.64421,142.66003,142.79361,143.07545,143.73012,145.09335,147.33186,150.14136,152.65924,153.72533,152.41428,148.57362,143.05936,137.50119,133.67607,132.77937,134.9384,139.18817,143.89925,147.44125,148.78264,147.79129,145.15858,142.03082,139.53107,138.36295,138.62823,139.89668,141.47346,142.74001,143.41876,143.64189,143.79158,144.19185,144.82193,145.22762,144.71556,142.75633,139.38304,135.33762,131.82657,129.95573,130.11375,131.64836,133.07043,132.7683,129.93567,125.26202,120.99139,120.22085,125.66808,138.42126,157.248,178.83176,198.90186,213.80327,221.82178,223.66483,221.88315,219.52501,218.69263,219.71205,221.2981,221.55943,219.23689,214.45909,208.60185,203.38234,199.78099,197.48421,195.20717,191.69324,186.74165,181.57846,178.28766,178.61606,182.87685,189.63663,196.39636,200.86499,202.06427,200.62199,198.12952,196.0206,194.70175,193.46234,191.16064,187.17606,181.96455,176.84238,173.14812,171.34389,170.6496,169.45224,166.23625,160.46375,152.88226,145.10239,138.71916,134.48915,131.99896,129.95387,126.88182,121.87036,114.99343,107.27171,100.22221,95.201363,92.802544,92.548477,93.028618,92.473175,89.557358,84.069633,77.074547,70.411247,65.731857,63.592991,63.153828,62.716595,60.826328,57.248081,53.157124,50.353542,49.971592,51.554337,53.191868,52.735195,49.32576,44.161854,39.833008,38.485153,39.939045,41.070469,37.078552,24.096354,1.674008,-26.38917,-53.483353,-73.188881,-82.198563,-81.572075,-75.730942,-69.914787,-67.631493,-69.473404,-73.707962,-77.950531,-80.699371,-81.834717,-82.047821,-81.921684,-81.514641,-80.762642,-80.268135,-81.665894,-87.046097,-97.654808,-112.72777,-129.34903,-143.60132,-152.40633,-154.95227,-152.83427,-148.85268,-145.2719,-142.65855,-139.98643,-135.82364,-129.70499,-122.71771,-116.9174,-114.01811,-114.28812,-116.41051,-118.37937,-118.79279,-117.66238,-116.23167,-115.9964,-117.64935,-120.67346,-123.80677,-125.97934,-127.01853,-127.63446,-128.74977,-130.71754,-133.03122,-134.7439,-135.27269,-134.9677,-134.98766,-136.52812,-139.9263,-144.28014,-147.88058,-149.20572,-147.83943,-144.72357,-141.5901,-139.95029,-140.28444,-141.91446,-143.57835,-144.28159,-143.86417,-142.96062,-142.45703,-142.86661,-144.05159,-145.43753,-146.51212,-147.22122,-147.98145,-149.32422,-151.45363,-154.05217,-156.47913,-158.21844,-159.25159,-160.08186,-161.38033,-163.48964,-166.12933,-168.51802,-169.85204,-169.83501,-168.90509,-167.98947,-167.92003,-168.87569,-170.22517,-170.91003,-170.16634,-168.14182,-165.98474,-165.27444,-167.07301,-171.16293,-175.99869,-179.52649,-180.50095,-179.5556,-179.31757,-183.32896,-194.22107,-212.09187,-234.03767,-255.226,-271.05209,-279.27008,-280.94049,-279.65887,-279.49365,-282.80328,-289.16901,-296.00748,-300.41306,-301.04547,-298.88361,-296.41763,-295.86844,-297.6543,-300.14975,-300.90973,-298.5329,-293.88184,-289.77948,-289.31339,-293.82938,-301.94168,-310.24567,-315.30557,-315.64484,-312.46347,-308.65329,-306.81168,-307.60291,-309.54379,-310.29102,-308.47144,-304.74249,-301.3396,-300.4538,-302.62094,-306.29199,-308.90564,-308.69699,-305.93539,-302.68268,-301.22665,-302.31311,-304.46735,-304.92969,-301.56607,-294.39081,-285.59137,-278.00598,-273.12131,-270.01813,-266.02335,-258.60144,-247.12123,-233.22949,-219.59032,-207.96059,-198.06517,-188.12595,-176.61897,-163.84645,-151.98788,-143.44402,-138.67839,-135.32703,-129.55962,-119.00397,-105.17401,-93.354599,-89.459778,-95.538963,-106.87157,-112.9624,-102.45986,-69.459984,-17.517866,41.197399,91.385757,121.77626,130.00638,122.65076,110.70827,103.43501,104.11841,109.90179,115.14352,115.7456,111.63718,106.13903,103.1041,104.06915,107.36925,109.61783,108.29614,103.55733,98.062508,95.118896,96.52018,101.55612,107.71921,112.43785,114.56138,114.66402,114.17786,114.17281,114.71612,115.1654,114.98843,114.3514,114.00158,114.60696,116.16558,118.00623,119.36921,120.04132,120.462,121.17683,122.11577,122.39897,120.99108,117.79247,114.25623,112.8089,115.19224,120.76125,126.06493,126.37106,118.52065,103.44469,86.614288,75.790192,77.074821,91.428909,113.71492,134.96576,146.73933,145.21518,132.84438,116.77248,105.05602,102.82037,110.34892,123.8371,138.01216,148.92473,155.40262,158.67366,160.79597,163.09268,165.52823,167.18228,167.24992,165.77328,163.64806,162.02563,161.62474,162.4362,163.94618,165.61624,167.2262,168.86253,170.64674,172.48935,174.09492,175.20279,175.83815,176.33775,177.10498,178.28355,179.61908,180.63855,181.0209,180.86517,180.62207,180.7095,181.09155,181.16124,180.06668,177.29269,173.09454,168.44923,164.51192,161.92189,160.43555,159.16124,157.25809,154.62152,152.05841,150.78831,151.57567,154.08142,156.90904,158.36949,157.49677,154.64856,151.2751,148.98337,148.50436,149.25813,149.82759,149.03833,146.90334,144.7361,144.25893,146.21445,149.38379,150.74673,146.85938,135.76364,118.35184,98.345406,80.79538,69.841393,66.893578,70.177193,75.832275,79.925095,80.27301,77.155403,72.652718,69.124374,67.763832,68.037445,68.234711,66.694756,62.914665,57.877842,53.452888,51.279171,51.83606,54.239853,56.84446,58.238182,58.021191,56.923183,56.247757,57.03241,59.447922,62.76672,65.853355,67.821472,68.446579,68.131523,67.529259,67.124146,67.041565,67.147598,67.284554,67.422356,67.620415,67.88063,68.068634,68.00853,67.677956,67.306847,67.234001,67.582649,68.01403,67.827583,66.445267,63.993549,61.530411,60.627407,62.446491,66.86544,72.284767,76.375961,77.409889,75.34951,71.951881,69.71917,70.305969,73.409897,76.920654,78.298676,76.314949,71.98642,68.025543,67.100693,70.027725,75.111526,79.128059,79.349396,75.29541,69.046181,63.888092,62.171795,63.788353,66.258598,66.358093,62.19207,54.369896,45.571247,38.888145,36.109684,37.064022,40.313923,44.522655,49.371357,55.317608,62.424843,69.263016,72.904015,70.271233,60.087856,44.131428,26.850971,13.425599,7.3542523,8.9806366,15.763851,24.010342,30.915535,35.681702,39.187969,42.670944,46.459938,49.643307,50.8004,49.171715,45.381721,41.207237,38.582451,38.538086,40.756504,43.948944,46.70446,48.211536,48.445328,47.84481,46.836029,45.56879,43.976242,41.988049,39.652233,37.076885,34.315071,31.377258,28.408119,25.852158,24.371244,24.454908,25.956123,27.934151,29.030853,28.222137,25.462572,21.749741,18.514427,16.731846,16.375088,16.598562,16.494207,15.817686,15.089951,14.969409,15.399349,15.2835,13.091228,8.066082,1.1511037,-5.1803007,-8.2716761,-7.0020204,-2.6806667,1.6147367,2.9400899,0.39695519,-4.2710295,-7.8734055,-7.9962797,-4.7323837,-0.68924356,0.77473438,-2.1153378,-8.2791939,-14.485049,-17.556129,-16.538502,-13.305081,-11.177174,-12.553391,-17.238249,-22.646849,-25.703341,-25.034634,-21.874519,-19.066345,-18.961029,-21.803539,-25.794615,-28.714399,-29.791126,-30.31357,-32.47868,-37.381359,-43.791786,-48.812313,-50.039547,-47.59164,-44.322212,-43.853298,-47.786762,-54.259041,-59.159203,-59.337883,-55.443764,-52.003277,-54.227966,-63.580166,-75.475159,-81.448402,-75.119568,-58.286503,-42.667927,-45.066978,-77.867538,-140.19046,-215.35928,-277.04706,-301.42343,-278.86978,-218.78766,-144.81694,-83.178513,-50.602684,-48.219902,-64.043251,-81.679184,-89.686676,-86.34108,-77.917656,-72.674706,-74.939758,-82.935333,-91.062363,-94.395088,-92.031677,-87.179237,-84.337738,-85.889351,-90.557465,-94.656418,-95.026886,-91.465988,-86.966904,-85.694672,-90.159515,-99.484711,-109.81798,-116.48711,-116.45945,-109.65179,-98.526329,-86.50325,-76.295731,-69.061897,-64.561943,-61.871914,-60.036346,-58.334007,-56.248463,-53.430237,-49.808693,-45.747673,-42.01355,-39.458263,-38.586407,-39.322666,-41.173897,-43.669689,-46.723248,-50.592472,-55.435284,-60.805012,-65.537178,-68.227913,-68.061073,-65.432716,-61.893982,-59.364086,-59.065643,-60.851822,-63.364841,-64.932213,-64.627983,-62.822952,-60.887016,-60.257713,-61.486763,-63.868816,-65.866959,-66.046555,-63.935806,-60.313377,-56.796947,-55.013767,-55.831757,-59.029797,-63.497963,-67.779152,-70.647247,-71.482193,-70.360008,-67.909683,-65.042183,-62.646214,-61.322857,-61.223644,-62.047501,-63.210613,-64.127922,-64.477341,-64.313721,-63.977024,-63.857388,-64.160568,-64.806572,-65.5019,-65.920242,-65.878906,-65.429131,-64.846725,-64.551353,-64.975807,-66.384521,-68.661568,-71.164757,-72.809723,-72.504753,-69.861206,-65.842255,-62.877979,-64.134521,-72.076698,-86.974617,-106.22932,-125.09846,-138.66658,-144.12547,-142.11131,-136.2628,-131.15253,-129.73424,-131.8112,-134.47798,-134.2988,-129.87613,-123.14706,-118.47533,-119.97446,-128.66353,-141.26688,-151.54515,-153.52203,-144.78026,-127.8908,-109.10136,-95.01133,-89.132248,-90.273499,-93.597069,-93.632545,-87.464386,-76.308807,-64.718262,-58.026257,-59.55286,-69.058098,-83.081215,-96.722511,-105.75666,-108.01891,-103.6163,-94.221504,-82.08091,-69.278984,-57.432175,-47.658321,-40.585968,-36.311028,-34.386463,-33.970932,-34.140347,-34.209198,-33.870838,-33.091019,-31.876816,-30.131964,-27.722061,-24.677786,-21.327162,-18.19171,-15.680873,-13.814075,-12.218137,-10.452551,-8.4441109,-6.6817427,-5.9589863,-6.7793622,-8.8261347,-10.913206,-11.5391,-9.746665,-5.7464457,-0.87800491,3.0982063,4.9485397,4.5689244,2.8963501,1.2459331,0.55306393,1.0126009,2.2757626,3.9467056,5.9278889,8.3336391,11.082264,13.574975,14.830219,14.080896,11.433862,8.0634136,5.6926908,5.6251349,7.9526358,11.497507,14.564317,16.012085,15.919804,15.392622,15.663375,17.148994,19.15494,20.446623,20.264067,19.01499,18.100643,18.960682,22.008305,26.233971,29.792482,31.185959,30.221928,28.083275,26.481483,26.514565,28.040634,29.973341,31.215714,31.491503,31.450769,32.016827,33.54538,35.50795,36.977619,37.524403,37.757103,38.99445,42.241314,47.248905,52.450459,55.930882,56.769657,55.735256,54.733936,55.353012,57.584167,59.757179,59.832958,57.126564,53.096146,50.449879,51.102631,54.506966,57.76767,57.692951,53.400322,47.461163,44.444527,47.616295,56.118023,64.931999,68.127739,63.415253,54.68063,50.127514,56.525047,73.043388,89.107422,88.666046,59.281086,0.97642231,-70.774048,-130.54291,-154.63425,-132.79597,-73.463699,0.44341299,62.833511,96.600403,100.15726,85.398964,69.139374,63.498222,70.651482,84.152374,94.903496,97.413795,92.50708,85.466858,81.644203,82.855324,86.843315,89.67395,88.953712,85.48114,82.349861,82.442558,86.295326,91.837044,96.015442,96.97068,95.159355,92.741585,91.858665,93.158669,95.600769,97.520973,98.009834,97.518196,97.302246,98.255287,100.11602,101.68302,101.82456,100.43123,98.517281,97.374359,97.4599,97.941772,97.3246,94.725578,90.811806,87.602119,87.157524,90.038666,94.654953,98.060745,97.755165,93.318268,86.78743,81.501976,80.155182,83.295753,89.189606,95.036118,98.675133,99.688622,99.303879,99.344276,101.04863,104.53016,109.07602,113.86674,118.47643,122.81571,126.70927,129.6142,130.83614,130.12486,128.13544,126.27177,125.88988,127.37971,129.82338,131.56676,131.3732,129.35098,126.94206,125.90469,126.96833,129.13663,130.2114,128.26024,123.04658,116.40289,111.21364,109.62839,111.68174,115.2543,117.41963,116.29247,112.16534,107.21296,104.01147,103.88898,106.1806,108.7955,109.61095,107.71262,103.71581,99.115334,95.27552,92.811142,91.679451,91.690048,92.844856,95.164566,98.206284,100.8415,101.70303,100.1238,96.860107,93.899055,93.271851,95.598778,99.437477,102.04871,101.18993,96.721291,90.820564,86.534569,85.617714,87.218613,88.453232,86.552498,81.055016,74.369919,70.158356,70.61644,74.679176,78.623016,78.811798,74.629898,69.293457,67.636574,72.241638,80.773933,86.849762,84.364624,72.505936,57.662708,50.106758,56.811611,74.830368,90.049629,83.260887,40.915916,-35.461754,-127.11916,-205.23241,-244.05966,-233.10786,-181.71664,-113.70921,-55.337521,-23.298067,-19.091333,-31.916567,-47.29007,-55.687,-56.291019,-54.560154,-56.27932,-62.573799,-69.109764,-69.536011,-60.375565,-43.869057,-26.945335,-17.209782,-18.709272,-30.114006,-46.13847,-60.887478,-70.797989,-75.484184,-76.446281,-75.027161,-71.257813,-64.298698,-53.869667,-41.349148,-29.569513,-21.388134,-18.051155,-18.51277,-20.174622,-20.517019,-18.52404,-15.021858,-11.840052,-10.479765,-11.207721,-13.093418,-14.813555,-15.568556,-15.483914,-15.314558,-15.768478,-16.970797,-18.408243,-19.31661,-19.192062,-18.095236,-16.625376,-15.674189,-16.154531,-18.814676,-24.112284,-32.07019,-42.109413,-52.97097,-62.874271,-69.959335,-72.883644,-71.317093,-66.096001,-58.951393,-51.92371,-46.704159,-44.150883,-44.136406,-45.752697,-47.779392,-49.232357,-49.7686,-49.757332,-49.95892,-50.958252,-52.675644,-54.295513,-54.742393,-53.479527,-51.124825,-49.396214,-50.26828,-54.751129,-62.041309,-69.669876,-74.700943,-75.350494,-72.056808,-67.304482,-64.251045,-64.95871,-69.292458,-75.124748,-79.658546,-80.994141,-78.976639,-74.905594,-70.467094,-66.711868,-63.749653,-61.215157,-58.971977,-57.401424,-57.039078,-57.918507,-59.261997,-59.883942,-59.05584,-57.132156,-55.350632,-54.855595,-55.664436,-56.44722,-55.432472,-51.864105,-46.899837,-43.1339,-42.909176,-46.556091,-51.892624,-55.504021,-55.02121,-50.789345,-45.644478,-42.853352,-43.680901,-46.451797,-47.956108,-46.263725,-42.765388,-41.591709,-46.415783,-56.787788,-66.964195,-68.853447,-57.871845,-38.046726,-22.458551,-27.585903,-63.975895,-128.4684,-202.97887,-261.42435,-281.67178,-256.23718,-195.89566,-124.21729,-66.081947,-36.446156,-35.188889,-50.122269,-65.584122,-71.216156,-66.092712,-56.66787,-50.823524,-52.277103,-58.747608,-64.438499,-64.576012,-58.716507,-50.750404,-45.947945,-47.311531,-53.72559,-60.958874,-64.593521,-62.786564,-57.096943,-51.06287,-47.715649,-47.772919,-49.600201,-50.730335,-49.718559,-47.030804,-44.468399,-43.688957,-44.951508,-46.954838,-47.805069,-46.358364,-42.975155,-39.191631,-36.594284,-35.720623,-35.751019,-35.175343,-32.934532,-29.222918,-25.391811,-23.028196,-22.853348,-24.206665,-25.473686,-25.165552,-22.907446,-19.655005,-16.992405,-16.007835,-16.545143,-17.371458,-17.147457,-15.492117,-13.333065,-12.227417,-13.101859,-15.347843,-17.030003,-16.195303,-12.423121,-7.4620275,-4.336432,-5.3734374,-10.463511,-16.868635,-20.92626,-20.662167,-17.54784,-16.037552,-20.933552,-34.148014,-52.998322,-71.311287,-82.817162,-84.764366,-79.458405,-72.734085,-70.364761,-74.747887,-83.959885,-93.613487,-100.03788,-102.48348,-102.8951,-103.66684,-105.30133,-105.9127,-103.01409,-96.146233,-88.099884,-83.457359,-85.272865,-92.352966,-99.441849,-100.60505,-93.620201,-82.106705,-73.44709,-73.536064,-81.962914,-91.406525,-92.385628,-80.674576,-62.322769,-52.17683,-65.786263,-109.11153,-172.48711,-233.23755,-266.25479,-256.86044,-208.59842,-141.41342,-81.279266,-47.281857,-43.397343,-59.087055,-77.448563,-85.428177,-80.023476,-67.534302,-57.481445,-55.813408,-61.750496,-69.626617,-73.643806,-71.861366,-66.823296,-62.918331,-62.828854,-65.747795,-68.42981,-67.959503,-63.990376,-58.836975,-55.555058,-55.625908,-58.005959,-60.123837,-59.901276,-57.198318,-53.676491,-51.374653,-51.241123,-52.747757,-54.701492,-56.342876,-57.637959,-58.469593,-57.535194,-52.200912,-39.901489,-20.361006,3.0188,23.976475,36.362629,37.607929,30.439756,21.558092,17.922731,22.915007,34.777939,48.259724,58.271812,63.06514,64.825439,67.41317,72.959702,79.808807,83.331223,79.121017,66.401184,49.278824,34.906971,29.658722,35.708328,50.108917,66.804283,80.156593,87.731689,90.75341,92.277573,94.601578,97.757782,100.00198,99.726959,97.249153,95.079506,96.425606,102.95827,113.42068,124.10903,131.0023,132.21185,129.18581,125.87789,126.36403,132.35274,142.09985,151.3848,155.9738,154.12041,147.63997,140.92061,138.41264,141.99687,149.70895,156.56241,157.08145,148.23466,131.23756,111.27419,95.261879,88.780624,93.690247,107.56306,125.09826,140.67848,150.72148,154.71399,154.6208,153.2516,152.63715,153.28566,154.53302,155.50986,155.95332,156.33044,157.29842,159.00134,160.77733,161.50714,160.35052,157.33759,153.40068,149.83688,147.58255,146.7802,146.87718,147.10896,146.9765,146.39203,145.46339,144.17473,142.27789,139.50604,135.93027,132.1393,129.04402,127.39733,127.34877,128.34326,129.43199,129.77603,129.00787,127.25095,124.86614,122.1793,119.40546,116.76973,114.62453,113.35975,113.10356,113.45081,113.50815,112.33894,109.56205,105.6758,101.81713,99.060562,97.727005,97.215057,96.517044,95.070854,93.309525,92.446259,93.581642,96.751671,100.64253,103.26452,103.18704,100.49073,96.739151,93.942177,93.207993,94.030502,94.727242,93.720413,90.73288,87.016174,84.427353,84.024399,85.226555,86.18927,85.149025,81.754768,77.382637,74.164879,73.425896,74.687973,76.014847,75.473015,72.634087,68.973701,66.820793,67.603668,70.70211,73.800858,74.525665,72.154701,68.098694,64.747948,63.540569,63.754601,63.031658,59.318737,52.753342,45.937729,42.199593,43.013199,46.555832,48.697247,45.948494,38.300274,29.716648,25.598761,28.793339,37.040478,44.023251,43.709885,35.123302,23.92981,19.084932,26.175936,41.786652,53.17511,44.503719,6.5706425,-55.749096,-123.36372,-171.05656,-179.77472,-146.32753,-84.989609,-20.110575,26.019957,43.253368,36.334274,19.580782,7.4041405,6.5443044,14.18628,22.095951,23.265408,16.517347,6.4570804,-0.48169878,-0.70019341,4.4413462,10.169576,12.014517,8.8789625,3.4001079,-0.35822764,0.016628688,3.6884227,7.4412713,8.1597738,4.995388,-0.30604228,-4.9787202,-7.3870425,-8.1063786,-9.1988163,-12.342388,-17.302528,-21.921495,-23.629726,-21.349056,-16.386425,-11.672822,-9.8975887,-11.849629,-16.080091,-20.035681,-21.801943,-21.253862,-19.928814,-19.879288,-22.426323,-27.668684,-34.925613,-43.561089,-53.412277,-64.463226,-76.101913,-86.704552,-94.076424,-96.60183,-94.342896,-89.261803,-84.301918,-81.854324,-82.58268,-85.349213,-88.236893,-89.927856,-90.495087,-91.121582,-93.037033,-96.492432,-100.51279,-103.56061,-104.57278,-103.59435,-101.57889,-99.579475,-98.006699,-96.544441,-94.760956,-92.869843,-91.942085,-93.283752,-97.370949,-103.15426,-108.36105,-110.73129,-109.41294,-105.54696,-101.5737,-99.666138,-100.33116,-102.14716,-102.84592,-101.01248,-97.222534,-93.79834,-93.306465,-96.798508,-102.99477,-108.98344,-111.98278,-110.99745,-107.28698,-103.38646,-101.40137,-101.75572,-103.20358,-103.99439,-103.27853,-101.71396,-100.86318,-101.87811,-104.49438,-107.1161,-107.94905,-106.34452,-103.33961,-100.96032,-100.77346,-102.75284,-105.32422,-106.59728,-105.89362,-104.4016,-104.36671,-107.27623,-112.28404,-116.0648,-114.38727,-104.54259,-87.13781,-66.103584,-46.856689,-33.688911,-27.892971,-27.624643,-29.404352,-30.211296,-28.901535,-26.261559,-23.935345,-23.107597,-23.812239,-25.170183,-26.198586,-26.53034,-26.578024,-27.146214,-28.862467,-31.824781,-35.610199,-39.510021,-42.775394,-44.781563,-45.175331,-44.074028,-42.22892,-40.928608,-41.494495,-44.523605,-49.33942,-54.126671,-56.841244,-56.423618,-53.520237,-50.142033,-48.380638,-49.002331,-50.913265,-51.943398,-50.462814,-46.687786,-42.673706,-40.894047,-42.357361,-45.640331,-47.646538,-45.684097,-39.450264,-31.474882,-25.599594,-24.464464,-27.735956,-32.349163,-34.635265,-32.850574,-28.31101,-24.326969,-23.735336,-26.863907,-31.448343,-34.550476,-34.981571,-34.297424,-35.491917,-40.324707,-47.405453,-52.737083,-52.593796,-46.68528,-39.051086,-35.59375,-39.687874,-49.060314,-56.668957,-55.670719,-45.45293,-34.354313,-36.343502,-62.766216,-113.87846,-175.73009,-225.19322,-241.05251,-215.1272,-156.97153,-89.251358,-36.309231,-12.386241,-16.012869,-33.244816,-47.146873,-47.505161,-35.172405,-19.22205,-9.6277761,-10.603211,-18.693584,-26.186813,-26.9044,-20.218208,-10.793839,-4.710711,-5.0052328,-9.7770109,-13.936317,-13.05319,-6.4456944,2.5815821,9.2766314,10.757643,7.7405291,3.6293504,1.8640329,3.5621703,7.0888281,9.6560402,9.5811319,7.4788942,5.5967231,5.9453697,8.7314386,12.26887,14.353108,13.967787,11.993114,10.407516,10.652761,12.459608,14.04587,13.523499,10.421153,6.1505342,3.0613818,2.8069723,5.2545748,8.7430277,11.451292,12.797578,13.781179,16.011564,20.200169,25.327085,29.19215,29.992329,27.744066,24.432705,22.695507,23.954296,27.369909,30.430321,30.79504,28.072456,24.214306,22.193499,23.885323,28.680567,33.859028,36.488407,35.496937,32.417534,30.243742,31.201944,35.045578,39.122616,40.20314,36.782543,30.218824,23.881676,20.903965,22.116383,25.605122,28.165651,27.580593,24.093466,20.072273,18.186859,19.483057,22.757072,25.622658,26.389332,25.28895,24.12653,24.672182,27.099031,29.744135,30.431011,28.336597,24.890026,22.881008,24.342196,28.801704,33.342247,34.599117,31.317249,25.528631,21.312246,21.874264,27.042305,33.127659,35.464039,31.908787,24.704796,19.117907,19.585262,26.095289,33.63855,35.543854,28.641188,16.523565,8.0833349,11.606165,28.014399,48.018131,55.891987,38.427689,-6.0522089,-64.379784,-113.64844,-132.44829,-112.05818,-61.164841,-1.3370124,44.156475,61.792793,53.186649,31.907646,14.308576,10.197125,18.715567,31.139843,37.956379,35.269993,26.602474,19.52523,19.959539,28.191942,39.102242,46.051163,45.471813,38.995686,31.88085,29.120745,32.079086,37.913357,41.964855,41.240253,36.491516,31.542133,30.503599,34.941784,42.949951,50.633121,54.803593,54.933914,53.077309,51.993149,52.972736,54.972504,55.606682,53.14867,47.972809,42.338112,38.695332,37.828354,38.28223,37.575485,34.339752,29.773096,27.212189,29.958015,38.799519,51.020515,61.759266,67.000587,66.297455,63.372028,64.051193,72.714035,89.438393,109.65567,126.581,134.96954,133.94295,127.23909,120.83847,119.49422,124.25706,132.35226,139.25819,141.53957,138.68355,132.97594,127.74859,125.27498,125.63744,127.1105,127.58714,125.99346,122.80415,119.47944,117.36266,116.8377,117.24656,117.48884,116.79591,115.15126,113.16108,111.57667,110.84969,110.98427,111.68206,112.58432,113.42258,114.03724,114.35182,114.38605,114.28428,114.25757,114.39329,114.44031,113.78403,111.7468,108.10357,103.46778,99.195869,96.743469,96.814201,98.868401,101.39235,102.83251,102.60291,101.4536,100.88038,101.92934,104.23455,106.04562,105.35355,101.4229,95.652039,91.026833,90.334206,94.178329,100.09174,103.44186,99.745674,87.10791,67.373856,45.325871,26.389589,14.148596,8.9996386,8.5437441,9.2970133,8.6419306,5.97014,2.5759006,0.60020876,1.7501575,6.4533906,13.714759,21.537994,27.593889,29.868605,27.16692,19.424049,7.7750387,-5.6761322,-18.3713,-27.949724,-32.810131,-32.415943,-27.33843,-19.156225,-10.294464,-3.7251205,-2.3435345,-7.9669523,-20.256163,-36.189289,-50.681156,-58.415043,-56.18092,-44.516464,-27.65313,-11.669203,-1.816484,-0.50033385,-6.9551611,-18.528374,-32.445122,-46.737076,-59.838707,-69.571106,-72.875832,-67.134445,-52.512119,-33.5495,-18.261589,-14.506213,-25.442678,-47.00621,-69.461945,-82.592331,-81.51088,-69.333504,-54.745358,-45.876972,-44.605736,-45.434616,-40.173443,-25.546438,-8.359767,-3.9076085,-27.501066,-83.780159,-160.60713,-232.17427,-270.57504,-259.77338,-204.06641,-126.08099,-55.359158,-13.992213,-7.2550607,-23.932953,-45.175682,-55.93219,-52.163761,-40.333298,-30.748281,-29.86882,-36.611061,-44.404778,-46.752892,-41.995712,-34.053791,-29.070423,-30.749544,-37.836597,-45.36665,-48.490223,-45.941799,-40.687885,-37.485058,-39.311321,-45.313427,-51.653057,-54.462078,-52.645454,-48.515491,-45.925884,-47.401512,-52.402145,-57.915741,-60.816223,-60.163788,-57.76017,-56.633472,-58.66431,-63.147644,-67.326416,-68.444603,-65.765701,-61.080055,-57.379097,-56.723167,-58.87896,-61.680466,-62.770592,-61.382225,-58.839314,-57.450348,-58.670723,-61.934513,-65.03289,-65.754364,-63.567722,-60.10194,-58.061142,-59.348724,-63.736702,-69.013191,-72.482269,-72.748207,-70.55217,-68.132835,-67.622154,-69.621582,-72.90976,-75.394043,-75.56041,-73.399574,-70.241753,-67.740158,-66.803131,-67.211891,-68.077431,-68.660545,-68.872154,-69.105621,-69.628868,-70.116272,-69.761185,-67.90892,-64.696892,-61.152008,-58.60791,-57.846615,-58.61002,-59.86797,-60.656143,-60.84708,-61.243141,-62.882401,-66.058395,-69.813438,-72.357315,-72.196892,-69.213722,-64.908546,-61.575794,-60.907772,-62.939529,-66.035851,-67.932037,-67.142929,-63.827423,-59.581646,-56.354813,-55.23848,-55.908039,-57.006767,-57.123436,-55.665947,-53.086941,-50.41885,-48.544083,-47.737629,-47.735603,-48.155773,-48.857388,-49.941135,-51.43486,-52.995598,-53.95092,-53.714684,-52.278484,-50.37664,-49.140499,-49.438461,-51.346733,-54.117252,-56.655636,-58.159931,-58.473751,-57.947102,-56.985725,-55.70026,-53.956314,-51.762856,-49.613876,-48.394463,-48.807964,-50.72113,-52.99474,-54.085907,-53.129448,-50.749519,-48.897232,-49.605808,-53.339996,-58.041317,-59.679459,-54.223557,-39.994347,-18.986275,3.7422528,22.392181,33.196735,36.078316,34.275955,32.238911,33.090847,37.153843,42.288025,45.646137,45.610451,42.683994,38.895405,36.286003,35.601765,36.069725,36.310711,35.627563,34.67429,34.999489,37.801369,42.824986,48.252262,51.738663,51.928051,49.408539,46.422428,45.477501,47.754799,52.356716,56.886261,58.969414,57.720886,54.214725,50.700108,49.129631,49.987381,52.15242,53.808807,53.72282,52.01474,49.956226,49.015007,49.856537,51.978268,54.157978,55.322552,55.196949,54.320892,53.518494,53.287289,53.567135,53.993755,54.340832,54.729607,55.423908,56.419571,57.245224,57.228916,56.074734,54.274647,52.943436,53.09584,54.864399,57.283928,58.897327,58.808743,57.406879,56.153725,56.50946,58.759373,61.670856,63.349922,62.749462,60.69305,59.52224,61.457348,66.797012,73.361549,77.797058,77.981041,74.804062,71.848274,72.913246,79.008591,87.091949,91.829979,89.521332,81.488274,74.14212,74.898926,86.050835,100.62401,103.66602,79.349731,20.500441,-64.934845,-154.8091,-221.47214,-244.12129,-218.36157,-157.87733,-87.415245,-31.007282,-1.7503371,1.8042334,-8.3877764,-18.336063,-19.697104,-12.639515,-3.2325444,2.0236964,0.67273533,-4.7826562,-9.4198952,-9.6099205,-5.2494292,0.73247135,4.8247385,5.3774953,3.3806376,1.3116732,1.1581036,3.1268923,5.8422422,7.654901,7.9409733,7.4366102,7.4976501,8.9897394,11.700006,14.650102,16.945024,18.411669,19.528002,20.772476,22.005974,22.453037,21.333603,18.640116,15.410492,13.227561,13.27679,15.639686,19.320852,22.945787,25.567207,26.968222,27.286047,26.348745,23.365469,17.329857,7.9002247,-3.923713,-15.933002,-25.691093,-31.762304,-34.353497,-34.913601,-34.965473,-34.997551,-34.205204,-31.258997,-25.526596,-17.835985,-10.190072,-4.6012177,-1.8578352,-1.0976809,-0.4937062,1.431882,4.7931027,8.3320007,10.400592,10.213589,8.4711914,6.9139342,7.1370916,9.5094681,12.947652,15.675032,16.402649,15.100812,12.861802,11.022735,10.230061,10.119439,9.7884531,8.6401196,6.9215431,5.549439,5.3835588,6.5384927,8.2871904,9.6398487,10.144029,10.263963,11.009654,13.06727,16.088514,18.710205,19.347263,17.221104,12.889494,7.8912916,3.7604742,1.1250942,-0.46243724,-1.8710032,-3.4496064,-4.5631046,-4.0110664,-1.0486995,3.7707956,8.6354303,11.473579,11.268176,8.758832,5.9956412,5.0113449,6.5162826,9.5210457,12.137423,12.965778,12.058766,10.770411,10.627578,12.089913,14.150041,15.095747,13.872102,11.005458,8.3527956,7.8098912,9.9086924,13.352686,15.871096,15.798862,13.235744,9.9304581,7.9745955,8.280776,9.9866762,11.22857,10.680321,8.6517811,6.8625636,7.0315061,9.3759937,12.245799,13.280287,11.279233,7.3402548,4.2783418,4.6208229,8.6199179,13.838132,16.769201,15.416978,10.924143,6.9223394,6.9274144,11.639296,18.230579,22.339548,21.441406,17.071465,14.019755,16.787848,25.779318,36.211525,41.010059,36.034103,23.943254,13.486884,13.933957,27.910748,47.582836,57.495461,43.246803,1.1085178,-57.502216,-110.11118,-134.14699,-118.74027,-70.545143,-10.167543,38.701187,61.122227,57.070805,38.938725,22.659248,18.273273,25.493414,36.190273,41.260876,36.930626,26.531462,17.22867,14.56191,18.78771,25.332424,28.587038,26.028996,19.715652,14.322072,13.432755,16.919819,21.251713,22.32509,18.593187,12.164084,7.1417022,6.5380163,10.081715,14.506721,16.031803,13.145637,7.6453629,3.2157781,2.6593826,5.8486309,9.8925419,11.348839,8.8100834,3.943954,0.23669815,0.39769694,4.3732924,9.4666424,12.500992,12.436854,11.47451,13.729663,22.313385,36.83477,53.121483,65.462593,69.952965,66.75576,59.821285,54.300804,53.400455,56.720806,61.050674,62.908043,60.99762,56.927113,53.812389,53.878162,56.801079,59.943787,60.256073,56.455723,49.947437,43.863506,40.934269,41.688332,44.209396,45.566036,43.876236,39.571476,35.026878,32.875172,34.205704,37.872833,41.32346,42.301647,40.235081,36.405327,32.898018,31.160933,31.194218,31.859112,31.952061,31.168934,30.241625,30.208584,31.45393,33.305561,34.521252,34.2761,32.854481,31.464794,31.279715,32.434135,33.793755,33.750587,31.508204,27.889109,24.982395,24.777872,27.710501,32.178944,35.462852,35.474419,32.149681,27.489723,24.186901,23.772863,25.581278,27.25786,26.456091,22.512222,16.908865,12.211824,10.267674,10.977104,12.521095,12.83431,11.194567,8.7226677,7.4258347,8.5423927,11.497608,14.321182,15.234702,14.162827,12.915912,13.788247,17.583517,22.627378,25.665739,24.10774,17.935743,9.7093525,2.4773846,-2.8875873,-8.7303562,-18.835625,-34.778755,-53.102623,-65.948326,-65.630508,-50.718929,-29.509121,-17.750778,-30.854584,-74.526527,-139.4066,-203.51706,-241.97302,-239.05356,-196.08015,-130.73972,-68.268463,-29.428381,-21.773153,-38.471714,-64.435417,-85.48497,-95.137375,-95.711357,-94.238663,-96.639114,-104.049,-113.1496,-119.45287,-120.74548,-118.26448,-115.14241,-113.667,-113.55566,-112.44366,-108.01723,-100.03775,-90.706978,-83.160194,-79.282768,-78.492523,-78.344398,-76.43956,-72.191559,-67.171669,-63.846355,-63.695683,-66.108452,-68.82843,-69.573792,-67.621284,-64.219971,-61.582378,-61.225792,-62.867378,-64.636574,-64.409645,-61.295811,-56.242737,-51.38678,-48.648254,-48.55172,-50.031662,-51.270966,-50.934616,-48.965477,-46.484459,-44.971577,-45.343143,-47.514381,-50.628937,-53.677135,-56.033218,-57.603107,-58.610355,-59.286007,-59.712517,-59.866188,-59.711441,-59.187874,-58.092918,-56.031742,-52.609413,-47.839928,-42.495358,-38.03421,-35.954075,-36.81131,-39.478775,-41.211311,-38.695969,-29.677803,-14.327298,4.4583044,22.115118,34.393795,39.278728,37.842083,33.570004,30.515194,31.266598,35.818771,41.908009,46.549454,47.836884,45.948551,42.809608,40.692097,40.683811,42.023834,42.735668,41.137466,37.213078,32.882767,30.905121,33.043793,38.659958,44.683697,47.081593,42.997383,32.303768,17.657572,3.0743141,-8.0682678,-14.40009,-16.59436,-16.275789,-14.720179,-12.295942,-8.9576674,-5.2660866,-2.9860985,-4.6130295,-11.983018,-24.857822,-40.498878,-54.654995,-63.477253,-65.267288,-61.068077,-53.837635,-46.798882,-41.973747,-39.655655,-38.891899,-38.436722,-37.491062,-35.87738,-33.783318,-31.456858,-29.112236,-26.992409,-25.357052,-24.287081,-23.482632,-22.366138,-20.593607,-18.654612,-17.987396,-20.258627,-26.093945,-34.12999,-41.263481,-44.245277,-41.744026,-35.451271,-29.254005,-26.787014,-28.938087,-33.135452,-35.149509,-32.331264,-25.968365,-20.795218,-21.606344,-29.167637,-38.55228,-41.746765,-33.489944,-16.690306,-3.3442051,-9.2698374,-44.903664,-107.38752,-179.10597,-234.43916,-251.6813,-223.77591,-161.8924,-89.803749,-32.215092,-3.4968736,-2.7554319,-17.240578,-31.257904,-34.955021,-28.115942,-17.655741,-11.424518,-12.758006,-19.047983,-24.540226,-24.795988,-19.544527,-12.221506,-7.0020881,-5.7710495,-7.1966743,-8.2929068,-6.9889889,-3.6295879,-0.32798353,1.168453,1.3052386,2.7300491,8.4066029,19.228163,32.937286,45.224411,52.303967,53.207924,50.243973,47.36158,47.604671,51.391678,56.696491,60.833355,62.471378,62.455284,62.961803,65.737633,70.769958,76.337997,80.335518,81.833885,81.729813,82.036842,84.380333,88.806793,93.748795,97.129204,97.783875,96.199738,94.098305,93.225113,94.229073,96.384552,98.263245,98.795609,97.945496,96.572838,95.678795,95.650703,96.061119,96.115608,95.351799,94.035538,92.964882,92.857712,93.802864,95.185707,96.128616,96.107109,95.291649,94.386787,94.110649,94.70047,95.780403,96.647331,96.74189,95.978218,94.750381,93.676689,93.297676,93.911255,95.571869,98.149117,101.3418,104.6535,107.43362,109.06624,109.25462,108.21913,106.63203,105.27695,104.6282,104.62832,104.81653,104.70815,104.13737,103.30869,102.54066,101.94719,101.36354,100.61662,99.90744,99.893227,101.21536,103.65372,105.49335,103.72776,95.282448,78.754181,55.68264,30.473473,8.7911158,-4.8560781,-9.0754004,-6.0233293,-0.085531294,4.4346189,5.324523,3.1171365,0.18530208,-1.0276577,0.46428508,3.720654,6.544167,6.6999197,2.9008167,-4.8906231,-15.749871,-28.231543,-40.604622,-50.88187,-56.94635,-57.044823,-50.56974,-38.677631,-24.233351,-10.924477,-1.933769,1.1158938,-1.616878,-8.8110428,-18.893707,-30.547983,-42.514641,-53.023235,-59.580273,-59.64658,-52.046879,-38.260071,-22.582182,-10.729339,-7.4238544,-14.232153,-28.874001,-46.387947,-61.448231,-70.500648,-72.624794,-68.941673,-61.317459,-51.415565,-40.655312,-30.76198,-24.045242,-22.757813,-27.716957,-37.159397,-46.889545,-52.006252,-49.36668,-39.28471,-25.316252,-12.178799,-3.0944214,1.7513317,4.6918173,8.4693804,14.079833,20.101997,23.931953,23.9384,20.878819,17.47353,16.424498,18.363911,21.319565,22.180744,19.137804,13.274075,8.0437927,6.9059949,10.79126,17.285406,22.2201,22.594452,18.717894,13.963531,12.246319,15.047747,20.216927,23.524885,21.901924,15.956411,9.7949619,8.1135654,12.612742,20.43873,25.989016,24.948635,17.643808,9.1020079,5.5173717,9.539854,17.919086,23.561867,20.886572,10.696094,0.68035471,0.44268733,13.888451,34.184845,45.439117,31.140163,-15.19435,-83.746513,-150.97684,-190.38457,-185.75014,-139.42795,-70.994598,-7.1186509,31.510342,38.965664,24.259853,3.821074,-8.5594387,-8.3336267,-0.20319143,7.2651901,8.1575289,2.608979,-4.5037746,-7.8640189,-5.6024909,-0.16590291,3.9934742,3.8430886,-0.26124775,-5.2794547,-8.0258036,-7.4813552,-5.2144213,-3.8090029,-4.6894364,-7.0575857,-8.6776047,-7.7799649,-4.5335016,-0.9351474,0.77300406,-0.087490022,-2.0066488,-2.3507643,0.64906967,6.4410133,12.300851,15.002419,12.855008,6.7229028,-0.6139521,-6.2483835,-8.8382597,-9.1208935,-9.0520782,-10.308508,-13.228691,-16.829762,-19.713154,-21.084133,-21.150236,-20.727322,-20.494535,-20.536993,-20.49505,-20.103224,-19.594213,-19.595831,-20.607752,-22.520128,-24.612818,-26.075539,-26.642504,-26.813309,-27.445337,-29.010748,-31.10708,-32.64489,-32.620049,-30.906918,-28.456293,-26.710413,-26.641506,-28.127234,-30.143991,-31.646307,-32.462521,-33.492611,-35.999653,-40.482491,-45.982658,-50.41917,-51.821659,-49.659176,-45.334263,-41.445988,-40.259544,-42.3703,-46.426735,-50.063412,-51.392681,-50.066303,-47.265171,-44.736416,-43.623909,-43.899391,-44.69175,-45.136658,-45.03083,-44.803387,-44.902325,-45.169056,-44.767902,-42.768513,-38.925957,-34.013691,-29.399124,-26.154232,-24.387438,-23.33716,-22.172581,-20.855152,-20.305994,-21.623745,-24.860607,-28.308285,-28.992023,-24.245878,-13.420145,1.4351574,16.457973,27.946203,34.183502,35.977257,35.6423,35.220116,35.208229,34.645004,32.364979,28.366751,24.167061,21.808372,22.255405,24.44862,25.852974,24.232141,19.404797,13.648475,10.328111,11.61505,16.88752,23.000772,26.322397,25.15419,20.835501,16.719236,15.719907,18.176859,21.583931,22.414795,18.754847,11.836429,5.3331447,2.8784938,5.5745187,11.292389,16.2829,17.931303,16.634859,15.405871,17.474119,23.666185,31.549547,37.054489,37.437485,33.391823,28.668856,27.385042,30.946163,36.895626,40.650383,38.955658,32.535603,25.890163,24.223494,29.636755,39.380257,47.57148,49.283463,44.103199,36.525364,32.781063,36.326981,45.298584,53.883907,56.698036,52.920689,46.98357,45.081444,49.997391,58.272778,62.295612,56.268539,41.790623,28.442064,27.890409,44.729034,70.259033,84.363579,65.777039,5.372602,-85.626511,-178.28589,-238.9881,-246.02524,-200.46831,-125.1462,-52.433109,-7.9480586,0.68337023,-15.700609,-37.186455,-47.517216,-42.40897,-29.24041,-19.653532,-20.773029,-30.866306,-41.65765,-44.877171,-38.09478,-25.919611,-16.204811,-14.354379,-19.848808,-27.206375,-30.325815,-26.882126,-19.669781,-14.167762,-14.326045,-19.711712,-26.007977,-28.370174,-25.133715,-19.219275,-16.296125,-21.049603,-34.139637,-51.835735,-68.39608,-79.424065,-83.936211,-83.95649,-82.249435,-80.021896,-76.256088,-69.008064,-57.533298,-43.541546,-30.582357,-21.960899,-18.656094,-18.714266,-18.56035,-15.35807,-8.8687181,-1.6375486,2.5341911,0.78876752,-7.2918568,-19.694492,-33.268864,-45.331676,-54.575008,-60.89872,-64.567848,-65.483368,-63.134624,-57.19981,-48.248245,-37.931591,-28.442717,-21.556351,-17.85775,-16.627039,-16.404871,-15.843273,-14.321926,-12.033281,-9.6163168,-7.6783047,-6.5283113,-6.2139821,-6.7040591,-7.9821057,-9.9471502,-12.229409,-14.142111,-14.908136,-14.082703,-11.90693,-9.3204155,-7.5546951,-7.5001097,-9.2050428,-11.811664,-13.985398,-14.605727,-13.333706,-10.744971,-7.9706378,-6.0664129,-5.4735465,-5.8657379,-6.4442787,-6.4863496,-5.8146825,-4.9116549,-4.6106567,-5.5429716,-7.6623559,-10.134615,-11.681442,-11.215514,-8.4312315,-4.0239177,0.60131317,3.9951124,5.3589311,4.8983889,3.644341,2.8428571,3.2560241,4.765696,6.497777,7.3834271,6.8197575,5.037755,2.9626815,1.6567458,1.682463,2.7677372,3.9674299,4.216805,2.9447508,0.39364615,-2.5168893,-4.6708603,-5.2837286,-4.1892591,-1.7792611,1.2884325,4.3845882,7.0342045,8.8699942,9.5556259,8.8314123,6.7064872,3.6562557,0.61807644,-1.3198984,-1.429433,0.2310179,2.7600703,4.8198071,5.3162103,3.9789243,1.5036788,-0.83086646,-1.8531936,-1.1041609,0.96705371,3.283983,4.6920228,4.446815,2.408797,-1.0648316,-5.3559752,-9.7561235,-13.515082,-15.874211,-16.229319,-14.440063,-11.105366,-7.5351167,-5.2781806,-5.3643036,-7.680418,-10.917113,-13.223478,-13.25858,-11.019714,-7.8994775,-5.8720198,-6.2707267,-8.9226685,-12.222486,-14.144254,-13.569275,-11.066915,-8.5877638,-8.2288599,-10.855341,-15.489111,-19.895195,-22.009809,-21.279779,-19.014816,-17.493368,-18.39514,-21.60656,-25.224892,-26.802824,-25.034044,-20.747862,-16.490952,-14.881295,-16.736673,-20.177313,-21.337633,-16.349194,-3.4799738,15.786041,37.326927,56.273102,69.169235,75.303131,76.641693,76.591797,78.349281,83.654205,92.400597,103.05069,113.47353,121.78429,126.91601,128.83853,128.44211,127.14098,126.30005,126.67612,128.1261,129.76675,130.54761,129.93309,128.27335,126.60011,125.94807,126.64064,128.03856,128.95932,128.51108,126.77154,124.81543,124.02651,125.12992,127.59697,129.84291,130.11395,127.50244,122.45549,116.49223,111.36253,108.20237,107.16483,107.6265,108.68917,109.59097,109.83946,109.17164,107.5631,105.36131,103.36629,102.60245,103.74442,106.52953,109.66705,111.50813,111.1696,109.33281,107.99986,109.1604,113.18377,118.14371,120.79472,118.77144,112.554,105.65726,102.58592,105.71529,113.25993,120.0209,120.77818,114.17116,104.1675,97.510429,98.240173,102.77123,99.319344,73.172203,15.588959,-68.690643,-160.27632,-232.01523,-261.01724,-239.61917,-179.29353,-105.21903,-44.359444,-13.416346,-12.887111,-29.805984,-46.83416,-52.101353,-44.38559,-31.47587,-23.716345,-27.235636,-40.89938,-58.202671,-72.13652,-79.521713,-82.158607,-84.550331,-90.190048,-99.051338,-107.7692,-112.03213,-109.32204,-100.17872,-87.41317,-74.150574,-62.228836,-51.97636,-43.237614,-36.603363,-33.758404,-36.625443,-45.930775,-60.246861,-76.212425,-89.808929,-97.899155,-99.161171,-94.057076,-84.133362,-71.275581,-57.353855,-44.22364,-33.704769,-27.225288,-25.207001,-26.638714,-29.297653,-30.688496,-29.249128,-25.114758,-19.95269,-15.946502,-14.541197,-15.697106,-18.056658,-19.845266,-19.898436,-18.196186,-15.663476,-13.476329,-12.375832,-12.394935,-13.063525,-13.83916,-14.424012,-14.791851,-15.00091,-15.012775,-14.684121,-13.921596,-12.844961,-11.802017,-11.205399,-11.303731,-12.044721,-13.111474,-14.089484,-14.649445,-14.655681,-14.18794,-13.518031,-13.06699,-13.318827,-14.652325,-17.115078,-20.259089,-23.193005,-24.914059,-24.799597,-22.988121,-20.391453,-18.27755,-17.632036,-18.663763,-20.744129,-22.802906,-23.920519,-23.753834,-22.573324,-20.967169,-19.475557,-18.412535,-17.933662,-18.18804,-19.334318,-21.351059,-23.802547,-25.8277,-26.487785,-25.319956,-22.722916,-19.84668,-17.974522,-17.759893,-18.830366,-20.05637,-20.330656,-19.332705,-17.740953,-16.734619,-17.135519,-18.809753,-20.770418,-21.912556,-21.839649,-21.159819,-21.014206,-22.174515,-24.385675,-26.467571,-27.132528,-25.929495,-23.605982,-21.591223,-20.957287,-21.622152,-22.403927,-21.912823,-19.633013,-16.377916,-13.746525,-12.95078,-13.874974,-15.087499,-14.836794,-12.327727,-8.3435526,-4.7414126,-3.1760256,-3.9830756,-6.0405765,-7.6940222,-8.0257235,-7.4837241,-7.3797407,-8.6527891,-10.897141,-12.483271,-11.759995,-8.4441824,-4.0806017,-1.1068625,-1.1313562,-3.7060094,-6.590323,-7.4096146,-5.5065866,-2.5363591,-1.2262082,-3.1236336,-7.0394087,-9.5197601,-7.2297816,0.37806275,10.141075,16.928253,17.043465,10.938848,3.1816375,-0.5261634,2.6824412,10.711966,17.890306,19.053017,13.450546,5.5352097,1.8123862,5.8495221,15.117193,22.293119,20.532782,9.1278133,-4.7738738,-10.332231,-0.90682966,19.524147,36.320457,31.637016,-4.4733415,-66.065468,-131.87334,-174.96689,-176.42818,-135.29128,-68.994377,-4.1214614,37.146137,47.158058,34.182419,15.155089,4.8929157,8.4087553,20.354313,30.810301,32.845139,26.7701,18.816242,15.900971,20.545885,29.425049,36.153858,35.936451,28.630848,18.223742,9.4238396,4.0824804,0.076190986,-6.6659875,-18.636694,-34.399815,-49.154175,-57.807461,-58.375465,-53.336769,-48.044949,-47.332687,-52.610802,-61.316967,-68.90493,-71.885765,-69.86972,-65.398079,-61.92038,-61.448273,-63.456928,-65.596245,-65.508621,-62.405766,-57.397934,-52.542156,-49.439709,-48.389206,-48.559628,-48.864429,-48.776661,-48.497162,-48.465675,-48.71587,-48.645084,-47.393322,-44.526787,-40.485931,-36.442703,-33.651146,-32.731983,-33.35688,-34.503597,-35.073605,-34.465542,-32.786762,-30.65563,-28.790771,-27.651159,-27.288143,-27.412636,-27.586824,-27.444077,-26.872524,-26.106094,-25.659767,-26.077623,-27.567799,-29.724709,-31.569214,-31.992208,-30.41696,-27.282003,-23.974833,-22.15514,-22.818518,-25.678839,-29.296337,-31.911375,-32.46645,-31.151882,-29.1236,-27.612366,-27.07263,-26.985453,-26.443523,-25.052168,-23.422443,-22.822058,-24.193466,-27.273111,-30.536705,-32.120548,-31.120707,-28.308628,-25.632198,-24.713223,-25.326982,-24.984364,-20.080181,-8.0282221,10.921887,33.378872,54.295635,69.400536,77.133614,78.977661,78.1082,77.328285,77.624207,78.159325,77.508095,75.124695,71.973053,69.916031,70.36554,73.195847,76.695633,78.582733,77.37822,73.233177,67.723724,62.839344,59.879887,58.938587,59.17128,59.519077,59.336411,58.574574,57.56427,56.701126,56.292217,56.571178,57.695972,59.591412,61.733356,63.150494,62.832249,60.399624,56.583385,53.058109,51.573502,52.857433,56.029541,59.008579,59.744751,57.508011,53.36451,49.491249,47.772495,48.629635,50.877163,52.672142,52.847736,51.662376,50.44519,50.445267,51.779945,53.285069,53.370068,51.207355,47.332783,43.199234,40.0499,38.01746,36.177143,33.513599,30.003983,26.887068,25.816748,27.515409,31.015596,34.18885,35.262173,34.181385,32.695335,32.969086,35.71516,39.328907,40.859737,38.256123,32.226845,26.170414,23.974823,27.148294,33.434597,38.152004,37.516308,31.592213,24.554338,21.774706,25.66556,33.39938,38.548317,35.893867,26.076132,16.36273,16.191885,29.873602,51.355213,65.297012,54.942745,12.679648,-53.171818,-120.12659,-161.72112,-160.7851,-118.31901,-52.871811,9.1810408,46.811581,53.546246,37.99699,16.358206,2.1029832,-0.82723707,2.111546,1.94161,-6.7981858,-22.526712,-38.381931,-47.352688,-46.886021,-39.930889,-32.177582,-27.881519,-27.336031,-27.524269,-25.042084,-18.862539,-10.908745,-4.2527237,-0.58090997,0.98898166,2.837214,6.4430656,10.645157,12.053377,7.4556909,-3.4908769,-17.29357,-28.215565,-31.469421,-25.935822,-14.661258,-2.8994617,4.9296374,7.3912358,6.0816832,3.8566961,2.6881819,2.6464441,2.5125899,1.2902023,-0.68914878,-1.9278387,-0.99815089,2.1784551,6.0470848,8.3822231,7.794311,4.6731071,0.89031982,-1.499597,-1.6085613,-0.16715027,1.1780157,1.1377695,-0.33282232,-2.1489863,-3.0523961,-2.6337512,-1.6358849,-1.327703,-2.4515665,-4.560792,-6.2578526,-6.163209,-3.9014735,-0.38506109,2.803252,4.4718142,4.5606484,4.0507669,4.1461668,5.3520651,7.1219487,8.3061543,8.0392075,6.3917499,4.3036709,2.8567405,2.435463,2.4073839,1.5739515,-0.91906464,-4.8618965,-8.9768276,-11.659508,-11.977834,-10.26396,-7.9114499,-6.5227122,-6.9725194,-8.9855843,-11.463282,-13.296168,-14.101283,-14.409274,-15.21806,-17.249226,-20.417582,-23.852591,-26.431604,-27.454239,-27.019178,-25.881287,-24.914652,-24.552126,-24.566153,-24.316114,-23.277052,-21.48514,-19.593809,-18.492331,-18.728334,-20.115032,-21.799534,-22.777182,-22.535862,-21.395384,-20.265944,-19.910494,-20.148914,-19.554007,-15.95622,-7.5971313,5.6732426,21.884813,37.532055,49.053715,54.453644,54.169182,50.68663,47.121906,45.594524,46.337692,48.017883,48.972458,48.503056,47.360645,47.129166,48.975727,52.670834,56.589737,58.71619,57.958523,54.858269,51.191013,48.740658,48.117554,48.46291,48.24387,46.547302,43.901768,41.985237,42.390297,45.335457,49.298218,51.913891,51.567944,48.569992,45.043522,43.549973,45.36961,49.63258,53.91856,55.914574,54.969753,52.456173,50.697384,51.251511,53.794067,56.400963,57.005169,54.942604,51.444027,48.717907,48.319683,50.034554,52.109398,52.645031,51.072468,48.567722,47.076328,47.708504,49.787529,51.356796,50.809059,48.364895,46.152966,46.67651,50.743473,56.485401,60.394077,59.802559,55.032181,49.491535,47.418648,50.74733,57.409126,62.520321,61.841591,55.08987,46.534168,42.104183,44.83102,51.948822,56.154816,50.695255,34.979713,16.498423,6.8649325,13.734323,33.599751,50.693012,43.898991,-1.4100049,-83.263634,-181.02345,-263.38495,-302.6936,-288.00861,-229.89503,-154.52904,-90.62587,-56.42551,-53.426785,-69.28595,-87.049973,-94.800682,-90.440109,-79.940208,-71.423996,-69.455666,-72.960228,-77.295151,-78.26532,-75.020439,-70.066612,-66.882683,-67.204933,-69.960815,-72.381355,-72.19648,-69.184235,-65.032013,-61.829422,-60.48489,-60.273026,-59.737377,-58.106346,-56.032566,-55.057343,-56.232712,-59.007881,-61.305187,-60.828953,-56.731159,-50.469616,-45.230442,-44.249813,-49.081882,-58.852161,-70.858421,-82.033318,-90.329803,-95.279739,-97.59874,-98.301163,-97.971306,-96.571846,-93.727226,-89.138474,-82.822937,-75.114868,-66.566902,-57.894802,-49.955032,-43.620541,-39.475643,-37.453377,-36.700024,-35.888241,-33.907135,-30.537634,-26.639185,-23.642714,-22.612427,-23.478991,-24.989073,-25.463381,-23.898754,-20.680479,-17.397535,-15.843528,-16.844307,-19.691137,-22.569798,-23.716043,-22.542707,-20.002642,-17.95998,-17.993776,-20.414318,-24.105068,-27.243217,-28.387823,-27.231165,-24.588818,-21.736525,-19.608088,-18.38711,-17.681187,-17.037979,-16.358881,-15.912585,-16.002903,-16.618631,-17.38076,-17.831722,-17.81068,-17.576733,-17.548487,-17.860178,-18.119226,-17.621716,-15.920882,-13.322673,-10.870075,-9.7193623,-10.281532,-11.748726,-12.433903,-10.81264,-6.6290531,-1.2969984,2.7739868,3.6024451,0.94728601,-3.3521388,-6.2986212,-5.4245982,-0.2473958,7.3847451,14.264136,17.529161,16.105032,11.089742,4.9667754,0.21610898,-1.8271621,-1.2835547,0.78907752,3.2487535,5.4664655,7.3793669,9.1483459,10.812656,12.239601,13.354354,14.374804,15.777512,17.966724,20.898262,23.984589,26.408808,27.653141,27.859613,27.742588,28.098755,29.263634,30.910664,32.335514,33.003994,32.943901,32.684658,32.801792,33.434017,34.164909,34.372543,33.771515,32.700867,31.897291,31.903408,32.578621,33.140823,32.774681,31.381321,29.875574,29.720772,31.946291,36.315941,41.27055,44.756657,45.423119,43.381565,40.009335,36.941936,34.975849,33.659748,31.840328,28.720959,24.612421,20.796267,18.60541,18.439081,19.492374,20.432943,20.50617,20.182089,20.781729,23.318125,27.449627,31.432365,33.231979,32.033474,28.989418,26.530693,26.630615,29.272943,32.338898,33.137791,30.546947,26.147211,23.356504,25.011723,31.095425,38.371323,42.416393,40.760101,34.866932,29.346088,28.713627,33.929066,41.342781,45.148479,41.877121,33.692329,27.671574,30.846823,43.919838,58.067581,57.838921,29.440134,-30.022118,-108.03463,-180.33618,-221.54117,-217.29933,-171.37726,-103.72935,-40.63744,-2.3512859,5.1883354,-9.3972378,-29.940134,-42.355507,-41.346413,-31.017073,-20.13648,-15.753144,-19.220097,-26.564178,-32.154549,-32.749287,-29.242901,-25.347401,-24.557508,-27.680059,-32.508446,-35.579826,-34.578239,-29.713461,-23.312199,-18.142107,-15.741622,-15.822477,-16.92803,-17.667223,-17.583553,-17.144001,-17.042416,-17.46624,-17.895212,-17.524336,-15.929605,-13.46113,-11.10047,-9.9206619,-10.532753,-12.845915,-16.205608,-19.730434,-22.611916,-24.263165,-24.361794,-22.884575,-20.156778,-16.834551,-13.728952,-11.490012,-10.310823,-9.8507519,-9.460743,-8.5908394,-7.1247168,-5.4238749,-4.0586419,-3.4145796,-3.4421451,-3.7090261,-3.7013597,-3.1556358,-2.1982088,-1.2159361,-0.56670648,-0.33436,-0.28446743,-0.036337342,0.66481072,1.7345841,2.7043986,2.8622987,1.5213491,-1.6809884,-6.5597711,-12.336576,-17.834057,-21.887062,-23.822756,-23.771141,-22.595062,-21.407108,-20.893,-20.827465,-20.109007,-17.350605,-11.704578,-3.415236,6.2696414,15.794432,24.154686,31.342062,38.059078,44.885532,51.482277,56.435379,57.94128,54.963318,48.137405,39.815033,33.147114,30.697411,33.352615,40.094543,48.669777,56.689236,62.527573,65.633057,66.288368,65.170151,63.048916,60.720142,58.998642,58.564133,59.636887,61.708549,63.62038,64.079193,62.368183,58.805813,54.617218,51.257641,49.609371,49.577991,50.349365,51.111095,51.716488,52.811531,55.331425,59.725758,65.467422,71.198662,75.418404,77.242767,76.741707,74.677673,71.901779,68.878418,65.661873,62.261879,59.016529,56.590096,55.534531,55.746773,56.302979,55.91621,53.797466,50.344177,47.118328,46.017544,48.09922,52.801662,58.100304,61.558231,61.655064,58.589981,54.080593,50.305214,48.653721,49.033939,50.095554,50.15247,48.188892,44.354523,39.737087,35.660328,32.994457,31.861744,31.79966,32.15239,32.391129,32.213711,31.489363,30.211971,28.546696,26.895519,25.828873,25.818766,26.90036,28.51668,29.733406,29.765068,28.500164,26.652077,25.371899,25.519674,27.054771,28.974083,29.891977,28.928173,26.337498,23.450739,21.926275,22.761402,25.681053,29.290649,31.895075,32.462929,31.133427,28.972574,27.17956,26.292437,25.918831,25.142841,23.2952,20.53171,17.808504,16.265873,16.44558,17.885159,19.377262,19.727646,18.502972,16.26367,14.125942,12.953134,12.731062,12.559166,11.273397,8.2860727,4.0768189,-0.0040093525,-2.5021684,-2.7044914,-1.0226852,1.3129213,3.0261712,3.5188167,3.0895348,2.5511303,2.554883,3.1062148,3.5933933,3.2747045,1.8518612,-0.28575933,-2.3087935,-3.4953816,-3.6835277,-3.3213131,-3.1099675,-3.5220449,-4.5420899,-5.7825794,-6.8351464,-7.5519733,-8.0401115,-8.4106531,-8.5432844,-8.1173382,-6.9264345,-5.2200828,-3.7400091,-3.3266447,-4.3232298,-6.2227497,-7.8871932,-8.2679987,-7.153697,-5.3861003,-4.3232498,-4.8739567,-6.7857947,-8.7431984,-9.2742729,-7.8563266,-5.4094672,-3.758615,-4.3829021,-7.3258348,-11.08117,-13.596107,-13.709561,-11.978987,-10.249461,-10.233733,-12.140817,-14.421572,-14.913531,-12.605774,-8.6942949,-6.0216503,-7.147481,-12.366093,-19.157394,-23.627245,-23.071129,-17.902679,-11.525634,-8.1287622,-9.8812218,-15.502954,-21.258123,-23.681755,-22.04954,-18.734531,-17.13726,-18.740337,-21.619463,-21.760098,-16.397562,-6.8673258,1.4893671,2.8104115,-4.6138325,-16.019533,-22.570421,-17.689667,-3.4271913,7.819705,-1.4952404,-44.024395,-118.26194,-205.97887,-278.80939,-311.1351,-292.48465,-232.63501,-156.59227,-92.303505,-57.892715,-55.127674,-71.89328,-91.209435,-100.96721,-98.921036,-90.997185,-85.207039,-85.720558,-90.788658,-95.138252,-94.440315,-88.432373,-80.688454,-75.629402,-75.243584,-77.923279,-80.05825,-78.971687,-74.921036,-70.738907,-69.515549,-72.143379,-76.55619,-79.177979,-77.469711,-71.716751,-64.817871,-60.308975,-60.079319,-63.363117,-67.589386,-70.332184,-70.895424,-70.454361,-70.80442,-72.773842,-75.52018,-77.188988,-76.367119,-73.1978,-69.330368,-66.778801,-66.564598,-68.133331,-69.914452,-70.536392,-69.764374,-68.501282,-67.940376,-68.591766,-69.948944,-71.011559,-71.187744,-70.807335,-70.809189,-71.847687,-73.555359,-74.603889,-73.592606,-70.130844,-65.288902,-61.033302,-59.014347,-59.567982,-61.648518,-63.721291,-64.929459,-65.648254,-67.014961,-69.818581,-73.64547,-76.998039,-78.35154,-77.346992,-75.138367,-73.493477,-73.199249,-72.937889,-69.592789,-59.9953,-43.080711,-21.025896,1.4830456,19.512178,30.317028,34.466312,35.00819,35.296558,36.925945,39.07555,39.563335,36.758537,30.980677,24.447584,19.885489,18.827766,20.785498,23.799763,25.897144,26.372185,26.01672,26.225601,27.725891,29.91287,31.284491,30.627146,28.043209,25.027737,23.504311,24.49696,27.391224,30.325048,31.450905,30.195923,27.649742,25.819611,26.273235,29.096033,32.852085,35.539997,35.871277,34.017494,31.373465,29.56114,29.379818,30.381784,31.276688,30.801821,28.430647,24.48156,19.657228,14.440449,8.8230705,2.5476756,-4.3621168,-11.218404,-16.750731,-19.629938,-19.102972,-15.344524,-9.3340025,-2.3732302,4.447228,10.554353,15.885998,20.679853,25.230207,29.711914,34.062332,37.882523,40.386189,40.505882,37.2467,30.2272,20.15736,8.9304113,-0.85183603,-6.7936802,-7.6464825,-3.7923419,2.9959195,10.396571,16.535677,20.628622,22.989616,24.507568,25.968819,27.633375,29.252159,30.412937,30.920776,30.954435,30.93848,31.274826,32.148148,33.526279,35.310852,37.484818,40.127758,43.293728,46.864769,50.512791,53.811958,56.421303,58.201054,59.183449,59.441441,58.987617,57.812817,56.049881,54.11821,52.677437,52.335556,53.247974,54.873329,56.108341,55.808949,53.444382,49.498272,45.335335,42.55191,42.148903,44.000679,46.942318,49.437683,50.437534,49.916203,48.770844,48.165089,48.748169,50.254978,51.739265,52.270878,51.61758,50.440704,49.863113,50.70034,52.885967,55.500294,57.3983,58.01112,57.757072,57.755371,59.018059,61.674419,64.781349,66.881355,66.948921,65.083183,62.467865,60.625793,60.489582,61.936817,64.096375,66.163429,68.079285,70.530945,74.246445,79.127602,83.939903,86.905602,86.869156,84.217773,80.831558,78.986389,79.895325,82.893059,85.874077,86.732765,84.826584,81.429649,78.836258,78.736427,81.025826,83.917473,85.281792,84.230675,81.759125,79.941101,80.26104,82.346848,84.114319,83.291817,79.221428,73.550835,69.197792,68.259239,70.393188,72.939003,72.794868,68.728912,62.389507,57.172081,55.698635,57.785378,60.517872,60.515186,56.740414,51.631859,49.450066,52.851482,60.260071,66.326538,65.634354,57.241955,46.563374,42.522114,51.150387,69.701263,85.730621,82.862671,50.602242,-7.583519,-73.35054,-121.22456,-131.23813,-99.41433,-39.973984,22.133169,64.104103,76.17662,64.532906,45.160339,33.024727,33.395031,40.311665,42.373756,31.433598,8.3185167,-17.906715,-36.158855,-40.548214,-33.764549,-24.673435,-22.112556,-29.243431,-42.127705,-53.119198,-56.407093,-51.807285,-44.376705,-40.441414,-43.039207,-49.977673,-55.701653,-55.454948,-48.712395,-39.518898,-33.630157,-34.56559,-41.335014,-49.319435,-53.552731,-52.046703,-46.89637,-42.539776,-42.524677,-47.078403,-53.099285,-56.44096,-54.801998,-49.217514,-43.220421,-40.380859,-41.986656,-46.410645,-50.455154,-51.601528,-49.567394,-46.188354,-43.884239,-43.929489,-45.768776,-47.755291,-48.61842,-48.477669,-48.635761,-50.35741,-53.62809,-56.905167,-58.120354,-56.233154,-52.184593,-48.494484,-47.706425,-50.71999,-56.158134,-61.217571,-63.433815,-62.175591,-58.890102,-55.995495,-55.235844,-56.639626,-58.745731,-59.844391,-59.28273,-57.890636,-57.262115,-58.470394,-61.189865,-63.871395,-64.825729,-63.401451,-60.388199,-57.365974,-55.514709,-54.803249,-54.188179,-52.677128,-50.421047,-48.918442,-50.029099,-54.385788,-60.319412,-64.175941,-62.025047,-51.822906,-34.727341,-14.73547,3.1809223,15.372846,20.961433,21.723299,20.662195,20.238571,21.291725,23.122042,24.432884,24.371761,23.004595,21.058441,19.281595,17.952641,16.854536,15.634681,14.205897,12.874259,12.134986,12.331536,13.438457,15.089882,16.777189,18.046211,18.588673,18.25382,17.069378,15.300087,13.462207,12.181396,11.890516,12.533456,13.514515,14.008575,13.487397,12.116819,10.716582,10.259476,11.22562,13.263275,15.412195,16.743954,16.95952,16.505405,16.127439,16.213593,16.44968,16.075478,14.552297,12.104662,9.6667595,8.2205572,8.0146475,8.2965393,7.8305912,5.859025,2.7699022,-0.099365205,-1.4522556,-1.0991772,-0.24612379,-0.68724215,-3.424252,-7.7465591,-11.549698,-12.775653,-10.968368,-7.7495613,-5.7456083,-6.6546617,-9.8727674,-12.793613,-12.701799,-8.9378119,-3.680131,-0.60264945,-2.2341247,-7.9218769,-14.016565,-16.344193,-13.289297,-7.1936769,-2.8522952,-3.9958179,-10.274927,-17.12203,-18.895422,-13.227981,-3.3398268,3.7429719,2.230197,-7.5849361,-18.480743,-20.823465,-10.004111,8.1961365,18.628513,4.6931,-40.992691,-109.71759,-178.46999,-220.30472,-217.89876,-172.66585,-104.13902,-39.916679,-1.899455,3.4913781,-13.93895,-36.017311,-47.35009,-43.078476,-29.28944,-16.959435,-14.073503,-21.036743,-31.724039,-38.608192,-37.997093,-31.88979,-25.684681,-23.874258,-26.970226,-31.661016,-33.712288,-31.23378,-25.912874,-21.500265,-20.881308,-23.988382,-28.032639,-29.741091,-27.838234,-23.932611,-21.229998,-22.107874,-26.364874,-31.388525,-34.044781,-32.865505,-28.963421,-25.088882,-23.594454,-24.808781,-26.947933,-27.537882,-25.24963,-20.818834,-16.447609,-14.199155,-14.580133,-16.303034,-17.324799,-16.349419,-13.702932,-11.002058,-9.9265776,-11.020736,-13.368869,-15.319858,-15.682958,-14.523062,-13.020057,-12.547665,-13.660069,-15.692346,-17.209679,-16.948776,-14.600354,-10.955522,-7.4109497,-5.2360702,-5.0809627,-6.9410949,-10.438077,-15.096858,-20.407091,-25.717457,-30.190641,-32.993034,-33.661884,-32.389851,-29.97356,-27.402374,-25.337906,-23.8367,-22.503473,-20.947903,-19.19026,-17.698994,-17.026007,-17.321634,-18.119017,-18.585531,-18.083878,-16.634178,-14.918623,-13.799191,-13.689047,-14.250406,-14.671349,-14.346802,-13.464212,-13.022239,-14.195663,-17.441399,-21.973137,-26.02931,-27.836786,-26.682423,-23.391109,-19.869944,-17.982927,-18.465031,-20.56259,-22.609121,-23.131481,-21.746992,-19.27994,-17.074043,-16.023115,-16.009438,-16.120893,-15.447103,-13.841498,-12.072523,-11.244881,-11.916566,-13.575805,-14.894073,-14.612037,-12.443356,-9.3428965,-6.9184785,-6.3687105,-7.6758356,-9.6188755,-10.606949,-9.7602968,-7.4923792,-5.1963639,-4.2669492,-5.1506681,-7.0865574,-8.6997671,-9.0015221,-8.0676556,-6.9149208,-6.6870747,-7.7689672,-9.4941111,-10.663895,-10.480449,-9.1691017,-7.7799516,-7.2700663,-7.5335612,-7.1426816,-4.0939741,2.8643312,13.204465,24.628384,34.183628,39.816383,41.390499,40.551434,39.573311,39.976524,41.802486,43.933834,45.11964,44.921791,43.9328,43.197292,43.353561,44.171974,44.809532,44.521645,43.22916,41.493061,39.968582,38.869064,37.98143,37.302746,37.772308,41.350147,50.083847,64.581734,82.908875,100.8438,113.6371,118.38988,115.63013,109.04395,103.42931,102.07796,105.18308,110.22564,114.01211,114.97063,114.17652,114.46486,118.29435,125.86263,134.77673,141.50066,143.58852,141.19763,136.8965,133.95456,134.30103,137.49583,141.29529,143.29025,142.4258,139.41254,135.90981,133.23195,131.57579,130.25845,128.62526,126.79087,125.57981,125.74373,127.16262,128.76952,129.33719,128.51584,127.23391,127.03432,128.78262,131.7661,133.99132,133.58096,130.24644,125.6301,122.1067,120.87054,120.85272,119.54555,115.35865,109.71787,106.89727,110.95291,121.3334,130.24451,124.37702,91.141212,26.487377,-60.258106,-148.02861,-212.17419,-235.3356,-215.35834,-165.94728,-109.69998,-67.347473,-48.976639,-51.593941,-63.551964,-72.506538,-71.991364,-63.17424,-51.719639,-42.677124,-37.095695,-32.362617,-25.44346,-16.246599,-8.4878082,-7.4177098,-16.085968,-32.830276,-51.761696,-65.915764,-70.962387,-67.118217,-58.255447,-49.117455,-42.6777,-39.305542,-37.92012,-37.864155,-39.852379,-45.242237,-54.295383,-64.953606,-73.306847,-75.657982,-70.845047,-61.190926,-51.33593,-45.639404,-45.803181,-50.202606,-55.251896,-57.801155,-56.970387,-54.326923,-52.495632,-53.304634,-56.742542,-61.295475,-65.220093,-67.724518,-69.24028,-70.73645,-72.739357,-74.859032,-76.141289,-75.882996,-74.208496,-71.947113,-69.950851,-68.451233,-67.008667,-65.101257,-62.846806,-61.205334,-61.401676,-63.942268,-67.978195,-71.572182,-72.781982,-70.849541,-66.662544,-62.143692,-58.981834,-57.591255,-57.017456,-55.815178,-53.21114,-49.660088,-46.364174,-44.119411,-42.390656,-39.388107,-33.20018,-23.240278,-10.976266,0.64315104,8.7655983,12.21491,12.050798,10.767418,10.698461,12.70175,15.95361,18.881647,20.479641,21.032637,21.766121,23.749571,26.929846,30.052536,31.546108,30.706547,28.277355,25.955704,25.15489,25.926884,26.867247,26.128204,22.850321,17.978111,13.82021,12.585626,14.869555,19.140554,22.625612,23.040136,20.022705,15.319539,11.601378,10.714528,12.540401,15.212361,16.509596,15.452162,12.998665,11.372624,12.482786,16.514954,21.652828,25.124134,24.890762,20.89032,15.052343,10.119983,8.0620079,9.0724211,11.719853,14.047353,14.846826,14.296512,13.630222,14.149631,16.270302,19.197155,21.372583,21.359667,18.616112,13.761696,8.2860909,3.9348748,2.0916331,3.3656685,7.4386349,13.145209,18.769938,22.548981,23.289858,20.890511,16.47205,11.954863,9.1936169,9.0807524,11.115502,13.714177,15.112968,14.351801,11.771261,8.754158,6.9077058,7.2062516,9.5906229,13.181936,16.865877,19.814695,21.649605,22.270664,21.631468,19.721905,16.774477,13.4516,10.73295,9.4555683,9.78234,11.013681,11.964999,11.722217,10.266368,8.4928217,7.557507,7.9827533,9.1768064,9.7667904,8.5704241,5.5405307,1.9848212,-0.15890987,0.45677698,3.6978738,8.0109959,11.406601,12.685944,12.066971,10.804368,10.130707,10.332631,10.655051,10.08319,8.3668756,6.4458609,5.8783126,7.6476312,11.242114,14.758374,16.051435,14.169044,10.053925,5.9863572,4.1306939,5.193222,8.1150379,10.96703,12.343087,12.212224,11.640109,11.681087,12.383967,12.747672,11.678002,9.1499205,6.5518241,5.800725,7.8217635,11.59177,14.625198,14.707915,11.652515,7.6872854,6.0137362,8.4521503,13.899823,18.869337,19.891916,16.115536,10.123951,6.18785,7.0573263,11.62586,15.346082,13.349847,4.1542826,-8.8148527,-19.254717,-22.365093,-18.451906,-12.893755,-12.091057,-18.084843,-25.949936,-26.56883,-13.720803,9.0200434,26.779737,19.58334,-26.336462,-108.51668,-205.97601,-287.03564,-323.73166,-305.18372,-242.58652,-163.12416,-96.333809,-60.508881,-56.287045,-70.040184,-83.990463,-86.558701,-77.160599,-63.686428,-55.467808,-56.807076,-64.990082,-73.269157,-76.044838,-72.461548,-66.232719,-62.346218,-63.331707,-67.734085,-71.597595,-71.586243,-67.377914,-61.724831,-58.362007,-59.420193,-64.170441,-69.812279,-73.532692,-74.282181,-73.105156,-72.014923,-72.417374,-74.259079,-76.385208,-77.643806,-77.789719,-77.524269,-77.758598,-78.78685,-80.058952,-80.699921,-80.303009,-79.320457,-78.724548,-79.212326,-80.593658,-81.855881,-81.868065,-80.198059,-77.439171,-74.823929,-73.430153,-73.554886,-74.659775,-75.840179,-76.408005,-76.171608,-75.31321,-74.10862,-72.809082,-71.758926,-71.496666,-72.504677,-74.561943,-76.107124,-74.241936,-65.729904,-48.681309,-24.008581,4.3324952,30.688787,50.064678,60.2342,62.441322,60.340355,57.872562,57.362976,58.88155,61.030033,62.403954,62.647072,62.447712,62.66832,63.425304,63.906822,63.08353,60.730419,57.899212,56.376926,57.444473,60.825615,64.647667,66.544456,65.205742,61.311321,57.16666,55.230793,56.497467,59.813362,62.601242,62.516846,58.94809,53.381729,48.42823,46.182674,47.008823,49.505699,51.598034,51.9524,50.754601,49.375648,49.239189,50.733036,52.931061,54.289886,53.793091,51.716671,49.474854,48.660461,49.954533,52.663055,55.198273,56.170963,55.346336,53.813702,53.253742,54.789341,58.176167,61.85825,63.84742,62.863609,59.029415,53.723152,48.73682,45.301682,43.576244,42.846901,42.217686,41.278759,40.314964,39.970612,40.667217,42.217949,43.911568,44.984524,45.120777,44.608112,44.040379,43.794174,43.681576,43.058075,41.331264,38.507,35.354649,33.023369,32.333344,33.22216,34.754608,35.732288,35.515526,34.49155,33.834259,34.677456,37.246616,40.56171,42.965511,43.172962,41.15451,38.237057,36.305691,36.595379,38.862289,41.50069,42.556999,40.992489,37.36882,33.503994,31.326054,31.680161,33.863682,36.164387,37.002563,35.892429,33.598862,31.448555,30.341621,30.189104,30.15687,29.48744,28.244297,27.387629,28.095783,30.819031,34.771862,38.269978,39.716316,38.569942,35.636742,32.494442,30.465979,29.851383,29.91585,29.577374,28.251987,26.24507,24.454128,23.671215,24.04505,25.092167,26.18623,27.077467,27.997181,29.274931,30.82865,32.018944,32.067612,30.75054,28.788977,27.537292,28.097191,30.474094,33.432083,35.230217,34.766285,32.317654,29.331928,27.413567,27.25758,28.325388,29.483595,30.064108,30.453663,31.68589,34.333813,37.637703,39.708405,38.825699,34.910454,29.953043,26.855951,27.367098,30.623638,33.560535,33.126278,28.794224,23.397297,21.350388,25.25676,33.340839,39.913074,39.0816,29.436003,16.250622,8.9730749,14.849187,32.523144,50.191986,50.548122,20.52783,-39.577614,-113.4129,-174.69205,-199.47298,-178.04256,-119.80271,-48.403652,10.119557,39.589088,39.766846,23.587339,8.0183935,4.3620987,13.455258,27.705601,37.628639,38.209427,31.231487,22.818689,18.591721,20.022032,24.244326,26.935383,25.811197,22.160942,19.513954,20.682289,25.49604,30.884514,33.154324,30.725891,25.319706,20.750669,20.19717,23.854279,28.571095,29.700243,23.927958,11.28215,-4.8649683,-19.667995,-29.31513,-32.702457,-31.486786,-28.768461,-27.366835,-28.663166,-32.435158,-37.456535,-42.304131,-45.917244,-47.78643,-47.913189,-46.716988,-44.936707,-43.461208,-43.049397,-44.026657,-46.132355,-48.638214,-50.689522,-51.675144,-51.428158,-50.194702,-48.466869,-46.823788,-45.83873,-45.98753,-47.471161,-49.98217,-52.599709,-54.022572,-53.16568,-49.849281,-45.132435,-40.965233,-39.235855,-40.718182,-44.571442,-48.758053,-51.180176,-50.857883,-48.417294,-45.587231,-44.04229,-44.35202,-45.710598,-46.588036,-45.826698,-43.429085,-40.523552,-38.575195,-38.416523,-39.762718,-41.50312,-42.509789,-42.366875,-41.52795,-40.849628,-40.896206,-41.538563,-42.111954,-41.963943,-40.948212,-39.495842,-38.245834,-37.558186,-37.302906,-37.074001,-36.622913,-36.127983,-36.059235,-36.745255,-38.018951,-39.28009,-39.978127,-40.14275,-40.482315,-41.850864,-44.375523,-46.874771,-47.102142,-42.836151,-33.235264,-19.610077,-5.0503569,6.9708138,14.247657,16.799534,16.602606,16.306953,17.744204,21.101629,25.16222,28.323511,29.661888,29.374409,28.417654,27.713041,27.526688,27.429853,26.786234,25.341251,23.46067,21.87125,21.143581,21.33515,22.059128,22.896391,23.796326,25.126659,27.315052,30.357933,33.596436,35.976849,36.656013,35.543621,33.397175,31.38686,30.41326,30.626757,31.448296,32.037865,31.85565,30.925299,29.653,28.392866,27.12534,25.506914,23.242865,20.46969,17.812815,16.029881,15.475799,15.786581,16.042923,15.334246,13.34419,10.545029,7.8534727,5.9811559,4.9355011,4.0270247,2.3832924,-0.39295569,-3.8948941,-7.1645026,-9.3786392,-10.517806,-11.568913,-14.113546,-19.540636,-28.340441,-39.853672,-52.550247,-64.610909,-74.476547,-81.145996,-84.218491,-83.81675,-80.507423,-75.218369,-69.073219,-63.109978,-57.981117,-53.816467,-50.362392,-47.319672,-44.635376,-42.515366,-41.133873,-40.278118,-39.262264,-37.270813,-33.949112,-29.80921,-26.080633,-24.007355,-24.020885,-25.37569,-26.56069,-26.259436,-24.207983,-21.325985,-18.994236,-17.981808,-17.821083,-17.139675,-14.760193,-10.773843,-6.7481184,-4.8196216,-6.2465653,-10.446211,-15.254237,-18.286022,-18.464996,-16.623875,-14.73667,-14.347822,-15.385342,-16.282814,-15.349306,-12.336044,-8.92414,-7.6233025,-9.8010693,-14.330982,-18.017767,-17.691221,-12.556162,-5.0460472,0.60427326,1.2027208,-3.1337199,-9.0008049,-12.1318,-10.542538,-6.0596638,-2.9681206,-4.632762,-10.584229,-16.41963,-16.902285,-10.180813,0.078845426,6.6429167,3.840977,-7.6081648,-19.867718,-22.659042,-10.853687,10.032019,24.755587,16.198605,-23.945696,-88.123558,-154.36603,-196.21655,-195.95621,-153.72176,-87.33152,-22.987469,17.768024,27.554377,14.281897,-5.7937827,-18.230717,-17.636444,-8.3438387,0.71904701,2.8356032,-2.5218024,-10.547635,-15.374628,-14.3317,-9.2990074,-4.6737428,-3.866266,-7.0074806,-11.33568,-13.627398,-12.635698,-9.7311049,-7.4716263,-7.4119511,-8.9232407,-9.8776102,-8.5453634,-5.132925,-1.7252247,-0.6764431,-2.7079082,-6.199749,-8.2525549,-6.7569489,-1.9504659,3.6803846,7.0818439,6.6839032,3.3664138,-0.30200857,-1.9473445,-1.0212556,0.95439768,1.6272609,-0.41906884,-4.6500759,-8.9899368,-11.281586,-10.70619,-8.1769218,-5.5213461,-4.1401572,-4.1438251,-4.5352769,-4.1947341,-2.8517315,-1.3026272,-0.7507093,-1.8159384,-3.9783571,-5.8500614,-6.0268764,-3.857322,0.41743389,6.1682854,13.031751,21.124262,30.62085,41.059643,51.010227,58.510777,62.0993,61.776981,59.21904,57.026443,57.449261,61.355648,68.028992,75.802101,83.002831,88.567055,92.026352,93.104385,91.440132,86.785774,79.548401,71.156288,63.764439,59.283642,58.281761,59.525757,60.59544,59.301193,55.053772,49.295135,44.667065,43.409801,45.99651,50.868069,55.420994,57.594563,57.036743,55.139202,53.993034,55.009182,58.112061,61.969551,65.000252,66.405441,66.530319,66.391098,66.807297,67.82135,68.817429,69.191246,68.999954,69.046371,70.300209,73.086151,76.678139,79.662346,80.86721,80.216324,78.874413,78.531197,80.275421,83.819946,87.622032,89.843712,89.52684,87.211037,84.596619,83.489136,84.720818,87.725395,90.981087,92.967628,92.996605,91.438377,89.327461,87.729042,87.315216,88.325706,90.727798,94.251839,98.17009,101.03934,100.81821,95.590706,84.662468,69.383934,53.045654,39.66964,32.215214,31.164398,34.315857,37.942879,38.672302,35.030483,27.842997,19.401945,12.0439,7.0471735,4.4195194,3.4844215,3.6596622,4.8003449,6.9159799,9.6118326,11.832432,12.239475,10.034904,5.6463633,0.72951829,-2.6089749,-2.9269195,-0.21877624,4.1149154,8.0433693,9.9218607,9.160861,6.2580409,2.3322136,-1.4520342,-4.2470322,-5.6145673,-5.5014091,-4.2429605,-2.5654154,-1.4259535,-1.6088167,-3.2437837,-5.6028914,-7.4406037,-7.7713804,-6.589776,-4.9701881,-4.364871,-5.5205493,-7.8026671,-9.5132847,-9.0893326,-6.3573623,-2.8641789,-0.89936137,-1.8058201,-4.8175411,-7.4199862,-7.1746325,-3.7998154,0.066727087,0.20518763,-6.4538236,-19.536484,-35.087677,-47.88942,-54.75919,-56.505215,-57.024624,-60.046684,-65.846153,-70.491608,-68.507256,-57.287563,-40.032612,-24.666607,-18.910767,-24.634615,-35.648117,-41.2131,-33.733002,