ConstAcc,0.5,0.29098,28.5624,-35.91732,-92.40612,-141.3952,-183.3593,-218.7563,-248.0282,-271.6009,-289.8846,-303.2742,-312.1493,-316.8745,-317.7998,-315.2608,-309.5789,-301.0615,-290.0025,-276.6823,-261.3681,-244.3143,-225.7626,-205.9422,-185.0705,-163.3526,-140.9822,-118.1416,-95.00207,-71.72379,-48.4565,-25.33954,-2.502129,19.93633,41.86606,63.1866,83.80659,103.6435,122.6233,140.6805,157.7574,173.8043,188.779,202.6466,215.3792,226.9559,237.3621,246.5896,254.6363,261.5056,267.2069,271.7543,275.1675,277.4704,278.6919,278.8648,278.0261,276.2165,275.9129,277.3325,276.2029,272.784,268.2949,262.6499,256.1146,248.3714,240.3932,231.6634,221.9858,211.542,200.7606,189.3578,177.9325,167.4248,157.3335,147.6849,138.1585,128.7347,119.361,110.1099,100.885,91.9131,83.3603,75.16988,67.50943,60.72149,54.94154,50.376,47.33156,45.83961,46.32583,48.4476,51.88656,56.25385,61.33402,66.85875,72.5838,78.22534,83.80472,89.27785,94.43377,99.36231,104.0991,108.5379,112.7677,116.6819,120.3077,123.6777,126.6755,129.3653,131.5188,133.293,134.5456,135.4108,135.9915,136.1916,136.0843,135.5421,134.6862,133.4797,131.9295,129.9839,127.6325,125.0652,122.3606,119.4565,116.2613,112.8586,109.358,105.9778,102.7782,99.68591,96.8269,94.13995,91.65248,89.2495,86.94382,84.65263,82.25977,79.7241,77.25993,74.83221,72.47706,70.17338,67.89882,65.61328,63.32831,61.11643,58.95182,56.94313,54.92894,52.93958,50.92523,48.88536,46.91505,44.87784,42.91962,40.96267,39.15205,37.51947,36.14767,34.93474,33.77911,32.78583,31.99729,31.20787,30.48156,29.54926,28.21258,26.72013,25.37504,24.24982,23.28715,22.68856,22.51143,22.8503,23.5991,24.63292,25.60868,26.56663,27.51791,28.61957,30.06463,31.75298,33.70045,35.95454,38.22468,40.20413,41.87286,43.3478,44.56285,45.68638,46.67574,47.76696,49.03676,50.34309,51.63795,52.83463,53.97275,55.14913,56.17794,56.99345,57.58299,57.86844,57.92864,57.76033,57.18986,56.13669,54.6902,52.84364,50.57104,47.86361,45.0606,41.95151,38.64467,34.8925,30.80449,26.29719,21.35374,16.01588,10.31623,4.344604,-2.092006,-9.057934,-16.6508,-24.99886,-33.77458,-42.65666,-51.1991,-59.26469,-66.80361,-73.99527,-80.96844,-87.92535,-94.93831,-102.0053,-109.1013,-116.2052,-123.1338,-129.8193,-136.2706,-142.598,-148.8242,-155.122,-161.0079,-166.3941,-171.4398,-176.2897,-180.9936,-185.6135,-190.0781,-194.4424,-198.6555,-202.7083,-206.4305,-209.9406,-212.9398,-215.4678,-217.2186,-218.4411,-219.3513,-219.9689,-220.4835,-220.7499,-220.9857,-221.0274,-220.9052,-220.6029,-219.9399,-218.6827,-216.8873,-214.9019,-212.9469,-211.145,-209.5602,-208.4097,-207.61,-207.2614,-207.076,-206.4123,-205.3004,-203.5047,-201.0473,-198.2569,-195.3904,-192.5995,-190.246,-188.4037,-186.9214,-185.4494,-183.7257,-181.4693,-178.5674,-175.3655,-172.0636,-168.7124,-165.6433,-162.6647,-159.6291,-156.2553,-152.6486,-148.706,-144.6754,-140.4485,-136.0314,-131.3748,-126.5312,-121.4524,-116.1542,-110.6532,-105.6126,-101.4695,-98.1772,-95.12679,-91.2891,-86.19254,-79.75689,-72.06023,-63.40854,-54.03221,-44.21444,-34.2173,-24.26484,-14.75957,-5.666134,2.952316,11.01398,18.52386,25.37211,31.63969,37.33592,42.83593,48.0745,52.85973,57.32787,61.59128,65.91757,70.20093,74.45584,78.46678,82.04805,85.16228,87.67527,89.54807,90.80395,91.42189,91.55043,91.02326,90.04156,88.6953,87.14892,85.39668,83.40522,81.02129,78.10278,74.31748,69.4834,64.26636,59.03108,54.03177,49.54182,45.75651,42.47189,39.54094,36.91747,34.51669,32.42609,30.36878,27.95758,24.67168,21.15988,17.64322,14.26811,11.17455,8.331312,6.04707,4.104664,2.458742,1.162018,0.06452432,-0.9216189,-2.028038,-3.328565,-4.767682,-6.239406,-7.68276,-8.900156,-9.607981,-9.559436,-8.520175,-6.942146,-5.307783,-4.302688,-4.486384,-5.507194,-7.275601,-9.6158,-12.27563,-15.11092,-18.04356,-20.96778,-23.31836,-24.98483,-26.65449,-28.70408,-31.42174,-35.00726,-39.44428,-44.68251,-50.50016,-56.83228,-63.51799,-70.56423,-77.8217,-85.29382,-93.16251,-101.3782,-109.888,-118.7142,-127.8921,-137.3086,-146.2655,-153.8042,-159.4658,-163.1882,-165.4872,-166.8502,-167.7957,-168.6235,-169.3647,-169.9191,-170.2411,-170.2188,-169.5637,-168.4552,-166.8275,-164.5127,-161.5168,-157.8879,-153.6733,-148.6519,-142.6881,-136.3492,-129.8516,-123.284,-116.5283,-109.4673,-102.0285,-94.25314,-86.36399,-78.34053,-70.02856,-61.83299,-53.96639,-46.04847,-37.97381,-29.40519,-20.63716,-12.00215,-4.082459,2.715228,8.224149,12.39494,15.26271,17.11441,17.90557,18.26084,18.65941,19.39386,20.70436,22.81621,25.57295,28.52725,31.3405,33.68504,35.33256,36.22205,36.31925,35.67222,34.77964,34.01857,33.17409,32.29288,31.36792,30.24073,29.03489,27.65593,26.26131,24.94666,23.60728,22.37374,21.20491,20.18061,19.33879,18.81831,18.57046,18.7336,19.37154,20.29313,20.99891,20.98762,20.15185,18.59795,16.73121,15.23923,14.53979,14.99893,16.4113,18.58524,21.24435,24.30305,27.74232,31.02409,33.39684,34.79935,35.31698,35.44145,35.27497,35.11726,34.93429,34.68602,34.4804,34.24079,33.95802,33.72276,33.2765,32.97283,32.78619,32.82375,32.78588,32.68675,32.52515,32.11209,31.46109,30.5871,29.38447,28.09885,27.00205,26.0912,25.18521,24.26528,23.29711,22.10751,20.76596,18.90976,16.68955,14.46223,12.33196,10.17796,8.135063,6.298446,4.69942,3.358954,2.367184,1.491848,0.7988042,0.4443191,0.2637534,0.07949601,0.3869518,1.046895,2.204742,3.716949,5.77825,8.507924,11.44173,14.46711,17.02666,18.84037,19.80212,20.2358,20.1082,19.3319,17.70957,15.82483,14.49189,14.84783,17.38977,21.87022,27.39801,33.1353,38.59593,43.46181,47.84344,51.59583,54.62645,57.29707,59.9497,62.66193,65.3998,68.00014,70.44506,72.93301,75.48344,77.94451,80.48951,82.938,85.36429,87.49455,89.20907,91.17895,93.51195,95.53531,97.03794,97.77592,97.71061,97.03765,95.95772,94.56627,92.89458,90.86031,88.69977,86.67847,85.86338,86.10806,86.80222,87.12493,86.98844,86.21522,84.75143,82.87446,80.60323,78.25101,75.92316,73.68731,71.41044,69.38415,67.43128,65.28952,63.38021,61.56258,60.02599,58.85387,58.16339,57.84086,57.71274,58.01203,58.55947,59.27432,60.1633,61.07283,61.97897,63.0376,64.51559,66.56466,68.90315,71.72468,74.82067,77.86424,80.16666,81.87723,83.6317,85.76349,88.5147,91.77066,95.62533,99.82909,103.6495,106.7513,109.89,113.305,117.1496,121.421,125.8913,130.2669,134.6478,138.9909,143.0632,146.9248,150.616,154.2351,157.6303,160.4922,162.6278,164.0575,164.8643,164.9116,164.3688,163.2976,161.5197,158.6954,154.6842,150.4684,147.1533,145.2205,144.4502,143.832,142.8505,140.698,137.211,132.3311,126.0715,119.208,112.8874,107.046,101.5843,96.43363,91.35417,86.20444,80.55966,74.42926,68.07804,61.79758,55.5343,49.4662,43.4556,37.43179,31.50006,25.66745,20.12842,14.91434,9.393812,3.19798,-3.098431,-9.314206,-15.2094,-20.86266,-26.09969,-30.9086,-35.32748,-39.40437,-42.87931,-45.73059,-48.04522,-50.48521,-53.31093,-56.28993,-58.67452,-60.55015,-61.74241,-62.46361,-63.04607,-63.64551,-64.41186,-65.26804,-66.38209,-67.47056,-68.53371,-69.36041,-69.47548,-70.1936,-71.78671,-73.93564,-76.01248,-76.85975,-76.09418,-73.72508,-70.34546,-66.68699,-62.813,-59.50238,-56.59236,-53.85873,-51.13578,-48.4366,-45.8413,-43.26701,-41.06723,-39.1876,-37.60452,-35.56936,-32.96148,-30.34832,-27.93307,-25.98122,-24.55499,-23.98034,-23.96082,-23.78805,-22.81934,-21.37686,-19.84364,-18.36763,-17.13131,-16.00973,-14.90627,-13.97145,-12.97937,-12.14553,-11.15844,-10.1895,-10.05606,-10.65192,-11.57066,-12.60146,-13.85008,-15.53952,-17.33496,-19.30999,-21.41228,-23.57242,-25.56523,-26.94641,-27.90964,-29.13183,-30.62933,-32.67672,-35.09113,-37.91732,-40.9029,-43.99425,-47.31078,-50.4065,-52.67849,-53.91381,-54.28505,-54.32061,-54.1106,-54.00659,-54.23828,-54.66501,-55.35889,-56.34929,-57.47085,-58.50459,-59.37919,-60.24619,-61.17608,-62.27976,-63.2841,-64.46682,-65.5533,-66.81047,-68.05696,-69.16107,-70.3112,-71.33656,-72.32025,-73.11212,-73.58948,-73.6446,-73.42632,-73.21273,-72.92277,-72.4201,-71.63009,-70.73204,-69.80581,-68.99968,-68.34999,-68.18609,-68.00379,-67.54178,-66.9368,-66.58727,-67.04549,-68.8409,-71.88149,-76.07557,-80.86869,-86.54696,-91.78066,-95.93248,-98.19706,-98.98409,-99.14428,-99.5334,-100.717,-102.5787,-104.4005,-106.2645,-107.7587,-108.6339,-109.0496,-108.9512,-108.5018,-107.8969,-107.3346,-106.6059,-105.4653,-104.1319,-102.7237,-101.118,-99.2292,-97.06502,-94.62853,-92.0761,-89.31009,-86.15797,-82.50864,-78.45783,-74.23096,-69.98521,-65.39913,-60.57067,-55.45841,-50.07183,-44.48745,-39.079,-33.46126,-27.83252,-22.24592,-16.75861,-11.15483,-5.847463,-0.3361757,5.257367,10.64727,15.87735,20.9646,26.1307,31.05588,35.77203,40.24952,44.31745,47.99298,51.59094,54.75305,57.58394,60.30636,62.56016,64.59223,66.79425,70.40699,74.93923,79.44875,83.3598,86.49065,88.77806,90.66049,92.1182,93.55956,94.78171,95.89902,96.88744,97.84325,98.41235,98.76762,98.69166,98.53297,98.0224,97.44662,96.5657,95.63944,94.89599,94.03903,92.96886,90.79255,87.80954,84.77495,82.50441,81.28423,80.82688,81.12803,81.89682,82.93596,84.11743,85.3228,87.05482,89.19944,92.05629,95.67306,99.03952,101.5002,102.8498,103.3648,103.4291,103.5651,103.6608,104.1174,104.4019,104.731,104.6463,104.2087,103.477,102.7546,101.6105,100.2178,98.58269,96.72523,94.63199,92.35548,89.91622,87.04436,84.03175,80.87478,77.76764,74.45028,70.84639,66.94799,62.8349,58.68442,54.54051,50.11083,45.38119,40.56492,35.90531,31.27122,26.52532,21.66194,16.74163,11.87321,6.986256,2.176494,-2.766515,-7.320435,-11.70526,-16.07525,-20.40581,-24.63718,-28.46488,-32.1451,-35.80822,-39.27084,-42.64262,-45.46363,-48.16001,-50.57857,-52.8643,-54.85952,-56.62631,-58.26532,-59.81486,-61.17278,-62.5577,-63.53473,-64.05095,-64.46995,-64.63102,-64.62022,-64.5081,-63.85967,-62.96584,-61.87559,-60.89946,-59.66744,-58.14127,-56.63685,-54.90181,-53.2847,-51.5646,-49.6236,-47.74304,-45.75024,-43.87788,-41.86482,-39.80116,-37.90708,-36.55244,-35.56524,-34.74556,-33.88489,-33.27136,-32.98678,-33.15754,-33.90318,-35.1253,-36.52015,-37.64079,-37.64123,-36.87846,-35.61414,-34.42427,-33.52333,-33.17174,-33.258,-33.36574,-33.46145,-33.36622,-33.08606,-32.48814,-31.88572,-31.20222,-30.86146,-30.63399,-30.47834,-30.16033,-29.89265,-29.56261,-29.09114,-28.80291,-28.32437,-27.80053,-27.24861,-26.64352,-26.05864,-25.61619,-25.03227,-24.38593,-23.67254,-22.89039,-21.89522,-20.94663,-20.32761,-20.1714,-19.97558,-19.12431,-17.6368,-15.87198,-14.26726,-12.48733,-10.73932,-9.129628,-7.908531,-7.15611,-6.332706,-5.663619,-4.99337,-4.47602,-3.484546,-2.384879,-1.012193,0.2297935,1.28637,2.052102,2.65079,3.088564,3.557223,3.59278,2.630994,1.527667,1.433238,2.323532,3.784045,5.540379,7.006377,8.311279,9.241717,9.556531,9.797951,9.767985,9.835946,9.94026,9.914404,9.743343,9.234469,8.555985,7.894554,7.220127,6.29763,5.39088,4.597446,3.77445,2.615277,1.428681,0.25078,-0.996735,-2.144507,-3.19439,-4.330735,-5.348202,-6.474878,-7.380947,-8.068317,-8.843832,-9.339214,-10.01711,-10.73021,-11.36706,-12.12517,-12.51813,-12.5886,-12.44163,-12.26997,-11.51755,-10.36542,-9.292333,-8.497788,-8.200678,-7.835488,-7.691868,-7.127147,-6.544488,-5.873017,-5.319516,-4.701584,-4.286955,-4.143221,-3.996547,-3.287104,-2.170725,-0.5224182,1.448576,3.502738,5.530238,7.480873,9.786604,12.72198,15.85593,18.82442,21.70851,24.67363,26.83602,28.50673,30.10563,32.49951,35.88133,39.80161,44.01588,48.14983,52.05027,55.64318,58.9838,62.5187,66.13038,70.3783,75.19893,79.92556,84.23712,87.57328,90.55805,92.9922,94.98384,96.7719,98.39963,99.92074,101.3093,102.7287,103.8622,104.6611,104.6216,104.0873,102.9439,101.3695,99.28584,96.75293,93.86079,90.80744,87.32589,83.95989,81.72268,80.14129,78.20413,75.72181,72.46995,68.36425,64.11238,59.7547,55.47062,50.9825,46.32447,41.52878,36.92752,31.7554,26.3794,20.73347,15.53093,10.53155,5.634802,0.7783861,-4.154401,-9.146448,-13.95689,-18.79,-23.3309,-27.77881,-31.88802,-35.71464,-39.14911,-42.47129,-46.01052,-49.32002,-52.02711,-54.28704,-56.43607,-58.6683,-60.74429,-62.25696,-63.16421,-63.8547,-64.3481,-64.30489,-64.0685,-63.47741,-62.58507,-62.23246,-62.5982,-63.03048,-63.18282,-63.04669,-63.00769,-62.82505,-62.61521,-62.37286,-62.56193,-63.16054,-64.16091,-64.62544,-64.05707,-63.27881,-62.66482,-62.58852,-62.68826,-62.94951,-63.70622,-64.28787,-64.30026,-63.4969,-62.69802,-62.67148,-64.12581,-66.72567,-69.76116,-71.92377,-73.21008,-73.91486,-74.76897,-76.19992,-77.94222,-80.08,-82.63869,-85.26379,-87.51137,-89.17085,-90.61092,-91.93776,-93.20125,-94.20571,-94.95278,-95.80379,-96.44584,-96.95484,-97.10187,-96.54283,-95.86822,-95.0941,-94.20175,-93.07414,-91.71288,-90.16868,-88.23622,-86.60963,-84.57495,-81.84992,-78.89995,-75.74729,-72.71375,-69.30605,-65.65725,-61.80664,-57.92671,-54.39012,-50.19951,-45.92318,-41.564,-37.19286,-32.867,-28.9829,-25.01661,-20.89002,-16.7892,-13.1995,-9.539582,-5.990319,-2.052016,2.234861,6.320308,10.06057,13.53235,16.92454,19.89184,22.75046,25.57709,28.54255,31.64822,34.4713,36.94484,38.9419,41.01212,42.60214,43.79147,44.80745,45.69543,46.55121,47.27572,47.49817,47.69122,47.51338,47.30074,46.74836,45.74538,44.73354,43.38706,42.14833,40.85373,39.17244,37.35446,35.2991,33.46449,31.65849,29.83018,27.80039,25.70738,23.69769,21.82434,20.0493,18.23273,16.76567,15.4911,14.27046,13.29747,12.33633,11.97861,11.87296,12.10777,12.90579,13.98938,14.904,15.2067,14.40147,13.24198,12.45171,12.24009,12.18495,12.20801,11.99121,11.5451,10.70219,9.71819,9.030854,8.242867,7.507662,6.725908,6.275436,5.970529,5.500606,4.962191,4.216011,3.851656,3.376101,2.958146,2.569006,2.178348,1.930359,1.787709,1.596138,1.196578,0.7420509,0.3289717,0.2696131,0.2182769,-0.137854,0.01636174,0.2816798,0.6547092,1.162629,1.534203,2.116854,2.639073,3.193891,3.839534,4.414358,5.156417,5.651616,6.409726,7.230246,7.71953,8.003363,8.714623,9.590223,10.18938,10.61924,10.97239,11.5983,12.53243,13.6197,14.09273,14.40963,14.90365,15.61515,16.29802,16.89027,17.43175,17.80503,17.88669,18.09783,18.93381,19.92293,21.01441,21.68448,22.31027,22.69709,22.81082,22.53168,22.09578,22.11084,22.95977,24.11844,25.33013,26.53865,27.39617,28.19783,28.52366,28.89977,29.22006,29.54453,30.0295,30.26516,30.59115,31.1237,31.65511,31.7226,31.70547,31.59484,31.57718,31.49497,31.26429,31.05298,30.85566,30.79532,30.70594,30.37504,30.05954,29.44738,28.99935,28.95785,28.73382,28.55567,28.4253,28.22106,28.34949,28.33136,28.351,28.14602,28.0825,27.98173,27.95534,27.48402,27.26941,27.11078,26.91313,26.77561,26.59652,26.59596,26.76733,26.76956,26.88775,26.74143,27.0676,27.24903,27.79434,28.04664,28.37974,28.01525,27.00027,25.65575,24.76664,24.65108,25.28528,26.56253,27.87898,29.10004,30.42071,31.97148,33.97427,36.13294,38.28939,40.33751,42.39603,44.45561,46.22967,47.99367,49.87862,51.76164,53.84753,55.69645,57.14923,58.39072,59.45397,60.49521,61.33106,62.00745,62.46083,62.70023,62.53777,62.29634,61.48323,60.41603,59.09512,57.43467,55.51433,53.5749,50.77146,47.72151,44.78891,42.50864,40.28064,37.13508,33.24362,28.92205,24.78947,20.7245,16.54539,12.32938,8.77021,5.902729,2.978873,-0.704395,-4.741897,-8.850767,-13.05776,-17.15717,-21.55339,-25.61144,-29.44685,-33.02797,-36.67515,-40.60595,-44.67466,-48.35925,-52.1408,-55.74747,-59.14082,-62.44492,-65.43931,-68.12923,-70.74261,-73.33166,-75.77674,-77.9753,-79.87608,-81.58198,-83.34749,-84.86385,-86.026,-86.96224,-87.82886,-88.49493,-89.17879,-89.39466,-89.3288,-89.06569,-88.79342,-88.64045,-87.79096,-86.40906,-84.88787,-83.31293,-81.41847,-79.42093,-77.22495,-75.85054,-74.97896,-74.73505,-74.62866,-74.68058,-74.85505,-75.55725,-76.43169,-77.65898,-79.4615,-81.59955,-84.03982,-87.01811,-89.77842,-91.526,-92.28551,-92.41579,-93.04371,-93.66283,-94.2517,-94.68938,-94.71564,-94.62773,-94.26168,-93.42468,-92.29428,-91.14549,-90.0394,-88.78642,-87.16684,-84.55371,-81.66098,-79.41718,-77.16514,-74.30859,-71.01113,-67.34037,-63.69875,-59.78483,-55.6692,-51.22004,-46.52432,-42.24408,-37.49626,-32.52575,-27.61091,-22.43125,-17.38731,-12.20986,-6.92734,-1.87711,2.785523,7.527164,12.59619,17.97341,23.30021,28.34471,32.96708,37.49712,42.16726,46.89604,51.05961,54.91436,58.60014,62.6104,66.51195,70.05499,72.96006,74.73518,75.80608,77.10123,79.45957,82.47549,85.48107,88.09016,90.13461,90.99385,90.94092,90.58515,91.3286,92.93263,94.75514,95.75861,96.21098,96.31065,95.9311,94.16004,91.18586,88.69626,87.45849,86.85551,85.99128,84.95886,83.31557,81.56992,79.87758,77.91305,75.87923,74.0105,71.98533,70.32003,68.66849,67.21189,65.60883,63.98543,62.64491,61.13816,59.05282,56.49896,53.54777,49.98531,46.67159,43.44469,40.49731,37.22989,34.02958,30.88339,27.51457,23.98301,20.57531,17.73393,14.50262,11.46685,8.130074,5.276815,2.928883,0.7171266,-1.813788,-3.900802,-6.003069,-8.181998,-10.07544,-11.73489,-13.33288,-14.63973,-15.93527,-16.87993,-17.99549,-18.94704,-19.48973,-19.86767,-20.39155,-20.90518,-20.71085,-20.14398,-19.52294,-19.01003,-19.11027,-19.43391,-19.07839,-17.1646,-14.4997,-11.74951,-8.990596,-6.578231,-3.974325,-1.254307,1.456668,3.666321,4.7267,5.150902,6.501489,8.852503,11.94884,14.76805,17.41265,19.59193,21.39438,22.50498,23.65576,24.37825,24.71702,24.78517,24.25706,23.14876,21.59731,19.57149,16.97161,13.89916,11.38864,9.923542,8.764769,6.689196,3.48186,-0.5444955,-4.869752,-9.046696,-12.5871,-15.54548,-17.82929,-20.51617,-23.77357,-27.99403,-32.31419,-37.05963,-41.76665,-46.23718,-49.41229,-50.84283,-52.51576,-54.62131,-57.19021,-59.77544,-62.52031,-65.06194,-67.62651,-69.98465,-72.00049,-74.09121,-76.24497,-77.99009,-79.45512,-80.90322,-82.87919,-83.67702,-84.64139,-85.83129,-86.97689,-88.07063,-88.96531,-89.99331,-90.34584,-90.67671,-91.31292,-92.27545,-92.83742,-92.91618,-92.80061,-92.61,-91.22827,-88.71748,-86.38944,-84.26473,-83.74093,-83.96666,-83.9548,-84.08049,-84.36529,-84.97703,-86.07196,-87.2174,-88.11188,-89.06045,-90.29847,-91.74205,-93.04467,-94.27576,-95.75705,-96.98498,-98.2883,-99.68937,-100.7291,-101.7302,-102.5821,-103.6212,-104.538,-105.5215,-105.6916,-105.3437,-103.7131,-101.6928,-99.82223,-97.95042,-96.7188,-95.38284,-93.80617,-91.57369,-89.35566,-87.61624,-85.23536,-81.30992,-75.71796,-69.85733,-64.51603,-59.52205,-54.68275,-49.385,-43.90435,-38.30788,-32.39125,-26.8963,-21.05817,-15.06295,-9.105592,-3.373477,2.880538,9.30199,15.58525,21.6095,27.46803,33.10581,39.00509,45.03166,50.29067,55.75658,60.98963,66.10553,71.0184,75.66141,80.1839,84.56468,88.79641,92.80352,96.42982,99.62249,102.9429,105.9941,109.0081,111.4523,113.0227,114.8945,116.4338,118.1821,119.2916,119.8844,120.0373,120.2102,120.7947,120.9678,120.7611,120.5233,120.1412,119.5896,118.6846,117.9816,116.5529,115.5547,113.9339,110.9089,106.9479,103.3228,101.3855,100.9575,101.6618,102.8613,104.7392,107.383,110.892,114.7337,119.1219,122.8079,125.1268,127.1013,128.5175,130.6299,133.0777,135.1031,137.0835,138.5239,139.6679,140.6141,141.6501,142.2429,142.6468,142.2562,141.7612,141.0963,140.7269,139.8332,138.3544,136.3778,134.0726,132.007,129.7144,126.3698,122.8567,119.2489,115.8315,111.8819,107.7263,103.2841,99.15021,94.44472,89.25476,84.03756,78.50035,73.07517,67.27508,61.60578,56.13944,50.50444,44.71656,38.89193,33.31793,27.35157,21.27916,15.70986,10.22781,4.842684,-0.4894666,-6.127117,-11.13496,-15.60672,-20.07123,-24.54794,-28.62255,-32.37591,-36.29342,-39.96168,-43.50026,-46.43898,-48.9842,-51.09526,-53.1221,-54.76923,-56.71884,-57.65928,-58.13589,-58.32957,-58.49395,-58.30746,-57.57331,-56.63307,-55.17316,-53.75341,-52.08554,-49.94255,-47.25642,-44.83797,-42.27712,-39.62694,-36.53268,-33.06819,-30.14159,-27.28821,-24.41097,-21.26549,-17.9091,-15.20179,-13.23585,-11.42618,-10.19208,-9.640908,-9.794454,-10.04889,-10.2498,-10.67102,-11.94679,-13.24205,-13.29777,-11.78928,-9.672219,-7.672503,-6.602914,-6.590947,-7.179662,-6.873288,-5.407383,-4.170019,-3.117773,-2.203053,-1.405761,-0.3307716,0.2825406,0.6844377,0.3944685,0.2377521,0.3138961,0.2495362,-0.06502552,-0.6685662,-1.516807,-2.616474,-3.467533,-4.507597,-5.535517,-6.707918,-7.931034,-9.471651,-11.01372,-12.7048,-14.33277,-15.82329,-17.49285,-19.3507,-20.6876,-22.45126,-23.8246,-25.09306,-26.16454,-27.52909,-29.17083,-30.85648,-31.82041,-32.61317,-33.89613,-35.03148,-36.16779,-36.61846,-37.249,-37.94453,-38.6436,-39.12954,-39.24934,-39.4709,-39.71712,-39.86209,-39.76829,-39.56143,-39.18532,-39.27236,-39.05283,-38.74818,-38.43649,-38.00228,-37.80311,-37.59498,-37.27926,-36.50293,-35.81865,-35.53019,-35.34589,-34.64958,-34.07109,-33.81294,-33.45909,-32.61101,-32.05431,-31.23992,-30.74723,-30.19809,-29.60567,-29.21288,-28.80068,-28.40279,-27.72585,-27.10552,-26.86424,-26.37348,-26.25353,-26.5998,-25.87167,-25.47294,-25.73979,-25.60471,-26.01521,-26.61398,-27.49499,-28.57257,-29.69205,-30.82859,-32.27851,-33.38578,-33.96208,-34.39392,-34.47552,-35.11418,-35.76088,-36.43751,-36.95898,-37.76379,-39.00307,-40.22053,-41.14669,-41.80521,-41.80572,-40.88673,-39.94734,-39.93161,-39.71122,-39.36009,-39.3128,-39.25854,-39.20149,-39.15352,-39.01486,-38.79676,-38.87449,-38.63784,-38.40857,-37.99278,-37.94538,-37.80254,-37.38356,-37.18502,-36.94909,-37.22004,-37.30988,-37.09641,-37.19993,-37.35399,-37.81052,-38.23711,-38.08312,-38.22747,-38.03411,-38.23153,-38.44144,-38.41821,-38.48653,-38.27763,-37.14506,-35.27237,-34.11798,-34.03458,-34.6514,-35.38413,-35.83801,-35.88684,-36.50981,-37.04454,-37.95365,-38.97691,-39.68282,-40.04555,-40.79766,-41.47808,-42.61457,-43.36189,-43.78206,-44.16628,-44.55402,-44.84192,-44.79132,-44.61417,-44.33499,-44.15166,-43.50116,-42.72855,-41.89643,-40.81956,-39.36308,-38.16022,-36.69854,-34.71257,-32.53778,-30.12932,-28.1953,-25.75027,-23.26528,-20.33514,-17.69179,-15.2488,-12.04748,-8.547525,-5.062983,-1.939661,1.290752,4.580362,8.03652,11.8741,15.77514,19.03616,22.18734,25.83255,28.9095,32.21006,35.29734,37.9998,41.20647,44.15532,46.91434,49.58683,52.1054,54.65959,57.66695,60.27754,62.47068,64.59789,66.81595,68.68121,70.16958,71.70385,73.35611,74.80119,76.02541,77.05735,77.58361,77.8046,78.68163,78.99826,79.11473,78.67823,78.71376,78.17114,78.24626,77.6593,77.0039,76.27914,75.51347,74.77163,72.80925,70.06694,67.41017,65.45065,64.46005,63.09127,62.15121,61.40759,60.87591,60.94963,61.03386,61.19234,61.95657,62.55751,64.08105,65.17057,66.48688,68.35807,70.79141,73.90078,76.27353,77.49435,77.50031,77.75432,78.57436,79.55436,79.89815,79.71016,79.21429,78.97189,78.27052,77.39093,76.06576,75.16125,73.48706,71.53313,69.4578,67.9141,66.08056,63.90605,61.61281,58.76245,56.04527,53.36933,50.5051,47.53618,44.56818,41.23234,38.18642,35.25662,31.95885,28.31838,24.70969,21.28352,17.52073,12.98376,8.231743,4.499972,1.360451,-0.7713336,-2.800055,-4.85287,-6.539026,-8.242926,-9.384179,-11.27579,-13.11169,-15.12763,-17.49096,-20.78754,-23.51692,-24.92337,-25.84952,-26.91436,-27.818,-28.51475,-29.57193,-30.52277,-30.94759,-31.47545,-32.02209,-32.64514,-33.7929,-34.76967,-35.37324,-36.12479,-37.08514,-37.86394,-38.61625,-38.99677,-39.46344,-40.32105,-41.17752,-41.76067,-42.40896,-42.90902,-43.94877,-44.74031,-45.28411,-45.99047,-46.41582,-47.11511,-47.93312,-49.20968,-49.73639,-51.35926,-53.36857,-55.50113,-57.20125,-58.91464,-61.36315,-63.21853,-64.18474,-64.24916,-64.17105,-64.49718,-64.90376,-65.1569,-64.82595,-64.19056,-63.46715,-63.16235,-62.56265,-61.69575,-60.04792,-58.61236,-56.9311,-55.31372,-53.06122,-50.71012,-48.39096,-46.07032,-43.81872,-41.25304,-38.34552,-35.59297,-33.51387,-30.95278,-28.21598,-25.18403,-22.39275,-19.68823,-17.40405,-14.38496,-11.81772,-8.73945,-5.942308,-3.796731,-1.721855,0.7032469,2.973804,4.538979,6.183463,7.844622,9.60115,11.16561,11.94376,12.36429,12.28512,12.15451,12.13179,11.9088,11.14351,10.45089,9.787187,9.387739,10.05818,11.30689,12.64433,13.6083,14.44978,14.67753,14.92757,14.45082,14.20438,14.04226,13.70935,12.73199,11.84523,12.21451,14.35669,15.61827,16.33005,16.52607,17.26041,18.41555,18.90764,19.15254,19.59424,20.40334,21.25335,21.44989,21.43794,21.86304,23.10952,23.84392,24.23698,23.95089,24.26066,24.90806,24.88107,24.58534,24.2239,24.08711,23.44525,23.36552,23.27669,22.96565,23.09389,22.83932,22.85378,22.02219,20.7366,19.73843,18.64473,16.53616,14.9843,14.44361,14.34491,14.56061,14.7277,14.69075,14.4489,14.56613,14.93481,15.12355,15.14256,14.87261,14.98903,15.19652,15.22926,14.66843,14.28123,14.40746,14.51326,14.61425,14.88405,14.93063,14.56316,13.24852,12.03066,11.47054,11.63638,12.21674,12.93871,13.84589,14.91506,16.04973,17.32814,19.21168,20.90581,22.79867,24.40483,26.33894,28.40631,30.63816,31.99122,33.45378,35.46582,37.52005,39.30914,40.98783,42.51038,43.88128,45.44579,46.39426,47.30511,47.92686,48.32244,49.45029,50.61903,51.27386,51.26845,51.35063,51.69804,51.6914,51.41023,50.71449,49.63345,48.37233,47.65605,46.23592,44.24927,41.9659,40.69312,39.10173,36.56443,33.85732,31.38777,29.09026,26.64892,23.49127,20.75724,17.71174,14.90012,12.21826,9.400525,6.404671,3.561399,0.790178,-1.790941,-4.827732,-7.276006,-10.10161,-12.37711,-15.52527,-18.32086,-21.12077,-23.75893,-26.51873,-29.5009,-31.89276,-34.36873,-36.5498,-39.11804,-40.91739,-42.75098,-44.91961,-47.20071,-50.01752,-52.12653,-54.2736,-56.40432,-58.79166,-60.98653,-61.96275,-61.71086,-61.45179,-61.41715,-61.48089,-61.41746,-61.12176,-60.44237,-60.25678,-58.77276,-56.66622,-54.48767,-53.42591,-52.91461,-52.74601,-52.74616,-52.5994,-52.96071,-53.44697,-54.76019,-56.27326,-57.63565,-59.91347,-62.89151,-65.55159,-66.71196,-66.89426,-68.02028,-69.15309,-70.82236,-71.60253,-72.19008,-72.85977,-73.94513,-74.53306,-74.86789,-74.69614,-74.90436,-74.98005,-74.86922,-74.33198,-73.75189,-72.5738,-71.56687,-70.69051,-69.80091,-68.3294,-67.03546,-65.50668,-63.62227,-61.83335,-59.40331,-57.35311,-55.09131,-52.59562,-49.72327,-46.78508,-44.23012,-41.46222,-38.82344,-36.00972,-32.77231,-29.71965,-26.85965,-23.99071,-20.76597,-17.71758,-14.66291,-11.90576,-9.475319,-7.173403,-4.749594,-2.401368,0.03544342,3.014532,6.061943,9.264544,12.42521,15.3204,18.34422,21.06659,23.79812,25.19442,26.4918,28.51531,30.6313,32.85755,34.93222,36.08117,37.184,37.90159,38.60294,38.784,38.24577,37.61729,36.61035,35.8101,34.31582,32.09001,29.19386,26.7434,24.40467,21.37865,17.89359,14.20432,10.90164,7.288947,3.564774,-0.4472463,-4.622473,-7.170154,-9.2906,-12.0778,-15.27155,-18.69243,-21.05607,-22.97136,-24.5967,-26.32623,-27.25365,-28.85587,-31.02491,-34.07208,-36.16192,-37.91033,-39.51282,-40.75588,-41.91888,-43.15506,-44.88855,-45.88041,-45.93684,-46.39783,-46.44375,-46.70588,-46.35343,-45.70506,-45.076,-43.72228,-42.99006,-41.49129,-38.95627,-36.58942,-34.57368,-32.04653,-29.31537,-26.43839,-23.54898,-20.51424,-17.3259,-13.92594,-10.71954,-7.182537,-3.255392,-0.2285424,2.543512,5.749577,9.74105,13.9283,17.80348,21.64278,25.9929,30.45494,34.89561,39.15568,43.27565,47.38892,51.70256,56.05549,59.42653,63.05674,66.39017,69.70269,71.93231,72.384,72.57828,73.74497,75.62997,77.22838,79.01096,81.10349,83.55748,86.17637,88.8943,91.40388,93.67418,96.06178,98.18057,99.9216,101.1739,102.0022,103.1215,103.8126,105.4642,106.8619,107.5193,108.0709,108.0708,107.9871,107.1119,106.045,104.9969,103.5914,102.0253,99.78758,97.07543,94.92605,92.42301,89.36626,86.05818,83.43081,80.5465,77.19474,73.71359,70.00348,66.31714,62.82448,59.74902,56.15616,52.8298,50.40946,46.51618,42.12296,37.81392,33.81822,30.33799,26.65627,22.97275,19.26828,15.21306,12.01701,9.072627,6.147923,3.612617,0.5109681,-2.135887,-4.235565,-6.101892,-8.293563,-10.0086,-11.15697,-11.91906,-12.51228,-12.87039,-13.50538,-13.62553,-13.77993,-13.81258,-13.32201,-12.52464,-11.21949,-9.265623,-8.061249,-6.40744,-4.715379,-2.584,-0.7245078,1.025572,3.445822,5.931189,8.175429,10.67951,13.25242,16.09891,17.37588,19.69308,22.42869,26.09392,28.48525,30.61675,32.72382,35.03916,37.6462,39.3235,40.52277,41.41115,42.41774,43.14202,43.11127,42.17067,41.00525,39.56859,37.58808,34.89824,31.91138,30.42693,29.86897,29.03919,27.74882,26.01255,23.79393,22.03813,20.37254,18.46705,16.19769,13.94965,11.69528,9.462969,7.267345,4.186357,1.413537,-1.205349,-3.720389,-6.282708,-9.655935,-12.73536,-15.60216,-18.14194,-20.93971,-23.95927,-26.91264,-29.32751,-32.12049,-34.49764,-37.20731,-39.91694,-42.34877,-44.43025,-46.68872,-48.96234,-51.1257,-53.56398,-55.44669,-57.0074,-58.48176,-60.35025,-62.10606,-62.88367,-64.03672,-64.95559,-66.25648,-67.4095,-67.63431,-68.07804,-68.74515,-69.73705,-70.36238,-70.63492,-70.50158,-70.73102,-70.78796,-71.30078,-71.81978,-71.77254,-72.23044,-71.61127,-70.90814,-70.52266,-69.73575,-69.44691,-68.94032,-68.56337,-68.1739,-68.57187,-69.80412,-71.47787,-72.89893,-74.30569,-74.79311,-76.11403,-77.99076,-80.01924,-81.6888,-83.48168,-85.54488,-87.55414,-89.70779,-90.89377,-91.47299,-92.30989,-93.18056,-93.89992,-94.70235,-94.6752,-95.03908,-95.04383,-95.24534,-94.66419,-93.69633,-92.76177,-91.96662,-90.34975,-88.3121,-86.65352,-84.44696,-82.33726,-79.7464,-77.00587,-74.14466,-71.25069,-68.37798,-64.78024,-61.61909,-57.86789,-54.30791,-50.41899,-46.41635,-42.30932,-37.65513,-33.01264,-28.4882,-24.12183,-19.44414,-14.75603,-10.28231,-5.78167,-1.376995,3.09792,7.627925,11.75078,16.44787,19.89683,23.96204,28.06213,31.89664,35.53156,38.88569,42.46204,45.51183,48.43338,51.12103,53.48296,55.44083,57.70154,59.44304,60.68926,61.98276,63.1812,63.94135,64.5263,64.863,65.03688,64.7886,64.93715,64.50336,63.07966,61.95628,61.5313,60.23692,58.75624,57.04582,55.51889,53.43924,52.02831,50.15107,46.90794,44.01504,41.43612,40.40587,39.22611,37.82632,36.90563,36.7056,37.07695,37.58971,38.29346,37.73115,37.04819,37.42113,38.58663,39.92582,40.27981,39.97553,40.06165,40.22296,40.43883,40.38209,39.92599,39.96823,39.23937,38.29929,37.43057,36.27278,35.42703,34.67181,33.4838,31.90912,30.57687,29.29982,27.81765,26.09534,24.28676,22.2038,20.57239,18.76218,16.52875,14.32853,12.49398,11.01193,9.106987,7.148647,5.495976,3.514955,1.79671,0.2891857,-1.293175,-2.840345,-4.645526,-5.919223,-6.638258,-7.805106,-9.123481,-10.48276,-11.19559,-11.93184,-12.62478,-13.69517,-14.23298,-14.31222,-14.12633,-14.15034,-14.47958,-14.44326,-14.24183,-13.99918,-13.41122,-13.27618,-12.97901,-12.22716,-11.47303,-10.6705,-10.40532,-9.090182,-8.00442,-6.95681,-5.712681,-4.835485,-3.668321,-2.421924,-1.143448,0.5344163,1.476212,2.857553,4.331241,5.842645,7.463485,8.482162,9.607163,10.96522,11.98095,13.22642,13.96065,14.30627,15.32305,15.94751,16.04469,16.43642,16.52146,15.93548,15.895,15.4419,14.17715,12.78776,12.02579,10.63711,8.704627,8.023444,7.774075,7.905492,7.488605,6.564195,5.587713,4.478272,3.495769,2.543621,1.146574,-0.1428851,-0.4378649,-0.4319927,-0.07318305,-0.2625245,-1.073411,-1.864425,-1.822854,-2.158442,-2.438132,-3.14791,-3.624859,-3.615068,-4.009053,-4.177059,-4.458419,-5.06807,-4.936537,-5.058689,-5.295827,-5.416953,-5.480907,-5.594613,-5.4974,-5.585349,-5.539705,-6.201646,-6.004516,-6.111564,-5.856875,-6.010159,-6.014375,-6.111632,-5.90928,-5.810374,-5.938894,-6.210212,-6.100899,-5.638742,-5.481268,-5.649941,-5.599303,-5.635008,-5.414579,-5.700785,-6.001569,-6.34909,-6.836941,-7.248814,-7.338142,-7.581476,-7.637626,-7.821838,-7.546022,-8.091014,-8.401983,-9.619148,-11.50742,-13.16396,-14.12511,-14.91781,-15.32828,-15.41737,-15.51901,-14.71194,-14.16312,-13.90447,-12.9868,-11.6346,-10.31564,-9.748913,-8.53388,-7.569752,-6.638472,-5.237923,-5.047266,-2.800807,-0.3050724,1.682384,3.631231,4.185278,4.305754,3.750421,3.054806,2.563998,0.8565577,-1.214647,-3.312552,-5.847183,-8.693983,-10.57057,-13.38819,-17.18775,-20.62917,-24.48049,-28.19218,-31.95107,-35.61945,-39.3535,-43.58615,-47.45081,-51.27125,-54.74,-58.12122,-61.77791,-65.06601,-68.36741,-71.37087,-73.70995,-75.97458,-78.08491,-79.84296,-81.76595,-82.68859,-83.44096,-84.56005,-84.91299,-85.12632,-84.84153,-83.90132,-82.72169,-81.69093,-79.89474,-77.71158,-74.83646,-72.3867,-69.70043,-66.42492,-62.58902,-58.26173,-53.80238,-49.76162,-45.24292,-40.02134,-35.0243,-29.31997,-24.01776,-18.41331,-12.39227,-6.216367,-0.1909334,5.880004,11.55788,17.94645,24.24228,29.83247,35.88646,42.09217,48.07468,53.69794,59.7358,65.19464,70.12178,75.23509,79.64847,83.2681,85.20469,86.28913,87.74054,89.79621,91.61209,93.50413,95.30348,96.58803,97.48872,98.43161,97.76202,97.82681,98.93665,100.1394,101.2401,101.8973,101.751,101.9804,102.5505,102.0666,101.1679,100.7378,100.465,99.73295,99.01931,98.76021,97.87131,97.74638,98.07722,98.18084,99.1683,98.33888,96.59582,95.28968,92.76744,90.2991,87.89225,85.34414,83.55703,80.78607,77.71286,74.50956,71.66889,69.1975,66.73593,62.52085,58.20376,54.5961,51.26308,47.39594,43.29568,39.09069,34.88548,30.97166,27.18966,22.91437,18.68535,14.23445,10.51542,6.416086,2.51861,-1.219436,-4.934812,-8.765888,-12.07253,-15.41311,-18.8811,-21.90194,-24.79305,-27.1157,-29.48535,-32.13016,-34.10156,-35.68852,-37.38774,-38.66139,-39.44317,-40.40511,-41.48485,-42.93601,-43.32573,-43.23972,-42.2775,-40.83563,-39.43063,-37.6735,-35.95068,-34.33043,-33.07228,-30.94682,-28.60362,-26.28355,-23.07811,-20.20786,-16.69095,-14.16513,-11.43437,-8.59769,-5.976076,-3.733702,-1.464398,-0.4421277,-0.470635,-0.8148622,-0.3095847,-0.2196197,-0.8881304,-2.197219,-3.848853,-5.352995,-7.591133,-8.893176,-9.551861,-9.16728,-9.214195,-9.497093,-10.57354,-11.90679,-12.73282,-13.75397,-15.58331,-16.89837,-18.43707,-20.11954,-21.52641,-23.44709,-26.0147,-27.96592,-29.94572,-31.93182,-33.96343,-35.6794,-37.76284,-39.86113,-41.25515,-42.81651,-44.85838,-46.26329,-47.5856,-48.88692,-50.07661,-51.21048,-52.12068,-52.76449,-53.67246,-54.27937,-54.56272,-55.56847,-56.44331,-56.91145,-56.34382,-55.83384,-54.44393,-53.30192,-51.3572,-49.52969,-48.49462,-47.90081,-46.21576,-43.82528,-41.12148,-38.12974,-35.19711,-31.76819,-27.86916,-24.12879,-20.34343,-16.73844,-13.10967,-9.614754,-6.17493,-3.750653,-1.382999,1.28025,4.253258,6.206141,8.160708,9.787013,10.83887,11.89299,12.98223,13.239,13.25051,13.18073,12.91469,12.55273,10.92492,9.623843,8.306051,7.545392,7.660468,6.889284,6.169098,4.899348,3.962121,2.443274,0.8406326,-0.9984239,-2.459222,-2.516319,-2.512213,-2.684133,-3.156716,-4.943823,-5.861042,-5.754321,-4.812639,-5.741838,-6.687306,-7.908614,-10.20043,-9.832414,-12.02209,-9.550954,-9.162559,-10.69498,-7.913844,-10.56285,-9.605296,-5.511783,-5.604796,-2.188535,0.8512833,3.966319,6.834608,10.15068,15.17487,16.6304,21.4243,24.84183,28.51584,35.06379,37.26953,39.83855,43.21038,47.97723,49.31799,50.15632,53.94809,55.68111,58.84216,58.63592,58.70722,60.37953,61.94695,64.15185,62.25899,64.95783,63.57141,63.14209,62.0293,59.62152,58.88181,56.31999,55.89412,53.31145,53.0849,51.26754,50.57141,50.71212,49.72462,47.50211,49.68777,49.53755,49.10519,47.60496,46.25283,46.29777,47.41118,47.34452,48.9553,49.04347,48.91806,50.08859,51.20468,51.29247,50.69614,51.32128,50.50957,49.72585,49.74165,49.37774,47.22372,47.26652,47.265,45.37542,44.2503,42.15557,41.18178,40.23192,38.5312,36.55282,34.28562,32.35217,30.1485,28.47839,26.13635,23.91214,22.19765,20.48881,17.89936,15.25091,12.46227,9.872709,7.948392,4.85662,2.492292,-0.6004322,-3.137555,-5.187329,-8.003785,-10.736,-14.25097,-17.28718,-19.30301,-21.08863,-24.81791,-29.6348,-33.64884,-37.66062,-41.1793,-43.83556,-49.67927,-52.60851,-58.75526,-62.00076,-63.17178,-68.62317,-68.18726,-68.97841,-72.00156,-70.89975,-72.28578,-73.11935,-73.55141,-72.77045,-71.62319,-72.68983,-69.76056,-69.63291,-67.63213,-65.71396,-67.53598,-66.03317,-64.30239,-62.45762,-62.18267,-58.71859,-55.22742,-55.33413,-54.05294,-55.24622,-53.75935,-53.26317,-53.80658,-54.62801,-57.55454,-56.96713,-61.14586,-62.75506,-64.99267,-67.14633,-67.81015,-70.03412,-70.23707,-72.36193,-71.89086,-73.8078,-74.39898,-75.36369,-75.4525,-74.50889,-71.99268,-73.09617,-73.34241,-72.37734,-70.53786,-69.20923,-68.03091,-66.82083,-64.17349,-63.34122,-60.63085,-58.12826,-55.85693,-54.03353,-51.27827,-47.81444,-45.85161,-42.58283,-38.96851,-35.75643,-33.13302,-28.32258,-25.68163,-22.991,-19.14415,-15.10086,-10.96399,-8.52678,-5.23405,-1.226625,1.853233,5.026004,7.998089,11.17284,14.58664,17.41608,20.619,22.99376,25.14164,27.80001,30.16475,32.45857,34.10654,35.71633,37.86783,39.37655,40.90219,41.56218,42.43844,43.33763,43.64238,43.72335,43.32556,43.42871,42.87223,42.59848,41.97006,40.63911,39.22552,37.87938,35.75783,33.44008,31.58735,30.20344,28.37034,26.92425,25.51608,23.696,22.09209,19.50494,16.97022,14.66003,12.90322,12.65521,12.25835,11.62597,10.88849,10.48627,11.11792,11.54103,11.79596,12.50675,13.46947,14.57649,15.82017,15.6875,14.75939,14.12966,13.42501,12.42793,11.33311,10.20151,9.089382,7.826828,6.490816,5.17816,3.662036,1.292033,-0.2005982,-2.060794,-3.642606,-5.238394,-7.084927,-9.061427,-10.56887,-11.94674,-13.48183,-14.90938,-16.41785,-17.24722,-18.39742,-19.76748,-21.35943,-22.04584,-23.0455,-24.06171,-24.60935,-25.83116,-26.57674,-27.09935,-27.16657,-27.69039,-28.15928,-28.56429,-27.77764,-27.8864,-27.86842,-27.22369,-26.66476,-25.50776,-25.02701,-24.10537,-23.12178,-21.77589,-20.48213,-18.63149,-17.21377,-16.05987,-13.9839,-12.3293,-10.44515,-8.860884,-6.502348,-4.137676,-1.762652,-0.0863485,2.667541,4.407942,6.063746,7.125207,8.750988,10.49998,12.88198,16.03258,18.31302,21.55616,24.31655,26.66398,29.79258,32.29698,34.87595,37.38991,39.14359,40.73403,42.1736,43.37135,43.85501,43.90695,43.65266,43.55254,43.29487,43.27815,42.99371,42.97404,41.82494,41.13864,40.42144,38.40764,36.40719,34.99749,34.37009,34.2413,34.57537,33.90784,33.36675,32.97888,32.47396,32.40664,31.56163,30.76644,30.23617,29.49488,28.3022,27.57061,27.38557,26.23078,26.05546,25.42779,24.13998,23.872,23.47033,23.28901,22.66604,22.59777,22.11114,21.94016,22.14793,21.14325,21.4075,21.44727,21.75584,21.74475,22.32144,22.97962,23.43914,24.22954,24.95149,25.49824,26.16102,27.59651,28.08384,29.3081,30.82991,31.86086,33.17648,34.75449,36.25836,37.76671,39.21936,40.17357,40.37773,41.1291,42.01986,43.44181,45.67412,47.51984,49.61473,52.73551,54.96553,57.64999,60.06357,62.93622,65.43899,67.75259,69.83506,72.55659,75.12439,76.96501,78.31872,79.75287,81.30959,81.75959,82.61488,82.76594,82.28047,81.66886,80.38438,78.66064,76.80351,75.60798,74.90641,74.46575,73.41609,71.99202,69.92658,69.18634,66.96592,64.78054,62.52838,59.92209,57.25457,54.47902,50.91922,47.29779,43.90013,40.34524,36.54319,32.76977,28.28427,24.33293,19.98812,15.60123,10.91396,6.54317,1.869853,-2.5477,-6.868201,-11.42166,-16.40952,-20.17959,-24.87299,-28.46211,-32.89978,-37.3962,-40.85429,-44.48835,-47.9344,-51.93197,-55.93428,-58.84445,-61.86613,-64.94902,-68.15637,-70.6027,-73.20343,-75.68059,-77.17632,-79.25697,-81.14922,-82.32606,-83.97339,-84.70041,-85.81782,-86.70845,-87.9611,-88.29342,-88.2943,-88.80742,-88.23915,-88.65653,-87.84736,-87.37988,-86.25821,-86.25875,-86.24144,-83.67595,-81.72476,-80.04589,-78.36244,-78.40069,-78.00977,-77.49179,-77.83614,-79.12644,-80.31317,-81.9846,-83.98078,-85.94396,-89.4434,-92.75715,-95.84345,-97.37662,-99.33041,-101.2633,-102.4278,-103.6591,-105.583,-106.6763,-108.0417,-109.4019,-110.4998,-110.9859,-111.8331,-112.4237,-112.6571,-112.7489,-111.9339,-111.7286,-111.2511,-110.0049,-108.8925,-107.7462,-105.9987,-104.0551,-102.547,-100.5702,-97.8403,-94.73173,-91.86064,-88.54044,-85.54825,-81.53893,-77.80776,-73.77268,-70.08303,-65.21084,-60.71709,-56.75436,-52.32171,-47.65306,-42.91162,-37.87744,-33.19518,-28.29034,-23.36099,-18.34862,-13.12452,-8.243878,-3.549789,1.278104,5.975774,10.92911,15.56826,20.31931,24.68406,28.89904,33.39955,37.60658,41.42801,45.18101,47.93493,51.19408,52.61484,54.82107,57.41854,60.44224,63.05452,65.54042,68.37351,70.24142,71.81578,73.68741,74.88057,75.86491,75.85874,76.41139,76.63618,76.11125,75.53213,74.46922,73.4,72.3816,71.12384,69.50794,67.95228,66.19442,64.82044,63.66911,61.95351,60.1138,59.45822,57.83485,57.21528,56.14115,56.15856,56.86138,55.23494,54.27586,52.8227,50.88243,49.30138,48.06438,46.4111,44.20682,42.89929,41.57097,40.15108,39.14655,37.90644,36.7677,35.65208,35.47118,34.61957,34.85299,34.02626,33.67555,32.52279,32.84591,32.75412,32.00328,31.37088,31.11903,30.90102,30.96335,30.62493,30.48555,31.17128,31.00899,31.03302,30.82331,30.5848,30.71566,30.76716,30.95117,30.57471,30.75434,30.84179,30.69617,30.54174,29.85886,29.50568,29.80998,30.22871,30.63446,30.37081,30.97399,30.64413,30.00771,29.96847,29.09934,28.0974,27.98403,27.91526,27.69542,27.79373,28.09531,27.85158,27.22612,26.90003,26.34022,25.18575,24.00802,22.60172,20.95763,18.85237,16.56599,14.32311,11.90612,9.227708,5.613593,2.393169,-0.2772765,-3.031898,-4.794867,-5.646748,-7.504704,-9.708899,-11.11194,-13.2354,-15.45182,-17.40133,-19.53285,-21.57595,-23.86854,-25.83878,-27.21749,-29.28319,-31.08369,-32.54491,-33.94948,-35.57046,-36.92286,-38.27913,-39.22181,-40.54,-41.81277,-42.54478,-43.35505,-44.58825,-45.3821,-46.08714,-46.95614,-47.39904,-48.21784,-48.39762,-49.064,-49.83867,-49.75217,-50.17161,-50.74704,-50.9388,-50.64056,-51.1357,-50.62677,-50.13605,-50.24551,-50.20281,-49.41323,-48.6526,-48.79698,-48.49573,-47.91268,-47.42372,-46.2389,-46.75013,-46.16256,-45.96812,-45.38438,-45.59647,-45.36681,-45.3594,-45.0328,-44.69504,-44.69902,-45.11855,-45.07273,-45.63463,-45.97921,-46.03805,-46.83,-47.58265,-48.71893,-49.41417,-50.09179,-51.28507,-52.3406,-54.16417,-55.43015,-56.45571,-57.99402,-57.21038,-56.59328,-56.41875,-56.82485,-57.66493,-58.5206,-60.57261,-62.55414,-64.22726,-66.49803,-68.00551,-69.36643,-71.18473,-72.22918,-73.28899,-75.20677,-77.75926,-79.31393,-80.7788,-82.60858,-84.29964,-86.24197,-87.42364,-88.22176,-88.96303,-90.09157,-90.18068,-90.08631,-89.95886,-89.48177,-88.18977,-87.81404,-86.45436,-84.42137,-81.74614,-79.46145,-76.69946,-73.67211,-70.0561,-66.34817,-62.64026,-58.09001,-52.98631,-48.36147,-43.08527,-37.87891,-32.2724,-26.38595,-20.09058,-14.25516,-7.580967,-0.8119053,5.431421,12.47243,19.00843,25.97273,32.4473,39.84498,46.23868,53.35312,59.92492,66.46589,73.05195,79.599,86.30378,92.72066,98.59673,104.8898,110.0923,115.9956,121.6107,126.4352,131.5942,136.1278,140.1227,144.0502,147.8841,151.5821,154.4171,156.7998,158.9396,158.9113,157.7625,157.0573,156.4572,156.7208,157.2719,158.1069,159.306,160.7297,162.1089,163.0568,163.9127,165.206,165.7154,166.4842,166.6757,166.9884,166.7954,166.3775,165.9529,165.3471,164.2805,163.8606,162.6645,161.588,159.8616,158.8745,158.0931,157.0227,156.6862,154.3018,151.4823,148.5237,144.7337,141.6725,137.0206,132.1878,127.912,122.7877,118.159,112.7544,107.3201,102.0216,95.86234,89.45735,82.7117,76.6597,70.03265,63.53734,56.81366,49.56943,43.19281,36.19859,29.36156,22.33362,15.8601,9.293164,2.054129,-4.207179,-10.19245,-17.11703,-22.55037,-27.90901,-33.2514,-38.17942,-43.34402,-48.27607,-52.89878,-57.86209,-62.20304,-65.72127,-68.91412,-71.33818,-72.90336,-74.28925,-74.82781,-76.23691,-77.22487,-77.42794,-77.23531,-76.45135,-75.38218,-73.89312,-71.4045,-69.15431,-66.71828,-64.54047,-62.49892,-59.40585,-58.13736,-56.54652,-54.59188,-51.89697,-48.94986,-46.67495,-44.3996,-41.49151,-39.70253,-37.09802,-35.12541,-33.71691,-32.79974,-32.77258,-31.95755,-32.67522,-34.07157,-36.2201,-38.9929,-42.03113,-46.81579,-51.45066,-55.07435,-57.02352,-58.79204,-60.80823,-62.5764,-64.11032,-66.06896,-67.96128,-69.13737,-71.3773,-73.05415,-74.04391,-75.89786,-76.61734,-78.18408,-79.17635,-79.98169,-80.69163,-80.82732,-81.65441,-81.91035,-81.64215,-81.924,-81.63237,-81.49362,-80.87006,-79.85801,-78.79774,-77.67491,-76.03351,-74.73249,-72.84421,-70.6673,-67.98001,-66.35703,-64.05756,-61.05212,-58.38266,-55.0628,-52.24448,-49.24019,-45.94336,-42.42407,-39.19171,-35.85698,-32.61891,-29.07628,-26.03512,-22.56271,-19.6993,-16.54396,-13.90383,-10.66519,-7.517736,-4.662522,-1.486209,0.1762339,3.39321,5.699541,7.325389,9.335432,10.95797,11.77157,12.77164,13.13463,13.52991,13.83565,14.24284,15.45003,16.56105,17.76211,18.32907,19.02595,19.34296,19.94442,18.81729,18.51039,18.90942,19.63727,21.45542,22.1284,22.95002,24.59454,25.55633,26.01355,26.38571,27.09952,27.16085,27.62163,28.00918,29.60012,30.22333,29.70869,30.46036,31.67726,32.67853,33.04083,34.54686,36.177,37.25426,38.44312,39.4304,40.96772,41.78258,42.90994,43.7712,44.59449,44.72197,44.96832,45.22763,45.25893,43.98883,44.45929,43.77286,42.98197,42.54036,41.26684,40.30698,39.45117,37.67396,37.23454,36.41256,35.06012,34.3882,33.0174,31.20556,29.21768,28.56379,27.94002,26.23844,25.78868,24.70418,24.06763,23.35247,21.83573,21.11724,20.9991,20.81655,20.13097,20.58285,21.02366,21.72974,22.7089,23.6748,25.29301,26.5365,28.24763,30.05206,31.0507,33.20575,35.1269,36.53144,38.30911,39.67296,41.27548,42.77223,44.17254,45.24839,46.75293,47.5616,48.94168,49.77375,50.90119,51.86289,52.24744,52.75985,52.07738,52.69328,52.31164,52.09846,51.38156,50.41325,48.82296,47.64432,46.12419,43.90007,41.94251,39.16755,36.84831,33.48661,31.09388,27.57117,24.41818,20.32434,16.58155,12.10115,8.592883,4.943232,2.319155,-1.00152,-4.290771,-8.182124,-11.79601,-15.17678,-19.35245,-23.28773,-27.29919,-31.46327,-36.0353,-40.57743,-44.20575,-48.51806,-51.9325,-53.92524,-56.41874,-58.60367,-60.39885,-61.73139,-63.69298,-65.07529,-65.8543,-67.23521,-67.71345,-68.59377,-69.27423,-69.3624,-69.73625,-70.52469,-70.41454,-71.51549,-69.28056,-68.22717,-66.39579,-66.89309,-66.59779,-65.93578,-66.57059,-66.8597,-66.95482,-67.4102,-67.45873,-68.29989,-69.32928,-70.17874,-71.60739,-72.83903,-72.75249,-72.68704,-74.2738,-75.17949,-75.766,-76.82525,-78.08645,-79.63694,-80.81976,-81.17569,-81.23219,-81.86745,-82.47081,-82.27017,-81.68638,-81.58443,-81.06796,-80.55044,-79.54883,-78.31143,-77.20868,-76.04048,-74.65324,-71.81089,-70.45138,-68.30579,-65.7278,-63.268,-60.80616,-58.03569,-55.4793,-52.30645,-49.74264,-46.39188,-43.04394,-39.86907,-36.46337,-32.60041,-29.33732,-25.71673,-22.3534,-18.80599,-16.63216,-14.06879,-11.14063,-7.680627,-4.572337,-0.745272,2.994185,6.808154,11.45595,14.45851,17.93713,20.2058,23.44167,26.18389,29.6852,32.17302,35.0252,37.98774,40.82405,42.8383,45.01477,46.40099,47.48156,48.21695,48.86894,48.74867,47.85014,47.44284,46.74452,44.83245,42.98878,41.37512,38.94611,36.80491,33.86105,31.17582,28.17673,25.03283,21.22051,19.05292,15.74813,12.56404,9.647565,6.163365,3.478022,0.2536988,-2.573458,-5.121976,-7.778124,-9.884361,-11.90725,-13.02948,-12.87656,-15.48402,-18.05697,-19.67269,-21.68228,-23.29938,-24.50784,-26.21562,-26.7893,-28.06971,-28.28241,-28.54579,-28.77932,-28.42308,-28.14655,-27.24738,-25.90746,-25.02562,-23.78664,-22.78998,-21.2516,-20.20591,-18.77833,-17.3555,-15.33879,-13.65822,-11.37832,-9.429736,-7.239393,-5.022559,-2.282049,-0.08799834,2.88523,5.159594,8.10833,11.63286,13.93842,16.9473,19.75206,22.8406,25.59346,28.64009,30.96318,33.16627,35.25179,37.91983,39.17676,41.50308,42.84641,44.39544,45.71193,46.29636,47.34167,47.75663,47.4761,47.26018,47.13689,46.18228,45.02057,45.51137,45.31675,45.36825,45.04949,45.39593,44.46609,44.06092,43.46281,42.00774,41.0739,40.59644,40.84885,41.65819,41.40722,41.57409,41.58644,42.00625,41.67868,41.30701,40.12881,38.54307,38.50871,38.67676,38.75263,38.37325,39.62633,40.10643,40.39006,40.52419,41.13747,41.48818,41.54646,42.33412,42.33466,42.71722,42.63354,42.76013,43.49184,44.71105,44.08332,43.58597,43.85064,43.54814,43.35558,43.33214,42.94874,42.49085,42.79034,42.0918,41.88149,41.78919,41.07774,40.66585,40.6658,39.83339,40.01297,39.48754,39.54431,38.52985,38.69783,38.04793,37.67532,37.07588,36.61906,37.00802,35.89426,35.47802,35.39583,34.27511,34.24251,31.37866,29.19354,27.74097,26.99922,26.52015,26.19583,25.81425,26.26792,26.93936,27.58686,28.53308,29.67825,31.07134,32.57155,34.11609,36.08011,37.98724,38.92931,40.87936,42.47453,43.73136,45.05172,46.25971,47.576,48.20943,49.36611,49.23877,49.47886,50.54864,50.48942,50.5621,50.09748,50.09984,50.1297,49.4222,48.78156,47.7562,46.96546,45.17868,44.0636,42.34302,40.12698,38.5769,36.26194,34.26216,31.00885,28.45908,25.22225,22.33564,19.25293,15.94387,12.2249,8.516595,4.14546,0.7128165,-4.190391,-8.289025,-13.59587,-17.9578,-22.49558,-26.3139,-29.03632,-32.50223,-36.273,-40.26008,-42.44687,-46.96187,-50.29118,-53.27105,-56.6493,-59.6837,-63.09297,-65.36027,-68.33673,-70.80181,-73.48627,-75.57456,-76.37631,-79.31593,-80.72085,-82.40368,-83.73617,-85.18633,-86.11986,-86.7214,-87.13036,-88.18389,-88.22964,-88.30217,-88.26475,-87.62376,-87.53833,-86.95006,-85.45066,-84.56502,-83.27347,-83.0077,-81.69926,-80.74872,-77.94887,-75.85827,-74.49834,-73.35521,-72.55105,-71.65494,-72.26585,-72.77825,-73.3794,-75.45416,-76.13749,-79.5006,-80.19838,-81.03819,-81.56463,-82.5326,-83.13093,-84.30696,-84.66138,-84.88023,-85.2232,-85.19572,-85.03411,-85.17384,-85.2291,-84.37788,-83.85874,-83.45901,-82.84535,-81.59556,-80.57739,-79.57841,-77.62605,-76.41055,-74.39651,-72.94053,-70.55175,-69.06737,-66.15481,-64.00698,-60.98195,-58.49328,-56.04204,-52.74814,-50.26844,-47.00678,-43.81212,-41.01815,-37.69458,-35.07529,-30.88578,-27.51936,-23.83829,-20.7596,-17.8554,-14.22887,-11.15891,-7.806056,-4.667137,-1.297949,1.694784,4.800736,7.092693,8.943662,10.86993,13.96774,16.62526,19.37752,21.80487,25.14562,27.461,29.41528,31.7746,32.98189,33.98438,35.69267,37.91418,38.72008,40.44817,41.83746,42.66328,43.94443,44.66182,44.97178,44.72419,44.81692,44.44257,43.84253,43.23341,40.57804,40.40095,38.59194,36.4031,34.25873,31.96544,30.09946,27.80513,24.6209,22.65212,20.40765,17.53045,16.05928,13.2274,11.82177,10.71185,8.413148,7.413682,7.238574,6.431112,6.885386,6.98543,6.238702,5.357791,4.207677,3.833246,3.712065,2.804476,2.52601,2.552649,1.800942,2.06897,0.9220219,1.331815,0.4230002,0.8364755,0.7553286,1.247439,1.382376,1.532651,1.859085,2.440806,3.090678,3.464299,4.053531,4.417037,5.679222,6.650246,7.213301,8.411551,9.698548,10.80097,12.50584,13.51354,14.05409,14.47746,14.33676,16.19991,17.46193,19.05323,20.50273,23.14011,24.65491,26.19922,28.23007,29.92503,31.50742,33.14338,34.41933,35.81057,36.94151,38.59339,38.52298,39.2565,38.99933,39.02922,38.71255,38.35409,37.49865,36.27346,35.01073,34.04874,32.46466,30.4673,29.00784,28.16565,27.93697,26.81938,25.65394,24.24645,22.74989,21.225,19.97592,18.6947,17.05893,16.46052,16.1414,15.88541,15.87806,15.45197,15.03991,15.48206,15.12154,15.27302,14.80547,14.77791,15.25029,15.15588,15.3747,15.86486,15.38023,16.4221,16.47188,16.63225,17.72945,18.06024,18.79928,19.63727,20.23351,21.18805,21.45204,22.28947,23.65563,24.47313,25.31809,26.01847,26.53513,27.97973,29.43215,29.95561,30.89663,31.64719,32.50111,34.13716,34.70921,35.66515,37.09923,38.25951,39.7992,40.56482,41.03668,42.41,43.69254,45.02828,44.82062,44.71574,44.28751,44.55695,44.89868,45.7598,46.41681,48.01903,49.15513,50.82583,52.31637,53.28562,55.07853,56.24084,57.76211,59.17465,60.35291,60.80883,61.79985,61.99124,61.92073,62.22248,63.6526,65.69176,66.43702,67.51636,68.04184,69.09087,68.99723,69.60576,69.90365,69.4757,69.41193,68.87702,68.44776,67.29561,66.0436,64.69065,62.73848,61.89143,59.26309,56.6877,54.25871,51.73402,48.73563,46.47038,42.73256,39.14132,35.34008,31.78516,28.14293,24.1462,19.71286,15.38989,11.11643,6.893151,2.286745,-2.304075,-6.679048,-11.17411,-15.55508,-20.19763,-25.39528,-28.48612,-32.66822,-37.33811,-41.32093,-45.07235,-49.83779,-52.85766,-56.71169,-60.12278,-63.30201,-66.549,-69.09664,-71.67075,-74.84096,-76.59265,-79.00263,-80.44575,-81.58187,-83.75181,-84.42093,-85.51326,-86.40934,-86.73336,-88.06081,-87.26675,-88.2748,-87.9147,-88.36536,-87.4676,-87.39516,-87.76404,-84.37677,-82.38619,-81.04535,-80.30741,-79.22773,-77.35323,-77.39492,-77.40179,-76.80319,-77.45615,-78.33305,-79.07871,-80.76692,-81.78389,-84.06779,-86.84819,-89.17108,-91.04736,-93.19521,-93.84461,-94.48614,-94.62433,-96.4007,-96.15734,-96.96056,-97.1813,-97.18278,-97.25232,-97.39365,-97.14792,-96.13832,-95.35811,-94.87741,-93.94377,-92.86561,-91.89208,-90.48279,-88.46623,-86.56213,-84.74275,-82.2691,-79.63744,-77.21287,-73.97069,-71.34022,-67.93588,-64.95874,-61.10511,-58.12541,-54.33301,-50.24286,-46.83951,-42.95521,-38.69321,-35.39931,-31.22694,-27.20321,-23.66586,-19.44261,-16.24447,-11.6741,-7.811138,-4.894414,-0.8232621,3.002992,6.572177,10.58873,13.39108,16.46947,19.41236,22.77097,25.1424,26.93313,28.17465,29.37259,31.29414,33.70775,35.83364,37.40706,40.82668,41.6611,43.83032,45.71921,46.54901,47.24259,48.52051,48.68565,48.70713,48.12609,47.23162,46.4319,44.84079,43.83743,42.11449,39.91288,39.07791,36.70916,34.56777,32.47961,29.38871,27.89364,25.58931,23.23943,21.46244,18.82498,17.95541,16.74253,16.23522,14.59027,14.62746,15.71081,14.12591,12.37691,10.49346,9.359345,8.438171,6.765697,5.386989,4.421067,3.188253,1.904401,1.255746,0.4920358,-0.5676884,-1.351102,-1.695607,-1.251536,-2.04464,-2.674428,-2.1896,-2.707067,-2.32693,-2.465132,-2.085704,-2.239411,-1.704192,-0.6859374,0.01663933,-0.2934634,1.1273,1.805764,2.843643,3.785495,5.068999,5.659987,7.369016,8.983177,10.01476,11.7882,12.63145,14.55461,16.34333,18.12374,19.77929,21.03052,22.52741,24.30814,26.09553,26.94801,29.12406,29.37039,31.19459,32.51774,33.5243,33.46333,34.81538,35.9529,36.14902,37.0943,37.22528,37.49288,37.56948,38.10642,37.66809,37.1173,36.23713,35.95802,34.50988,33.70199,31.97663,30.56273,28.51799,27.34674,26.04193,25.89685,26.05191,25.93413,26.05527,25.58373,26.2062,25.57503,25.86563,24.87744,23.79924,22.53519,21.39957,21.33239,21.33854,21.15857,20.86623,21.80412,21.6273,23.16182,22.85992,23.82298,24.36961,24.55556,24.90324,25.78418,25.74469,26.45373,26.24105,26.432,26.6732,26.63049,26.36544,26.50774,26.59304,26.04162,26.11736,25.39694,25.60018,25.10153,24.02597,24.23175,23.65532,22.71427,22.55539,22.07108,21.4686,20.95131,21.19675,19.97042,20.28022,19.99132,19.06863,19.94728,19.54565,19.93242,19.71275,18.60342,20.29898,19.83348,18.68382,20.38899,19.94648,19.97271,19.63248,19.95192,19.69946,17.52687,16.63947,17.57138,17.75452,17.57183,18.79014,19.84348,21.2457,23.61343,24.86039,27.01505,29.22412,31.2427,33.55978,35.31282,37.34293,39.70988,42.10539,44.12057,46.4548,47.66205,50.21299,51.97951,53.54399,54.92151,56.45632,57.46472,58.47943,60.01562,59.10207,59.58273,60.35748,60.00026,59.20231,58.95802,57.94281,57.32042,55.60273,54.44073,52.23653,50.41672,47.83172,45.96374,42.98095,40.08691,36.30465,33.0292,29.79117,25.98353,21.90999,16.91567,12.47229,7.126822,3.389587,-1.274402,-4.891232,-8.119496,-11.98652,-15.4748,-19.05159,-22.75911,-26.58224,-29.26317,-33.20127,-36.68663,-40.01563,-42.72527,-46.46501,-48.84884,-52.31983,-55.22865,-58.09436,-60.66956,-62.5792,-65.36258,-67.46606,-69.87452,-70.66305,-73.08964,-74.37715,-76.34122,-77.34963,-78.49029,-79.7583,-80.53114,-81.99827,-82.79873,-82.54982,-82.89888,-83.12188,-83.49454,-83.64605,-83.89005,-81.42312,-80.62594,-78.66553,-76.04388,-76.07969,-74.86618,-74.72464,-74.83443,-74.21147,-76.02824,-76.61066,-76.00041,-79.50234,-80.90629,-82.93708,-85.35527,-88.6806,-90.89571,-91.56686,-92.72577,-94.23659,-95.21146,-95.48437,-96.48747,-96.55098,-96.43009,-96.83649,-96.25461,-95.70103,-94.80519,-93.54735,-92.74022,-91.49404,-89.44686,-87.81372,-86.0189,-83.65159,-81.06868,-78.688,-75.51328,-72.77624,-69.81237,-66.78985,-64.33209,-61.69413,-58.63512,-56.20618,-51.71856,-48.1421,-43.86778,-39.11283,-33.2957,-28.55169,-23.30582,-18.49785,-13.03784,-8.569091,-4.305492,-1.13205,2.677438,6.905152,10.85867,14.87671,18.67753,22.76467,26.4449,30.07855,33.10009,36.10103,38.80759,41.67876,43.38196,44.5112,46.25687,46.90111,47.78695,47.63298,47.20076,46.98792,46.08576,44.61625,43.43355,42.28637,40.05277,37.28657,35.73788,33.29541,30.05273,27.30639,24.17848,21.41433,17.74476,14.84591,11.1627,8.80842,4.820722,2.56408,-1.308171,-4.274897,-6.991671,-9.818364,-12.18905,-14.22832,-16.63858,-17.2757,-18.86052,-19.37919,-19.48635,-19.25868,-17.7875,-16.19681,-15.13878,-14.56558,-13.38272,-13.49094,-11.71476,-10.82238,-9.301009,-8.530989,-6.69143,-4.792102,-3.360275,-1.947531,0.08549144,2.123841,4.363083,6.899018,8.81359,10.63652,12.66276,15.62847,17.85893,19.87711,22.2127,24.78406,27.36836,29.8896,32.16505,33.96201,36.63824,38.06974,40.49429,42.46708,44.18246,44.82511,46.83971,48.29343,48.86258,48.93966,49.93834,49.51362,49.41855,49.44505,48.03616,47.79989,48.16056,47.93983,48.22873,48.08,48.79813,48.839,48.99857,48.6703,48.08745,47.21564,46.60432,46.02796,44.80753,44.09846,44.44751,45.23756,45.43626,45.43199,45.78976,46.08685,46.35653,46.87915,46.5933,45.95465,46.13297,46.76118,47.24147,47.68212,48.82567,48.8756,49.74948,50.22013,50.46807,50.58676,49.89706,49.96777,51.05222,51.65463,52.20707,52.82198,54.26563,54.95189,56.0629,57.36964,57.78116,59.2098,60.23709,61.25851,61.41786,61.86727,62.18242,62.70445,62.06431,63.20574,62.79537,62.77097,62.91192,62.14721,61.31558,61.40029,60.2352,60.11896,59.0965,56.29637,54.29729,51.64504,50.36693,48.98816,48.57769,46.75819,46.81364,46.40242,46.46608,45.29396,45.99443,45.50443,46.33025,47.34794,47.55541,48.43961,48.91681,49.21131,50.30783,50.29619,50.63971,50.79354,50.90291,51.15939,51.2236,51.43649,51.84518,51.61298,51.73545,51.36849,51.51255,50.81119,50.86924,49.78611,48.76005,47.93271,47.01564,45.85528,43.79518,43.13916,40.95062,38.83701,36.92277,34.94025,31.35466,29.30181,25.89515,22.7092,20.30381,16.73767,13.43094,10.04276,6.745105,3.233771,-0.3951402,-3.968591,-8.14231,-11.56662,-16.3958,-20.07184,-24.30663,-29.16778,-33.51494,-38.21677,-42.31823,-48.25587,-52.55313,-57.56857,-61.84384,-66.47422,-70.18875,-73.53575,-77.90344,-81.37461,-85.4948,-89.44684,-93.26616,-96.87041,-100.2572,-103.2784,-106.2795,-107.4053,-108.8848,-109.6816,-110.7895,-111.5117,-111.962,-111.812,-111.3334,-111.0793,-110.8402,-109.5084,-109.314,-107.9992,-107.6536,-106.0092,-104.795,-103.1552,-101.8092,-100.3142,-98.62665,-96.02305,-93.69492,-91.84083,-89.71955,-89.3957,-89.50426,-90.2122,-91.55206,-93.73698,-94.60377,-95.61653,-96.09515,-97.10745,-98.25777,-99.82219,-100.8851,-102.0386,-103.124,-104.3621,-104.9404,-105.9542,-106.3886,-107.1013,-107.3119,-107.5261,-107.9301,-107.9193,-107.2242,-107.4221,-106.5402,-105.4561,-104.3615,-102.2359,-100.4228,-98.20841,-96.17726,-93.93183,-90.58309,-87.88216,-84.25219,-81.50222,-77.50676,-73.67483,-69.19518,-65.35774,-61.03091,-56.25561,-51.9459,-45.90355,-42.01637,-36.46685,-31.58319,-25.47243,-20.57509,-14.48853,-10.03801,-4.226148,1.854654,6.740332,11.95021,17.37379,21.67979,27.00712,32.35327,36.74852,41.98272,47.74308,52.47757,58.6514,62.92502,67.38626,71.96198,75.40483,79.2354,82.3929,86.20927,90.13301,93.06232,96.44675,98.41078,101.5597,102.8734,104.816,105.9375,106.6073,106.4718,106.1244,105.3964,104.2115,102.3916,100.3865,97.16959,94.97675,91.5668,88.45181,84.59103,81.37172,77.25785,73.67384,68.97284,65.33124,60.61495,57.49307,53.43604,50.79729,46.79437,44.43584,41.90659,40.14199,39.24085,37.05322,35.2219,32.52575,30.06075,27.05591,24.64149,21.88827,19.94322,17.69814,15.67732,13.66727,12.25819,10.32037,9.346025,7.823325,7.325843,6.196525,5.560728,5.097329,4.434533,4.09586,3.327915,3.900599,4.062612,3.788288,4.063987,4.550045,5.06071,5.928929,7.060943,7.331367,8.395765,9.799824,10.66988,11.98944,12.87029,13.95072,15.63428,16.88448,18.19537,18.82877,20.50226,21.40852,22.99861,23.19629,24.90733,25.86141,26.55306,27.49744,27.89904,28.63779,28.26063,29.31524,28.01188,28.38603,27.15959,26.21479,25.4151,23.3343,21.9517,20.25634,17.72861,16.89505,15.46825,13.92011,13.29789,11.65189,9.60005,8.685129,6.036424,4.868703,2.444855,0.6518489,0.4428863,-0.954714,-1.763716,-2.681141,-4.260212,-4.299551,-5.908703,-6.270986,-8.038089,-9.246823,-9.894409,-11.45211,-12.49121,-14.02894,-15.19032,-16.19202,-17.93012,-18.90019,-19.97895,-21.15696,-21.97463,-22.90675,-23.94389,-25.22835,-26.63795,-26.89894,-28.31967,-28.943,-30.51988,-31.42329,-32.76343,-33.53061,-35.33385,-36.58594,-37.77909,-39.56557,-41.15825,-42.9563,-45.62196,-47.51946,-48.18184,-49.4274,-51.33816,-52.10671,-53.27601,-54.07653,-55.05997,-56.35356,-57.67524,-59.04845,-60.74758,-60.88179,-60.55329,-62.45762,-63.92461,-65.35518,-67.49466,-69.49267,-72.24347,-74.93011,-76.39121,-78.00994,-79.25541,-82.63282,-85.39799,-87.27449,-90.78914,-93.76167,-96.95977,-100.0386,-103.4701,-105.7851,-109.4065,-111.7338,-114.4825,-116.6666,-118.8053,-120.6383,-121.643,-123.3375,-123.3216,-123.9891,-123.6442,-123.5492,-123.0333,-121.9523,-120.0849,-118.2562,-116.5632,-113.0953,-110.8465,-106.7899,-103.2055,-99.01219,-95.1346,-89.69778,-84.3931,-78.78545,-73.05552,-66.47938,-60.32036,-53.50988,-46.11752,-39.30859,-32.00828,-24.35896,-16.68581,-8.435527,-1.549464,6.834314,15.00366,22.29601,30.5707,37.90275,45.73486,53.31575,60.42565,67.7231,74.74394,81.55982,88.56143,95.28665,100.6552,106.8941,111.9355,117.0829,122.2197,127.1571,131.2122,134.6055,139.0086,141.9412,145.457,147.5049,150.2855,152.1086,153.5547,154.5634,155.6795,154.7686,153.4131,150.3371,147.8972,145.2113,142.9106,140.7432,139.3663,139.8031,140.2764,142.0437,143.7883,144.8684,146.3155,148.0462,149.0389,150.3805,151.6769,152.7655,154.5446,155.4761,156.8386,159.031,159.2377,158.1964,158.3599,158.2795,157.6478,157.8471,156.5776,156.3412,156.0609,153.8526,151.7323,147.5087,145.0037,142.1547,137.2426,133.8823,129.2986,125.2228,119.7617,115.5987,109.5639,104.9557,99.29175,93.78049,87.73018,82.28164,76.47766,70.26633,64.50072,57.91691,50.61875,43.86993,37.09905,30.60733,25.21452,20.14592,15.00396,11.54764,5.899945,0.5161528,-4.000562,-8.362664,-12.91825,-15.80953,-19.41099,-22.64279,-25.68081,-29.09776,-31.35371,-32.63992,-35.27226,-36.66784,-37.09596,-38.21267,-38.57622,-38.99429,-38.74993,-38.83234,-38.26731,-37.87233,-36.55727,-35.98706,-34.89909,-33.64116,-32.52744,-30.76145,-29.11028,-26.16663,-24.41291,-22.38835,-20.39199,-17.73556,-17.80421,-16.0594,-15.99607,-15.72841,-16.31763,-18.11878,-19.39661,-21.99621,-24.96674,-29.12523,-33.50811,-38.8295,-44.71233,-51.73897,-58.62922,-67.81876,-75.57192,-83.6049,-89.29993,-95.29546,-100.3915,-104.6406,-108.908,-111.4447,-115.3587,-118.8643,-121.9,-124.9842,-127.4867,-129.6031,-131.025,-132.2598,-133.2342,-133.0643,-133.9735,-134.0083,-132.0846,-131.6392,-129.1235,-126.8198,-123.9815,-120.7043,-117.1949,-113.3754,-109.2781,-104.6438,-99.90089,-94.64835,-88.40928,-83.44915,-76.7492,-70.87975,-64.83137,-58.25654,-51.74149,-44.987,-39.06937,-31.96873,-26.16493,-19.88408,-14.78802,-10.67429,-5.514897,0.4101026,4.691141,10.09188,14.88991,19.68794,23.54652,29.83312,35.38006,39.22186,44.34316,47.75965,50.34611,52.01958,51.86506,52.89238,54.71492,55.73946,55.72487,56.19582,55.45385,54.15323,53.43578,51.51796,49.92078,47.59401,43.80992,41.45508,37.98249,33.32678,29.27658,25.53449,21.36551,16.60635,12.81422,8.103598,4.602269,0.4539022,-2.832766,-5.827649,-9.043862,-11.21856,-13.17282,-14.75329,-17.56972,-19.25652,-20.99365,-23.77239,-26.2993,-28.70642,-32.02575,-33.61215,-35.94893,-36.82931,-36.52259,-37.80825,-37.89693,-37.75632,-38.43313,-38.67211,-39.25868,-39.90051,-40.07681,-40.83841,-41.7444,-42.43218,-42.61275,-43.7354,-43.96862,-44.57226,-45.30361,-46.2632,-46.69551,-46.71057,-48.0521,-49.2901,-49.18331,-49.35086,-48.96297,-49.43619,-49.63246,-48.69317,-48.84519,-46.72734,-43.94583,-43.3303,-41.23883,-39.76492,-38.18307,-36.15343,-34.84637,-32.60848,-31.03311,-29.37513,-27.41438,-25.8409,-23.88574,-23.36972,-21.13444,-20.05873,-19.03618,-17.63758,-16.85038,-15.431,-15.55551,-14.00347,-13.95767,-13.29291,-12.51247,-10.69547,-8.087217,-5.632086,-3.685422,0.06959033,1.312161,4.593067,6.406622,9.235274,11.13725,12.20161,14.88602,15.86983,17.79687,20.12892,21.94028,24.88323,27.71672,29.14432,32.2266,34.76475,36.05912,38.44816,40.35498,41.66622,42.65414,43.59258,43.51981,46.02172,44.64678,47.30676,49.59978,48.38344,49.3839,48.9025,50.69362,50.17701,50.34325,49.55286,50.4512,49.43026,49.12332,48.30936,48.04675,46.55351,46.65617,44.75069,44.17847,42.59865,42.10034,42.27287,41.70303,43.94709,44.57837,45.70333,47.62755,47.49575,48.022,47.43426,46.26144,45.34162,44.57819,44.68104,46.42082,47.58441,49.03707,51.20411,52.66385,54.05278,56.54744,57.33139,59.04057,59.89532,61.63477,62.24009,62.7114,64.01775,65.06289,65.43668,66.20942,66.48223,67.01657,67.28435,68.04893,68.42662,68.60386,67.22777,65.65018,64.97984,63.68981,61.35304,59.25691,57.01795,53.83574,51.15426,48.15791,44.97842,40.77672,36.53176,33.0809,28.50289,24.20094,20.05047,15.03017,11.09702,6.304197,2.248085,-1.405868,-3.933544,-7.935037,-9.886053,-15.11911,-19.15615,-23.8409,-28.51507,-33.66679,-37.5221,-43.84589,-48.30839,-53.764,-58.88445,-64.33429,-68.99576,-73.73039,-78.3961,-82.64181,-86.57781,-90.40071,-93.94375,-96.40969,-99.70626,-101.8603,-104.3575,-105.7708,-107.3396,-107.5387,-108.3267,-107.7747,-106.4371,-106.6532,-102.3098,-102.4264,-101.656,-97.57101,-94.68673,-90.59094,-89.00595,-86.87999,-83.21873,-77.95696,-73.82576,-68.26959,-62.64599,-57.19941,-50.63016,-44.3592,-38.60989,-32.15605,-25.93645,-20.25745,-14.49528,-10.15763,-4.75229,-0.9897069,1.757125,5.053568,5.04024,7.997283,10.15159,12.99928,16.48843,21.63376,25.87894,30.44765,34.04801,37.28594,40.33787,42.57735,45.53008,47.22763,48.95449,50.38686,51.14867,50.92617,49.95197,48.95418,47.83951,46.88075,46.85218,45.0768,46.8952,44.65875,43.9633,43.32046,40.14998,39.79875,36.16318,35.92414,31.49553,30.38453,24.3747,24.04917,19.88016,14.45696,14.9724,9.571173,5.111373,0.1566804,1.045776,-4.513073,-6.376693,-9.13517,-9.839077,-12.79478,-13.81301,-13.71585,-14.49335,-11.05132,-13.81013,-13.57295,-13.51485,-13.86682,-15.53351,-13.66506,-15.66144,-10.59569,-16.03162,-15.47397,-16.69844,-17.35306,-16.0969,-15.30631,-13.5912,-12.18895,-9.504254,-8.004136,-4.743964,-3.403811,-2.737294,1.121919,2.604112,4.569491,5.69762,9.523502,8.723713,11.84057,12.21204,13.58012,13.77241,15.70113,15.06271,17.49487,16.14972,17.24473,15.90512,13.64916,10.81265,10.57785,12.1737,11.93858,12.40217,11.76123,16.37028,13.30799,19.15054,18.7018,22.15625,23.52131,25.81281,26.5767,27.99383,28.32572,26.32477,25.86893,23.49958,24.49277,26.30205,29.25457,28.14766,31.05869,31.02751,33.03741,31.84012,33.50827,31.28498,30.47872,29.12526,26.31709,24.19362,21.01483,16.80456,12.10849,9.708615,6.213123,-2.523622,3.201759,-10.466,-0.8217417,-13.20486,-12.59021,-12.26049,-28.15591,-24.30098,-27.5456,-44.45762,-32.02537,-53.03935,-48.87876,-64.16537,-62.55778,-75.67123,-67.45339,-85.91023,-78.75068,-81.18406,-100.0434,-89.91845,-101.7147,-98.70136,-101.9858,-105.291,-103.8277,-105.7236,-108.9211,-112.0928,-101.8686,-107.0741,-107.8739,-107.8195,-99.34674,-94.06317,-103.7017,-96.98901,-84.76924,-86.81754,-83.69341,-86.45588,-78.4743,-66.427,-68.68449,-55.94774,-51.11737,-41.40764,-46.13168,-24.75214,-26.74927,-18.48197,-8.025776,1.0491,1.817988,12.45989,22.67038,18.00912,39.7079,30.94087,48.22747,48.48054,55.6174,58.53283,67.54943,62.19185,71.29117,75.81108,70.04258,72.65167,70.54429,71.48584,74.57143,76.06391,75.7845,65.43321,80.68245,77.82309,70.28574,82.10394,78.70976,76.43007,71.82925,73.64941,76.58179,76.90564,67.35619,70.36072,70.4677,64.17659,73.79207,66.1713,62.02177,65.1552,66.42671,63.35669,69.40351,68.72904,71.41984,70.84265,73.61032,74.08553,75.05529,76.48276,78.66266,79.13622,80.6131,83.97733,84.44115,83.89848,88.96224,82.82506,92.85555,80.22763,89.36447,83.53735,77.49498,85.15431,76.09836,69.32518,78.35072,58.2068,67.82608,55.64248,59.23359,50.33915,53.23515,38.51417,45.507,31.02933,24.32343,29.64368,13.96431,17.4735,10.18962,1.040571,-0.4879488,-8.949238,-13.86463,-17.42708,-17.65047,-31.86452,-32.55817,-33.21363,-37.23652,-46.0523,-55.61971,-46.61439,-53.00741,-64.17837,-65.44584,-65.8507,-67.87621,-67.37833,-79.06431,-72.54566,-81.18592,-80.43339,-85.82955,-71.85025,-84.90817,-76.57373,-73.33829,-76.21801,-76.03883,-64.93173,-67.59772,-67.75466,-51.85602,-63.7312,-47.45452,-53.37712,-47.89625,-48.13722,-43.58965,-44.97725,-33.77931,-34.96669,-37.37873,-26.62034,-26.69157,-21.32068,-17.57134,-15.91699,-17.00869,-17.42687,-2.974103,-14.53998,-7.867444,-0.7799136,-5.027801,-4.494904,-1.013924,5.218243,5.580089,-0.6807709,-4.012321,1.82471,-3.867287,-6.927608,-3.262266,-14.80912,-10.65117,-6.150831,-10.65238,-11.19189,-7.71091,-12.94634,-11.83832,-14.17663,-15.0428,-20.17109,-19.93445,-19.83949,-25.94662,-21.59394,-24.5772,-28.16635,-36.14513,-24.91336,-37.24874,-28.85749,-36.81633,-33.54962,-39.13917,-39.13466,-38.09277,-35.20463,-35.20175,-42.25449,-39.46731,-41.17966,-37.56624,-36.26055,-34.52272,-28.21464,-38.13615,-26.90278,-27.73639,-25.80742,-21.58398,-24.11906,-13.0581,-21.96004,-7.130128,-13.57451,-6.233132,-5.585058,1.622485,-2.622713,3.877253,0.233662,6.206103,7.310522,9.522085,4.950158,14.30831,11.5809,11.00048,8.682004,18.55237,10.19589,5.132757,18.10043,8.214932,12.43815,9.861901,10.74562,22.02715,14.63898,15.88864,20.43389,23.36214,21.29755,22.01164,21.66567,19.29622,21.65742,22.28657,21.64572,22.37543,23.68512,23.64635,26.57779,29.87925,33.02695,34.996,36.87958,38.96131,40.37108,41.08313,41.97623,42.34308,42.20108,42.39538,43.35011,45.46782,47.11399,48.47686,48.74881,50.53552,49.78417,51.20527,51.25888,51.57363,49.76422,51.85967,49.93649,50.05061,48.52069,48.53427,48.16129,47.22531,47.51798,45.2368,44.41376,45.05516,42.24226,42.03302,39.592,37.99594,35.91395,37.16071,34.00736,30.60489,34.79336,25.898,23.75178,23.83692,30.48875,15.49003,23.70285,14.6416,15.8844,12.07563,16.09777,13.61232,11.43406,6.386089,2.300892,6.607844,2.260698,4.01022,1.497606,1.487514,3.152647,-1.512559,13.58791,8.262741,14.5151,19.10146,20.69527,29.14949,25.4102,40.83781,33.27932,45.60676,44.1886,50.61306,47.13896,57.10796,54.18181,62.58357,60.23256,62.05706,61.84373,68.68114,61.37825,63.36623,63.77791,66.96995,55.71245,61.05086,65.47191,52.28555,58.38684,52.76023,53.0361,52.88158,38.24333,43.10558,39.86941,32.0669,24.71165,22.4943,17.28737,13.58719,11.71063,6.87749,2.60981,-0.5405761,-3.936763,-8.687391,-11.61131,-15.32766,-18.67713,-22.90035,-26.90858,-31.13515,-33.88327,-38.72589,-41.27992,-45.44369,-48.80352,-51.93514,-55.08916,-57.91117,-60.4451,-63.84947,-66.08642,-68.13421,-70.83536,-72.48579,-76.00378,-76.8699,-79.02664,-80.29014,-82.46901,-83.90037,-84.94169,-85.64869,-86.32552,-87.27684,-87.2625,-87.70538,-88.08745,-86.04551,-86.21075,-85.67677,-84.76254,-83.66521,-82.38526,-81.3107,-80.14725,-79.01401,-77.71908,-77.34923,-76.57873,-76.61277,-76.05778,-76.52894,-77.53718,-77.55401,-79.64385,-80.10119,-82.49532,-85.41944,-87.77331,-91.75945,-94.77668,-97.31894,-99.02826,-99.00464,-99.0586,-99.13225,-97.55624,-97.13075,-96.1517,-95.04105,-94.26134,-92.39977,-91.50697,-89.73183,-87.9158,-85.48357,-83.37674,-80.51909,-78.83853,-74.87899,-72.73736,-69.11765,-65.80271,-62.61279,-59.23833,-55.49366,-51.63964,-47.99939,-43.99525,-40.45965,-36.29039,-31.2992,-27.14153,-22.64932,-18.20772,-13.53214,-9.806732,-6.230035,-2.437347,2.136136,6.586125,11.96277,17.08425,21.77734,26.65175,32.13288,35.27781,39.60476,43.60519,47.36396,52.46625,56.29272,60.97296,65.44858,68.69949,73.4478,76.75317,79.15305,82.45231,83.87785,86.2571,87.15327,88.33863,87.57203,86.16936,85.99368,85.69512,85.56011,85.33617,84.12556,84.30929,82.98213,82.02461,80.34168,78.52097,76.8626,74.92379,72.08964,69.96184,66.90465,64.35116,61.67232,58.63531,55.747,52.75468,49.57558,47.42849,45.31068,41.69521,38.58795,36.69392,34.51767,31.70509,29.76282,26.73934,24.19584,22.59102,19.8392,17.85793,15.1438,13.32928,11.50668,9.687184,8.546562,6.332781,5.482204,4.264426,3.6392,2.982322,1.81972,1.761767,1.53726,1.692995,1.479979,1.580418,0.4988227,0.1459288,-0.2470815,0.7950843,1.381317,2.703536,4.913383,6.815003,10.48191,12.644,15.71483,18.63159,21.62237,24.40607,26.78339,28.91543,31.43492,33.36327,34.37906,35.52665,36.37915,37.21501,37.69716,37.98605,37.93079,36.98187,36.5647,35.26882,33.20371,30.29738,26.32405,23.7224,21.70292,19.9056,18.63514,17.27563,16.62063,14.95341,13.89357,12.49063,11.53777,10.28973,10.4079,11.49644,10.20042,11.06514,9.909023,10.15973,9.021598,7.691595,6.3652,4.492586,2.245843,0.3832801,-2.868363,-5.738771,-8.986664,-11.72672,-14.21939,-16.99212,-18.69355,-20.26994,-22.4775,-24.79368,-27.59944,-30.56316,-33.4911,-35.68703,-38.96836,-40.74743,-43.251,-45.85239,-48.93748,-51.25573,-55.20143,-58.06305,-61.14677,-64.80735,-67.48343,-71.46076,-75.24536,-78.16147,-81.58689,-85.69036,-90.21528,-93.88853,-97.65312,-100.192,-102.2488,-105.4062,-104.3309,-104.1317,-103.2304,-101.8981,-100.8676,-100.7709,-100.6929,-100.5678,-101.0063,-101.8476,-102.5662,-103.8564,-104.5612,-106.3914,-106.4135,-107.8258,-109.3647,-111.097,-112.4691,-114.0794,-115.978,-115.9145,-114.9644,-113.9308,-112.8006,-110.7575,-108.8883,-105.8021,-102.9372,-100.8684,-97.70285,-94.74746,-91.35049,-87.71528,-84.33649,-80.65341,-76.29789,-72.95231,-68.23164,-64.22398,-59.56712,-54.92042,-50.97407,-46.25316,-41.99563,-38.97122,-34.48075,-31.17847,-27.89517,-24.71527,-20.21986,-15.35555,-10.75235,-5.656809,-0.3939492,4.838223,10.22292,16.01771,22.08541,27.99936,33.553,39.29602,44.69975,50.29436,55.08495,60.99426,65.58759,71.03409,75.84971,81.38658,85.94722,90.9833,95.968,100.8673,105.3565,109.8845,114.9235,117.8497,121.6615,123.3269,126.75,129.8141,132.8568,135.5644,138.9501,141.7201,144.8307,147.8338,151.0712,153.3248,154.9237,154.0556,154.0152,153.1005,151.5056,151.1123,150.2469,149.5023,149.9142,148.8624,148.7702,148.0364,147.6412,145.7611,146.0774,146.3792,146.9438,148.1255,149.4269,150.737,154.1487,153.5734,154.0199,153.9264,152.0254,149.8347,147.583,145.3719,142.7112,139.8642,136.4063,132.9999,129.8857,126.2433,122.268,117.1782,111.5239,107.1624,102.0461,96.71987,89.87027,85.13154,78.33291,72.58017,66.35252,59.2757,53.2369,46.38621,39.99303,33.2079,27.11612,20.39439,14.20201,8.206192,1.95818,-4.062911,-9.485745,-15.28912,-19.97918,-25.56711,-30.16106,-34.82775,-39.76405,-43.20915,-47.2985,-51.57291,-54.63181,-57.63845,-60.21831,-62.67239,-64.66472,-67.16647,-68.32765,-69.34899,-70.4109,-72.85606,-73.65219,-74.14177,-73.52076,-72.56739,-71.33667,-69.0326,-67.07299,-63.84664,-60.29602,-58.17949,-54.48516,-51.50342,-48.52954,-45.88567,-44.8935,-43.11083,-41.34847,-38.9961,-37.43491,-35.69409,-34.6839,-34.10302,-31.40116,-30.22766,-28.84455,-27.55249,-27.09984,-26.43308,-26.01525,-26.98825,-27.9174,-29.41194,-31.50972,-34.36267,-37.65334,-42.40241,-44.75685,-47.56183,-49.59268,-50.90692,-52.55266,-54.6021,-54.91874,-57.51823,-58.16189,-61.00901,-61.93118,-64.41051,-65.44977,-67.27373,-68.14845,-69.9334,-70.32095,-71.1721,-71.71954,-73.07981,-73.4008,-73.35369,-74.51973,-73.79424,-74.21398,-73.79785,-73.19911,-72.16165,-71.71863,-70.12155,-69.16838,-67.75572,-66.30285,-64.87819,-63.18364,-60.49126,-59.15904,-56.85097,-54.90606,-52.1397,-50.57373,-47.28174,-45.04729,-42.20108,-38.79639,-36.52689,-33.40682,-29.79843,-26.77697,-24.24506,-21.16359,-18.45013,-15.25793,-11.77922,-9.629434,-7.083923,-4.579544,-1.711054,0.2996608,2.646523,4.508282,6.401499,8.85887,9.555865,12.28164,13.06831,13.62881,14.8486,15.14924,14.73762,14.54978,14.31703,13.59167,12.90845,14.25667,14.73933,15.70548,16.0964,17.50947,17.54271,17.6834,18.08033,18.33082,17.31571,18.09005,16.44109,15.41192,16.02748,15.11499,16.44909,16.83213,18.18679,18.31689,18.99347,19.72304,20.31691,21.20226,22.12638,23.05621,24.07078,24.82627,26.81888,27.56218,29.20633,30.26089,31.50237,32.53022,34.19991,35.17374,36.59259,37.87113,39.34918,40.51868,42.07315,43.36489,44.28493,46.12993,45.80122,47.04017,48.44209,50.08901,51.5663,53.91533,56.0771,58.66748,60.56278,63.14284,64.65534,66.10733,67.70115,69.83761,71.76279,74.89494,77.23235,80.32467,83.0584,85.24718,88.22875,91.78689,94.39556,97.24996,99.90986,102.2415,105.0803,107.8641,109.4625,110.8362,113.0093,114.5904,114.8966,116.5291,116.5552,116.6989,117.4816,116.1139,115.1285,114.0386,112.7507,110.4056,107.9915,105.5421,102.0749,99.26362,94.81236,90.25675,85.52277,80.6228,75.76662,69.65949,65.27953,59.50201,53.18449,48.44581,41.37026,36.85569,29.07088,23.50212,17.58115,10.59751,4.717982,-1.916355,-7.842818,-14.71731,-20.14213,-27.0236,-33.35199,-39.90026,-45.54201,-51.14956,-57.60234,-62.37039,-68.9428,-73.37988,-78.8921,-82.88374,-88.49227,-92.13529,-95.49292,-100.6049,-103.3131,-107.0399,-110.7479,-113.3612,-116.6098,-117.8376,-120.9556,-122.4912,-123.9054,-125.3961,-125.9684,-125.9901,-125.5963,-124.9207,-123.8751,-123.419,-122.7581,-123.2713,-123.1169,-123.4181,-125.0046,-126.5809,-127.1135,-129.2729,-129.7649,-131.4461,-133.4515,-134.8076,-136.2771,-136.5564,-136.097,-137.8055,-138.1151,-138.9274,-139.3117,-139.7733,-141.1449,-142.5583,-143.3434,-143.6968,-143.245,-143.2911,-142.5669,-142.1349,-141.7899,-139.9638,-139.17,-138.1786,-135.0098,-132.5674,-130.2325,-127.0095,-123.9434,-120.683,-116.0487,-112.3626,-108.0982,-103.9096,-98.9613,-94.13184,-88.97028,-83.767,-79.13819,-74.05554,-67.70003,-63.3103,-57.09366,-51.83386,-46.04033,-40.3588,-34.52096,-29.37408,-24.2826,-19.21221,-13.73811,-8.34072,-3.719273,1.471764,6.254369,10.51842,16.00172,18.82473,21.54894,24.93501,28.48299,32.54633,35.99138,39.89132,42.97171,46.57122,50.46151,52.94196,55.38641,56.93624,59.27066,60.84227,63.37336,64.93807,66.84345,68.36505,69.785,70.50817,70.25518,71.36141,70.23072,70.39017,68.87029,67.71219,66.02241,64.26418,62.66358,57.91998,54.66186,52.01111,49.52271,48.3323,45.39852,44.35857,43.12171,42.14241,42.51549,41.91789,41.73297,40.07095,39.04943,37.00415,34.72574,31.58809,29.39233,26.46617,23.58064,21.48012,19.67347,16.78347,15.35777,12.55748,11.27406,9.609596,7.775795,5.628953,4.716292,2.808039,1.629891,-0.1034796,-0.254847,-1.840391,-2.294813,-3.71133,-4.409619,-5.29839,-5.378427,-6.006087,-5.953701,-6.552077,-5.725762,-4.96079,-4.746262,-4.107894,-2.832254,-1.664788,-0.4462307,1.651684,3.123592,4.815636,7.370486,9.212575,11.08572,13.93393,15.79756,18.49134,20.87108,23.6925,26.02698,28.19173,31.41966,33.48684,36.83541,38.83743,41.75878,43.88684,46.95854,48.68774,50.77146,52.90929,54.46888,56.04436,56.97816,57.53322,58.26438,58.09419,59.07491,58.05967,58.11741,59.08347,59.81057,60.10771,60.92412,60.55964,60.45136,60.76296,60.66124,60.45234,59.72785,60.08828,61.04809,61.45745,62.59661,62.93311,63.55301,64.18602,63.56543,63.99224,63.85169,62.9051,62.39637,61.67592,60.66209,59.38839,57.92003,55.64909,54.75418,52.42717,53.01407,52.43701,53.00823,52.60515,52.38546,53.09094,52.73004,52.98655,53.46921,53.58911,53.8241,53.30754,54.28376,53.56657,54.60311,54.08689,55.05234,54.75882,55.14856,53.6649,52.04064,50.42016,49.624,49.76602,50.23791,50.97173,51.93392,53.19773,55.8191,57.43014,59.56523,61.32845,63.79475,65.42181,68.04273,68.9423,70.77563,71.49916,73.56668,74.21603,75.12534,75.5329,75.92786,76.79121,76.03985,76.74508,76.02792,75.47773,74.68968,74.15411,72.27875,70.83294,68.45592,66.83136,64.41071,62.31574,58.8975,56.09898,52.54202,49.31797,44.86063,40.96979,36.76196,32.37686,28.3529,23.691,18.75503,14.40611,9.751266,4.541177,0.2835839,-4.817209,-10.15643,-14.09705,-19.85219,-24.07068,-29.21719,-34.36983,-38.80259,-44.61034,-48.5907,-54.1318,-58.59509,-63.41566,-67.36933,-71.80681,-76.68901,-80.44436,-84.36811,-88.21194,-91.84842,-95.47681,-98.69854,-101.4986,-104.1194,-106.2396,-109.0894,-110.7689,-113.1521,-113.1299,-115.3217,-116.4282,-117.1527,-117.8636,-118.2868,-118.131,-118.5793,-119.2528,-116.3943,-116.4655,-113.7864,-112.5408,-110.1956,-108.4272,-107.2211,-105.7355,-106.0035,-105.2262,-106.1265,-105.4997,-107.0897,-107.8721,-109.4593,-111.1419,-112.8361,-115.7824,-118.0792,-122.5948,-125.3827,-129.6198,-131.2609,-133.3629,-133.8679,-133.7658,-133.8388,-132.9325,-133.411,-132.6164,-131.9833,-130.9284,-129.6051,-128.1473,-126.9347,-124.6238,-122.4791,-120.4491,-118.4152,-115.5881,-111.9513,-108.698,-104.6842,-100.7587,-96.85326,-92.13732,-87.9412,-82.11578,-77.5568,-71.98732,-66.67172,-60.68734,-54.76493,-48.77239,-43.31512,-37.20063,-30.83946,-24.89751,-18.44709,-12.8687,-6.551508,-0.331524,5.835693,12.02335,17.75465,23.97008,30.02362,35.45889,40.80999,46.92168,51.18071,56.49727,60.96333,65.58198,69.17501,73.61896,76.24075,79.34233,81.27704,83.99999,86.45137,88.98421,92.17467,93.27587,95.99069,96.34132,98.6162,98.11376,99.29436,97.99224,96.54182,95.10262,94.60599,93.46454,92.10226,91.65303,89.24302,89.03275,86.24345,84.89791,82.22713,80.55601,78.10091,75.94219,73.30593,71.2161,68.54192,67.4965,65.5683,64.36472,64.48086,62.56571,62.05285,59.99748,58.3949,55.89124,52.6903,51.1408,48.00455,45.39358,42.89975,40.63108,37.44027,36.03854,32.98295,30.91609,28.80944,26.97018,24.88444,22.91825,21.93617,20.10141,19.35221,17.81526,17.36758,16.22182,15.1276,13.88505,12.87106,12.28813,10.87437,10.53844,10.30352,9.339272,8.621159,8.44908,7.790552,7.453328,6.972501,7.257974,6.656129,6.800445,6.910357,7.208178,6.737752,7.295085,7.651007,8.199217,8.531398,8.918216,9.009893,9.889399,9.985273,10.54906,10.70012,11.18744,12.29947,12.68557,13.32865,13.84398,13.78217,14.40825,14.46061,14.74431,14.72653,14.48316,13.66508,13.6005,13.40604,12.34756,11.4973,10.60719,9.598146,9.16733,7.162868,5.711859,3.987162,2.279553,2.071953,0.9913813,0.2561082,-1.012659,-1.885795,-2.927807,-5.082309,-6.900532,-9.961915,-12.98093,-14.46234,-17.7287,-18.58333,-18.66003,-18.5828,-18.29502,-18.59734,-18.07234,-18.83216,-17.82736,-18.52851,-18.27419,-19.13921,-18.98913,-19.45513,-20.46662,-20.82688,-22.51408,-22.80292,-23.65801,-24.21254,-26.30497,-27.29455,-28.85523,-30.3573,-31.88844,-33.33038,-35.15788,-37.24126,-38.49306,-40.49201,-42.28241,-43.59078,-46.57236,-47.35754,-49.56174,-51.14055,-53.77215,-55.05064,-57.84229,-59.26941,-62.38475,-64.26806,-65.80712,-67.49784,-68.37101,-69.72589,-71.15716,-71.97817,-72.64132,-73.42389,-71.93126,-70.81586,-69.48713,-67.90398,-67.98971,-67.66875,-67.903,-68.99283,-69.24433,-70.49127,-70.52742,-70.91114,-72.10391,-73.44606,-75.50896,-76.73388,-79.58534,-81.71621,-84.15745,-85.94619,-88.83998,-91.08058,-93.55877,-95.5928,-96.53281,-98.36415,-100.3742,-100.9807,-102.5213,-103.164,-103.8397,-104.4551,-104.7634,-104.3358,-103.768,-102.3279,-101.8431,-100.7021,-97.9554,-95.82279,-93.24772,-90.39051,-87.71468,-83.78886,-80.53981,-76.6863,-72.99057,-68.37154,-64.34696,-58.7936,-54.92337,-49.40469,-44.5585,-39.80261,-34.56357,-29.88424,-24.43993,-19.25735,-12.33703,-5.187708,1.762616,8.995172,16.03288,24.221,31.75585,39.21462,46.84753,53.90441,61.72941,68.99011,76.19829,83.07142,89.9081,96.30588,102.6011,109.3,114.6436,120.7148,125.3423,130.9861,135.6735,140.0418,143.8155,147.3639,150.842,153.7788,156.0042,157.1973,159.0074,158.6581,157.4653,154.8124,152.6747,150.8032,148.5226,147.3173,145.3059,144.5411,143.3258,142.9536,142.5385,143.2302,142.7773,143.7117,144.2493,145.0981,145.9436,147.7102,148.9445,151.8765,154.4054,155.5021,155.3835,156.2342,155.0783,155.0177,154.1976,153.2465,152.7663,151.838,151.6056,149.0819,146.1023,143.0191,140.47,137.1346,132.4818,129.4028,124.7512,120.7906,115.8386,111.2519,106.2027,101.387,96.61382,90.61514,85.18095,80.405,73.46657,68.92046,62.24874,57.11635,50.45912,44.89789,38.78921,33.21154,26.90684,20.96803,15.65476,9.937805,4.958864,-0.783749,-6.28281,-11.09456,-16.02677,-20.0145,-24.48629,-28.24762,-32.45139,-35.61587,-38.45733,-41.13962,-44.25545,-47.14362,-48.14598,-50.76039,-53.09901,-54.97844,-56.58384,-56.3265,-56.36226,-54.87399,-54.57373,-51.85923,-50.57037,-47.73008,-45.95242,-44.28644,-42.32563,-40.50262,-37.4979,-34.02374,-31.06347,-27.53105,-23.93444,-20.0594,-16.99799,-13.56923,-10.43881,-7.284944,-5.067876,-3.555055,-2.095389,-1.769371,-0.7737938,-1.535628,-2.261534,-4.977445,-7.545431,-11.41364,-14.00352,-17.40045,-18.17224,-21.55187,-22.03359,-23.45215,-25.27573,-26.47512,-28.59106,-30.11094,-31.0397,-33.72037,-35.1032,-36.52998,-38.48244,-39.28014,-41.91029,-42.65633,-44.56535,-45.15528,-46.92509,-47.36201,-49.60268,-50.91686,-53.45248,-54.03081,-55.22112,-55.31334,-56.26329,-55.3684,-54.75817,-54.33198,-52.62972,-51.55454,-49.44174,-47.82813,-45.41164,-43.90255,-41.77854,-39.82093,-37.83682,-36.1457,-33.91675,-32.96689,-30.39054,-29.39064,-27.32565,-26.60835,-25.76936,-24.19394,-23.78963,-22.53268,-22.30716,-21.70991,-20.96139,-20.93575,-20.10368,-20.29557,-20.76288,-20.20091,-21.36511,-21.22054,-22.24594,-22.82884,-23.33249,-24.47026,-24.71118,-26.30095,-27.72193,-29.02628,-30.28585,-32.30547,-34.10474,-36.72892,-38.38604,-41.27445,-42.46574,-43.69539,-44.95224,-45.58804,-46.11274,-47.12212,-48.8058,-49.30643,-51.01846,-52.15149,-53.32111,-54.49082,-55.05697,-54.67978,-53.32738,-53.07255,-51.9915,-51.48303,-49.82035,-48.46212,-46.75907,-45.05858,-43.56438,-42.21514,-40.24606,-38.07449,-36.01703,-33.93603,-31.60627,-29.31087,-26.94413,-24.93069,-22.97081,-20.55775,-18.32838,-16.59878,-13.80131,-13.03994,-9.574763,-8.512592,-6.833351,-4.124146,-3.472909,-1.629321,-0.3538992,0.7961647,2.273822,2.391476,3.550867,3.010909,3.969816,3.678826,2.805586,2.220676,0.9444108,-0.3334167,-2.086685,-3.660029,-4.96123,-5.387881,-5.966626,-6.937445,-9.044804,-9.502161,-10.70148,-11.45257,-11.05117,-11.28159,-11.68966,-11.133,-10.87798,-10.41429,-9.502173,-9.375667,-8.465054,-7.535356,-6.675872,-6.711268,-5.193586,-5.345658,-5.116279,-5.405491,-4.553384,-4.650267,-4.292973,-3.311213,-2.918167,-3.384254,0.1061285,0.4765134,3.614533,4.712341,5.939044,6.758016,5.637185,6.312895,4.247759,2.771259,0.359058,-2.158101,-4.882205,-8.30529,-11.77185,-15.77543,-19.20468,-22.66408,-25.76944,-30.52083,-33.93228,-38.3763,-42.58917,-46.77395,-50.88961,-55.29754,-58.00287,-62.61425,-65.16247,-68.43299,-71.42213,-73.77871,-75.77876,-78.26392,-79.42828,-81.13001,-81.96636,-82.27144,-82.00366,-81.90179,-81.11908,-80.33365,-78.85102,-76.42504,-74.7069,-72.23109,-69.0874,-65.34159,-61.63559,-57.96671,-53.83568,-49.07107,-44.93342,-39.45428,-34.6584,-29.45272,-23.39401,-18.02971,-11.41685,-5.77388,1.412741,6.701218,14.14641,20.86434,26.70344,33.83573,40.36685,47.49727,53.87208,59.93057,66.61474,71.78211,78.65,83.31267,89.37933,94.15061,98.60594,103.7589,106.7605,110.5555,112.8994,115.5247,116.8007,118.0796,118.7075,118.8348,118.0257,116.0468,116.4139,114.629,113.5409,113.1506,113.0716,113.5901,113.7642,114.0224,114.2928,114.4386,114.1815,114.1226,113.2683,112.7936,112.0281,112.8794,112.3992,112.6974,112.7214,114.3554,115.2593,116.8942,120.0911,118.6573,120.9619,119.3061,118.7083,116.2013,114.5474,112.3728,109.9346,107.2496,103.889,100.451,97.40277,94.2328,89.93374,86.36081,82.51144,78.56716,73.56021,68.72302,63.44806,58.28425,52.90988,48.32504,43.22711,37.26449,32.7835,26.93724,22.26945,17.34326,11.94992,7.379306,2.575785,-1.692967,-6.10801,-10.11622,-14.40634,-17.77879,-21.77458,-26.30662,-30.52066,-33.60788,-36.31894,-37.83407,-40.02542,-40.78094,-42.02967,-42.08728,-41.92633,-41.60895,-41.08486,-40.43644,-40.28324,-39.80723,-38.95207,-37.46916,-34.83567,-33.76933,-30.43808,-28.51223,-25.74815,-23.93631,-20.99899,-18.86587,-16.57161,-14.48688,-13.30181,-11.26924,-10.31462,-8.882557,-8.332035,-8.441094,-7.100777,-7.474758,-7.466212,-8.115876,-9.323894,-10.34731,-12.68037,-13.92553,-17.24182,-20.31108,-24.45241,-27.76857,-33.46368,-38.90057,-43.7204,-48.42158,-50.51041,-54.74429,-57.04671,-59.45922,-61.48088,-63.90781,-65.58804,-67.70812,-69.83473,-71.41797,-72.93488,-73.79893,-75.6103,-76.15282,-77.19278,-77.69601,-78.0005,-77.90096,-77.90621,-77.29022,-76.21086,-75.66842,-74.3167,-74.23107,-71.71536,-71.24781,-68.47501,-67.51242,-65.11926,-63.03689,-60.21482,-58.0456,-55.27557,-52.99079,-49.1776,-47.19097,-43.55777,-40.59856,-37.73635,-34.99638,-31.59333,-28.20802,-25.51174,-22.80256,-19.99224,-17.13951,-14.41059,-12.30968,-10.08165,-7.815029,-5.750085,-3.556763,-2.440883,-1.517334,0.01095455,0.4370686,0.8372542,1.002648,0.07576191,-0.2586155,-1.094,-1.809132,-1.445072,-2.011633,-1.714925,-1.697403,-1.327697,-1.533406,-1.842008,-1.52297,-1.152012,-1.662488,-1.560541,-2.106635,-2.548656,-1.976848,0.08723355,1.211393,2.196337,2.706247,4.883214,5.150469,7.169366,7.464419,8.956388,10.28319,11.34665,12.36816,12.99297,14.32772,15.49741,16.40335,17.65011,18.22808,19.89591,20.39391,21.86036,22.92498,23.33267,24.75966,25.47234,26.49713,27.88423,27.65553,29.68913,29.64538,31.18244,31.81768,32.60178,32.64456,33.79841,33.92304,35.12473,34.7677,35.03953,35.84014,37.01745,37.23488,37.92601,38.10905,39.31211,39.55261,40.28632,40.86845,41.14761,41.78369,43.27468,43.24056,44.45611,43.90379,44.25878,43.00237,43.53373,42.84948,44.39518,44.78292,46.79351,47.82858,49.94501,51.66159,53.67166,55.9981,58.78488,60.55154,63.46063,65.22633,68.41789,70.32483,72.4563,74.47077,76.09819,77.19445,79.47748,80.05701,81.72779,81.9421,83.9766,84.19381,84.49597,84.71368,84.989,84.62511,84.36137,83.21245,82.77677,80.78623,79.98169,77.9732,76.0787,73.27139,70.76255,68.45865,64.56265,61.54796,57.54286,53.75229,50.12426,45.90222,41.64408,37.28582,32.26224,27.92827,23.11201,17.76061,12.59482,7.357639,2.962292,-2.917595,-8.112412,-13.45932,-18.61356,-24.00125,-28.24379,-34.08668,-38.25437,-44.23597,-47.46038,-53.0284,-56.74996,-61.37723,-65.17773,-69.04652,-71.95423,-76.04871,-78.99283,-82.30902,-84.60148,-86.97866,-89.4573,-91.07549,-93.4559,-94.73931,-95.13059,-97.25316,-97.27288,-99.22396,-98.13637,-99.56306,-99.33576,-99.90217,-99.42164,-99.08264,-98.48448,-98.03298,-96.9467,-95.79117,-95.48903,-93.69495,-92.06403,-89.99305,-87.46466,-86.97075,-84.06893,-84.51341,-84.05004,-83.98934,-84.97088,-86.20915,-88.17713,-91.18656,-92.97417,-95.28375,-96.4819,-98.11502,-99.39119,-100.7053,-102.8991,-103.2467,-105.2579,-105.9159,-107.4157,-107.3112,-108.0688,-108.3454,-108.8775,-109.3362,-109.007,-108.7647,-108.4229,-107.8312,-107.2337,-105.4753,-103.2462,-101.1729,-99.50583,-96.96769,-93.09094,-90.37183,-86.46886,-83.1323,-78.31114,-74.59095,-69.34378,-64.37773,-59.66845,-54.40783,-48.75263,-42.69853,-37.67519,-31.36895,-25.5904,-19.0886,-13.18225,-6.751778,-1.114413,5.335105,11.11459,17.38839,21.57336,26.07694,30.87899,37.0994,42.71566,48.8875,54.93922,60.67853,66.70858,72.11838,77.70649,82.2814,86.78405,91.04558,94.73999,96.62694,98.73242,100.7002,103.8768,105.169,108.1274,108.6715,110.2244,111.14,111.3417,111.3629,110.8188,109.6431,108.9683,106.9745,104.9978,102.4516,99.21652,96.41408,92.8202,89.251,85.02371,81.07408,76.95706,72.55106,68.52873,64.18297,59.80695,56.72246,52.50675,50.28579,46.80673,44.28891,41.7694,41.52792,39.80203,38.2574,36.45148,34.26856,33.2089,30.61676,29.81748,27.80372,25.9864,25.22406,23.18518,20.65532,18.56899,16.49035,15.89565,16.5191,16.01017,16.76056,16.6692,18.60579,18.58027,20.29715,20.3784,22.00799,21.22222,22.20064,20.07727,20.69623,20.55789,21.38434,22.59791,23.03315,24.67578,25.17186,26.53532,27.17925,27.50253,27.60352,27.30311,25.58396,25.52537,24.77468,24.90359,24.71969,25.10652,25.54282,24.51397,24.23358,23.81213,22.52957,21.32328,20.01373,18.0112,15.61447,13.58989,10.16731,7.429309,3.177765,-0.0768305,-4.580264,-8.547854,-11.47664,-13.89496,-16.22944,-20.13282,-22.44185,-26.41961,-29.32076,-33.10008,-36.1632,-40.14198,-43.65324,-47.92238,-51.30156,-55.24894,-58.59466,-60.39632,-62.05208,-63.69654,-64.90815,-66.288,-67.54798,-67.97572,-69.56177,-70.86442,-69.05397,-70.95541,-70.62087,-71.90905,-68.94818,-73.37445,-67.25773,-70.56864,-66.69008,-68.92007,-63.42994,-65.54343,-61.4881,-60.53704,-58.79323,-56.31629,-55.35606,-55.37095,-51.62675,-52.13168,-48.81423,-50.29011,-49.7791,-42.50559,-44.82711,-39.0535,-40.93964,-33.61039,-40.26512,-28.913,-33.28809,-27.16733,-29.27198,-29.74864,-32.87929,-28.46271,-29.61514,-32.16865,-25.98676,-23.79503,-28.54492,-18.00321,-25.26705,-24.87028,-22.37769,-19.90649,-20.79091,-20.84679,-23.11553,-25.59834,-27.21701,-30.78492,-32.3687,-34.50926,-37.05286,-39.03349,-43.52838,-46.54914,-51.44949,-55.62191,-60.18409,-64.80741,-70.14189,-74.27732,-77.90788,-79.96249,-81.9497,-84.15094,-85.18286,-87.49809,-87.62066,-89.31246,-89.08177,-89.59557,-88.9675,-88.25597,-87.11815,-85.52107,-83.30242,-81.04537,-78.2908,-75.3538,-71.76345,-67.81082,-64.75778,-58.84373,-54.73781,-49.7345,-44.84572,-39.72596,-33.58188,-27.80326,-20.96505,-15.62156,-8.60785,-2.784243,4.755452,10.7742,18.26066,24.49914,31.81537,38.85309,45.0878,52.5118,58.25005,65.86202,71.87025,78.46501,83.66996,90.68879,97.03053,101.048,106.3066,109.1101,113.3667,112.772,122.0848,120.3107,127.1749,128.4236,135.7502,137.4076,144.1858,146.2299,150.4584,153.4909,155.8513,158.7645,162.3025,162.729,165.7676,166.46,169.9395,173.6629,168.3282,173.6535,168.9719,172.5301,165.2849,172.5493,160.9807,163.9136,155.8621,153.413,150.7351,150.9755,143.4596,139.899,141.1766,132.5266,128.0225,131.5277,117.6704,121.009,118.6275,113.5318,107.0069,102.5356,95.95237,90.79163,84.36041,78.58278,72.37742,66.72441,59.56915,53.2461,45.93327,40.0079,32.92773,26.46002,19.98309,13.63474,7.584083,1.524374,-4.584169,-10.20301,-15.16314,-21.2005,-25.7682,-31.27333,-34.99914,-39.66269,-42.92775,-47.42066,-50.17702,-53.48076,-55.94755,-58.62781,-59.93281,-62.54781,-63.21109,-64.45823,-64.32129,-65.36197,-64.68533,-64.3101,-64.26964,-64.6057,-63.80221,-62.41874,-60.45363,-57.16646,-54.58824,-51.39756,-47.40609,-44.37412,-40.07992,-37.23362,-34.68895,-32.92537,-29.51373,-26.20154,-23.55687,-19.96076,-18.51722,-14.94257,-13.87058,-11.83139,-11.98275,-12.11264,-13.37386,-15.22314,-18.50364,-20.56121,-23.78973,-24.00394,-25.43356,-26.47602,-28.83534,-28.67548,-30.85813,-30.49215,-32.87494,-33.59051,-35.52681,-36.55925,-37.64455,-39.24358,-40.44953,-41.90989,-43.5636,-44.37113,-46.15952,-46.98051,-48.73071,-49.30567,-50.72729,-51.10451,-52.53696,-52.61413,-53.79552,-53.74683,-53.6883,-54.97685,-54.02688,-55.32251,-54.27104,-54.65716,-53.56807,-53.89452,-51.93043,-52.18132,-50.1033,-49.6854,-47.80395,-47.22521,-44.97559,-44.03734,-41.51369,-40.73066,-38.63109,-36.71776,-34.97167,-32.5936,-31.11235,-29.39644,-27.88926,-26.20905,-24.14277,-21.55634,-19.21479,-15.72875,-12.63249,-9.474449,-6.353997,-2.857181,-0.5754952,3.059497,5.631536,7.899885,10.28639,11.92904,14.79784,15.52001,17.3254,18.45086,19.0259,20.31487,20.71491,21.02897,20.40315,20.67476,19.54947,19.28919,18.15797,16.08513,15.29005,13.72588,14.08044,12.97308,13.23101,11.89719,11.38556,10.19972,9.13649,7.149877,5.883461,4.36694,2.66039,2.301454,2.250099,2.35891,1.859647,2.076824,1.715844,1.887553,2.299272,2.214457,2.046091,2.315048,2.181933,2.569716,2.155443,3.684267,2.263985,3.810276,2.805929,3.953414,3.198817,4.856405,3.639397,5.676375,4.625957,6.301044,6.432554,6.975531,6.050257,5.687215,6.622325,6.240838,8.522355,8.997631,11.93827,12.7325,15.62198,16.71613,19.28618,21.19483,23.13958,25.48311,26.50707,28.36325,29.61525,30.50839,32.15089,32.56923,34.23495,34.8076,36.01181,36.71779,37.3178,36.99109,38.1342,37.86491,38.26091,37.42297,36.68148,36.13581,35.84373,34.46568,33.7228,31.91555,31.40771,30.16272,27.31889,25.28762,23.73531,23.60313,23.9212,24.52976,24.76575,25.89166,26.76785,27.90581,28.63126,29.78743,30.15268,31.94959,32.08722,33.16255,33.8864,34.55657,35.99748,36.24217,37.03599,36.6401,37.33211,37.64249,38.0129,38.49671,38.00098,39.14882,38.21912,39.75007,38.14383,38.37022,37.79798,37.50924,36.79927,36.41839,35.27968,33.81542,33.33088,31.81725,30.86547,29.09071,27.44038,25.79214,23.86571,21.6252,19.61705,17.73049,15.35856,13.28583,11.21334,8.389178,6.318265,2.95645,0.8580393,-2.528124,-5.53784,-8.745447,-12.02977,-14.61741,-19.11867,-21.85917,-26.11148,-29.08415,-33.2587,-36.16323,-40.85553,-43.91692,-48.44173,-51.30067,-56.09729,-59.48973,-63.73587,-65.49671,-67.32215,-68.74362,-69.80176,-71.90461,-72.20221,-74.3793,-74.34632,-74.92304,-74.15955,-73.81342,-73.93929,-73.97829,-74.4207,-73.20711,-73.80131,-72.89687,-73.3159,-72.59564,-73.62553,-72.94124,-73.85955,-73.00509,-74.22791,-74.21075,-74.82702,-75.19501,-76.23656,-76.98577,-78.50876,-78.22293,-79.26037,-79.72641,-81.0019,-82.26397,-82.45428,-84.39184,-85.24072,-85.18576,-84.82933,-84.28112,-83.15393,-81.64907,-80.84303,-79.66162,-77.49371,-75.54006,-73.63286,-71.26621,-69.31204,-66.6056,-64.27982,-61.08721,-57.9771,-55.18106,-51.47378,-48.09304,-44.76588,-40.98983,-36.60133,-32.67396,-28.32832,-23.43088,-19.59691,-14.73349,-11.07614,-5.657918,-3.187347,1.534852,4.325793,9.813753,14.20466,20.01588,24.11531,30.16487,35.17933,40.30432,44.93662,49.57299,52.60501,57.40121,61.05792,65.37449,69.80625,73.48182,77.46898,81.21068,84.97355,87.41857,91.1073,91.83219,94.82064,95.28504,96.15134,96.36555,95.95379,95.26731,94.44887,91.14606,88.55128,86.68699,84.29702,82.33787,80.04286,77.51983,74.74689,72.67529,69.43022,67.00082,62.93972,60.64827,56.52686,53.95472,50.05887,47.02771,43.36729,41.49851,38.48342,37.81075,33.68547,31.06614,27.54459,25.75257,22.66203,20.77178,16.64594,15.3287,11.62523,10.08653,6.834788,5.324774,2.903232,1.968371,-0.6588893,-2.175152,-3.67047,-5.401745,-5.062556,-7.0127,-7.938884,-8.143543,-9.655266,-9.647403,-10.71269,-11.41731,-10.83414,-12.61471,-10.7601,-11.59546,-10.99836,-10.80428,-9.46749,-9.021051,-9.255001,-8.124237,-6.897244,-6.159953,-5.106698,-3.277541,-2.975332,-1.236728,-0.1568305,1.759515,3.089603,4.470348,5.882878,7.012846,8.110227,8.970441,9.589569,10.40767,10.42647,10.94545,10.15651,9.659805,9.021129,8.577812,6.556914,7.517259,6.046431,7.727162,6.040295,6.144457,4.521541,4.427507,2.177427,0.8238885,-0.8778495,-2.114757,-3.92951,-3.604226,-4.968193,-4.845826,-5.870397,-5.721859,-7.284462,-7.329579,-8.730577,-10.16565,-11.06049,-13.88707,-14.59256,-17.10081,-19.19805,-21.0034,-23.43844,-25.83195,-28.16486,-30.97648,-31.25916,-32.57208,-33.79377,-34.52422,-35.66716,-36.39006,-37.42735,-38.43934,-38.86755,-40.05412,-40.54711,-41.52402,-42.0584,-42.73284,-43.22325,-43.67754,-44.95686,-44.89351,-45.86502,-46.0055,-47.50073,-47.76004,-48.78831,-49.13891,-50.09795,-50.85461,-51.1174,-52.35265,-52.798,-53.39235,-54.13742,-54.82754,-55.5544,-56.33287,-57.45037,-56.34681,-56.2278,-55.96663,-55.76524,-58.72858,-58.41944,-61.102,-62.92512,-64.316,-66.98315,-68.51641,-71.27065,-73.84648,-74.30474,-77.75866,-79.26285,-82.73249,-84.74511,-87.98112,-90.39165,-92.4457,-94.30607,-96.64578,-98.63641,-99.82846,-102.0477,-102.2729,-103.7423,-103.9081,-104.2421,-103.4006,-103.6479,-102.828,-102.0384,-100.0508,-98.00447,-95.98345,-93.55028,-90.97681,-87.52552,-84.34685,-79.83756,-76.36067,-72.35529,-67.14912,-63.50734,-57.76008,-53.51429,-47.86206,-42.45859,-36.23909,-31.69649,-24.81103,-19.19501,-12.2069,-6.38597,0.7375942,6.374591,13.27055,19.14817,26.41439,32.20794,38.71554,44.75904,50.79198,57.49447,62.47088,68.64245,73.94325,79.08909,84.8449,89.57191,94.154,98.56415,101.8703,105.2815,108.3383,112.4971,114.7092,118.5934,121.9346,124.3716,126.9476,130.4356,131.61,134.9828,135.9869,137.878,138.8367,140.7059,139.2037,137.7338,136.2969,135.2169,134.4238,134.2547,134.7888,135.4313,137.0197,138.3518,139.6106,142.1568,142.5002,144.8883,146.304,148.3012,149.8299,151.4894,153.0394,155.5185,157.7679,157.4552,158.2718,157.474,156.0237,157.5484,155.0291,154.2702,152.9093,150.4388,149.0948,145.6265,144.048,140.2208,136.0381,132.063,127.611,123.302,117.9192,112.9613,108.0321,102.1672,95.94776,89.75309,84.38535,77.81236,72.48011,65.84384,59.99268,53.18186,46.297,38.7091,32.69533,25.93813,21.09368,15.46825,10.08381,5.838545,0.9102968,-2.560251,-6.566744,-10.32002,-14.77679,-18.86128,-24.08184,-27.53873,-30.67289,-33.15868,-36.0473,-37.99506,-39.0694,-40.77733,-41.065,-42.71216,-42.7543,-44.26793,-44.23751,-45.0955,-45.72653,-45.55766,-45.84722,-45.29285,-46.33666,-44.82307,-45.79758,-44.54303,-44.49108,-43.63766,-43.66168,-42.29995,-41.53023,-40.84636,-40.1298,-40.11295,-39.0559,-38.29758,-36.20438,-35.285,-35.21189,-33.16063,-33.28659,-32.70963,-33.48876,-34.79406,-36.07763,-37.1116,-38.57064,-39.40785,-41.04183,-42.24796,-44.74365,-44.7284,-44.49977,-43.09421,-42.00094,-40.27509,-38.36507,-37.77438,-35.65654,-36.15345,-35.43018,-32.58457,-34.47976,-32.57452,-33.19271,-31.58758,-32.61539,-31.73399,-31.26356,-31.38827,-30.84437,-30.56335,-32.1297,-29.33309,-32.41947,-28.94075,-31.41454,-28.91348,-32.3839,-28.73163,-31.35937,-31.43836,-28.76863,-34.41907,-28.33376,-31.97605,-29.35571,-33.87484,-30.42846,-34.81165,-32.60113,-36.08709,-37.7319,-35.86519,-40.98895,-37.49893,-43.08615,-41.23885,-45.3222,-44.1106,-51.29777,-46.33659,-51.80442,-48.93804,-52.06533,-48.65615,-51.92518,-50.94636,-50.85913,-51.06657,-54.03676,-50.97471,-53.92218,-52.24097,-52.23103,-49.02773,-47.90785,-45.66443,-42.54148,-42.42881,-37.69946,-38.37255,-34.32139,-34.07166,-30.94359,-29.31202,-28.06571,-25.03653,-24.2756,-21.94333,-20.631,-18.13893,-18.37918,-15.02205,-16.19145,-13.02929,-13.45729,-12.36799,-13.84279,-13.25299,-13.10775,-12.23146,-11.88479,-10.72753,-10.67498,-10.20329,-9.132735,-10.12243,-10.68794,-11.04153,-12.88014,-14.50014,-15.28189,-17.27735,-16.42907,-18.01723,-16.92071,-16.99607,-17.48547,-17.59491,-18.12057,-18.75722,-18.84993,-19.99002,-21.27706,-22.26002,-23.96911,-25.24501,-27.98324,-31.53738,-31.79759,-32.45963,-35.80664,-34.04541,-35.72637,-35.31349,-36.53248,-35.68135,-36.43197,-37.33547,-36.96036,-38.45418,-38.43015,-36.76197,-39.37656,-34.94078,-36.34328,-33.91888,-37.00816,-33.50838,-37.80633,-35.85077,-36.87262,-40.10125,-36.71952,-43.34536,-42.46647,-46.65587,-44.88561,-50.56271,-48.8591,-53.50075,-52.94101,-54.35737,-59.39458,-55.60321,-62.22139,-58.56951,-63.0502,-61.06047,-65.8862,-60.00747,-66.07307,-58.72841,-61.457,-56.51933,-59.00198,-54.40927,-52.87376,-52.04171,-49.86481,-44.87859,-45.66411,-39.87258,-38.80407,-35.23984,-32.60762,-29.01195,-25.57169,-24.55721,-18.71465,-17.4704,-11.81716,-9.470362,-5.191445,-2.019555,0.9472815,6.214319,8.650959,12.2459,15.69793,18.55986,21.23267,24.96256,26.21805,30.02497,31.37148,35.32685,36.59338,42.33673,45.51758,49.77027,53.19342,57.3738,60.53702,64.39779,67.96694,70.53909,73.85224,76.95101,78.41518,82.28853,84.31396,86.48885,88.56491,89.80867,92.19491,93.04172,94.10389,94.60503,95.43393,95.20456,93.77777,91.68725,89.03646,86.85059,84.51403,83.64452,82.85027,83.636,85.53909,87.19935,89.28827,91.89464,93.41215,95.66594,97.847,99.9606,102.4786,104.6606,106.9614,109.4853,112.3407,115.0927,118.0613,120.5623,122.1888,122.5332,123.2341,122.5551,123.4507,121.7496,122.1906,120.4958,119.4538,117.4582,115.3006,112.9749,110.7262,107.096,104.0815,99.77812,96.22686,91.2553,88.47658,84.51897,79.81012,76.60503,72.4623,68.59677,64.4261,60.88274,57.33043,54.39684,49.38662,44.82559,40.79128,35.31227,33.12434,27.0102,23.80988,18.4828,14.86677,10.28431,6.013604,1.947393,-1.704615,-6.255852,-8.981574,-13.47892,-15.89003,-19.72969,-22.6786,-24.78515,-28.70772,-31.98408,-33.73807,-35.37242,-36.41094,-37.59005,-37.40977,-37.58354,-37.18465,-36.73783,-35.91553,-35.40985,-35.51395,-35.45364,-35.35187,-32.7504,-32.48312,-29.66177,-28.21199,-25.27825,-22.71007,-20.88824,-17.88858,-16.12174,-13.45675,-11.73003,-10.09681,-8.162818,-7.085882,-5.667828,-5.05138,-4.941149,-4.7348,-5.928418,-6.410276,-9.117181,-10.12286,-13.95185,-17.25553,-19.27806,-21.96677,-22.58452,-24.36251,-24.86061,-25.82106,-27.44488,-27.62798,-29.27631,-30.43458,-31.72168,-33.33393,-33.5597,-36.53564,-35.87364,-38.25683,-38.61539,-39.73387,-41.16438,-42.03254,-42.53558,-43.76244,-44.59613,-44.962,-46.39906,-45.81731,-47.78358,-46.17315,-47.60176,-47.01693,-47.06345,-47.25218,-47.09519,-46.56781,-46.23054,-45.08966,-44.87529,-43.33229,-43.04434,-41.59358,-40.50428,-39.44861,-37.76101,-36.53496,-34.84219,-33.64397,-31.40051,-29.96817,-28.95047,-26.83557,-25.55729,-22.8207,-22.16213,-19.82802,-18.70178,-15.77632,-15.72663,-13.6721,-13.12237,-11.94805,-10.96958,-9.929868,-9.228967,-8.912321,-8.802085,-8.549748,-9.053962,-9.247494,-10.09462,-10.42703,-11.85356,-12.4407,-13.45667,-12.01775,-12.88915,-12.57581,-13.32053,-13.46544,-14.9714,-15.7266,-17.60011,-18.74322,-21.20846,-22.7264,-23.88627,-24.5539,-25.75951,-26.94993,-26.8254,-27.17317,-26.65099,-26.14769,-26.2331,-24.65155,-24.94069,-23.77573,-23.18639,-22.273,-22.06938,-21.16544,-21.28307,-20.77673,-20.78158,-21.09327,-21.06101,-21.63808,-21.89039,-22.14536,-23.58603,-24.10467,-25.16041,-25.92843,-26.9106,-29.1315,-29.70809,-31.74702,-32.97283,-34.69453,-36.58415,-38.081,-39.91416,-41.7339,-42.59505,-45.55672,-45.85019,-49.07465,-50.07043,-50.79371,-52.35932,-52.24109,-54.68422,-55.55222,-57.17271,-58.54639,-60.94447,-62.71409,-65.21128,-66.29567,-69.25609,-69.54087,-71.56254,-73.49989,-74.06901,-76.36391,-76.85785,-78.99182,-79.35822,-80.86516,-81.16365,-82.24381,-81.87147,-82.82159,-81.75637,-81.91377,-81.67962,-80.35776,-80.10195,-78.42356,-77.15411,-75.07596,-73.34018,-70.57446,-68.70658,-65.58085,-62.54925,-59.31203,-55.87567,-52.5599,-48.4072,-45.20487,-40.32827,-36.73224,-31.61383,-28.00215,-22.73638,-19.08842,-12.98257,-8.915824,-3.542863,1.350897,5.766349,11.47099,15.39787,21.09078,25.01389,29.33014,33.8999,37.31124,41.45915,44.93126,48.07706,51.00846,53.79837,56.56725,58.55967,61.078,63.14451,66.82433,70.09343,73.08396,75.46443,78.78217,80.79677,84.08437,85.48511,88.44855,90.06377,92.18414,93.57421,95.06584,96.50463,97.44327,99.23169,99.17717,100.7761,100.4377,101.5975,101.04,101.6782,101.296,100.2882,100.5598,98.85477,98.95359,97.69846,96.41539,95.56668,94.53624,93.25721,90.33705,87.30641,84.43645,82.50434,81.1884,81.36452,81.70627,83.44921,85.90463,86.82158,89.28725,89.22517,92.86875,93.24864,95.56208,96.66682,97.92447,100.0395,100.2521,101.7613,102.9696,101.9863,102.0872,101.1902,101.0591,100.2831,98.26805,97.85629,95.30686,94.11775,91.37074,89.27659,85.52066,84.13098,80.10354,77.12171,73.1475,69.488,65.70914,61.01295,57.17757,51.94721,47.8818,42.64448,38.43586,33.64274,28.25784,23.71199,18.834,13.72703,9.401537,4.02592,-0.2047236,-5.343496,-9.763194,-13.73994,-18.55018,-22.13357,-27.19817,-30.54031,-34.67714,-38.13951,-41.38842,-44.71464,-47.42999,-49.97592,-52.64751,-54.56613,-56.51115,-58.18583,-59.41747,-61.13025,-62.22153,-62.92102,-63.64169,-64.19629,-64.83129,-64.89069,-64.30891,-63.95115,-63.30448,-62.49808,-61.1657,-60.38241,-58.44789,-56.94737,-54.58252,-53.32604,-50.352,-48.87103,-45.84806,-43.35494,-41.06872,-38.00635,-35.48221,-32.50525,-30.50323,-27.97119,-25.37273,-23.1295,-21.99884,-20.17989,-18.4422,-18.79327,-17.89916,-18.58778,-18.9182,-20.8822,-21.7273,-25.30636,-27.49887,-29.59169,-29.98658,-30.37235,-30.09275,-30.186,-30.69101,-31.76137,-31.92495,-31.71368,-31.15456,-31.04233,-29.41404,-29.41617,-27.66932,-26.70061,-25.12858,-23.50767,-23.02041,-21.0605,-20.8381,-20.93161,-19.73939,-19.34691,-16.41675,-16.51983,-14.31008,-13.43123,-12.62628,-11.37306,-10.34423,-9.192855,-9.329318,-8.166574,-8.497951,-8.187422,-9.16198,-8.776036,-9.969816,-10.38998,-11.04644,-12.29211,-12.74924,-14.81694,-15.12057,-16.51766,-18.10768,-19.56446,-20.91021,-22.42095,-23.53654,-25.71613,-26.73016,-29.318,-30.35717,-31.92483,-33.6398,-35.89084,-36.50602,-38.45179,-39.37742,-40.29191,-41.27863,-42.2795,-42.36302,-43.10265,-43.29189,-43.80613,-43.02735,-43.75985,-42.44619,-43.13247,-42.36303,-41.32683,-40.9124,-39.21313,-38.54424,-36.40886,-35.56268,-33.35527,-32.25482,-29.95822,-28.50341,-26.22516,-24.11672,-21.55557,-19.3792,-17.45595,-14.53864,-12.72949,-9.426999,-7.107039,-4.271332,-1.483758,1.495803,3.842287,7.03981,9.707837,13.69908,14.64806,18.31277,20.77527,22.40003,24.52494,26.6529,28.97009,30.05178,31.65098,32.99568,33.44158,34.92966,34.99976,35.31686,34.71165,33.95765,33.79952,32.25543,32.95052,31.82489,32.83609,31.39472,30.81973,30.2822,29.90369,30.46376,30.03164,30.97006,30.92796,32.10287,32.00344,33.39778,35.2686,37.9097,38.77941,42.09985,42.56992,45.09037,45.87123,47.38192,47.80696,49.31213,49.98288,49.55556,50.83965,50.86595,50.2629,50.71801,50.52969,49.96865,49.10564,49.16434,48.35689,47.56911,46.18573,45.60255,44.68584,42.5134,41.99234,40.60835,38.70082,37.9234,36.10709,34.86071,32.47033,31.86537,30.36683,28.98956,27.14567,26.86555,24.31371,24.24523,23.00984,22.30772,21.51916,20.93113,20.27083,20.62952,19.84448,19.22097,16.62717,16.64454,15.88358,16.97279,17.95335,18.543,20.83206,22.12179,24.88046,25.80975,28.94924,30.95012,35.04762,37.12343,40.91947,43.62533,47.47571,49.58445,53.94387,56.47083,59.82339,63.39841,66.44854,69.5718,72.78329,75.55855,78.03451,79.90317,82.2564,84.18277,84.82099,87.50711,87.98819,88.90789,90.29181,89.54459,91.09334,89.35506,90.39202,87.90728,87.80002,84.58851,83.12239,79.62933,76.47218,72.19954,68.59842,63.19779,58.9657,52.22896,47.5244,40.84035,35.89512,31.08834,25.84815,20.93103,15.64044,11.45891,6.270716,2.042625,-3.666068,-7.286089,-12.63987,-17.01639,-22.22977,-26.41255,-30.92643,-36.01756,-39.73519,-44.40672,-48.7861,-52.00045,-56.14691,-60.18535,-62.65624,-66.94279,-69.4227,-72.04612,-74.62272,-77.14106,-79.13998,-81.31785,-83.05958,-85.24549,-86.65634,-88.50923,-89.31881,-91.42355,-91.042,-92.35737,-93.00584,-92.77885,-93.74986,-93.47446,-94.30806,-93.40529,-94.22507,-93.99319,-94.93227,-93.76345,-95.40875,-95.43067,-96.0167,-95.93159,-95.3931,-95.5907,-94.4797,-94.72406,-95.22623,-95.55922,-96.11085,-95.39706,-95.88759,-95.93928,-97.22434,-98.53772,-99.49338,-101.5403,-103.3777,-105.2936,-106.8296,-108.8241,-110.5704,-112.7308,-114.1102,-116.4782,-117.5962,-119.9258,-120.0674,-122.2932,-122.8892,-123.8516,-124.57,-125.2623,-125.0133,-126.163,-125.6563,-125.4787,-123.76,-123.3011,-120.9457,-119.8958,-117.1672,-115.0433,-111.796,-109.6033,-105.6196,-103.0727,-98.63924,-95.33491,-90.36104,-87.11275,-81.66732,-77.55283,-72.39397,-67.29127,-62.07779,-57.04314,-51.17829,-45.42938,-40.25427,-34.05969,-28.88459,-22.50842,-17.33621,-11.79177,-6.561192,-0.9774673,4.589627,9.467183,15.32378,19.91913,25.10853,30.25766,34.85181,39.11535,43.68158,47.52839,51.77293,55.46845,58.52843,62.16627,64.74123,67.94993,70.66833,72.5837,74.88117,76.05558,77.57021,78.36398,79.0313,79.08321,79.36346,78.6791,79.11829,77.09017,77.40766,75.37339,75.05902,72.30901,71.41796,68.82991,66.76244,64.22839,61.8882,58.61047,55.13856,51.909,49.39842,48.49361,46.03944,46.65399,46.7862,48.52906,49.55564,51.6854,52.80861,53.56094,55.42491,56.34596,56.27899,56.97772,56.97837,55.84103,54.17563,53.59319,52.87966,52.4561,52.40374,52.44487,52.40361,52.18396,52.43127,51.96642,51.73606,50.86054,51.04,48.82267,48.85889,47.23012,45.94323,44.46281,43.0536,40.50707,39.71904,36.58729,35.57175,32.63147,31.09244,28.20865,26.84866,23.89783,22.26236,19.50534,17.49862,15.4844,12.88138,11.21646,8.573809,7.578775,5.135851,3.717459,1.658583,0.7875306,-1.761668,-1.567059,-4.148136,-4.439589,-5.722501,-6.572363,-7.519257,-7.707602,-9.061521,-9.128116,-9.350718,-9.989287,-9.055181,-9.435152,-8.827414,-9.407172,-8.763657,-10.37427,-9.622954,-9.129208,-6.69237,-5.869438,-2.477972,-0.7461931,2.112996,4.831729,7.173766,10.22094,10.96994,12.10212,13.87122,15.51849,18.50514,20.45604,23.33654,25.86325,27.99168,30.47348,31.78083,34.32007,34.48133,35.504,36.44997,36.46117,35.92244,35.48372,34.93958,33.27438,31.49655,29.67572,27.09197,24.30927,22.48518,20.07569,18.78158,16.77144,13.14122,11.4384,7.998077,6.564062,3.944865,2.298355,-0.3227504,-1.718349,-3.9265,-5.990124,-8.844881,-9.738256,-13.12979,-15.03821,-15.88801,-15.72014,-16.55461,-15.98362,-16.59888,-16.10976,-16.98947,-16.21113,-16.19949,-16.67258,-16.62223,-15.62718,-16.09833,-16.37044,-14.88137,-16.1374,-14.93887,-15.34595,-14.60641,-15.42196,-13.59203,-15.06809,-12.38705,-12.81383,-12.17642,-12.65016,-12.07737,-12.20187,-12.25518,-13.10408,-13.3652,-13.39776,-14.42665,-14.5729,-15.91033,-15.95133,-16.76246,-18.37319,-19.1541,-20.59163,-22.94604,-24.80058,-27.34534,-29.03738,-30.13357,-31.18249,-31.39232,-32.43331,-33.6031,-34.01777,-34.93169,-35.92724,-37.31933,-39.83992,-42.71508,-46.42101,-48.9921,-48.87778,-51.4044,-48.6074,-51.79686,-49.74757,-52.2855,-50.54738,-52.78976,-51.79118,-53.32875,-52.80222,-54.41175,-53.44571,-51.19104,-50.89186,-48.15766,-48.82403,-43.99807,-42.38241,-38.9864,-36.76061,-35.53324,-33.59786,-35.06085,-33.13986,-34.45212,-33.91998,-36.55658,-36.34532,-39.4169,-40.34222,-43.05717,-44.5584,-48.47465,-50.25797,-54.01522,-57.61079,-60.67998,-65.23306,-68.09215,-70.904,-73.34829,-75.85643,-77.91493,-79.93608,-82.05312,-82.41787,-84.70277,-84.46934,-86.65542,-85.85924,-87.67525,-86.97012,-87.06119,-86.69137,-86.11178,-84.26916,-83.5662,-81.5943,-79.39736,-76.60226,-74.05382,-70.69013,-67.14524,-62.91006,-59.46479,-54.07196,-48.80725,-44.90282,-37.96404,-32.66382,-26.405,-19.67249,-13.18072,-6.456129,1.28347,7.339187,13.84337,21.54927,27.52533,35.71809,41.30514,48.74315,55.69225,62.218,67.86422,74.20672,79.5543,84.83116,89.92493,93.81454,98.83378,101.9346,105.7269,109.5462,114.5059,117.8666,123.3319,125.3247,128.9953,130.7615,131.9774,132.5016,128.9825,128.5969,125.3452,125.005,122.8176,123.956,124.2062,126.7141,125.3381,128.5573,126.5994,130.174,128.3853,131.7612,130.3871,132.5022,131.895,133.841,133.2561,134.5589,135.2577,135.3216,137.5497,137.815,141.9714,139.7848,140.7756,139.2836,138.0413,136.1304,133.684,133.1367,129.3094,128.3427,124.2248,122.4528,117.6518,115.9195,111.3047,107.8716,103.6452,99.02084,96.14862,90.58159,86.9511,81.32215,77.12328,71.38524,67.3747,61.95918,56.82646,52.10942,46.67861,42.94167,36.39705,32.19953,26.39834,21.55481,16.26858,10.21748,4.133569,-0.253018,-5.482373,-8.418327,-13.00835,-15.1932,-18.36531,-21.46038,-22.6444,-25.40146,-27.28168,-28.77271,-30.09313,-32.05775,-32.49202,-35.50119,-36.91755,-38.87087,-40.14954,-39.46831,-40.20708,-39.31646,-38.56959,-36.71456,-36.16553,-33.45898,-32.95299,-29.8524,-28.9529,-26.30359,-25.2128,-23.73261,-22.33377,-20.69165,-19.27748,-18.13818,-16.95131,-16.68842,-15.42538,-15.68116,-15.30313,-16.38462,-16.23434,-18.27993,-18.88087,-22.5766,-24.334,-28.30805,-32.45409,-36.27379,-40.38769,-39.87615,-43.0774,-42.61014,-44.34581,-44.00619,-45.34253,-45.87004,-46.56244,-46.9771,-48.12914,-48.39734,-49.52435,-49.56524,-49.66263,-50.46833,-49.88504,-50.43228,-50.41475,-50.19507,-50.52658,-49.83506,-49.01596,-49.31535,-47.24099,-47.60388,-46.00728,-44.98226,-43.81176,-42.33799,-40.20894,-39.23204,-38.21473,-36.14553,-34.60542,-33.51084,-31.69339,-29.72907,-28.69022,-26.42315,-25.04768,-24.1937,-21.09202,-22.09612,-18.57824,-19.09434,-16.8011,-16.02443,-14.7553,-13.43368,-13.31163,-11.63853,-11.93541,-11.24166,-11.72477,-11.93621,-12.94577,-13.94139,-15.02627,-16.15033,-15.92334,-15.03229,-16.02469,-14.91454,-15.721,-14.99537,-15.87064,-16.39539,-17.20878,-17.85129,-19.02999,-19.87278,-21.88647,-23.45072,-25.05508,-27.43415,-28.7045,-28.79873,-29.44065,-28.86077,-30.22512,-30.23061,-30.20271,-31.13376,-31.34121,-31.08074,-31.99277,-31.94175,-32.27274,-32.49581,-32.5451,-33.56302,-33.71327,-34.30272,-35.33178,-36.02157,-38.3509,-38.01644,-39.29518,-39.52406,-39.6493,-39.96995,-39.3357,-40.64807,-39.24102,-40.59886,-39.48682,-40.46923,-40.95135,-40.27227,-41.54241,-41.17762,-42.98619,-42.11179,-44.33164,-43.68652,-45.48406,-46.84256,-47.01717,-49.32452,-49.83922,-51.83653,-52.70817,-53.43531,-54.0913,-54.99652,-56.49329,-57.33639,-58.3606,-59.35646,-60.4457,-60.64494,-61.99714,-63.88534,-61.5804,-64.07057,-63.48826,-64.08727,-64.41855,-64.66771,-65.44101,-65.82599,-66.17712,-66.36978,-66.35261,-66.60269,-65.70494,-66.58763,-65.86885,-65.58706,-65.14076,-65.21532,-63.58277,-63.59914,-61.93048,-61.88397,-59.15834,-59.23328,-56.37927,-55.37178,-52.69887,-51.26029,-48.95535,-47.11433,-44.58537,-42.05186,-39.47964,-36.24221,-34.08404,-30.32504,-27.39976,-23.96068,-21.24863,-17.09149,-13.86343,-9.554912,-6.489227,-1.854983,0.7971746,6.103203,8.68848,13.13987,16.57645,20.46572,23.99564,28.12935,31.51347,35.43111,38.83408,42.31437,45.61205,49.32013,51.91688,55.39968,58.20922,61.01133,63.70854,66.06625,68.31204,70.43658,71.91285,73.531,74.81183,75.48207,76.44011,77.57332,78.29475,80.99453,81.05537,83.29657,83.69214,86.23268,85.79011,87.52924,87.75441,88.46556,88.93044,87.81678,86.21912,85.47283,82.7408,84.19175,81.75307,84.1219,83.33356,86.50691,86.19546,89.59663,91.19728,93.04205,96.24073,97.53578,101.4162,102.5099,105.1907,106.1433,108.225,109.5865,111.1327,111.9518,113.3833,113.5899,114.7387,114.6377,116.4258,113.3105,115.5663,112.9972,113.0441,111.0337,110.1968,108.6746,106.6998,105.3587,102.8661,101.1515,98.20844,94.91562,92.31218,88.45731,85.13218,80.87708,77.31926,73.5763,68.78134,64.97494,61.40353,56.12035,53.3755,47.51815,44.65559,39.43188,35.53867,30.6663,26.51266,22.24965,17.83293,14.04928,9.8213,5.675765,2.516651,-1.46585,-4.526522,-7.594138,-10.55208,-13.29261,-15.5262,-18.38684,-22.47782,-24.10311,-27.8173,-27.58733,-29.30551,-29.06692,-28.6935,-27.7326,-25.83345,-23.77179,-21.64674,-19.47534,-15.78141,-14.65219,-10.09296,-9.544706,-6.962884,-5.19521,-1.568147,1.365833,4.941322,8.316299,11.07569,14.87714,17.6186,20.95275,23.46391,26.16833,28.167,30.25481,30.81068,31.83401,31.57762,32.19324,29.07978,28.93555,24.88146,22.93256,18.26427,13.75335,10.10275,5.75373,3.27789,0.2451278,-2.880136,-4.791292,-7.633143,-10.54365,-12.85986,-15.0733,-18.43368,-20.95586,-23.12457,-26.51317,-28.22501,-31.60906,-33.33492,-36.04509,-37.5272,-40.60384,-41.69476,-44.51415,-44.89408,-47.69468,-47.57835,-49.71072,-51.16929,-51.15199,-51.71911,-52.85769,-52.45982,-53.44554,-52.42251,-53.44869,-52.53708,-52.13221,-52.04995,-51.25357,-50.12315,-49.95557,-47.81043,-47.1731,-46.13083,-45.60764,-44.16658,-43.72487,-43.65385,-41.1185,-40.541,-38.66577,-36.08859,-32.96313,-30.89511,-26.93495,-25.39547,-21.51596,-18.76242,-16.69066,-14.24735,-12.85363,-10.90801,-10.45505,-8.997618,-12.30513,-8.797078,-10.05655,-8.961384,-13.23895,-14.28536,-15.98491,-19.52797,-21.71714,-24.38873,-24.38706,-25.26167,-26.72397,-33.49867,-28.16573,-38.2743,-31.31051,-42.33543,-38.00086,-44.89297,-44.64731,-52.36241,-50.71746,-56.65921,-59.14267,-57.018,-59.52452,-64.02184,-60.69788,-65.49411,-63.12453,-65.03572,-63.41513,-70.21363,-65.15691,-70.06127,-70.09265,-68.46121,-72.35353,-69.10039,-71.45769,-72.46404,-72.33713,-72.88522,-66.78354,-73.88774,-69.94459,-66.79389,-74.02391,-65.72064,-70.69539,-65.53068,-66.66447,-64.9543,-68.60212,-61.51114,-65.30255,-61.3855,-59.55789,-58.67607,-56.1027,-55.9592,-51.14826,-52.32721,-49.55926,-48.47807,-46.89842,-42.44259,-43.86613,-38.85805,-40.13261,-34.5781,-32.68383,-30.60738,-30.75679,-29.58491,-30.51885,-29.1645,-32.55183,-31.74585,-34.95919,-35.28067,-39.82812,-36.74817,-44.79378,-43.79013,-49.76345,-51.25056,-58.13494,-61.04003,-65.77732,-70.27751,-75.14931,-77.58595,-80.13249,-84.13454,-83.97816,-87.42828,-87.74382,-89.66641,-89.82177,-91.18177,-91.21557,-91.46124,-92.0874,-91.45976,-92.60852,-89.40512,-90.01086,-87.02452,-86.17768,-79.27608,-79.68033,-75.8282,-75.80677,-69.58097,-66.39584,-64.20278,-58.52885,-53.88609,-47.64066,-42.86992,-39.70506,-33.6225,-22.48713,-23.57115,-8.557187,-11.55406,4.355227,3.649053,14.60549,16.46649,29.4361,29.17702,40.83833,48.05353,52.16687,59.20037,69.2207,70.70831,80.28321,84.06048,88.90173,92.1596,102.6692,101.7335,109.6004,113.6897,114.9707,121.6824,121.568,125.3228,129.5489,132.2365,135.1775,130.3306,138.834,136.7553,134.0321,141.1508,134.5624,138.0833,134.3954,133.6491,132.8736,135.3833,128.649,130.2301,125.6926,122.1196,120.2887,116.8619,117.5572,113.7707,117.4203,117.7977,120.4687,123.1893,124.2236,131.0647,131.9727,138.5258,138.9445,141.4065,142.5172,147.3961,147.1741,151.3255,150.6045,155.4277,154.2407,158.0283,156.2595,161.6011,154.6045,160.4096,155.2886,156.7395,152.8924,153.5023,149.7011,146.6514,144.691,141.3498,138.1559,133.2901,130.6949,124.1207,121.8031,116.2393,110.9199,106.569,99.74401,95.79915,88.55334,83.37689,76.84551,72.34101,65.5698,60.29369,53.29221,47.78973,40.60142,34.84548,28.12949,23.50451,16.43595,10.7979,4.873538,-1.283417,-7.391829,-14.14699,-19.81287,-24.12725,-29.58135,-33.42067,-36.8863,-39.96833,-42.0775,-44.59886,-46.21972,-47.77633,-48.67008,-50.31061,-51.45098,-54.11836,-54.18589,-55.09194,-54.34733,-54.19469,-52.24477,-50.78644,-49.97723,-47.04514,-45.84821,-43.63645,-42.71897,-39.94756,-38.49947,-36.54074,-34.57187,-33.54372,-30.86156,-30.17156,-29.04719,-26.70452,-26.99828,-24.87314,-26.93635,-25.0105,-27.09857,-27.11754,-29.55023,-31.35324,-33.84725,-37.99316,-41.75602,-45.76405,-49.50393,-51.72347,-55.15249,-55.71509,-56.75899,-58.84148,-58.67627,-59.10862,-60.59587,-61.46178,-61.24715,-61.56366,-61.7214,-61.86274,-61.80852,-62.40542,-61.86923,-63.17352,-64.42511,-62.81243,-62.52703,-61.93956,-60.38,-58.89996,-54.63991,-57.29766,-48.41113,-52.54165,-42.16858,-48.29858,-40.13645,-43.20932,-39.99006,-37.50495,-32.29164,-35.04261,-28.34721,-26.53071,-20.35255,-21.14732,-16.99606,-15.20231,-9.875164,-11.06289,-9.403431,-6.030428,-8.440605,-7.077012,-7.579086,-4.987304,-10.34506,-5.994505,-12.67716,-10.3084,-16.38401,-15.65622,-18.88546,-20.57237,-22.90827,-28.40476,-30.82151,-34.74622,-38.79419,-41.54476,-43.959,-45.57125,-49.32839,-46.56405,-52.2199,-52.61148,-53.24964,-53.45491,-58.36369,-54.82346,-63.34369,-60.94058,-69.3757,-67.33864,-68.0089,-69.04454,-66.63421,-66.93799,-62.92994,-61.36584,-59.65022,-57.16586,-57.08674,-51.3126,-52.38785,-46.60797,-45.19143,-40.12229,-39.05494,-31.41049,-30.56838,-24.49901,-21.93295,-15.10388,-13.05548,-8.066068,-5.13623,-0.3587459,2.010972,5.575834,7.999515,9.451123,12.30078,12.05977,12.96514,12.86189,11.62001,11.98436,9.529295,8.997814,4.490497,1.95481,-0.7736311,-4.841262,-10.45425,-13.4569,-19.7658,-23.81716,-30.41404,-36.75276,-44.27313,-50.64737,-57.9458,-65.18946,-70.46953,-75.52567,-82.1019,-87.47327,-91.74765,-96.87104,-99.62035,-107.5287,-104.7538,-117.0238,-112.4264,-125.8176,-120.1257,-129.4553,-125.7105,-126.717,-127.552,-129.7525,-123.7522,-123.6322,-122.0593,-122.7422,-118.481,-115.9819,-113.6693,-113.8394,-108.4475,-106.3172,-103.9646,-99.31833,-94.28976,-90.2349,-88.35613,-78.40527,-79.85478,