ConstAcc,0.5,0.29098,247.7302,272.646,292.6534,308.1194,319.3962,326.8216,330.7189,331.3978,329.1539,324.2697,317.0142,307.6439,296.4022,283.5204,269.2177,253.7012,237.1667,219.7985,201.77,183.2436,164.3714,145.2951,126.1465,107.0475,88.11075,69.4396,51.12849,33.26319,15.92107,-0.8286296,-16.92454,-32.31288,-46.94724,-60.78824,-73.80334,-85.96653,-97.25806,-107.6642,-117.177,-125.7939,-133.5177,-140.356,-146.3211,-151.4299,-155.7031,-159.1657,-161.846,-163.7758,-164.9899,-165.5261,-165.4247,-164.728,-163.4808,-161.7293,-159.5214,-156.9062,-156.2092,-160.0822,-159.7785,-156.5176,-152.9538,-149.2012,-144.8861,-139.573,-134.3623,-129.3792,-124.6636,-119.6233,-114.5889,-110.1397,-106.2182,-102.8594,-100.2518,-97.99971,-96.65152,-96.41785,-97.22021,-99.43922,-102.7688,-106.8201,-111.4908,-115.8338,-119.6013,-123.0734,-125.8812,-128.2268,-130.1361,-131.7915,-133.4572,-134.8893,-135.7404,-136.2477,-136.3939,-135.7438,-134.8552,-133.809,-132.3502,-130.4239,-128.2545,-126.0337,-123.8504,-121.4295,-119.2464,-117.2209,-115.1591,-113.0813,-111.0019,-109.1935,-107.2808,-105.7542,-104.5606,-103.514,-102.7205,-101.9648,-101.2463,-100.5561,-99.88224,-99.44433,-99.18354,-99.03522,-99.16811,-99.58758,-100.2458,-101.1708,-102.3824,-103.8215,-105.6254,-107.7599,-109.9964,-112.18,-114.2374,-116.3434,-118.1208,-119.644,-120.8129,-121.8477,-122.863,-123.7709,-124.6737,-125.6848,-126.5328,-127.0785,-127.2555,-127.0765,-126.3942,-125.2929,-123.9713,-122.7243,-121.9018,-121.7929,-122.0953,-122.5106,-122.7029,-122.6054,-122.4975,-121.7884,-120.7851,-119.664,-118.2747,-116.6802,-115.2693,-113.8315,-112.2887,-111.3646,-110.5929,-110.0769,-109.7253,-109.4865,-109.4629,-109.9265,-110.7474,-111.7438,-113.1973,-114.6842,-116.8218,-118.799,-120.4732,-121.8372,-123.4612,-125.4263,-127.0574,-129.0425,-130.8585,-132.638,-134.925,-137.2283,-139.5065,-142.2108,-145.1424,-148.2789,-151.9188,-155.2102,-158.8573,-162.835,-166.7708,-171.0401,-175.2531,-178.9843,-182.1243,-184.5596,-185.9457,-186.8817,-187.1397,-186.9571,-186.7962,-186.5138,-186.0197,-185.5149,-184.955,-184.264,-183.3626,-182.1872,-181.2005,-180.0904,-178.8483,-177.5525,-176.5425,-175.6908,-174.7975,-174.2672,-173.6474,-172.838,-171.7922,-170.3142,-168.6994,-166.8088,-164.7724,-162.7055,-160.5621,-158.3818,-156.204,-153.8377,-151.2754,-148.8068,-146.3344,-143.6704,-141.0202,-138.1147,-135.1468,-132.427,-129.9287,-127.5683,-125.0249,-122.7189,-120.587,-118.9382,-117.476,-116.3557,-115.6041,-115.2541,-115.2379,-115.6369,-116.5565,-117.8884,-119.444,-121.2968,-123.4592,-125.8475,-128.3908,-130.5589,-131.893,-132.2638,-131.721,-130.7034,-129.3009,-127.3291,-125.3692,-123.5601,-121.9691,-120.4579,-119.4683,-118.6133,-117.8284,-117.5895,-117.4175,-117.394,-117.5732,-117.7436,-118.067,-118.591,-119.0932,-119.4298,-119.38,-119.1261,-119.0225,-118.7207,-118.2383,-117.4951,-116.8561,-117.0374,-118.0866,-119.7874,-120.7542,-121.1396,-120.583,-119.2896,-117.8394,-116.0779,-113.6742,-111.0966,-108.6665,-106.5031,-104.6133,-102.4888,-100.9062,-99.32614,-97.9734,-96.66599,-95.94044,-95.57587,-95.28642,-95.23715,-95.44225,-95.98551,-96.45722,-96.92639,-97.0665,-97.18048,-97.48236,-97.59074,-98.24343,-98.86904,-99.86713,-101.2054,-102.836,-104.634,-106.7203,-108.9715,-111.4298,-114.4343,-117.554,-120.6044,-122.9968,-124.9614,-126.9423,-128.7904,-130.8676,-133.127,-135.291,-137.329,-139.2519,-141.1645,-143.3384,-145.13,-146.936,-148.6906,-150.644,-152.5093,-154.1652,-155.9437,-158.1932,-160.2089,-162.3021,-164.1323,-165.6654,-166.9515,-167.629,-168.1699,-168.5141,-168.8749,-168.9273,-168.9682,-168.9322,-168.8064,-168.6408,-168.3394,-167.8423,-167.0499,-166.1462,-165.1748,-164.1333,-163.0368,-162.0599,-161.0374,-159.8598,-158.2348,-155.7626,-152.3368,-148.0149,-143.2601,-138.6206,-134.2932,-130.7348,-128.2609,-127.2035,-127.686,-129.3203,-131.9582,-135.2154,-138.4843,-141.5115,-144.5729,-147.9224,-152.0905,-156.8483,-162.0186,-167.5608,-173.4,-179.8568,-186.5076,-193.1822,-199.5183,-204.7645,-208.8645,-211.6643,-213.28,-213.6165,-212.2539,-209.3909,-205.7428,-201.3865,-196.6401,-191.2649,-185.6089,-180.1437,-174.2508,-168.4371,-162.3478,-156.0855,-149.2205,-141.7559,-133.6906,-125.1375,-115.9493,-106.046,-95.8081,-85.25679,-74.58666,-63.78447,-52.75658,-42.13698,-31.32507,-20.81646,-10.28254,0.2892165,10.86228,21.25447,31.35703,41.40346,51.27587,61.37417,71.51004,81.77986,91.65113,100.8639,109.5232,117.5374,125.1616,132.4873,139.2511,145.4986,151.0293,155.8966,160.4703,164.0633,167.0785,169.3977,171.2841,172.6616,173.1157,172.7438,172.3537,171.4302,170.3976,168.8819,166.8336,164.2492,161.0042,157.4156,153.471,149.2478,144.5762,139.7169,134.695,129.5977,124.4442,119.4446,114.7144,110.1159,105.7502,101.8936,98.52001,95.74033,94.30458,94.26805,95.63284,98.09789,101.2048,104.2879,106.5702,107.8862,108.6776,109.4631,110.4711,111.6536,112.9423,114.5873,116.52,118.9153,121.3394,123.1955,124.1706,123.9584,122.7076,120.866,118.7845,117.2597,116.2624,115.3241,114.0273,112.0138,109.8955,108.3263,107.6518,107.8578,108.629,109.7749,111.1788,112.5032,113.4525,113.5789,113.1044,112.2845,111.1476,110.2583,109.014,107.9123,106.8432,105.8159,105.2109,104.5773,103.9176,103.4272,102.7314,102.481,102.9017,103.0001,101.6244,100.7516,100.4451,99.9724,99.58334,99.70107,99.37722,98.78062,98.84574,97.61247,96.4276,95.38765,94.82549,94.2739,94.33359,95.76045,96.35534,97.71534,99.08194,100.2896,101.4049,102.5385,103.6574,104.6506,106.1628,107.5943,108.6789,109.7331,110.1553,111.3623,112.6259,114.0011,115.5947,117.6543,119.8479,121.0313,122.2808,123.2495,123.1067,123.5403,123.5502,123.8189,125.3149,125.8102,126.6918,126.4171,125.7633,124.9985,124.3163,123.4492,122.3896,121.3047,119.6035,117.8784,115.2707,111.415,108.6276,106.7278,105.8461,104.5768,103.7156,102.2735,100.9971,100.5001,99.98697,98.97171,97.76998,96.42579,94.75487,92.75303,89.8278,85.87888,82.13297,79.02861,77.4054,76.45058,74.32777,73.06317,72.72497,72.98312,72.57041,72.19982,71.15553,69.3423,67.11785,65.20593,63.72299,61.67778,60.43418,59.30267,58.518,57.17024,55.07411,52.82341,51.31906,49.45431,47.01803,45.86462,44.32116,42.65771,41.19219,40.07764,39.34642,38.52092,37.87569,37.30863,37.09546,37.58119,38.62449,39.683,40.80464,42.9108,43.78272,43.27167,42.40933,41.17813,39.46128,38.4671,37.95192,36.83368,37.0918,37.72473,38.8545,39.98795,41.77559,43.92884,45.23623,48.08683,50.85548,53.79936,56.82292,60.23698,63.64853,67.23784,71.26058,74.63171,78.29853,82.78272,87.60332,93.3462,98.69209,104.4445,110.2634,115.3567,118.2841,119.5655,121.6438,124.0761,127.6858,133.8115,140.8401,149.4213,158.3866,165.6652,173.1236,179.3388,185.863,192.4154,198.7217,205.4216,213.0276,220.1513,225.8333,230.382,233.4742,236.3352,240.2539,243.4861,245.856,247.3203,249.3943,250.8392,251.7885,251.057,248.1994,244.5413,240.7535,236.5229,231.5693,225.9235,219.7852,213.8972,209.3014,205.1078,200.4548,194.1966,186.6924,180.4075,173.8722,167.1944,160.6029,154.5298,148.2085,142.1431,136.7436,131.8699,126.9867,122.1522,118.3427,114.3124,110.2862,105.9516,102.3224,99.84369,97.91568,96.04921,95.00802,95.38103,95.42896,96.08445,97.9168,100.2628,103.0716,106.3961,109.5113,112.3297,115.55,119.2773,123.9834,129.7348,136.3625,143.7139,152.0322,161.4076,171.4207,181.7448,192.5121,203.6847,214.8698,225.9998,236.8862,247.1879,256.4557,264.6733,272.8633,281.4876,290.9886,300.9659,310.7635,319.6877,327.8508,334.8465,340.5273,345.4355,349.4274,352.0785,353.8964,354.4897,353.4019,350.8076,346.5505,340.4875,332.4849,322.9541,312.4228,302.4209,292.9487,283.9733,276.0528,268.9528,262.2047,254.6905,245.5152,234.5791,222.2887,208.9964,195.2048,181.2488,167.4864,153.815,138.982,122.1561,103.6779,84.41679,65.82782,48.56307,32.74534,18.4297,5.204884,-7.274409,-19.89964,-33.56855,-48.05181,-62.73913,-76.95256,-90.43542,-103.1512,-114.9662,-125.9101,-136.0579,-145.5085,-154.0748,-162.1209,-169.4498,-175.767,-181.0206,-185.253,-188.4923,-190.73,-191.924,-191.947,-191.2362,-189.4785,-186.8246,-183.312,-177.4937,-171.0366,-164.8389,-158.5642,-151.9171,-144.6377,-136.6212,-127.88,-118.6932,-109.1408,-99.37798,-89.64719,-79.92625,-70.23346,-60.70097,-51.70797,-43.42042,-35.87898,-28.91177,-22.60592,-15.85209,-8.392747,0.158776,9.977356,21.00131,32.11725,42.35063,51.38328,59.39181,66.44401,73.01511,79.19343,84.9374,89.98255,94.19167,97.2756,99.34736,100.9081,102.9706,105.8599,109.3888,112.7907,115.3033,117.1055,118.451,119.3865,119.4211,118.7901,117.9619,117.2708,117.0719,116.9889,116.6614,116.1025,115.7109,115.4036,115.3218,115.5652,116.3382,117.6341,119.2994,121.2328,124.1316,128.0013,131.9106,134.6492,135.6788,135.8864,136.1757,136.5573,137.0271,137.6123,137.9493,138.1781,137.7468,137.1609,136.2755,135.4108,135.4022,136.43,137.8524,138.861,139.467,139.101,138.1677,136.9773,135.5562,134.2312,132.8854,131.5521,130.1541,128.4049,126.3171,124.013,121.5609,119.0028,116.1807,113.1862,110.8462,108.9702,106.8834,104.5252,102.1204,99.41383,96.94928,94.71674,92.33118,90.21254,88.07787,86.28762,84.71772,81.28609,77.37158,74.14087,71.29274,68.83182,66.3723,63.85578,61.32443,58.96492,56.61361,54.52297,52.62156,50.99308,49.44286,47.7369,46.2502,44.6469,43.20517,41.84316,40.53871,39.30742,38.25111,36.72194,34.67038,32.96563,32.11595,31.89483,32.558,33.56387,34.76027,35.62234,36.23239,36.73956,37.27063,37.65704,38.05717,38.44161,38.87155,39.37907,40.14043,40.30864,40.53098,40.48642,40.14188,39.53642,38.4442,36.90847,35.81699,35.32003,34.78064,33.27489,31.12759,28.13482,25.47419,23.68408,22.70733,22.35275,22.79137,23.39042,23.56613,22.93422,21.99317,20.738,19.24613,17.97357,16.86069,16.35073,15.75838,15.16883,14.27317,12.6501,10.09876,7.448162,4.678719,2.061221,-0.8281847,-3.568061,-6.123493,-8.709751,-11.17392,-13.7706,-16.25347,-18.83847,-20.81982,-22.43918,-24.13995,-25.7273,-27.34845,-28.74484,-30.64899,-33.26256,-36.46623,-39.21707,-40.9931,-41.26618,-40.50349,-39.14765,-37.44035,-35.2001,-32.47601,-29.61805,-26.59018,-23.51307,-19.9246,-16.14704,-12.14118,-7.924829,-3.544331,1.283428,5.961653,10.81387,15.48781,20.23341,24.87563,29.83641,35.08128,41.08467,47.71053,54.43879,60.30111,64.65954,67.51961,68.79193,68.92233,68.07472,66.55973,64.02425,60.61393,56.47069,51.8479,46.81642,40.89126,34.3394,27.87331,22.16221,16.9777,10.652,3.469402,-3.898873,-11.13763,-18.40223,-25.82999,-32.97121,-39.5814,-45.98355,-52.24769,-58.30861,-64.11569,-69.7593,-75.00995,-80.11955,-85.02548,-90.30623,-95.4661,-99.75095,-103.9828,-107.8369,-110.9168,-113.8852,-116.8836,-118.9306,-120.0863,-119.9154,-117.6218,-114.2114,-109.7691,-105.1428,-100.3104,-95.80748,-90.98971,-85.75359,-79.67155,-73.37065,-66.63282,-59.05629,-51.64418,-43.62174,-35.48255,-26.76599,-18.61862,-10.81207,-2.801965,5.551583,13.70649,21.92482,29.3537,36.31706,42.84199,50.15601,57.9842,65.7869,72.87144,79.26624,84.97834,89.71773,93.48568,96.38161,98.19662,99.20173,99.25071,98.79786,98.00437,98.02652,98.11482,98.10575,97.4907,95.75906,93.49302,91.35035,88.8515,85.81039,82.29955,78.55353,75.03124,71.82808,68.83959,65.86217,63.3374,60.70577,59.05066,57.81276,56.98855,57.04586,57.76609,59.31131,61.60061,64.0084,65.81245,66.8033,67.01524,66.82836,66.86109,66.97215,67.67788,68.7702,69.60879,70.72469,71.21868,72.16724,73.44937,74.33059,74.51971,74.48834,74.46372,74.83325,75.07813,74.86463,75.11676,75.76639,76.88458,77.69118,78.31263,79.44949,80.42834,81.10936,81.31883,81.80782,82.39039,82.8168,83.68269,84.48093,84.66469,84.56621,84.96202,85.83618,86.43835,87.07252,87.42135,86.90835,87.04567,87.97506,88.61929,88.75685,88.15564,87.56593,84.91347,86.03103,85.67155,86.12555,88.63845,87.11933,87.73689,86.73346,86.445,88.78245,87.66104,85.27584,83.24434,83.27947,82.91088,84.09917,83.57423,80.72463,79.62534,75.56194,73.55876,73.58664,72.32758,71.72318,74.21691,75.71787,72.84434,67.06895,64.76245,65.17492,64.92858,61.60098,58.41041,53.36246,53.5481,52.49512,51.62807,50.83253,46.89866,46.85501,47.52401,46.18409,43.20999,38.25584,35.87569,37.24892,39.67565,36.25311,33.51522,32.75076,34.50222,35.6765,31.05924,28.02731,28.54983,28.08135,28.29755,26.98924,25.49873,22.14739,19.14409,17.01626,15.29074,15.61357,15.44537,16.21597,17.70159,17.84614,18.28569,18.88887,19.72395,20.98322,21.77298,22.70909,23.49305,23.79992,23.07525,22.26412,21.84854,23.02305,24.9258,27.24282,29.25437,30.68789,32.23013,33.4335,34.54576,35.21948,35.16834,35.07757,34.83547,34.6812,33.95803,33.10483,33.0466,32.488,30.37719,27.81543,25.03145,21.80414,18.36982,14.37199,9.802072,4.978671,0.3966222,-4.45487,-9.976849,-16.05887,-22.4213,-28.25909,-33.73064,-35.96206,-41.57483,-45.69797,-50.34673,-57.24413,-59.90562,-64.88093,-68.42628,-72.3133,-78.67075,-82.30562,-83.80068,-84.5848,-86.97267,-89.14108,-92.81708,-95.71635,-96.69939,-99.02519,-97.48122,-97.31828,-98.45346,-97.37662,-95.54837,-97.69815,-100.4044,-99.9382,-95.5417,-93.197,-93.59591,-94.06041,-91.37921,-88.15566,-81.73589,-79.42993,-76.62793,-75.67138,-75.43596,-70.65844,-67.56259,-64.82184,-61.00677,-55.41613,-46.70277,-39.15109,-35.32249,-34.26042,-28.46039,-23.53734,-20.46555,-20.02091,-19.25652,-12.49346,-6.230566,-3.501891,-0.5508124,0.3926189,1.079427,1.199264,3.982736,7.200184,8.729142,10.45129,11.00529,12.0393,11.731,9.27337,7.140164,4.871176,2.213396,-0.8154878,-3.66656,-7.271241,-11.21141,-15.47136,-18.68709,-20.6738,-21.38301,-23.06974,-25.25358,-26.60476,-29.37235,-32.09511,-35.26036,-35.78201,-37.99665,-39.48902,-40.25053,-44.36771,-47.14167,-48.6906,-48.70481,-45.88526,-42.66696,-42.94501,-43.57966,-42.63131,-37.96787,-38.01464,-38.36824,-35.27346,-33.74645,-30.94983,-31.63262,-30.66766,-32.36248,-33.27246,-31.00506,-33.87303,-36.83101,-35.93087,-33.8652,-37.6834,-37.92077,-35.34743,-30.35119,-30.19911,-30.63054,-31.18238,-29.13199,-30.96829,-31.8265,-30.67382,-32.81554,-35.33017,-33.21495,-32.20702,-33.35111,-36.35202,-39.77154,-41.40726,-40.14332,-39.2522,-40.35523,-44.24704,-46.12834,-48.69435,-47.9419,-48.60198,-49.32511,-50.72747,-53.85004,-56.97723,-59.03721,-60.46749,-61.17324,-64.04245,-66.37433,-65.69087,-64.23599,-62.56212,-62.44963,-63.48958,-65.09964,-63.50834,-60.67055,-61.71622,-61.16475,-59.68342,-56.09735,-50.42104,-43.90213,-38.99477,-35.23437,-32.08606,-29.07893,-25.52534,-23.32053,-19.09541,-13.62775,-9.756139,-6.016822,-2.623905,0.2901003,1.719788,3.220504,5.554402,9.622924,14.16856,18.74939,22.96097,26.54977,29.13758,31.60861,34.37157,37.26863,38.80719,39.57365,38.953,39.83177,40.44035,39.16666,38.09604,36.22385,35.66624,32.43815,30.43847,26.90638,22.51845,22.70128,22.77585,23.66106,24.00673,21.81512,18.39522,17.42811,17.17513,16.22947,10.14764,7.048448,5.210083,0.8991094,-1.088891,-4.686593,-6.06958,-9.207045,-9.540518,-10.06938,-14.42842,-13.646,-12.06088,-14.35643,-17.31123,-12.32652,-8.797606,-7.479514,-9.964009,-9.255288,-8.529542,-7.363949,-9.159126,-7.425111,-6.351598,-8.023428,-6.838642,-4.214167,-6.085654,-8.603728,-9.996174,-8.990932,-6.734857,-5.467213,-7.605247,-10.58762,-12.47301,-10.91481,-10.19218,-8.631458,-10.87689,-12.66552,-14.64634,-16.17048,-16.04731,-15.79303,-16.47911,-17.75753,-20.68727,-21.60058,-21.22,-21.4922,-21.96415,-23.5032,-24.38729,-23.70869,-21.66541,-21.64867,-23.30824,-21.10728,-20.71292,-19.78767,-18.99066,-19.01972,-20.0244,-21.23796,-21.82911,-22.20788,-21.62049,-22.04111,-20.67036,-20.47733,-21.68934,-22.44373,-23.72192,-23.99635,-23.31558,-21.20994,-18.39177,-15.81592,-14.49885,-13.15358,-12.09971,-10.74206,-9.121669,-7.627849,-5.890393,-4.14906,-2.754457,-1.461767,-0.1511831,1.45488,3.035022,4.635572,5.670363,6.631725,7.844839,9.01707,9.686575,9.946538,10.34798,10.51445,10.22826,10.42324,9.796729,8.815758,7.369006,5.873376,4.204818,1.797884,-1.706955,-4.700815,-4.843994,-3.012654,-1.670136,-1.661965,-2.486935,-2.992583,-3.116076,-3.610518,-4.335659,-5.412305,-6.609449,-6.493771,-4.96394,-3.662815,-3.345529,-3.428421,-3.798249,-4.359612,-5.305797,-5.737598,-6.23215,-6.444745,-7.100884,-8.042044,-9.051792,-9.884336,-10.5353,-11.49035,-12.55658,-13.76348,-15.06825,-16.23684,-17.32107,-18.05836,-19.16035,-20.35233,-21.29868,-22.37741,-23.17954,-24.0697,-24.62169,-25.23695,-26.11759,-27.11348,-28.00981,-28.64371,-28.8903,-29.34169,-30.88428,-33.13717,-35.21924,-35.98087,-35.46707,-34.74775,-34.49806,-34.05527,-33.68778,-33.28794,-32.79265,-31.47913,-30.32829,-28.34338,-25.88238,-23.49644,-20.85686,-18.36948,-15.90547,-13.64075,-11.71333,-10.48045,-9.611771,-8.539025,-7.92,-7.628807,-7.649139,-8.059738,-8.5905,-9.473241,-10.30354,-11.31217,-12.628,-14.66652,-17.87761,-22.19011,-25.37052,-27.7909,-29.69034,-31.43672,-33.23106,-34.66094,-35.39311,-35.14741,-35.02934,-34.2491,-34.09416,-33.8434,-34.15854,-34.4666,-34.72143,-35.90552,-37.27228,-37.83913,-41.98082,-42.88942,-44.8232,-47.41732,-48.59245,-51.12489,-55.05402,-57.58508,-57.01812,-57.23119,-55.14076,-57.93914,-61.68323,-60.8856,-62.25409,-60.82298,-61.93456,-67.40003,-66.60346,-65.40311,-63.72795,-67.53201,-68.97756,-68.78759,-69.39931,-70.45518,-71.17365,-72.92707,-72.47551,-77.74693,-78.11199,-76.62508,-74.57052,-72.25581,-70.66782,-70.01849,-66.17615,-62.18721,-56.55729,-50.30912,-44.58292,-38.79238,-30.89876,-23.30675,-18.28471,-14.63173,-10.61987,-5.342539,-1.399989,3.47489,6.282006,8.947375,10.51299,11.6614,12.36123,12.38845,11.84966,11.66579,12.60903,14.21337,15.24864,15.50892,15.2099,14.88546,15.85295,17.63612,18.98244,19.72368,20.92789,22.68199,24.09628,24.99287,25.20231,24.88014,24.75649,24.34524,23.5016,22.03726,20.48529,19.12687,16.93492,14.40316,11.27297,7.975134,4.326526,0.5904568,-3.43577,-8.357309,-13.51431,-18.85995,-23.99251,-27.90132,-30.30099,-32.52592,-34.80361,-36.42334,-37.53272,-37.96808,-37.84905,-37.18361,-36.79387,-36.30388,-36.20633,-35.3389,-34.32587,-33.00578,-31.67769,-30.79069,-28.75385,-27.21766,-27.58725,-24.16461,-22.62626,-19.38933,-13.76447,-9.040724,-3.582214,3.46854,11.04173,16.89577,23.30675,25.88628,32.35301,40.06615,42.60823,45.95754,45.935,47.87405,56.04018,59.11853,61.19136,61.05037,64.82818,66.31709,65.86488,65.26756,63.90962,62.00726,60.69468,56.50021,58.98229,58.43498,56.50548,53.64102,51.81202,50.94488,51.83479,50.30372,51.32848,51.13939,49.29587,47.76803,45.85282,40.80021,36.98453,33.92934,31.97816,30.17787,25.18486,20.42113,17.27185,14.55185,7.134859,4.226149,0.152216,-5.247487,-7.119691,-11.61911,-17.01568,-20.87609,-21.66304,-21.02498,-24.18619,-27.48186,-28.55981,-33.32012,-35.17582,-35.85885,-37.90699,-39.08737,-41.40022,-43.33008,-43.5945,-44.5395,-42.83785,-43.92,-43.78896,-45.24133,-43.81487,-42.55569,-41.18016,-42.33386,-40.05899,-39.15371,-36.93952,-34.41057,-31.96377,-29.21938,-26.84863,-24.266,-21.75405,-18.97163,-16.66601,-14.07957,-11.58894,-8.650656,-6.418388,-4.192108,-2.246381,-0.3138744,1.669098,3.432637,4.843168,6.015436,6.931733,7.75897,7.933439,7.850021,7.664035,6.941818,7.026242,8.397015,10.81951,12.79481,14.57136,15.23211,15.13947,14.59448,13.90146,13.03355,11.94781,10.87777,8.804925,5.93957,3.153149,1.515119,1.645822,2.193128,3.084423,3.544778,3.67089,3.166287,2.493208,2.165703,2.30254,2.036617,1.62416,1.662568,0.8694079,0.2680774,0.1314522,0.2762531,0.05017419,-0.4436796,-0.009949211,-0.3470213,-0.2253632,0.1670751,1.299194,0.1810164,-1.030232,-0.939726,-0.8329254,-0.2306094,0.7719252,-0.0798004,-0.1922666,-0.1703051,-0.8378837,-0.1290685,1.929669,0.4552271,-1.341486,1.26732,0.3631723,0.6017351,2.712944,1.355292,2.254067,4.937617,7.295752,6.896705,4.282799,4.360913,5.061339,4.484502,7.734548,7.613501,5.889284,5.846249,5.587637,6.849227,8.087315,7.418574,7.835123,5.920603,6.476747,5.968231,7.229526,6.441801,6.08808,5.15182,7.344466,6.429657,7.348073,7.317273,7.15486,6.912017,6.210157,6.021231,5.854426,5.85167,5.334568,4.895363,4.099535,3.622857,1.904242,-0.5569793,-2.647575,-3.249766,-2.892465,-1.820914,-1.196249,-0.5916211,0.5202341,1.368603,1.668869,2.259463,2.475167,2.557713,2.890545,2.540249,2.055637,1.339341,0.8440118,-0.08948244,-0.09254984,-0.4246974,-0.8360993,-1.667863,-2.832285,-4.158235,-5.697227,-7.120404,-8.508498,-10.18198,-12.01081,-13.81599,-15.38559,-17.06732,-18.70347,-20.43225,-21.93832,-23.58862,-25.16659,-26.76692,-27.1325,-27.53329,-28.60639,-29.32563,-30.2179,-30.90963,-31.12042,-31.49818,-31.41188,-31.62697,-31.98151,-32.01415,-31.98056,-31.57837,-30.98237,-30.02083,-29.38075,-29.36314,-29.73515,-29.06474,-26.82939,-23.90012,-20.96207,-18.29837,-15.57531,-12.61635,-9.25325,-5.899957,-2.541055,0.7300377,4.398614,7.880655,11.39549,14.36441,17.48743,20.78151,24.12862,26.98039,29.83356,32.8306,35.61756,38.18388,40.92163,43.23589,45.77609,48.03008,50.08697,51.64176,53.64152,55.35433,56.69847,56.74363,56.52726,57.72602,59.27968,60.00884,60.96049,61.52804,61.85529,62.17628,62.51988,62.75806,63.10187,62.94506,62.47956,61.97507,60.99316,59.23358,57.24821,55.9165,54.14947,53.31987,53.99997,54.87935,55.28416,55.46822,55.37189,55.22832,55.35226,54.4856,53.69603,53.32752,52.78566,52.43417,51.52471,50.5098,49.93413,49.57503,48.90236,48.11223,48.55245,47.39353,46.03164,44.42271,42.94272,41.93122,40.821,39.1158,37.64082,36.02296,34.56491,33.10342,31.67471,29.67834,28.05267,26.18076,24.4867,22.70187,20.85795,19.47693,18.03942,15.55251,13.08212,10.77904,8.311818,6.353824,4.215701,1.699068,-0.7383757,-3.544834,-6.183037,-8.586006,-11.1118,-13.47595,-16.43749,-18.85954,-21.54183,-23.83728,-25.36195,-25.7921,-26.05209,-27.68026,-29.71317,-31.23819,-31.23867,-30.48876,-29.81683,-29.54437,-29.16982,-28.10082,-27.14582,-26.38794,-25.48394,-24.9073,-23.90811,-23.29433,-22.35441,-21.66328,-21.04128,-20.5872,-20.13798,-19.52999,-19.53764,-19.80462,-19.81165,-19.76269,-20.3625,-21.34902,-22.20893,-23.51126,-25.12681,-26.59084,-26.8751,-26.42206,-26.79513,-27.81626,-28.46129,-29.30542,-29.56997,-29.77508,-30.00834,-30.61365,-30.79908,-31.16937,-31.50069,-31.7797,-32.38964,-33.10279,-33.30163,-33.18292,-33.75591,-34.09368,-33.98025,-34.4083,-34.54248,-33.99656,-33.48216,-33.3841,-33.42721,-33.95434,-35.01739,-36.24484,-37.17365,-37.43723,-36.32601,-34.97156,-33.4654,-31.98931,-30.80615,-29.56362,-27.80446,-26.93254,-25.43154,-24.34348,-23.38463,-22.79494,-22.48025,-21.4547,-20.48102,-20.38669,-20.25246,-20.39764,-20.5664,-20.70884,-21.11141,-22.53302,-24.74947,-26.90289,-28.53101,-29.86586,-31.28794,-32.3699,-33.25341,-34.07417,-33.87839,-33.58101,-32.61232,-30.89778,-29.15925,-27.36753,-24.93258,-22.71895,-20.28663,-18.75888,-17.85205,-16.57431,-15.18513,-14.05912,-13.93005,-13.86744,-13.27608,-13.19799,-12.89768,-12.50895,-12.06253,-12.46062,-13.55056,-14.95364,-16.59632,-18.42107,-21.3552,-24.67015,-28.00764,-31.63564,-35.90083,-40.37523,-44.89951,-49.82445,-55.22485,-60.79845,-66.37956,-72.2442,-78.22317,-84.02014,-89.98088,-96.0484,-102.321,-108.1116,-113.4333,-119.2143,-125.0078,-129.9157,-134.683,-139.5907,-143.7329,-147.8918,-151.5432,-154.333,-156.6036,-159.4519,-161.627,-163.3274,-164.1953,-165.3411,-166.48,-166.9264,-166.7027,-166.4462,-166.1415,-165.2185,-163.6659,-162.0264,-159.6683,-157.3809,-154.3055,-150.9986,-147.8612,-144.4168,-140.8311,-136.952,-132.4524,-126.5291,-119.5733,-111.5115,-102.6971,-95.00785,-86.92994,-78.69905,-70.44375,-62.29225,-53.909,-45.78268,-37.46107,-29.72251,-22.64584,-16.29173,-10.20295,-4.351805,0.3024339,4.341174,7.780458,10.82106,13.43674,15.1954,16.03587,16.74125,17.69398,19.83124,21.51304,23.01421,25.05285,26.88914,28.02329,29.42537,31.41898,32.2432,33.0611,33.55406,33.33495,32.75715,31.61809,29.82072,27.80009,25.17652,22.61712,19.81353,16.97175,13.54667,9.376693,5.76495,1.996672,-2.415968,-6.923645,-11.53065,-15.91731,-20.51243,-25.24852,-29.94963,-34.97333,-40.07841,-45.55387,-50.72544,-55.23023,-59.98914,-65.30231,-70.27535,-75.333,-79.91512,-84.3098,-88.76111,-93.12146,-97.26285,-100.7848,-103.8567,-106.9636,-110.0608,-112.7825,-114.419,-116.1695,-117.8948,-118.5644,-118.8978,-119.1701,-119.0541,-118.4788,-118.2155,-117.1936,-115.8248,-114.7105,-113.5125,-112.2828,-112.2473,-112.0378,-110.4727,-107.9457,-104.8687,-101.1217,-96.83986,-91.93955,-86.9441,-81.81494,-77.26193,-72.02081,-67.20605,-62.49125,-58.25723,-54.09883,-49.92429,-45.99742,-42.60987,-39.64009,-36.94372,-34.15056,-31.28763,-29.14858,-27.33702,-26.05163,-25.17945,-24.8363,-25.32144,-25.7683,-26.79134,-28.20738,-30.80004,-33.83901,-36.91305,-40.37173,-44.78452,-50.08441,-54.46765,-58.17567,-61.70186,-64.64054,-66.22664,-66.33137,-66.13651,-66.42654,-66.06406,-64.66753,-62.43951,-60.62492,-59.08429,-57.28037,-54.43705,-51.43544,-49.76568,-48.20244,-46.06059,-43.5113,-41.23908,-39.42715,-37.23238,-34.32832,-31.4683,-29.15787,-28.17778,-27.88723,-27.42005,-27.48159,-27.6867,-29.19809,-31.65064,-33.97796,-36.34214,-39.33076,-42.98192,-46.79593,-50.8748,-55.18151,-59.94721,-65.09986,-69.90812,-75.13321,-80.37348,-86.03807,-91.30184,-96.83869,-101.3855,-106.1364,-111.3849,-115.9211,-119.9702,-124.0151,-128.086,-131.8641,-135.7282,-138.7537,-141.3007,-144.501,-145.8489,-147.2711,-149.4635,-151.5738,-153.0723,-154.5399,-155.9672,-157.2784,-158.2735,-159.2328,-159.5075,-159.8601,-159.7615,-156.9762,-152.3142,-147.9213,-143.1913,-138.1736,-132.3435,-126.7608,-121.0173,-114.7829,-108.1913,-101.319,-94.25599,-87.02871,-78.74575,-70.9475,-63.15249,-55.53811,-47.25227,-39.33616,-31.03374,-23.20914,-15.48813,-8.213381,-0.4334353,6.046136,12.22656,18.77187,24.64251,29.88909,34.46889,38.67104,41.99498,45.0847,47.00404,47.6802,47.91939,48.61928,50.25777,51.33832,51.46099,52.52654,53.43448,54.66344,54.56374,53.91801,54.00068,54.9063,54.85394,54.20195,54.44388,54.45396,54.66753,54.87366,55.01355,54.64871,54.33239,55.11719,56.55877,59.26416,62.49765,65.73933,68.18502,70.00996,71.50651,73.28916,75.39162,76.3656,77.24993,79.03297,81.52496,83.92268,85.66555,87.17248,88.60429,90.08568,91.00029,92.23213,93.08465,93.61671,94.13303,94.41089,94.79583,94.94194,95.08627,95.03414,94.98972,94.84444,94.49549,94.3898,93.83664,93.21923,93.00609,92.81916,92.13461,91.97117,91.78587,91.28964,91.40448,90.86145,89.3056,88.81058,89.18749,89.18439,88.46956,88.65871,88.66647,88.84453,89.33318,89.34357,89.32606,89.82651,89.69845,89.64005,89.73327,89.63649,89.80258,89.7346,89.95129,88.43832,87.24061,86.87049,87.1197,87.57518,88.26422,87.1016,87.17796,88.91358,89.75928,89.93505,89.2979,89.87405,90.77867,91.68685,93.13963,93.5178,94.51358,95.11547,96.63238,96.38445,97.71734,98.09651,99.0502,99.05677,99.27179,100.1523,100.2265,101.0361,100.9818,100.9194,100.2904,100.3228,100.4481,100.5625,100.0901,98.35035,97.59482,96.94866,95.84573,94.13608,92.86495,90.81867,88.23604,85.37778,83.17421,79.12439,76.38538,74.71406,73.22683,72.29816,69.52004,66.75662,65.00488,62.79224,60.29812,58.29497,55.73949,54.09796,53.32235,54.03024,53.86219,52.28352,51.35441,51.42852,50.25965,49.63429,49.54651,48.68591,47.21272,45.3754,44.94689,44.86027,46.00645,47.79973,49.18489,49.9861,51.72719,53.67246,54.69986,56.17485,55.72465,55.65204,55.54232,55.95588,57.30466,59.20683,61.14412,62.86614,65.79295,68.64747,70.45314,73.26635,75.43459,77.21662,78.58482,79.96676,80.836,81.40713,81.81082,81.84521,81.99507,81.47098,80.3328,80.59829,80.27857,78.44353,76.3023,74.16373,71.47265,68.13004,66.11355,64.178,61.83664,59.04162,55.87648,52.70629,50.26606,47.51731,43.39439,39.86915,36.3113,32.96778,27.71866,23.32288,19.92883,16.84864,14.4261,12.61008,12.60282,11.1112,11.52581,10.98465,10.9512,10.53103,11.17762,12.19215,13.14295,15.60337,17.31627,19.79405,22.10153,24.41717,26.95264,29.00975,30.52256,31.1084,32.59475,33.00289,33.27113,33.03243,32.47385,31.11748,29.67265,28.50295,26.83613,24.9339,23.33196,20.7585,18.69702,16.77267,12.97785,10.28834,7.086525,3.536951,-0.1290194,-3.207432,-6.970961,-10.68889,-14.33964,-18.7982,-25.57004,-32.08902,-37.73307,-41.31349,-45.81596,-49.43224,-53.31198,-57.59356,-59.60494,-61.12033,-61.07089,-61.34485,-61.22606,-62.02925,-63.0856,-63.61953,-63.83913,-64.64653,-65.39788,-66.01166,-66.93518,-65.93224,-64.35359,-61.79752,-59.03063,-56.31633,-53.78889,-51.50701,-48.89861,-46.76941,-44.42004,-42.11798,-39.82302,-37.51557,-36.16107,-34.57742,-33.20534,-33.07379,-31.31525,-29.10889,-25.85407,-22.94686,-19.37189,-14.88997,-12.06899,-9.836497,-7.821442,-6.803683,-7.075337,-8.270468,-10.14376,-12.79271,-16.86295,-21.87463,-27.45987,-33.90166,-41.5178,-49.90868,-58.68514,-67.95166,-78.08395,-89.09734,-98.56613,-106.9696,-114.2921,-121.5631,-129.1312,-135.82,-142.3442,-148.9561,-154.9668,-159.9267,-164.453,-168.0085,-170.0965,-170.7221,-171.3035,-171.5596,-171.3192,-170.6419,-169.0417,-167.3312,-165.1759,-162.4465,-159.3071,-155.2321,-150.4844,-145.7957,-140.2904,-134.2718,-127.4594,-120.7053,-113.6266,-106.0581,-97.84933,-88.81172,-81.12305,-73.94866,-65.52629,-57.06551,-49.11952,-41.01376,-33.64031,-26.05625,-18.79631,-11.88646,-5.802233,-0.884867,4.373545,8.798365,13.80534,20.28498,26.5487,32.97048,38.01495,43.23069,47.96137,53.03544,57.58416,61.50484,65.50363,69.01094,71.68079,74.20495,76.67945,79.4732,81.05535,82.34181,83.11767,84.05033,84.58728,84.44957,83.78702,83.2482,82.30983,81.63173,79.77568,77.99066,75.69642,73.76302,71.89364,69.29067,66.73071,63.7689,61.19534,59.60148,57.99932,57.42577,58.48867,60.11975,61.90908,63.64748,65.12031,66.47332,67.63056,67.10692,65.28472,63.87782,62.44528,62.52184,63.19149,64.27416,64.62265,65.96651,67.4175,68.6775,70.73885,72.29479,74.14389,76.30821,77.82893,79.60321,81.37996,82.25112,82.90929,84.12842,84.985,85.78261,86.19674,86.80373,87.40359,87.97363,87.89358,87.17856,86.69978,86.03504,84.69,83.50138,81.87847,80.31551,78.29313,75.5421,72.75631,70.03912,66.69951,63.54765,59.35624,54.82055,50.46901,44.8969,39.20481,33.68695,28.24309,22.9404,17.53439,12.68413,7.203002,1.248657,-4.163817,-9.916303,-15.68354,-21.35547,-26.70694,-32.40828,-37.16653,-42.98238,-49.22474,-55.77159,-61.8294,-68.76785,-75.66599,-82.89389,-90.32369,-98.06746,-105.4761,-112.8704,-120.2655,-127.508,-135.3472,-141.917,-148.7067,-154.8644,-161.4508,-166.9342,-172.4018,-176.8212,-180.8931,-183.5508,-187.335,-190.2808,-192.821,-194.5818,-196.3162,-197.1379,-197.8,-198.0127,-198.0327,-196.9949,-196.1316,-194.0285,-191.6577,-189.2039,-186.2512,-183.2956,-179.7362,-176.5034,-173.1213,-168.505,-164.2015,-159.7728,-155.2853,-150.6705,-147.0453,-142.3554,-138.4326,-134.3647,-128.3181,-120.4516,-111.9098,-101.9597,-92.28973,-83.6922,-74.98002,-66.1232,-57.29249,-49.03362,-40.64759,-33.3157,-26.25947,-19.25625,-12.74486,-6.918719,-1.502621,3.006692,8.059387,13.64264,18.04283,21.56686,24.01336,24.59026,25.32368,26.57,29.06892,30.38147,31.96086,34.18516,35.9166,37.68879,38.93327,40.5571,41.62475,42.56757,43.33953,43.19121,42.79808,42.86495,42.22153,40.83613,41.36378,42.37707,44.37569,45.59286,44.82648,43.5783,42.3356,41.3733,39.00947,36.3032,33.73026,31.53567,29.44004,27.67244,26.01713,24.61639,22.24785,18.60374,15.71849,12.12436,8.556611,4.669971,0.8370903,-2.701117,-5.915642,-10.18094,-13.33639,-16.10662,-18.22113,-21.02643,-22.92276,-24.36529,-25.00938,-25.48072,-25.86161,-25.40026,-25.05286,-23.16468,-20.8713,-19.19345,-18.44673,-15.97345,-12.80695,-9.581351,-6.500761,-3.897322,-0.841913,2.662254,7.616646,11.93586,16.40849,21.05363,25.88861,31.05753,36.18823,40.76095,46.05382,51.65751,57.98201,65.03874,70.37022,73.61807,77.14849,81.43575,86.73422,93.6794,100.5327,109.8022,119.8677,131.1938,142.6346,153.8836,165.2137,177.0206,190.083,201.145,212.685,223.6429,234.9492,244.9618,254.2472,263.4016,270.7599,277.5846,284.1741,288.5825,292.705,294.7451,295.2151,294.3745,291.4484,288.0232,285.0453,281.0048,275.6123,266.966,257.6624,247.3853,235.9894,223.0689,208.5773,193.2887,176.9384,160.2047,142.7557,125.1302,107.738,91.2039,73.93989,56.62785,41.17338,24.20113,5.649165,-13.51935,-31.53281,-48.65435,-64.78865,-81.24574,-97.02284,-110.8757,-124.2497,-137.2415,-148.8285,-158.7819,-168.4658,-177.0246,-186.61,-193.7173,-198.4464,-202.9607,-206.7248,-209.6455,-210.6468,-209.2496,-207.5691,-205.7015,-201.6397,-196.0216,-188.6911,-181.5062,-173.0983,-164.3153,-153.0289,-141.8154,-130.5134,-118.4167,-105.4362,-91.45028,-77.86887,-64.68346,-51.28383,-36.87459,-22.84071,-9.460871,3.541637,16.40687,30.10306,42.72414,54.96338,65.81511,76.50168,85.57983,93.76735,100.6678,106.2846,110.6885,113.4098,113.5216,112.319,109.6422,104.1282,96.56276,89.95952,84.07638,77.80383,69.89634,61.47128,53.04249,43.92642,34.85959,25.52855,14.72473,4.951789,-5.000057,-15.21156,-26.01488,-35.78282,-45.62895,-54.25775,-62.85676,-70.6453,-78.17314,-84.87047,-89.70189,-93.51118,-97.35842,-100.5853,-103.2791,-105.2141,-105.3779,-106.6652,-107.5379,-107.9443,-108.1243,-107.0069,-106.708,-106.1232,-104.8581,-103.2451,-102.062,-100.2175,-98.78123,-96.25246,-93.56834,-90.64907,-87.48033,-84.3781,-81.2365,-78.36034,-74.34257,-70.71419,-67.60895,-64.83074,-61.01695,-56.88829,-53.90754,-51.04663,-48.61852,-45.43421,-42.47474,-41.01103,-39.11113,-37.14381,-34.56395,-32.89493,-31.5343,-29.92115,-27.8934,-26.18589,-25.32747,-23.76364,-22.3059,-20.3121,-18.66616,-17.2363,-15.7631,-13.81608,-11.84813,-9.667974,-8.06898,-6.884226,-5.715425,-3.887939,-2.625777,-1.668003,-0.3832504,0.9775027,1.617552,2.363895,3.077423,4.215335,5.238196,5.579922,6.217042,6.986562,7.708992,8.345849,8.329133,8.951889,9.516965,10.16413,10.18835,10.69911,11.42006,12.64628,13.57148,13.65028,14.50235,16.54048,18.02312,18.97688,19.85985,21.32375,23.32213,25.26559,25.81455,27.25772,28.5549,29.9307,31.56132,32.66682,33.34316,35.09069,35.87216,37.23866,38.66915,38.91985,39.53754,40.68068,41.07517,41.5593,41.70073,42.14666,42.9694,44.60764,44.9673,45.49421,46.61247,47.67885,49.18171,49.18459,50.38064,51.41164,52.09923,53.44216,53.54432,53.55708,54.23998,54.43598,54.19396,54.92146,54.52724,54.62906,54.00253,53.50731,52.23839,51.50288,50.41773,49.15916,47.56116,45.86397,44.19845,42.77258,41.16848,38.68336,36.04147,33.59774,31.44145,28.95774,25.72678,23.50029,21.07502,18.11516,15.92663,12.48511,10.09225,7.919751,4.710233,2.404655,0.2068333,-1.402092,-2.988641,-4.899795,-5.741536,-6.030716,-6.78139,-6.619531,-6.455178,-6.364754,-6.449696,-6.507395,-5.819823,-5.086842,-3.98885,-3.69658,-2.831801,-1.635882,-0.5641737,0.5303792,2.14888,3.34486,4.514163,5.14852,6.5774,7.244148,8.520815,9.490215,10.67447,11.50486,12.82852,14.5912,16.35208,18.07118,19.75499,21.74143,23.75963,26.35565,28.88268,30.50653,32.52145,34.63322,36.53747,38.13936,39.69957,41.10996,41.81687,43.03597,43.69458,44.13055,44.52134,44.98893,45.06565,44.34485,43.64971,43.4459,42.65313,40.79876,39.78965,38.2642,36.96369,35.69317,34.10082,32.9875,32.07977,30.87318,28.97093,27.67537,25.94163,23.84911,23.55049,21.97795,20.28779,18.16453,15.83434,13.88077,11.28267,9.695467,8.161573,5.845493,3.993244,2.150188,-0.470508,-3.353893,-5.799091,-8.863616,-11.54335,-13.7982,-16.61945,-19.94073,-22.6212,-24.80972,-27.78621,-31.30406,-34.64178,-38.13886,-41.00692,-43.81647,-46.78602,-50.49313,-54.34043,-56.61956,-60.33981,-63.73192,-67.05191,-70.36416,-72.96581,-75.86073,-78.29745,-80.79397,-82.93467,-84.60735,-86.06035,-88.26472,-88.16064,-88.15761,-88.63892,-88.39168,-89.10051,-88.94541,-88.32672,-88.24943,-88.06357,-88.13802,-88.19646,-88.19008,-87.90162,-88.17127,-88.15187,-88.4571,-88.57629,-89.79277,-90.20999,-90.58178,-91.18982,-92.31285,-92.3253,-92.55806,-92.27462,-92.67932,-92.37808,-91.53212,-90.41783,-89.47885,-88.68891,-86.61278,-84.52111,-82.20402,-80.39574,-78.26141,-75.30675,-72.53226,-69.54125,-66.25809,-63.2823,-60.19588,-56.61328,-52.76245,-49.02895,-45.34945,-41.81799,-37.95081,-34.04591,-30.52415,-26.11987,-22.41761,-18.97087,-15.05805,-11.16046,-7.084341,-3.683151,-0.0440421,3.906709,8.153085,11.72872,14.89127,18.59636,22.2991,25.53726,28.26086,32.27586,34.36875,37.02689,39.46427,41.53325,43.77079,45.86495,48.79191,50.19287,51.22724,52.6269,54.05655,55.61649,56.19211,57.35803,57.54456,58.51206,58.75126,58.96348,58.77438,58.69235,58.69652,58.28568,57.90052,57.94071,57.128,56.62023,55.86794,55.05706,53.95135,52.61603,52.20959,51.0525,50.15214,48.80483,47.31977,46.80896,46.23004,45.17522,44.08399,44.07451,43.92705,44.17469,45.38177,46.21319,46.80016,47.48485,49.21955,50.39573,51.49142,52.48353,53.0149,54.65451,55.32881,55.79235,56.7124,57.23094,57.50721,58.0498,57.70684,57.18304,56.80387,56.79112,55.7724,54.33271,53.6183,52.60456,51.43433,49.57496,48.58951,46.59045,45.48487,44.40398,42.56516,40.66771,39.2685,37.9559,36.41092,34.85561,32.97766,31.35727,30.33289,28.50925,27.48625,25.20597,23.96195,22.67185,21.50658,20.02787,18.47904,17.16931,15.80486,14.80226,13.86403,12.86189,10.8103,10.34887,9.861532,8.847622,7.622851,6.044141,6.152328,5.657982,5.139403,3.628735,2.678465,2.390266,1.322972,0.2353499,-0.9257077,-1.199839,-1.919907,-3.119538,-4.221562,-4.791482,-5.876955,-6.260488,-7.025679,-7.611279,-8.722736,-9.098643,-9.491055,-10.4116,-10.96273,-11.36233,-12.30002,-12.43292,-13.55402,-13.5023,-14.20689,-15.31688,-15.07608,-15.59925,-15.89141,-16.29222,-16.9892,-17.33151,-18.13878,-18.64328,-19.40309,-20.5392,-20.38711,-21.50221,-22.69449,-23.82642,-24.67582,-25.05661,-26.38762,-27.13837,-27.55981,-28.38957,-29.06119,-29.95374,-29.94147,-30.90195,-31.51795,-32.18695,-32.42506,-33.31941,-33.89779,-34.37337,-35.10431,-35.48818,-36.24672,-36.52482,-37.03491,-38.00685,-39.00296,-39.08835,-40.14696,-40.39958,-41.02435,-41.7733,-42.52565,-42.74188,-43.01345,-43.99181,-44.43935,-44.57321,-44.43579,-45.79117,-45.53782,-46.01787,-46.77541,-46.70347,-47.57949,-47.56283,-48.38498,-48.71146,-48.89639,-49.44794,-49.74063,-50.72422,-50.87048,-51.72319,-51.7617,-52.59157,-53.06356,-53.34745,-53.96684,-54.42096,-55.59836,-55.59861,-56.12073,-57.436,-57.89221,-58.44477,-59.70214,-60.11754,-61.85031,-62.36392,-62.98876,-64.43754,-64.9406,-65.66766,-65.83799,-66.3518,-67.65852,-68.39754,-69.44726,-69.98224,-71.49997,-72.91451,-73.77158,-74.91416,-76.52309,-77.64883,-79.04797,-79.99386,-82.07738,-83.4587,-84.94976,-86.75848,-88.09971,-89.65713,-91.02875,-92.14394,-93.47161,-93.23547,-93.83677,-94.81451,-94.81507,-96.44801,-96.82338,-97.37819,-98.43765,-99.25512,-100.2981,-100.6741,-101.0712,-101.4199,-101.1082,-102.1705,-101.6322,-100.7471,-99.81715,-97.95111,-96.69493,-94.37969,-91.81603,-89.41703,-86.22331,-83.1827,-79.1612,-75.41792,-71.41527,-66.65512,-61.87471,-56.66194,-50.99473,-45.49008,-40.5373,-34.68905,-27.93315,-21.63399,-15.17668,-7.809843,-0.439689,7.597779,15.52247,23.83899,31.93911,40.52994,49.11061,57.87515,66.75899,74.7901,83.68907,92.28923,100.0301,107.9399,116.1254,123.3661,130.7437,138.0712,144.7135,151.3995,157.6482,163.6785,169.1262,174.0399,178.9053,183.0118,186.843,190.8659,193.8231,196.1509,198.8907,201.0191,201.593,202.0731,201.9511,202.0457,201.2618,200.4758,199.8087,198.3761,197.6779,196.7924,194.6493,194.1501,192.7281,190.9641,189.9617,188.4645,187.1158,185.5111,183.4529,181.7989,179.9996,178.4534,176.3361,175.1448,173.4371,172.0479,170.6275,168.8566,167.064,165.2143,162.8076,161.1118,159.4018,157.2827,155.5038,153.9034,152.0378,149.903,147.2234,144.8008,141.702,137.7238,134.1535,129.8586,125.5959,120.9497,116.3976,111.0226,106.1157,101.1954,95.45461,89.83116,83.48569,77.21721,70.93088,64.14504,57.68224,50.99219,43.06444,36.23418,29.50866,22.17023,14.44825,7.148779,-0.487139,-8.174948,-15.48364,-23.20305,-30.54152,-37.56153,-45.21569,-52.72734,-59.78293,-65.96534,-72.08358,-77.95256,-83.4309,-88.34638,-93.5338,-97.9287,-101.6875,-105.0557,-108.3918,-111.5439,-114.3255,-116.4395,-118.2694,-119.8004,-121.0188,-121.7627,-121.8698,-121.8023,-121.5298,-121.0215,-120.2644,-118.3714,-117.1302,-115.3187,-113.122,-110.7796,-108.7097,-106.1541,-103.3761,-100.9353,-98.1846,-95.85608,-93.32399,-91.09576,-89.47737,-88.07736,-86.32159,-84.94925,-83.50776,-82.13079,-80.61276,-78.72208,-77.30429,-76.07026,-74.99013,-74.13382,-72.83178,-72.15851,-71.42111,-70.87596,-69.93908,-68.53337,-67.73361,-67.023,-66.4336,-65.77771,-64.652,-63.65362,-62.29395,-61.11973,-59.90408,-58.09799,-56.40378,-55.37629,-53.63009,-52.75806,-50.88545,-49.41365,-47.84165,-46.54386,-45.14486,-43.35631,-42.04758,-40.57074,-38.79825,-36.74019,-35.46658,-33.47591,-31.58825,-29.7374,-27.53159,-25.36701,-23.38475,-21.6002,-19.38228,-17.96211,-17.00239,-15.04818,-13.92864,-12.57162,-11.67503,-10.70607,-9.182096,-8.080291,-6.674286,-6.032857,-4.858383,-4.203181,-3.891011,-2.893266,-2.667349,-1.774212,-1.013059,-0.3639831,0.711889,0.7451765,0.8805792,1.596603,2.091379,2.351699,2.689065,2.787816,2.643081,3.309575,2.798804,3.332733,3.788766,4.036694,3.858014,4.30206,4.19912,4.17125,5.097249,5.15083,5.599154,6.085408,6.344819,6.953195,7.455777,8.31286,8.750878,9.609293,10.22713,11.45238,12.0716,13.16643,13.78742,15.02226,15.85188,16.87765,18.12187,18.46904,20.38539,21.11113,22.41057,24.1066,25.01654,25.90946,27.28654,29.32361,30.96351,32.02509,32.93703,34.69171,36.13939,37.69647,38.80631,38.83048,41.11363,42.62216,43.48169,44.62484,45.57357,47.00334,48.44613,49.08728,50.62478,51.66955,53.22118,54.25291,55.53081,56.64912,57.50945,58.35404,59.58544,60.37856,62.15751,62.1245,63.6221,64.39394,65.5315,66.34669,66.75079,67.66099,68.3788,68.80252,69.60077,70.9469,72.02671,73.35725,74.45057,75.44587,76.43401,77.63272,79.65754,81.65949,82.47999,84.73535,86.60168,88.72094,90.30521,91.98209,94.36298,96.24745,98.21017,99.47895,101.442,102.8543,104.1878,105.7724,106.4693,107.5617,108.3674,108.9913,109.4307,109.3168,109.2728,109.1417,108.6614,108.1197,106.7419,105.3039,103.9013,102.7124,100.5215,98.84689,96.03054,93.21101,90.30185,86.87182,82.76267,79.04941,74.90319,70.20629,66.46918,61.2844,56.1433,51.04614,45.35053,40.17959,34.29047,28.69486,22.57095,16.8171,11.0592,4.930659,-1.404214,-7.475112,-13.36315,-19.00296,-25.47571,-31.24513,-37.08884,-42.63174,-48.33655,-53.90642,-59.72879,-64.96354,-70.02714,-74.49,-79.81186,-84.89002,-88.94676,-93.18295,-97.52278,-101.4689,-105.734,-108.9719,-111.3882,-114.4069,-117.4531,-120.1844,-122.0322,-124.2244,-125.7761,-127.9402,-128.4625,-129.7437,-130.5792,-131.1695,-131.4006,-131.8332,-132.3529,-132.0858,-132.3716,-132.4815,-132.997,-133.9686,-133.8291,-134.3241,-134.5108,-135.5242,-136.6416,-136.6845,-137.3155,-137.6831,-138.026,-138.7027,-138.4593,-138.2584,-138.7423,-138.2798,-139.0926,-138.1411,-136.8258,-136.8903,-136.6809,-135.6225,-134.4834,-133.9432,-132.882,-131.723,-130.5811,-129.66,-127.875,-126.6616,-125.8668,-124.3375,-122.8467,-121.5035,-120.0255,-118.2693,-116.4278,-114.6804,-112.3609,-110.2888,-107.6342,-105.6676,-103.0084,-100.1421,-97.73172,-95.55849,-93.12444,-90.12986,-87.9316,-85.34733,-82.84902,-80.00292,-77.94499,-75.20236,-72.60266,-70.20006,-66.96424,-65.13219,-61.91845,-59.87679,-57.45001,-54.43869,-51.55362,-48.84253,-46.14786,-43.40336,-40.39729,-37.4842,-34.53873,-31.97275,-28.97563,-26.42427,-23.54717,-21.0082,-18.19494,-14.75891,-13.2379,-9.896149,-7.922054,-5.384305,-2.653476,-0.500949,1.258189,4.328048,6.574868,8.459381,10.6526,12.31017,14.29359,16.19853,17.86663,19.79561,21.12583,22.76623,24.58398,26.0631,27.68767,29.62101,30.99063,32.70307,34.19457,35.1425,36.36624,37.8993,38.66704,39.30812,39.94301,40.38537,40.427,41.34461,41.43819,41.66266,41.86132,42.10686,41.80795,41.804,41.57579,42.28593,41.47368,41.64127,41.94993,41.53044,41.89554,41.50147,41.16495,41.46496,40.91409,41.39519,41.32973,41.39816,41.24842,41.44051,41.54074,41.49652,42.15165,41.78002,41.97393,42.1813,42.51385,42.98274,42.28652,43.69385,43.07494,43.659,44.21308,44.88019,43.76132,45.87788,45.60647,47.00292,46.35156,46.5149,48.29581,46.8694,48.24406,49.43808,48.36157,49.20985,47.80412,49.90636,51.22534,47.48635,50.22002,50.56753,49.17711,49.56109,48.6846,48.74643,46.66514,47.99755,47.1189,46.48424,45.47176,45.99446,46.08657,46.65893,45.19477,45.98827,45.42193,45.35848,45.3436,46.231,44.85786,43.55171,44.61953,45.73318,43.22208,44.41264,43.22637,42.50218,43.45964,43.47242,41.66815,43.27311,45.34453,42.36032,42.88436,43.23878,42.55871,42.0805,43.40536,43.17937,42.66541,43.03983,44.55546,43.16536,43.55427,44.16731,43.43215,43.88363,43.88061,44.6023,44.90487,44.48947,44.51585,44.73634,44.53405,44.0499,44.39549,43.98319,44.08921,43.67746,42.70558,42.54991,42.22755,42.31607,41.99408,41.38411,41.11864,40.73918,40.74249,40.21112,39.75032,39.18793,39.27596,39.14311,38.81658,38.53361,38.51908,38.22145,38.11243,38.07539,37.73833,37.8591,37.50663,37.50358,37.83743,38.00949,37.45656,37.94815,36.98726,37.90025,36.8996,37.25056,36.8728,36.83262,36.51091,38.59276,37.10467,38.45647,38.30434,41.12066,42.38014,42.698,46.14687,46.99499,47.17874,50.23844,51.5478,54.80147,55.09645,55.23336,60.73128,58.93835,59.80486,61.82776,61.53694,63.35027,61.69083,64.74508,63.24052,63.66566,63.95688,64.26006,63.30289,62.19421,60.50239,60.46049,57.52085,56.0867,53.63625,51.04728,46.38859,44.09561,41.59224,37.17717,31.90069,29.12003,23.67766,19.52579,15.6794,10.17761,4.315598,0.8126662,-4.504537,-12.89298,-16.10151,-21.93843,-28.24876,-32.84596,-37.6164,-44.11185,-49.27866,-53.89032,-58.67168,-64.87005,-68.22577,-72.93285,-77.62388,-81.15573,-84.93962,-88.5671,-92.32128,-96.18063,-99.07602,-102.0346,-104.6492,-107.0942,-109.3667,-111.8212,-112.7051,-114.8687,-115.709,-116.5408,-116.983,-117.478,-117.5654,-117.6457,-116.9678,-117.1167,-115.4777,-114.9604,-114.1806,-113.0134,-111.961,-109.486,-107.6034,-105.4529,-102.9549,-100.8086,-98.12315,-96.25527,-93.80422,-92.01113,-90.11174,-88.43039,-87.26789,-87.01619,-87.05994,-87.53116,-87.97176,-88.12977,-89.06791,-90.12584,-91.02852,-92.40261,-93.33139,-94.31252,-95.71674,-96.52477,-96.94458,-97.55156,-97.94912,-98.64333,-99.25002,-98.86524,-98.79622,-98.58886,-98.44256,-97.85273,-96.62054,-95.09946,-94.19588,-92.47123,-91.05654,-88.69877,-86.17734,-83.26492,-80.53388,-77.54084,-73.82807,-70.46815,-66.3358,-62.16185,-57.92573,-52.87329,-48.3873,-43.71949,-38.23729,-33.86101,-28.50303,-23.14082,-17.41235,-12.10673,-6.345976,-0.963621,4.694417,10.50484,15.54327,20.70319,25.8457,31.04153,36.69246,41.14409,46.32497,50.3809,54.64849,59.31089,62.99443,66.98177,70.11703,73.58092,76.96111,79.3373,82.24079,84.30893,86.99018,88.34565,89.69966,91.17605,91.82069,92.62791,93.02785,93.00772,92.90643,92.75897,92.54079,91.78853,90.34366,89.54635,88.31462,86.75799,85.3245,83.03127,81.48399,79.34931,77.66612,75.68635,74.00179,71.88075,70.15171,68.75577,67.3078,66.25809,66.04624,66.03379,64.98994,65.48238,65.78864,65.44291,65.93516,65.85465,66.4605,66.71358,67.24498,66.84899,66.98777,67.17358,67.20956,67.23547,67.93376,67.77525,68.94716,68.29339,68.67224,68.42442,68.57726,69.35956,68.8595,68.73053,68.69127,68.78772,68.93423,68.19974,67.8258,68.2737,67.75138,67.19829,66.80044,66.4639,65.64586,65.10173,63.85886,63.14495,61.45476,61.37537,59.56521,57.95908,57.08118,53.95214,53.40129,51.70564,49.43461,47.78284,45.44394,43.5707,40.64894,38.9333,36.73482,34.12015,31.94393,29.29455,27.83276,24.85293,22.48498,19.63734,17.42745,14.97279,12.06588,9.848847,7.378943,4.859089,2.885569,-0.3441994,-2.335033,-5.207757,-7.055213,-8.837784,-11.51398,-13.48588,-15.07609,-16.47434,-18.57028,-20.29561,-21.5047,-23.35269,-24.58193,-26.54662,-27.39238,-28.90303,-29.88457,-31.0036,-31.83748,-32.9995,-34.00855,-34.67481,-36.24347,-37.1392,-37.69642,-38.54315,-39.70428,-40.97367,-41.95521,-42.59552,-43.69776,-44.44037,-45.6914,-46.8762,-48.05253,-49.30031,-50.88904,-51.62419,-53.31305,-54.57302,-55.9997,-57.35458,-59.02226,-59.89905,-61.74524,-63.59135,-65.22313,-67.19228,-68.85914,-70.58556,-72.83917,-75.36783,-77.42401,-79.34446,-82.06734,-83.60109,-86.5648,-88.66193,-90.57279,-93.29769,-95.59978,-97.95267,-100.2462,-102.6609,-105.8489,-107.9367,-110.2061,-112.5818,-115.722,-117.8851,-120.2266,-122.5597,-125.3258,-128.1544,-130.7042,-132.8673,-135.8439,-138.5442,-141.1503,-143.8056,-145.9612,-148.1374,-151.7468,-153.3083,-155.7012,-158.5353,-159.726,-162.3809,-164.0634,-165.5613,-166.8244,-168.0389,-170.0453,-171.2452,-172.4186,-173.6785,-175.7008,-176.6939,-177.14,-178.7227,-179.3714,-180.7338,-181.9977,-183.2165,-184.4879,-186.5572,-188.6032,-190.8812,-192.9311,-195.2211,-197.023,-199.5931,-201.458,-203.9644,-206.0521,-207.2754,-208.657,-210.1684,-211.3427,-211.041,-211.2788,-210.4662,-209.4445,-207.8549,-204.8344,-201.8577,-198.061,-193.898,-189.1319,-183.6136,-177.0278,-170.5215,-163.5398,-154.8064,-146.3227,-137.3793,-127.7618,-117.6573,-107.0788,-95.97216,-84.88889,-73.06058,-61.66304,-49.58036,-36.86107,-24.11099,-11.621,1.599962,14.10377,27.39083,40.5369,53.74307,65.90634,79.37534,91.99849,104.1918,116.907,128.3812,139.9029,151.7553,161.9336,172.732,182.6924,192.6794,202.3118,211.7487,219.6534,227.8388,235.5875,242.9496,249.0441,255.2085,260.1966,264.861,269.1007,272.8915,275.5614,277.2928,278.7884,280.1155,280.518,280.5644,279.5366,278.0541,277.1729,275.3432,272.397,269.8597,267.3452,264.2309,261.7626,258.3099,255.1087,252.5272,249.3883,247.3995,244.8356,242.6416,241.084,239.2075,238.4886,236.8661,235.7721,235.389,235.1761,235.2244,235.6079,237.1395,238.495,239.788,241.4418,243.3057,245.2019,247.1934,249.1344,250.9367,253.2607,254.819,256.4239,257.5412,258.2897,258.9423,259.2882,258.7295,258.4708,257.6697,256.294,254.2941,252.066,249.7715,246.6552,243.8543,239.6618,235.266,230.6568,225.123,219.8881,213.4767,206.775,200.194,192.9297,184.9591,177.2562,168.8328,160.3127,151.5311,141.9941,132.6259,122.3676,112.523,102.3081,92.19103,81.42913,71.17914,61.02691,50.21375,40.08757,29.41074,19.57957,10.19854,-0.4268192,-9.754106,-18.76434,-27.97161,-37.2361,-45.57699,-53.70727,-62.54371,-69.9224,-76.97328,-84.31172,-89.86967,-96.42941,-101.3801,-106.4437,-110.866,-115.0492,-118.3768,-121.7675,-124.4597,-126.6714,-128.6908,-130.2726,-132.344,-133.1833,-133.3319,-133.7723,-134.3816,-134.0938,-133.7093,-132.6233,-131.4777,-131.2271,-129.8814,-127.9426,-127.0754,-125.244,-124.102,-122.343,-120.7489,-118.8011,-117.3931,-115.2786,-114.4115,-112.4094,-110.7438,-109.903,-108.5672,-107.5503,-106.8364,-106.1297,-105.291,-105.4443,-104.5379,-103.7337,-103.1498,-101.904,-101.044,-100.4527,-99.0628,-97.63202,-95.8195,-95.19093,-92.84613,-92.22167,-90.11233,-88.20773,-87.15286,-85.47634,-83.98417,-81.74034,-79.92098,-78.46712,-76.67771,-75.04031,-73.16989,-71.22391,-70.00924,-67.40677,-65.86054,-64.22865,-62.50964,-60.47545,-59.21425,-57.38704,-55.61215,-53.46779,-52.209,-50.33573,-49.19551,-47.64599,-46.13939,-44.42956,-43.36674,-41.97586,-40.68161,-39.27611,-37.67288,-37.09812,-35.93342,-35.12324,-33.55355,-32.58777,-31.53594,-30.95296,-29.91997,-28.41153,-28.07002,-26.97985,-26.7958,-26.65604,-25.30963,-24.75961,-24.94113,-24.64587,-24.22569,-23.87391,-23.85871,-23.32017,-23.06177,-23.20298,-22.15351,-22.28541,-22.01772,-21.9931,-21.49634,-21.72256,-21.35228,-21.82197,-21.23295,-21.30843,-21.34808,-21.36593,-21.07755,-20.37771,-20.57738,-20.30249,-20.42415,-19.98448,-19.97375,-19.79762,-20.08201,-20.19811,-20.30106,-20.23851,-21.07253,-20.7587,-21.02672,-20.8276,-21.46425,-20.75256,-20.99298,-20.55706,-21.15144,-20.51065,-21.0487,-20.57638,-20.33833,-20.38629,-19.61735,-19.64396,-19.23585,-18.36244,-17.62476,-17.20784,-16.96243,-16.29934,-15.74585,-15.36115,-14.77591,-14.66977,-13.66082,-13.45492,-12.26082,-12.4579,-10.57847,-10.77436,-10.20193,-9.224193,-8.617049,-7.876719,-6.86463,-6.188439,-5.376971,-4.930624,-4.040717,-3.441348,-2.687877,-1.526162,-1.310791,-0.6530154,0.5826904,2.040677,2.640112,4.230175,5.349778,6.920192,8.146595,9.3156,10.74617,12.38772,13.59728,15.37786,16.84452,18.42955,20,21.36496,23.18888,24.63479,26.43523,28.03214,30.02112,31.69658,33.46338,35.33884,37.64247,39.12991,40.60119,43.12187,44.58771,46.71838,48.48986,50.34261,52.12643,53.63034,55.30715,57.03037,58.35637,60.19992,61.00372,62.18225,63.33495,63.83245,64.64385,65.13727,65.1691,65.34367,65.70813,65.55501,65.55801,64.53382,64.35375,63.5302,62.80244,61.74174,59.83092,58.8806,56.82627,55.17593,53.01547,50.84632,48.48444,46.24859,43.7421,41.31016,37.99051,35.72285,32.79725,29.76979,27.12785,23.86438,20.78495,17.68388,14.46342,11.49819,7.986866,5.145249,1.920678,-0.9852154,-3.937253,-7.636879,-10.06853,-12.49941,-15.91471,-18.6616,-21.34481,-24.00715,-26.23262,-29.03891,-30.78388,-32.8449,-34.70306,-36.74394,-38.26235,-39.93411,-41.66528,-43.78963,-44.54695,-46.07553,-47.31807,-48.3688,-49.41762,-50.67436,-51.46942,-52.11447,-53.2746,-54.06558,-54.50362,-54.88698,-55.1452,-55.57322,-55.26534,-55.5362,-55.32119,-55.2535,-55.54386,-55.9281,-56.15912,-56.60283,-56.89799,-57.74267,-58.92262,-59.22739,-60.27377,-61.30036,-62.39729,-63.90889,-65.05356,-66.47648,-68.70666,-70.1935,-72.64268,-73.61297,-75.52001,-77.17345,-78.46501,-80.63204,-81.55892,-82.71611,-83.93903,-84.90474,-86.23468,-86.36236,-87.22697,-87.25049,-88.01794,-88.07296,-87.51717,-86.8729,-85.91617,-84.51263,-83.25566,-80.91016,-78.7269,-76.99396,-73.89966,-70.8705,-67.599,-63.80634,-59.99898,-55.96893,-51.38944,-46.60253,-41.10981,-35.99136,-31.11716,-24.94261,-19.99806,-13.82337,-7.878732,-2.456551,3.200539,9.247377,15.14715,21.58069,26.74664,33.12067,38.91744,44.72097,50.74094,55.5179,61.16209,65.91044,71.36142,75.82889,80.27231,84.69469,88.85246,92.30859,95.71694,98.82996,101.3482,103.9078,105.6946,106.9068,108.7773,109.2585,109.8538,110.0045,110.0215,109.3644,108.698,107.497,106.0148,104.5088,102.2168,100.3011,97.36065,94.68892,92.376,89.75181,86.67963,83.76046,80.45519,77.79134,74.92126,72.07522,69.52658,66.70491,64.06703,61.23633,58.70355,56.93909,54.54301,53.04149,50.88485,49.36822,47.81172,46.62992,45.55631,43.88217,43.02217,42.37826,41.23146,40.65183,39.52528,38.14982,37.43523,36.68948,35.65148,34.72215,34.12606,33.58619,32.18783,32.43195,31.55305,30.47775,29.88362,29.11542,29.17733,27.16089,26.57448,25.30408,23.46577,23.51315,22.74487,21.92973,19.61995,19.04916,17.03954,13.60543,16.14304,10.86763,11.79933,9.661079,8.924163,4.035793,6.402483,5.3339,1.669968,0.740525,3.417417,-4.339663,-3.603531,-5.23769,-7.331228,-6.433385,-12.04387,-10.61392,-14.15642,-16.69755,-19.71548,-18.75,-23.89652,-24.61986,-29.80782,-29.09346,-33.99418,-36.72598,-36.6118,-41.0013,-46.84745,-44.95503,-47.99971,-52.7689,-51.89772,-55.22925,-56.20115,-58.75462,-58.75065,-60.78361,-62.4106,-63.42241,-65.59621,-66.11509,-70.49866,-66.57036,-67.99969,-69.078,-71.50016,-71.3876,-69.60233,-72.09331,-71.59833,-74.9266,-74.56772,-72.04667,-75.69328,-72.11796,-76.37125,-75.56239,-73.71885,-78.09699,-75.70994,-77.19124,-76.62328,-78.40132,-79.13092,-79.37839,-80.54338,-80.80202,-82.30574,-82.19583,-82.77099,-83.06314,-83.91386,-83.69083,-85.35482,-85.30301,-85.68485,-86.36292,-86.39924,-87.16762,-88.51316,-89.23531,-89.0906,-91.51124,-91.76202,-93.37295,-94.11774,-95.56933,-95.75627,-98.65401,-99.28297,-100.9555,-101.6533,-102.9542,-104.1256,-104.7093,-105.1089,-106.7815,-107.2968,-109.1436,-110.0291,-110.9677,-113.9055,-118.4154,-121.8886,-124.4609,-129.1159,-131.875,-133.5406,-140.9688,-139.9634,-145.2048,-147.4706,-151.0137,-149.4879,-155.0759,-157.4495,-156.6782,-157.7815,-163.4382,-157.194,-158.3465,-157.2826,-155.3754,-156.1323,-150.7828,-151.0949,-147.0293,-143.7031,-137.9523,-137.3414,-130.1319,-126.3425,-118.5895,-115.3485,-107.3026,-99.89463,-95.29839,-86.76923,-74.42571,-70.21398,-60.35776,-47.94914,-40.04714,-29.22882,-20.32007,-8.785913,0.3844983,11.05655,21.06183,31.10283,42.18732,52.12927,67.37472,72.41819,83.01673,92.90002,104.8209,114.4859,121.0627,131.5365,139.1881,151.0885,159.0573,163.7431,173.9714,177.0065,187.2299,192.5948,195.2077,204.1284,206.0622,211.5352,213.8788,217.9056,220.79,222.131,225.2689,225.2286,226.9586,226.6711,225.5614,226.0791,225.3929,223.9304,223.8919,223.2264,222.225,221.5825,220.2787,218.6075,218.7128,217.9832,216.6871,218.0837,216.827,217.581,218.0587,218.7067,219.1631,221.6079,222.8285,225.9515,227.4116,229.6739,231.7426,233.4797,234.7621,235.3775,236.0871,236.0555,235.4522,233.7557,231.9895,230.717,227.6903,225.4665,222.2778,218.6295,215.2959,210.4106,205.0694,199.2555,193.3822,187.0553,180.3336,173.2743,166.1456,158.6875,151.2549,143.2732,134.6308,126.4301,117.517,108.9262,99.67996,90.82319,81.30648,72.49349,63.09881,53.5018,44.34664,35.30536,25.96822,17.41365,8.10004,-0.2011697,-8.646773,-16.45655,-23.65296,-31.52835,-37.15929,-44.60155,-50.76571,-57.61639,-63.64556,-68.70834,-74.43933,-79.58622,-84.04842,-88.32881,-92.51793,-95.81468,-99.09481,-102.3186,-104.0368,-106.6857,-108.1445,-108.8999,-109.9876,-110.6533,-110.4943,-110.3529,-109.6716,-108.7318,-107.5611,-106.2638,-104.8848,-102.7279,-100.7772,-99.04101,-96.74765,-94.81442,-93.21313,-91.24905,-90.71003,-88.48647,-87.93967,-87.53587,-85.95272,-85.49525,-84.45941,-82.92387,-82.12347,-80.68849,-79.90334,-78.4802,-77.9444,-77.06454,-75.90863,-75.26871,-73.48644,-73.04384,-71.3418,-71.001,-70.26839,-68.82022,-67.4856,-66.52569,-64.69327,-63.34717,-62.33359,-60.6664,-59.56334,-58.07317,-56.53208,-55.61346,-54.08826,-53.14373,-52.04969,-50.53314,-49.84892,-48.63787,-47.7403,-46.91552,-46.81743,-45.77909,-46.52056,-46.07361,-46.27656,-46.75485,-46.376,-46.29298,-45.95458,-45.84472,-45.60948,-46.03582,-45.38775,-45.61041,-45.45597,-45.09524,-45.80351,-45.24217,-45.716,-45.25973,-45.30996,-45.34641,-46.05237,-45.46821,-46.22415,-45.69975,-46.02608,-46.17241,-46.80373,-45.85803,-46.43647,-46.27795,-45.32874,-44.62708,-43.49599,-42.89872,-41.95376,-41.31569,-39.88442,-39.106,-37.89452,-36.73176,-36.00061,-34.61501,-33.12272,-32.57867,-31.54793,-30.34696,-29.45675,-28.3628,-26.97872,-25.78597,-25.12329,-23.84422,-23.27274,-22.06599,-20.52542,-20.06571,-19.16067,-18.30044,-17.29694,-16.45791,-16.23495,-15.09302,-15.11227,-14.80328,-14.53826,-14.12224,-14.26583,-13.82929,-18.07378,-14.69745,-15.60516,-15.02616,-13.43933,-17.2511,-14.69239,-13.69351,-12.72313,-11.06888,-9.267507,-7.215456,-5.851538,-3.254804,-1.688521,0.365667,1.775433,3.210496,4.736626,5.730055,7.247929,7.952866,8.4522,8.752562,9.209052,8.876779,8.379936,7.686925,6.684919,5.775814,4.251744,2.657552,1.252354,-0.9841034,-3.112851,-4.885624,-7.765774,-10.76121,-14.16292,-17.28651,-20.75225,-24.25,-28.20334,-31.30698,-34.96241,-38.54052,-41.75559,-45.94011,-49.57993,-53.37175,-57.44811,-61.61479,-65.19303,-70.02931,-73.30965,-77.40869,-81.82596,-85.54963,-89.78507,-93.33812,-97.21945,-101.5249,-105.5202,-108.8814,-112.9371,-115.7427,-119.6033,-122.99,-125.54,-127.7277,-130.4662,-132.1954,-133.1844,-135.0306,-135.3053,-136.0204,-136.0904,-135.2604,-134.9172,-133.7749,-132.5182,-130.3437,-128.4391,-125.9484,-123.0821,-119.9527,-116.2158,-112.6825,-108.5628,-104.0248,-98.87768,-94.20625,-89.2368,-83.63468,-78.58277,-72.40568,-66.34989,-61.00153,-55.44225,-49.08744,-43.28283,-38.09491,-32.57219,-27.62362,-22.75171,-17.69038,-13.05002,-8.245639,-5.226724,-1.326737,2.376535,11.20534,13.62342,18.06099,22.90244,25.79206,35.38957,39.3915,45.66879,51.58274,57.95154,64.23001,70.38544,77.32281,82.44759,89.70446,95.4515,101.469,105.821,110.6072,115.4562,117.9833,122.0738,125.6135,127.5996,129.7876,133.5594,137.9588,142.2497,145.7826,149.9582,156.8032,163.9661,171.8328,179.19,188.1258,198.0445,209.2006,220.724,231.6512,242.6523,255.5688,268.6708,281.2525,292.6367,303.7493,315.8623,327.6149,338.6817,347.7956,356.2974,364.9837,373.6848,380.4154,385.916,389.4995,393.7215,396.7145,398.7702,397.923,395.1136,392.6931,389.7044,384.7051,377.8082,369.3834,360.7338,351.9095,341.8393,329.3733,316.1207,303.2175,289.7724,275.1217,259.0325,241.3758,224.4987,207.1169,189.0038,169.2408,148.6834,129.0163,108.4876,88.82405,67.26626,45.15008,23.73749,3.314236,-17.12964,-38.58347,-59.98238,-80.69715,-99.72654,-118.6312,-137.6925,-156.1117,-173.9345,-189.9551,-204.8195,-219.6114,-234.3447,-247.5868,-258.1509,-268.2989,-277.5034,-286.646,-293.4966,-298.2324,-302.4786,-305.4487,-307.9731,-308.9802,-307.6415,-305.4641,-302.5755,-299.4626,-294.6168,-288.0381,-280.1767,-273.0272,-264.9737,-256.5402,-247.0975,-237.1884,-228.7058,-219.8589,-212.708,-204.6059,-196.9645,-190.3256,-185.3685,-181.1565,-174.4233,-170.3899,-166.3475,-162.2961,-157.8457,-153.1783,-149.0645,-145.5652,-141.0157,-135.6829,-131.0372,-125.873,-121.1905,-116.1352,-110.6123,-104.6434,-99.40585,-94.34827,-89.03678,-82.7995,-77.01524,-71.56064,-66.52431,-61.13507,-55.40014,-49.65711,-44.20402,-39.34809,-34.32822,-29.2568,-23.7497,-19.15,-14.531,-10.70346,-6.358583,-2.083173,1.556959,4.376581,6.950088,10.78903,13.9624,16.98045,19.7981,22.23723,25.60293,28.59323,31.93811,34.33636,36.64749,39.41272,41.92513,44.63362,46.09952,47.86747,49.86922,51.91645,53.77287,54.52498,55.37782,56.68988,57.86734,58.88405,58.64292,57.74473,59.93583,61.60482,60.94891,59.36595,58.7502,59.62057,60.90517,60.14981,57.94387,56.28992,56.8104,57.18201,56.01185,53.4652,51.48138,51.04981,51.75651,50.12448,46.97803,44.68597,44.42853,44.62498,42.58136,39.89378,37.18705,36.82784,37.06995,35.08204,32.22756,29.73159,29.32038,29.36272,28.1476,25.39355,22.86893,22.49275,23.00881,21.70953,19.41507,17.17609,16.64345,17.60815,16.57606,14.30413,12.0469,12.17557,12.59795,12.12254,10.29286,7.830682,8.090091,9.11273,9.018955,6.87941,5.230196,4.965405,6.275689,6.390762,4.502585,2.669051,3.076875,4.160406,4.296282,2.80814,1.090757,1.227778,2.257972,2.171265,0.8526675,-0.9785694,-1.376369,-0.2994844,0.04460334,-1.701979,-4.022389,-4.305756,-2.942562,-3.143559,-4.584193,-7.012218,-7.078028,-5.894118,-5.705998,-7.044363,-9.551198,-9.64082,-8.697286,-8.213297,-9.313859,-11.56236,-12.17777,-11.07543,-10.3455,-11.81734,-13.85354,-14.31009,-12.83481,-12.07216,-13.46549,-15.30558,-15.8427,-14.58714,-13.82211,-14.54091,-16.59348,-16.87721,-15.68914,-14.52824,-15.01314,-16.68219,-15.15425,-15.20552,-15.1191,-15.25804,-15.4936,-15.0519,-14.55064,-14.39589,-14.69999,-15.2001,-14.59543,-14.2573,-13.93562,-14.12431,-14.4998,-13.97421,-13.55356,-13.41035,-13.46104,-13.56369,-13.38138,-12.64212,-12.85796,-12.93309,-13.25926,-12.85474,-12.72858,-12.35451,-12.56208,-12.85482,-12.81655,-12.59723,-11.95243,-12.53926,-12.83451,-12.24839,-11.947,-11.71348,-11.82446,-12.18694,-12.08419,-11.41912,-11.18982,-11.39256,-11.7182,-11.53309,-11.3642,-10.77862,-11.08424,-11.31194,-10.85143,-10.49588,-10.02211,-10.18891,-10.46692,-10.33918,-9.852992,-9.536352,-9.607333,-9.436947,-9.509304,-8.900909,-8.456171,-8.539979,-8.779411,-8.607216,-8.429189,-7.602579,-7.986471,-7.897647,-8.172903,-7.651857,-6.994374,-7.017143,-7.574416,-7.239383,-6.885363,-6.253786,-6.082124,-6.339444,-6.162189,-5.626946,-5.298628,-5.18342,-5.587887,-5.530877,-4.974318,-4.575028,-4.539699,-4.88286,-4.508787,-4.102383,-3.543242,-3.475796,-3.485108,-3.39527,-2.929831,-2.516837,-2.276083,-2.665595,-2.548584,-2.468415,-2.006538,-2.114987,-2.817321,-2.796258,-2.716443,-2.080199,-2.057203,-2.061945,-1.714795,-0.7557451,0.9142341,1.767957,2.460224,3.603817,4.70177,6.469254,7.643418,8.301156,9.096572,10.52747,11.77114,13.13992,13.59176,13.91151,14.88268,15.90887,16.80862,16.60129,16.41178,16.99549,17.44078,17.3138,17.13883,16.33703,15.9878,16.30186,15.47769,14.52256,13.28966,12.73707,12.46489,11.31882,10.23061,8.871676,7.469453,6.665392,5.714489,4.131817,2.020001,1.027504,0.1406524,-1.357723,-2.982592,-5.030163,-5.914386,-6.916697,-7.830912,-9.512831,-11.35352,-12.34297,-13.08119,-13.796,-15.35591,-16.46395,-17.51226,-17.78382,-18.37085,-19.01145,-20.38644,-20.65285,-20.54778,-20.61537,-21.03774,-21.48676,-21.13429,-21.08516,-20.28936,-19.86034,-20.3191,-19.67836,-18.3362,-17.34378,-16.98777,-16.18826,-15.24297,-13.33553,-12.30974,-10.86915,-9.994034,-8.514305,-6.695514,-4.50957,-3.471297,-1.948681,-0.5074968,1.424568,3.683653,5.531954,6.276864,7.691455,9.708467,11.17633,12.79572,13.33931,14.07722,15.29057,16.45979,16.51973,16.75169,16.47364,16.95488,17.48623,17.61594,17.14602,17.14554,17.8627,18.40487,18.95684,18.7981,19.13727,19.76714,20.24094,20.96685,20.48081,20.58421,20.87016,21.93266,21.77134,21.59064,21.67962,21.53725,22.71277,22.3399,21.99854,21.82085,21.9467,22.51498,22.55178,21.83335,21.56637,21.52721,21.84887,21.95929,20.94284,20.40282,20.31543,20.6552,20.48628,19.55578,19.0434,19.02148,19.08119,18.84674,17.91525,17.13318,16.96876,16.97362,16.52915,15.67008,15.01293,14.38629,14.44294,14.21832,13.00554,12.46912,11.40899,11.89692,11.13834,10.10735,9.312853,8.13448,8.327202,7.550303,6.569949,5.365649,4.642922,4.435468,4.17969,2.824564,1.829421,1.228069,0.9757197,0.4646226,-0.6332336,-1.779965,-2.723952,-2.37238,-3.083648,-4.09611,-5.212512,-5.964376,-6.09144,-6.594097,-7.433194,-8.537299,-9.190141,-9.527407,-9.270404,-10.62286,-11.18404,-11.96403,-11.99192,-12.30914,-12.66073,-13.96423,-14.19273,-14.1652,-14.18418,-15.04411,-15.72254,-16.04517,-16.01038,-15.57749,-16.40412,-16.96974,-17.33175,-16.68569,-16.75082,-16.67337,-17.70642,-17.34192,-17.11888,-16.26363,-16.83906,-17.2493,-16.85184,-16.76867,-15.65155,-16.49094,-16.67446,-16.52418,-15.91608,-15.13219,-15.67881,-15.59638,-16.02606,-14.83254,-14.80911,-14.59208,-15.00305,-15.1361,-13.96127,-13.83288,-13.69397,-14.29379,-14.07293,-13.64632,-13.07004,-13.14332,-13.70511,-13.54424,-12.84727,-12.55239,-12.65968,-12.90817,-13.2263,-11.97136,-11.8276,-11.93745,-11.92961,-12.36902,-11.48076,-10.9817,-10.91147,-11.20009,-11.18169,-10.79859,-9.462397,-9.613266,-10.00151,-9.857469,-8.779994,-8.432729,-7.965653,-8.068557,-8.298283,-7.337923,-7.032362,-6.778819,-7.233096,-7.378917,-6.480975,-6.217992,-5.713846,-5.951125,-5.957716,-5.126662,-4.605234,-4.089587,-4.280472,-4.152683,-3.35366,-2.633442,-2.237444,-2.139131,-2.085575,-1.907924,-0.6035018,-0.4671119,-0.8545812,-0.6179971,-0.02650847,0.334704,1.219908,0.7999311,0.6704475,1.462906,2.126182,2.47531,2.524964,2.230603,2.845017,3.69285,4.036186,3.762529,3.584474,3.8931,4.776119,5.027219,5.050682,4.818705,5.244938,5.901739,6.563005,6.597218,6.298244,7.007636,7.447164,8.584395,8.278551,8.468985,8.758727,9.78808,10.27,10.51343,10.61771,10.5436,11.6908,12.1562,12.61271,12.53034,12.7391,13.3047,13.98947,14.21622,14.13358,14.2662,14.87298,15.59405,15.72623,15.45387,15.73368,16.20319,16.7122,16.88611,16.99533,16.70568,17.28106,18.09652,18.12415,17.84686,18.00279,18.01013,18.66232,18.73579,18.37504,18.43799,18.38681,18.7271,19.04132,18.16852,18.51753,17.90158,18.61904,18.69416,18.26175,17.88222,18.17461,18.28785,18.16754,18.16754,17.44428,17.53062,17.68557,16.9418,16.21587,15.44717,14.83839,14.68113,14.53232,13.76957,13.27044,12.93258,14.04728,13.82581,14.58985,14.58168,15.15865,16.54733,16.91482,17.57484,17.8765,18.3099,19.22824,20.11697,20.07793,19.82299,20.79552,20.75032,21.05103,21.02272,20.29693,20.20932,20.61264,19.71783,19.22832,18.31353,17.55669,16.96681,16.27983,14.93146,13.58569,11.91605,11.30098,9.569188,8.092178,5.999144,4.646861,3.120196,1.948628,-0.7499901,-2.241751,-4.134828,-5.088011,-6.864869,-9.020627,-10.77351,-12.68584,-13.57126,-15.35134,-17.24146,-19.14666,-20.73208,-21.52678,-23.02192,-24.53002,-26.17604,-27.22668,-28.07275,-29.35149,-30.46795,-31.88058,-32.60691,-32.81451,-33.48948,-34.38616,-35.20064,-35.46105,-35.33977,-35.12743,-35.51455,-35.71244,-35.44131,-34.96649,-33.97373,-34.14511,-33.7107,-32.79831,-31.71375,-30.31989,-30.26343,-28.79242,-28.16199,-26.13845,-24.76456,-23.44667,-22.65186,-21.10797,-19.50057,-17.73187,-16.56955,-15.7307,-14.5364,-12.46596,-11.06934,-10.10776,-9.529218,-8.465687,-7.127134,-6.301835,-5.70036,-5.868856,-5.616151,-5.378847,-4.954371,-4.965212,-5.442501,-5.495954,-4.811929,-4.61784,-4.693268,-4.592547,-4.552204,-3.249755,-3.123737,-2.201294,-2.590656,-2.517754,-1.594397,-1.034412,-0.3862844,-0.701411,0.03237913,0.5752889,1.644389,1.810818,2.037875,2.015391,2.608766,3.505971,3.984925,3.986382,3.91907,4.778541,5.274568,5.82198,5.735035,5.94765,6.251335,6.95831,7.438836,7.229154,6.874997,7.808528,7.737194,8.621141,8.035806,8.236347,8.369944,9.02968,9.062622,9.499123,9.154956,9.600788,9.631233,10.28058,10.07084,9.971761,10.14783,10.35978,10.74809,10.73044,10.34899,10.36333,10.64169,10.64161,10.49028,10.3163,9.881474,9.933079,10.08478,9.83373,9.457787,8.745164,8.705273,8.883824,8.501999,7.796436,7.63937,7.502598,7.404423,6.99193,6.491845,5.773051,5.938736,5.252041,5.811123,4.445315,4.347794,4.078436,3.835267,4.035835,2.889516,2.680351,2.145931,2.365073,1.989886,1.339201,0.6179074,0.3889036,0.456833,0.2245399,-0.2306349,-0.7340666,-0.8421634,-0.8657726,-1.064793,-1.604003,-2.034038,-2.451929,-2.148147,-2.270578,-3.165097,-2.766251,-3.339416,-3.022929,-3.126874,-3.701785,-3.882928,-4.467719,-3.901265,-4.331368,-5.121399,-5.139723,-5.846174,-5.421685,-5.54467,-6.292033,-6.048611,-6.425504,-5.996776,-6.358558,-6.572006,-7.129457,-7.04961,-7.217414,-7.14251,-8.016472,-7.681702,-8.022559,-7.482261,-7.850097,-8.403534,-8.441298,-8.818691,-8.459919,-8.602087,-8.630015,-9.35797,-8.941452,-8.707934,-8.844476,-9.089329,-9.197689,-9.146645,-9.008258,-8.799714,-9.386134,-9.558948,-9.778025,-9.101532,-9.120438,-9.629701,-9.504313,-9.510192,-8.894965,-8.92723,-9.20248,-9.565504,-8.882691,-8.586885,-8.296091,-8.618893,-8.741265,-8.202641,-8.054848,-7.447413,-7.876815,-8.198933,-7.797582,-7.236954,-6.981862,-7.243957,-7.656294,-7.001528,-6.551536,-6.445205,-6.304407,-6.815125,-6.121199,-6.026663,-5.219602,-5.55861,-6.001188,-5.179097,-4.95454,-4.056015,-4.400139,-4.16368,-4.205745,-3.138813,-3.111824,-2.914754,-2.89718,-2.861222,-1.685367,-1.461102,-1.603353,-1.36761,-0.857743,-0.1724603,0.3830388,0.3895183,0.2974073,1.049822,1.507961,2.335418,2.586317,2.385914,2.90269,3.870725,4.57046,5.084047,5.336824,5.671498,6.905505,7.392872,7.750465,8.196973,8.214441,9.640123,9.99519,10.57897,11.46709,11.12005,12.74941,13.19268,13.73397,14.17039,14.17486,14.8183,15.79401,16.17727,16.18138,16.40814,16.82263,18.11028,18.17933,18.59425,18.55251,19.27482,19.65106,19.91044,20.10071,20.35613,20.73441,21.32292,20.98703,21.21674,20.56648,20.56069,20.68503,20.7934,20.68776,20.417,20.36589,21.3311,21.79497,22.55679,22.88051,23.83949,24.62375,25.59124,26.45253,26.70383,27.40858,28.13069,28.87294,29.68985,29.97076,29.85842,30.65651,30.85744,30.78663,30.9354,30.1393,30.90437,30.30046,30.11636,29.18092,28.50409,28.13694,27.44224,26.35264,25.17203,24.07077,23.13266,22.47075,20.68573,19.78144,18.07772,17.43852,15.82238,14.39727,12.88553,11.01783,10.25261,8.427998,6.872555,4.916373,3.450879,1.865638,0.6657195,-0.8678281,-2.908898,-4.159901,-5.734699,-6.85505,-8.302224,-10.38204,-11.67166,-13.13361,-13.69677,-15.53333,-16.76529,-18.32727,-18.74354,-19.87501,-21.20422,-21.82818,-22.91978,-23.17542,-23.65135,-24.35739,-24.8222,-25.60089,-25.51047,-25.44934,-25.36067,-25.91172,-25.33796,-25.41805,-24.47129,-24.16806,-24.28948,-23.62578,-23.21215,-21.85825,-21.33483,-20.97169,-20.33238,-19.2114,-18.22857,-17.49045,-16.92868,-16.06984,-15.03772,-14.21961,-13.4482,-13.41739,-13.00575,-12.47479,-12.03753,-12.03699,-12.12654,-13.11313,-13.2188,-13.84753,-13.55486,-15.14256,-15.23196,-15.66982,-15.23528,-15.71784,-16.24199,-16.42268,-15.93714,-15.18901,-15.64309,-15.91414,-16.06014,-15.64607,-15.45957,-15.39815,-15.62988,-15.87112,-15.77731,-15.20266,-15.03419,-15.75052,-15.68214,-15.392,-15.18848,-14.97153,-15.28944,-15.64742,-15.44651,-15.17711,-15.3105,-15.35773,-15.55502,-15.58337,-15.36236,-15.19743,-15.23724,-15.69302,-15.24948,-14.95515,-14.94199,-14.79381,-15.32647,-15.32162,-15.0128,-14.77901,-14.9583,-15.31098,-14.92201,-15.09964,-14.38696,-14.73826,-14.93405,-14.77391,-14.84765,-14.11435,-14.73403,-14.93683,-14.9563,-14.84613,-14.64709,-15.07934,-15.22867,-15.58142,-14.84317,-15.3024,-15.03633,-15.55716,-15.47854,-15.61582,-15.50306,-15.74579,-16.30036,-16.67188,-16.57267,-16.41618,-16.66863,-17.07775,-17.3415,-17.50358,-16.93175,-17.47595,-17.68397,-18.1172,-17.77411,-17.62447,-17.52581,-17.92861,-17.93208,-17.48822,-17.46559,-17.28403,-17.33706,-17.09338,-16.64857,-16.45471,-16.14141,-15.7367,-16.0139,-15.02032,-15.01463,-14.32384,-14.30395,-13.98287,-13.85493,-12.97294,-12.5886,-12.44374,-11.97878,-11.32243,-10.66341,-10.11744,-9.428831,-9.451078,-8.124956,-7.869279,-6.548554,-6.219895,-5.210278,-4.632915,-3.725295,-2.635538,-2.007487,-1.399246,-0.7316424,0.4361415,1.32942,2.020082,2.055959,3.551951,4.061901,5.020819,5.869977,6.25171,7.026708,8.137819,8.893293,9.418018,10.10657,10.92508,11.57744,12.61907,12.69785,13.26647,13.69962,14.60569,15.29478,15.48869,16.08078,16.32736,17.12244,17.64384,17.90558,18.19006,18.82186,19.39074,19.77023,20.16154,20.59723,20.67306,21.42087,21.85786,22.09782,22.47185,22.37053,23.25261,23.28578,23.52311,23.82331,23.76052,24.34573,24.68489,24.95139,25.26637,25.5346,25.88321,26.06456,26.81033,26.42145,26.54615,27.03549,27.61237,28.11275,28.17887,28.80113,29.23383,29.70052,30.19864,29.96442,30.49511,31.11121,31.28793,32.21781,32.35959,32.79875,33.33015,33.68247,34.21116,34.48033,34.77843,35.32819,36.04828,36.78799,36.97627,37.0762,37.84687,38.34894,39.23651,38.84537,39.45566,39.51716,40.50446,40.31932,40.94242,40.63737,41.54819,41.65176,42.28922,42.12934,41.50004,41.00738,41.73692,41.28497,41.10061,41.4283,40.90258,42.14694,42.32429,43.56391,43.48341,44.74824,45.39966,46.85602,47.87951,48.47224,49.37139,50.48141,51.4037,52.33848,53.24583,53.72809,54.76942,55.60371,56.25383,56.5683,57.05565,57.75721,58.15313,58.50436,57.95253,58.20957,58.18515,58.18275,57.82519,57.1499,56.91173,56.19164,55.99818,55.23079,54.14248,53.13363,52.68047,51.32948,50.41927,49.15812,47.66854,46.77104,45.72673,43.99169,42.30335,40.75492,39.56834,38.04869,36.08314,33.99385,32.23082,30.2983,28.7205,26.88651,24.39671,22.5305,20.79307,19.14967,17.10131,14.88888,12.9041,11.16516,9.535615,7.207282,5.523806,3.501693,2.166194,0.4505143,-1.347949,-3.365017,-5.014869,-6.553633,-7.692373,-9.435635,-10.75923,-12.19203,-13.64275,-14.44983,-15.97328,-17.41468,-19.01619,-19.71668,-20.72671,-21.66994,-23.00331,-23.9526,-24.58535,-25.32802,-26.21987,-27.47921,-28.09018,-29.05693,-29.69902,-30.76503,-31.69835,-32.96806,-33.79565,-35.15695,-36.17796,-38.23071,-39.66073,-41.69503,-43.57842,-45.85368,-48.85088,-50.78525,-52.5827,-54.85883,-56.41044,-58.57161,-60.72192,-62.26613,-63.44881,-65.04115,-66.96249,-67.94198,-70.16452,-70.30464,-72.12064,-73.5827,-75.28331,-76.49941,-77.6379,-78.94654,-80.79564,-82.11679,-84.26762,-84.5505,-86.83426,-88.14659,-90.12569,-92.20483,-93.85466,-95.53973,-97.78716,-99.84105,-102.1096,-104.4521,-106.4515,-108.6434,-111.6838,-114.629,-116.778,-119.8621,-122.8661,-126.0797,-129.3646,-132.7336,-135.1461,-138.6213,-141.963,-145.3681,-148.6744,-152.0572,-155.1494,-158.6236,-162.2196,-165.6296,-168.6749,-171.7663,-175.0961,-177.9115,-180.2083,-182.48,-184.6029,-186.2414,-187.7595,-188.5941,-189.4845,-189.3147,-189.4799,-189.6482,-188.6343,-186.8919,-185.5926,-183.2011,-180.9396,-178.2764,-174.0902,-170.3705,-165.7781,-161.5215,-156.1174,-150.3762,-144.1991,-137.9228,-131.4,-124.2026,-116.054,-108.6408,-100.4435,-92.27724,-83.92943,-74.59596,-65.20316,-56.30213,-46.94389,-37.75221,-27.3796,-18.05102,-7.828321,1.810939,12.23414,22.78277,33.23658,44.15007,53.85644,64.47704,75.38439,85.62265,95.88473,105.1211,114.977,124.5129,133.6965,142.6028,150.0917,157.6106,165.417,172.065,178.2488,183.5991,188.7934,193.893,198.3037,201.7433,204.2435,207.8005,209.1719,211.5747,212.149,212.5336,212.7464,212.1581,212.2081,210.38,208.4705,206.9552,204.0865,202.3703,198.6312,195.1741,192.066,188.4409,184.5201,180.4847,175.6572,171.0384,166.9411,162.2341,156.6973,151.5012,146.5173,141.4863,136.6705,131.8615,126.1445,121.5537,116.8806,112.1781,107.3551,101.9164,97.07803,92.78759,88.53621,84.074,79.10476,74.97652,70.79468,67.37345,63.64259,59.77904,56.12632,53.18704,50.73263,47.86105,45.10999,42.39416,40.45196,38.93614,36.89045,35.00467,33.95915,32.5374,31.86322,31.24146,29.89276,29.27717,29.05754,28.70096,28.49647,27.80671,27.70556,27.57063,27.8174,27.56474,27.36683,26.25957,26.52879,25.64646,25.34223,23.99906,22.75716,21.80185,20.77679,19.1429,17.86306,15.7939,14.55155,13.17556,12.12396,10.78212,9.201057,8.216715,7.871205,7.2227,5.59728,5.176066,3.81835,3.285418,2.381819,1.435126,0.1311406,-0.7540524,-1.270584,-2.139337,-3.505662,-4.113675,-4.462139,-4.548946,-4.876583,-5.168161,-5.866236,-5.420206,-5.592068,-5.18386,-5.585657,-6.028576,-6.304975,-5.511207,-5.896685,-6.42286,-6.817859,-7.659381,-7.040153,-8.336962,-8.167125,-9.821514,-10.4531,-11.26717,-12.13738,-13.03559,-14.5846,-16.22033,-16.74109,-18.20778,-19.62534,-21.54221,-23.48141,-24.85103,-26.46648,-27.98738,-30.16243,-31.95732,-33.26123,-34.76282,-36.78347,-38.46191,-40.68412,-41.74665,-43.28683,-44.82166,-46.29952,-48.04546,-48.83123,-49.80344,-51.0307,-52.79204,-53.50747,-54.07018,-54.62533,-55.43605,-56.1465,-56.75741,-56.8019,-57.09236,-57.00974,-57.71988,-57.46503,-57.40488,-56.2257,-55.89826,-55.76938,-55.40966,-54.55739,-53.00708,-52.44522,-51.72257,-50.43955,-49.25465,-47.1786,-46.21907,-44.4822,-43.73213,-41.50378,-39.58894,-37.8516,-36.68691,-34.81215,-33.50145,-30.68905,-29.45085,-27.8375,-26.53415,-24.49746,-22.31177,-20.58095,-19.47118,-18.03345,-16.3294,-14.62139,-12.82885,-12.34667,-11.174,-10.21022,-9.229566,-8.716038,-8.679271,-8.848028,-8.320269,-8.004594,-7.721458,-8.092949,-8.60628,-8.021014,-7.831124,-7.227992,-7.455879,-7.678078,-7.114428,-6.847475,-6.147518,-6.684501,-6.529102,-6.518899,-5.965796,-5.79587,-5.789931,-5.963383,-5.862414,-5.626922,-5.324314,-5.343688,-6.070283,-5.40233,-5.533435,-4.598961,-5.563124,-5.257434,-5.647272,-4.558461,-4.371253,-4.559667,-4.85059,-4.696189,-4.525778,-3.770551,-4.478338,-4.537205,-4.785868,-4.290985,-4.046083,-4.456475,-4.756785,-4.811387,-4.671325,-4.157639,-4.629699,-5.309261,-5.105963,-5.042126,-4.339481,-4.715522,-5.186685,-4.688451,-4.680375,-3.968215,-4.51455,-4.030416,-4.641893,-3.556225,-3.436864,-2.924428,-3.806878,-3.322824,-3.191933,-2.278556,-2.468549,-2.494221,-2.474129,-1.546559,-1.276837,-0.9678209,-1.300172,-1.030049,-0.2060399,0.04819594,0.4372109,0.01252282,0.2196387,0.7523501,1.001154,1.861942,0.6339948,1.696387,1.542544,2.40202,2.40348,1.964778,2.042059,2.873549,2.703211,3.199962,2.227313,2.689974,2.932818,3.317224,3.570894,2.86072,2.763613,3.246089,3.408371,3.403482,2.843973,2.458962,2.894591,3.165992,3.142617,2.775994,2.028595,2.487827,2.488902,2.542815,1.458116,1.843465,1.36708,2.084342,1.557172,1.126865,0.7393379,0.8991955,1.340096,1.122995,0.3170806,0.1046213,0.2774331,0.6467594,0.5031051,0.1737349,-0.4194264,-0.1043562,0.356851,0.5471759,0.4540061,0.2966203,0.3914391,1.383414,1.493671,1.337952,1.311919,1.98491,2.366746,2.723447,2.81769,2.400555,3.35425,3.536608,4.073398,4.086954,3.451954,4.435346,4.751071,5.391256,5.107942,4.948925,5.568785,5.822714,6.270679,6.15351,6.077541,6.422203,6.920816,7.499224,7.097959,6.802389,7.298408,7.670824,8.306982,8.100171,7.765009,8.608613,8.133264,9.615026,8.628731,9.047328,8.727723,9.76048,10.00327,9.975914,9.493296,9.667549,10.00824,10.43502,10.11062,9.892682,9.771113,10.16293,10.59642,10.63638,10.43867,10.14675,11.04321,11.26109,10.87505,11.17251,10.61255,11.53991,11.54307,11.83166,11.52233,11.61162,11.95201,12.42335,12.44718,12.47934,12.49484,12.6432,13.39509,13.31289,13.14989,13.17427,13.14308,14.2087,13.61924,13.48773,13.26924,12.76162,13.44118,13.13157,12.76338,12.89562,12.40814,13.68054,13.83578,14.6772,14.11494,15.30027,16.03285,16.68433,17.34073,17.57185,17.97631,18.65182,19.4916,19.74117,19.5248,19.93294,20.32598,20.78748,20.10408,20.17834,20.22746,20.54959,20.17848,19.57777,18.74443,18.84433,18.28316,18.01647,16.92784,15.80837,15.00003,14.50994,13.92777,11.9972,11.21996,9.435934,9.293976,7.614737,6.27394,4.489335,2.874628,2.243739,0.571155,-0.8977884,-2.727071,-4.617961,-5.280778,-6.93266,-8.50544,-10.49136,-11.93074,-12.82361,-14.62954,-16.01279,-17.57612,-19.56963,-19.55361,-21.53683,-22.27552,-23.66495,-25.47004,-24.89764,-26.30238,-27.15849,-27.96271,-28.86482,-29.02132,-29.44445,-29.94172,-30.56094,-31.12915,-30.53537,-30.47995,-30.53352,-30.62594,-30.43458,-29.78288,-29.05361,-28.79206,-28.25576,-28.13562,-27.16703,-26.04139,-25.43533,-24.72019,-24.15038,-22.67244,-21.20925,-20.46165,-19.79987,-19.07349,-17.68276,-15.97573,-15.68026,-14.63174,-14.17389,-12.5678,-11.53059,-11.18024,-10.33905,-10.70115,-9.324491,-9.550098,-8.934495,-8.875826,-9.343652,-8.107541,-7.735827,-7.242977,-7.235611,-6.931278,-5.519366,-4.496397,-4.309537,-4.451095,-3.660383,-3.132656,-2.133756,-1.691572,-1.891162,-1.606056,-0.877137,0.1724786,-0.1521976,0.2094968,-0.09236409,0.797352,1.38595,1.823878,1.703142,1.949144,1.990092,3.260224,3.321582,3.076013,3.681492,3.434507,4.788982,4.236644,4.661881,4.624948,4.818015,5.347579,5.692928,5.438614,5.378384,5.804889,5.984276,6.879931,6.476624,6.566992,7.064095,7.696154,7.500878,7.781844,7.430817,8.013886,8.363793,8.71194,8.217637,8.141874,8.188257,8.224457,8.831422,8.450871,7.951068,8.612044,8.015593,8.942887,8.324106,7.828315,8.174246,8.316773,8.324132,8.541222,7.447305,8.056995,7.83025,8.085268,7.459082,6.990589,6.971163,6.919265,6.809009,6.576023,5.666302,5.684126,5.718932,5.534129,4.946931,3.814036,4.049902,3.446355,3.784291,3.235267,2.374731,2.083954,1.962616,1.892345,1.210063,0.9824721,0.4405198,0.5537211,0.288465,0.6811309,-0.005899872,-0.1439243,-0.07104555,0.04027884,0.1915092,-0.6026279,-0.3103856,-0.6945972,0.3507573,-0.05147869,-0.2399909,-0.7196961,0.02033661,0.06063251,0.375772,0.1108011,-0.0432115,-0.09054408,0.08662671,0.6309435,-0.06509586,0.189151,-0.07635507,0.4432216,0.7049988,0.145446,-0.364003,0.2916942,0.1956036,0.7572859,-0.07222056,0.01476008,-0.3919758,0.4575018,0.01543423,-0.009296317,-0.4826426,-0.5120717,-0.6050452,-0.3631405,-0.7694206,-1.547427,-1.403049,-1.789874,-1.248399,-1.935243,-2.402864,-2.551055,-2.08624,-2.543518,-2.293841,-3.350681,-3.026284,-2.71324,-2.736188,-3.116317,-3.76413,-3.699905,-3.968887,-3.369227,-4.124226,-4.478048,-4.740549,-4.5765,-4.511163,-4.733456,-4.961329,-5.502538,-4.56732,-4.840745,-5.295808,-5.393596,-5.61822,-4.991185,-4.825795,-4.984308,-5.260082,-4.896139,-4.733647,-3.946092,-4.685222,-4.397697,-4.476323,-3.988169,-3.726827,-3.690426,-4.016064,-4.120857,-3.521084,-3.052538,-3.511135,-3.625285,-3.576446,-3.514795,-2.962631,-3.551238,-3.561073,-4.000977,-3.115019,-3.290434,-3.176681,-3.83485,-3.169593,-3.1281,-2.52019,-2.866697,-3.152656,-3.299037,-2.986795,-2.619872,-2.92103,-3.291862,-3.584104,-3.315559,-2.661646,-2.458395,-2.367646,-1.6627,-0.4174948,0.8198662,1.973949,2.18124,3.93599,4.850613,6.859846,7.661849,8.307625,9.337756,10.79028,12.26183,12.71713,13.48987,13.79445,15.19463,16.34288,16.48258,16.57723,17.18203,17.52935,18.48001,17.7898,17.66715,17.48812,18.00933,17.7659,17.28325,16.44641,15.18685,15.78413,14.92149,14.28722,12.71038,11.71838,11.42712,10.67115,9.628998,8.119836,6.753403,5.960959,5.539896,3.747503,2.302592,0.70731,0.2565072,-0.9129551,-2.278531,-4.176689,-5.217117,-6.451219,-7.070896,-8.194538,-9.889134,-10.9236,-11.89984,-12.01044,-12.96376,-14.32179,-15.40097,-15.53555,-15.90796,-16.80225,-17.13017,-17.98978,-18.12796,-17.58563,-18.02253,-17.98086,-18.48401,-17.82847,-16.69546,-16.71225,-15.9918,-15.92356,-15.04779,-13.83851,-13.04231,-12.58535,-12.11241,-10.64794,-9.171059,-8.179713,-7.124955,-6.540731,-5.386506,-3.710386,-2.633225,-1.652465,-1.056277,0.07040665,1.422758,2.319252,2.848402,3.109738,3.412545,4.229927,4.300767,4.242516,3.318455,3.694857,3.886559,4.053459,3.331182,2.729931,3.223867,3.624677,4.435357,3.987813,4.264674,4.033682,5.320119,5.449579,5.277615,5.374297,5.129158,5.864576,6.397103,5.886531,5.786244,5.359241,6.22219,6.222263,6.219646,5.513789,5.795526,6.198239,6.064288,5.935105,5.458832,5.427093,5.590499,5.40483,5.411962,4.497077,4.310885,4.349585,4.434519,4.072084,3.330668,3.232097,2.948161,3.185227,2.673723,1.795556,2.001091,1.322946,2.251426,1.248432,1.294831,0.3347098,0.9411545,0.4992059,0.7762411,-0.01942694,0.01005416,-0.3044033,0.3959828,-0.1249116,-0.5221142,-1.172905,-0.4249871,-0.6564189,-0.3698475,-1.202403,-1.247012,-1.132166,-0.9475348,-1.083343,-1.400442,-1.898254,-1.883149,-1.916805,-1.171677,-2.440826,-2.112394,-2.354199,-1.876521,-1.519738,-2.345587,-1.933962,-1.93418,-1.803337,-1.391408,-2.04964,-1.983091,-1.75042,-1.762198,-0.8604587,-1.766828,-1.472828,-1.604489,-1.197522,-0.6603569,-1.68625,-1.390166,-1.541369,-1.334645,-1.043436,-1.323478,-1.801836,-1.760202,-1.642395,-1.119074,-1.639394,-2.153344,-1.904699,-2.23591,-1.55602,-2.304249,-2.151171,-2.537771,-1.919053,-1.903887,-1.897001,-2.339316,-2.504752,-2.011204,-1.731933,-1.942792,-2.547651,-1.976695,-2.163371,-1.456775,-1.902705,-2.535741,-1.934252,-1.596894,-1.332837,-1.51174,-1.633381,-1.494162,-1.101273,-0.5833237,-0.9062235,-1.109144,-1.097962,-0.616735,-0.3924474,-0.2538761,-0.5339814,-0.6741379,-0.534516,0.1310754,-0.2166176,-0.3187003,-0.5976677,-0.1490623,-0.1175324,0.1720941,-0.5053965,-0.5774648,-0.2595894,-0.08792186,-0.03770824,-0.1739172,-0.6163893,0.06374687,-0.08741374,0.4813978,-0.5246072,-0.2656672,0.06406996,0.1902837,0.6383842,-0.3261245,0.02922966,0.008243093,0.2756193,0.309644,-0.03096049,0.06240701,-0.1392531,0.8030454,0.4337752,0.1119919,-0.1239272,0.5607717,0.9056468,0.9601949,0.5692175,0.662988,1.115014,1.785043,1.593921,1.550151,1.201749,2.021346,2.071064,2.621612,1.903632,2.218114,2.341194,2.852533,3.172534,2.788173,2.828247,2.623394,3.807958,3.232605,3.485697,2.967444,2.874382,3.338102,2.563741,2.826931,1.702502,1.773538,2.32581,2.444312,2.342626,2.643439,2.938821,4.205583,4.721605,4.804607,5.466808,5.560367,7.496942,7.732247,8.419097,8.619151,9.360893,10.12529,10.82553,10.46108,10.26379,11.06812,11.09547,11.16974,10.80413,9.775435,9.816193,9.972859,9.50583,8.898651,8.027851,7.3809,7.438653,6.086311,5.539891,3.757782,3.374885,2.71955,1.876247,0.5205566,-0.4368645,-1.957476,-2.140308,-3.274521,-4.713103,-6.339788,-7.55607,-7.850313,-9.496629,-10.52943,-12.22633,-12.73587,-13.90431,-14.06941,-15.95362,-16.87598,-18.03774,-18.53402,-18.68194,-20.35573,-20.69254,-22.05566,-21.88702,-21.99766,-22.96384,-23.6015,-23.79028,-23.73442,-23.36537,-24.13876,-23.75528,-24.21812,-23.0553,-22.81451,-22.1623,-21.8282,-21.44512,-19.96759,-18.86306,-18.4026,-17.0616,-16.17236,-14.42773,-13.17365,-11.40441,-10.61804,-9.264466,-7.504772,-5.531801,-4.413392,-2.968688,-1.641727,0.2344122,2.574514,3.182559,4.90956,5.721902,7.461072,9.337534,9.88123,11.02926,11.23778,12.69698,13.46644,13.59407,13.17615,13.191,13.69933,14.24424,13.9085,13.7866,13.83881,14.31968,15.24078,15.47592,15.16255,15.10935,15.88865,16.55747,16.44768,16.28838,16.25198,16.90963,17.29889,17.31844,17.0581,16.6743,16.7999,17.35285,16.82216,16.48166,16.43826,15.5542,16.20524,15.68902,15.21368,14.75174,14.64841,14.51853,14.60252,13.71966,13.21018,13.02027,12.55664,13.28169,12.37812,11.76798,11.85202,11.39337,11.75517,10.63364,10.06206,10.06434,9.486727,9.794381,8.574049,8.220958,7.843796,7.527104,7.743787,6.958351,6.177442,5.897672,5.581225,5.421223,4.743136,3.753377,3.595689,3.545142,2.812224,2.5676,1.176875,1.199026,0.8851929,0.4960193,-0.01626925,-1.120806,-1.592978,-1.802031,-1.905372,-2.646442,-3.686497,-3.671199,-4.444688,-3.964331,-5.032696,-5.922137,-6.081305,-6.409187,-6.647509,-6.821049,-8.065488,-7.83234,-8.286895,-7.97716,-8.771651,-9.223507,-9.715601,-9.369522,-9.470916,-9.79396,-10.306,-10.26077,-10.69379,-10.30858,-10.24163,-10.78997,-10.82298,-10.60059,-10.29262,-10.26435,-10.98626,-10.71394,-10.78085,-10.09445,-10.22271,-10.10524,-10.51849,-9.489281,-9.557849,-8.772336,-9.376314,-8.88638,-8.339102,-7.670842,-7.334736,-7.637695,-7.077372,-6.797189,-6.357296,-5.899055,-6.157273,-5.887341,-5.68251,-4.978492,-4.632499,-4.955805,-4.825886,-4.541884,-4.136102,-3.678318,-4.314769,-4.10415,-3.976944,-2.99673,-3.282364,-3.304603,-3.385828,-3.08361,-2.45225,-2.307767,-2.567961,-2.216562,-2.159692,-0.9358763,-1.17202,-1.566697,-1.063597,-1.559894,-0.3097866,-1.06809,-0.2565794,-1.324122,-0.4718678,-0.496022,0.1857477,-0.001841328,-0.3199313,-0.03840373,0.4208121,0.8080941,0.4712326,0.331709,0.3393657,1.216358,1.157593,1.318475,0.8422854,1.249456,1.517195,2.039395,1.573846,1.789354,1.701887,2.410989,2.595228,2.153175,2.327226,2.1678,3.039475,2.660063,2.915204,2.733275,2.308052,3.416618,3.052159,3.277073,2.705631,2.903523,3.183652,3.596222,3.389737,3.519054,2.924715,3.543612,3.437251,3.391468,2.914941,2.933973,3.087075,3.225874,2.909377,2.603287,2.196166,2.909895,2.878618,2.563272,1.976255,2.11621,1.740274,2.370843,1.641545,1.567141,1.270136,1.712714,1.903237,1.715901,1.385302,0.9361631,0.8069522,1.056151,0.6629154,0.6391727,-0.05996685,0.5490682,0.8099641,0.9280435,1.99471,1.635405,2.531128,3.736269,4.516884,4.96944,5.259859,6.099641,7.275086,7.481989,7.818923,8.151132,8.675176,9.645628,9.610432,9.78351,9.469496,10.28962,9.896939,10.38946,9.564855,9.428675,9.349928,9.517296,9.076819,8.658241,7.478918,7.47594,6.688873,6.176511,5.527528,3.816629,3.539112,2.838504,2.005752,0.6578892,-0.3242842,-1.72792,-1.66723,-3.750894,-4.618641,-6.239268,-7.284218,-7.662161,-9.375417,-10.43652,-11.87285,-12.94803,-13.18431,-14.68007,-15.9713,-17.18632,-17.86274,-18.51068,-19.23515,-20.14418,-20.971,-21.8477,-21.50464,-22.55764,-22.10043,-23.55694,-22.71534,-23.22171,-22.54411,-22.70246,-23.22742,-22.25955,-22.44729,-21.13264,-21.38872,-20.34312,-20.35547,-18.46218,-18.17035,-16.89587,-16.55349,-15.27592,-14.12243,-12.04784,-11.38779,-10.38996,-8.755736,-7.441898,-5.815735,-4.453365,-3.171325,-2.058672,-0.04078353,1.057598,2.30084,3.516027,4.325263,6.000009,7.123843,7.829647,8.84334,9.155328,10.29836,10.61752,11.12668,10.56322,11.28502,11.78207,12.24221,12.7734,12.44383,13.25213,13.94971,14.70235,15.37135,14.90571,15.49403,16.64803,16.73627,16.7675,16.55112,16.42956,17.34225,17.18275,17.42815,16.9514,16.68639,17.18105,16.89795,17.06948,16.44442,16.25269,16.03506,16.56362,15.79576,15.51909,15.39246,14.8904,15.51216,14.33467,14.76628,13.57696,13.8899,13.93534,13.80276,12.86435,13.01023,12.6515,12.8782,12.7119,11.88129,11.45431,11.47372,11.21418,11.24097,10.52286,9.99424,9.785431,9.085511,9.453027,8.190771,7.83967,7.548841,6.713205,6.663506,5.88054,5.247583,4.849285,4.620526,4.294254,3.803372,2.324044,2.860254,1.57571,1.993017,0.3691377,0.1043719,-1.036738,-1.077268,-1.757609,-2.794235,-3.537035,-4.22186,-4.536573,-5.200084,-5.900897,-7.116307,-7.100604,-8.455989,-7.869768,-9.400554,-9.890586,-10.65592,-10.53288,-11.47316,-11.96847,-12.62323,-13.24995,-13.15893,-13.62104,-13.91534,-14.92931,-14.84669,-15.35979,-14.96038,-15.58298,-16.05456,-16.31583,-15.56862,-16.16262,-15.51065,-16.44044,-15.93375,-15.68074,-15.29099,-15.15976,-15.14767,-14.91519,-14.10262,-13.59282,-13.35261,-13.51319,-12.82577,-12.39709,-11.32044,-11.19753,-11.12539,-10.47942,-10.38199,-9.072849,-9.036466,-8.599197,-8.031242,-7.575847,-6.758642,-6.477234,-5.865248,-5.509866,-4.629288,-3.97294,-3.793228,-2.934793,-3.033819,-2.238897,-1.960359,-1.07282,-1.482195,-1.461761,-0.658303,-0.7555268,0.3572669,-1.004217,0.3535494,-0.09146779,0.3428176,0.7128503,0.4132526,0.5640239,0.6808029,0.9683153,1.115595,0.8411902,1.152931,1.322102,1.432622,1.839987,1.225131,1.437021,1.475656,2.095264,2.008375,2.151206,1.895903,2.03013,2.689174,2.756305,2.64619,2.599537,2.869933,2.916804,3.306878,2.68153,2.930705,2.763778,3.277716,3.037111,3.164678,2.566487,3.115912,3.071374,3.540132,3.258092,3.120283,3.306567,3.709921,4.204336,4.21242,3.936495,4.540508,4.822049,5.107842,4.991898,4.910043,5.404213,5.464188,6.109852,5.850423,5.908946,6.058195,6.024289,6.631652,6.348251,6.247067,6.130059,6.604728,6.700225,6.81534,6.388813,7.031574,6.724245,7.553248,7.040261,7.371362,7.132115,7.80166,7.755974,7.729326,7.891815,7.402927,7.830359,7.870265,7.85355,7.712275,7.615352,7.613919,6.948834,7.224691,6.833484,6.053497,6.340464,5.930047,6.171037,6.102535,6.249216,6.518625,7.122154,8.174174,8.160777,8.861233,9.069416,10.2446,10.73418,10.80573,11.08691,11.54588,12.29901,12.12997,12.65058,12.63624,13.01657,13.16477,12.85323,13.19032,12.09853,12.76563,12.5861,12.49188,11.66863,11.33326,10.9441,10.76812,9.803617,9.47903,7.969041,7.638312,6.805029,6.055948,4.863666,3.679735,2.898529,2.311714,1.066288,-0.2660966,-1.222069,-2.424908,-3.159894,-4.409042,-5.550158,-6.893457,-8.069462,-8.78974,-10.15743,-10.99492,-12.61421,-13.19582,-14.25065,-14.41721,-15.74812,-16.47762,-17.04534,-17.423,-17.80474,-18.71516,-18.53762,-19.58953,-18.52476,-19.59332,-19.2757,-19.59306,-20.07463,-19.15429,-19.26318,-19.00574,-18.86251,-19.06154,-17.81468,-17.83473,-17.03628,-17.07879,-16.39436,-15.27515,-14.63535,-14.23293,-12.9068,-12.65178,-11.0195,-10.35396,-9.329577,-8.431964,-7.723584,-6.47232,-5.370623,-4.413021,-4.068299,-2.766382,-2.390864,-0.9068488,-0.3625561,-0.1408663,0.9896195,1.331082,2.001181,2.088651,2.076283,1.967841,2.058811,2.979864,2.185781,2.150156,2.682181,2.536451,3.541746,3.290169,3.302294,3.255991,3.948068,4.38397,4.044528,3.939172,3.657124,4.508967,4.413534,4.328615,4.220431,4.196563,4.673315,4.58508,4.850744,4.490115,4.483961,4.570696,4.692477,5.277841,4.341458,5.088464,4.727387,4.8285,4.953534,4.722344,4.435243,4.315497,4.271591,4.544813,3.465361,4.078489,3.449831,3.445129,3.713779,3.176281,2.977607,2.76409,2.772394,2.62693,2.166833,1.660797,1.338592,1.195026,1.358528,0.3634148,0.1211935,-0.08615411,-0.3388428,-0.06572445,-1.090165,-0.8327639,-1.495103,-1.202062,-1.676698,-2.361103,-2.251327,-3.148443,-3.024584,-3.276253,-3.241949,-4.335881,-3.781337,-4.714791,-4.209314,-5.072812,-5.417707,-5.398363,-5.751086,-5.553774,-6.221769,-6.229863,-6.305967,-6.413845,-6.107294,-6.623823,-6.499788,-6.94232,-6.67654,-6.611176,-6.614032,-7.265611,-6.904738,-7.287478,-6.457384,-6.959977,-6.655519,-7.205523,-6.257111,-6.841958,-6.194784,-6.68931,-6.227003,-5.855663,-5.941284,-5.099542,-5.609817,-4.947925,-4.842114,-4.222494,-3.659673,-3.809276,-3.222457,-3.287631,-2.213411,-2.042864,-1.658542,-1.645439,-0.8089867,-0.4073146,-0.1085185,0.5497728,0.5556757,1.118337,1.506596,2.028151,2.055348,2.578986,2.493169,3.156794,3.435434,3.747177,4.105507,3.9067,4.613931,4.909591,4.959935,5.334463,4.993958,6.123809,5.63143,6.374822,5.510546,6.178717,6.30278,6.005902,6.295857,5.664048,6.032922,5.79022,5.816467,6.284589,5.175506,5.550976,5.598348,5.02372,5.250745,4.915488,4.676554,4.734584,4.489244,4.476759,4.000733,4.104075,3.92815,3.809709,3.613192,3.690227,3.275631,3.766514,3.050541,3.487951,2.933915,2.710673,2.759289,2.485302,2.532131,1.622395,1.944347,2.160246,1.867275,1.300535,1.698054,1.056831,1.511212,1.470375,1.426839,1.460663,1.329102,1.473995,1.498538,1.692775,1.125393,1.43377,1.212762,1.36084,1.502573,1.129498,1.57958,1.418932,1.744608,2.1601,1.983854,2.224301,2.512812,2.549501,2.831126,2.526926,2.82546,2.774202,3.297399,3.268256,3.57473,2.767373,3.289063,3.229934,2.930188,3.395012,2.827384,2.90612,3.370238,3.310058,4.391441,3.972169,5.361146,5.388067,6.645114,7.061819,7.552386,8.212567,8.577397,9.68947,9.41153,10.04383,10.2346,11.08582,10.8982,11.37905,10.98555,11.41433,11.50681,11.72953,10.88429,10.90107,10.67399,10.44152,9.92043,9.483479,8.059934,8.317826,7.204645,6.658268,5.358739,4.869619,3.257067,3.072832,1.595646,0.3231537,-0.7499696,-2.119138,-2.676328,-3.924556,-5.503607,-6.534143,-7.895253,-8.358417,-9.739261,-10.70865,-12.32503,-13.07832,-13.94697,-14.81273,-16.25368,-16.71793,-17.9744,-18.18321,-19.22933,-19.30758,-20.76964,-21.03751,-21.42813,-21.73528,-22.40645,-22.66901,-22.94465,-22.94529,-22.66711,-22.99139,-22.31977,-22.40252,-21.7218,-21.01051,-20.39398,-20.04949,-19.29015,-18.39222,-17.32367,-16.67106,-15.99162,-15.00617,-13.65474,-12.86709,-11.39301,-10.7062,-9.520121,-7.954021,-6.826747,-5.438678,-4.172894,-3.337077,-1.636152,-0.2729185,0.4671499,1.522609,2.143564,3.718696,4.391619,5.684907,5.799926,6.938775,6.977542,8.164512,7.712282,8.151678,8.151659,8.145018,9.275455,8.471268,9.02893,9.033886,9.737356,10.44943,10.32492,10.3299,10.73147,11.05449,11.78512,11.64821,11.56725,11.70405,12.09604,12.47606,12.51649,12.31127,12.49257,12.38556,12.52777,12.51582,12.198,12.30266,12.31785,12.11477,12.37718,12.03479,11.60227,11.62228,11.66171,11.33625,10.80972,11.24072,10.26937,10.69973,10.37105,10.2716,9.454968,9.684692,8.961084,9.444071,8.77583,8.327697,8.628007,7.969291,8.218003,7.688807,7.763468,7.262067,7.083072,7.234915,6.635726,6.312668,5.91798,5.454634,5.230042,5.154905,3.878602,3.931611,3.119575,3.328288,2.035719,1.954468,1.154257,0.6316338,0.4321327,-0.05967278,-1.237698,-1.2987,-1.894447,-2.328795,-2.7646,-3.405578,-3.73346,-4.378654,-4.98282,-4.942195,-6.285086,-6.088631,-7.219542,-7.093327,-7.897823,-8.189608,-8.774314,-9.348539,-9.583146,-10.22897,-10.48528,-10.35104,-11.26504,-10.83901,-11.2759,-11.6867,-11.6113,-11.64741,-11.80475,-11.36127,-11.75558,-11.51846,-11.59488,-11.01851,-11.21096,-10.64005,-11.0877,-10.22578,-10.49555,-9.535526,-10.0197,-9.379886,-9.116962,-8.933961,-7.964977,-8.191585,-7.554882,-6.954656,-7.113263,-5.845412,-5.945086,-5.548629,-4.656636,-4.757289,-3.775257,-3.602771,-3.382698,-3.088966,-2.497502,-2.362227,-1.665865,-1.921238,-1.056389,-1.065865,-0.2981078,-0.3314833,0.06660704,0.1533008,0.7943103,0.7127021,0.9327244,1.071964,1.179436,1.211831,1.466141,1.796094,1.321585,2.116191,1.459637,2.040708,1.627546,1.803778,1.514787,1.933492,1.792889,2.129748,2.191755,1.917632,2.549358,2.544692,2.812283,2.491967,2.877521,2.939635,2.874127,3.327168,3.034769,3.122684,3.259366,3.228649,3.412106,3.31179,3.472507,3.741177,3.461757,3.764079,3.585039,3.622254,3.754126,3.90694,3.648216,4.038362,3.610213,3.780578,3.896964,3.941866,3.685885,3.430014,3.703729,3.565977,3.504652,3.42244,3.040749,3.385345,3.067664,3.513043,2.805361,2.858094,2.840485,2.918908,3.164704,2.542298,2.731948,3.02314,2.938866,3.071001,3.313968,3.026161,3.113738,3.291457,3.045441,3.484728,3.365055,3.467478,3.06004,3.07348,2.704798,2.616908,2.100066,2.243217,2.179262,2.83685,2.653205,3.076222,3.388879,4.431829,4.738421,5.333572,5.427745,6.438039,7.007935,7.679816,8.01607,8.296852,8.943509,9.132531,9.52026,9.516466,10.16747,9.641913,10.78518,9.909435,10.23068,9.591124,9.827623,9.211628,8.953982,8.31219,7.498971,6.945634,6.129613,5.669395,4.565712,3.496516,3.047386,2.154758,1.011369,-0.07075277,-1.470415,-1.932917,-3.341845,-4.392177,-5.582372,-6.721003,-7.796873,-8.741808,-10.09868,-11.38155,-12.36647,-13.66536,-14.38102,-15.61442,-16.3597,-17.50007,-18.14078,-18.40414,-19.97592,-20.08749,-21.26478,-21.36275,-21.79213,-22.24786,-22.40904,-23.03577,-23.33045,-22.84529,-23.35592,-22.9845,-23.06954,-22.7199,-22.29867,-21.79943,-21.21078,-20.91163,-19.64856,-19.2939,-18.26676,-17.38098,-16.61642,-15.38976,-14.09063,-13.35229,-11.88131,-10.83019,-9.158805,-8.087728,-6.811924,-4.968381,-4.234048,-2.385014,-0.6075383,0.3017193,2.173229,3.016515,4.282584,5.792999,7.277737,7.318804,9.114193,9.470826,10.8418,11.42842,11.43926,11.96641,11.75879,12.69846,12.23917,12.81979,12.61797,13.62755,13.73124,14.39644,14.18139,14.50899,15.23702,15.75579,15.73255,15.98493,16.06646,16.1575,16.81402,16.48394,16.6619,16.34925,16.5629,16.72204,16.64746,16.45844,16.53938,16.01568,16.64831,15.50105,16.03916,15.0721,15.12714,14.79345,14.67759,14.46231,13.42856,13.71719,13.02493,13.25178,12.59344,12.05849,11.96293,11.51737,10.95702,10.70528,10.03676,9.627078,9.423398,8.525106,8.427515,7.429729,6.797484,6.607196,5.187289,5.426532,4.315592,3.784492,3.431413,2.805168,2.532931,1.279805,1.404468,0.3205122,-0.05782231,-0.1740862,-1.600748,-1.507369,-2.670758,-2.369463,-3.452973,-4.26099,-4.694011,-4.725781,-5.700982,-5.404503,-6.555002,-6.789437,-7.084331,-7.433703,-7.833708,-8.401316,-8.751765,-9.33209,-9.356558,-9.870352,-10.07923,-10.18005,-10.73714,-10.8772,-10.83535,-11.60327,-11.65694,-11.93183,-11.8669,-11.68141,-12.3516,-11.82843,-12.06255,-12.29004,-11.98694,-12.16494,-12.28034,-11.88442,-11.96803,-11.88228,-11.19126,-11.53239,-10.91962,-11.21494,-10.58446,-10.40664,-10.63197,-9.942168,-10.10916,-9.009272,-9.11426,-8.682715,-8.619899,-7.584199,-7.575238,-6.771454,-6.665541,-6.367267,-6.018056,-5.511575,-5.210672,-5.404107,-4.755676,-4.335765,-4.405207,-3.909783,-3.38491,-3.709439,-2.979618,-2.734931,-2.313476,-2.293739,-1.941003,-1.592267,-1.188297,-1.112571,-0.6554999,-0.4000446,-0.07601332,0.1150783,0.2202756,0.7128848,0.5345557,1.271892,1.196224,1.728019,1.74798,1.903308,2.027786,2.373,2.838388,2.431447,3.041201,2.455164,3.192854,3.041543,2.915508,3.158133,3.028131,3.583003,3.230713,3.466941,3.363273,3.532409,3.599466,3.632514,4.157934,3.298413,4.412295,3.964414,4.28911,4.506939,4.229224,4.908691,4.414858,5.009609,5.075968,5.107441,5.169421,5.64896,5.176422,5.723155,5.29923,5.847054,5.622445,6.151556,5.826484,5.902216,5.830406,5.978565,6.185254,5.917797,5.601486,5.724755,5.399639,5.590085,5.740555,5.54432,5.385399,5.833099,5.769539,5.760608,5.532946,4.762456,5.121655,4.725056,4.961338,4.775679,4.4961,4.943254,4.893798,6.15565,5.759499,6.713815,7.306406,8.132578,8.983248,9.375665,10.31611,10.79782,11.91872,12.04932,12.98831,13.1174,13.48577,14.10892,14.07263,14.11902,14.12508,14.17083,13.98938,13.90088,13.59468,13.33035,12.4844,13.10264,11.7419,11.44664,10.51919,9.914356,9.034347,8.25886,7.118212,5.964799,5.099191,4.410006,2.813261,2.020196,0.2337532,-0.5543352,-1.69202,-3.10943,-4.128905,-5.867623,-6.605009,-8.154487,-9.115583,-10.64028,-11.89746,-12.90933,-13.89863,-15.52633,-16.03713,-17.72053,-18.59185,-19.17488,-20.23859,-21.09263,-22.08723,-22.97507,-23.04479,-23.7143,-24.00728,-24.42993,-24.88964,-24.26196,-24.78796,-24.58932,-24.37129,-24.27778,-23.43994,-23.36343,-22.76793,-22.22557,-21.76324,-20.16354,-19.83992,-18.31633,-17.80462,-16.73874,-15.49598,-13.9789,-13.37513,-11.71369,-10.92112,-9.315396,-8.135956,-6.875354,-5.636719,-4.65991,-3.21559,-2.143797,-1.071393,-0.1118687,0.3429935,1.988325,2.208267,3.211636,3.266178,3.828547,4.522229,4.022882,4.861715,4.059248,5.160997,4.790727,5.482572,5.554654,5.663187,6.152354,6.947209,7.429504,7.159213,7.71166,7.914174,8.524626,8.861638,8.904445,9.121045,9.070826,10.06842,9.441039,10.41035,9.874151,10.08674,10.34168,10.51521,10.3458,10.57975,10.3806,10.84951,10.75693,11.20118,10.49351,11.06866,10.91221,10.91001,11.44838,10.6515,11.37062,10.71713,11.37026,11.27535,11.06072,11.17189,11.01623,10.77526,11.41079,10.59602,10.85639,10.86154,10.30214,11.09325,9.944162,10.83106,9.50144,10.37499,9.42348,9.626268,8.948933,8.392661,8.578863,7.797971,7.509427,6.376359,6.953063,5.406442,5.667536,4.531404,4.456793,3.861137,3.427357,2.962666,2.038571,1.575507,1.217854,0.1232695,-0.05826529,-0.9204989,-1.8586,-2.172684,-3.114121,-3.199453,-4.101579,-4.730491,-5.106874,-6.133349,-5.927454,-7.213008,-7.500866,-8.251941,-8.60053,-9.235343,-9.234541,-10.26614,-10.35474,-10.6989,-11.17318,-11.32551,-12.0548,-12.02153,-12.5237,-12.18728,-12.79367,-13.124,-12.8973,-13.00839,-12.80455,-13.01828,-13.19052,-12.65497,-13.03696,-12.09997,-12.55182,-11.99297,-12.31365,-11.80967,-11.6089,-11.24399,-11.44591,-11.31468,-10.67067,-10.6728,-9.66927,-9.96758,-9.275398,-9.248845,-8.311051,-8.46418,-7.477691,-8.02419,-6.986483,-7.081539,-6.15418,-6.239796,-5.757735,-5.656217,-4.974364,-4.601702,-4.320933,-4.24431,-3.630407,-3.599501,-2.83075,-2.866741,-2.520845,-2.095466,-2.113751,-1.61303,-1.263933,-1.293147,-0.7589015,-0.1564393,-0.1124599,0.5865366,0.3926049,1.027365,1.434671,1.78655,2.080811,2.341758,2.419373,3.203944,3.135292,3.798383,2.99427,3.996304,3.693329,4.316902,4.145957,4.057337,4.542729,4.205846,4.84606,4.400122,4.535151,4.429393,5.037214,4.799646,5.376112,4.810816,5.291594,5.222691,5.856314,5.599233,5.581939,5.627858,5.604598,6.383893,5.838756,6.414925,5.634185,6.53442,5.947943,6.631498,6.20527,6.120989,6.851505,6.401869,6.929957,6.596215,7.281717,6.824598,7.630636,7.565964,7.76753,7.739377,8.261683,8.415002,8.958538,8.769038,9.116361,9.130909,9.381812,9.312527,9.909009,9.144986,9.374552,9.483723,10.42837,10.58259,11.14742,11.56717,12.40721,13.39988,13.59607,14.57211,14.68243,16.12693,16.00533,17.17201,17.56816,17.42646,18.59909,18.19694,18.88711,18.31999,18.9164,18.48533,18.801,18.22166,18.30067,17.78222,17.96105,17.37697,16.49143,16.22934,15.36799,15.16484,13.90042,13.31756,12.19546,10.64842,10.68212,8.259303,8.37752,5.778015,5.506166,4.605322,3.025429,1.927439,0.4201545,-0.3589408,-1.865538,-2.613902,-4.357552,-5.397562,-6.424474,-7.480558,-8.410137,-9.418033,-10.67029,-11.88739,-12.01399,-13.39787,-13.6485,-14.84916,-15.26502,-15.69608,-16.07606,-16.82348,-16.85581,-17.7951,-17.20402,-17.54808,-17.14759,-17.32301,-17.12001,-16.57079,-16.21454,-15.41227,-15.32484,-14.58247,-13.59191,-13.19526,-11.86676,-11.83394,-10.59544,-9.658625,-8.739572,-7.652577,-7.14408,-5.315144,-4.932864,-3.084224,-2.781916,-1.387025,-0.6412078,0.6142572,1.56121,2.690628,2.888841,3.743947,4.722756,5.115116,5.438506,5.572463,5.604269,5.486081,5.831209,5.146542,4.353666,3.794413,3.64248,2.803403,2.661329,1.180192,1.219041,0.9761283,0.8915453,-0.0450799,-0.4649203,-1.372618,-1.42185,-2.043599,-2.70779,-3.205046,-4.464929,-3.996753,-5.37809,-5.007729,-7.036275,-6.818902,-7.994193,-7.917504,-8.83453,-9.635742,-9.989271,-10.50756,-10.81855,-10.99258,-12.0134,-12.04491,-13.05784,-12.37086,-13.23063,-13.14141,-14.21552,-13.53613,-14.66592,-13.62091,-14.84971,-14.56085,-14.73834,-14.90957,-14.11311,-14.66315,-14.77241,-14.36564,-14.95548,-13.73748,-14.73844,-14.19471,-14.35701,-13.84934,-13.84345,-13.58098,-13.69948,-13.63042,-13.17657,-13.05689,-13.35694,-13.31549,-13.02952,-13.12717,-12.77556,-13.32289,-13.23303,-13.98425,-13.27463,-13.78372,-13.74762,-14.16748,-14.0503,-14.23197,-13.9568,-14.80961,-14.238,-15.37246,-14.49772,-14.70627,-14.95836,-15.11991,-14.96412,-15.06715,-14.33936,-15.04921,-14.26326,-14.77701,-13.74584,-13.62659,-13.20082,-12.95369,-13.01617,-12.3784,-11.64788,-11.04642,-11.01733,-10.3541,-9.84577,-8.761953,-8.299189,-7.647582,-7.108828,-6.121239,-5.016877,-4.269048,-3.617972,-2.497508,-1.538414,-0.3034502,0.08212251,1.609041,1.931681,3.515801,4.337453,5.414023,5.964205,6.957185,7.431671,8.568563,9.167894,9.932836,10.51071,10.76895,12.10281,12.38497,12.5672,13.28816,12.99075,14.32146,13.85576,14.85236,14.11243,14.89257,14.63195,14.87085,15.27827,14.04369,14.6431,14.27158,13.99987,13.6998,13.15826,12.91587,12.87949,12.06095,12.22207,10.75115,10.99082,10.50311,10.258,9.537401,9.19041,8.373655,9.217038,8.0541,8.093252,7.855339,7.420015,7.794005,7.329966,7.792759,7.389925,7.498204,7.804772,8.214423,8.269093,8.716307,8.863954,9.628104,9.876043,10.6007,10.70585,11.17645,11.61453,12.45498,12.65911,13.00747,14.22242,14.05759,15.57967,16.05345,16.27555,17.22897,17.66746,18.69218,19.20007,19.49382,20.6952,20.51937,22.00325,21.9073,22.57365,22.50819,23.23313,23.25069,24.37392,23.65652,24.37852,24.12849,24.58439,24.2728,24.43645,23.5687,24.39928,23.65827,24.1821,23.1165,23.03795,21.9997,22.1887,21.26009,21.31745,20.10689,19.69675,19.4363,19.65069,19.74634,19.29056,19.36858,19.50724,20.07983,20.20554,20.22467,19.56257,20.40748,20.11615,20.23093,19.77854,19.68666,19.5806,19.47022,19.15362,18.00255,18.44057,17.10264,17.26247,16.39906,15.18454,15.42969,13.9374,13.70472,12.56138,11.02895,10.66924,9.361779,8.770219,6.752306,6.229209,4.303854,3.637851,2.133889,0.703843,-0.6420352,-2.140708,-3.546845,-4.5797,-6.899601,-7.531689,-9.991003,-10.63229,-12.68349,-13.62103,-15.94971,-16.58101,-18.61912,-19.50645,-21.5354,-22.52129,-24.31447,-25.25272,-26.26572,-27.73296,-28.61803,-29.75303,-30.18224,-31.04237,-31.62144,-32.55524,-32.90204,-33.71559,-33.50719,-34.40815,-34.36878,-34.85686,-34.6766,-34.45838,-34.45108,-34.23776,-34.15327,-33.2046,-32.6541,-32.04535,-31.36517,-30.89815,-29.71626,-28.92182,-27.99553,-26.72846,-27.04086,-24.27893,-24.79483,-22.55918,-22.30959,-20.78166,-19.89888,-18.04434,-17.95459,-15.99561,-16.15049,-14.30479,-13.92981,-12.44434,-12.3803,-11.31575,-11.39739,-10.19843,-10.66948,-10.68802,-10.02262,-9.907962,-9.153752,-9.209125,-9.026874,-8.576513,-7.773986,-6.558489,-6.21369,-5.922529,-5.51925,-4.740271,-3.837504,-3.618108,-3.370525,-2.980107,-2.188336,-1.454918,-1.143458,-0.4776944,-0.5422492,0.5910747,0.7855588,1.621853,1.657553,2.35026,2.225996,3.769899,3.341167,4.35862,4.619795,4.901178,5.36613,6.075276,6.153939,6.590344,6.879406,7.519478,8.080569,8.30293,8.554936,8.755219,9.325629,9.7038,10.27851,10.10744,10.43447,10.79863,11.2611,11.2117,11.23432,11.40709,11.33195,11.75229,11.61682,11.33529,11.44279,10.6637,11.39368,11.00006,10.56584,10.76583,10.38542,10.58855,10.65592,9.783954,9.970365,9.429685,9.483092,9.311997,8.549799,7.922976,8.224349,7.260415,7.365794,6.427994,6.079953,5.512183,5.464325,5.107314,4.422404,4.032414,3.36957,3.174917,2.664224,1.616355,1.35445,0.9074896,0.26298,0.4595967,-1.490219,-0.5142508,-2.134147,-1.652852,-2.265248,-2.960327,-3.408171,-3.400263,-3.976481,-3.662485,-5.362113,-4.367533,-5.284546,-5.036933,-5.266432,-5.839281,-5.8379,-5.859571,-5.500358,-5.804574,-5.452096,-6.317038,-5.564392,-5.976282,-5.448378,-5.606845,-5.764238,-5.380044,-5.411587,-5.261955,-5.365356,-5.025908,-5.205923,-4.873475,-4.380227,-4.54718,-4.512792,-4.209277,-3.800267,-3.680717,-3.535341,-3.711743,-3.662791,-3.029228,-3.136732,-3.123254,-3.696839,-2.689589,-3.278447,-2.097166,-2.969029,-2.494797,-3.134478,-1.670183,-2.443947,-2.058135,-2.140923,-2.316843,-1.681227,-1.931614,-1.737306,-1.927053,-1.723966,-1.405263,-0.9745132,-1.142993,-1.450085,-1.00505,-1.261127,-0.6816771,-1.085577,-0.8548813,-1.537637,-0.4297353,-1.151308,-0.7877348,-1.319253,-1.423376,-0.6293833,-0.807262,-0.5565687,-0.3781664,-0.9477095,0.01876556,-0.2212168,-0.01097832,0.1244851,0.07619428,0.5223815,0.8961325,0.6215243,0.8572275,1.071851,1.116562,2.075108,1.786362,2.026373,1.956899,2.777639,2.781254,3.021894,3.095861,3.084523,3.474402,4.175531,3.786957,4.390185,4.472496,4.641299,5.529225,5.171241,5.750163,5.445453,5.6814,6.627268,6.113858,6.505966,6.58899,6.668187,6.515925,6.551739,7.125475,6.062261,5.93138,6.640411,6.43184,6.933399,6.636985,7.359438,7.978196,8.832383,9.783329,10.27508,11.29503,12.20693,13.22323,14.28171,14.65043,15.88938,16.40919,17.67335,18.34176,18.20416,19.37419,19.46952,20.3401,20.14916,20.40208,20.28081,20.33527,20.36121,19.90432,19.45688,19.08615,18.53163,18.5019,17.45661,17.02127,15.71813,15.67717,14.25099,13.29622,11.82024,10.76541,9.361723,8.339243,7.145799,5.122689,3.999651,2.459947,1.261545,-0.09784061,-2.104238,-3.064602,-4.812509,-5.688596,-7.855503,-8.726885,-10.83266,-10.82127,-13.2147,-13.48253,-15.88927,-16.16622,-18.09843,-18.05112,-20.05555,-20.22633,-21.51744,-21.9106,-22.43629,-22.89685,-23.83033,-24.06023,-24.26709,-24.19111,-24.31154,-24.75278,-24.86281,-24.18347,-24.18529,-23.34984,-23.19311,-22.91325,-22.22443,-21.55305,-20.62531,-20.0388,-19.43736,-18.24626,-17.02292,-16.0401,-14.91005,-14.20047,-12.5119,-11.6531,-9.831451,-8.961014,-8.137411,-6.712235,-5.386033,-4.706317,-3.336146,-3.09085,-2.055903,-1.542015,-1.249431,-0.4335106,-1.361874,-0.809398,-0.4191198,-0.4335768,-1.007242,-0.6903683,-0.3957298,0.1484953,0.04378003,0.4794875,0.7661007,1.525842,1.870338,2.741012,2.304256,2.966754,2.884197,3.953506,3.991986,3.81385,3.992583,4.122733,4.762964,4.726954,4.707932,4.872764,4.94151,5.486724,5.390102,5.420698,5.143844,5.591632,5.649544,6.451052,5.988327,6.034587,6.16248,6.699434,6.464711,6.665822,6.30251,6.451473,6.354837,6.687893,6.346675,6.138135,6.239315,6.06819,6.578701,5.724688,5.833768,5.550049,5.668097,5.77368,5.741962,5.313393,5.032141,5.096974,5.087445,5.337417,4.58058,5.032113,4.318923,4.7013,4.590147,3.999923,4.083595,3.667314,3.77014,3.899284,2.895807,2.955919,2.597916,2.643661,2.400428,1.987739,1.635999,1.815101,1.556411,1.456843,1.196877,0.9656401,0.7581832,0.9531359,0.7655242,-0.02375589,-0.4175908,-0.009767024,-0.4986458,0.5462115,-2.659719,-0.9034903,-1.346672,0.2690412,-1.511165,-1.982615,-2.557136,-1.345965,-0.741127,-1.700966,-2.700823,-2.822383,-1.554401,-1.27283,-1.580963,-3.391271,-3.120701,-2.078382,-1.555789,-1.817645,-3.271032,-2.981686,-2.123851,-1.249417,-1.954941,-2.68452,-3.543854,-2.024172,-1.739117,-1.389209,-2.925713,-2.832039,-2.028297,-0.7408192,-1.338844,-2.125633,-2.733574,-1.237855,-0.4968708,-0.4336059,-1.496844,-1.60597,-0.8395496,0.516753,0.1692063,-0.7505805,-1.073734,-0.2567239,0.9986441,0.5795028,-0.1307787,-0.8960705,0.2798701,1.31198,0.986173,-0.05619914,-0.5518798,0.03153985,1.172299,0.9677433,-0.3472274,-0.3875642,-0.5334089,1.093984,0.4708845,0.1445403,-1.144609,-0.177356,0.6939855,0.5224397,-0.6481578,-1.157676,-1.216895,0.392176,0.1218528,-1.04708,-1.540843,-1.454934,0.3865008,-0.03535069,-0.4977209,-1.746465,-1.356075,-0.1042776,0.485814,-1.272423,-1.550479,-1.927944,-0.1414483,-0.2276436,-1.230425,-1.893779,-1.856804,-0.456249,-0.06251579,-1.324082,-1.856386,-1.831076,-0.6233704,-0.1135222,-1.009454,-1.735189,-1.492337,-0.5349965,0.2727167,-0.9990249,-1.624579,-1.617088,-0.5505515,0.2689777,-2.025692,-0.3087127,-1.695508,-0.08947036,-1.334933,-0.7207299,-1.430307,-1.285293,-0.5209146,-1.209952,-0.7911241,-1.411274,-0.9304247,-1.041469,-1.106947,-1.448395,-1.390745,-1.299306,-1.580493,-1.015743,-1.504188,-1.586766,-1.706574,-1.401925,-1.955943,-1.924612,-2.290874,-2.140005,-1.719168,-1.775434,-2.136909,-2.759033,-2.63829,-2.643876,-2.624401,-2.889403,-3.063273,-2.863006,-2.725175,-1.66128,-1.060425,-1.109488,0.01728236,0.5816193,1.998609,2.564458,3.555897,3.870197,5.49307,6.132144,7.224832,7.969036,8.701329,9.787301,10.45679,11.24065,11.49827,12.37613,12.87175,13.56208,13.97038,14.03086,13.95301,15.18794,14.67644,15.24039,14.28519,14.44169,14.55999,14.05927,13.61834,13.11879,12.40404,12.33357,11.57351,10.70144,10.1267,8.596795,8.689667,7.395033,6.269108,5.227015,3.800239,3.469366,2.226458,1.17076,-0.3347489,-1.323274,-2.359642,-3.071852,-4.434988,-5.785413,-7.140923,-7.621428,-8.747377,-9.579519,-10.91457,-11.37359,-12.25416,-12.44704,-12.88869,-13.74745,-14.65034,-14.53564,-15.02202,-15.10648,-16.03958,-16.14599,-15.88277,-16.02526,-15.73448,-15.89403,-15.79039,-15.05367,-14.79904,-14.48006,-13.96982,-13.94243,-12.79446,-12.35046,-11.02227,-11.09217,-9.95806,-9.177624,-8.11102,-6.983595,-6.304659,-5.645198,-4.598169,-3.166904,-2.35707,-1.815875,-1.104853,-0.3178178,0.756778,1.321478,1.825417,1.741781,2.049165,2.258889,2.249144,1.940863,1.861171,2.029643,2.088771,2.539176,1.915285,2.184319,2.595686,3.274024,3.343412,2.599338,3.20887,3.025513,3.774782,3.843755,3.572406,3.294734,4.133342,4.075297,4.546406,4.227281,4.338886,4.503629,5.081884,5.259779,5.072742,5.295323,5.323249,5.97257,6.187332,5.862729,6.173624,6.141207,6.432097,6.795144,6.307485,6.50032,6.563887,5.992727,6.994753,6.437678,6.011722,5.932038,6.237158,5.958535,6.022649,4.885404,5.344772,4.933321,4.900812,5.114336,3.660859,4.152839,3.449508,3.445943,2.81631,2.086814,1.788654,1.225648,1.237861,0.2468484,0.01058954,-0.9490687,-0.9525598,-1.370383,-1.941461,-2.727607,-3.487788,-3.584754,-3.735045,-4.977907,-5.114689,-6.145921,-6.464267,-6.297803,-7.28123,-7.120743,-8.143737,-8.314339,-7.985666,-8.781987,-8.979903,-9.501095,-9.556128,-9.420413,-9.318615,-10.00013,-10.15247,-9.630375,-9.951726,-9.777368,-9.724349,-10.41693,-9.532607,-9.593774,-9.447914,-9.546755,-9.289742,-9.158983,-8.419105,-8.710331,-8.067745,-8.581347,-7.855815,-7.744831,-7.12723,-7.532857,-7.476329,-6.696003,-6.399877,-5.817563,-6.07858,-5.714055,-5.484487,-4.741159,-4.667296,-4.757117,-4.526306,-4.616834,-3.686401,-3.702635,-3.611433,-3.65559,-3.631416,-2.855062,-3.021701,-2.625126,-2.874719,-2.335075,-2.13061,-1.475204,-1.494287,-1.693162,-1.183539,-1.155431,-0.4355563,-0.4098022,-1.073817,-0.4352305,-0.6103353,-0.02217261,-0.16063,-0.3808262,-0.2192864,-0.02059528,0.3170277,0.4691084,0.004095664,0.1430274,1.067629,0.8118267,0.9630813,0.9509805,1.114042,1.824811,1.934711,2.468473,2.272797,2.460158,3.267265,3.220278,3.345745,3.418344,3.274283,4.021148,4.370395,4.2682,4.218022,4.143858,4.820313,4.67785,5.113413,4.208187,5.142698,4.585518,5.111336,4.890607,5.046953,4.502732,5.436364,5.195736,5.827064,4.853524,5.803674,6.058221,6.362487,6.719516,5.900649,6.427851,6.691177,7.189234,7.214774,7.026877,7.158528,7.566436,7.766138,8.107679,7.63152,7.687887,7.806383,8.359246,8.360161,7.692729,8.277852,7.77799,8.530639,8.454584,8.116658,7.788481,7.883306,8.243064,8.298249,7.508858,7.65025,7.539524,8.065125,7.801938,7.907295,7.248125,7.499986,7.442409,7.586268,7.038925,7.307141,6.857908,7.491983,7.023637,7.463394,6.313761,7.25151,6.870653,7.157939,6.520551,6.335519,6.511112,6.684846,6.366059,6.417308,5.63101,5.754392,5.748604,5.781217,4.861218,4.721589,4.032189,4.670974,3.885792,3.694635,3.170102,2.802041,3.29381,2.787004,2.609389,1.997203,1.393866,1.794991,1.536332,1.00682,0.738418,0.3549718,0.7546793,0.8052819,1.401158,1.528923,2.386611,2.726044,4.463874,4.793483,5.64603,6.699863,7.330708,9.33531,9.648299,10.54474,11.71111,12.03611,13.67033,13.57964,14.31265,14.73227,15.35093,16.60042,15.84249,16.82552,15.88864,17.15517,16.8128,16.60649,16.16653,16.02147,15.58854,15.86702,14.78193,14.61209,13.31365,13.01702,12.50082,11.09723,10.48988,8.912909,8.544929,7.222615,6.198765,4.659828,3.101739,1.878994,1.164902,-0.9027847,-2.031582,-4.308865,-5.000974,-6.422653,-8.074307,-9.644332,-11.53806,-12.87171,-13.88738,-15.56902,-17.31496,-18.80197,-19.57594,-20.6158,-21.79295,-22.97423,-24.34118,-24.6909,-25.50634,-26.30806,-27.1977,-27.94005,-27.73761,-27.60552,-27.96039,-27.9296,-27.89997,-27.54747,-26.67312,-26.13323,-25.97211,-25.09588,-25.02216,-23.3252,-22.70231,-21.6202,-21.09642,-19.98329,-18.23229,-17.31528,-16.5192,-15.27059,-14.48443,-12.33141,-12.09266,-10.26748,-10.56748,-8.520271,-7.621483,-6.459346,-6.176198,-5.450363,-4.769378,-4.339249,-3.563675,-3.935091,-4.41193,-3.6524,-3.443154,-3.244788,-3.112171,-3.689698,-2.794519,-2.303758,-1.348763,-1.520795,-1.146089,-1.003249,0.4907479,0.5520647,0.7280182,0.9160846,1.075914,2.004367,2.327815,2.321981,2.621581,2.084135,3.769304,2.992269,3.901857,3.347388,3.610635,4.359876,4.121941,4.622637,3.898052,4.600045,4.051148,5.022566,4.635289,4.220668,4.473583,4.994246,4.868506,5.180059,4.611949,5.24357,5.02528,5.780965,5.648811,5.089871,5.25629,5.373718,5.625718,5.742078,5.022073,5.068701,5.309566,5.113191,4.979372,4.170799,4.338915,4.037673,4.044841,3.712753,3.034419,2.808514,2.85132,2.703498,2.526801,1.727776,1.767025,1.307667,1.49392,1.05135,0.4466476,0.1932194,0.1977854,-0.08505573,0.568818,-1.113001,-0.0001994098,-1.287087,-0.3625032,-0.8201528,-1.051031,-1.503726,-0.8398457,-1.244775,-0.6507492,-1.678505,-1.359952,-1.554204,-0.6791859,-1.133671,-0.9026513,-1.235513,-0.822406,-0.9869251,-0.3336363,-0.8279079,-1.129158,-0.7303696,-0.9563811,-0.1203854,-0.8963814,-0.5852251,-0.6963695,-0.3339733,0.03854217,-0.258782,-0.596043,-0.3426428,0.07388985,0.2188547,-0.07930309,0.3117244,0.03349295,0.9562203,0.8586212,0.8155864,0.6486923,1.241436,1.049132,1.828075,1.145173,1.587382,0.9077619,1.751726,1.624644,1.701953,0.9629784,1.134926,1.172357,1.424924,1.126628,0.2688327,0.2223291,0.1205103,0.2172901,-0.1764943,-0.6437151,-0.9315641,-0.8985985,-0.9075536,-1.513085,-1.821327,-2.666859,-1.850041,-2.609261,-2.426088,-2.849374,-4.21474,-0.8899981,-2.907112,-2.810956,-4.405072,-3.538953,-2.031576,-2.614913,-3.656085,-4.320839,-4.03392,-2.288825,-2.723706,-3.821153,-4.662842,-3.991189,-2.688433,-2.522201,-3.587418,-3.965682,-3.468547,-2.149698,-1.724818,-2.671784,-3.273295,-3.025057,-0.9938127,-0.9514064,-1.673861,-2.073035,-1.710307,-0.01326953,0.4274481,0.01870712,-1.161773,0.09430662,1.03485,2.155035,0.8372647,0.8685781,0.4637046,2.854858,3.03534,2.476723,2.04201,2.433358,3.468684,4.826497,3.324582,3.412119,2.965171,5.839278,5.545939,5.587964,4.390217,4.847976,6.168655,7.355237,5.987649,5.510957,5.08058,6.545077,6.898755,6.124326,4.553993,4.633754,5.897864,6.807715,6.525438,5.577319,6.151416,8.026534,9.47307,9.468332,8.897322,9.520462,11.52521,12.78607,13.49898,12.11271,13.46508,14.10275,16.45251,15.45012,15.37252,14.60652,16.793,17.29746,17.01901,15.55586,15.26698,16.05508,17.18437,15.74903,14.54184,13.22624,14.5195,14.17647,13.86239,10.95612,10.72573,9.991488,10.94123,8.7515,7.343823,5.312026,6.170627,5.393464,4.736005,2.033946,0.408459,2.183294,-1.564128,-0.9706501,-3.622617,-3.742911,-4.773197,-5.907998,-7.16211,-8.352193,-9.767992,-9.278693,-11.38288,-11.39691,-13.24242,-13.56757,-13.69546,-14.52611,-15.00133,-15.85123,-16.65052,-16.04956,-16.60422,-16.62178,-17.59432,-17.21827,-16.99994,-16.74918,-16.51494,-16.91395,-16.161,-15.29197,-14.81797,-13.87251,-14.59129,-12.85312,-12.61658,-11.22639,-10.85686,-10.11636,-9.675837,-7.553452,-7.267437,-6.053043,-5.469221,-4.754494,-3.274585,-2.182135,-0.9250692,-0.6063953,0.3319268,1.599336,2.718991,2.76026,3.575888,3.347804,4.465421,4.820871,4.634746,4.378644,3.907581,4.405661,4.480699,4.248305,3.41435,3.429404,4.254014,4.246617,4.407203,3.335892,3.880619,4.047437,4.242104,4.087995,3.397788,3.690387,3.563714,4.154749,4.029809,2.827326,3.813737,2.863677,4.265096,3.120276,3.087828,2.28668,2.668459,2.662308,2.124067,1.849214,1.000998,1.436774,1.219489,0.9349307,0.2063131,-0.3665343,-0.1761228,-0.8548422,-0.585496,-1.835583,-1.848939,-2.571076,-1.957391,-2.787461,-2.969301,-3.604933,-3.62201,-4.061902,-4.193137,-4.690519,-5.687069,-5.391026,-6.554123,-5.805526,-7.602739,-7.811559,-8.727615,-8.750481,-9.182719,-10.31807,-11.03947,-11.27668,-12.17702,-11.9933,