ConstAcc,0.5,0.29098,-147.8667,-180.6853,-210.3024,-236.8631,-260.5094,-281.38,-299.61,-315.3318,-328.674,-339.7624,-348.7196,-355.6648,-360.7143,-363.9813,-365.5758,-365.6049,-364.1725,-361.3796,-357.3243,-352.1017,-345.8038,-338.5201,-330.3368,-321.3374,-311.6028,-301.2108,-290.2366,-278.7525,-266.8282,-254.5307,-241.9243,-229.0706,-216.0286,-202.8548,-189.6029,-176.3244,-163.0679,-149.8797,-136.8037,-123.881,-111.1508,-98.64944,-86.41109,-74.46755,-62.84826,-51.58039,-40.68882,-30.19618,-20.12287,-10.48708,-1.304849,7.409964,15.64561,23.39246,30.64294,37.39155,43.20455,54.203,61.02415,65.58092,69.19191,72.46907,75.63205,78.56735,80.86067,82.86354,84.5344,85.95978,87.14548,87.78293,87.91821,87.71059,87.07771,85.97825,84.58934,82.96284,80.85382,78.31234,75.30255,72.12133,68.79675,65.37924,61.77886,57.72376,53.28849,48.60007,43.29861,37.64734,31.66636,26.46746,22.34668,20.09972,19.98903,22.13647,26.33207,32.67458,40.77125,50.80354,62.07547,74.26281,87.23584,100.3759,113.2168,125.2427,136.5818,147.1481,156.4964,165.0186,172.2772,178.2664,182.8281,185.8587,187.4089,187.4943,186.0787,183.0856,178.6352,172.7148,165.562,157.2487,147.9371,137.9869,127.9195,117.7061,107.3195,96.81107,86.0054,74.73499,62.88007,50.26932,36.68201,22.24947,6.997524,-8.889989,-25.30372,-41.95301,-58.71242,-75.13105,-91.15029,-106.8059,-122.1103,-137.1103,-151.4443,-165.1172,-177.9804,-189.909,-200.8446,-210.9522,-220.2023,-228.5634,-235.939,-242.3442,-247.9455,-252.7734,-256.7876,-259.8289,-261.8933,-262.8989,-262.8135,-261.9059,-259.7859,-256.5283,-252.0833,-246.6973,-240.3963,-233.2421,-225.0694,-216.4144,-206.7883,-196.3997,-185.2156,-173.2174,-160.5017,-147.1125,-132.8787,-117.8672,-102.3044,-86.37219,-70.03899,-53.40234,-36.57106,-19.84303,-3.363341,12.89157,28.55244,42.95059,55.72903,67.23416,77.57833,87.15032,96.20627,104.4444,111.6709,117.8233,123.0707,127.7971,131.9257,136.0076,140.0673,144.0591,147.8493,151.6388,155.089,158.2084,160.9745,163.4598,165.46,167.0863,167.9526,168.266,167.6627,166.1712,163.6528,160.252,156.1038,151.0756,145.4624,139.4821,132.8986,125.8851,118.6467,111.2444,103.7509,96.2037,88.67929,81.18061,74.167,67.69514,61.82721,56.26154,50.92571,45.62903,40.11652,33.8773,26.78684,18.70509,9.862306,0.3920702,-9.762607,-20.59015,-31.85126,-43.34258,-54.9451,-66.585,-78.3448,-89.87653,-101.1998,-112.1639,-122.7898,-133.2586,-143.3717,-153.0433,-162.1521,-170.8643,-179.0656,-186.8608,-194.1587,-201.0358,-207.5266,-213.6324,-219.3129,-224.5993,-229.3933,-233.6169,-237.3189,-240.4683,-243.0684,-245.1291,-246.562,-247.7239,-248.1739,-247.985,-247.3121,-246.0402,-244.0494,-241.041,-237.0185,-231.9945,-226.2273,-220.3729,-214.7604,-209.8441,-205.9092,-203.109,-201.5204,-200.8895,-201.0743,-201.9581,-203.2361,-205.009,-207.185,-209.6685,-212.4351,-215.4063,-218.9518,-222.843,-226.5516,-229.5765,-231.5441,-232.5154,-232.5636,-231.8892,-230.3653,-228.1255,-225.1666,-221.6043,-217.7298,-213.605,-209.3426,-204.8535,-200.1353,-195.3331,-190.249,-184.6845,-178.5854,-171.9741,-164.8306,-157.0948,-148.8976,-140.2727,-131.256,-121.8814,-112.1523,-102.1212,-91.93985,-81.57332,-71.06947,-60.34788,-49.47037,-38.46991,-27.47537,-16.53017,-5.550222,5.350619,16.26394,27.03316,37.66663,48.03968,58.15787,67.92653,77.48676,86.9126,96.1844,105.1937,113.8317,122.005,129.8854,137.1018,143.6548,149.6892,155.1804,160.149,164.5789,168.5597,171.9179,174.7442,176.913,178.5635,179.708,180.2706,180.3076,179.8337,179.0769,178.1683,177.1376,175.6747,173.6551,171.2315,168.3793,165.1481,161.4649,157.4774,153.3458,149.2599,145.2467,141.2903,137.5908,134.1211,131.1904,128.8718,127.5876,126.9653,127.184,128.4051,130.6236,133.5058,136.6421,139.4593,141.6613,142.9544,143.2635,142.5789,141.3468,139.9594,138.7014,137.7091,136.852,136.5088,136.6797,137.2354,138.205,139.4527,140.8552,142.5074,144.0057,145.4826,146.8124,148.111,149.3826,150.5472,151.6667,152.8445,153.9555,154.9883,155.89,156.7642,157.7175,158.6911,159.7718,160.9117,162.1254,163.2562,164.4882,165.8268,167.1772,168.5573,169.8164,171.0408,172.1671,173.4359,174.695,175.9033,176.977,177.9454,178.782,179.6231,180.364,181.1594,181.8902,182.5761,183.0821,183.6187,184.0378,184.3435,184.5957,184.7166,184.7215,184.6708,184.5927,184.3541,183.6752,182.8161,182.1455,181.6638,181.3556,181.1711,181.0621,180.8613,180.7309,180.5749,180.2523,179.8819,179.3142,178.6922,177.8374,177.0168,176.2599,175.6594,175.148,174.7732,174.6465,174.6973,174.7852,174.9556,174.9617,174.6829,174.2886,173.7801,173.1296,172.4207,171.6656,170.9802,170.2956,169.7097,169.1641,168.6179,168.0584,167.4835,167.1748,166.9375,166.707,166.4003,166.0032,165.5829,165.3567,165.1171,164.984,164.7224,164.4769,164.2595,163.9604,163.6181,163.5222,163.6158,163.7894,163.9048,164.0602,164.3739,164.6549,164.9417,165.3419,165.6333,165.8331,166.0617,166.377,166.7127,166.9783,167.2332,167.3246,167.4465,167.3907,167.3799,167.2016,167.1041,167.0122,167.0678,167.0433,166.9114,166.6946,166.5752,166.5621,166.5554,166.621,166.5214,166.3001,165.9672,165.55,165.022,164.501,163.9254,163.1451,162.1706,160.6697,158.6437,156.3075,154.29,152.996,152.4891,153.01,154.4784,156.933,160.0979,163.6852,167.5295,171.1361,174.4342,176.9552,178.7115,180.1021,181.5517,183.034,184.9815,187.1237,188.9525,190.2473,191.0632,191.2002,190.7392,189.738,188.2556,186.3161,183.8411,180.5725,176.8912,172.4017,167.8499,162.6463,156.6071,149.4331,141.7015,133.4134,124.7944,116.5003,108.6032,101.9686,95.37981,88.13483,79.71362,69.21335,56.33056,42.68723,27.32372,11.16486,-4.724062,-20.84322,-37.00184,-53.25418,-70.08172,-86.92788,-103.3965,-120.222,-136.1603,-150.5452,-164.5878,-178.1375,-192.0143,-206.4254,-220.6621,-233.4551,-245.4305,-255.76,-265.2334,-273.8873,-282.5345,-289.7935,-296.416,-301.6924,-304.8331,-306.5195,-307.2962,-306.7278,-305.0863,-301.9705,-297.2157,-291.1217,-284.5114,-276.5189,-266.6827,-255.7874,-243.9258,-232.2868,-220.5742,-208.1895,-195.0559,-181.4494,-167.0293,-152.3807,-137.1332,-121.022,-104.7649,-88.46742,-72.4091,-56.84454,-42.72971,-29.25152,-16.83161,-4.804897,6.724955,17.7281,27.98159,37.07128,44.98848,51.36904,57.24583,63.60597,71.29418,80.62373,90.74492,100.9468,110.4802,119.2958,126.9315,133.2477,138.352,141.8801,144.0196,145.7778,147.4102,148.9438,150.1815,150.667,150.443,149.0151,146.7373,143.5091,139.9961,136.0758,131.9221,127.2781,122.4521,117.3615,112.1187,106.5055,99.96167,91.94273,83.40429,74.53669,66.97294,61.63367,59.09054,58.83731,60.36729,63.3998,66.77397,69.81832,71.09567,70.99888,69.66138,67.29121,64.89185,63.52275,61.84505,60.97758,60.3997,59.35536,58.14342,56.80292,55.23927,54.12225,52.92347,51.30107,50.18309,48.53998,45.08432,40.99548,35.85195,30.53845,25.96618,21.54901,16.32525,10.84992,4.069139,-3.378414,-11.10685,-18.03476,-25.58078,-32.3388,-38.65296,-45.81961,-53.34373,-60.5977,-67.7548,-74.72152,-81.56401,-88.85108,-96.54944,-103.4304,-110.0541,-117.5989,-125.9584,-135.1902,-144.1558,-152.3686,-160.3471,-168.3326,-176.0314,-183.7915,-190.8948,-197.854,-205.3717,-213.0046,-220.8456,-228.9785,-237.1558,-244.5105,-251.613,-258.3788,-264.0945,-268.9558,-273.2071,-277.1157,-280.3811,-283.1373,-284.7134,-285.4629,-285.88,-286.6915,-288.5587,-291.342,-294.5183,-297.5725,-300.4402,-302.9767,-305.0621,-306.9988,-308.2763,-308.5774,-308.3729,-307.6788,-306.7509,-306.2421,-305.7179,-305.2196,-304.2,-302.858,-300.9607,-299.0958,-297.0111,-294.7781,-292.5608,-290.5413,-288.9094,-287.7719,-286.6517,-284.7952,-280.9535,-275.0106,-267.0219,-257.5507,-247.6885,-237.9408,-228.1758,-218.1729,-208.2032,-198.0903,-187.5731,-176.6761,-165.2708,-153.3518,-141.4666,-129.4275,-117.7053,-106.044,-94.06231,-81.55157,-68.78156,-55.71817,-42.84203,-30.17446,-17.84135,-5.676626,6.210251,17.98901,29.50741,40.78454,51.3394,61.58567,71.71744,81.05985,89.96193,98.44955,106.3782,113.9879,121.2314,127.9719,133.9677,139.7561,144.882,149.5721,154.0133,157.6361,160.4954,162.7461,164.7885,166.1897,167.0704,167.7823,167.8806,167.3414,165.8611,163.76,161.1215,158.4613,155.7194,152.6672,149.4488,146.2349,143.1272,140.0976,137.1312,134.3458,131.79,129.8021,128.4367,127.7359,127.7946,128.502,130.8389,133.5371,136.0856,138.2241,139.8114,140.657,140.9685,141.0202,140.6295,140.1856,140.1807,140.5289,141.06,141.6294,142.1226,142.7606,143.5875,144.4423,145.4826,146.6451,148.0043,149.1493,149.8919,150.5504,151.593,152.5998,153.7476,154.9813,156.2689,157.3978,158.6021,159.7915,160.855,162.1253,163.4293,164.728,166.2489,167.6555,169.0906,170.1414,171.1459,172.4173,173.6227,175.0425,176.6005,177.9059,179.1769,180.2162,180.4112,179.7276,178.7166,177.79,177.1956,177.2884,178.0214,180.0254,182.9596,186.5801,190.3699,193.7294,196.8931,200.0332,203.1674,206.2141,209.169,212.1538,215.2734,218.0835,220.5649,222.7612,224.8148,226.2708,227.6633,228.854,229.6538,230.164,230.0497,229.5998,228.7119,227.4621,225.6863,223.8986,221.6571,218.6979,215.4131,211.7929,207.8315,203.3591,198.3763,192.6769,185.8036,178.2486,171.2287,165.8922,162.0082,158.6446,154.7387,149.988,144.0847,137.5014,130.5883,123.6575,116.9236,110.4905,104.1742,97.92688,91.40161,85.00478,78.36369,71.44783,64.4096,57.2016,50.0885,43.05862,36.21628,29.38619,22.85431,16.81668,10.77262,4.87332,-0.9461785,-6.703875,-12.13019,-17.2597,-22.01545,-26.51888,-30.7806,-34.5738,-37.71426,-40.62391,-43.27516,-45.41814,-47.12651,-48.10719,-48.92434,-49.58338,-49.93537,-49.75312,-49.26373,-49.05515,-48.81938,-48.02961,-45.94233,-42.92566,-39.54518,-36.10809,-32.59247,-29.20297,-25.73811,-22.69347,-19.91077,-17.27343,-15.07303,-13.16225,-11.70029,-10.56047,-9.712057,-9.264364,-9.165657,-9.63419,-10.63237,-10.33087,-8.941778,-8.130408,-6.263647,-3.029012,0.9919911,5.276299,9.569103,13.42494,17.31699,22.55906,29.1252,35.33462,40.53323,44.84746,48.37468,51.51176,56.65639,61.51929,65.34082,67.70678,69.20685,69.91938,70.11461,69.58239,68.15424,66.0752,62.24667,57.14985,51.61841,46.72001,42.57814,38.90384,35.12383,30.84908,26.00613,21.24841,16.95585,13.21881,10.34584,9.457215,10.26734,11.41275,11.31611,9.350101,6.013809,2.174462,-1.776672,-5.24139,-8.382312,-11.3434,-14.17811,-17.03497,-20.16386,-23.66014,-27.6483,-31.59034,-35.70198,-39.71336,-43.6375,-47.2657,-50.60789,-54.02326,-57.14047,-60.29506,-63.53501,-66.31996,-69.04324,-71.53773,-73.98793,-76.08704,-78.0021,-79.8998,-81.264,-82.57149,-83.512,-84.21275,-84.86938,-85.62998,-85.96286,-86.09793,-86.09261,-85.86239,-85.60443,-85.29943,-84.69862,-83.7657,-82.6951,-81.53352,-79.71294,-77.11426,-73.70188,-70.31429,-67.2352,-64.50698,-61.87539,-59.49854,-57.19646,-55.23964,-53.23992,-51.29147,-49.68311,-47.96249,-46.36212,-44.98538,-44.03897,-43.77309,-44.10783,-45.06331,-45.51146,-44.41875,-43.23155,-41.85524,-38.703,-34.95893,-31.41015,-27.94653,-24.29834,-20.46029,-16.00061,-10.70955,-6.548087,-3.816298,-1.317777,1.577806,5.014346,9.321012,13.63619,15.36175,15.61551,15.24066,14.81955,14.13387,13.27086,11.5604,8.920326,5.648199,2.042196,-0.5758869,-1.96773,-2.576628,-3.206359,-4.642816,-6.920246,-8.886389,-9.681192,-9.067633,-7.715057,-6.030697,-4.663666,-3.698693,-3.222082,-2.752816,-2.393779,-2.228984,-2.137476,-2.186806,-2.272826,-2.222053,-2.298525,-2.537065,-2.895112,-3.281265,-3.828962,-4.325963,-5.259458,-6.369017,-7.847671,-9.834209,-11.38328,-12.11736,-12.08463,-11.84009,-11.45006,-11.20038,-11.17765,-10.90942,-10.96908,-10.89253,-10.95297,-10.93595,-11.02454,-11.22786,-11.30985,-11.78703,-12.36874,-13.22588,-14.07276,-14.8786,-15.50064,-16.40579,-17.53724,-18.40183,-18.92031,-19.58105,-20.33578,-21.16683,-22.12358,-22.9213,-23.36287,-23.69082,-24.14031,-24.70474,-25.31415,-25.85753,-26.40589,-26.98131,-27.21776,-27.53283,-27.82548,-28.46628,-29.04389,-29.24704,-29.24469,-29.0686,-28.95005,-29.06116,-28.9935,-28.76127,-28.48498,-28.33058,-28.0227,-27.67899,-27.25326,-26.51835,-25.96534,-25.51061,-25.18246,-24.56895,-23.86816,-23.14085,-22.64192,-21.90634,-21.04599,-20.18481,-19.11355,-18.11967,-17.21214,-16.23214,-15.29387,-14.39974,-13.39231,-12.78545,-12.36873,-12.2621,-12.47345,-13.366,-14.13334,-14.23961,-13.40685,-12.4522,-11.681,-11.13467,-10.09392,-8.197555,-5.925221,-3.978316,-2.66385,-1.444635,-0.6815778,-0.001175251,0.5219786,1.028739,1.381612,1.630563,1.481463,0.886942,0.02222932,-0.8411952,-1.84039,-2.865938,-4.069171,-5.695379,-7.50796,-9.530348,-11.89222,-14.23618,-16.26479,-17.55818,-17.77352,-17.85119,-18.34213,-19.26887,-20.57906,-21.65104,-22.51745,-23.3086,-24.36302,-25.3227,-26.11511,-27.08814,-28.13815,-29.07397,-30.09153,-30.85713,-31.43654,-32.3788,-33.28255,-33.85183,-34.39851,-34.8579,-35.2282,-35.37422,-35.50378,-35.72601,-35.72681,-35.5019,-35.31671,-34.898,-34.23242,-33.72689,-33.28147,-32.71243,-31.84861,-30.55044,-29.22206,-27.76746,-26.59001,-25.69202,-24.35306,-22.7807,-20.8423,-19.04016,-17.24522,-15.58226,-13.92886,-12.39411,-10.78466,-9.333194,-8.399203,-7.404036,-6.045153,-4.214717,-1.751362,1.033788,3.750785,6.310922,8.976181,11.26004,13.22145,14.7104,15.17487,15.62824,16.80586,18.47795,20.70517,22.71816,24.21045,25.23913,26.10845,26.84987,27.28821,27.20529,27.07665,26.70808,26.26181,25.84161,26.36806,27.18614,27.78823,27.58764,26.9086,25.9697,25.03957,24.24216,23.77966,23.10755,22.17934,21.04677,19.63396,18.37113,17.22561,16.15684,15.01003,13.84892,12.32736,11.04373,9.865624,9.097746,8.359418,7.575317,6.700791,5.569226,4.634752,4.022876,3.670237,3.372337,3.208454,2.753525,2.354654,2.141075,2.310637,2.732957,3.109973,3.659694,4.655271,5.561636,6.218552,7.022755,7.996488,8.828433,10.21948,11.49891,12.51303,14.02008,15.54737,16.97393,18.58498,20.23947,21.6719,23.29915,24.78862,26.32141,27.88209,29.2228,30.00891,30.58901,31.47202,33.14994,35.47953,37.99776,40.53848,42.9857,45.29347,47.30744,49.209,50.97834,52.43848,53.68319,54.97751,55.81142,55.81022,55.19742,55.02019,55.19167,55.8068,56.01298,55.74366,55.24741,54.97386,55.52379,56.33249,57.26166,57.67025,57.12777,56.02147,54.82323,53.47344,51.40462,49.55134,47.45691,46.1207,45.51478,45.35399,45.09848,44.56482,43.5543,42.38154,41.29093,40.07902,38.98036,37.97664,36.6362,34.12817,30.72474,28.06328,26.33232,25.51501,24.88382,24.49094,24.54755,25.05845,25.5624,26.06145,26.91588,28.37005,29.77009,31.48751,33.1017,34.81441,36.60778,38.17388,39.43064,40.81434,42.17295,43.39316,44.67803,45.8397,46.56648,46.90746,47.29191,47.59694,47.82886,47.82272,47.62184,47.17239,46.67516,46.32149,45.92647,45.56052,45.16785,44.45653,42.80732,40.27641,37.13943,34.01647,30.37089,25.92133,20.9868,15.47313,9.563144,3.570344,-2.974634,-9.661265,-16.64132,-23.74769,-30.77454,-38.08767,-45.64036,-53.26941,-60.66713,-68.07822,-76.16434,-85.17432,-94.18703,-101.5723,-106.8494,-110.6138,-113.6945,-116.5066,-119.34,-121.6349,-123.635,-125.2124,-126.3189,-126.5276,-126.489,-125.7291,-124.3019,-122.7366,-120.9958,-118.4572,-114.4293,-109.3809,-103.828,-98.33549,-93.12821,-87.4914,-81.63202,-75.76949,-70.36095,-65.40844,-59.72803,-53.11097,-45.52947,-37.16,-28.669,-20.82466,-13.48412,-6.010704,0.8567581,7.709724,13.82598,19.80162,24.92955,29.21251,32.90864,35.71066,37.55868,38.70791,39.02045,38.35085,36.62632,34.09616,32.09998,30.71787,28.95715,26.83625,24.00569,20.90963,17.55151,13.66798,10.41903,7.27592,3.763844,-0.1035675,-4.64037,-9.096285,-13.77214,-18.94237,-24.18992,-29.32627,-34.2075,-38.8273,-43.5053,-48.17454,-52.52561,-56.79475,-61.26663,-65.26414,-68.17808,-69.08101,-68.50256,-67.63755,-66.39871,-64.78547,-62.77332,-59.84911,-56.74573,-53.92224,-51.11775,-48.53559,-45.68838,-42.54496,-39.24234,-35.73931,-32.38087,-29.13228,-25.78376,-22.59991,-19.32718,-15.81705,-12.32469,-9.140799,-6.154235,-3.176022,-0.2579766,2.007027,4.358875,6.343057,7.812649,7.681913,6.618492,5.900191,5.752526,7.653147,10.65596,14.56038,18.6917,22.73883,26.27511,30.04047,33.64518,37.24994,40.76773,43.98223,46.73251,49.6208,51.94862,53.47658,54.69061,55.95097,57.32989,57.72776,57.98197,57.25976,55.71199,54.49513,52.88936,50.92919,49.09522,47.21909,45.49288,44.24033,43.36436,42.56759,42.39072,42.51263,43.09708,42.95033,42.25872,41.46638,40.62025,39.46686,37.60048,35.42394,33.17343,30.57227,27.72789,24.71106,21.27171,17.49328,13.79076,9.838929,6.002848,1.732875,-2.532142,-6.446266,-10.39354,-14.85165,-19.23862,-22.80928,-25.22031,-28.0748,-31.50391,-34.85887,-38.09168,-40.85612,-43.57645,-46.52944,-49.75893,-53.89638,-57.91366,-61.00406,-63.03849,-64.13305,-64.39248,-63.8168,-62.43084,-60.05763,-56.72543,-53.01853,-50.20021,-47.60175,-45.22612,-43.038,-40.71861,-38.05227,-35.6248,-33.26145,-31.0672,-28.52631,-26.06912,-23.75672,-21.55899,-19.56406,-17.86692,-16.17292,-14.55991,-13.21968,-12.28253,-11.31897,-10.52179,-10.17532,-10.04976,-10.47592,-11.54817,-12.873,-14.05944,-16.06613,-18.87001,-22.43459,-24.65289,-25.60273,-25.72289,-24.63517,-23.97835,-23.87854,-24.28534,-25.17078,-26.34971,-27.39761,-28.98566,-31.34152,-32.85472,-34.07494,-34.66247,-34.22449,-33.23934,-32.16975,-31.91461,-31.99293,-32.18157,-32.55504,-32.60481,-33.49252,-34.37487,-34.94632,-35.92899,-37.0169,-38.02141,-39.58116,-40.22236,-39.04482,-36.60268,-33.97881,-31.60412,-29.70238,-28.30085,-26.90256,-24.95264,-22.78514,-20.85236,-19.02719,-16.87833,-14.31297,-12.09933,-10.12956,-8.034887,-6.254648,-5.670572,-5.749661,-5.50155,-4.590372,-3.253051,-1.975255,-0.676639,1.01175,2.785725,5.275315,8.770048,12.83834,16.85343,20.23286,22.84171,25.52025,28.32527,30.50025,32.29185,33.90621,35.45278,36.79677,39.11049,42.16089,45.4244,47.81539,49.15468,50.35394,52.12977,54.51978,56.67398,58.22813,59.20584,59.66993,59.49581,58.83176,58.33824,57.50291,56.20349,54.31096,51.19401,47.21717,42.37807,37.70625,32.41603,26.5722,19.95317,12.80905,5.651568,-1.664278,-9.351592,-17.24178,-25.55441,-33.94315,-42.23924,-50.36349,-58.87038,-67.25523,-75.41388,-83.59521,-91.68204,-99.64016,-107.4003,-115.0032,-122.9241,-130.4976,-137.9375,-144.5208,-149.6342,-153.6369,-157.3008,-161.1141,-164.7241,-166.9846,-167.3472,-166.5888,-165.0886,-163.7023,-162.5719,-161.3426,-159.726,-158.0993,-157.3889,-156.0059,-153.8932,-150.3843,-146.3402,-141.969,-136.3343,-130.3357,-123.4358,-116.6282,-108.9599,-101.1037,-92.6771,-84.49107,-76.73673,-69.16034,-61.53199,-53.38047,-46.21866,-39.68727,-34.394,-28.6997,-23.28588,-19.03826,-16.19464,-14.25281,-13.33098,-12.86034,-12.96414,-13.17597,-13.51113,-13.60884,-14.36868,-15.38045,-16.62736,-18.16618,-20.08799,-21.99774,-24.21918,-26.65511,-29.67714,-33.25613,-36.74785,-40.28231,-43.91052,-49.11282,-53.88062,-58.23254,-62.43717,-67.09825,-71.94529,-76.43894,-80.65782,-84.52682,-87.91314,-91.22146,-94.12078,-96.33516,-97.63616,-98.1836,-98.46805,-98.31345,-97.47886,-95.68893,-93.69216,-92.09383,-91.65361,-91.27499,-90.52274,-88.50956,-86.20514,-84.07107,-82.8166,-81.7581,-80.65448,-79.43922,-78.36836,-77.63071,-77.40324,-77.53288,-77.78217,-78.18365,-78.7396,-79.25288,-80.37231,-81.84183,-83.37082,-84.87052,-86.32689,-87.87869,-89.50844,-90.78066,-91.99589,-92.53395,-92.59787,-92.35372,-91.77741,-92.03963,-92.86727,-93.72548,-94.77562,-95.50559,-96.4336,-97.18483,-98.5693,-100.7084,-102.8567,-104.7419,-107.349,-110.809,-113.846,-114.3518,-113.4516,-111.2742,-109.1535,-106.4922,-103.3453,-100.2568,-96.3213,-92.57575,-88.38186,-84.49169,-80.35146,-76.39363,-72.14516,-68.1456,-63.59654,-59.09275,-54.96862,-50.64932,-46.68134,-42.1484,-38.41776,-34.54777,-30.56605,-26.92594,-23.70757,-20.63389,-17.43063,-14.46564,-11.73965,-9.101851,-6.616836,-4.2683,-2.344985,-0.9462598,-0.1802821,0.2521944,1.003187,2.364996,4.219358,5.925097,7.093929,8.399561,9.49628,9.821442,10.16848,9.901938,9.115865,8.128281,6.370394,4.15096,1.090298,-1.963683,-5.341353,-8.98176,-11.05197,-12.23755,-13.34132,-15.05078,-17.28732,-18.76064,-19.2508,-19.00146,-18.87504,-19.19014,-19.47512,-18.93745,-17.79827,-16.24364,-15.01002,-14.83062,-14.45868,-13.51186,-12.10524,-10.81355,-9.744104,-9.339497,-8.298625,-7.029534,-5.394802,-4.299544,-3.058755,-2.290992,-1.890003,-2.025306,-2.78934,-2.660558,-2.032482,-0.9032564,1.132619,2.763083,4.615035,7.132584,10.71064,13.86907,17.24697,20.1907,23.00148,25.6846,27.84672,29.58695,30.2943,31.36694,32.07831,32.70131,32.69672,31.96425,31.5882,31.50909,32.39378,32.62767,31.44543,30.25297,29.48427,28.6645,28.1426,28.33567,27.90242,27.79026,28.37836,28.70234,29.10332,29.75017,30.08231,30.52889,31.24887,31.62963,31.65034,31.76034,31.76871,31.53918,30.60952,29.97744,28.8238,27.42719,24.9841,22.63232,20.5208,17.81077,13.7574,10.17845,5.882023,0.6239354,-4.386241,-8.488931,-11.61665,-13.98723,-14.9509,-15.01858,-16.02775,-19.02102,-22.7424,-26.05398,-29.93843,-34.23934,-39.06838,-44.44726,-49.74971,-55.35159,-61.77102,-68.08052,-74.81749,-81.26937,-87.9155,-95.80264,-103.2173,-109.9786,-115.6558,-120.5225,-124.9612,-128.8524,-133.019,-137.2567,-141.0611,-145.0487,-148.1154,-151.6821,-154.4965,-156.6932,-158.9142,-161.5609,-163.3173,-164.9201,-166.0631,-167.1441,-168.1678,-168.2725,-167.3267,-167.3789,-167.8436,-168.5535,-169.187,-170.0634,-170.2117,-170.0934,-169.245,-166.7722,-164.0235,-160.4619,-156.4085,-152.7194,-148.0505,-142.5909,-136.6647,-130.9932,-125.3631,-120.4081,-115.1566,-109.6231,-104.1696,-99.40781,-94.74184,-89.79193,-85.42696,-80.27429,-76.32911,-73.03548,-69.79378,-67.27426,-64.81763,-63.76095,-62.5151,-60.16348,-57.25342,-54.69041,-52.38154,-50.10294,-48.83515,-46.22118,-43.62735,-41.82817,-40.17663,-39.07151,-37.43291,-35.03028,-33.44489,-32.09656,-31.02821,-29.60368,-28.46064,-27.4637,-26.78526,-26.23677,-26.31376,-26.16755,-26.00971,-24.82812,-23.93755,-23.02699,-22.4089,-20.64216,-19.38613,-17.3197,-13.90539,-9.633531,-5.37532,-1.821025,1.250484,3.767271,5.497229,7.060232,9.313449,10.72076,11.43368,11.48623,11.58564,11.93071,13.1429,14.96045,16.68695,18.45628,19.0503,19.60925,20.10813,20.58451,22.38986,23.76694,24.64905,24.27335,24.41545,24.11067,23.67857,23.00461,22.21265,21.21221,20.02558,18.30354,16.74256,15.05236,13.41546,12.25187,10.88639,9.091044,7.761977,6.705556,5.980366,5.361417,3.404529,0.8890195,-0.630948,-1.958121,-3.270519,-4.892619,-6.492268,-8.044669,-9.134203,-10.36295,-11.99554,-13.1957,-14.47119,-15.40291,-16.3082,-17.22747,-18.03704,-18.67581,-19.21573,-19.57971,-19.72048,-20.04423,-20.09981,-19.81748,-19.50687,-18.9749,-18.4269,-16.91328,-16.10379,-15.52473,-15.11984,-14.39536,-13.44906,-12.4533,-11.40751,-10.55517,-9.779417,-8.722606,-7.457088,-6.059807,-5.155958,-3.790328,-2.621196,-1.275862,0.005197044,1.173173,2.281794,3.263003,4.616148,6.204129,7.182219,8.579805,9.81024,11.71049,13.06122,14.35444,15.90013,18.40573,21.00309,23.60611,25.5274,27.18823,28.34057,28.80454,29.43598,30.48474,32.06596,33.99166,36.49286,38.70996,40.07761,41.30213,42.07333,42.88531,43.43897,43.07355,43.2391,44.05653,45.49774,47.65883,49.27447,50.52838,51.13662,51.56454,52.22699,52.86279,52.5192,51.27287,49.72163,48.44755,48.01734,47.412,47.77283,47.15929,46.83131,46.27122,45.2963,44.51159,43.4687,42.52439,41.36638,40.07793,38.71884,37.46298,35.77148,33.67065,31.80172,29.85965,27.84545,25.9837,24.05416,21.92337,19.94373,17.64956,15.84245,13.54093,11.67525,9.525364,7.867741,5.763828,3.851546,2.311702,0.563772,-0.8234618,-2.092177,-3.707784,-4.806751,-5.304403,-5.291027,-5.540234,-5.924412,-6.306613,-6.590393,-7.075921,-7.734662,-7.765139,-6.978366,-5.032531,-2.934553,-0.3127467,2.649929,6.068187,9.440012,12.83812,16.26008,19.77209,23.06714,26.4982,29.47346,32.28877,34.84939,36.96518,38.5802,40.24492,41.61621,42.49596,43.24906,44.25396,45.27992,45.50436,45.22898,45.12752,44.78267,44.45797,43.33486,42.46091,40.86757,39.11388,37.38576,35.80045,33.61184,30.79939,27.70395,24.64857,22.75504,21.90837,21.49096,20.96412,20.28837,19.19033,17.9983,17.02102,16.01115,15.07565,14.46927,13.85684,13.14043,12.09775,11.244,10.57348,9.759654,8.7327,7.532178,6.407526,5.779813,4.347757,2.39654,1.212997,1.08161,1.667981,2.315832,2.821101,2.498877,1.895997,1.431121,1.616505,2.380171,4.185939,5.690648,7.542395,9.303751,11.14284,12.78502,14.20352,15.76824,17.3571,18.81699,19.73986,20.14888,20.77934,21.53885,21.78343,21.65265,21.53336,21.64396,21.32202,20.51421,19.03458,17.66238,16.27082,14.96525,12.74682,10.11538,7.84071,5.598317,2.990579,0.2828256,-2.899659,-6.3536,-10.16289,-13.78777,-17.99006,-21.80986,-25.32262,-27.61367,-29.103,-29.97132,-30.87458,-32.01553,-32.35503,-33.18411,-33.84283,-35.23181,-35.92363,-34.13178,-30.82774,-28.6811,-27.6544,-26.42326,-25.05874,-23.83152,-22.71221,-21.7701,-20.70973,-19.47922,-18.3818,-17.30636,-16.7279,-15.83787,-14.84647,-14.27773,-13.88902,-13.17145,-11.33586,-9.125645,-6.964855,-5.299219,-3.805264,-2.071756,-0.5797487,0.5904921,1.493124,1.908985,2.475207,4.004294,6.302267,7.830162,8.721984,9.66723,11.03367,11.94538,11.93046,11.47653,11.81899,13.13241,15.0634,17.53844,19.80086,22.28194,24.42666,26.51259,28.58637,31.11034,34.04157,37.88427,41.91544,45.28252,48.45219,51.10175,53.90405,56.78687,59.06902,60.81725,63.19071,65.76034,69.09877,72.17836,74.1758,75.40532,76.71478,77.78993,78.73749,79.21921,79.20177,79.24779,78.94742,78.14447,76.98782,75.39714,75.50054,76.53385,75.41778,73.19475,71.1481,69.11411,66.70804,64.00202,60.913,58.06669,54.94244,51.90849,48.58331,45.36562,42.04561,38.56536,35.20145,32.28044,29.2295,26.19762,23.35912,20.70345,18.09724,16.09552,13.79314,11.67729,9.869247,8.698907,7.648171,6.373915,6.673701,7.055426,8.613284,10.51391,13.73482,18.34678,21.94129,23.98027,26.27348,29.51432,32.70665,36.09568,39.50083,42.33662,45.36294,49.94354,55.05441,60.48572,65.97444,71.20497,77.02404,82.86617,89.58746,96.75536,104.1829,110.431,116.2841,121.9604,127.1444,132.1945,136.5824,140.6355,144.4866,147.5476,149.742,151.594,153.0027,153.4879,153.4956,152.7115,151.1585,149.0989,147.1043,145.8662,144.8894,143.899,143.1412,141.7364,139.4215,137.0411,134.7934,132.7804,131.8266,131.2152,130.5609,129.7087,128.3814,126.4022,124.2674,121.6262,119.2814,117.136,115.324,114.5546,113.0003,111.0247,110.1918,109.7634,108.9924,108.3676,108.4893,108.9818,109.7887,110.7757,111.2701,112.3633,113.6749,115.6915,117.7168,120.1131,123.7133,126.0691,126.5259,127.337,128.1131,128.3006,128.441,128.1249,127.4884,126.4702,124.3097,122.5776,120.3375,117.8745,114.8008,111.7874,108.8942,105.6819,101.8551,98.58129,95.03879,90.84991,86.78135,82.87868,78.62759,74.17735,70.12077,66.30597,62.05564,57.65601,53.94559,49.94988,46.49135,42.75849,38.86092,35.4393,30.89323,26.11828,21.64324,16.85547,12.26815,8.393329,5.915464,4.735576,5.161113,7.076396,8.903632,11.26726,14.27047,17.52136,21.69784,26.07729,31.22071,37.21755,43.08447,48.49325,54.76979,61.34512,68.35792,75.54814,82.56676,89.31238,95.5656,100.6963,105.4288,109.4293,112.8354,115.6758,118.0199,119.6294,119.9685,120.0296,119.6141,118.7773,116.6358,113.8707,110.8452,106.8589,102.5818,97.42802,91.86007,85.44077,78.94347,71.94254,64.04613,55.12353,46.44472,37.53016,28.44776,19.36633,10.67764,2.073514,-5.979593,-13.48866,-21.99567,-29.83607,-36.65446,-43.27488,-49.27684,-54.8063,-59.49171,-63.74973,-67.34272,-70.03897,-72.09022,-73.47724,-74.30589,-73.91834,-72.81429,-71.75346,-70.86134,-69.56109,-66.47375,-62.30803,-57.74232,-52.97919,-47.43505,-41.22513,-34.71957,-27.95819,-21.26448,-14.02138,-6.048922,2.318938,10.42619,18.76978,26.90881,35.31851,44.35732,53.09217,60.58746,67.76733,75.18536,82.63111,89.48465,95.61633,101.4563,106.7743,111.304,114.0671,115.2063,116.9504,118.4963,118.8794,117.9212,115.5651,112.3433,109.3333,106.5375,102.8021,99.07566,95.47247,92.00574,88.53927,84.31598,78.68317,72.5218,68.09502,64.35177,60.3922,56.59356,53.34127,50.92152,49.06802,47.17765,45.99627,45.66774,45.62247,46.33349,47.09253,46.90665,46.3507,45.7434,45.27766,44.77503,43.15946,41.36635,39.78716,37.65375,35.24101,31.58262,28.49844,24.63004,20.99881,16.39175,11.80947,7.046719,1.988891,-2.699324,-7.70029,-12.69303,-18.46277,-23.53055,-28.44937,-33.61378,-38.8911,-43.86972,-49.07492,-53.99767,-58.75395,-63.75356,-68.51862,-72.90486,-77.18537,-81.24943,-85.2241,-89.03343,-92.44302,-95.56967,-98.268,-100.7572,-103.3189,-106.1252,-108.4581,-112.3776,-116.6775,-119.6412,-121.2572,-122.308,-122.9169,-122.5136,-120.6744,-117.8838,-114.9703,-112.0763,-108.6641,-105.1321,-100.9397,-96.55126,-91.42873,-86.6566,-81.68606,-76.34111,-70.88328,-65.65369,-60.11592,-55.58917,-50.81619,-45.42276,-40.52945,-36.05579,-31.7974,-27.45509,-23.2513,-19.20454,-15.98833,-13.19353,-10.95154,-9.292405,-7.822375,-5.781092,-2.998283,-1.820814,-1.229145,-0.9210045,-1.378488,-1.858107,-3.524552,-5.592144,-8.33334,-11.6983,-15.86836,-20.2892,-25.53474,-31.0665,-36.97605,-42.22171,-46.50272,-51.65245,-56.99704,-62.26833,-67.39063,-72.2863,-77.02781,-81.03263,-84.95722,-89.22334,-92.69852,-96.25617,-99.34531,-102.6906,-106.0176,-109.0211,-111.4021,-114.117,-117.122,-119.89,-122.3898,-124.9085,-126.0215,-127.96,-129.8775,-132.0861,-133.3577,-134.9881,-135.9584,-137.2913,-138.5142,-139.0014,-139.4429,-139.9187,-140.2253,-140.2672,-140.2931,-140.0396,-139.6367,-139.62,-139.355,-138.3798,-137.8283,-135.1956,-132.6901,-130.4828,-128.152,-125.5635,-123.9407,-123.4968,-123.3286,-123.4408,-123.5454,-124.8277,-126.6615,-129.3598,-131.9085,-134.8974,-136.1109,-136.9939,-138.4338,-139.5785,-140.3464,-141.2211,-141.4266,-141.6324,-141.6155,-141.1837,-140.214,-139.7614,-138.4753,-136.9187,-135.2315,-133.29,-131.0228,-128.5689,-125.8358,-123.4053,-120.044,-117.5038,-113.971,-109.4237,-105.0764,-100.5558,-95.79465,-90.826,-85.81906,-80.07146,-74.15769,-68.21136,-62.83808,-57.17891,-50.83671,-44.12346,-37.70317,-31.49968,-25.2023,-18.38991,-11.62941,-5.117712,0.7835299,6.945961,13.42443,19.773,25.91531,31.91112,37.2263,43.11765,48.4575,53.3608,58.00175,60.87606,62.69636,65.11354,67.65318,70.49371,74.16948,78.25337,82.27226,86.07753,89.87055,93.02055,97.11428,100.6569,103.6431,106.1365,108.1449,109.562,110.6158,110.5954,109.1898,108.3986,107.905,105.6255,102.8732,99.68484,95.93739,92.30428,88.36195,83.82336,79.03948,74.59685,69.59277,64.59576,60.00431,54.78812,49.79235,44.84391,40.90156,37.24457,33.82655,30.70881,28.59586,27.9005,25.466,22.55459,19.42864,16.80923,14.0186,10.70674,7.809274,4.847878,2.084941,-0.4132164,-2.865778,-5.780999,-8.49258,-10.41823,-12.33354,-14.35513,-15.98195,-17.04627,-18.2886,-18.72441,-19.04168,-19.85855,-20.52255,-20.17001,-19.50884,-19.49133,-18.87701,-18.47068,-17.0005,-15.99069,-14.53378,-13.60095,-12.5874,-11.58312,-9.847827,-8.743725,-6.827811,-4.470604,-2.084958,0.6978118,3.424033,5.964463,8.23297,11.17072,13.8585,16.73024,18.99846,21.69425,24.40737,27.49394,30.12358,32.00168,33.80941,36.25949,37.94547,38.84484,39.78701,40.57393,41.45034,41.67798,41.28799,40.73196,39.33155,38.09303,36.1795,33.9669,30.72396,27.25519,25.19782,24.81669,24.6608,24.95004,24.95606,24.54722,25.21009,25.73651,26.06615,26.42137,26.97124,27.51133,28.21885,28.26698,28.42655,28.73739,28.79981,28.4174,28.13937,28.41333,27.85399,27.90644,28.70217,29.47575,29.86,30.72348,31.63497,32.31755,32.65595,33.48792,33.6921,34.59598,35.46917,35.82425,36.09102,36.03363,36.84016,37.33466,37.47665,37.426,37.58382,37.87451,38.15636,37.83874,37.51101,37.66709,37.60357,37.14451,37.01312,36.62937,35.92729,36.26915,36.26315,36.06775,35.74839,35.72535,35.18093,35.18522,35.009,34.6302,34.49272,34.80329,34.50945,34.41141,34.18927,33.6866,32.08201,30.1274,29.39715,28.89735,29.09832,28.595,29.38382,29.68301,30.10734,30.99734,32.19305,33.9585,36.01409,38.04484,39.69931,41.4246,42.87758,44.65587,46.12288,47.92075,49.34176,51.31457,52.66821,53.54252,53.98263,55.00889,55.71484,55.5339,56.26519,56.11433,55.60619,55.23728,54.9836,53.89316,52.8365,51.51306,50.65544,49.2415,47.57613,45.49658,43.51113,41.72751,39.08056,36.70669,34.04879,30.92387,28.05096,24.95237,21.32179,17.85253,14.67252,10.99179,7.249445,3.45449,-0.6434474,-4.633462,-8.329082,-12.85183,-16.83595,-21.14818,-25.70606,-30.31778,-34.6068,-38.58955,-42.30191,-45.01434,-47.65474,-51.04373,-54.397,-57.44258,-60.31685,-63.1314,-65.71306,-67.7318,-70.198,-72.0168,-73.81335,-75.43508,-77.15225,-79.22244,-80.42545,-81.13882,-81.99527,-82.24912,-83.09916,-83.3008,-83.30474,-83.71002,-83.95119,-84.1079,-84.17573,-83.85019,-83.76297,-81.96791,-80.42239,-78.39436,-76.76487,-74.88921,-74.09928,-74.4566,-74.47897,-74.49822,-75.25407,-76.37986,-77.89964,-79.72834,-82.08832,-83.92578,-87.24842,-90.62638,-94.012,-95.78687,-97.36184,-98.52339,-99.81626,-101.5132,-102.2199,-102.5681,-102.8173,-103.2218,-104.0011,-102.8669,-101.8342,-100.6171,-100.0011,-98.46609,-96.13473,-93.54275,-90.89526,-88.24246,-85.41446,-82.01819,-78.52041,-75.21275,-71.82635,-67.67603,-63.36937,-59.12271,-54.33883,-50.5304,-46.27412,-41.73894,-37.03281,-32.30646,-27.77595,-23.45948,-18.82112,-14.17126,-9.27239,-5.253067,-0.4993951,3.833507,8.357465,12.54535,16.54623,20.09526,23.88736,27.77281,30.85124,33.54454,35.92864,38.51937,40.54415,41.98866,42.93313,43.75397,45.71881,47.95099,50.18549,51.52126,52.73867,53.45214,54.69521,56.13257,57.02544,57.87267,58.78292,59.16413,59.66413,59.60007,59.22143,58.3214,57.66449,56.94999,54.8079,52.53958,50.26544,47.93656,45.09779,41.92698,39.18483,36.32373,33.15237,30.18555,26.1261,22.58052,19.4503,16.10903,13.24393,10.76484,8.872534,7.269694,6.597404,6.737002,5.240979,3.610591,2.654432,0.7522309,-0.9634104,-3.108387,-4.685178,-5.99474,-7.491488,-8.393923,-9.408098,-10.89098,-11.87304,-12.13602,-13.10955,-14.00585,-15.36886,-15.78335,-16.43588,-16.21115,-16.37021,-17.21383,-17.18302,-16.89317,-16.90616,-16.96474,-16.33003,-15.45079,-14.87747,-14.00264,-13.3949,-12.11158,-10.81678,-9.697751,-8.148138,-6.781708,-5.591612,-3.876585,-2.053748,-0.4226928,1.513044,3.528641,5.227815,7.215274,9.633818,11.45857,12.99528,15.13063,16.8911,19.41205,21.26556,22.61239,24.26276,25.72011,26.53814,27.9105,29.33596,30.70098,32.13905,32.94894,33.85122,34.19432,33.8254,34.0557,33.64851,33.17255,31.92113,30.43157,28.96476,28.02988,27.73914,26.86973,26.90891,26.72734,25.6216,24.73466,23.74668,22.20223,20.67713,20.52764,21.07135,22.06028,22.76848,23.99483,25.44902,27.39028,28.61665,29.98483,31.81435,33.16338,33.77853,35.23988,35.89391,36.64383,37.27914,37.50988,37.70764,37.25178,36.9285,37.02315,36.51551,35.67643,35.09124,34.26792,33.83213,33.37707,32.22613,31.15148,30.61447,29.33398,28.26389,26.83095,26.06606,24.90331,24.33644,23.02159,22.22763,21.45291,20.71931,20.48327,19.96543,19.17401,18.93602,18.89038,18.6458,18.42729,18.65673,18.6907,18.87671,19.23428,19.9013,19.80385,20.59071,21.53434,22.44793,23.38057,24.11701,23.7981,23.412,23.30479,23.61552,24.44753,25.73898,27.19727,29.26604,31.68527,33.64422,36.23404,38.59776,41.28619,44.3772,46.91921,49.7021,52.22646,54.67439,57.12695,59.40119,61.74129,63.75154,66.19735,67.93229,69.25996,70.45148,71.55101,72.9167,75.03974,75.90036,76.14615,76.28019,76.13634,76.4149,75.46484,74.47168,73.69159,72.14954,70.4171,67.26593,64.49133,61.84318,58.85202,55.55455,51.41308,46.87406,42.28133,37.02989,32.4636,27.09594,21.75178,16.99914,14.47039,11.4305,7.592135,3.480908,0.1060634,-3.675115,-6.783608,-10.56218,-14.0004,-18.03859,-21.59542,-25.12279,-28.28464,-32.07406,-35.78852,-38.68874,-42.06112,-44.83461,-48.12763,-50.76536,-53.33114,-55.91326,-58.41046,-60.36419,-62.46154,-64.20618,-65.74975,-67.3153,-68.64735,-70.57098,-71.80515,-72.72978,-73.41822,-73.98648,-75.13035,-75.51381,-75.76251,-75.90707,-76.96809,-77.13218,-77.21719,-76.41166,-75.96844,-75.60811,-74.39208,-72.97297,-71.53362,-71.01339,-71.55209,-71.62895,-72.11884,-72.82679,-74.05047,-75.50646,-77.5444,-79.96995,-83.09512,-86.14184,-89.85663,-92.9525,-95.08434,-96.68725,-98.1066,-99.64337,-101.8684,-103.4821,-104.2918,-105.4862,-106.1944,-106.8546,-106.8016,-106.5527,-106.4487,-106.0678,-105.7586,-104.3942,-103.0496,-101.1188,-99.48641,-97.70464,-95.06728,-92.66557,-90.23634,-87.58945,-84.57525,-81.75162,-78.41891,-75.42549,-72.33684,-69.09263,-66.14307,-62.28928,-58.97162,-55.2341,-51.83272,-48.24345,-44.087,-40.47411,-36.70474,-32.92699,-29.42022,-25.83343,-21.95413,-18.91276,-14.99118,-11.8924,-8.084634,-4.889895,-1.8683,0.8446048,3.952628,6.676578,9.329952,11.92701,13.87839,15.79148,18.22062,19.99811,21.30697,22.6021,24.12598,26.04946,27.44461,28.10463,28.41888,29.35228,29.73565,29.88818,30.11235,29.94285,29.45881,30.16495,30.11341,29.53079,28.35692,27.71414,26.48281,24.77001,23.08194,21.42253,20.1066,18.07574,16.22713,14.41225,12.62207,10.74034,8.441549,7.146887,5.012537,4.591144,4.473522,4.867113,4.671236,5.530326,7.023967,7.31303,8.248491,9.236823,10.20094,11.47169,12.05745,13.04252,14.11151,14.83216,15.5549,15.49927,15.86548,16.64457,17.01681,16.91985,16.37753,16.06714,15.82508,15.80142,15.08873,14.8296,14.52012,14.37541,14.49407,14.04604,13.42929,12.88695,12.5621,12.78271,12.53626,11.82472,11.45303,11.84788,11.21873,11.14655,11.25105,11.05388,11.25829,10.80024,10.67006,10.29061,10.2821,10.25345,10.68425,10.48499,10.56514,11.38054,12.06473,12.64533,13.22672,13.67937,14.35382,15.07532,15.80132,16.51725,16.87132,17.61333,18.71798,19.03405,20.11346,20.55035,21.56794,22.27548,23.22501,23.94151,25.03793,25.68903,26.53678,27.94806,28.47886,29.59004,30.49095,32.15633,34.01087,35.44505,36.84921,38.61165,39.69565,41.38851,42.96965,44.56379,46.20342,48.2486,50.3089,51.44852,53.27239,55.01095,55.82608,56.65617,57.40922,58.24374,58.48725,58.30279,58.78059,58.75977,58.29112,56.97651,56.14559,55.07408,53.75182,51.82376,50.60998,49.57457,48.11131,47.66491,46.25757,45.59193,45.04821,45.01539,44.97216,44.26746,45.23907,44.91703,44.26527,44.21813,43.83374,43.81512,43.13203,42.95313,43.0779,42.64069,43.07527,42.97884,42.93487,42.74153,42.4712,43.26763,43.67343,44.20962,44.24102,44.3852,45.44613,46.07162,46.46027,46.68319,47.15854,46.20648,45.37067,45.32272,45.21628,45.84172,46.75456,47.15938,48.11173,49.18662,49.6135,50.49448,50.77675,52.04187,54.36258,55.19302,56.1424,57.71837,59.86669,60.88877,62.08375,64.28829,65.80089,66.9161,68.11927,69.37108,70.03645,70.79981,70.95452,71.18222,71.32277,71.19728,70.542,69.88949,69.35601,68.15479,66.36346,64.32505,62.72278,60.67155,58.19526,55.06355,52.24376,49.61489,46.10962,42.91696,38.65723,36.27277,32.26697,27.60854,23.473,19.13004,14.39946,9.951717,5.167885,0.1350394,-4.682473,-9.547517,-15.0717,-19.72355,-24.17066,-29.50097,-34.30399,-39.03886,-43.97045,-48.29152,-53.44045,-58.66136,-62.73749,-66.87359,-70.9369,-75.47618,-79.33581,-82.95606,-86.18321,-89.75305,-92.78261,-95.92714,-98.71914,-100.7334,-103.0223,-104.5996,-106.6546,-108.3643,-109.1167,-110.4018,-110.911,-112.2752,-112.7833,-112.7653,-113.0584,-113.287,-113.4229,-112.5312,-111.5666,-111.008,-110.1514,-110.2637,-107.5987,-105.8525,-104.379,-102.1577,-100.4047,-97.84729,-96.40793,-95.07757,-94.41636,-95.47943,-95.89824,-97.07404,-98.53665,-101.26,-102.7104,-103.4862,-104.6313,-105.7474,-107.6374,-109.629,-111.1013,-112.9595,-114.1777,-115.599,-116.9612,-117.2187,-117.7309,-118.9183,-119.2016,-118.6824,-118.2395,-118.1217,-116.9034,-115.1548,-114.4882,-113.2945,-111.4687,-109.157,-106.8629,-104.4451,-101.3345,-98.06438,-94.83847,-91.04199,-87.56646,-83.40968,-78.81486,-74.10652,-69.94597,-65.06419,-59.55419,-54.57139,-49.41085,-43.77381,-38.72986,-33.44198,-28.28251,-22.37328,-16.6514,-10.27576,-5.945063,-0.7536701,5.004459,10.39504,15.14636,20.1539,25.21525,30.17188,35.26018,39.33273,43.77422,48.05469,52.09546,55.63163,59.05837,62.10435,64.63481,67.39806,69.46233,71.21558,72.59288,73.2027,73.6014,73.11241,72.85666,72.94376,72.39971,72.80196,72.57661,71.96608,72.23677,72.39694,72.40157,72.00146,71.30248,70.48819,69.34802,67.74881,65.97761,63.1451,61.02983,58.76555,57.15875,55.87801,54.53605,54.14263,53.99884,53.92127,54.52286,54.82233,56.0215,55.33956,55.97738,56.1356,55.53281,53.75225,51.61296,49.63155,46.7054,43.55128,40.21397,36.87698,33.42177,29.06851,25.44292,21.31468,17.26619,13.21013,9.106048,4.650511,-0.01749132,-3.65618,-7.446791,-12.15291,-15.70415,-19.4215,-23.48366,-26.99421,-30.30009,-33.27479,-36.82859,-39.61093,-41.85153,-44.19422,-46.49547,-48.41152,-49.5918,-50.28849,-50.89845,-51.93263,-51.91134,-52.10645,-51.60294,-50.55395,-49.89994,-49.21668,-47.57,-46.26675,-44.49145,-42.16267,-39.81098,-37.48131,-34.45581,-31.26128,-28.47278,-24.93662,-21.17377,-16.77839,-12.81436,-8.617883,-4.582357,-0.4260415,4.159958,8.295576,13.00901,17.14067,21.42764,26.00146,30.14544,33.97121,37.87189,41.35095,45.02007,48.06715,50.94778,52.90878,54.76743,56.94182,57.49532,57.81791,57.78677,57.73761,57.81088,57.84421,57.73279,57.88354,57.39837,57.55367,56.721,56.66702,55.75739,54.58212,53.77922,51.55281,50.24742,47.99897,45.56829,43.20194,41.34663,39.35434,37.85926,36.88314,36.34259,36.23126,36.24368,36.33998,36.1541,36.29954,36.82951,36.67527,36.39508,36.4987,36.91859,36.4068,36.81946,36.48369,36.73503,36.754,37.08149,37.45178,37.21037,37.58338,36.85723,37.24915,37.97792,38.11876,38.56921,39.90582,40.91228,41.29199,41.76214,42.43125,42.3762,42.58732,43.90651,44.45872,44.88206,45.57358,45.88686,46.91819,46.81561,47.62038,48.09153,48.40713,48.13455,46.38081,44.47821,42.28124,41.14739,40.30566,40.17928,39.70618,40.12395,40.74829,40.86708,41.4275,42.32857,42.72141,43.8901,44.75393,45.17128,45.16358,44.89834,45.86884,46.08302,45.77319,45.67811,45.38732,44.81326,44.43012,43.23578,42.27807,41.54595,40.57245,39.56932,37.59481,36.01863,34.52001,32.71579,30.37422,28.52917,25.92898,23.37382,21.13577,18.50775,15.30591,12.49343,9.310265,5.802636,2.968787,-0.8640593,-4.325686,-7.855783,-10.89157,-14.60869,-17.35142,-21.05582,-24.54482,-27.44062,-30.07012,-33.62972,-36.19053,-39.73745,-42.68656,-45.47034,-48.99211,-52.58759,-55.42988,-58.23902,-61.32381,-64.01341,-66.3146,-69.39159,-71.15285,-73.24542,-75.87929,-77.84052,-79.59119,-81.49832,-83.02969,-84.7854,-86.07293,-87.57693,-88.91702,-89.16158,-90.5186,-91.21605,-92.012,-92.53407,-92.65983,-93.0207,-93.15052,-93.24812,-91.72483,-90.67783,-89.59486,-88.62489,-87.20579,-86.51524,-85.54688,-84.09407,-82.68186,-81.08157,-79.41713,-76.61135,-75.28105,-73.85889,-73.04251,-71.96434,-70.88788,-69.90245,-68.90606,-70.41885,-71.21718,-72.83267,-75.11976,-76.89389,-77.77233,-77.71919,-78.51143,-78.81048,-79.56794,-80.19064,-80.8627,-81.28306,-81.62734,-82.59714,-83.09189,-83.42721,-83.9901,-84.12369,-84.44085,-84.38177,-83.10322,-82.60009,-81.63203,-80.27277,-78.89535,-77.08281,-74.72697,-71.93387,-69.22594,-66.62992,-63.42846,-59.91561,-56.14131,-52.43054,-48.20783,-43.78989,-39.34907,-34.04985,-29.41705,-24.32528,-19.49724,-14.65482,-9.083453,-4.127999,1.200598,6.542259,12.23004,17.9737,24.27914,29.52256,35.04909,40.57937,46.86978,51.98308,56.84142,62.6508,67.696,72.16883,76.92801,80.90015,85.17871,88.78151,92.75114,96.32009,99.60637,101.9023,105.0116,107.4009,109.1406,110.6668,111.9912,112.8914,113.7466,113.9907,114.1251,113.7433,113.2895,112.5908,111.3949,109.4713,107.7238,105.5087,103.1317,100.5313,97.32607,94.50022,91.76263,88.48164,85.16769,81.3838,77.74433,74.16584,70.91905,67.24476,63.48613,60.33801,57.53074,54.92027,52.45219,49.80282,47.43623,46.22595,44.38556,42.95274,41.78551,40.53365,39.95107,39.63608,38.11329,36.2931,35.53851,33.99898,32.49183,31.14569,30.08386,28.42633,27.1991,26.21815,25.37033,23.74501,22.47637,21.14303,20.16612,18.4334,16.88772,15.31443,14.00286,13.81895,12.36543,12.16649,11.45646,11.03946,10.31555,9.681957,9.121542,8.153849,7.448221,6.803472,5.87846,4.206867,3.523616,1.688654,-0.1391465,-2.260411,-3.799469,-5.446012,-6.869533,-7.538673,-8.485413,-9.860008,-10.85123,-10.92427,-11.3481,-12.17805,-12.64534,-13.70144,-14.64931,-15.58544,-16.73023,-19.34502,-20.12353,-21.66663,-23.55708,-25.63326,-28.18429,-29.93485,-32.58128,-34.83503,-37.2836,-40.1901,-42.91735,-45.76329,-48.47668,-51.24053,-54.62571,-57.87069,-60.45192,-63.30741,-65.52654,-68.04956,-70.17903,-71.24288,-72.03222,-74.15792,-76.26919,-78.54895,-81.02375,-82.72655,-85.2724,-87.81433,-90.40136,-92.54675,-93.99345,-94.88514,-95.90044,-97.14014,-98.92946,-100.244,-101.3234,-102.8736,-103.897,-104.7077,-104.8863,-105.3477,-105.3886,-105.2097,-104.9823,-104.2067,-103.2384,-102.0348,-100.6549,-98.88545,-97.32388,-94.62918,-91.86872,-89.47292,-85.94608,-82.35132,-78.04817,-74.10393,-69.48421,-65.16086,-60.05259,-55.25206,-50.00841,-45.19181,-39.64868,-34.22454,-28.18378,-23.38911,-17.72805,-12.29611,-6.353832,-1.095734,5.27444,11.02006,17.18905,23.41095,28.95765,35.28015,39.77975,45.27845,50.28335,55.32174,59.68474,63.49591,67.26468,70.68656,74.14657,76.21939,79.21456,80.73987,82.91072,85.4883,88.14486,91.19918,93.3325,95.72395,97.94982,99.97133,101.9764,103.0326,103.7607,104.9304,105.7467,105.8365,105.6386,104.7412,102.9047,101.1633,100.3145,98.55516,97.38502,97.08468,96.28357,96.03857,95.03022,94.13379,94.57401,94.5296,93.59928,93.1636,93.08511,92.69002,92.60782,92.14665,92.45256,92.5163,93.08577,93.51375,93.63283,93.64032,92.80315,91.22425,90.54986,89.66674,88.19987,87.36305,85.98692,84.75933,83.80191,82.66576,81.72176,80.55383,78.18208,75.7985,72.9383,70.56294,67.99055,65.26815,62.19185,58.92586,55.42445,52.03323,48.37266,44.31633,40.37525,36.12978,32.00432,27.62307,22.46855,17.09475,12.70394,9.163806,5.351354,1.701742,-1.496717,-4.386188,-6.808456,-9.349213,-10.94644,-13.82605,-16.14665,-18.3958,-20.20444,-23.20926,-25.20134,-27.14961,-29.18261,-30.78007,-31.99609,-34.15033,-35.54814,-37.20417,-37.98905,-39.34216,-40.95353,-42.30137,-43.59759,-44.56301,-45.73032,-47.01804,-48.06437,-49.38055,-50.32531,-51.7409,-52.71866,-53.65449,-54.65152,-55.37709,-55.97087,-56.76249,-57.91201,-57.9656,-58.84407,-58.82944,-60.08741,-60.78018,-61.54038,-61.99804,-63.08076,-64.77106,-65.90099,-67.46409,-68.98521,-70.94094,-73.95825,-76.12788,-78.12321,-78.78581,-78.95987,-79.25106,-79.47261,-79.09338,-79.0973,-78.34868,-77.97052,-76.7543,-74.9983,-74.4444,-72.97692,-71.4227,-69.69618,-68.42775,-65.8968,-63.84938,-61.65461,-59.53833,-56.92578,-54.3156,-51.19919,-48.43863,-45.64097,-42.49887,-39.05975,-36.31657,-33.10936,-29.97057,-26.91731,-23.88431,-20.51786,-17.34921,-14.33181,-11.80583,-8.568933,-5.680772,-3.150241,-0.6847746,1.229476,3.41452,5.28523,7.113407,7.931694,8.99589,9.629621,10.57337,11.11255,10.81698,10.79987,10.37647,10.52763,10.85091,11.37663,11.67812,12.54396,12.88012,13.20042,13.41639,13.68274,14.26459,14.86395,14.66434,15.00268,15.01633,16.06683,16.51804,17.84874,18.69156,19.57133,20.82646,22.27969,22.8254,23.94742,24.28369,26.12016,27.07442,27.90885,28.94648,29.41579,30.54522,31.1739,32.15147,32.66231,33.16537,34.04221,34.69474,35.85407,36.34296,36.65436,37.8164,38.79191,39.77117,40.03279,41.02544,41.48134,42.91844,43.31515,44.11942,44.74971,45.98056,46.34888,47.10593,47.46577,47.77181,48.49858,49.0292,48.5329,47.93769,47.22949,48.2716,49.24724,49.20258,50.49757,51.26993,52.47828,53.93405,55.17091,56.01864,56.84045,57.4891,58.83021,58.91089,59.94355,59.87805,60.79292,59.73761,58.10422,57.53529,56.5232,55.56531,55.30419,54.1617,55.15597,54.74463,55.37816,55.98793,57.53385,58.72242,59.78964,60.80945,62.74889,64.27782,65.33662,66.47409,67.71767,68.20632,69.27679,69.68639,70.12905,70.50016,71.27088,71.23917,70.89251,70.55101,70.42108,70.11789,69.38185,67.81683,66.61347,64.76292,63.34799,60.73719,57.78159,55.00085,52.00941,48.69427,45.10467,41.69511,37.78691,33.82376,29.97201,26.12913,21.86745,17.04733,13.16568,7.899579,3.518665,-1.222278,-6.256688,-11.1621,-15.96548,-20.98651,-25.95621,-31.14606,-35.12989,-40.02129,-45.10754,-49.43869,-54.07972,-58.7917,-63.05115,-66.86621,-71.32422,-75.04138,-78.86876,-82.66517,-85.95331,-89.35498,-92.14474,-94.92015,-97.56093,-100.4164,-102.7301,-104.7972,-106.8785,-108.4573,-109.8237,-111.0388,-112.6175,-113.6663,-114.9862,-116.0447,-117.2754,-117.6368,-118.2915,-118.1898,-118.099,-117.0308,-113.9082,-111.234,-108.8747,-106.2529,-103.625,-101.8377,-100.2662,-98.93,-98.40259,-97.31998,-97.28043,-97.66503,-98.14018,-99.04385,-99.8646,-102.1627,-104.5824,-107.3433,-108.8711,-109.8434,-111.7225,-112.7719,-113.2883,-113.3789,-113.19,-113.9793,-113.1252,-112.7993,-111.4876,-110.5341,-110.145,-108.6259,-107.2365,-105.172,-104.0484,-102.1261,-100.0892,-97.74549,-93.97255,-90.86164,-87.88057,-83.96549,-79.632,-75.32884,-70.60195,-66.09327,-61.16599,-56.10918,-50.74116,-45.61577,-40.0789,-34.48155,-28.74743,-22.98441,-17.12572,-11.13975,-5.91348,-0.0551012,5.370943,11.39128,16.38349,21.994,27.00603,31.84816,36.615,40.69975,44.5701,48.42235,53.01789,57.25375,61.10633,65.43847,69.38612,73.17603,76.46257,79.68839,82.71142,86.06871,88.75349,91.87667,93.29742,95.32739,96.94763,98.1864,99.20231,99.31702,99.38578,98.91502,97.72416,95.7065,93.72038,91.60976,90.6261,89.16797,87.88182,86.03443,85.09314,83.25978,81.60981,80.0174,78.36753,76.23962,74.22405,72.62679,71.29852,70.27022,68.63555,68.01493,67.08641,66.64771,65.82095,63.6819,62.25224,60.68264,58.34504,56.34107,53.82482,52.33333,49.66932,48.12313,45.41296,43.57641,41.59236,39.87755,37.94588,36.25322,34.49465,32.85272,30.79536,28.64079,27.38922,25.72769,23.91841,22.68062,21.28573,20.15919,18.98321,17.9484,17.03071,16.1582,14.99121,14.44103,12.97034,11.99306,11.34865,11.39537,10.73308,10.37868,11.19906,10.49557,10.55465,11.11451,11.06344,11.22088,11.66921,12.03907,12.59039,12.76611,13.37585,13.79583,14.61278,15.28996,14.69348,15.25635,15.49526,15.7384,15.20713,15.01642,14.7172,14.34776,13.0117,12.41094,10.44506,9.185098,7.757492,6.578485,5.046303,4.069713,3.46649,2.222822,1.348634,0.1936504,-1.080086,-2.706623,-3.825272,-4.924125,-6.487388,-7.375469,-9.627322,-11.09485,-12.87309,-15.23403,-18.09481,-20.52379,-23.19899,-26.20867,-29.24896,-32.78375,-35.88261,-38.51261,-40.02988,-41.18747,-43.02195,-44.34196,-45.86533,-47.01663,-48.03892,-49.85666,-51.34784,-52.37279,-53.98092,-55.60914,-57.34975,-58.73264,-60.66943,-61.88496,-63.30426,-64.64468,-66.2962,-67.31165,-68.82735,-70.30201,-71.52588,-73.1225,-74.9409,-75.89564,-76.76673,-77.40079,-79.31471,-80.07086,-80.61652,-81.55244,-82.55635,-83.82855,-84.90313,-85.96398,-87.59876,-89.3508,-89.69607,-89.62142,-89.81175,-90.69618,-90.86161,-91.3974,-91.96142,-93.30592,-94.53454,-95.98671,-97.88114,-99.96325,-102.7513,-104.9836,-108.16,-110.7574,-112.8852,-115.6158,-118.2098,-120.4769,-122.7997,-125.6427,-127.3004,-128.1178,-129.3943,-130.7462,-131.2506,-131.6551,-131.9032,-132.3666,-131.898,-131.1262,-130.3704,-128.9388,-128.0845,-125.6069,-122.9481,-120.7094,-117.6837,-114.1529,-110.3241,-106.2651,-102.498,-97.21387,-92.48515,-87.10488,-80.90279,-74.9481,-69.25065,-61.97626,-55.78524,-48.81385,-42.31561,-34.76962,-27.07934,-20.05072,-12.14526,-4.543929,3.392303,11.72778,19.23461,27.4494,35.13399,42.79496,51.04682,58.59089,66.16047,73.40916,80.75352,87.95955,94.47057,100.8867,107.2735,113.3618,119.0487,125.0276,129.0676,134.0924,138.3908,142.4666,145.4624,148.828,151.3502,153.8495,155.7346,157.1777,158.3914,159.3315,159.9441,160.3786,159.5826,159.7515,157.2102,155.2159,152.5823,149.0158,146.5752,144.8348,142.8944,141.3075,140.0805,139.9295,140.3896,140.4053,141.1184,141.8415,142.4592,144.3054,146.3771,148.2043,151.2844,152.5813,154.2298,156.298,157.017,158.0747,158.5124,158.4466,158.4093,158.0819,157.0508,156.1241,154.5023,153.0142,150.824,148.9966,146.7801,144.3438,141.6678,138.9732,136.0645,133.1095,129.8895,126.9278,122.698,119.2323,114.7493,110.6604,106.3941,102.2273,97.51775,93.08266,87.53479,83.74941,78.75968,74.2212,69.17193,64.19146,59.95303,55.50742,50.67424,46.18068,41.22177,37.86308,33.22023,29.23111,25.15771,20.91491,18.05202,14.20541,10.15746,7.013628,3.178964,1.309417,-2.180584,-5.00569,-7.394549,-8.830033,-9.766165,-10.61503,-11.03849,-10.93777,-10.37652,-9.906469,-9.041378,-8.094149,-6.733789,-4.847241,-2.373579,-0.18583,1.991726,5.66685,8.197358,11.63431,15.05051,18.56801,21.29816,24.90505,28.6843,31.69569,34.33434,37.29536,39.55771,42.23008,43.75904,44.58153,45.40177,45.76501,45.68053,44.5429,41.8574,40.04272,35.97765,33.60222,29.65303,26.26102,24.66078,21.91477,19.93576,17.46695,15.77714,13.6254,11.28905,8.320291,6.352508,3.495163,0.3381906,-2.161213,-5.868449,-9.531245,-12.88483,-17.4375,-21.73127,-26.30923,-31.81348,-36.23258,-42.36066,-47.43957,-53.15799,-58.06956,-63.49668,-68.9625,-75.06535,-80.58475,-85.27072,-90.82725,-95.51643,-101.0129,-105.5911,-109.9625,-114.4267,-118.2918,-122.1407,-125.4186,-128.4889,-130.7474,-133.5926,-135.0908,-136.3344,-137.6207,-138.3633,-139.4921,-139.5558,-138.2216,-137.66,-136.4647,-134.258,-132.031,-129.508,-126.3889,-123.6955,-120.5692,-116.8334,-112.7241,-108.5267,-104.1106,-99.41479,-94.96024,-90.3799,-86.57641,-81.50765,-77.70396,-73.61034,-69.20592,-64.75535,-59.82397,-55.18082,-50.39102,-46.10906,-41.33993,-37.54365,-33.88912,-30.20696,-26.82798,-23.28888,-19.81998,-16.5737,-13.39969,-11.00423,-8.629863,-6.689498,-4.486007,-4.070099,-2.75857,-2.594727,-1.933768,-1.790978,-1.097664,-0.8829219,-1.130398,-1.431322,-1.804546,-3.613192,-4.440836,-5.777196,-6.247633,-7.343383,-8.354727,-10.16176,-11.3846,-12.689,-13.20554,-15.34879,-16.70226,-18.4537,-20.05902,-21.01617,-23.57222,-25.10654,-27.24003,-28.55449,-30.48992,-32.61793,-34.8945,-36.98234,-39.40402,-41.94812,-44.47015,-47.22801,-50.06819,-52.97337,-55.85116,-58.89719,-61.65811,-64.6497,-67.14481,-69.60475,-71.71464,-74.94651,-76.63251,-79.28734,-81.19052,-83.65663,-86.26953,-85.92703,-87.00257,-87.28809,-88.65666,-89.77333,-91.43405,-92.26548,-92.791,-93.01952,-94.12875,-95.51564,-96.05018,-97.65482,-98.86681,-100.3351,-101.8352,-102.9285,-104.5972,-104.7183,-105.1393,-105.8615,-106.272,-106.0226,-105.6323,-105.4046,-104.5405,-103.3754,-101.7692,-99.01695,-97.24331,-94.27568,-91.3387,-87.20255,-84.29796,-79.83268,-75.74904,-71.04985,-66.22266,-60.76311,-55.17209,-49.17998,-43.48144,-37.04117,-30.72855,-24.39746,-17.77969,-11.41661,-4.268118,2.017964,9.058473,14.84497,21.51415,27.62698,33.83783,38.32389,43.86189,48.90776,53.95783,58.19659,63.49521,67.5406,73.2229,77.81937,81.98801,86.45589,90.06789,93.8917,97.64178,101.5449,106.1625,110.2198,114.4905,118.0332,122.058,125.394,129.3791,132.676,135.7557,138.1876,141.0874,142.9661,144.4725,146.3863,147.8811,148.7177,149.5769,149.9141,149.6684,149.6629,148.6785,147.6482,146.1404,143.4338,140.4418,136.3997,132.8611,130.3233,128.2792,126.1351,124.965,123.9603,124.0233,124.2983,124.0896,124.6724,125.9125,126.214,127.92,128.5266,130.7269,133.5215,133.5725,134.1552,134.6823,134.7632,135.0748,136.0038,135.7274,135.583,133.5388,131.7585,130.9362,128.3333,126.6214,123.8044,121.028,117.6558,114.4262,111.1966,107.6263,102.8318,98.93759,94.86689,90.61492,85.19104,81.16927,75.92188,70.52809,65.52639,60.07895,54.68536,49.23208,43.44714,37.54099,32.16179,26.08181,20.49428,15.28096,9.753131,4.23976,-0.6858345,-6.103642,-10.80969,-15.42569,-20.56351,-24.41949,-29.30501,-33.37991,-37.71893,-41.09992,-45.29815,-48.91972,-51.81914,-54.70024,-58.28325,-60.13713,-62.89431,-65.77088,-67.61602,-68.8212,-69.96834,-69.72709,-70.00324,-69.2582,-68.03361,-67.00085,-65.02206,-63.41018,-61.62807,-59.58429,-58.1174,-56.40169,-54.69454,-53.01749,-50.30038,-47.79435,-45.40351,-42.58396,-39.69026,-36.6555,-34.35934,-32.23569,-30.1283,-28.09728,-27.05552,-26.34083,-26.60536,-27.06809,-27.83394,-29.85158,-32.5812,-35.80132,-39.71701,-42.52484,-45.76541,-47.4893,-49.26659,-50.99515,-53.05069,-54.279,-55.72735,-56.82662,-58.80126,-60.5935,-62.09226,-63.58078,-65.46201,-67.30296,-68.88933,-70.86413,-72.68189,-74.27314,-74.98075,-75.02103,-75.27512,-74.67599,-74.08273,-73.01078,-71.52769,-70.53155,-69.07056,-67.74327,-67.12809,-65.1438,-63.0236,-60.55216,-58.51595,-55.60261,-53.01072,-49.38484,-46.69409,-42.97234,-40.23563,-36.66781,-33.47539,-30.45975,-27.7243,-25.03297,-21.81008,-19.23704,-17.12454,-14.78646,-13.11526,-11.09044,-9.15033,-7.226152,-5.69494,-4.142046,-2.71569,-1.407992,-0.08175676,0.6171932,1.80993,2.54317,2.995325,3.722923,3.357485,3.938638,3.04323,3.40188,2.84605,1.968982,1.598246,-0.2116795,-1.451587,-2.368059,-3.860487,-4.467176,-4.654488,-4.423701,-4.419022,-4.545075,-4.624766,-4.681844,-4.366804,-4.498427,-4.725227,-5.382182,-6.13805,-6.514909,-7.084181,-7.692452,-7.514475,-6.524871,-5.186619,-3.527981,-1.079202,1.57142,4.530948,8.033945,11.07754,15.05284,18.66647,22.72467,27.10478,29.93493,34.27743,37.29929,40.71821,44.01465,46.67243,49.41801,51.54537,53.63105,55.12658,57.037,58.1116,58.27564,58.98075,59.27178,59.30018,58.6199,57.8126,56.62399,55.33135,54.20753,51.69307,49.4349,47.19954,45.26742,43.52633,41.76147,40.09684,38.65036,36.72744,34.85598,33.18154,31.01122,29.31044,26.60227,24.73234,22.06265,20.39121,18.74915,17.97032,16.65879,15.57727,15.47811,15.31156,15.81358,15.92987,16.64749,17.37444,18.10658,18.82892,20.10609,21.71847,22.28018,24.28304,24.33085,25.05386,26.20966,27.00631,28.56479,30.06909,31.82004,32.81531,34.37704,35.29232,36.7977,38.48074,39.48247,40.95438,41.81716,42.76271,43.57436,44.35088,44.9096,44.72056,45.45567,45.02513,44.82297,44.05187,43.59951,43.01539,42.40671,40.99706,40.23975,37.92297,36.33416,33.99678,31.55863,29.11403,25.65954,22.6011,18.64464,14.69913,10.20953,5.597877,0.7231522,-3.355836,-7.902124,-11.74302,-15.44483,-19.30646,-21.96257,-25.07156,-27.96338,-30.64574,-33.06873,-35.7993,-37.61309,-40.59868,-42.33553,-44.56154,-47.56447,-48.7788,-51.14944,-52.66154,-54.14203,-56.16651,-56.92657,-59.1183,-59.92815,-61.30809,-62.08395,-62.99752,-64.53505,-64.55031,-65.84638,-65.95897,-66.09772,-65.81742,-66.43888,-65.97841,-66.0289,-65.56857,-65.54756,-64.63262,-63.36739,-62.8935,-60.35526,-58.83638,-58.42268,-58.08364,-57.1973,-56.91962,-57.55688,-57.63027,-59.44865,-60.0275,-61.7078,-62.60517,-63.64633,-64.45197,-65.38994,-65.78186,-66.44206,-67.17013,-67.50294,-67.83742,-68.50495,-68.74305,-69.34983,-69.13456,-69.21888,-69.56388,-69.0508,-69.31027,-69.96136,-68.87273,-67.50355,-66.62566,-65.96415,-64.63302,-63.06022,-61.80031,-60.0284,-57.93203,-55.6993,-53.28936,-50.84655,-47.9648,-45.48104,-42.74852,-39.53593,-36.50469,-33.41501,-30.26003,-26.52894,-23.34902,-19.76506,-16.61796,-12.60813,-9.620973,-5.721388,-2.381114,1.092089,4.458803,7.611761,11.15867,13.92907,17.77889,20.33811,23.41903,26.21159,28.86006,31.5329,33.74749,36.15959,38.59757,40.2286,41.88865,42.8825,43.1168,44.71517,45.70973,47.17015,48.49183,49.63998,50.18503,51.26633,51.69341,52.65243,52.62384,52.83729,53.28348,52.88143,52.23587,51.82945,50.67971,50.12117,47.91789,47.12806,44.45492,42.83503,40.641,38.20467,35.22379,31.91452,29.91725,27.92072,26.30135,24.73284,23.93397,23.42542,23.18589,23.65851,24.3666,24.17771,24.92172,25.42457,24.45374,23.57066,23.00125,22.60763,21.41289,20.40628,19.86586,18.55906,17.64033,17.00541,15.98054,15.21856,14.11657,13.01033,11.8554,10.68333,9.272225,8.042572,6.773058,5.345423,4.306164,2.148924,0.8304918,-0.7749503,-2.893346,-4.595759,-6.53026,-8.28092,-9.134899,-9.458659,-9.888425,-10.25881,-10.0275,-9.828685,-8.924784,-8.65837,-7.950037,-7.491347,-6.829803,-6.277588,-5.964984,-5.433897,-5.294318,-5.242606,-4.577935,-4.537954,-4.163244,-4.320574,-4.265979,-4.314036,-3.84647,-3.731351,-4.154193,-4.401097,-4.719536,-4.610715,-4.423861,-5.521991,-5.239793,-5.702463,-5.263374,-6.081665,-6.586415,-6.931238,-8.056032,-7.913903,-8.565812,-9.131593,-9.974759,-10.5021,-11.06267,-11.38211,-11.25486,-10.31297,-9.767878,-8.335398,-7.798509,-6.804353,-6.500617,-4.900967,-3.980393,-2.481411,-2.120596,-1.141244,-0.1667795,0.4663189,1.626794,2.093725,2.882176,3.007772,3.452386,4.110143,3.827769,4.484914,4.246562,4.39326,4.455151,5.753812,6.9443,8.353363,9.950565,11.07421,12.82746,14.37573,15.61446,17.72853,18.72419,20.1308,22.13954,22.95327,24.43099,25.71979,27.12688,28.08004,29.41648,30.6486,32.30857,33.38717,33.8778,35.38478,35.55954,36.85183,36.94102,36.72929,36.92895,36.90796,36.73608,36.28689,35.59926,34.46953,33.63428,32.63787,31.85443,30.73317,29.34089,29.77769,29.63258,29.79213,30.32516,31.05499,31.43343,31.86318,32.16989,33.27809,34.22649,35.52646,36.86523,38.75699,38.51555,39.22209,39.452,39.5155,39.55993,38.76494,38.53735,35.91395,34.06638,32.70789,30.69501,28.85993,27.92139,26.30055,25.59989,25.2248,24.85628,25.629,25.91869,26.77349,28.25121,28.96417,30.44218,31.86836,33.5039,35.09878,36.18778,38.72448,40.05869,41.83974,43.45788,45.35233,46.85051,48.82454,49.97495,51.39778,52.57729,53.35041,54.17352,54.89185,55.11472,55.44891,54.7915,54.90715,54.06555,53.79335,52.59153,51.47342,50.48256,48.90969,47.23615,44.81764,43.02481,40.88438,38.46598,36.18752,32.79242,29.78174,27.20022,23.46114,20.06632,15.73422,12.07069,7.913718,3.998245,-0.5851242,-5.152328,-9.612297,-13.98483,-18.30079,-22.39762,-27.17481,-31.65634,-36.15387,-40.45098,-45.2287,-49.27554,-54.09309,-57.86746,-62.51966,-66.76742,-70.61528,-74.95391,-78.46583,-82.33853,-85.98007,-90.03728,-91.57711,-94.80322,-97.31885,-99.47557,-101.9358,-103.3618,-104.2756,-105.3699,-105.7995,-106.3545,-106.5735,-107.2739,-106.5099,-106.9782,-106.4051,-106.1731,-105.7221,-104.4435,-102.9953,-102.1164,-100.8526,-100.6341,-100.2582,-100.9185,-101.1217,-102.015,-102.7526,-104.0908,-106.1675,-108.193,-110.679,-111.7187,-112.2758,-113.407,-113.6166,-113.8767,-113.5292,-112.9935,-112.1698,-111.348,-109.7374,-108.4429,-106.4943,-104.6786,-102.9695,-99.84461,-97.63693,-94.26385,-92.05595,-88.84013,-85.46751,-81.92746,-77.7602,-73.77903,-69.22897,-65.10486,-60.65308,-55.92931,-50.96978,-46.78983,-41.7371,-36.94154,-31.89251,-27.14538,-22.20751,-17.71464,-12.85929,-8.010056,-3.097789,0.7179026,5.643264,9.533665,13.82599,17.03962,20.69894,23.30554,26.23728,29.64454,33.15499,35.7442,39.11893,42.17185,43.82787,46.92093,48.83518,50.82655,51.40104,53.40561,54.72457,56.14578,57.34176,58.15326,58.95564,59.60459,59.87403,59.23822,59.43091,58.76168,58.03404,57.56361,55.73456,54.60004,52.16903,50.75849,48.4867,46.33163,43.75928,41.09401,38.26742,36.31529,34.46486,30.18018,28.62177,26.03718,23.86154,21.63664,19.50823,17.32347,15.2439,13.51662,10.36196,8.312493,6.437769,4.013482,1.865634,-0.350447,-2.410028,-3.659495,-5.51934,-7.24106,-8.165211,-9.639533,-10.71253,-11.3962,-12.38199,-13.01247,-13.64666,-14.20724,-14.43502,-14.13637,-14.05374,-14.00979,-13.43142,-12.74238,-11.95903,-11.24748,-9.771178,-9.236208,-7.288297,-6.414716,-4.189571,-3.256297,-1.030198,0.1900063,2.199124,4.866387,6.236509,8.891283,10.78865,13.92428,16.8608,19.6822,22.2747,25.79304,28.99532,32.13525,35.11578,37.9844,41.13564,43.91909,47.07998,48.9346,51.43274,54.141,55.43352,57.62663,58.65695,59.72703,61.22621,61.56968,62.45613,61.58767,61.82331,61.73054,61.21117,60.99426,61.34296,61.71044,61.76217,61.32568,61.31876,60.21602,59.70066,59.78645,58.20131,57.71264,56.71843,57.0874,56.66755,56.51014,56.25188,55.93648,55.88826,55.95989,56.07421,55.88078,55.95656,55.26881,55.64914,55.67068,55.06918,54.86537,54.32512,54.16735,54.02526,53.86044,53.3388,52.69692,53.03424,53.54206,52.98503,52.64838,53.1855,52.91061,53.31275,52.8506,53.02085,53.0095,53.41565,53.15309,52.98704,52.54262,52.62063,51.06107,49.50614,48.36599,47.41698,47.42537,47.72395,48.4401,49.05697,49.91082,51.10928,52.38058,53.36647,54.95461,55.24973,56.16088,57.56314,58.46505,58.49455,58.86033,59.12995,59.25673,59.55565,58.78274,58.48573,56.8475,56.61358,54.9436,53.71141,50.92887,49.52201,46.70522,44.71195,42.97875,39.50811,37.09951,34.63224,31.55278,29.09758,25.02851,22.13467,19.14064,15.81607,12.71951,8.067995,4.595723,0.7286953,-2.972416,-6.873204,-11.2597,-14.71691,-18.54234,-23.07368,-26.05384,-30.53664,-34.216,-37.15157,-41.00277,-44.29096,-47.63161,-50.65992,-53.58267,-56.56761,-58.77639,-61.67791,-64.00307,-66.2987,-68.38117,-70.46094,-72.38305,-74.1703,-75.70911,-77.17975,-77.73364,-79.32774,-79.67194,-80.51033,-80.88454,-80.86046,-81.52243,-81.72349,-82.00931,-81.46879,-81.36451,-80.87446,-81.37614,-80.37433,-79.90374,-79.09122,-78.59963,-77.87198,-76.93281,-75.20017,-74.11225,-73.44195,-72.09803,-70.80217,-69.5486,-68.81156,-68.09614,-67.08832,-66.4325,-66.45574,-64.3045,-63.79895,-62.64135,-61.63277,-62.76776,-62.70853,-65.16457,-66.11896,-69.37148,-70.24886,-71.00583,-71.97983,-72.67878,-73.57195,-74.83462,-75.26222,-76.06307,-76.99888,-77.97046,-78.83988,-79.28401,-80.15267,-80.51693,-80.52097,-81.17276,-80.92597,-80.42678,-80.58709,-79.76351,-78.88273,-78.20652,-76.7918,-75.84219,-74.67343,-72.73782,-71.38863,-69.17824,-67.46611,-65.52073,-63.24683,-59.78621,-57.81772,-54.81837,-51.82964,-48.98531,-45.6649,-42.76729,-39.29549,-36.48202,-32.60405,-29.70144,-26.71811,-22.65642,-19.83292,-15.50085,-12.09082,-8.775136,-4.838687,-1.77612,1.859409,5.520767,9.295417,12.3254,16.1661,19.2271,22.90212,26.27485,29.21659,31.71515,35.25377,37.90233,40.48233,42.9047,44.94391,46.42587,48.82212,50.82384,51.44663,53.06983,53.54797,54.28678,54.93064,55.7368,56.56142,57.54241,58.29698,59.37518,59.89627,60.58623,60.71262,61.33039,60.51344,60.1623,60.57141,60.3606,60.93393,60.2665,60.57021,60.75013,60.49237,60.03129,60.62038,60.3668,59.50638,59.44877,59.47219,58.77033,58.78261,58.49893,58.14873,59.45487,57.82869,57.37454,55.4666,53.73371,52.16858,49.67971,48.20382,44.94558,43.25944,40.74929,37.8054,35.59062,32.8313,29.88676,27.86906,24.80398,22.44718,19.3689,16.50915,14.32018,11.64704,9.068614,6.503117,3.996735,2.354401,-0.03552798,-1.935179,-3.688035,-5.7845,-6.876437,-8.530559,-9.349442,-11.392,-11.96185,-13.34124,-13.04367,-14.07292,-13.98346,-14.04407,-13.45305,-13.26567,-12.93511,-12.42625,-12.19803,-11.11819,-10.103,-9.132805,-8.325051,-6.821989,-5.658164,-3.837243,-2.459663,-1.27922,0.4674214,1.795162,3.953224,5.557196,6.772645,8.428742,10.79348,12.19966,14.07265,15.51416,16.43849,17.8946,19.53634,20.01488,20.24488,22.06282,22.09785,22.65737,22.4567,22.39958,21.31272,21.65383,20.62106,19.13824,18.33031,16.37853,16.01513,14.97472,14.31711,13.19159,11.66478,10.54977,9.423888,7.018779,5.933311,3.193378,2.21017,0.3580404,-0.3474622,-1.703828,-2.901664,-3.905024,-6.207698,-6.266812,-7.382411,-8.867985,-8.802569,-8.842089,-9.644131,-9.709956,-9.809727,-9.782982,-10.02866,-9.426742,-10.04596,-10.00314,-10.06393,-10.21043,-10.29049,-10.70983,-11.13105,-12.15702,-12.0783,-13.13294,-13.94605,-14.53373,-15.63877,-17.11726,-17.76372,-19.54356,-20.79319,-22.11219,-23.2956,-25.0966,-26.47743,-28.44895,-29.78853,-31.49456,-33.15173,-35.14669,-36.94986,-38.65355,-40.74676,-42.63029,-44.42822,-46.84296,-48.48491,-50.67615,-51.80848,-54.7104,-55.38563,-57.28012,-58.2875,-60.32671,-62.47943,-64.01812,-65.26473,-66.52185,-67.57707,-68.7528,-67.91222,-66.95432,-66.52937,-64.52122,-64.00466,-63.65095,-63.48307,-63.35685,-63.96738,-63.82896,-64.82361,-65.33169,-65.78985,-67.06158,-67.40268,-68.42072,-69.32958,-70.09758,-70.42772,-70.88029,-71.9181,-71.49912,-71.23492,-71.17763,-70.49096,-69.25301,-68.93293,-67.5705,-66.33505,-64.29313,-63.25732,-61.06323,-59.09779,-56.67558,-54.14435,-51.9301,-49.20275,-46.743,-43.56649,-40.41726,-37.9143,-34.78909,-31.96327,-28.45175,-25.2249,-22.81874,-19.46398,-16.48849,-13.38614,-9.915812,-7.217261,-4.166961,-0.6837001,3.718114,7.670173,11.18802,16.03334,20.14592,24.77539,29.4196,33.69097,37.66402,42.61535,47.15249,51.28422,55.61085,59.14947,63.7241,67.5524,71.54616,74.86224,78.63405,82.23729,84.9151,88.60852,90.83215,93.02234,96.0504,98.36292,100.5263,102.408,104.0083,104.4819,104.4323,103.7587,101.9385,101.9761,101.5198,102.0041,103.4068,103.8643,105.3366,106.4919,108.0327,109.566,110.1825,111.3811,112.2612,112.5517,112.9161,112.8201,112.1415,111.2516,110.7869,109.589,110.2181,109.2892,108.9676,108.8901,109.3205,109.9173,108.7845,107.2207,106.6132,103.9471,101.4479,98.65618,96.41578,92.95595,90.72019,86.16686,82.93806,79.05408,74.81789,71.28488,66.442,62.08908,58.3856,53.34269,49.80856,44.50407,40.60084,36.36525,31.57124,27.90382,23.24249,18.7777,14.87701,10.84552,6.867421,2.778089,-1.18235,-4.375369,-7.972446,-10.93134,-14.704,-17.70407,-20.24604,-22.71389,-24.9883,-27.25092,-29.23567,-30.90469,-32.02459,-33.49625,-34.30572,-35.03264,-35.51011,-35.26528,-35.13953,-34.82803,-34.71186,-34.29846,-33.69018,-32.4206,-31.75944,-30.52491,-29.16712,-27.11949,-24.62128,-22.38769,-19.6543,-15.6938,-12.81825,-9.161381,-5.786918,-2.363811,1.466946,4.561629,8.69727,12.18909,15.24347,18.62855,21.13964,24.71404,26.97222,29.09955,30.95268,31.52821,31.93784,31.68784,29.95853,27.61351,25.81201,23.84445,22.94437,22.29851,21.75428,20.61242,20.65757,18.43515,18.103,15.99357,14.63013,12.58689,10.57029,7.82837,5.80804,2.669019,0.9929303,-2.51228,-5.196315,-8.348055,-10.98037,-14.31742,-16.74289,-20.00954,-22.76029,-26.07485,-28.06628,-31.44249,-33.07009,-36.64475,-37.38915,-40.21099,-41.77241,-43.86088,-45.29811,-47.28044,-47.93776,-49.90387,-50.79131,-52.06479,-53.03611,-53.25277,-54.33016,-54.28701,-54.17447,-54.55539,-53.22297,-53.58685,-52.34886,-51.88021,-50.87991,-49.54334,-48.82929,-47.16009,-46.19686,-45.31855,-43.46961,-41.47324,-39.84387,-37.92418,-36.5267,-33.81162,-31.92099,-29.59857,-27.51885,-25.73501,-23.51046,-20.61187,-19.54958,-17.57924,-16.21662,-14.10466,-12.99847,-11.83382,-11.52751,-10.28962,-9.948001,-10.16642,-11.33968,-11.74236,-12.59958,-13.13968,-14.5534,-15.04041,-15.81257,-16.37181,-17.30419,-18.43297,-18.89396,-20.36,-21.49159,-22.50918,-23.93344,-24.71782,-26.18385,-26.71759,-27.38541,-27.37477,-28.44111,-28.15144,-28.49414,-27.74305,-27.96319,-27.70889,-27.97084,-27.89983,-28.47991,-27.90235,-28.38016,-28.44891,-29.0377,-29.09732,-29.25551,-29.42201,-29.22754,-30.5784,-29.85759,-30.74683,-30.58081,-32.32696,-33.78184,-33.94936,-33.95241,-33.39581,-33.4229,-33.15335,-32.89213,-32.59045,-31.86089,-31.86308,-31.57163,-31.35036,-30.68523,-31.02853,-31.16706,-32.35583,-32.06576,-33.33241,-32.12443,-33.67808,-31.79539,-32.69897,-31.90651,-31.62166,-32.19024,-32.82355,-33.24558,-33.93917,-34.3783,-35.61203,-36.65077,-37.57587,-38.86184,-39.57684,-41.30159,-42.87113,-42.35315,-43.86906,-45.07606,-46.76967,-48.01924,-50.31079,-51.55691,-53.61692,-55.55795,-57.3029,-58.26735,-60.07789,-61.07272,-62.92734,-63.66674,-63.72642,-64.88033,-65.13694,-65.73445,-65.90504,-65.72907,-65.53653,-65.64574,-64.24892,-64.00656,-62.55037,-61.7793,-59.91265,-58.25736,-56.30149,-54.55216,-52.50789,-49.84999,-47.38509,-44.47444,-41.81301,-38.28735,-34.95285,-31.83512,-28.3195,-25.49184,-21.1152,-17.46688,-13.8772,-9.791033,-5.881441,-1.811113,2.882368,6.204557,10.9963,13.97286,19.4034,22.14994,26.97978,30.13823,34.1672,38.0224,41.5843,44.7354,48.35756,51.28815,54.76603,58.44466,60.58474,63.23681,65.51784,68.17086,70.20359,71.67896,72.35558,74.02803,74.65302,75.70716,76.29362,77.5075,79.43103,80.67494,82.3927,82.26868,83.77606,83.40824,84.85696,84.9377,84.83846,83.31672,81.43384,80.42115,79.35511,79.26035,78.52217,80.1851,80.83425,83.62634,84.78701,87.33225,87.9732,90.29975,91.86488,93.60128,94.95699,97.17728,98.41415,100.3714,101.2975,103.0832,104.3551,105.7061,107.2973,108.4408,109.806,110.7053,110.2638,110.0297,110.3269,109.2687,108.3246,107.6831,106.2778,105.3596,103.0995,101.1909,98.71045,96.89998,94.16923,91.57627,88.51363,84.93806,82.12875,78.58722,74.76484,71.12841,67.20639,64.11624,60.15,55.67411,51.92612,47.83161,44.08759,40.45847,35.89586,32.04214,27.80387,24.32116,20.16405,16.6654,12.49898,9.295486,5.330469,2.606123,-0.5596273,-4.199658,-6.576193,-9.245087,-11.68788,-14.07008,-16.29579,-18.66441,-21.14046,-23.55808,-25.32835,-27.10201,-27.51048,-28.69204,-27.84851,-28.37984,-27.51079,-26.99572,-25.67876,-24.62442,-23.54482,-22.44043,-21.68634,-19.66431,-18.2475,-15.98532,-13.74304,-11.5198,-8.731087,-6.738525,-3.756585,-1.623439,0.3224022,2.726242,4.504461,6.368296,7.278011,8.469453,9.551779,9.451751,9.652349,8.481889,7.757036,5.896538,3.875809,0.6947577,-0.5234582,-1.643359,-2.492354,-3.376401,-4.970485,-5.989374,-7.583256,-8.112158,-9.532121,-11.02894,-12.50839,-14.02952,-15.38801,-16.25597,-18.47605,-19.62819,-21.09095,-21.75157,-23.17188,-23.63972,-25.33395,-26.13731,-27.08905,-27.5899,-28.61079,-29.2411,-29.73618,-30.50645,-30.18047,-31.09364,-31.04825,-31.48501,-31.94283,-31.45234,-32.03459,-32.1779,-32.23228,-31.55786,-31.43976,-31.01275,-30.95359,-30.34533,-29.74463,-29.01433,-29.12253,-27.61199,-27.95322,-26.09836,-26.19667,-24.99235,-24.48573,-23.9652,-22.74022,-22.18947,-21.75792,-21.82067,-22.00565,-21.54572,-21.15839,-20.69541,-19.68003,-19.22831,-18.41076,-17.22417,-17.69538,-16.79293,-16.7149,-16.39992,-16.88823,-17.63117,-18.48298,-19.54409,-20.84084,-21.17032,-21.92641,-22.34803,-23.65773,-24.16138,-25.57816,-26.33882,-28.36931,-29.83512,-31.59019,-33.79699,-35.73686,-37.20372,-39.6597,-40.16113,-41.25491,-42.73809,-43.82596,-45.35106,-45.96224,-47.5973,-48.92648,-50.78609,-51.61551,-53.22761,-54.10219,-55.92236,-56.75755,-58.28583,-59.36769,-60.8708,-61.90823,-63.18815,-64.5354,-65.6997,-66.81099,-68.01098,-68.16724,-69.12879,-70.23678,-71.07065,-71.96304,-72.3446,-73.52051,-74.0821,-74.50851,-75.10162,-75.74107,-76.26733,-76.63515,-76.14053,-77.0538,-76.84719,-77.35566,-76.88837,-77.2851,-76.86552,-77.01465,-76.9763,-76.29579,-76.23629,-76.51092,-75.93434,-76.21402,-75.60404,-75.37757,-74.61331,-73.33748,-72.50308,-71.33909,-71.12907,-70.69481,-70.07876,-70.2205,-70.68564,-71.04979,-71.217,-72.66898,-71.60569,-72.96465,-74.44656,-74.88908,-75.8912,-77.71685,-78.66988,-80.79048,-81.81379,-83.38541,-85.19993,-86.34249,-88.37428,-88.02274,-89.94554,-89.46296,-89.33817,-88.179,-87.85619,-86.21251,-85.42818,-84.26172,-81.88997,-80.73353,-76.89117,-75.78689,-72.6644,-70.04022,-67.12616,-62.98402,-60.06929,-55.86498,-51.72512,-47.50994,-42.645,-38.10116,-33.07857,-28.3949,-22.31128,-17.37993,-11.50571,-6.056945,0.2783296,6.101855,12.82323,18.31972,24.73316,30.95145,37.10226,43.95922,49.55622,55.8774,61.49584,67.59014,74.22005,79.83488,84.87079,91.02067,96.42977,102.3313,106.7863,111.2702,116.5368,120.3116,125.2693,128.1443,131.7652,135.3731,138.4356,141.6945,143.4803,145.2738,145.8082,146.9456,146.2458,145.264,145.4195,144.8645,145.2709,145.6888,146.9818,148.2825,150.1015,151.4676,153.7566,155.3887,157.6757,158.9018,161.5196,162.678,164.1999,165.4492,165.9209,167.3726,168.5922,169.402,170.2555,170.4187,171.96,171.6057,170.9417,169.4851,167.5596,166.235,164.2518,161.4385,158.4818,155.3538,152.7758,148.5386,145.8865,139.8193,135.3021,131.2448,125.564,120.8491,114.8124,109.3589,103.828,98.05485,92.19041,86.70398,79.9324,75.33437,67.68113,62.283,55.32639,49.37485,42.75496,37.22929,31.15721,24.30541,19.24025,13.01197,8.66338,2.369653,-2.619633,-7.963323,-12.56416,-16.68587,-21.5378,-25.13374,-29.78624,-33.42608,-36.34435,-39.381,-42.33153,-44.91826,-46.41482,-47.85903,-49.08019,-50.37071,-50.23075,-50.94255,-49.91461,-49.98323,-48.98951,-47.80632,-46.60581,-44.53376,-42.95595,-40.14644,-38.69049,-35.48464,-32.09792,-29.1643,-26.56263,-23.08773,-19.53525,-16.15143,-13.02057,-10.07156,-6.851009,-4.792818,-1.374811,-0.1525256,1.541325,2.384688,1.680828,2.106922,1.1667,-0.3857203,-1.613548,-2.156447,-3.085238,-3.138309,-2.942201,-1.885226,-0.7466,1.377459,2.8905,5.197632,6.514217,8.908412,10.42759,12.29405,14.01846,14.83615,16.70777,17.65555,19.62061,20.36712,22.17679,23.02273,24.20019,25.18433,24.77686,24.64411,25.42897,24.36911,24.49075,23.7539,22.69143,21.58551,20.44147,18.95182,16.62766,14.31404,12.24211,8.597759,7.080761,3.217505,0.1427702,-2.848127,-5.623175,-9.348141,-12.92209,-16.56213,-20.41357,-23.69758,-26.93005,-30.5903,-34.44986,-36.78569,-40.74241,-43.12155,-45.81961,-48.22472,-50.69771,-52.67758,-54.17658,-56.70587,-57.26448,-59.13229,-59.9773,-61.14089,-62.03615,-62.64371,-63.52168,-63.27048,-63.84444,-62.67124,-63.0302,-62.28604,-60.92514,-60.44296,-59.60819,-58.64718,-56.3811,-54.64407,-52.18641,-49.51915,-46.60378,-43.52422,-39.52954,-35.92844,-32.1577,-28.21602,-25.2294,-20.32223,-16.30037,-12.46176,-8.783317,-4.481937,-0.8912769,2.253802,5.014831,8.827238,10.7081,12.96437,14.54512,15.98927,16.15542,16.83245,15.44959,15.21899,13.20655,11.69878,9.250357,7.878773,5.997837,3.363187,1.075951,-2.7278,-5.94559,-9.65261,-12.9987,-17.1619,-21.22985,-24.38489,-28.75532,-31.88441,-36.81473,-40.35821,-44.90127,-48.30495,-51.54971,-56.04251,-58.15797,-61.91247,-64.18623,-66.49711,-69.50221,-72.12838,-74.51551,-76.62039,-78.83905,-80.38007,-82.39052,-83.60483,-84.79769,-85.49111,-87.49155,-88.18258,-89.1342,-89.53784,-90.84558,-91.92486,-91.19406,-92.5871,-91.56062,-92.12922,-91.86796,-91.62693,-91.29573,-91.21003,-90.71164,-90.45575,-89.76109,-88.61032,-87.95625,-87.17408,-87.2109,-85.73698,-84.82793,-83.43557,-81.93955,-81.27208,-80.18459,-78.79345,-77.62324,-77.01234,-74.90866,-73.57083,-71.37924,-70.02292,-68.06186,-67.79756,-67.18793,-67.77988,-68.67322,-69.80237,-72.45754,-74.93734,-76.04017,-78.9002,-80.81763,-83.72919,-85.6851,-88.83292,-90.85894,-93.5632,-95.72621,-97.82847,-99.91951,-101.7129,-103.4211,-104.7859,-106.4245,-106.0366,-107.333,-106.4199,-106.5687,-106.2214,-105.154,-103.4084,-101.7525,-99.17415,-97.33953,-93.92687,-90.58643,-87.26158,-83.27472,-79.66152,-75.85499,-70.111,-65.74082,-60.06343,-55.05591,-49.79178,-43.40536,-37.81456,-31.12182,-25.02451,-18.33297,-10.92871,-4.382234,3.270435,10.38851,18.04608,25.55049,33.1826,41.03283,48.78804,56.02452,64.06278,71.51378,78.54213,86.32696,92.78506,100.0482,106.7443,112.7344,118.6657,123.2726,129.2783,133.5773,136.629,140.2372,143.3722,146.2231,150.3538,152.6526,157.0691,159.9456,164.849,167.6674,172.511,176.2133,178.8204,182.4364,184.9597,187.2264,188.8017,190.179,190.5904,191.1204,190.8478,190.1451,188.3906,186.3895,184.1984,181.7109,179.8403,176.2602,173.7906,170.3834,166.7649,163.7009,159.6393,156.265,152.5538,150.0456,145.6476,141.3399,136.4427,131.475,124.8909,119.5923,112.5064,107.4986,100.7482,95.57855,89.50752,84.23611,77.35622,70.94055,64.21673,58.66872,51.93075,45.22791,39.88283,33.14432,27.64673,21.36509,15.63893,10.40273,5.111822,-0.04238316,-4.648713,-9.501773,-12.95532,-17.12007,-20.43677,-23.59021,-26.39309,-29.03271,-30.90374,-32.86506,-34.53504,-35.5719,-36.90344,-37.04573,-37.87033,-36.97391,-36.92112,-35.91449,-35.29733,-33.77606,-32.24322,-29.79357,-27.66553,-24.58798,-22.00815,-18.70184,-15.6281,-11.87102,-8.194337,-4.301747,-0.1124511,3.685704,7.641443,11.84957,15.70965,19.168,22.94129,26.59922,29.28638,32.18351,34.25053,35.95022,37.47698,38.29868,38.06466,38.32122,37.70235,36.59525,35.71005,35.3828,33.81392,33.89691,33.45754,33.88395,35.26871,35.36796,37.69201,37.31582,40.4076,40.16471,41.98015,42.8768,44.74877,45.98115,47.09374,49.30757,49.77703,52.29326,53.10826,55.21674,56.19162,57.79895,59.26609,61.67112,62.8084,63.98103,65.17752,65.95298,66.11856,67.30306,66.70575,67.21213,67.09618,67.22625,66.972,66.49152,66.01395,64.72581,64.33299,63.25431,62.3972,61.41598,59.66799,59.35959,57.87636,56.21614,54.91395,53.03683,51.10907,49.84153,46.43736,43.99119,41.86763,37.63421,35.25954,30.93811,27.57708,23.05917,19.51408,14.83489,10.65324,5.930226,1.841642,-3.416547,-7.939364,-13.23514,-17.57051,-23.04653,-27.10867,-32.03349,-36.13473,-41.35614,-44.99911,-48.68345,-52.37227,-55.9775,-59.25848,-63.32547,-66.1887,-68.3859,-72.82512,-75.49357,-79.52673,-82.16795,-86.30104,-89.8286,-93.66631,-97.18181,-100.9578,-104.1744,-108.6007,-112.0909,-115.4774,-119.1894,-122.0512,-126.0809,-128.4507,-132.4218,-134.7468,-137.2046,-139.3029,-141.814,-143.5527,-145.1972,-146.4799,-148.4273,-151.0876,-150.7899,-152.0375,-152.7156,-152.9033,-152.4613,-150.9978,-149.8934,-146.1103,-145.4704,-141.3363,-139.6344,-135.7108,-132.9668,-128.8507,-124.9175,-121.1823,-116.4558,-111.461,-106.1884,-102.176,-95.23586,-91.78489,-85.18028,-79.93701,-74.82279,-70.17113,-64.94943,-61.78292,-55.76961,-51.35379,-45.60132,-41.34376,-34.74264,-30.39012,-25.01035,-19.40181,-15.74906,-9.931608,-6.224955,-1.75786,2.581957,5.686297,10.6994,12.56788,16.77004,18.35617,21.33333,22.25089,23.3267,25.37794,24.23601,24.55989,24.9107,22.27857,21.40219,19.92561,15.91424,13.8581,11.52706,6.374342,3.236972,-2.467362,-4.315267,-12.50842,-14.52713,-21.28776,-26.72648,-31.53548,-36.26775,-41.47741,-46.95722,-50.76714,-54.64104,-56.32535,-59.2303,-60.27636,-62.45622,-64.60263,-67.19458,-69.17501,-72.92822,-74.08749,-76.6904,-78.97644,-80.62476,-84.59122,-85.72713,-89.0085,-90.55036,-92.71125,-95.33399,-96.48177,-98.99667,-100.0209,-101.2632,-102.3115,-103.1673,-102.9753,-103.4155,-102.352,-102.1434,-100.106,-99.08562,-97.06132,-95.25543,-92.1947,-90.36724,-86.82167,-84.97345,-79.99764,-75.10249,-71.64785,-66.15408,-61.05908,-55.33926,-49.41298,-43.94422,-36.06256,-31.61757,-24.06738,-18.2572,-11.47233,-4.890522,1.953822,8.766828,14.68999,21.87479,28.29975,34.25544,40.5382,46.69351,51.19076,58.30928,62.50498,67.14935,72.02267,76.7076,82.06163,87.78776,92.71218,97.72529,102.2134,107.0397,111.0422,115.5423,119.389,122.0343,126.3865,128.7123,131.8755,134.1744,135.3092,137.9038,137.756,140.3544,139.126,140.2768,139.2478,140.1888,139.9709,138.0022,138.2787,136.0847,134.5988,133.7582,131.6817,128.4456,127.4186,125.0497,121.3459,119.0821,113.8266,112.0903,104.4918,105.3015,99.58696,99.50192,98.00422,97.78077,97.57682,98.84292,100.6608,103.0965,105.5933,106.9627,108.9281,109.8974,111.005,112.3587,114.4565,115.0554,117.2035,118.008,119.368,119.3222,119.412,121.5,119.7698,120.5555,119.5674,118.5112,117.4054,115.5162,114.3865,112.3492,110.2549,108.1229,105.0544,102.2693,99.0944,95.84831,91.62813,88.25111,84.08225,80.00588,75.54685,70.3139,65.47067,60.96756,56.27156,51.12683,45.92111,41.23054,35.44125,30.7547,24.57798,19.90148,14.22332,9.032871,3.803259,-1.095836,-6.361253,-11.25796,-16.72079,-21.50007,-26.96616,-30.75161,-36.70914,-40.90361,-44.2595,-48.26767,-51.64627,-54.36239,-57.41165,-59.17014,-61.04966,-62.93736,-64.13705,-64.93887,-65.36762,-64.87747,-64.36887,-63.8614,-62.04397,-61.05744,-59.26,-57.91187,-56.38799,-54.1008,-52.28766,-50.74514,-48.8995,-47.57915,-46.0583,-44.46249,-43.62006,-42.03397,-41.79544,-40.73746,-40.8425,-40.94668,-40.71713,-42.21196,-42.21978,-44.20761,-46.19108,-48.07276,-50.8124,-54.49271,-58.0097,-62.23081,-66.49865,-69.37173,-73.05565,-74.75546,-77.17918,-79.276,-81.5226,-83.88695,-85.21055,-87.21413,-87.98705,-90.01522,-90.52651,-91.21735,-91.9187,-92.27051,-92.21078,-92.13806,-92.18669,-91.1252,-90.38078,-89.57876,-88.02811,-86.28389,-84.24115,-81.85409,-81.03248,-77.79647,-76.3443,-72.8678,-70.63763,-66.99131,-64.13605,-61.13491,-57.14682,-54.35152,-51.07183,-47.29663,-43.69941,-39.69342,-36.09599,-31.33353,-28.28362,-24.59817,-20.03718,-16.67345,-12.40249,-8.127238,-4.957856,-0.8214906,2.456934,5.634013,8.877097,12.0869,13.74791,17.48165,18.64812,21.47757,22.56839,23.93281,25.11853,25.07461,25.18015,25.45092,24.7254,24.87551,23.58232,24.20212,23.28458,22.53028,21.69243,21.54135,19.7639,19.78619,17.98499,17.31401,16.96824,17.57058,17.21922,18.69408,18.08253,19.37027,19.99331,20.21992,21.30552,21.9199,23.06281,24.01756,24.64271,25.40057,26.2476,26.56755,27.00352,27.93805,27.86185,28.77365,28.60197,29.31806,29.39176,29.83491,30.44184,29.42297,29.99801,29.7543,30.16237,30.84581,31.1636,31.82257,32.94683,33.86721,34.28764,35.82984,36.07819,37.58717,38.59833,39.12635,40.5314,40.48335,42.10035,42.00727,42.6113,42.98974,43.67988,43.77557,43.84974,44.42263,44.05239,44.20345,42.81129,42.04015,41.3106,40.35261,40.75344,40.18388,40.0808,40.51298,40.64914,40.52812,40.95847,41.73616,41.66585,42.12162,41.73388,41.12434,41.83522,41.13486,41.52363,41.79321,41.76057,42.65846,42.76581,43.36841,43.24935,43.98842,44.85282,44.61447,45.62793,45.16657,45.71971,45.1851,45.64694,44.78215,44.9744,44.19639,43.45918,43.39794,41.98214,41.71298,40.12941,39.71159,38.1382,37.03664,36.03439,34.41359,32.8676,31.07933,29.24883,27.00934,24.73803,22.65174,20.04418,17.69299,14.3086,12.67319,9.142218,7.16848,4.428198,2.048481,-0.7726615,-3.286305,-6.374878,-9.119808,-11.89527,-15.0078,-17.58442,-20.54417,-23.5699,-26.33951,-29.81676,-33.06724,-36.37836,-39.32582,-43.03185,-45.84726,-49.87765,-52.88194,-56.03071,-59.57993,-63.14608,-66.06706,-69.73998,-72.22092,-74.57945,-76.32697,-78.18791,-80.14312,-80.95075,-82.16026,-83.08599,-83.56432,-85.3212,-84.48357,-85.9781,-84.4908,-85.33451,-84.85618,-84.39388,-83.80759,-82.26409,-81.78669,-80.27736,-79.59084,-79.81775,-80.0444,-80.44958,-82.41287,-83.19696,-85.26749,-87.74215,-89.24216,-90.12983,-91.90228,-92.0199,-94.20608,-94.97968,-95.45049,-97.44807,-97.78373,-98.94941,-98.58208,-100.257,-101.0416,-100.8694,-101.0763,-99.4893,-99.40171,-97.35936,-95.72959,-93.21665,-91.07666,-88.88778,-85.49382,-82.30181,-79.06555,-75.31641,-71.89678,-67.43389,-64.10345,-59.37503,-55.18347,-50.76602,-45.94793,-40.92114,-36.51392,-31.10534,-26.74191,-21.34119,-16.52975,-11.20442,-6.086805,-1.237481,4.519957,8.889287,13.74797,18.06825,22.37402,26.0575,30.29669,34.52986,38.91683,42.99212,47.65401,52.22575,56.86056,61.11424,65.71365,69.65891,73.90669,77.04998,79.88653,82.73617,84.37817,86.97126,87.49301,88.85339,88.94203,89.01089,88.15151,87.03836,85.72197,83.99901,81.4473,78.74323,75.79717,72.39547,68.43558,63.42488,58.52073,52.90714,48.58132,43.51098,39.47871,35.17341,31.44386,27.82617,24.24749,21.75682,18.5708,16.19763,13.46413,11.82233,10.48012,8.637032,7.896439,6.382161,5.951435,5.511146,5.21799,4.467414,3.513704,1.970476,0.4393189,-1.178212,-3.113067,-4.228406,-6.727032,-7.324335,-9.989732,-11.45044,-13.00794,-14.23795,-15.38877,-17.42987,-18.88193,-19.78517,-20.55303,-22.46871,-22.55781,-24.41504,-24.07907,-26.41788,-25.95827,-25.96061,-27.17396,-26.70263,-26.84995,-26.05975,-25.66219,-25.1535,-24.43151,-23.39628,-22.24804,-20.77825,-20.18196,-17.54888,-16.94359,-14.58445,-14.09173,-11.38103,-10.27047,-8.334768,-6.504069,-5.055681,-3.591532,-1.756673,-0.5446472,0.4210562,2.538532,3.594479,4.457208,5.658253,6.064446,6.681381,7.388224,7.733507,9.538341,9.778652,12.4819,13.63161,16.36293,18.0498,20.68382,23.13982,25.7197,28.1822,31.23163,33.23789,35.58922,38.15655,40.25793,42.35737,43.68409,46.16974,46.93804,48.71752,49.40388,49.8433,50.47876,50.52203,50.42781,50.13912,49.5806,48.61752,48.0238,46.40131,43.80259,42.80032,41.55145,40.46575,40.34253,40.26975,40.15153,41.31803,41.26994,41.29003,41.70422,42.83022,43.0621,43.502,43.69249,44.11916,44.14306,44.43133,44.21863,44.02752,43.95192,43.50114,42.5241,42.22957,41.44342,40.63618,40.01612,38.36244,37.90399,35.98251,32.91854,31.42162,29.09345,28.21391,25.51846,24.47476,22.87246,21.19576,20.69583,18.45688,17.87963,16.24083,15.15395,12.73394,12.2418,10.36786,9.484807,8.074217,7.368813,7.104796,6.593359,6.122756,6.263879,5.723678,5.652646,5.119267,5.075735,5.479748,4.592782,5.249942,4.266914,4.742996,4.174228,4.567737,3.76521,4.036778,3.674971,3.60291,3.372429,3.331842,3.354371,3.200484,3.311154,2.342035,2.109675,2.115785,1.214947,0.7694705,0.2490906,-0.5769909,-1.046125,-2.782879,-2.733704,-4.262059,-4.493468,-6.32849,-6.209304,-8.022517,-8.551018,-9.897522,-10.65725,-12.43693,-13.62865,-14.36864,-16.95276,-17.60337,-19.86275,-21.16035,-23.62129,-25.47103,-27.83031,-29.81788,-31.38191,-33.60595,-35.58975,-37.41961,-39.33413,-41.43861,-42.78282,-45.4329,-47.84416,-48.671,-50.22918,-51.66747,-52.4353,-52.84954,-53.57329,-53.45795,-54.59934,-54.96225,-54.17477,-54.52093,-54.19918,-54.22032,-53.95252,-53.00585,-51.06336,-49.83381,-47.90044,-46.44058,-44.67479,-44.86043,-43.64874,-43.21048,-43.11405,-44.37459,-44.4496,-46.14535,-46.53538,-49.07532,-49.53621,-49.55874,-50.30173,-50.15086,-51.42858,-50.89119,-51.77733,-51.89612,-51.99248,-52.68981,-51.57042,-52.81964,-52.03648,-52.46902,-50.73738,-50.63835,-49.59487,-48.37408,-46.58551,-45.11096,-44.09143,-41.75739,-40.67314,-38.29907,-37.09825,-34.98539,-32.75508,-30.53172,-28.49127,-25.7311,-23.40487,-21.15188,-18.81424,-16.47839,-14.09025,-11.42583,-8.023477,-6.504961,-2.547608,-1.378911,2.683835,3.557594,6.536715,8.564886,10.84337,12.71935,14.44712,16.74223,18.247,20.66021,22.29385,24.03748,25.87014,27.27415,29.15677,29.56612,32.31871,31.99294,34.59769,34.59682,36.29926,36.91905,37.7195,38.87671,38.77568,39.67223,39.4053,40.10579,39.85304,40.43339,39.83664,40.14255,39.67298,38.97177,38.82306,38.35267,37.565,37.43077,36.39082,35.88969,34.84348,35.13629,34.28803,33.70868,33.07255,32.77563,32.70637,32.2509,31.62883,31.94856,31.53475,31.87147,31.61023,31.02915,31.14951,32.68241,34.15415,35.58659,36.42496,37.58858,37.76512,39.27272,40.0137,41.19775,42.33375,43.36824,44.69106,45.62067,46.87964,47.0339,48.43237,48.34548,48.97341,48.9307,48.96971,48.64741,48.45737,47.46937,47.04518,46.06945,45.64682,44.30525,43.69872,42.04631,41.39928,38.69682,38.49032,36.59796,35.7779,34.05069,32.53686,31.81192,30.04234,29.52086,27.41394,26.53699,26.03284,23.73207,22.82607,21.44587,19.66937,18.69089,17.20751,16.20836,14.58757,13.77062,12.84263,10.64122,10.4999,8.420269,8.351509,5.535901,5.164858,2.183543,0.6147268,-1.674965,-2.325765,-2.922798,-3.857548,-3.161773,-4.350282,-3.59302,-3.644221,-3.631634,-3.237019,-3.247772,-2.400636,-4.195174,-2.870128,-4.176965,-3.507867,-4.911088,-5.267973,-5.559372,-7.188831,-7.914005,-9.192511,-10.21601,-11.9651,-12.47559,-14.30922,-13.65531,-15.48995,-14.63033,-15.60635,-15.41559,-15.80255,-15.6832,-16.32398,-16.1431,-17.01168,-16.53953,-18.05575,-17.25846,-19.00922,-18.495,-20.05528,-20.38079,-22.46232,-22.95522,-25.65973,-26.69726,-29.54398,-30.75102,-31.98044,-32.39085,-33.51701,-34.53913,-35.90061,-36.7103,-38.50544,-39.25269,-40.85772,-42.32938,-43.8523,-46.09805,-48.15213,-49.43912,-52.2219,-54.17889,-55.93437,-58.14099,-60.33141,-62.45782,-65.00982,-67.27058,-69.90076,-71.542,-74.00914,-75.34745,-77.62955,-79.73306,-81.70673,-83.29096,-84.83778,-86.95638,-86.31288,-88.64201,-88.2222,-89.89321,-89.42614,-90.35965,-90.03387,-90.78071,-90.81481,-90.75546,-90.91313,-91.25972,-90.45392,-90.06885,-89.91826,-88.88117,-88.1363,-87.10506,-86.41027,-85.11357,-84.50563,-83.03302,-82.73472,-81.15462,-80.62357,-78.7427,-77.39972,-75.62428,-73.43088,-70.99316,-67.41422,-65.03145,-62.45062,-59.70562,-57.19496,-54.09799,-50.98976,-47.83783,-46.72735,-43.77623,-43.02713,-41.90167,-40.111,-40.37739,-39.27234,-40.46752,-39.73058,-40.22431,-41.38101,-41.37995,-42.51688,-42.54611,-43.16863,-42.45054,-43.17243,-41.80914,-42.98945,-41.39416,-42.30678,-40.8454,-41.04142,-40.05245,-39.14551,-38.52205,-36.94066,-35.39915,-33.8436,-30.46048,-29.37636,-25.36602,-23.54316,-19.33564,-17.81013,-13.07818,-10.89942,-6.512499,-3.11462,1.04032,4.864283,9.354956,12.80537,17.57992,21.27783,25.49574,29.24496,33.63145,37.28011,41.14801,45.58747,49.48795,53.32761,57.56141,60.83547,65.33598,67.86699,71.90108,74.94354,77.64255,80.33353,83.44035,85.52142,88.0848,89.35668,92.33084,92.55135,95.07485,95.78085,97.28711,98.06915,98.8195,99.15216,99.1948,99.46343,99.18069,99.39711,98.67995,98.06305,97.45787,96.33284,95.86927,94.29394,93.78198,92.12295,90.76897,90.02105,88.58423,88.30922,86.2279,85.7769,84.31968,83.98589,83.4353,82.74868,83.21053,82.42647,81.90521,79.24593,77.9392,76.61883,75.83484,76.18375,76.44696,77.81126,79.79595,81.82271,84.7737,86.62221,87.81693,89.63834,91.97932,92.67961,94.75159,95.8372,96.99887,98.08539,98.73741,99.36285,99.76124,99.63062,100.0994,99.12914,99.10056,98.5897,97.41927,96.17457,95.11688,92.81176,92.03644,88.96864,87.87754,84.66422,82.64913,79.89526,76.74818,74.75272,71.09559,68.68617,65.11722,61.45345,58.33126,54.47127,50.73136,46.73456,43.71356,39.61451,36.49545,32.52245,29.11419,25.52308,22.41827,18.66425,15.7017,12.3837,9.402341,6.801785,3.74839,1.203113,-1.044606,-3.301136,-5.12831,-7.278131,-8.526349,-10.29521,-11.19882,-12.83389,-13.21162,-14.31198,-15.56684,-15.3271,-16.18807,-17.00572,-17.81642,-17.12809,-17.44726,-16.78721,-15.69239,-14.44184,-13.32885,-11.83211,-8.931631,-8.024899,-4.219168,-2.046657,0.6041294,4.07905,6.901953,9.530071,12.24333,14.85258,18.20641,19.77983,22.93846,23.81666,27.02055,28.47346,29.93846,30.28123,31.34491,31.9509,31.78081,31.90809,30.77368,29.93922,27.25044,25.21717,21.81661,18.62146,16.60045,13.56243,11.61187,8.488157,6.207817,2.103464,-0.3652731,-4.845872,-7.932872,-13.51441,-17.31641,-21.84949,-27.06856,-31.5027,-36.55579,-41.84256,-46.89165,-52.93874,-57.55666,-63.04627,-66.68996,-72.22209,-75.57299,-80.1384,-83.26602,-86.98005,-90.66983,-92.7504,-95.35,-97.37294,-99.22469,-101.1535,-101.1907,-103.0195,-102.5505,-103.2889,-103.0699,-101.933,-101.6542,-100.0528,-98.85632,-97.0613,-94.94358,-92.35881,-90.30694,-87.242,-83.45134,-80.56159,-76.35643,-73.21731,-68.70936,-64.90824,-60.2189,-56.26795,-51.68403,-47.41051,-43.16243,-38.81279,-35.5963,-32.1857,-28.86127,-24.97093,-21.28761,-17.58728,-13.73073,-9.943448,-6.752502,-3.233032,-0.9574654,1.927935,4.110651,5.805092,6.928721,7.901606,8.765622,9.885529,9.382892,9.687167,9.396533,9.034723,7.541965,6.615334,5.845325,3.043733,2.533131,-0.5085144,-2.483228,-4.264719,-7.563656,-10.14846,-13.21794,-15.94534,-18.29161,-22.30393,-24.05658,-27.99275,-29.71937,-32.96846,-35.02879,-37.25849,-38.18314,-40.10679,-41.64642,-42.11974,-43.13884,-43.82666,-45.04077,-44.99143,-46.18262,-45.91202,-46.83533,-47.11508,-46.75743,-47.47105,-46.74437,-47.64291,-46.87368,-47.43904,-46.92737,-47.60818,-47.11694,-47.77128,-47.63216,-47.85337,-48.15727,-48.78486,-49.23512,-49.94514,-48.2655,-49.3469,-48.97379,-49.39678,-48.98349,-48.71352,-49.07677,-48.10338,-48.25111,-46.92017,-45.79184,-45.84863,-45.36745,-45.17291,-45.21204,-45.58436,-45.34429,-45.83837,-46.37976,-45.95644,-46.9716,-47.18425,-47.48093,-48.10042,-48.47285,-48.42724,-49.36391,-49.08666,-49.20025,-50.96938,-49.50393,-51.71186,-50.9849,-52.28727,-52.30988,-53.8774,-53.47871,-55.27872,-55.26631,-55.84004,-56.22372,-56.04945,-54.60601,-53.77129,-52.26731,-50.22006,-48.4294,-46.01392,-44.51845,-41.35512,-39.72214,-35.98724,-33.32356,-30.62082,-27.68295,-24.21005,-21.04669,-17.21975,-14.38919,-10.54473,-6.57141,-3.084411,1.184508,4.531348,8.852876,12.42037,16.85997,20.27146,24.50127,27.66924,31.55842,34.80417,38.53842,41.5681,45.43433,47.3307,51.40189,53.5645,56.63536,59.04942,61.58319,63.93941,66.19171,67.89427,69.72428,72.1158,73.47125,74.92212,76.39541,77.5929,78.92594,79.69968,80.38253,81.47733,81.8878,82.13685,81.96211,81.93119,80.05765,78.81125,77.54531,76.47212,76.02323,75.60913,75.66995,77.15532,77.9179,79.89639,82.17621,84.15873,87.05618,88.96938,91.77956,93.42949,96.39192,99.17802,101.2442,103.6631,105.3707,107.3781,108.056,108.1673,109.0231,108.5505,108.644,108.1167,107.5265,106.5178,104.996,103.8993,101.4196,99.51943,98.35172,95.47639,93.39817,90.67514,87.75651,85.89422,82.62716,79.84204,77.13218,72.69817,70.57386,66.57954,63.82413,60.0603,57.82327,53.93709,51.65533,47.92067,44.39631,40.9511,38.38705,34.55968,31.72721,28.9365,25.63611,23.71121,20.16233,18.2668,15.61818,14.46319,11.88512,10.3553,8.292365,7.669956,5.862945,4.968745,2.909538,3.318733,2.496694,2.998893,3.465885,4.518705,5.649886,7.520304,8.980201,11.40501,13.7824,16.92878,19.27551,23.3804,26.48185,30.41045,34.20437,37.69258,41.69779,46.32493,49.6119,53.23388,57.52643,61.11563,64.47494,67.7323,71.71261,74.40051,76.90995,78.80123,80.33077,81.04174,83.01046,81.46259,81.23323,80.23028,77.61678,75.03435,71.44397,68.05827,63.70206,61.26799,57.83154,54.9918,51.84831,49.68616,47.15502,44.98041,41.84896,39.43656,37.05703,33.8464,30.65715,27.47829,24.07295,20.46046,18.1056,13.74993,10.67104,6.194567,3.585867,-0.7167895,-4.624057,-8.003665,-11.88441,-15.3344,-18.91274,-22.78135,-26.98787,-30.22501,-34.07908,-36.65394,-40.49735,-42.79463,-45.43468,-47.9727,-50.4113,-52.5242,-54.24835,-55.24628,-57.80853,-58.35803,-60.14622,-61.15013,-61.05576,-61.87331,-61.82344,-62.99354,-62.83766,-63.31757,-63.7754,-63.79116,-64.13855,-64.43657,-63.93927,-64.64248,-64.73302,-64.99007,-66.181,-66.56848,-67.69729,-68.46038,-69.06598,-71.66533,-72.32275,-74.43424,-75.7631,-77.47771,-80.66391,-81.98253,-84.35838,-85.28684,-87.88467,-89.2621,-91.75992,-92.4679,-94.98285,-96.25253,-98.70082,-99.36245,-101.7862,-102.0911,-105.1228,-105.501,-107.9218,-108.9473,-110.5384,-111.8563,-113.2332,-114.5968,-116.3282,-117.3973,-117.9256,-119.8359,-120.746,-122.012,-122.5395,-124.5981,-125.9511,-127.1595,-128.0903,-129.5301,-130.149,-133.2588,-133.4941,-134.8748,-136.5514,-137.539,-139.363,-140.3699,-141.6423,-142.8306,-144.4073,-145.6509,-146.9274,-147.1199,-148.5811,-148.8956,-149.523,-149.9912,-149.3948,-149.7725,-149.9838,-149.6516,-149.3063,-148.8894,-147.9086,-147.0934,-146.1691,-145.3059,-143.7079,-142.1851,-140.9119,-138.8382,-137.1511,-134.4962,-131.5442,-127.8582,-125.5036,-122.3369,-119.5583,-116.409,-114.2488,-111.253,-109.0332,-105.865,-103.3092,-98.02557,-95.36581,-91.81615,-88.64298,-83.9059,-81.62715,-77.71923,-75.22207,-71.60376,-68.87405,-66.02345,-62.28938,-59.54129,-56.57812,-52.73247,-50.15095,-46.89193,-43.38944,-40.63044,-36.85147,-33.70085,-30.84292,-27.76122,-23.60559,-20.7237,-15.91505,-13.51366,-8.122531,-5.370084,-0.3018885,3.741249,7.640699,12.68355,16.66244,21.65319,26.19491,30.93734,35.34336,40.87222,45.27585,50.69735,55.01427,60.61351,64.80488,70.82197,74.94303,80.29407,85.41349,90.74449,95.87901,101.6319,105.9363,111.2673,116.1976,121.4647,126.4339,130.739,136.0359,139.4961,145.3458,148.6818,153.3139,156.4722,159.9924,163.1467,166.3301,168.6507,170.6017,172.6989,174.3031,175.7144,176.0554,177.0851,177.2044,177.5282,177.001,176.5834,175.4853,173.0895,170.9613,168.0783,165.6507,162.7156,161.0756,158.9648,157.4638,156.1276,155.1512,154.707,153.4334,153.6578,152.7821,153.3798,152.8103,154.0388,153.5117,154.9595,154.9489,156.5564,156.8312,157.4036,156.5889,155.7236,155.7375,154.5029,154.4277,153.522,152.7921,152.4437,151.3959,151.1078,147.474,146.3012,143.5276,141.3846,138.0998,135.0494,131.0748,128.4622,124.0387,120.555,116.5484,111.7116,107.147,102.5748,97.18276,92.46505,87.39361,81.33094,76.3763,70.48493,64.98993,59.14442,54.55219,48.27736,43.96121,37.65823,33.32066,27.7222,23.12474,18.81215,13.05737,9.428413,4.113513,-0.1130562,-4.142759,-8.614121,-12.59391,-15.74968,-20.06412,-22.56261,-26.35571,-28.5737,-31.85354,-33.78459,-35.86985,-37.89579,-38.78022,-40.94002,-41.4627,-42.29993,-43.01346,-42.85093,-42.99976,-41.67403,-41.91964,-40.2805,-39.1604,-38.63979,-36.07741,-35.45065,-33.14599,-31.74361,-29.65531,-27.82267,-25.95492,-23.89258,-22.5842,-20.13472,-19.59391,-17.55017,-17.39564,-15.77754,-16.11592,-16.31172,-17.33357,-18.85627,-22.17849,-24.0416,-25.09247,-25.9419,-26.03067,-26.13215,-24.92063,-24.19405,-23.29034,-21.67936,-20.64276,-19.40653,-19.11825,-17.25754,-16.49335,-15.80147,-15.73755,-14.906,-15.37579,-14.28262,-15.21627,-14.9223,-15.63636,-15.80856,-16.87637,-17.66619,-19.07058,-21.02941,-22.29432,-23.94512,-25.58098,-27.01618,-28.29008,-29.2563,-29.53043,-30.37965,-30.62168,-31.12252,-30.98959,-31.56118,-31.08098,-30.77191,-31.17561,-30.10022,-30.65224,-29.39347,-30.36829,-28.96109,-28.99721,-28.80559,-27.74028,-27.57669,-26.37301,-25.84524,-25.38994,-24.48927,-24.55231,-24.05696,-23.8036,-24.25909,-24.44031,-25.67471,-26.44384,-28.36213,-30.97432,-31.76772,-35.4538,-36.7365,-39.61076,-42.54206,-44.57174,-47.85688,-50.843,-53.20815,-56.86385,-59.31999,-62.1878,-65.34016,-67.57998,-70.80732,-72.33614,-75.92494,-76.64525,-79.54766,-80.21606,-82.04776,-82.80235,-83.85519,-85.06627,-84.96109,-85.5281,-85.74647,-85.66902,-85.77225,-84.83695,-84.66483,-83.46011,-82.49262,-81.46169,-80.06108,-78.5523,-76.48396,-75.47057,-72.639,-71.90327,-68.43578,-69.56176,-66.59346,-65.79943,-61.4984,-58.66412,-52.66617,-47.70678,-42.4449,-36.13721,-29.64064,-23.51287,-16.5063,-11.03191,-3.254574,1.104312,7.968804,12.39145,18.38106,22.57004,27.16232,31.10637,34.72272,37.75847,41.87961,43.42285,46.18977,47.09808,48.24681,48.42618,48.10457,46.84893,46.4652,45.27575,44.59654,42.56372,41.65317,39.6805,38.16234,36.46109,33.91483,32.10861,29.87168,27.90355,24.78632,23.11435,21.08205,18.22636,16.89102,14.40839,14.0843,10.87622,12.13304,8.877163,10.30948,9.564787,10.56388,10.08767,9.729507,11.95964,11.03826,13.12706,12.12772,13.18319,12.44227,13.00698,14.29781,14.45181,17.4668,18.29567,19.88004,23.64882,27.34306,26.02907,33.88407,32.19597,37.59089,39.43359,40.94053,41.0706,44.32284,45.12617,47.13901,51.14507,50.38956,54.17456,56.7692,61.93547,59.48172,65.3898,65.45768,70.19974,71.31465,77.00059,72.48606,84.62196,76.90485,82.22424,85.15303,82.44116,86.93789,85.57463,84.57393,86.84345,84.07963,83.97202,82.95791,80.9839,78.80927,73.55195,74.15498,70.82694,71.013,65.99527,70.62415,61.11018,63.74925,62.5943,55.30162,58.44789,54.89916,49.22568,48.07222,40.72973,43.37253,31.61005,33.79835,27.19993,23.61702,21.39468,16.0808,11.98801,7.86684,3.81216,0.003088792,-4.141162,-7.576893,-12.87165,-14.84226,-20.18696,-21.44697,-29.63797,-27.8212,-34.61202,-35.72253,-42.73359,-38.89438,-47.45748,-47.63069,-49.02002,-52.23911,-54.49329,-56.24407,-57.69413,-60.9011,-59.86169,-63.05167,-64.02066,-65.68749,-66.28236,-68.73163,-66.363,-72.41818,-67.59271,-71.81093,-71.43343,-72.03206,-74.93877,-72.47891,-76.01383,-75.23562,-77.73674,-79.58916,-79.05856,-79.92278,-79.08378,-76.52583,-76.51977,-72.75328,-73.78175,-70.7734,-69.22285,-70.84473,-71.91736,-70.26155,-75.50039,-72.84634,-78.25517,-80.32418,-83.24186,-83.41668,-86.51691,-87.41062,-89.34677,-92.98692,-91.88968,-93.62706,-95.06689,-99.42901,-94.6809,-99.27365,-95.87707,-98.451,-96.29032,-99.65845,-91.29235,-100.8098,-90.47448,-92.08755,-92.2219,-86.11051,-87.88416,-83.4832,-80.29033,-80.44593,-74.51886,-72.35911,-68.76784,-65.65155,-61.39972,-54.15936,-51.59137,-47.65853,-43.00436,-36.0107,-36.78282,-25.88924,-23.88844,-21.42221,-11.40834,-11.97608,-7.892672,-0.5536061,1.652663,9.381081,8.198381,18.60355,18.78448,23.5504,27.55806,28.81897,33.45016,35.77033,38.99846,40.83925,43.03085,44.11856,46.76741,49.93536,50.38027,54.11702,53.66116,61.10229,57.84185,62.37351,62.24996,67.78771,62.22568,68.30257,67.01971,65.61325,66.26439,65.47492,64.6767,61.61104,61.15366,55.16429,54.1968,51.15669,49.19244,46.61836,45.71829,39.58909,43.77811,34.46875,37.19028,31.81625,30.55665,28.14779,23.1445,24.75156,19.45872,21.56457,19.25747,20.38465,19.58407,21.36634,20.09617,21.19551,19.68922,19.32518,17.80687,16.64328,16.27753,14.1631,14.3376,11.61061,9.692001,8.684047,5.930004,5.10182,2.355743,0.7513577,-1.138596,-3.553528,-5.262406,-7.171259,-9.43756,-11.80794,-12.57841,-15.94916,-15.92994,-18.94313,-19.09035,-21.05384,-21.92163,-23.04068,-23.72019,-24.25351,-25.02126,-24.75811,-25.97179,-25.13548,-25.6662,-25.12337,-24.03896,-24.56504,-22.97683,-22.46668,-21.05431,-19.92169,-18.77235,-17.68585,-15.5752,-15.08631,-12.87907,-12.31107,-9.152091,-8.774647,-5.917224,-5.555578,-2.350601,-1.696976,0.8387556,1.795905,4.196231,5.070171,7.025443,7.791649,9.579665,10.86433,11.34098,12.27121,12.99935,13.99801,15.91326,18.14274,20.77552,22.45267,25.55595,27.81743,29.72302,31.95857,33.5738,35.67763,37.56599,38.49866,39.63834,40.49762,41.22773,41.43195,41.33826,41.25625,40.25023,39.84673,38.45497,38.42789,38.5764,39.01869,37.9509,38.92103,37.4516,36.92207,36.75259,35.05126,34.86024,32.99376,32.783,31.82162,32.2328,32.23529,31.42141,32.09668,31.49478,32.69425,32.18355,33.01555,32.4341,33.49215,32.99778,33.8406,33.4615,33.69709,34.18634,33.32059,34.1639,33.4581,34.38754,34.09283,34.19225,34.89291,33.90268,34.88302,34.07091,34.9143,34.22096,33.59861,32.28691,31.62365,31.36088,31.13804,30.88562,30.84453,31.02064,31.44693,32.5165,32.56408,32.96835,34.54062,34.93886,36.65139,36.40568,38.39634,38.13421,39.31589,40.13721,40.09199,41.3186,41.45344,41.83376,41.954,41.53356,41.4149,41.44788,40.69172,40.473,39.33164,39.2206,37.16406,36.80559,34.8347,34.38641,32.1388,31.27114,28.94991,27.22147,25.51231,22.69277,21.52158,18.42654,17.2322,13.52791,12.71818,9.272569,7.915864,5.11272,2.82137,0.3474934,-2.281619,-3.938158,-7.274352,-9.221507,-12.0674,-14.09232,-16.76686,-19.06046,-21.6776,-24.21442,-26.67129,-29.27204,-30.9953,-34.18182,-35.41136,-38.6505,-40.09199,-42.88682,-44.45715,-46.7242,-48.71958,-50.51347,-52.02638,-54.1691,-54.6442,-56.36062,-57.3966,-58.52476,-58.99769,-59.84577,-60.66057,-61.02564,-61.48472,-61.47321,-61.98381,-62.24564,-61.89176,-62.27746,-61.55103,-61.95891,-60.86138,-60.97009,-59.85829,-59.98301,-59.06253,-59.09917,-58.17708,-56.76479,-56.99387,-55.6571,-57.13894,-54.12232,-54.12133,-52.64276,-51.9539,-52.08531,-51.48851,-53.04621,-53.31614,-53.99828,-54.12747,-54.16328,-54.27815,-55.18185,-55.56048,-56.02783,-55.88286,-56.26457,-57.23123,-56.25128,-56.7845,-56.6696,-57.03246,-57.08272,-57.02,-56.96731,-56.88117,-55.86037,-55.93168,-54.67902,-54.53749,-53.49146,-52.69982,-51.78755,-50.31404,-49.29269,-47.78343,-46.70892,-44.86132,-43.29518,-42.20794,-39.64154,-38.01551,-35.76823,-33.15526,-32.10329,-28.55646,-27.09004,-23.23927,-21.41559,-18.30117,-15.34997,-12.59063,-9.397368,-6.235897,-3.695603,-0.1956243,2.557291,5.598626,8.892759,11.53698,14.92137,16.88618,20.32797,22.4426,25.14805,27.05949,29.105,31.05414,31.41558,34.09951,35.02058,37.91838,38.34402,41.75898,42.04984,44.26887,45.15633,47.41081,47.44135,49.15013,49.67113,51.76509,52.71929,53.32811,54.48543,55.47537,55.96469,57.19223,56.8522,57.10133,56.46299,55.90123,55.05276,53.17817,52.00143,50.05718,48.23319,45.7587,42.83741,40.67229,37.2996,34.66614,31.31909,28.73532,25.27987,22.80633,19.68031,17.11499,13.99663,12.05009,11.18096,7.929456,6.222613,3.66934,0.8721425,-1.037001,-4.12051,-5.725748,-8.322701,-10.51136,-12.71536,-14.35672,-16.8289,-17.92639,-19.192,-21.25046,-22.10277,-23.59854,-23.50621,-25.56511,-25.5399,-26.58866,-26.3609,-26.55148,-26.21015,-26.62044,-25.48999,-25.97856,-24.55662,-24.51871,-23.13143,-22.55958,-21.50634,-20.56484,-19.48079,-19.0517,-17.9735,-17.1915,-15.12529,-14.0508,-11.02575,-10.08366,-6.40372,-4.807267,-2.068899,1.23155,3.264055,7.140445,9.328158,12.32967,15.2632,17.84531,20.92528,22.20862,25.38121,26.40741,28.13035,28.77672,31.22775,30.41477,31.72374,30.81951,31.58111,30.35454,29.5144,28.311,26.18786,25.67405,23.00246,23.72042,20.70992,20.54585,17.89707,17.27526,15.33054,13.2605,12.07917,11.025,8.403897,9.669358,5.819226,9.127387,5.167619,7.344577,6.446852,6.199227,4.361227,8.32743,4.311689,7.335667,6.334987,6.769628,6.31165,7.151221,6.533636,8.031051,7.8064,8.880269,10.51546,10.51128,11.69364,12.15223,12.45217,12.55873,15.62651,14.67019,16.63471,16.47354,19.31581,19.03355,19.65944,22.78188,22.7654,22.80768,26.14175,23.02522,30.34752,24.86133,32.2109,29.09074,31.92456,32.31487,33.13592,33.43287,32.71408,34.98956,33.04157,34.88436,33.14308,36.9047,34.52971,40.0028,37.85404,41.74008,40.91729,43.62483,43.67264,45.68516,46.35385,46.58438,47.33502,47.76524,47.04228,47.83191,47.01039,46.47864,46.22115,46.1787,47.12354,45.88487,46.86115,45.72398,46.86536,45.09417,46.2506,45.22925,45.39112,44.44115,44.09582,43.2744,42.48953,41.77347,39.87999,38.36046,37.59946,35.39333,33.44927,31.49462,30.25942,26.38531,25.69173,21.85236,20.15228,16.95633,13.94829,11.20525,7.621273,5.051367,1.657679,-1.221422,-5.044977,-7.859644,-11.68303,-14.55961,-18.17617,-21.87727,-24.63555,-28.49813,-31.79189,-35.03019,-37.99031,-40.46327,-45.49606,-46.96138,-50.94135,-54.17553,-57.03735,-57.5878,-63.93347,-62.9702,-67.68984,-69.56222,-71.69813,-72.7079,-74.52277,-75.30397,-76.35545,-77.74285,-78.39575,-79.99845,-80.17372,-80.88475,-80.60578,-80.30162,-78.61028,-80.93997,-78.14669,-78.99581,-76.43376,-77.70187,-74.17627,-72.45831,-72.81869,-69.93819,-67.33823,-68.37277,-62.02237,-68.25639,-60.57771,-66.76598,-62.88486,-64.88078,-65.44865,-66.24948,-66.20996,-65.74928,-68.41345,-65.87258,-67.97494,-64.15952,-67.36794,-63.12743,-66.96312,-63.29134,-65.26236,-62.77344,-63.64402,-61.89317,-62.06774,-60.45063,-59.53949,-57.53464,-57.26151,-54.73332,-53.66514,-51.88532,-49.52011,-47.24192,-45.09693,-42.78187,-39.36777,-37.33489,-33.76514,-31.45739,-27.81063,-24.80158,-21.62467,-18.37693,-14.20399,-11.5053,-6.40055,-4.162833,0.04871857,3.516976,7.459399,10.46923,13.40783,17.83749,21.03388,25.33089,29.31399,32.96217,36.9046,41.43967,45.63213,49.60188,54.39056,58.19849,63.85889,66.23047,71.83399,74.71299,79.39372,82.54682,85.7477,89.31316,92.02546,94.73845,96.42528,99.16352,100.6201,100.6206,101.988,102.2061,102.0793,100.9077,101.7049,99.8842,98.19926,96.20994,94.61879,91.34323,89.74288,87.39014,83.15477,80.67452,76.36863,72.71229,68.62004,64.5805,59.08023,54.91102,48.99154,43.29106,37.68897,31.59347,25.29963,19.96245,13.83622,8.536908,2.595427,-2.877213,-9.073182,-14.94429,-20.97798,-26.81814,-32.60505,-38.82101,-43.93298,-49.44782,-54.33287,-59.08851,-64.34211,-66.78289,-70.5959,-73.98872,-77.04745,-79.99045,-83.27187,-84.90488,-87.89619,-89.65284,-91.02982,-92.49262,-93.35717,-93.42991,-93.83223,-92.62434,-92.19991,-90.50326,-89.00314,-86.09619,-84.95906,-80.8609,-77.94618,-74.22556,-69.68209,-65.89156,-61.08004,-56.87003,-51.70643,-46.51076,-41.51633,-36.2291,-31.43582,-25.34145,-21.11392,-14.58914,-10.42578,-5.037406,-0.2401556,2.460432,7.908648,11.44925,15.20411,19.55615,23.51037,28.74561,31.70062,36.71391,39.61861,44.09577,47.36055,51.61249,54.14955,57.65692,61.1377,63.21157,65.97381,65.98366,68.17384,68.34442,70.49028,70.1936,71.46921,73.03068,72.49152,74.02262,73.20115,74.5117,72.78616,73.45225,71.79723,71.96351,69.79578,69.56077,68.21585,66.39492,64.78826,63.6869,61.97161,60.6581,59.71254,57.29555,55.26432,54.09816,51.12764,49.99701,45.97594,44.38295,40.07842,37.80322,34.41132,30.47607,27.1352,23.16591,19.67342,16.51706,11.82149,8.763594,4.682689,1.269376,-2.583794,-6.287929,-9.706067,-13.40737,-16.4185,-20.10881,-23.86081,-26.88004,-29.26457,-31.45457,-33.93316,-34.74843,-37.6663,-39.99281,-41.16496,-43.54843,-44.51265,-46.77448,-47.49951,-48.89209,-49.49887,-50.74732,-51.41518,-52.13694,-51.24146,-49.80519,-49.7425,-48.93245,-49.0557,-48.74798,-48.72131,-48.39009,-48.95985,-48.78235,-49.80694,-49.85546,-50.53899,-51.2306,-51.29613,-52.13105,-52.88267,-53.15757,-54.40604,-54.51172,-55.556,-55.29847,-57.34548,-56.88581,-58.64769,-58.54163,-58.75734,-58.04329,-58.18785,-56.90192,-56.56682,-55.13759,-54.62436,-53.2316,-52.1264,-51.03919,-49.00748,-48.61603,-46.24417,-45.72741,-43.88021,-42.84524,-41.41938,-39.9925,-37.85636,-34.74614,-32.04689,-28.62265,-25.96396,-22.22426,-20.2087,-15.76531,-13.60808,-9.73939,-7.066837,-3.374099,-0.1729573,3.616867,6.39314,10.08889,13.19123,16.75762,20.05092,23.05523,26.92335,29.50668,33.25278,36.20207,39.45925,42.21125,44.57813,47.82891,50.05857,52.57451,55.36925,57.06912,59.58467,60.78703,61.36177,61.02924,61.43955,62.07164,63.0601,64.17258,64.90315,65.85058,66.55879,67.15832,67.66315,67.96331,68.16756,67.40011,68.22401,67.81135,68.19092,67.10059,66.84308,66.53605,65.37594,64.86096,64.00104,62.6386,62.09359,60.49941,60.30398,58.87749,58.71452,58.15431,57.80702,57.52501,58.1301,56.71459,55.08717,53.44696,51.03125,49.80074,47.00053,45.53002,43.38122,41.06555,38.3134,36.11273,33.6963,30.6596,28.11164,24.6208,22.05449,18.65919,15.38789,12.31436,8.907864,5.95543,2.842717,0.4822235,-3.438119,-5.617304,-8.831948,-9.915312,-13.39984,-14.57095,-17.92186,-18.37654,-21.41769,-22.33645,-23.94284,-26.11438,-26.02988,-28.8799,-27.96777,-30.24666,-29.20106,-30.92681,-30.00664,-30.67962,-29.82822,-29.82292,-28.97475,-27.90758,-27.63749,-26.1774,-25.79426,-23.85745,-22.73615,-21.09543,-19.01428,-17.91958,-15.43182,-13.69215,-12.10802,-9.712901,-8.52627,-5.788205,-4.008332,-1.656101,0.659053,1.429173,4.684531,5.7057,8.319002,9.113362,10.6513,11.68356,11.1673,12.22354,12.50861,12.60882,12.9099,12.91818,12.93918,13.50472,15.85607,16.88918,19.26237,20.17322,21.64584,22.30666,24.14971,24.97316,26.32334,26.97696,27.39411,28.10477,28.80533,28.6754,29.18659,28.76377,28.72365,28.85959,28.46508,28.2427,28.05405,26.78459,27.61776,25.7062,26.30483,24.31087,24.65361,22.76216,22.7366,21.05131,20.65059,19.41985,18.37517,18.04239,15.57569,14.98705,13.45768,13.76414,12.96625,12.45854,12.00934,11.0485,11.35758,10.01355,9.907353,8.782947,7.871357,6.999343,6.48508,5.085089,4.93249,4.096971,4.23685,3.567011,2.902407,2.975532,1.817372,2.1934,0.6850575,0.592084,-1.07529,-1.238614,-3.116816,-3.427999,-4.823539,-6.388197,-6.821487,-8.69174,-9.060903,-10.78115,-13.2832,-15.70692,-16.12515,-17.44986,-17.59528,-18.61389,-19.1367,-19.67422,-20.22852,-20.73426,-21.28505,-21.67067,-22.89,-23.04128,-24.01391,-25.15283,-25.82692,-27.37367,-28.42439,-29.76523,-31.17116,-32.84795,-33.8224,-35.50243,-37.32635,-39.04893,-40.30891,-42.38596,-43.74493,-46.31587,-47.48499,-49.73841,-50.80084,-50.71304,-51.69599,-51.59063,-52.79381,-52.36014,-53.21503,-53.70784,-52.46767,-53.3931,-52.58644,-53.64219,-52.30518,-53.37202,-51.6834,-52.92357,-51.71263,-52.41193,-51.66508,-51.77017,-51.78086,-51.08804,-51.09203,-50.55511,-50.7608,-49.58769,-50.33817,-49.08006,-49.74705,-49.62601,-49.2549,-49.47753,-48.89223,-49.80151,-49.24581,-51.03701,-50.31472,-51.24027,-50.8319,-51.83413,-51.56608,-52.10395,-52.08529,-51.22034,-50.25592,-49.44659,-49.16564,-48.49447,-48.44822,-47.7254,-47.48202,-47.1752,-46.90582,-46.461,-46.61524,-45.57595,-46.06088,-43.62383,-42.20698,-39.77331,-39.0959,-38.20715,-38.05035,-37.71172,-38.63122,-38.43617,-40.27701,-40.71008,-42.05054,-43.56062,-45.2396,-46.66906,-48.47963,-50.20826,-52.16936,-54.09392,-56.69664,-57.78107,-60.30843,-60.24864,-60.45442,-60.6847,-60.70244,-61.06936,-61.33731,-60.58792,-61.065,-59.41584,-60.25414,-58.40148,-58.77019,-56.72961,-56.10166,-53.86205,-53.33015,-51.21923,-49.04788,-47.79203,-44.39626,-43.4471,-39.2194,-38.16051,-33.9374,-31.46695,-28.18022,-24.42142,-21.15289,-17.63591,-13.02484,-10.15159,-5.117111,-1.881335,3.190804,7.232111,11.413,15.91004,20.07338,25.47031,29.80806,34.03101,37.64368,42.23648,46.31871,49.5802,54.37055,56.56049,61.42034,64.06702,68.07194,70.6045,73.80769,76.8393,79.99592,81.8007,84.0471,85.92417,86.89275,89.01334,89.07084,90.83276,90.16419,91.48922,90.31939,91.19989,89.90519,89.59152,89.65761,88.71242,88.41473,87.37209,86.83003,84.28093,82.50998,79.35444,76.56694,74.93776,73.2789,73.76108,72.97169,74.7878,75.31474,77.54761,79.22232,82.14976,83.9689,87.58312,89.97936,94.67067,96.75354,99.06871,100.4076,102.1854,102.6736,104.9488,104.5828,106.2,105.3206,107.261,106.0674,106.7246,105.5971,105.3646,103.9585,103.4197,101.3876,100.4953,97.87593,96.76489,93.91487,92.12129,89.30443,86.50043,83.89747,80.98765,78.12149,74.57018,71.41136,67.81297,63.63377,61.20773,56.45007,53.27801,49.25797,45.08673,41.30829,37.25339,33.43257,28.66623,25.41452,20.6,17.25479,12.37965,9.888873,5.064837,2.953433,-1.617436,-4.528832,-7.895348,-10.05806,-13.29485,-14.70357,-18.80297,-18.92424,-22.31672,-23.08665,-25.01837,-26.01853,-26.82415,-27.53577,-27.88277,-28.37773,-27.99745,-28.38194,-26.45611,-26.30288,-24.74429,-22.84384,-21.70747,-19.59014,-18.06183,-14.78402,-13.72593,-10.9397,-9.633236,-6.763225,-6.001529,-3.872267,-2.025253,0.05817778,2.269666,4.869738,6.875388,9.07454,11.28,12.48495,14.24255,15.45351,15.35135,17.26751,16.85614,15.76888,15.80384,15.15707,16.66435,17.1661,20.16069,19.95704,23.08988,24.13988,26.76234,28.20293,28.90958,30.56803,31.167,32.48436,33.30665,32.90501,33.30706,32.80293,32.00868,31.47465,29.02422,27.7079,26.09113,23.27737,21.40619,18.0506,16.49306,11.46287,10.2531,5.087056,2.698207,-1.76336,-4.943677,-8.954394,-12.27872,-16.70797,-19.71014,-23.86603,-26.41752,-31.14698,-32.91657,-37.13925,-39.87526,-43.05717,-46.31815,-48.38513,-52.71228,-53.74391,-56.39187,-58.48586,-60.30582,-62.72574,-64.16376,-64.47737,-66.81,-66.74009,-68.92312,-68.54968,-69.30714,-69.18467,-69.53849,-68.94373,-69.27607,-67.92861,-68.19696,-65.99735,-65.61794,-63.85347,-62.18598,-60.54325,-58.46487,-56.55052,-54.40345,-51.87354,-49.4976,-46.96294,-45.11851,-42.92799,-40.5,-37.24592,-35.00119,-31.7106,-27.96019,-25.23567,-21.75836,-18.89137,-17.0543,-13.77007,-12.2056,-9.482211,-9.900008,-7.370177,-7.494396,-7.400644,-7.441321,-7.377004,-7.586531,-7.788712,-8.514122,-9.271187,-10.79161,-11.73819,-13.64616,-15.69932,-16.42611,-18.33957,-20.54408,-21.0993,-24.29801,-24.76554,-26.25397,-28.65764,-30.1074,-31.77613,-33.30424,-35.08268,-35.35187,-37.04243,-37.72837,-38.80058,-40.14612,-40.65065,-42.43103,-41.9572,-43.81379,-44.02425,-45.5315,-45.76708,-47.41624,-47.1006,-49.15552,-49.57056,-50.39509,-51.13447,-51.54956,-52.21295,-52.57487,-54.09156,-53.41523,-54.81006,-54.42202,-55.47501,-55.84298,-55.16464,-56.40077,-55.50222,-57.01276,-55.78323,-57.13656,-56.21408,-56.33481,-56.50478,-56.02801,-55.88768,-56.23213,-53.01153,-53.37755,-50.26581,-51.06995,-49.03044,-49.17392,-47.95812,-48.1626,-47.69773,-48.2907,-47.95821,-48.28003,-48.94651,-48.97753,-49.58718,-49.86329,-49.93059,-50.96462,-50.41551,-51.36666,-49.53906,-51.4992,-50.51532,-51.08513,-50.99185,-51.4967,-52.45879,-52.13856,-53.39391,-53.03495,-54.09348,-53.94216,-53.9435,-52.48029,-51.66066,-50.00796,-48.76274,-46.4416,-45.50161,-43.17805,-40.96634,-38.81256,-36.43007,-33.7728,-30.79258,-28.07279,-24.49049,-21.7152,-19.01327,-14.35582,-11.86835,-7.298448,-4.725244,-0.6010719,3.024849,7.094458,10.66173,14.41764,18.55188,22.84504,26.47298,30.1984,34.2379,37.74177,41.78658,45.08879,48.68896,51.99621,55.86401,58.13578,62.12479,63.774,67.29393,68.95894,72.07374,74.12707,76.49872,78.49476,80.99062,82.00818,84.32231,85.39906,87.29356,87.54793,89.99927,89.10915,91.29379,91.04332,91.47162,91.60072,91.32664,91.5057,90.46629,90.99845,89.74428,90.47349,88.84861,88.90453,86.77854,84.4061,82.09033,80.06477,79.32872,77.7839,79.10866,78.60497,80.91754,81.53355,84.29982,86.74202,90.61264,91.0353,93.63275,94.13963,96.82951,97.52592,99.51019,98.82898,101.1495,100.6992,102.1499,102.0557,101.4857,102.8434,101.9171,101.7808,101.5642,100.7355,100.3052,99.26592,98.61863,95.93538,95.40053,92.45203,90.46611,87.82958,85.52145,82.36488,79.50761,76.3787,72.89196,69.825,65.63668,62.87622,58.35381,55.14045,50.91305,47.55772,42.78922,39.38424,35.58847,32.32658,27.40287,25.11945,20.5436,17.4106,13.37882,10.18704,6.224907,3.808958,-0.2661434,-2.700538,-6.265147,-8.572252,-12.28664,-12.95388,-16.68153,-17.38927,-20.16871,-20.92355,-22.99787,-23.38459,-25.01499,-25.23802,-26.91874,-26.20538,-27.75672,-26.92477,-26.85532,-26.00689,-24.38956,-22.93681,-20.63269,-18.80074,-15.53486,-12.93346,-9.600151,-6.095014,-2.826422,1.345096,4.782775,9.448115,12.82363,16.28725,20.91839,23.64374,27.66852,30.29427,33.20344,35.79414,38.32946,40.53664,41.34423,42.86056,42.35928,43.019,40.53036,39.33551,35.23958,33.7869,30.31836,30.06732,26.9111,25.4445,22.25364,20.05074,17.33299,13.52056,10.78992,6.284611,2.784905,-1.915131,-5.720509,-10.51145,-14.61932,-19.47223,-23.58601,-28.70942,-32.24388,-38.46564,-41.12832,-47.07448,-49.68478,-54.47982,-58.03268,-61.84396,-64.23961,-67.96133,-70.87008,-73.21864,-75.98947,-77.18033,-79.97377,-80.91909,-83.35662,-83.33768,-85.11898,-84.72593,-85.51028,-85.06376,-84.96589,-83.33993,-83.11071,-80.90461,-80.44547,-77.19197,-75.3308,-72.71088,-70.48257,-67.67195,-63.6215,-61.73927,-57.6368,-54.59121,-51.68552,-48.21418,-45.68852,-42.45988,-39.54858,-36.70299,-33.47155,-29.79894,-27.03428,-23.43388,-21.37982,-17.06247,-16.35299,-12.5092,-12.98658,-10.1297,-10.49276,-7.193493,-8.318564,-6.425176,-7.719261,-6.28815,-7.2417,-6.639374,-8.035883,-8.250913,-10.32857,-11.1461,-13.60444,-15.42959,-17.9428,-20.19697,-23.02626,-25.67069,-29.05531,-32.37267,-35.34625,-37.48663,-42.17408,-44.33877,-48.6488,-51.71101,-55.17574,-57.86833,-61.27511,-63.77605,-66.2949,-68.70486,-71.69438,-73.29748,-76.05987,-78.24126,-80.69077,-82.20945,-84.5679,-86.34679,-88.36613,-90.06904,-91.90623,-93.45298,-94.90344,-95.84493,-97.31683,-98.61395,-99.01049,-100.9259,-101.1246,-102.2793,-102.0695,-102.6591,-103.2262,-103.4163,-102.9784,-103.3223,-102.4286,-101.0728,-98.89553,-98.69559,-96.23016,-96.36887,-94.44095,-94.47594,-92.46059,-92.72078,-90.68484,-90.60394,-89.20817,-88.19697,-87.28656,-85.57499,-84.99576,-82.86876,-81.29017,-78.25051,-77.78594,-74.35301,-73.29901,-70.02311,-69.55689,-65.69409,-64.831,-61.82219,-60.06802,-57.79238,-55.74645,-53.58866,-51.65309,-49.81178,-46.98454,-45.29662,-43.50883,-41.00495,-39.33915,-36.17142,-33.57497,-30.71772,-27.55533,-24.6451,-22.25131,-17.97234,-16.1767,-11.37072,-9.023786,-4.11195,-0.9833441,4.620397,8.847844,14.33317,18.80476,24.39898,28.7188,34.59048,38.45068,44.23857,48.54964,53.89751,58.30398,63.45869,67.88082,72.65158,77.73604,81.30279,86.35497,89.93519,94.69201,98.51133,102.4667,105.2964,108.3628,111.9299,114.2993,117.7625,119.6921,122.9571,125.0242,127.62,129.4286,131.1572,132.5735,134.7404,134.8524,134.6093,134.129,133.7167,132.1582,131.9672,131.1504,131.1687,131.6784,132.4603,133.2441,134.6781,135.1318,137.3957,138.4357,140.6624,141.821,143.8016,145.42,147.2175,148.5836,150.3619,152.1066,153.4477,155.9848,156.7706,156.4507,156.7473,156.1104,156.243,154.526,153.9539,152.0113,150.3857,149.0694,146.2909,144.3373,141.648,139.3151,136.6597,133.8352,130.7024,127.351,123.6222,119.5681,115.6807,111.1903,106.3338,101.3318,97.28158,91.42625,86.55944,82.0324,75.73958,71.53976,65.75558,60.81689,56.2965,50.55858,46.42348,40.28109,36.33607,30.87587,26.2241,21.54041,16.67527,11.58115,6.953307,2.111136,-0.4409328,-4.923973,-6.684637,-10.50671,-11.38182,-14.58961,-15.08192,-16.3485,-17.02267,-17.1475,-16.77947,-16.62122,-15.31724,-14.33512,-12.34686,-10.97413,-8.640783,-4.998118,-3.564999,-0.3082855,2.834949,4.910003,8.35757,10.98759,14.87367,17.40429,21.17191,23.18692,26.63473,29.49118,31.56396,34.75291,35.62732,