ConstAcc,0.5,0.29098,-115.1063,-36.67994,30.08296,86.07418,132.148,169.122,197.7776,218.8608,233.083,241.1215,243.6204,241.1912,234.4133,223.8353,209.9748,193.32,174.3297,153.4345,131.0371,107.5132,83.21231,58.45819,33.54971,8.761492,-15.65538,-39.47266,-62.48425,-84.50549,-105.3725,-124.9414,-143.0876,-159.7055,-174.707,-188.0216,-199.5952,-209.3896,-217.382,-223.5636,-227.9398,-230.5289,-231.3616,-230.4804,-227.9386,-223.7999,-218.1375,-211.0338,-202.579,-192.8711,-182.0147,-170.1207,-157.3053,-143.6893,-129.3979,-114.5592,-99.30409,-83.76549,-72.48516,-62.47162,-50.33447,-39.07722,-30.62399,-21.47714,-12.13668,-2.401334,6.444496,13.74263,20.60763,25.61409,28.72097,30.03496,29.98677,28.79331,27.30911,24.11889,20.0489,16.16607,11.55146,6.31353,0.8839826,-4.611044,-10.71767,-17.34171,-24.77118,-33.70046,-43.75284,-53.93774,-64.48462,-74.45067,-83.85677,-92.29738,-99.34095,-105.3551,-110.3392,-114.2559,-117.4333,-119.828,-121.5051,-122.5392,-123.406,-124.1173,-123.8957,-122.9389,-120.8968,-117.3687,-112.4792,-106.2775,-98.48792,-89.65184,-80.00302,-69.90702,-59.45386,-49.15639,-39.1885,-29.66641,-20.84557,-12.66669,-5.077261,1.9939,8.255624,13.87303,18.80183,23.03094,27.24682,31.16235,35.24044,39.23915,43.4466,47.20962,50.76826,53.35714,56.1811,58.59757,60.79989,62.96576,64.35018,65.15301,64.68479,63.27719,61.20836,58.28564,54.82305,51.12372,47.04077,42.82877,38.83421,35.17737,31.64944,28.26073,24.94855,22.02084,19.34817,16.87165,14.6027,12.76594,11.39591,10.39907,9.75421,9.489717,9.695035,10.58079,12.59593,15.79292,20.12932,25.3203,30.94276,36.66894,42.29013,47.51311,52.17667,56.14176,59.41699,62.26129,64.66187,66.51409,67.82755,68.68444,69.26785,69.42225,69.11732,68.1128,66.19389,63.49715,60.32618,57.47489,55.69096,55.45399,56.73086,59.11518,62.23233,65.72685,69.22418,72.57219,75.31332,76.92452,77.59124,77.88362,78.19499,78.85493,79.87962,81.25492,82.81809,84.56326,86.08198,86.98002,87.25013,87.01544,86.43379,85.38198,83.72002,81.42602,78.80796,75.65192,72.84734,70.44754,68.66919,67.23902,66.16455,65.8072,65.17278,64.65282,63.11224,61.46051,60.02521,58.39571,55.96468,53.89243,52.28032,50.77585,49.20303,47.31638,45.8565,44.69014,43.14769,42.05033,40.75623,39.18834,37.14248,35.31761,33.52874,30.91398,28.5635,25.76116,22.52566,18.27417,14.18257,10.01173,5.918544,1.584917,-2.924763,-8.023737,-12.44296,-16.78686,-21.1667,-25.93829,-30.93447,-36.02562,-40.74785,-45.3376,-50.03466,-55.09829,-60.48109,-66.01927,-71.76398,-77.72194,-84.07346,-90.62999,-97.13781,-103.5766,-109.8419,-115.8643,-121.6688,-126.8717,-131.4751,-135.8487,-140.228,-144.5524,-148.8359,-153.032,-157.2594,-161.69,-165.9818,-169.7453,-173.0605,-176.3627,-179.5912,-182.707,-185.6424,-188.4617,-191.1392,-193.83,-196.1894,-197.5385,-197.4998,-196.6715,-195.1068,-192.7713,-189.5938,-185.9149,-181.856,-177.8673,-173.9179,-169.8164,-165.558,-161.0001,-155.6785,-149.2756,-141.9877,-133.9509,-125.7488,-117.6307,-109.7469,-101.8827,-94.34352,-87.39116,-81.18208,-75.95572,-71.19218,-66.71464,-62.18774,-57.77792,-53.35713,-48.4402,-42.46614,-36.45708,-30.71414,-25.6409,-21.1555,-17.14572,-14.46104,-12.42328,-11.44782,-10.1284,-9.007231,-8.367759,-8.069793,-7.3958,-7.048557,-6.975178,-6.843049,-6.961744,-6.818057,-7.094531,-7.574607,-7.679308,-8.500716,-9.603182,-10.73854,-11.84154,-14.04166,-17.06416,-19.72545,-22.63527,-25.09171,-27.09998,-28.00992,-29.09961,-29.91785,-30.83192,-31.50762,-32.30557,-32.4196,-33.05935,-33.78995,-34.90397,-35.96863,-36.90641,-37.72432,-38.70658,-39.9898,-42.01601,-44.56607,-47.20292,-49.84885,-51.68986,-52.11989,-51.14755,-49.20367,-46.93579,-45.11898,-44.25665,-44.62505,-46.12527,-49.2768,-53.43057,-57.87304,-61.69869,-64.92898,-67.41149,-69.56654,-71.61122,-73.50053,-75.3802,-77.64577,-80.56903,-84.5142,-89.42975,-94.16899,-98.17964,-101.2785,-103.7836,-105.8801,-107.5918,-109.0161,-110.6587,-111.8237,-112.7111,-113.3422,-113.9787,-114.4711,-115.028,-115.5063,-115.8443,-115.9682,-116.0658,-116.0163,-115.794,-115.4631,-115.0873,-115.1971,-115.6828,-115.9825,-115.3983,-113.7579,-111.2036,-108.0328,-104.2173,-99.1727,-93.26927,-86.86946,-80.85868,-75.21881,-69.9692,-65.09555,-60.53047,-56.11664,-51.87965,-47.47454,-42.97444,-38.40633,-33.94016,-29.83955,-26.04026,-22.31304,-18.59949,-15.21611,-12.07006,-8.812099,-5.567708,-2.59548,0.07016332,2.327155,4.317378,6.073319,7.792811,8.963231,9.399073,9.474055,9.2038,8.69965,9.13542,9.140791,8.968337,9.052363,9.15866,8.710117,7.26733,6.647081,6.405784,5.751877,4.781471,4.45394,2.958884,2.190404,1.037798,0.8771549,0.5012959,-0.1923641,-1.615727,-1.422883,-0.7526417,0.1366072,1.907362,4.407036,7.86556,11.68962,14.52752,15.93467,15.9728,14.83161,13.00497,10.91186,8.844846,7.338004,7.199157,7.989579,9.239652,10.15451,10.73279,10.44596,9.210099,7.142245,4.915189,3.404786,2.680715,2.578804,3.34373,5.214565,7.468341,9.729635,11.43782,12.48698,13.11961,13.2942,13.23897,12.88128,12.02182,10.85709,9.659136,8.621633,7.415728,5.966026,4.010272,1.779593,-0.6514813,-3.329892,-6.518461,-10.38879,-15.15099,-19.88552,-23.41962,-25.12519,-24.98654,-23.76119,-22.26118,-21.08773,-20.84982,-21.52955,-23.58909,-26.59193,-29.94916,-32.33599,-33.99022,-34.42658,-34.07876,-33.30058,-32.7558,-32.57448,-32.89093,-33.45828,-34.23804,-35.43657,-36.83529,-38.17024,-39.32716,-40.61583,-42.02233,-43.67847,-45.48954,-47.37897,-49.22319,-51.41861,-53.61246,-55.65456,-57.39017,-59.2183,-60.74439,-61.26066,-61.53488,-62.2273,-62.88773,-65.62054,-67.93221,-70.07875,-71.86003,-74.23928,-76.62949,-77.35633,-78.13684,-78.44331,-79.0418,-79.21902,-80.56051,-79.94549,-79.95343,-80.08174,-80.49387,-81.07223,-81.04166,-78.96618,-77.67303,-77.09217,-76.12581,-75.05156,-73.72241,-72.26118,-71.12728,-69.94265,-68.25519,-66.24072,-63.64035,-60.92034,-58.65963,-56.52052,-54.79748,-53.91514,-54.04681,-55.19976,-56.04193,-55.33432,-51.79489,-45.68717,-37.18017,-27.35146,-17.32218,-7.557686,1.112152,8.927306,16.10776,23.34084,30.59785,37.87266,44.381,50.42583,56.39576,62.2853,68.07877,73.42665,78.23326,82.53035,85.98361,88.42104,89.98407,90.85697,91.22752,90.90027,89.78293,88.32916,86.65339,85.34565,84.07836,82.36233,79.83695,75.81352,70.56912,64.12071,56.53485,48.09018,39.1835,30.92753,23.59374,17.69636,12.87177,7.46762,0.5984405,-7.932754,-17.68831,-28.5597,-39.65936,-50.44569,-60.87207,-71.25914,-81.6453,-91.88757,-101.882,-111.6931,-120.9658,-129.7149,-137.7173,-145.6682,-153.2498,-160.5469,-167.5086,-173.9998,-179.5364,-183.7503,-187.1161,-190.0588,-193.4245,-197.1719,-199.833,-202.2487,-203.3311,-204.2614,-204.3781,-203.879,-202.0968,-199.0382,-195.7387,-191.9158,-188.4428,-183.6773,-178.6502,-172.9549,-167.5164,-161.5793,-154.5918,-148.0247,-141.7932,-135.5759,-128.9642,-121.1342,-111.7703,-101.6228,-91.56735,-81.87685,-72.66084,-64.18389,-56.37414,-49.09595,-42.54191,-36.95814,-32.57809,-29.07473,-26.5198,-24.21919,-21.73798,-18.39655,-13.58339,-7.163494,-0.06790127,6.256177,11.96766,16.39883,19.77642,21.95224,23.09811,23.89655,24.50261,25.0401,25.2999,25.21928,24.42362,23.79712,23.3444,23.12247,22.38408,21.35206,19.76859,18.06648,16.4017,14.85702,13.53738,11.89781,10.56921,9.117864,7.713833,6.16894,4.20231,1.865038,-0.09430151,-1.933163,-3.533546,-5.329519,-6.889866,-8.018002,-9.089896,-10.8906,-12.56372,-12.99258,-11.42411,-8.376186,-4.893384,-3.390925,-2.654662,-1.993317,-0.7793363,0.5658278,2.384224,4.039891,4.879557,5.139428,5.877693,7.315543,9.87504,13.21025,17.18797,20.80103,23.60388,25.65292,28.10879,30.61725,33.31099,35.72209,38.45475,41.11045,43.25395,45.11456,46.81988,48.52236,50.75313,52.5806,53.72363,54.59522,55.32632,56.08572,56.45436,56.37466,55.61633,54.03205,52.02706,49.91915,47.20554,43.98137,40.40033,36.35373,31.83355,27.25953,23.20154,19.97195,17.62707,15.7518,13.61277,10.50222,6.429785,1.58953,-3.270958,-8.452199,-12.85926,-17.13787,-21.9504,-26.80295,-31.69012,-36.67463,-41.99136,-47.23896,-52.2156,-57.2278,-62.57492,-67.70198,-72.95719,-77.93975,-82.83239,-88.06324,-92.8867,-96.86536,-99.65642,-101.4618,-103.6389,-105.745,-107.8834,-110.1472,-112.9601,-115.9758,-118.4928,-119.4791,-119.0927,-117.5346,-116.7659,-116.4631,-116.2391,-116.0083,-115.8798,-115.8713,-116.0998,-116.3951,-116.4705,-116.1172,-116.0307,-116.3833,-116.6925,-116.957,-117.0596,-117.5551,-118.0427,-118.2631,-118.2076,-117.6677,-116.1151,-113.5496,-110.9173,-108.5091,-106.4013,-105.1217,-104.0353,-103.0317,-101.9235,-100.8994,-100.434,-100.5981,-100.4791,-98.8964,-95.90021,-92.7574,-89.597,-86.87945,-84.0709,-81.69294,-79.46542,-77.01594,-74.60546,-72.00039,-69.28115,-66.75651,-64.27366,-61.87413,-58.98407,-55.73134,-52.32644,-49.18746,-45.84158,-42.63359,-39.19408,-35.71436,-32.47411,-29.04886,-25.578,-22.28714,-19.02642,-16.12856,-12.72744,-8.983121,-4.929778,-0.9828226,2.640682,6.119051,9.839602,13.84664,17.78988,20.54388,23.23936,26.38082,29.9232,33.22913,36.15009,38.45171,41.12323,43.73929,46.29562,47.35487,47.8293,48.03589,47.94682,46.81165,45.2435,44.55429,44.69874,45.10604,45.11307,44.1558,43.37145,43.0069,42.76029,42.74141,42.84407,43.07522,43.01564,42.17676,39.58356,36.41602,33.09468,31.6291,31.49919,32.91991,35.12193,37.64157,39.48603,40.34785,39.83365,38.03757,35.62351,33.57726,33.19394,33.86489,34.35364,34.84869,35.287,35.38299,34.77104,34.12513,33.24418,32.59923,32.21591,31.71542,30.73836,29.70336,28.52855,27.3349,25.59457,23.85533,21.95528,20.60085,19.41568,18.41166,16.93525,14.95178,13.53463,12.14599,10.71519,8.773236,7.049498,5.688243,4.602902,3.734252,2.536894,1.338827,0.3790485,-0.5986909,-1.345229,-2.099981,-3.162771,-3.573324,-3.933928,-3.942588,-4.159406,-4.690015,-4.905394,-4.704694,-4.11667,-3.974113,-3.534735,-3.041936,-1.706877,-0.4237806,0.683929,1.646887,2.267375,3.412455,4.921415,6.221694,7.514776,9.085529,10.72909,12.12462,13.37859,14.29216,15.62196,17.51654,19.623,20.94373,22.41275,23.56273,25.00054,26.30794,27.40571,28.09571,29.0628,30.09654,31.03965,31.49186,32.07726,32.46023,33.32219,34.56345,36.817,39.32307,41.62125,42.93756,43.48083,43.38262,43.97813,44.1098,44.29487,44.27783,43.89362,42.88439,40.5578,37.86315,35.78432,35.21759,36.40252,39.04899,42.06078,44.26488,45.37188,46.22649,46.88348,47.78285,48.99872,49.53832,50.92712,53.11203,55.56194,57.04946,58.35974,59.80879,61.78961,64.19787,66.90759,69.25642,70.98426,72.48842,74.18891,75.23923,75.67312,75.18583,73.12838,71.07552,70.07304,70.27125,70.62062,70.90574,71.13645,71.04882,70.50338,68.68113,67.24923,65.36203,63.74274,61.20428,58.52458,55.72982,52.90691,49.97079,46.66153,43.23947,39.52247,35.78062,32.00799,27.91477,23.66779,19.6319,15.82255,12.27982,8.48049,4.51703,1.025268,-1.975815,-4.995433,-8.401505,-11.20521,-14.11564,-16.66532,-19.4679,-21.93635,-24.61015,-27.22175,-29.00738,-30.5096,-32.01167,-33.8286,-35.50934,-36.7858,-37.71654,-38.14577,-38.33427,-38.05675,-37.39874,-36.47535,-35.47669,-34.03183,-32.72737,-30.41925,-27.67084,-24.78142,-21.90021,-18.84183,-15.82144,-12.31315,-8.2748,-4.364389,-0.8043279,3.001076,6.921155,10.84485,14.14694,17.41452,20.5395,24.11371,27.22144,29.88468,31.89767,33.67808,35.23343,35.96431,36.4807,36.57589,38.31542,40.79275,43.73832,46.33651,48.55936,50.83432,51.9914,53.12521,53.92856,54.25402,54.46007,54.5235,53.45464,51.48981,48.79228,48.00867,49.52543,52.41165,54.58636,56.17312,57.07777,57.34706,57.08482,55.71063,53.12415,49.93674,47.35341,46.34614,45.3938,44.85243,45.95389,48.13153,49.67626,50.26226,50.09033,49.78586,49.44614,48.31791,45.33023,42.84998,41.18701,41.14482,41.06581,40.69477,39.70492,38.68515,37.90282,36.86377,34.9212,32.78535,30.59606,28.8273,26.73222,24.56654,21.82032,19.37952,17.03717,14.95652,13.16124,10.66601,8.052666,5.735323,3.523332,1.527659,-1.327658,-4.117989,-6.721683,-8.476013,-11.19727,-13.53797,-15.92704,-17.51803,-18.69775,-20.31054,-21.93038,-23.2208,-23.92017,-24.14695,-24.53911,-25.23032,-25.54474,-24.87548,-24.41787,-23.76204,-23.39087,-22.60688,-21.45411,-19.77166,-18.00778,-16.62962,-15.30526,-13.22576,-10.64199,-8.179334,-6.236444,-4.127475,-1.522115,1.31164,4.260125,6.734306,9.176703,12.33942,16.07193,19.7417,23.39388,26.90153,30.44236,33.44284,36.37573,38.3581,40.66854,42.02532,43.86999,44.84211,45.67615,46.05988,46.05293,46.31059,45.95504,45.20907,43.8139,42.81129,41.87058,41.13747,41.1037,42.15922,42.99537,43.31834,42.96946,42.40945,41.44719,40.63406,40.05327,39.44717,39.46005,40.76695,43.84206,46.88598,49.02661,50.30618,51.8385,53.72085,56.12339,58.82853,61.25473,63.41086,65.73569,68.481,72.01115,76.90441,82.76786,88.821,94.1999,98.9767,103.7213,108.601,113.6375,118.8118,123.7609,128.7527,133.414,138.3544,143.1802,148.2115,152.1877,156.3151,160.7726,165.5769,169.8957,173.3863,176.9605,180.4489,184.0129,187.3619,190.0485,192.728,195.5461,198.7047,201.4009,203.9387,205.6541,207.7927,209.6238,210.8551,211.7268,212.3624,213.1216,213.7055,214.1961,214.2443,214.1476,214.0127,213.4356,213.1021,212.2578,211.1588,210.1959,209.4849,208.4461,207.0328,205.3711,204.1157,203.204,202.2367,200.4897,199.087,198.3166,197.9357,197.5392,197.0005,197.1327,197.8834,198.7733,199.3512,199.486,199.0737,198.7217,198.3884,198.1242,197.4851,196.9865,196.343,196.4427,196.1745,195.8792,194.8273,194.0897,193.5635,193.0997,192.3559,191.3428,190.6112,189.9494,189.2459,188.2766,187.2692,186.7347,186.3964,185.9806,185.4009,184.6034,184.0814,183.9246,184.1213,184.013,183.3415,182.6703,182.3126,182.4635,182.2822,182.3429,182.3218,182.5936,181.8754,179.4039,175.7133,173.2165,173.0554,174.0373,175.964,177.7152,179.2858,181.7832,184.6964,187.5753,190.2176,192.7362,195.5229,197.9349,199.4357,200.1667,201.6941,203.5,205.1923,206.2053,207.2514,208.1954,208.7617,208.4679,207.3839,206.4831,205.8506,205.4997,204.9155,203.9481,202.3638,200.2018,198.012,195.5881,192.7271,189.1151,185.7378,181.7882,178.8559,176.8586,174.4902,170.319,165.2218,159.3261,153.0382,145.9889,138.621,131.0086,123.4924,115.3376,106.8245,97.81112,88.68679,80.17747,71.17535,61.93456,52.59122,43.76862,35.08506,26.43896,17.48534,9.306369,1.160187,-6.72284,-14.138,-21.66939,-29.02543,-35.80813,-42.65905,-49.33935,-55.07557,-59.68831,-62.60661,-64.65185,-65.79619,-67.00299,-68.13256,-68.79406,-68.59681,-68.10426,-68.89976,-70.17845,-69.45687,-66.64039,-62.89137,-59.03855,-55.19039,-50.89475,-46.02363,-40.82073,-35.77943,-30.5421,-25.32294,-19.70358,-14.2374,-9.162944,-4.475046,-0.07857451,4.821336,9.54988,13.17087,16.17281,18.95974,21.50162,23.20991,24.41966,24.3571,23.58297,22.25194,21.30916,21.22995,22.61942,25.09099,27.48234,29.17618,29.44019,29.65265,30.12219,30.6613,30.792,30.39964,29.09595,27.89311,26.33119,24.9868,23.57937,23.13114,21.5746,20.07785,18.55341,16.36129,13.75719,11.40628,9.452584,8.379702,7.881092,6.600482,5.177188,4.395342,3.891662,3.60534,2.949705,2.943882,3.775531,5.294183,6.784423,8.884275,10.9033,14.78008,18.1768,19.51702,19.8258,21.23739,22.89988,25.14365,26.93312,28.15609,30.00293,32.09216,34.09226,35.58056,36.23642,37.2648,39.34165,40.78832,42.03187,42.41682,43.03713,43.82227,44.40353,44.70094,44.67403,43.838,43.31035,42.74888,41.54028,39.77136,38.11295,37.30964,37.536,37.8976,38.20325,37.87353,37.33531,36.47274,34.55393,32.5535,30.66004,29.20018,27.45284,25.18715,24.06782,25.31087,26.25776,26.78101,26.5075,25.63371,24.808,23.94164,22.87477,22.39358,23.01826,23.79745,25.00544,26.49741,27.51986,27.77623,28.07328,29.18247,30.35331,30.75566,30.90316,30.90735,31.43465,31.98077,32.24459,31.5863,31.03522,30.84751,30.65513,30.48805,29.98317,29.29647,28.91783,28.11518,27.26231,26.62014,25.31134,25.10752,24.6715,24.32972,23.20345,22.36327,21.58596,21.3913,20.7494,19.85381,18.6709,18.22671,17.7892,16.91923,16.11473,15.20942,14.73333,14.47067,14.16213,12.75969,11.88707,11.4227,11.41047,11.1946,10.48327,10.22057,10.57002,11.10657,11.12521,10.87816,10.65311,11.01351,11.63436,11.93771,12.17504,12.15683,12.50434,13.3859,14.37207,14.5421,15.15246,15.48968,16.36295,16.85606,17.32007,17.77024,19.13976,20.18315,21.08727,21.40592,21.56074,21.1085,21.20827,22.26341,23.70975,25.33109,27.71325,29.97388,32.01592,33.7511,35.65645,37.23695,37.63787,36.6165,36.87916,37.11172,38.59366,39.61064,40.40422,40.77118,40.9883,41.04827,41.71846,41.65975,41.13317,40.40383,39.37138,38.70682,38.0147,36.00058,34.07925,32.72866,32.62548,32.91055,32.81536,31.6913,30.62296,29.81112,28.42875,26.84219,24.85234,23.73592,22.18861,21.56505,21.73581,20.71766,18.65876,16.56994,13.72371,10.88449,7.788758,4.087788,0.9121177,-2.114215,-6.572039,-11.26654,-14.86818,-18.44682,-21.83068,-25.1415,-29.50555,-33.0616,-36.11062,-39.29811,-43.12625,-46.94879,-50.54702,-53.26019,-56.21909,-58.68093,-61.23057,-63.77928,-65.44369,-67.11172,-68.7196,-70.49474,-71.28054,-71.62246,-71.59774,-72.32567,-72.37534,-71.74889,-70.19909,-68.73293,-67.37471,-67.16426,-67.05588,-65.65324,-63.05833,-59.56793,-56.08641,-52.54453,-48.60714,-44.54044,-40.67933,-37.00732,-33.0006,-28.46112,-23.745,-20.26316,-16.16956,-12.94331,-9.40852,-5.916824,-2.638761,-0.1101564,2.732351,4.67144,6.509951,7.813578,8.892661,10.45981,14.20797,17.7258,20.90557,21.59589,20.74284,19.42545,19.58566,19.83032,19.28646,18.48677,18.22388,19.15746,21.30266,22.60338,23.38408,24.14202,24.61576,24.57879,24.75407,25.1856,26.06713,26.46001,27.14135,26.91967,26.32706,26.18615,26.19151,25.43585,25.57696,26.56968,27.44631,27.20915,26.06602,24.77599,23.34404,22.33475,21.3032,19.87679,17.77919,16.57656,15.73024,15.8405,14.18992,9.292643,4.746338,1.589947,-2.203399,-6.285732,-11.48992,-17.71867,-23.23964,-28.2948,-32.77256,-36.72844,-40.4197,-43.47733,-45.86349,-48.04846,-51.3646,-54.48699,-56.87923,-59.44647,-61.9569,-64.68291,-67.2687,-69.21083,-70.73291,-72.61382,-75.13075,-77.60394,-79.37071,-80.50381,-80.14446,-80.10954,-80.98888,-82.55327,-83.60857,-85.21553,-86.39032,-88.09163,-89.70875,-91.21432,-92.96821,-95.3068,-96.7545,-96.58061,-95.28612,-93.96885,-93.10343,-92.52732,-91.32699,-88.89341,-86.20456,-83.61781,-80.74766,-76.86378,-73.31646,-69.95037,-66.22327,-63.02644,-58.55489,-54.17022,-50.01828,-46.56113,-42.84996,-39.01542,-34.82222,-30.85512,-27.64225,-24.61499,-21.34283,-19.03147,-17.71091,-18.17841,-16.95375,-12.77392,-7.106583,-2.322557,1.247482,4.62424,8.191719,12.09802,15.70747,18.52316,20.49514,21.92955,22.37881,24.26769,27.86656,32.13068,35.73862,39.59504,44.04804,47.57499,50.11502,53.22831,55.61957,58.31335,62.36767,66.61443,69.25561,71.35148,74.18207,76.4556,78.17392,79.85729,81.19577,82.31885,82.84296,82.75565,82.17312,80.77015,78.37771,75.07448,71.91945,67.76996,63.55534,58.96299,53.59624,48.29608,44.43007,41.07511,38.23421,34.59408,30.91124,27.57337,24.33086,21.12669,17.2166,13.45492,10.82945,8.39975,6.403124,4.238987,2.067228,0.9418838,0.2438996,-0.4890837,-0.4745121,-0.5310336,0.6334377,2.605895,4.576868,4.812698,4.927025,5.245507,6.721192,8.488232,9.506926,9.748308,10.73905,12.08112,13.15786,13.87863,14.83608,16.21522,17.88163,19.46245,20.61207,21.89255,25.05266,29.17619,33.35214,36.52493,39.76521,43.12502,46.5475,49.96937,53.3017,56.02236,58.34561,60.13884,61.78941,61.31401,61.63283,63.0313,65.21389,67.65313,69.17123,69.80505,70.15432,70.76846,71.46734,72.41741,74.10355,74.84431,75.2012,75.00202,73.78413,72.10017,70.07913,68.39532,65.77082,62.98538,59.23956,55.61739,53.36682,52.77263,51.85357,49.44023,45.55145,42.65632,40.5561,36.47713,32.0814,29.11054,26.74651,26.02941,25.4192,22.95414,20.45026,19.8489,19.21548,17.77483,16.82429,16.29826,16.54861,17.05195,17.52803,16.92877,17.02057,17.89672,18.51846,19.46173,20.44093,20.89576,22.26698,22.9947,22.92833,23.85314,25.02142,25.93288,27.47389,29.38515,30.73204,32.18656,33.72511,35.55938,37.19825,38.69324,40.26513,41.26184,42.0796,43.03469,44.19509,44.58339,45.95409,46.86265,47.33746,47.87035,47.91914,48.07623,48.72344,48.60599,47.73957,45.45445,44.7349,44.31711,42.65035,40.85228,38.39292,36.236,33.50282,30.90893,27.16485,22.97729,19.251,17.47467,15.42308,13.05142,11.00938,8.368789,5.390498,2.044698,-1.84225,-6.566403,-10.34319,-12.20835,-13.14818,-16.23485,-21.24898,-25.76002,-29.28818,-33.07898,-36.12873,-39.48297,-42.52217,-44.4306,-46.02418,-49.06641,-51.20796,-53.37546,-55.41297,-58.20574,-60.85144,-64.25064,-66.58236,-69.30001,-71.80401,-74.89085,-78.33158,-80.65139,-82.73693,-84.64253,-87.40096,-89.99006,-92.1012,-94.04669,-95.86563,-97.48724,-99.76091,-101.1073,-102.4752,-104.9893,-108.2438,-110.9848,-112.4392,-112.6367,-111.414,-110.0306,-107.3903,-104.6573,-102.1095,-99.23128,-96.71391,-93.93731,-91.03361,-88.12846,-84.91962,-82.57598,-79.49553,-75.82245,-72.61507,-69.2418,-66.99587,-65.35469,-62.75892,-60.4779,-58.24167,-55.19115,-53.236,-51.46359,-49.23165,-46.82223,-46.42878,-45.55659,-42.29571,-37.49192,-33.43107,-30.697,-28.94087,-27.39258,-24.67375,-21.22149,-19.32903,-18.55452,-16.52522,-15.43527,-14.24834,-13.03251,-13.28857,-12.86908,-11.70453,-11.87448,-12.12413,-11.97822,-11.17412,-10.47603,-10.06759,-10.83478,-13.78024,-17.37795,-18.2868,-16.95941,-15.54083,-14.1968,-11.73048,-8.401113,-5.400826,-2.657424,1.416226,4.85876,9.182376,14.09632,18.70311,23.89081,30.14865,36.06098,40.69043,44.14036,47.41991,51.94543,56.59426,60.34419,64.29571,69.06355,74.89294,80.77485,86.80809,91.80361,96.88719,100.7944,104.8793,107.6233,109.3193,109.0373,108.89,108.082,107.4316,104.8722,101.5306,98.40047,94.38399,89.86584,85.51672,79.49874,73.33775,67.16879,61.08941,54.61322,46.31196,37.87466,28.45002,18.06694,7.70757,0.7805232,-6.805326,-8.914674,-10.53686,-13.81454,-17.23478,-19.75765,-20.69029,-21.56394,-22.1902,-22.34821,-22.62538,-22.05342,-20.19631,-19.63221,-18.71805,-17.07011,-16.07041,-14.59451,-12.72319,-11.23982,-9.230725,-7.480503,-5.349629,-1.700474,1.908436,3.99188,6.589737,9.758814,14.21171,19.01325,24.38479,28.45851,30.70296,33.33963,36.82773,39.70652,42.23608,44.32779,46.19721,46.95542,47.56548,48.26507,48.09163,48.2261,46.91604,45.16954,43.16612,40.85577,37.87383,34.19177,29.17828,23.5115,18.46344,11.64419,4.949039,0.3823169,-1.449236,-3.376336,-7.258034,-13.54345,-18.38348,-21.64846,-24.37555,-27.42667,-30.75456,-33.74533,-35.67994,-36.90439,-38.62786,-39.94622,-41.11516,-42.13996,-40.49455,-38.36865,-36.96404,-34.48036,-31.64758,-27.5127,-23.0755,-18.08098,-12.24648,-5.719536,2.77826,9.78335,15.94817,21.53602,27.49663,32.68426,36.95392,41.51778,47.27735,51.91957,56.81111,61.24909,65.07287,68.85031,71.91926,75.4731,78.52191,79.68296,80.5268,80.51186,80.23579,78.26693,74.59086,70.14036,65.03125,60.51432,57.45935,55.64879,52.67834,52.48648,48.73312,44.73683,40.14067,36.1717,32.37894,28.52427,24.64064,21.42057,17.32771,12.60571,7.900359,2.531543,-1.955833,-7.207641,-12.47457,-17.40454,-22.3434,-27.80833,-33.09067,-39.56828,-43.70843,-46.64892,-51.18079,-57.88818,-61.7041,-65.08404,-67.53715,-70.79041,-74.17745,-76.23172,-78.21473,-78.73858,-79.30493,-81.88226,-83.22462,-83.34495,-82.65233,-82.87338,-83.15902,-82.68573,-83.06937,-80.96741,-79.42819,-78.8273,-77.34091,-74.95106,-73.22186,-70.88592,-69.72567,-67.81691,-64.91516,-63.48017,-61.2134,-60.22503,-58.99116,-57.29864,-56.24054,-55.12391,-52.70785,-49.86886,-47.85943,-45.48676,-44.20588,-41.93907,-40.68897,-38.79661,-37.24022,-35.73235,-34.93769,-34.01076,-32.23595,-30.60849,-29.79552,-29.75669,-29.53313,-28.53179,-27.98981,-27.83491,-28.49936,-29.66783,-29.63972,-30.78405,-31.67383,-33.47391,-35.65124,-37.8538,-39.41711,-40.35616,-42.78444,-45.85369,-47.56983,-49.21023,-51.64197,-54.24316,-56.33435,-58.51344,-60.21782,-62.29054,-65.30336,-67.80999,-69.7357,-71.8247,-73.44342,-75.7813,-78.51879,-80.2044,-81.44036,-82.797,-84.37395,-86.32779,-87.02763,-86.86519,-87.62678,-87.62609,-87.46916,-86.43721,-85.18098,-84.18566,-85.24694,-86.57859,-86.39679,-85.60296,-85.71919,-86.64579,-87.62955,-88.50776,-88.97904,-89.01795,-90.0081,-91.36443,-90.0905,-89.61703,-89.74236,-89.22204,-86.58635,-86.2946,-86.01596,-86.04203,-86.77974,-87.15705,-87.1143,-87.32958,-87.62302,-89.05082,-90.59484,-91.11672,-91.40791,-92.6614,-94.98547,-96.25254,-97.50337,-96.81293,-97.33592,-99.19345,-99.82734,-99.84579,-99.68122,-99.16911,-99.72021,-99.60858,-98.87425,-97.39448,-96.22092,-96.06466,-94.38358,-93.02205,-90.39728,-89.07245,-88.70636,-87.95193,-85.00975,-81.19602,-78.47277,-75.06448,-72.20635,-68.32836,-64.42472,-60.44393,-57.04682,-53.52148,-49.97852,-45.41399,-41.20572,-38.20172,-33.63811,-30.52761,-26.76832,-23.29682,-20.32819,-17.11454,-13.84346,-10.76073,-7.468835,-5.133199,-2.696214,-0.5857531,2.665683,4.687262,6.478869,8.755988,10.69963,12.47999,14.71685,15.88238,17.01857,17.53004,19.26864,20.42477,20.66798,21.14466,21.51097,22.72214,22.81916,22.87746,22.00774,21.75982,21.92628,22.20733,21.73526,20.32035,20.19534,20.08214,18.83814,17.80608,16.73146,16.613,15.81945,15.11088,14.44807,13.4359,13.14338,12.89666,12.38212,10.46305,9.215272,9.895142,10.8722,12.18692,12.21806,13.0208,14.9995,18.08311,20.94068,22.65502,23.92442,23.83543,25.90887,28.88971,31.1007,32.46368,34.90929,36.35628,38.93714,40.49939,41.74698,44.54087,47.67505,50.66354,51.17344,52.13355,51.93729,52.38226,52.59748,51.77594,50.93067,49.19841,47.47188,46.04952,43.22928,40.56664,37.54015,34.73337,31.2505,27.998,24.45668,20.04355,16.7528,12.42167,8.660123,6.60702,4.787373,2.197666,-0.476623,-2.711473,-5.400172,-8.036335,-10.10436,-11.49931,-13.5172,-15.64957,-17.18029,-18.10694,-19.07437,-20.51568,-21.75439,-23.45712,-23.6715,-23.36788,-23.73429,-24.73896,-24.65951,-23.87549,-22.89651,-22.04572,-21.73922,-21.41389,-19.38732,-18.4551,-17.30036,-16.19627,-15.35555,-14.32112,-11.7977,-10.37024,-8.75213,-6.941319,-4.700416,-2.058722,0.6822276,3.212279,5.573649,8.300038,10.98543,14.37052,16.30088,18.86829,22.36737,25.56836,28.02613,30.34026,32.68971,34.53885,37.17461,39.4588,41.18424,42.62245,44.14093,45.7572,46.7032,46.60592,46.45633,46.27736,46.52901,45.43885,45.70128,45.72985,45.05286,44.46289,43.58792,42.50955,40.96326,40.08915,38.44434,37.67644,37.45938,36.0207,35.83984,35.86423,35.1255,35.59133,34.51578,34.5276,35.43031,36.51688,37.67257,37.9823,39.41015,38.88269,38.2848,37.8826,35.52451,34.06308,34.96158,35.64408,35.2418,34.48924,34.72116,35.51074,35.68943,35.36206,35.05299,35.01989,35.1684,35.31925,35.16665,33.84887,33.43845,33.63334,33.64729,32.80535,31.47442,30.76025,30.23735,29.80799,28.19147,27.14323,26.50924,25.81559,25.23059,24.18927,22.96873,22.03162,21.53807,21.56679,19.95171,19.81098,19.37357,19.80125,18.63191,18.51776,18.82983,17.88544,17.85938,17.08364,15.90594,15.18218,14.57146,13.84969,13.53019,12.85003,11.31,10.72426,11.38877,10.86116,10.50012,9.352227,8.535226,8.107799,7.031949,7.110704,6.298079,6.18436,7.395535,8.100004,7.828863,6.81882,7.421756,8.842805,10.52628,11.2619,12.07275,13.199,15.83474,17.57667,19.06962,20.12227,22.22079,23.09899,24.62422,25.93743,27.23119,28.4133,29.2909,30.90725,31.82047,32.96777,35.30858,36.19911,36.953,36.90172,36.82851,36.61468,35.76764,35.18559,33.39578,30.76491,28.99276,27.09732,25.09223,22.53811,17.94751,15.0098,11.31347,8.092192,4.506559,-0.5337939,-4.744684,-10.9099,-16.76981,-21.60481,-26.12561,-29.48775,-31.22219,-34.14826,-37.76988,-40.584,-44.50278,-46.44975,-47.48882,-49.69154,-51.49083,-53.39272,-53.95521,-54.83252,-55.4946,-56.91502,-57.33078,-57.68051,-57.72326,-57.73517,-58.36636,-58.97186,-58.43194,-57.23974,-56.94052,-56.67408,-56.50673,-55.71298,-54.17389,-53.43958,-52.67072,-51.1708,-49.83919,-48.90617,-47.53233,-46.59526,-45.78681,-43.94497,-43.03724,-41.00816,-40.73498,-40.16381,-38.72625,-38.45476,-36.97649,-36.80193,-36.38581,-36.53987,-35.7304,-35.776,-36.54184,-36.66336,-37.91775,-39.07452,-40.25109,-42.50854,-45.11148,-47.03462,-48.59971,-49.57068,-52.47308,-55.55153,-57.78265,-60.79204,-63.55532,-66.49846,-68.41472,-70.60001,-72.99697,-74.80281,-76.90529,-79.36808,-80.98584,-83.12063,-85.16366,-86.84921,-88.35943,-90.30692,-90.66512,-90.77226,-90.99978,-91.64098,-91.50876,-89.86858,-89.25482,-87.49618,-86.53433,-87.24108,-85.76893,-84.11384,-83.25683,-82.72007,-82.14521,-79.9603,-78.49457,-77.96348,-76.61389,-75.75823,-74.13033,-74.00943,-73.16679,-73.09755,-72.76174,-72.01433,-71.60816,-72.3658,-73.45036,-74.60334,-73.65742,-71.99782,-72.21698,-73.17815,-73.09095,-72.89458,-72.58494,-72.49021,-73.36554,-71.8793,-71.06845,-71.07367,-70.91706,-70.69961,-69.97297,-69.25622,-68.07962,-68.1345,-68.53587,-67.63493,-67.25937,-66.64543,-66.75054,-66.44133,-65.82223,-65.28636,-64.53814,-64.38521,-64.12847,-64.20211,-63.62835,-62.93855,-62.42369,-62.82256,-62.79087,-62.81843,-61.46264,-62.16346,-61.80482,-62.13616,-61.88864,-61.45847,-61.65566,-61.50265,-61.93809,-62.0671,-60.83608,-61.11745,-61.54747,-61.59434,-60.68089,-60.4676,-60.00242,-60.09706,-60.69292,-59.42931,-58.72695,-58.89187,-59.08569,-58.66743,-58.33647,-57.65325,-57.39533,-57.70553,-56.89578,-56.65832,-56.0904,-55.94542,-56.61599,-56.61881,-55.40523,-54.84864,-55.17342,-55.25144,-55.04667,-55.03923,-54.15544,-54.33818,-54.8431,-54.84716,-54.38202,-54.08514,-53.36078,-53.953,-54.54258,-53.15764,-52.63776,-51.87404,-52.25893,-52.61005,-51.37469,-50.62929,-50.76721,-50.34289,-50.59889,-49.94245,-49.30675,-49.57931,-49.59575,-50.29911,-48.98947,-48.74606,-48.02736,-47.99259,-47.64897,-47.12309,-46.25197,-46.10876,-45.99599,-46.14621,-45.50272,-44.92242,-44.49192,-44.91765,-45.16913,-44.59752,-44.20489,-44.02332,-43.83215,-43.33854,-43.44736,-42.41761,-42.51074,-41.63064,-42.43317,-41.98232,-41.76689,-41.74965,-42.30127,-42.60002,-42.71697,-41.30035,-40.46142,-40.03647,-39.79694,-38.88809,-37.59683,-37.26862,-36.86627,-36.95284,-36.07483,-34.59144,-34.06692,-34.63887,-34.37896,-34.7462,-33.45226,-33.58508,-33.66222,-34.09749,-33.49134,-33.54067,-33.56425,-33.62536,-34.42765,-34.55158,-33.72654,-34.30705,-34.53257,-35.05471,-34.83467,-34.40228,-33.79444,-33.7591,-34.21434,-33.15236,-33.49027,-33.08268,-32.4522,-33.20808,-32.28553,-31.69294,-31.27616,-30.58877,-31.09764,-31.01211,-29.61869,-29.1517,-29.00528,-28.53401,-27.90818,-27.19585,-26.74135,-25.96522,-26.09944,-25.53989,-24.83943,-24.1119,-23.73185,-23.00419,-22.91219,-21.32572,-20.61766,-20.40311,-20.16782,-19.37002,-18.85738,-17.69347,-18.33441,-18.15803,-17.47299,-16.8882,-16.8392,-16.24764,-16.91897,-16.7861,-15.51465,-15.85931,-15.49987,-15.3968,-14.32132,-14.06898,-13.4744,-12.84266,-13.34571,-13.82977,-12.41241,-12.14076,-11.54713,-12.37908,-12.07248,-11.3932,-10.65669,-11.43805,-11.51986,-11.19804,-10.84096,-10.07466,-9.678409,-10.07226,-11.14284,-10.36209,-10.20401,-10.30857,-11.03152,-10.63764,-10.62341,-10.29068,-10.35697,-10.09581,-9.245172,-8.297694,-7.265833,-7.353846,-6.957329,-7.005306,-5.850469,-4.762758,-4.537733,-4.785951,-3.939554,-3.225617,-2.79274,-2.872274,-2.739538,-2.422037,-1.640289,-1.2889,-0.4783765,-0.7920589,-0.2055018,0.0119484,1.214524,1.636279,0.9561994,0.7158561,4.208715,6.540689,8.357741,8.142707,9.197277,10.3756,10.51617,10.07645,8.604184,8.289885,7.076829,7.097345,4.934118,2.449512,1.592804,-0.1532158,-0.425685,-2.022164,-4.113486,-4.467652,-5.087207,-5.552078,-5.774407,-6.724105,-6.783334,-6.418281,-6.269796,-4.794375,-5.389055,-4.21465,-3.050058,-1.747496,-0.1106574,1.634978,3.044581,5.311724,7.031801,9.953034,11.31301,14.0122,17.11606,19.74455,22.30179,25.55802,28.59628,31.38716,32.73758,35.59679,38.72202,42.23771,46.19781,49.4743,54.45339,58.21361,62.50393,66.76569,71.2585,76.35772,80.49827,84.42333,89.49959,93.37132,97.79345,100.8101,104.435,108.0242,111.395,114.0092,117.3561,119.361,121.7598,122.8898,124.1139,125.4385,126.5188,128.6125,130.0726,130.5886,130.8865,130.1841,129.5894,129.5574,129.2267,126.6338,124.6533,122.3065,119.6874,117.2468,113.8767,109.5485,106.2285,102.0015,97.25746,92.98329,87.59198,82.06982,77.03798,71.39416,65.70792,60.50625,54.92398,50.62931,46.55134,41.15086,36.63187,32.72533,28.99214,24.11021,19.94617,18.23788,17.40092,14.822,11.60322,8.114683,5.500094,3.002806,-0.4407925,-2.208764,-4.990553,-7.967966,-11.27248,-13.72968,-15.22692,-15.66948,-17.95545,-20.14357,-21.72256,-23.9499,-25.727,-27.45178,-30.24082,-31.36555,-32.78032,-34.24257,-35.755,-37.41595,-38.61199,-39.10559,-41.08583,-41.72747,-43.00135,-43.52429,-43.14517,-43.98156,-45.65701,-46.22567,-45.94129,-45.79908,-46.29089,-46.71494,-47.40809,-46.73554,-47.07858,-47.72451,-46.33359,-46.36959,-45.43797,-43.07359,-41.04228,-39.90587,-38.8903,-36.60686,-33.69137,-32.5642,-30.62275,-28.89448,-27.20244,-23.91179,-21.93354,-20.35848,-17.86958,-15.3666,-12.25021,-9.531669,-6.704853,-3.970729,-0.7654865,2.880296,6.079071,6.627996,7.690444,9.675283,13.13134,17.92782,23.07953,28.36309,34.90014,41.21833,47.34682,54.62244,60.16433,68.01309,74.41475,80.54931,86.59686,91.84019,97.72406,104.3606,107.7258,112.3598,115.7612,119.9057,123.2542,126.1062,127.4165,128.8801,130.1202,131.2155,132.085,131.8746,130.6869,129.9435,128.8449,126.3465,123.9712,120.3731,116.5235,113.6258,111.0347,108.2721,103.9369,100.7589,96.4111,92.21466,87.51393,82.60603,78.25451,73.99767,69.21746,63.98525,58.85068,55.22785,51.03719,45.46635,38.34455,32.81455,27.02198,22.47442,16.89455,10.74201,4.703117,-0.08157873,-5.260463,-10.08176,-16.10237,-21.72834,-26.82162,-31.1804,-36.04694,-40.22655,-44.63987,-48.49212,-51.71549,-54.99408,-58.49051,-60.41321,-62.40369,-63.93232,-65.0852,-66.44867,-67.00401,-66.23765,-65.70273,-64.26365,-62.13644,-62.29094,-62.09487,-60.90289,-58.80709,-57.50513,-56.36287,-54.66677,-53.16274,-51.53237,-49.81175,-48.90042,-47.03777,-44.7296,-42.97121,-42.87213,-41.63221,-40.25996,-38.77927,-38.94692,-38.96917,-40.01358,-40.86395,-42.08143,-44.08754,-46.28223,-47.52016,-47.62331,-46.88132,-44.72499,-43.62596,-43.89504,-42.85633,-42.51423,-41.34716,-40.93274,-41.79724,-40.07543,-40.59511,-39.31062,-39.93585,-39.52049,-39.23968,-38.51111,-39.01446,-37.30815,-37.72639,-37.16986,-35.836,-35.35953,-34.96989,-34.88683,-34.3547,-33.2431,-31.84972,-32.16546,-32.05151,-30.99389,-29.79042,-28.96547,-28.27314,-28.11412,-27.66642,-26.89515,-26.13204,-25.18921,-24.97222,-24.12744,-23.94376,-22.58302,-21.84796,-21.34864,-21.08713,-20.71437,-19.27483,-19.18712,-18.69823,-17.3965,-17.09347,-15.95615,-15.46861,-16.01435,-14.961,-14.77349,-14.57374,-14.72386,-14.6299,-14.98143,-14.21288,-13.65555,-14.19966,-14.13106,-14.54439,-13.80782,-13.31397,-12.70983,-13.3383,-13.43275,-12.64619,-12.57352,-12.49817,-12.62079,-12.87207,-12.51394,-12.68938,-12.45559,-12.10601,-12.20541,-11.97507,-11.98154,-11.12661,-11.87774,-12.2033,-10.90229,-10.66525,-10.47991,-10.5615,-11.17935,-10.50288,-9.908617,-9.927732,-10.20165,-10.21795,-10.13459,-9.502363,-9.221761,-8.689277,-8.525875,-7.885357,-7.344332,-6.415011,-6.17093,-5.928431,-5.207268,-3.769521,-3.095109,-3.706436,-3.305298,-2.000379,-1.159902,-1.375334,-1.224227,-0.4935498,-0.5408083,0.0131256,0.5709654,0.3715482,0.7083954,0.2012988,1.34897,1.275398,1.327703,1.574031,1.428776,2.097058,2.796045,2.054513,2.923919,2.569437,3.125318,2.8683,3.001799,2.60491,2.63774,3.231168,2.543,3.253228,3.180437,3.110676,3.774921,3.879901,3.079777,2.937016,2.967353,3.492789,3.763702,3.154729,3.274613,2.738755,3.662879,4.050127,3.146676,2.779618,2.934343,3.672758,3.599904,3.769057,3.621553,2.936757,3.065313,3.15744,2.437611,2.785992,1.650693,2.825715,2.269844,2.266162,1.86499,2.257318,2.441199,2.255441,2.44705,2.259187,2.474171,3.041658,3.178152,2.114686,2.522143,2.669886,2.442265,2.840779,2.574597,2.346352,2.52967,1.812781,2.940791,3.528661,3.004403,3.089754,3.784505,4.447728,4.313604,4.752327,4.273609,4.316279,5.060005,4.504747,4.132824,4.281058,4.571997,4.119323,4.674527,3.984916,3.94293,4.371872,4.966235,5.200164,4.996055,4.675843,4.759529,4.850971,4.977622,4.197602,4.71159,5.314864,4.865567,5.203323,4.833772,4.943645,4.673061,4.754878,4.921491,4.922653,4.090685,4.79175,5.403478,4.019142,4.645221,3.810081,4.200729,4.66544,4.719254,4.814061,3.637585,4.595563,5.393682,6.516141,7.850961,7.074708,8.473499,7.771314,8.494223,7.36561,7.25409,7.260239,6.698241,6.597107,5.43443,4.736198,5.022239,3.82935,2.379775,0.2676097,-1.015854,-0.8773854,-1.573352,-1.47799,-2.317575,-3.120244,-2.608756,-3.495196,-3.168943,-2.724808,-2.50624,-1.5885,-0.4540568,0.5458838,1.779802,2.932137,3.742717,5.839682,7.301247,8.811172,9.594961,11.32922,13.29453,15.12973,16.36104,17.75261,19.4527,20.75705,22.97362,23.74948,24.55707,25.97529,27.20356,28.33454,29.63642,30.14987,30.2662,31.09393,31.88517,32.27615,32.30546,32.15912,33.95962,33.53755,32.54775,33.9456,36.59985,36.17531,35.60288,35.00487,33.35476,32.67247,31.22774,29.50339,27.15622,23.32183,21.99304,17.52139,16.56977,11.89428,9.075409,5.835463,3.387915,0.2655132,-4.45035,-7.31321,-10.46465,-13.32374,-15.58719,-18.52519,-20.82072,-23.38569,-25.37957,-26.69365,-29.17473,-30.92131,-32.7045,-32.3646,-33.53449,-33.64036,-34.90561,-34.5581,-33.86719,-33.43852,-31.88564,-31.38374,-29.02918,-26.4032,-23.87542,-20.85103,-18.42467,-13.65345,-9.244309,-4.704069,-1.388393,1.151545,5.404835,9.133733,13.29945,16.83828,20.0074,23.71616,27.36072,31.20567,33.92025,36.14171,39.7105,41.09396,42.22323,42.24502,44.45101,46.34315,47.8564,50.71085,51.52916,52.8925,54.89219,56.56619,60.43328,61.14656,63.09067,64.50853,66.72824,68.26352,69.42753,70.06307,70.63465,72.05816,72.58262,72.4987,71.57212,71.30639,71.49322,69.91004,69.00168,67.32795,65.5333,63.80793,62.53257,59.74592,57.57961,54.06465,52.87648,50.26312,47.30662,44.07951,40.60955,39.15628,36.39901,33.40466,30.80514,28.49442,26.3497,24.61638,23.26058,22.71108,19.51559,15.27187,13.33182,10.28436,7.321554,3.475526,0.04135293,-2.45991,-6.86441,-10.47413,-12.87151,-18.24956,-19.27538,-24.27803,-27.10623,-30.71208,-34.09397,-38.25311,-42.65809,-44.62868,-47.5782,-50.14391,-51.35077,-54.38981,-55.81683,-58.34471,-59.45553,-61.32176,-62.34231,-64.31813,-65.59215,-66.11688,-67.57365,-67.94549,-69.65221,-69.55628,-70.84608,-70.82194,-70.83896,-71.47451,-71.76951,-71.04761,-70.88628,-70.23339,-70.2461,-69.65027,-70.01243,-68.60951,-68.00498,-67.62392,-66.80551,-66.38418,-65.09241,-64.84706,-64.85066,-64.50848,-64.82961,-64.85662,-64.9663,-66.0624,-66.45759,-68.69562,-69.53568,-70.31224,-69.34656,-69.64431,-69.38159,-68.64959,-69.20752,-68.82515,-68.41914,-69.79221,-66.35654,-65.02459,-64.48747,-64.41462,-63.85378,-63.33088,-63.37806,-63.29988,-63.93456,-64.46957,-64.67651,-65.26635,-65.95631,-66.49621,-67.50467,-67.78147,-68.10646,-68.38995,-69.54286,-69.78029,-70.04441,-69.9178,-70.14222,-70.91455,-69.5774,-70.01242,-69.62617,-68.94491,-68.44971,-67.47425,-67.05745,-65.68563,-64.48208,-63.37844,-62.83794,-59.88901,-58.3816,-56.2601,-55.34899,-52.9878,-50.46329,-47.83967,-44.98106,-43.85475,-40.05078,-38.02055,-34.81822,-32.24445,-30.10228,-27.09454,-23.59274,-20.92577,-18.25417,-15.52719,-13.40257,-10.12192,-6.003586,-1.529555,0.786807,4.499689,8.561106,11.67516,16.50587,18.40639,22.41883,25.64164,29.06816,31.9648,34.64879,37.52899,40.46142,43.44197,45.06235,47.94508,48.94573,52.18025,53.82305,55.71723,57.21759,58.67002,59.53483,61.34079,61.8933,61.70279,62.7788,63.53437,64.16146,64.4178,63.84943,63.56823,62.83022,62.46705,61.89593,61.17306,60.0378,59.61094,59.24139,58.17903,57.62224,56.06094,55.75907,55.32807,54.96851,53.60686,53.84905,53.06663,52.98708,53.77717,53.96645,53.63424,56.78935,55.37165,54.30445,54.66804,53.37595,53.61606,53.34356,53.19272,52.56162,51.93949,52.29193,51.81498,52.42146,51.36406,50.95899,51.39881,51.14906,51.18891,50.16469,49.11418,49.80036,49.41544,48.83311,48.54294,48.14005,48.07119,47.77265,47.937,46.74307,46.47653,45.9883,45.21978,45.47224,45.10276,43.82474,44.12923,43.64267,43.9853,43.19445,43.46944,42.74693,43.39978,43.47609,42.74459,43.20559,42.63473,43.87479,43.56608,43.95745,44.14692,44.04845,45.19261,45.02691,45.48181,45.20846,45.69834,46.93676,46.8842,46.66103,46.10734,46.22763,46.18881,45.80863,45.48817,46.56219,47.03176,47.84442,49.87273,50.63283,51.61497,52.82352,54.68732,55.56719,58.07371,57.45271,59.5418,60.30101,62.24412,62.24534,62.86871,63.19529,64.29705,64.85046,64.38353,65.58411,64.41471,64.72361,64.80626,63.28091,63.30824,61.10069,61.35778,60.20173,58.48216,56.33038,54.74072,52.69228,51.13932,48.6471,45.68997,43.82071,41.42212,38.94606,35.7341,33.3147,30.17263,28.1512,25.1193,22.0718,17.90405,15.41114,11.68641,9.316621,5.438845,1.455425,-1.230092,-4.166862,-7.184275,-9.834162,-13.32349,-15.72794,-19.29167,-20.88762,-24.20597,-26.40949,-30.44206,-31.05851,-34.27015,-37.11301,-40.15596,-41.71642,-43.46024,-44.17092,-45.39194,-46.30162,-47.61613,-48.74568,-48.66829,-49.48826,-50.39301,-50.9334,-51.08152,-50.8764,-51.50961,-51.79478,-52.08359,-51.8903,-51.18225,-51.76471,-51.36175,-52.24675,-50.92736,-50.01529,-50.56244,-50.04169,-49.99119,-49.35687,-49.58603,-50.02171,-50.7446,-51.23633,-50.94266,-50.28669,-50.33685,-51.37052,-52.17376,-53.01124,-54.93388,-56.55967,-58.8093,-59.59807,-61.95735,-62.96098,-63.12576,-64.98518,-66.04567,-67.02754,-68.23775,-68.70625,-71.24685,-71.89214,-72.90298,-72.22852,-73.98781,-75.90196,-76.03033,-77.88301,-78.08596,-79.49455,-80.67536,-82.28816,-82.78435,-82.95446,-84.57003,-84.28422,-86.07487,-85.56216,-85.47709,-85.49064,-85.42226,-85.80321,-84.28932,-83.28021,-82.48063,-81.10872,-80.28342,-78.44756,-76.6668,-76.13961,-74.07021,-70.20212,-67.68789,-63.46078,-59.84953,-55.07784,-52.26225,-47.5774,-43.5868,-39.3175,-36.27017,-32.37819,-28.86149,-22.9885,-19.05157,-13.51868,-9.803849,-4.823068,0.227056,4.362401,8.114375,12.56032,15.58629,19.86027,23.26807,26.24093,28.0217,32.00957,32.77967,35.87353,38.20326,40.59265,42.51541,44.11484,46.05797,46.69644,44.3455,44.10076,45.55128,45.79643,44.60841,45.28669,44.68899,44.542,45.34963,45.35867,44.44975,44.3569,45.20084,44.53346,44.3942,43.36402,43.8159,42.43263,41.97972,41.00734,40.16854,38.68838,37.49642,37.43055,37.0862,36.52139,36.66814,35.89963,35.19733,33.56053,32.34252,30.49833,29.98846,29.49753,27.44683,26.01069,23.90612,23.32391,22.86425,20.53713,19.84124,18.03739,16.76933,16.63083,14.77837,13.72476,13.24251,11.92752,9.901509,8.252551,6.162272,4.325349,3.057189,1.661622,-0.9403458,-3.32503,-5.276003,-6.972812,-8.909227,-10.97034,-13.62328,-15.65214,-18.91809,-20.06412,-23.43048,-25.48751,-29.24449,-31.67275,-34.61769,-37.99258,-40.96858,-44.13582,-47.49697,-49.12351,-49.6422,-51.28652,-54.3496,-56.20012,-56.87697,-59.14533,-61.15074,-63.02784,-63.63102,-65.91777,-66.6564,-66.87969,-67.61911,-66.23246,-66.74594,-65.97877,-66.22814,-65.98154,-64.80694,-64.34414,-62.69758,-62.69633,-61.68411,-61.1865,-59.76372,-59.29932,-59.41259,-57.39036,-57.7139,-57.10784,-56.71286,-57.24185,-58.0304,-57.67728,-58.81202,-60.04692,-61.44403,-60.47206,-58.79797,-59.95347,-59.77428,-59.06543,-59.31258,-59.47302,-55.66044,-54.07634,-54.36388,-53.12063,-51.46726,-51.82221,-50.77437,-51.09449,-51.2474,-51.94114,-50.96805,-51.80211,-51.23956,-53.59172,-52.48458,-53.19657,-53.4773,-54.5643,-55.33011,-56.0638,-55.72043,-56.08039,-55.84673,-56.71702,-55.70753,-55.33936,-55.52638,-54.87994,-54.61171,-52.44068,-52.19287,-51.08533,-49.37213,-48.78348,-47.0084,-44.94098,-42.5581,-40.96525,-38.53484,-36.44319,-33.36733,-31.45741,-28.38156,-25.47769,-23.01517,-19.62249,-17.1812,-13.62556,-10.61575,-7.298285,-3.040281,-0.7105209,2.929522,5.629173,8.999746,12.69452,16.43612,18.80959,22.3881,25.33139,29.58375,32.87559,35.86255,38.64484,41.69986,45.08025,48.08822,50.4538,52.75579,55.1213,58.53045,59.10895,62.13458,62.7584,64.59042,65.16153,68.14197,68.88017,68.72879,69.80784,70.74149,71.05651,71.2517,70.94183,70.64625,71.2019,70.49727,69.17044,68.75512,66.98085,67.14011,66.05052,64.38912,63.46631,61.70231,60.19508,61.09284,58.13408,57.16554,55.83617,54.6652,54.68368,53.18596,52.23462,51.38605,51.34112,51.74485,52.00295,52.44301,53.42223,55.4299,55.13369,53.94836,54.6105,54.82661,53.87391,55.21994,54.19019,53.99314,53.65231,54.14255,53.80324,53.5144,52.12634,52.93655,51.60051,51.96902,51.25442,50.74595,49.75165,50.2267,50.60227,49.7132,48.54929,49.12993,48.8182,48.24268,47.8088,47.46812,47.14892,46.50192,47.1596,47.24077,45.49885,45.7635,45.50003,46.14816,45.5556,45.08943,44.64487,44.26459,44.26319,44.91499,43.50534,43.25889,43.33356,43.44354,43.02759,43.27473,42.04847,41.76417,41.81689,41.64463,41.14027,40.71702,40.65402,41.60358,40.99395,41.29895,40.22161,41.16971,41.35462,40.83503,41.05608,40.67325,41.07662,42.20354,41.57323,42.17029,41.06633,42.10907,42.40164,42.95903,41.99201,41.85077,42.95001,42.73195,42.27323,42.31046,41.42147,41.90345,41.77066,41.96389,40.7906,39.98811,41.0996,39.20825,40.4014,39.1128,38.85407,38.48993,38.1526,38.37391,37.74083,37.74199,35.94224,37.81063,35.30654,35.93907,34.8654,34.70831,34.10935,33.36156,33.02083,32.04237,32.32784,31.1394,30.97286,30.1437,28.99355,27.99274,29.04476,27.24411,26.9999,25.34374,24.61646,24.61832,24.01729,22.50575,21.30873,20.27517,19.43386,19.13726,18.27391,17.52649,16.83115,17.05323,15.76338,14.34424,13.99337,14.69483,14.46675,14.98424,14.66722,14.67806,15.03637,15.03505,15.87901,16.0461,15.79618,16.21858,16.04951,16.28958,15.35666,15.09627,12.39088,11.75959,11.28266,10.44449,10.38715,11.17762,11.2112,12.99226,11.49929,12.73546,12.36065,13.1467,13.6179,12.86946,10.87193,11.12159,11.6125,9.562444,9.108007,7.572879,6.421729,5.436933,4.654977,1.882738,1.137748,-1.217634,-1.90421,-3.840903,-4.891176,-7.149768,-7.77399,-9.684497,-10.76175,-11.84402,-13.98089,-15.00949,-16.4457,-18.01784,-18.84994,-20.88387,-21.80984,-23.08778,-23.59402,-24.40031,-26.95815,-26.36972,-27.11899,-27.02351,-28.09801,-27.95739,-28.37882,-28.03028,-27.03794,-27.8315,-27.26303,-27.71952,-26.48012,-25.84815,-25.63879,-25.03736,-24.48704,-22.12144,-21.82835,-20.17141,-19.82807,-18.29287,-17.25352,-14.87943,-13.91284,-12.56981,-11.58705,-9.877935,-7.78747,-6.43682,-6.064092,-4.894776,-3.636096,-3.052266,-2.03006,-1.9101,-0.2566773,0.1717353,1.182968,0.8739935,1.298703,2.182784,3.095484,4.010181,3.999372,2.81147,2.249017,3.203798,3.195446,4.265942,5.989431,6.209486,6.82711,8.727124,8.496977,10.09929,9.710056,10.30429,10.95534,10.81499,10.24014,10.15908,10.61583,10.71999,9.019623,7.442866,7.098126,7.05302,8.519979,7.99698,7.636304,7.729053,6.968772,7.570638,5.731179,5.774548,3.327102,3.097132,1.97007,-0.3066727,-1.342556,-2.954607,-4.601273,-6.596111,-7.630341,-10.05564,-11.48434,-13.44415,-14.96734,-16.80441,-17.78394,-21.26487,-21.44606,-23.32063,-24.34794,-26.37363,-27.40299,-29.48248,-29.41784,-31.2387,-32.15978,-33.87323,-34.38174,-35.37601,-35.43476,-36.8113,-37.20441,-37.5187,-37.94656,-37.31777,-38.44453,-37.57045,-37.40312,-36.23936,-36.19632,-35.59246,-34.75513,-34.0034,-33.22381,-31.56003,-30.93007,-31.86021,-31.44056,-29.51058,-28.4845,-27.05186,-25.66997,-23.31941,-21.23466,-19.05988,-16.77393,-14.90672,-12.88487,-10.68214,-8.372963,-5.742886,-4.853899,-1.796365,0.05543957,1.724612,3.296659,4.614929,5.840702,8.269344,9.11597,10.13418,10.67086,11.65335,12.23438,12.76974,12.1525,12.08129,10.7474,10.18632,8.557747,6.786004,5.489741,5.171446,2.119102,0.6836521,-1.567524,-4.117844,-4.483238,-4.540651,-5.968335,-6.963316,-8.862852,-9.604565,-10.46013,-9.006986,-11.83787,-12.68373,-14.68951,-16.99913,-19.80128,-22.35755,-26.13785,-31.05459,-33.67774,-37.46406,-40.20963,-42.61915,-46.23387,-48.56072,-51.11306,-53.69416,-57.5568,-59.13188,-61.83566,-63.85655,-66.7339,-69.43085,-71.78209,-73.38022,-75.18396,-76.85908,-78.66144,-81.1656,-82.94452,-84.64506,-85.26748,-85.9031,-83.99905,-83.36495,-80.40474,-78.78384,-76.7674,-74.59913,-70.98137,-68.84481,-65.44701,-63.09451,-59.62126,-56.18639,-51.94967,-48.79804,-45.43462,-41.66148,-37.9625,-33.27267,-30.19422,-26.59029,-22.61472,-18.78251,-15.18157,-12.32109,-9.59407,-7.764429,-5.64699,-3.505097,-1.136565,0.7220234,4.743935,9.804764,12.92186,16.67033,19.98527,23.67898,26.54777,28.11834,29.55652,31.27729,33.91627,36.64241,40.37741,43.3234,44.32128,47.05815,49.30654,51.35116,52.95084,51.52232,50.90891,52.54169,53.27977,53.40506,53.53547,53.85794,54.47471,54.67815,54.16454,54.09166,53.69928,53.30673,53.61467,52.43617,52.23552,52.12657,51.11381,52.84878,52.98455,53.84178,55.43354,55.6244,56.01921,56.86074,56.73463,56.87166,57.76895,57.88405,55.40293,55.1953,54.08419,52.90054,52.05672,50.04127,48.67448,46.66937,46.20748,46.53159,45.17191,43.76773,41.75692,40.05129,39.52229,36.51237,34.59631,32.0106,29.76844,26.86842,24.4551,20.55169,18.21086,14.74355,11.43594,7.774169,4.050484,-0.4305343,-3.161187,-4.026836,-4.816733,-7.10498,-8.500365,-10.09833,-10.80074,-12.7087,-14.78992,-16.30782,-16.77468,-17.90351,-18.72851,-20.69382,-21.23065,-22.6285,-22.37945,-23.18774,-24.44618,-26.1221,-26.05733,-26.61214,-27.60616,-29.2205,-29.83637,-30.78285,-31.63511,-33.05042,-34.10042,-35.06176,-34.62554,-33.95711,-32.57148,-33.78056,-33.26918,-32.35276,-32.80888,-32.53972,-32.46254,-34.01369,-33.89978,-33.89633,-33.12747,-30.9621,-31.6533,-29.89417,-29.68632,-29.1928,-30.80845,-30.8736,-31.3301,-32.36803,-33.34518,-34.11734,-32.17664,-31.5398,-31.60219,-32.16355,-32.6399,-33.43308,-34.34093,-34.7275,-35.88209,-37.31333,-38.95492,-40.66629,-40.94164,-43.0681,-43.44227,-46.66336,-47.62135,-48.0861,-49.67295,-50.86119,-52.01715,-52.84358,-53.43484,-53.16882,-54.05604,-54.46023,-54.07816,-54.00802,-52.48496,-53.43995,-51.66297,-51.67505,-49.52342,-48.32975,-46.83583,-45.80108,-43.99276,-41.70102,-40.15973,-37.39628,-36.33036,-33.66955,-30.01493,-28.50758,-24.35869,-22.92841,-19.66646,-16.69655,-12.90871,-10.1148,-7.294378,-4.642218,-0.5783253,2.47813,5.819981,8.624678,11.67985,15.35907,18.62063,20.58422,23.20371,25.83127,28.66284,31.26757,33.93178,35.69013,38.22669,40.03494,41.60881,43.24688,44.75601,45.44226,47.39309,48.31125,48.42774,48.92004,50.28124,49.68291,50.42245,50.28055,49.58941,49.48017,48.87411,48.1685,47.43597,46.08943,44.76781,43.09113,43.04216,39.76476,39.3081,36.6904,34.99219,33.78758,31.49362,29.22532,28.00237,26.10516,24.68614,23.03625,20.92936,20.23666,18.45316,18.51889,17.21674,17.09808,16.90515,17.14939,18.13774,19.34329,18.33052,16.92379,17.56175,17.70942,16.99313,16.23553,16.23063,16.61976,15.4266,15.31168,14.63409,13.99348,14.67817,14.06148,13.96632,12.39738,13.12559,12.51533,13.1071,11.62984,11.9575,11.31584,11.80185,12.38041,10.97161,11.39855,11.09216,10.85544,12.09863,9.409994,11.14858,8.983034,10.16648,9.776117,8.529144,8.054089,7.461466,6.823453,7.063158,6.785039,4.607702,4.780383,3.192033,2.664294,3.359491,1.098006,1.0397,0.9987314,1.659051,0.8353065,0.2713433,0.03864837,0.4166498,-0.6978201,-0.4293679,-1.278206,-2.438428,-1.700559,-2.391318,-3.174332,-3.526292,-4.620038,-3.768165,-5.088142,-4.856347,-6.142758,-6.467178,-6.978903,-7.40963,-7.056803,-8.922058,-9.212239,-9.600817,-9.08798,-10.33163,-10.09458,-10.99976,-11.49764,-11.23186,-11.89023,-13.13206,-12.65621,-13.99244,-12.17659,-14.26456,-13.21807,-14.94683,-14.54694,-14.10163,-15.17499,-14.49715,-15.54985,-15.36889,-15.00145,-15.01052,-15.29158,-14.8756,-15.41096,-14.32472,-15.04909,-14.89504,-15.75999,-15.17896,-14.54737,-14.80198,-14.57291,-15.08777,-15.0547,-13.7607,-14.27205,-14.01393,-15.21352,-13.94631,-12.8843,-13.71132,-13.6171,-13.57392,-12.90488,-12.93624,-11.8997,-11.82753,-11.9434,-10.80617,-10.7119,-9.950407,-10.20456,-9.119411,-8.880194,-7.803945,-7.752304,-6.939929,-6.560674,-5.79937,-4.938613,-4.913401,-3.385808,-3.308294,-2.956344,-1.427034,-2.489816,-0.03016292,-1.215884,0.3825362,0.1121253,0.6038284,-0.5283862,-0.5411526,-0.05292608,1.373811,1.916761,2.501707,3.700084,4.385109,6.771705,8.919506,8.887967,10.19036,10.74897,12.89589,12.61054,14.15989,12.9573,14.95416,13.81542,15.35972,15.10473,14.45482,14.79242,14.60008,14.9934,14.32367,14.0611,14.43752,12.84314,14.27048,13.6659,12.27895,12.53349,12.04163,12.41353,10.62917,10.93107,9.375569,10.13558,8.071229,8.421398,6.430398,5.895833,6.035365,4.974778,5.081864,4.235468,3.320517,4.777403,2.032353,4.436473,1.774978,2.632729,3.162073,2.797925,3.113151,2.339299,2.550928,3.993783,2.867982,3.996865,3.535236,2.781243,4.48901,1.649744,1.919477,1.843121,2.244346,3.407617,3.676539,5.372972,5.717155,7.098631,8.8771,10.367,12.52219,13.33999,16.94617,18.95878,21.11235,23.51621,24.83105,27.49894,27.50814,31.25177,30.45935,31.95266,32.81627,33.19754,34.19992,34.11852,34.4785,33.44911,32.93517,33.34312,31.30834,30.89522,29.20876,28.59356,26.70469,26.20369,23.14994,20.49776,20.02645,16.26886,14.57698,10.54497,6.324998,4.09357,2.960621,-0.4276533,0.04535524,-1.374921,-2.266397,-3.569252,-5.589614,-8.799473,-10.38497,-11.15202,-11.52192,-13.41498,-13.83876,-14.76949,-13.9406,-16.01073,-15.24897,-17.57859,-17.34497,-20.06269,-19.46565,-21.23875,-23.21929,-24.03732,-26.2491,-24.58754,-25.71211,-26.9839,-28.59376,-29.82186,-30.71604,-32.7544,-35.54131,-35.94768,-36.51093,-39.74591,-39.64757,-43.67302,-44.58643,-47.21915,-49.10795,-50.74929,-52.89918,-54.75847,-55.9291,-57.99397,-58.40984,-59.89744,-59.89941,-60.30719,-61.37466,-60.94898,-62.46281,-62.10011,-62.18623,-62.16907,-61.99854,-62.84645,-62.65004,-62.83119,-63.71957,-63.28417,-67.95507,-70.61844,-71.90957,-72.54509,-69.77895,-66.28006,-63.00561,-58.30819,-52.36032,-46.07348,-40.42637,-33.75414,-27.00471,-19.29071,-13.57256,-7.721087,-0.5823794,7.615388,15.7791,23.58736,30.76013,40.32372,47.14022,57.04432,60.76692,68.13571,73.62598,79.42739,85.53828,91.2696,95.56584,100.1315,104.6328,111.6757,115.278,120.9234,124.9287,128.4883,130.7332,132.4461,132.1849,131.3405,129.0504,126.257,122.2742,116.9255,111.4964,107.0003,100.5478,92.77173,85.55664,76.17386,67.36592,57.46089,48.46893,38.99121,29.1102,17.4745,8.942028,1.635716,-7.507436,-14.31401,-22.13885,-28.23369,-34.07035,-40.79334,-47.47699,-53.74862,-58.27674,-61.56103,-63.93725,-65.61627,-65.94209,-65.50495,-66.15922,-67.3906,-66.68922,-65.46869,-64.37549,-62.47104,-60.30672,-58.12455,-56.04498,-54.6271,-49.91918,-48.33062,-43.61524,-42.14814,-36.18955,-33.07886,-28.40628,-25.30146,-20.4572,-15.94644,-10.65343,-6.051311,-2.252371,1.785331,5.411053,9.723433,12.62037,14.75093,16.84605,19.15447,17.54479,18.92314,18.11283,17.36756,15.67683,14.58019,11.92715,12.74931,14.4353,15.70015,16.90932,18.65949,17.61254,18.17283,18.89821,17.85573,16.68261,14.97367,12.5259,10.80975,8.012316,7.574644,7.506217,5.751378,5.396884,3.620774,1.859438,0.3552172,-3.023465,-5.291705,-7.725864,-8.820362,-9.293785,-10.478,-9.416967,-8.699187,-7.227873,-5.442749,-1.919862,1.891153,4.487517,8.797617,10.35368,13.09057,15.52528,17.70777,19.73602,20.462,22.16565,23.91436,24.20763,25.5305,26.3121,25.91453,26.51711,25.85736,24.91323,23.30256,21.13781,19.08611,16.49962,13.30708,8.997754,6.30793,7.351495,4.944475,1.411026,0.3065694,-3.917756,-4.779402,-8.942033,-10.83374,-14.84996,-15.94352,-16.52991,-16.50105,-16.45359,-16.57047,-18.05645,-19.16915,-18.54743,-21.01375,-20.9383,-23.22916,-24.49388,-24.65807,-26.12472,-27.67165,-27.52724,-28.875,-28.0274,-29.04733,-30.01532,-31.02337,-31.25264,-31.63133,-32.04513,-33.26746,-33.41028,-33.7693,-33.71533,-33.85729,-34.39955,-34.35211,-35.36916,-34.13705,-36.11905,-36.0249,-36.97468,-36.98858,-37.35679,-35.13917,-35.19682,-34.78775,-34.256,-31.60926,-31.68727,-30.40892,-28.92294,-28.35028,-25.96037,-24.48462,-23.33824,-21.14421,-19.40539,-17.36224,-15.73788,-13.90304,-12.74295,-10.39963,-8.390016,-5.677698,-4.637403,-2.487117,-0.1775089,1.989436,3.947631,6.237136,6.941125,9.57258,11.59004,12.95075,14.5718,15.77548,16.83448,17.09009,19.16175,19.70757,21.42941,22.41915,24.8738,25.49248,26.19721,27.76921,28.09162,29.07061,30.22628,30.24785,30.46103,30.34004,31.0498,31.34517,30.14695,29.93416,29.17139,28.58688,28.67276,26.95776,26.74543,25.2308,24.14165,23.68222,21.87894,20.47115,19.54456,17.6623,17.40936,14.91644,12.65435,12.41396,11.44333,11.36288,10.38501,10.93061,10.75251,11.28214,12.50853,12.10004,10.63493,11.67407,12.63195,13.96326,13.57782,12.88482,13.39288,13.43824,13.30847,13.29388,12.01647,11.44949,11.84866,9.823764,10.28763,7.675911,7.200674,6.689295,4.679834,3.969064,2.822831,1.369685,0.9896559,-0.4966307,-0.7682871,-2.216413,-4.133697,-4.400895,-5.938727,-6.72367,-8.311944,-8.319551,-9.499286,-9.528204,-10.39936,-11.58251,-12.40806,-12.24038,-13.98923,-13.61853,-15.18611,-15.13373,-15.42904,-14.73124,-15.15037,-14.39736,-14.47052,-13.75226,-13.56649,-12.61255,-12.40783,-12.23445,-11.16833,-11.86079,-10.21782,-9.823921,-10.21442,-7.775258,-7.121601,-6.197348,-5.944933,-4.343544,-4.530218,-3.207321,-3.348525,-3.152961,-3.145173,-2.551228,-0.2781283,-1.029721,-1.078729,-1.563086,0.01831603,-0.07075621,1.898286,2.861933,3.786278,4.784442,6.579781,7.103009,8.004739,8.133348,9.337978,10.28539,9.825236,11.0052,9.464275,10.09904,10.50611,9.504895,8.354704,7.14075,5.678777,5.059137,3.591301,0.6997975,-0.6577671,-3.380348,-4.788581,-7.434895,-8.730739,-9.60913,-11.53479,-12.52912,-13.7773,-15.08731,-17.27355,-16.72033,-18.26519,-17.7032,-18.36081,-18.53177,-17.77343,-17.75625,-18.87661,-18.63452,-18.86857,-18.3991,-17.59786,-17.68333,-19.60644,-19.48997,-19.08966,-18.79896,-17.63141,-17.08221,-15.70263,-14.54453,-12.64258,-11.01716,-9.424805,-7.98458,-6.723237,-3.715025,-2.41302,-1.088364,-0.2585681,2.044894,3.57229,5.256132,6.694072,7.889573,9.297111,9.855827,11.26281,11.03127,11.71829,12.52172,12.05503,13.58691,12.64972,13.88376,13.18791,14.18411,14.27133,13.70267,12.97325,11.4068,11.31764,10.1375,8.526985,7.057432,6.473527,4.253549,5.061661,3.058372,1.2161,1.340462,-1.055142,-2.499032,-4.268873,-6.391415,-8.924841,-11.03956,-13.07945,-16.21862,-17.53928,-21.95008,-23.39767,-26.58109,-28.18897,-30.40714,-30.55277,-32.61655,-32.12478,-34.37133,-34.72044,-37.06116,-36.80674,-38.91953,-38.03448,-39.30234,-38.0533,-40.25467,-39.2711,-39.96896,-40.0765,-40.24232,-40.10475,-40.17992,-40.94006,-39.92931,-41.78869,-40.50098,-41.21538,-41.57557,-41.745,-42.00103,-41.14053,-41.56536,-41.13225,-41.71813,-41.74478,-41.33108,-41.12336,-41.21879,-41.58797,-39.95219,-42.00194,-39.37277,-40.02704,-39.86544,-38.72039,-38.89226,-37.93262,-38.89968,-38.03768,-38.44274,-38.40145,-38.12214,-38.54888,-37.08598,-34.98016,-34.08069,-32.24187,-29.95326,-30.02979,-27.00495,-25.85448,-23.88279,-20.95131,-20.33547,-18.1943,-14.59847,-13.63494,-10.11643,-8.270355,-5.972577,-2.550202,-0.5138794,2.537412,4.641676,7.035519,9.135476,12.59168,13.80611,17.51865,19.07224,21.21316,24.70595,25.96449,28.44341,29.53816,32.30625,34.20819,35.17895,37.1749,37.32035,40.00821,41.199,42.32426,43.75993,45.03096,45.08592,47.5716,47.8299,47.93073,49.01715,48.51756,50.13689,49.32823,49.65404,48.71407,48.67947,48.60486,48.34173,47.7493,45.97142,46.24712,45.05902,44.72246,43.05064,43.30745,41.49067,42.23709,40.24835,40.66038,38.63046,39.3176,39.35678,40.61582,38.14112,39.6049,36.73612,39.95582,37.78349,38.79781,37.361,37.82078,37.8131,37.04715,36.85735,35.23397,36.07473,34.45716,34.97644,33.62693,33.47361,33.34147,31.48542,31.93995,29.40595,29.08887,28.33683,29.07373,27.73488,28.93841,27.27727,27.10202,28.29936,27.38383,27.10357,27.2244,26.11255,26.58058,25.37665,26.44113,24.8385,24.68187,24.89013,23.0345,21.684,20.69323,19.02445,19.62118,19.46328,18.16572,19.28623,18.32883,19.41235,19.66986,18.83374,19.66467,19.12746,19.31095,19.15563,18.70826,17.49256,17.4137,16.22056,16.9261,13.71968,13.81154,12.58471,11.61849,11.20838,9.717138,8.271742,6.585504,6.500968,4.259927,4.552274,2.266753,1.452056,0.5217136,-0.5553732,-0.7196012,-2.569493,-2.763208,-2.972848,-3.80199,-3.600955,-4.183621,-5.670709,-4.722939,-5.641617,-6.082808,-6.060682,-6.874523,-5.7155,-7.093198,-6.539276,-6.891279,-6.897323,-7.045917,-5.67985,-6.491947,-6.302157,-6.12036,-5.635939,-4.139288,-4.357932,-3.227866,-3.738134,-2.109193,-1.608721,-0.1906022,-0.4107384,0.8166415,1.765316,2.998112,2.936436,6.048756,4.005304,7.37169,7.619122,8.485901,9.220731,9.686958,11.34508,12.22637,12.03935,13.33939,13.27282,14.43633,14.63761,15.44034,15.3831,15.4137,14.57943,16.7669,15.85762,18.41325,17.4194,19.70503,18.66035,20.58545,19.06073,20.34719,20.95255,19.94709,21.30411,19.50099,18.76048,18.5674,18.07414,17.57076,15.9595,14.99551,14.19491,12.69577,12.43497,11.99944,11.76684,12.86645,12.17829,12.84312,12.93192,12.68932,11.20532,10.78346,10.63737,10.42022,9.934878,10.06799,10.88848,10.70985,10.64539,10.84175,10.76397,11.39886,9.888026,10.54438,9.557391,10.98713,10.59857,12.13299,11.7511,12.72844,12.70166,12.40388,12.56341,10.73714,12.23503,13.11156,13.99006,15.59274,16.13623,16.22506,16.8249,16.48932,16.39622,15.2481,13.79301,12.6267,12.13194,8.992241,8.273294,5.276698,3.142646,0.3463022,-2.162884,-5.293415,-7.739343,-12.14094,-13.57752,-18.07827,-19.98843,-24.18891,-27.06548,-29.72235,-33.08988,-36.08847,-40.44281,-44.15192,-45.97307,-48.79872,-51.81426,-54.57284,-55.89876,-57.94064,-59.66418,-59.7636,-63.91293,-61.70095,-63.5483,-63.61937,-62.64152,-64.07087,-62.66587,-62.19049,-61.35074,-59.17379,-59.85451,-56.80029,-56.71226,-53.44486,-52.43739,-50.20458,-48.35919,-45.40152,-43.43367,-40.26766,-39.8467,-34.7817,-31.4936,-28.77247,-25.85512,-23.74841,-20.73552,-19.7334,-15.73357,-15.54953,-12.97256,-11.19461,-9.401734,-8.169816,-6.080002,-5.99948,-5.101702,-3.950486,-4.333876,-2.783567,-4.540935,-3.619281,-4.305258,-4.413149,-6.137553,-7.239953,-8.945552,-8.534686,-8.900456,-9.967596,-11.62171,-12.62772,-13.43053,-15.50485,-15.97793,-17.88815,-19.91484,-19.72457,-23.10338,-22.10466,-23.89205,-23.09395,-25.13983,-23.67697,-25.31877,-25.31419,-25.69723,-25.49085,-24.26603,-22.39169,-19.8384,-17.52467,-16.03637,-12.78128,-11.46686,-9.701165,-8.460087,-5.599363,-3.445533,-1.872863,1.290031,1.818959,5.630907,5.985796,10.49143,11.0458,13.7236,16.33531,17.97143,21.09966,22.25199,23.41338,25.36496,25.37278,27.4035,28.04814,28.68476,30.27112,30.62599,31.93065,32.36126,32.36841,34.85992,35.4584,34.62354,34.73285,34.03333,34.44978,35.84733,36.02326,36.9587,37.87163,38.02761,38.74306,39.40435,38.64221,39.75415,38.68931,37.12751,37.06298,36.64517,36.19988,36.12945,36.39702,36.49653,36.06035,36.04808,36.9561,37.81584,38.27594,38.65265,41.66585,40.1042,40.35187,41.31014,40.98562,41.11992,40.60082,41.12614,40.86266,39.85441,40.34556,38.80617,39.31515,38.97954,37.3987,36.83152,35.99667,34.36339,35.13547,31.57052,32.42874,29.86747,29.58103,28.44359,26.74879,25.13307,23.96144,22.4284,20.94355,18.855,17.61652,15.29601,15.02197,12.74341,11.50692,9.932155,7.931034,6.315415,6.17739,3.932986,2.993884,1.342089,0.9126979,-0.2557981,-1.616932,-2.846801,-4.210526,-4.936942,-5.220074,-6.335839,-7.016243,-9.55328,-7.980596,-10.63907,-9.826044,-13.06573,-11.75838,-13.44619,-14.47464,-14.39921,-16.51822,-16.19728,-17.80646,-16.58754,-19.01151,-18.44317,-20.083,-20.69883,-20.93585,-22.75295,-23.03927,-25.0276,-24.10363,-24.13578,-23.92317,-26.33266,-24.92597,-26.34853,-25.56838,-26.90781,-28.25788,-28.10779,-29.2331,-30.83846,-29.75642,-31.50777,-30.80698,-30.79274,-32.09975,-30.05284,-31.81514,-31.48889,-32.43195,-31.50723,-32.79608,-33.73799,-35.54753,-35.32042,-35.55302,-35.89053,-38.2509,-37.16571,-39.29568,-39.19931,-40.1857,-40.59247,-42.21391,-42.19977,-43.78953,-43.96852,-44.72361,-46.88705,-46.15415,-47.64758,-47.3562,-48.99716,-49.4934,-49.57916,-49.92364,-50.02162,-50.32549,-50.57642,-50.76939,-49.38403,-49.89928,-49.32257,-49.21315,-47.12884,-47.83073,-45.50081,-45.39076,-45.0424,-42.71721,-42.62123,-40.95319,-40.18019,-38.74019,-37.54978,-35.98209,-33.80148,-33.66977,-31.54506,-29.72581,-29.12313,-25.51725,-25.71637,-23.65399,-21.63685,-20.34309,-17.07773,-16.92087,-13.45717,-12.75322,-9.84735,-8.810564,-6.956396,-5.163126,-4.533111,-1.41044,-0.3153255,0.9114124,2.715455,4.459919,5.012353,7.53294,6.462598,9.429608,8.622002,9.284799,11.5863,10.4309,11.55943,11.62338,12.60638,12.03032,12.80993,11.6764,12.21111,12.00263,11.52004,10.09871,9.068483,9.23262,8.368173,8.861543,7.57093,8.302133,7.268702,8.362012,6.896958,6.765798,5.551009,5.427934,3.635994,4.396881,2.292128,1.700408,2.391151,2.157643,3.250125,1.562613,1.77652,1.4548,2.439589,1.776551,1.244371,1.158187,0.2156745,0.5868865,0.4299933,-0.5413599,0.08240442,-1.537265,0.7078226,-1.864496,0.169262,-2.924842,-0.7550774,-2.382442,-1.499298,-2.225092,-1.861364,-2.624776,-2.319883,-1.928675,-2.758645,-2.273674,-2.66246,-2.531332,-2.307541,-2.480624,-1.871941,-2.802417,-0.04779321,-2.354627,0.5879879,-1.667214,0.6308703,-0.7019897,1.825977,0.4361319,1.729813,2.171749,2.414196,4.24568,3.989021,5.121258,6.059012,6.513709,8.317704,7.744795,9.238408,9.710599,9.698458,12.44145,11.35739,13.01396,13.01403,13.8635,15.53019,15.23835,15.92763,16.49379,16.70694,18.51543,18.72209,19.48771,20.15956,21.31841,22.61384,22.58266,24.13364,23.58395,24.589,25.80752,24.83483,26.55868,24.58418,26.83548,27.14344,26.32464,27.27673,25.90068,26.10745,26.24066,25.99634,24.824,25.28171,23.55496,24.07518,23.75705,25.14216,24.98939,25.53151,25.51657,25.6646,26.07293,25.66849,25.67277,25.9744,25.96192,25.68072,24.86379,25.51192,26.23816,23.28867,23.79876,23.76828,23.0446,23.76468,23.74572,24.74202,24.02554,25.884,25.28111,26.39491,26.81627,26.53984,30.27382,29.46496,31.64482,31.9562,32.80945,33.22351,32.7641,34.9394,32.40153,35.0472,32.45217,34.1433,33.14672,33.07754,31.27512,31.94432,30.8921,31.44871,29.3974,29.40977,27.17197,27.82656,24.68644,23.45845,21.8343,22.24906,19.8653,21.30293,18.37327,20.04297,17.59286,19.07183,18.70677,18.11459,18.11235,18.3252,19.32444,18.97754,19.55802,20.45152,18.94354,21.19853,20.06044,20.32148,20.15457,20.12091,20.4626,19.98963,19.80476,19.34563,18.53492,19.77185,18.32943,18.47512,18.85191,16.4253,18.74025,16.06531,16.65524,15.37102,14.35102,15.63658,13.44096,14.13207,12.6436,11.76566,11.70176,10.21757,10.25439,8.411371,8.697349,7.581646,7.951521,6.143598,5.966335,4.515047,4.780764,2.971263,3.028803,1.181011,0.3507704,0.02642004,-1.531315,-2.710264,-4.442642,-6.722968,-7.061195,-8.483934,-9.79466,-12.4383,-14.10514,-14.63104,-17.6808,-19.26441,-21.83623,-22.94569,-26.67744,-27.02576,-28.89226,-29.50811,-30.92801,-32.04812,-31.50091,-33.27186,-32.9885,-34.42191,-33.21978,-33.57626,-32.10729,-32.6333,-30.90598,-31.01361,-30.401,-30.22309,-29.86425,-30.13963,-28.52331,-28.78193,-27.38597,-28.0053,-27.66007,-26.82523,-26.68624,-26.37306,-26.07858,-26.24835,-26.38029,-26.51871,-28.64745,-28.97408,-31.42949,-30.34112,-32.46872,-30.57045,-31.98953,-30.94371,-32.78018,-30.84615,-32.33204,-32.90583,-33.16302,-32.72895,-34.51685,-34.4218,-35.58912,-36.83104,-36.82202,-38.64012,-38.71094,-40.77602,-42.15811,-42.58851,-44.01214,-44.63665,-45.82188,-46.57273,-47.96456,-47.09998,-49.08943,-48.58291,-50.2199,-48.51448,-50.58266,-48.86658,-50.32596,-50.33033,-49.54103,-49.38943,-48.74831,-48.14177,-47.46016,-46.34349,-45.99582,-43.96111,-44.53328,-42.15373,-41.94257,-39.34708,-38.14371,-35.9972,-34.33366,-32.08937,-29.97962,-28.84112,-26.54406,-25.0862,-22.00523,-20.26586,-17.0682,-16.90371,-12.8623,-12.50868,-9.348342,-6.67104,-5.063688,-3.282337,-0.2577519,1.667233,3.742362,5.222322,7.68803,9.230312,11.33828,12.29152,14.59698,15.2089,16.55296,19.0661,18.45706,21.33961,20.61358,21.75273,23.39258,22.80998,24.47635,23.14772,25.76544,24.18486,26.00541,24.58607,25.56671,25.42686,24.67939,25.43,24.6386,23.6195,23.94597,22.84856,23.97914,20.859,22.59785,20.24132,21.13706,19.77552,19.32778,18.2641,17.62286,17.12632,16.69374,17.05236,16.88347,16.89248,16.70254,17.45071,16.39795,17.5305,16.02177,17.26783,15.94825,15.95326,16.05508,14.68769,14.93524,14.83748,13.48955,13.89872,12.62765,12.76621,12.93585,12.30287,11.40646,11.27384,11.64807,11.08418,10.64773,10.04485,9.322436,8.404528,7.57849,7.051025,6.767619,7.430222,7.116244,8.949172,8.544606,9.450297,9.589771,10.21491,10.59947,10.09609,9.376332,8.912557,10.00858,11.58123,10.42958,12.594,11.77165,13.32474,14.1175,13.88061,13.5132,13.62268,13.64434,13.05553,13.04772,12.63979,11.35532,11.15405,10.29353,9.933034,8.852357,7.773261,6.639877,6.450945,4.356461,3.574617,1.744895,1.439377,0.05929611,-1.393868,-2.394347,-3.631654,-5.917757,-5.568421,-7.645329,-8.687584,-10.3336,-10.82722,-11.00865,-12.44338,-13.01516,-14.3447,-14.81557,-14.94311,-16.27416,-16.77674,-17.32996,-18.33929,-18.0377,-18.078,-19.36785,-18.82495,-19.38697,-19.09822,-18.94269,-19.27917,-18.30041,-18.30801,-16.51458,-17.72875,-15.14074,-16.28677,-13.64475,-13.77187,-11.32287,-11.39746,-10.19082,-9.170467,-7.802178,-6.247716,-5.776387,-5.074026,-4.196804,-1.895399,-1.3212,1.037647,1.070228,1.135891,2.782014,4.231306,6.933794,7.72252,11.00468,13.4738,16.20477,18.31287,19.8787,22.39032,23.67981,25.66212,24.4821,27.29945,26.06011,26.43924,25.48756,24.96672,22.92167,23.32049,21.53399,22.61884,20.83304,20.30462,18.81634,17.6308,16.87578,14.42798,12.9525,10.56512,9.99691,7.480053,6.793296,4.986911,6.228006,4.219566,3.699632,3.64947,1.429857,1.701549,0.6633317,0.6815261,0.5142204,-0.1494696,-0.8258841,-0.4602479,-0.3197081,-0.7245856,-1.494181,-0.8169555,-1.018824,-0.3834922,-1.303464,-0.5782932,-2.596133,-0.5033025,-1.764454,-2.153846,-3.10722,-2.890493,-1.050198,-1.608975,1.805178,0.9108826,3.068349,6.666425,7.231146,10.59789,11.58785,14.80208,16.12384,17.54508,19.60506,20.187,21.13666,22.4296,20.71057,23.52288,22.77985,24.12709,25.45756,25.79641,27.03129,27.28273,28.09027,29.46707,30.68744,30.11256,32.07769,31.48345,32.17021,32.20281,32.30779,31.79104,31.28245,30.04322,30.56826,27.86613,27.14469,25.00584,23.72957,22.62633,19.57648,17.52802,15.69137,14.49588,12.12211,10.55644,6.30486,5.705114,4.795638,5.609744,4.940743,3.150652,3.857023,3.500179,2.416674,2.092689,1.308694,0.5090739,-0.06166905,-0.3728639,-2.368813,-1.317132,-3.721807,-3.883376,-3.928062,-5.484272,-5.921091,-7.097324,-8.198262,-7.137693,-9.735196,-8.641944,-11.18997,-9.788011,-11.16236,-11.48439,-12.56695,-13.71449,-13.7308,-14.29066,-15.2449,-15.6447,-14.39211,-17.42144,-13.49312,-17.32632,-15.04437,-16.46601,-15.52894,-14.87647,-15.63091,-15.60418,-16.07638,-15.77927,-15.78438,-16.9195,-17.16326,-17.38469,-18.28262,-18.08539,-19.79947,-20.05145,-22.83171,-21.43963,-23.48874,-23.52932,-23.57011,-21.97245,-21.08473,-21.67219,-18.42916,-21.1376,-17.54769,-18.0037,-16.85793,-16.64967,-17.30898,-17.22593,-18.25244,-18.23934,-18.00839,-18.28457,-17.94842,-18.3477,-17.52102,-14.88372,-16.79496,-14.87329,-15.71039,-15.46762,-16.19547,-17.10101,-15.63936,-16.85599,-15.49709,-16.57037,-14.85823,-17.84499,-16.10677,-17.09161,-16.80723,-17.73741,-18.15985,-19.39076,-18.35721,-19.92111,-20.54995,-20.29193,-22.83788,-21.07079,-23.59096,-23.14202,-24.45554,-24.69715,-24.54925,-25.13414,-25.89716,-25.84422,-26.31058,-25.64989,-26.21614,-26.50848,-26.29744,-26.22076,-26.1589,-25.49667,-25.75514,-25.24078,-24.85445,-24.04693,-23.61786,-22.80923,-23.27366,-21.53772,-21.51877,-18.98537,-19.84311,-17.63109,-17.35079,-15.22336,-14.03428,-13.02338,-12.46461,-10.11939,-9.3488,-6.613249,-7.345742,-4.136361,-3.861283,-0.8606065,-0.6240216,1.597518,3.697791,3.154931,7.748419,6.109688,10.20953,8.797256,12.58684,12.57511,15.04317,15.69194,17.11762,17.79235,19.83712,20.63765,21.93123,23.48534,22.61484,25.47138,24.12306,26.78433,25.60587,27.58214,26.86565,28.73181,27.83366,28.56687,27.34963,28.10476,28.6733,27.15266,28.53821,27.14653,27.21103,26.65373,26.93893,25.39522,27.06154,25.97842,27.99486,26.27402,25.71175,24.97235,27.20576,25.42521,27.38013,26.80033,27.31664,28.56365,29.85015,30.89436,32.64746,31.71906,33.37055,32.04031,33.33897,32.48919,34.00175,33.63707,35.61434,34.93194,35.97617,35.31694,36.92993,36.68979,36.85574,35.7472,35.53287,35.86813,35.85345,34.81416,34.87069,33.9556,33.35496,32.39102,31.76794,30.28513,29.97023,27.47596,28.40458,25.43683,24.92305,21.96303,20.49369,19.5333,17.88959,16.93513,15.20618,14.25369,13.7813,12.89753,12.87777,12.59779,11.7289,12.76181,10.64765,12.62182,10.55641,12.42193,11.61733,11.68095,11.67244,12.33009,12.03363,12.88018,11.83958,13.94126,11.90359,13.97335,12.85023,14.30491,14.65295,12.67295,15.90425,13.79388,15.9987,13.89045,15.84777,14.6629,14.77494,16.51137,14.61519,15.40881,14.3158,15.06109,14.02076,13.54501,12.28426,14.36903,12.82705,13.22218,11.93515,10.07317,9.575336,9.041489,6.28319,5.459792,1.873902,1.549987,-1.155538,-3.547633,-6.051711,-8.752299,-12.31913,-13.92562,-17.22785,-21.97747,-23.1662,-28.93781,-29.52128,-33.5891,-33.89408,-36.40458,-36.45785,-38.88371,-38.61141,-41.07235,-41.84131,-43.18602,-43.90555,-45.55163,-45.68563,-48.6493,-47.80212,-48.60756,-45.7769,-47.03696,-44.89988,-44.35744,-42.36852,-41.74289,-39.74949,-39.47215,-35.86242,-35.81513,-32.42597,-32.01157,-28.62955,-28.16862,-24.11558,-23.89509,-20.11172,-19.99933,-16.67551,-15.54376,-12.30589,-12.26112,-10.14439,-9.337902,-7.560922,-7.491995,-5.742063,-6.764973,-3.578118,-2.680369,-2.126533,-0.1273983,-0.9893962,1.232125,0.6237538,2.503476,2.901121,1.96488,2.882593,2.582928,3.129381,2.216772,-0.7835448,0.3586624,-1.951097,-0.00947334,-2.79852,-1.061289,-3.712767,-1.663116,-2.60843,-2.962471,-2.738459,-3.292873,-4.060836,-3.617147,-2.987561,-3.287975,-1.262274,-1.949545,-0.1407984,-0.5334665,-0.8007599,-0.3022128,-1.15775,1.581569,-1.282807,0.8780526,-2.770423,-1.153334,-4.573293,-5.239672,-6.084532,-7.631367,-9.055922,-10.28913,-11.3039,-14.21796,-14.06935,-17.17602,-20.66477,-21.95971,-25.59869,-24.787,-28.60788,-27.0018,-29.57965,-29.02911,-31.92905,-30.72271,-32.4695,-32.98042,-33.53381,-34.62012,-35.04421,-35.5262,-35.95394,-37.66202,-38.31414,-40.79216,-40.60595,-42.9814,-43.568,-43.01995,-43.54732,-42.61313,-43.30326,-42.47277,-41.24883,-40.84707,-38.54376,-39.90258,-37.11221,-37.9852,-35.71881,-35.10246,-32.99104,-32.82036,-30.64136,-30.93854,-27.31381,-28.45879,-25.88424,-25.38857,-22.94253,-21.8879,-19.30945,-18.8039,-16.41068,-15.09819,-12.39629,-11.32287,-8.825989,-7.502355,-5.154016,-3.041598,-0.793382,0.097482,2.948222,3.391254,5.728784,6.850058,7.521401,8.970732,9.685012,11.75155,11.32241,12.17003,12.84087,12.14541,12.81723,11.96257,11.17775,13.48077,11.34001,13.83971,9.844818,12.15563,9.884976,13.73085,12.80781,14.96838,17.59973,16.80095,21.23663,24.02888,27.73078,29.52704,31.54571,33.92505,35.88695,38.45648,37.88132,41.37185,41.03951,43.31776,42.76736,42.41582,41.20143,40.03373,40.73431,39.00172,40.11234,38.05503,37.63011,36.92347,34.63174,33.23182,30.1687,27.89555,26.52791,26.35837,25.3239,24.21603,22.76177,23.69842,20.30418,20.45543,17.66713,16.8233,15.39345,12.97131,11.57891,9.206272,5.858493,4.552061,1.505483,-1.083354,-5.561454,-7.544315,-10.00148,-11.01246,-11.72783,-12.11085,-13.64536,-13.24357,-12.98285,-13.68577,-14.00333,-14.09041,-14.00573,-14.45986,-14.28142,-14.70615,-15.0831,-14.78067,-14.52723,-15.76695,-15.92443,-16.67712,-18.30239,-18.05503,-17.97539,-18.67961,-17.83929,-17.78722,-16.93262,-17.10384,-16.59525,-14.10344,-14.16437,-11.7731,-12.20991,-10.24831,-10.25273,-9.481264,-8.485961,-8.287951,-7.904477,-7.67272,-7.400629,-7.030134,-6.590027,-7.814921,-7.339632,-7.412936,-9.115281,-7.978502,-10.78834,-11.34032,-12.07312,-13.24486,-14.67167,-16.03826,-18.29247,-18.56717,-19.85747,-19.02109,-19.22568,-18.18866,-19.01862,-17.9535,-17.06967,-18.8356,-16.24204,-17.06409,-15.76697,-15.59618,-15.34718,-14.68812,-13.74054,-12.65553,-12.66721,-11.04652,-10.21492,-9.500585,-6.845816,-7.005057,-5.075926,-4.693291,-2.376673,-2.482351,0.4841821,0.1572764,2.031968,4.024951,5.653644,6.9698,8.854648,10.26942,13.04551,13.45986,16.74453,16.29052,19.1299,19.93843,21.85894,23.13746,24.21722,24.72683,26.76911,27.13471,28.24706,28.83424,28.54736,30.0179,30.63849,30.27461,29.98188,31.14162,31.99181,34.48001,34.47121,36.37535,35.6417,37.83352,37.21441,35.89082,37.06292,37.34047,35.91191,37.42417,36.90283,36.1167,36.24598,35.81324,35.91787,35.1295,34.72363,33.48824,33.52479,35.09105,34.23938,34.46737,34.27247,34.86176,35.29168,35.89383,36.09531,37.46038,35.32973,37.70141,35.63482,37.43147,35.0925,36.21095,35.75964,35.71667,34.46553,33.99757,32.57708,33.24716,30.752,30.21944,28.58861,28.3188,25.06296,26.91451,22.9845,23.26974,21.78731,19.97986,19.60871,16.80114,16.12243,13.35807,12.79704,10.32449,9.012032,6.797804,5.139561,3.149734,2.058972,-1.030634,-1.975756,-3.950431,-3.193454,-6.119189,-7.52168,-10.15797,-11.7928,-13.20484,-15.4424,-16.30039,-18.57552,-19.56623,-20.27443,-22.0378,-23.01973,-25.27269,-26.49049,-27.19511,-27.69241,-28.57604,-28.99064,-29.37582,-29.56924,-30.16878,-31.84039,-33.63269,-32.13745,-33.71954,-32.46371,-33.0597,-32.52463,-31.00081,-30.43327,-28.02545,-27.69929,-25.97804,-24.0039,-22.22444,-20.47719,-17.60338,-17.63831,-14.31966,-12.92023,-11.157,-8.97769,-7.784197,-5.451346,-4.273367,-2.137468,-1.578979,-0.326434,2.270497,2.476327,4.415705,6.480555,6.173003,6.260728,7.83977,7.596424,7.232186,8.274508,6.053603,8.327949,5.814779,6.530769,3.83268,4.374306,3.32462,2.231825,1.65602,-0.3257011,-0.3738684,-2.522677,-1.984747,-4.572139,-4.611304,-6.014022,-6.504627,-7.243493,-8.528063,-9.59532,-10.57205,-10.68118,-11.88242,-11.99178,-13.87209,-13.84623,-14.16406,-14.723,-14.25797,-15.68473,-15.10549,-15.89332,-14.80085,-15.66966,-15.14365,-15.27006,-15.63004,-13.89818,-15.06153,-13.78915,-13.68737,-12.23169,-11.62271,-10.34385,-10.41279,-8.486586,-7.5142,-5.571966,-4.572509,-2.724388,-1.370055,0.7617876,-0.2006276,2.804783,2.181258,3.995787,5.622501,6.896679,8.959002,9.024227,11.27863,11.12096,12.64568,12.82998,12.58035,13.43674,12.85437,14.39083,13.75055,12.31036,11.70711,10.54473,9.331462,7.034003,7.94607,6.377976,5.348963,4.808549,4.206785,2.323677,2.34801,0.0195057,0.2766417,-1.875229,-2.947714,-4.054364,-6.403713,-6.80515,-7.909641,-9.980068,-9.811383,-11.28862,-10.78461,-12.40279,-11.98793,-13.87289,-14.73568,-13.29346,-12.59668,-11.73133,-10.97173,-11.07323,-9.417592,-9.338023,-8.610602,-8.178739,-7.465874,-6.834308,-7.033241,-6.086688,-7.222551,-5.71689,-7.234807,-6.069977,-7.998389,-6.590635,-8.501903,-8.410288,-9.156589,-10.47169,-10.85772,-12.14043,-11.28762,-13.79861,-13.05887,-14.85206,-16.33733,-16.41592,-18.18914,-18.09551,-19.60656,-20.3304,-20.96893,-21.9224,-23.16296,-23.17228,-24.92446,-22.95649,-26.31081,-24.74806,-26.88479,-26.82388,-26.92395,-26.38856,-27.94439,-28.06883,-27.6904,-27.37183,-26.90699,-27.27557,-26.13809,-27.75558,-24.51702,-25.27635,-23.93299,-23.07653,-21.74099,-21.87005,-19.60083,-19.05467,-18.72735,-16.92205,-15.31853,-13.49234,-13.93744,-11.28421,-11.30867,-8.979961,-8.303496,-6.369815,-5.741072,-4.638281,-1.846988,-1.597113,1.021666,2.064297,4.046564,7.398773,7.548336,9.513249,11.76165,12.66563,15.79482,16.68549,19.78846,19.2787,22.85959,23.21801,25.31829,25.94154,27.71889,27.84255,29.42948,30.93115,29.99896,31.32657,30.8986,32.25895,32.32442,32.83987,32.62452,32.9,32.18941,32.30044,32.43361,29.11175,30.02121,30.87244,31.20921,31.4919,32.13204,33.1341,34.48844,34.44131,36.82414,36.30283,38.28473,39.10079,40.0826,42.49036,41.07829,44.1597,44.06806,45.86605,46.29969,46.91733,46.46823,48.14997,48.02393,48.40248,48.4853,48.56053,48.61527,49.08996,47.93083,47.55311,46.17425,45.99243,46.13358,43.82493,43.81095,41.08497,41.20308,39.43347,38.91377,36.14465,35.34383,34.1297,31.51947,31.56129,27.60216,27.93125,24.84316,24.37078,20.82917,20.13799,17.78125,16.00506,14.40317,12.03218,9.333915,7.082098,5.313152,4.833085,2.971877,2.810215,1.43645,0.1529306,0.6574337,-2.000779,-3.566253,-4.128999,-4.116469,-5.069794,-5.410639,-5.545977,-8.241234,-8.971384,-10.05849,-9.817109,-10.69421,-10.58657,-9.093391,-9.60028,-7.614113,-7.50239,-7.223132,-6.258775,-7.441693,-5.771462,-8.178268,-8.38937,-11.26171,-14.19841,-13.79623,-18.85475,-15.90348,-21.18255,-17.71388,-20.17861,-18.72165,-20.00496,-19.71202,-19.53894,-20.88449,-20.92247,-22.74581,-23.78664,-24.28868,-27.02915,-27.94177,-32.03174,-34.25725,-36.9572,-40.31907,-44.59856,-46.15138,-49.36667,-50.75124,-53.44741,-57.20224,-58.35873,-61.39403,-63.25403,-63.13579,-64.20997,-66.21219,-66.04818,-67.99981,-67.3259,-69.71144,-68.85485,-71.22081,-69.92142,-70.91163,-71.58138,-71.76897,-71.50569,-70.32417,-71.46978,-68.47086,-69.29744,-67.2444,-65.67182,-65.0671,-62.60734,-61.84166,-60.0976,-56.5701,-54.65294,-51.70784,-49.77061,-45.70299,-42.07006,-37.01844,-33.80541,-28.36502,-24.91402,-18.1308,-14.9708,-9.140312,-5.41657,-1.822856,3.504573,5.85579,10.44969,11.89626,15.55663,17.35168,20.13904,21.97664,25.49702,26.76208,31.36842,31.48939,34.87297,34.82762,36.16167,36.4941,37.4419,38.22513,39.67036,40.10093,40.8273,39.99051,40.02142,39.23977,38.95017,41.15542,42.03129,41.9199,42.30879,42.97172,42.46485,43.37791,41.23532,40.78433,37.92074,37.10907,34.15482,31.61909,28.85242,25.49621,25.44604,24.95789,23.45584,25.05752,22.15234,25.52627,23.21469,24.51761,23.19158,22.96782,23.41867,23.16745,22.9778,21.02619,20.13952,21.1798,19.49465,21.49393,19.03563,21.04806,21.03042,22.68516,21.78108,24.23639,23.00182,25.15735,25.69652,27.44351,28.63451,31.0388,31.5731,36.18854,34.75173,37.10371,37.529,38.35481,39.32676,40.56605,42.3506,42.04055,42.90567,42.07387,41.05286,40.70065,38.09615,38.50573,33.99651,34.83839,28.87921,27.37156,23.26269,20.14794,16.82554,12.13367,9.453748,6.574984,1.761575,-0.8427177,-3.966264,-6.359904,-8.659737,-11.03774,-13.53117,-15.69281,-17.96794,-20.05935,-21.67767,-23.70676,-26.03764,-27.93697,-29.45378,-31.88849,-31.79926,-35.81201,-35.71487,-37.64231,-38.53426,-39.07127,-40.9656,-41.4366,-41.9157,-42.54989,-42.17833,-42.99782,-43.27339,-43.54514,-41.88158,-42.92573,-41.6714,-41.96505,-40.44916,-40.92978,-38.58661,-39.36276,-38.0177,-36.84035,-35.29575,-34.79239,-32.5353,-31.68234,-30.45133,-27.90877,-27.38404,-24.597,-24.35707,-21.64727,-20.2683,-18.68955,-17.25438,-16.14686,-14.08978,-13.00248,-11.18984,-10.76662,-9.120379,-9.217791,-7.402525,-6.874993,-6.421706,-6.640751,-5.711713,-6.222813,-5.777648,-7.303841,-5.928791,-5.125244,-5.594125,-3.472812,-5.570733,-3.815861,-4.329828,-3.942992,-3.40968,-3.431028,-4.111113,-2.688966,-2.453891,-1.270564,-2.40894,0.1058037,-2.212075,1.929042,0.6869752,3.80032,2.923509,6.497518,6.472908,9.917395,11.01179,9.451778,11.90659,11.63793,13.6038,13.24184,14.07601,14.56754,14.97489,15.57397,15.42098,15.89561,15.79403,16.64244,17.29246,16.91937,17.4455,15.43962,14.5126,16.28392,14.55348,15.12389,15.12851,14.65306,17.06196,15.76789,16.75717,17.05184,18.30612,19.21138,19.26118,19.86819,20.46127,20.09952,23.01769,19.94012,23.2574,21.58431,23.21271,23.90173,23.3811,24.5276,23.32303,24.64317,24.53728,24.42823,23.96342,23.69061,23.80355,22.92394,23.51936,21.49435,22.62341,19.34667,21.99929,18.43975,19.47328,17.33961,17.56448,16.68214,15.56983,14.54888,13.00384,13.05563,11.38161,10.95274,9.363568,6.981889,7.663398,4.385246,4.460652,2.441126,0.7555806,0.07840969,-2.154566,-2.269923,-5.033516,-6.091048,-7.251563,-8.196725,-10.09802,-11.03585,-12.16463,-13.23494,-13.51205,-15.22012,-15.33588,-15.51898,-16.60382,-16.22879,-17.22562,-16.05201,-18.40693,-16.5754,-16.83218,-17.38435,-17.09814,-17.32676,-17.11468,-16.5891,-16.33924,-15.92224,-15.68063,-14.47672,-13.88443,-13.24312,-12.31546,-11.94975,-10.66282,-10.15772,-8.529653,-9.572473,-6.919043,-7.660175,-5.698755,-5.784522,-4.866734,-4.870449,-3.598193,-4.308877,-3.254291,-2.840304,-4.485948,-2.625834,-4.178613,-3.903971,-5.481634,-6.889809,-5.91439,-5.226282,-6.152701,-5.288012,-5.555715,-5.773276,-4.85506,-5.34737,-5.133876,-5.074474,-5.268264,-4.207471,-5.186934,-4.486937,-4.735601,-5.237737,-2.996052,-4.950984,-2.841466,-3.660875,-3.306809,-2.321242,-3.260875,-1.342794,-3.494917,-1.390422,-3.592875,-2.381782,-3.609374,-3.490216,-2.704121,-2.064597,-0.8634066,-0.6736085,1.109322,1.541363,3.789184,4.0983,6.02712,6.83539,6.155661,6.100203,6.122275,7.123514,7.84639,9.194795,11.6906,12.9109,15.00945,16.84785,19.00988,19.66087,22.33197,23.45032,22.60959,24.55228,23.53699,24.76009,21.73128,20.69982,20.69922,21.58736,21.20363,20.47499,19.89992,19.22385,18.90362,18.51794,18.06282,17.14194,14.75043,14.36855,12.49823,11.03274,7.216262,7.052714,3.257015,1.659755,-1.169908,-3.617905,-6.441321,-8.624418,-10.52307,-14.01289,-15.67741,-19.6581,-20.36003,-22.79469,-25.10289,-26.9674,-29.49887,-33.54486,-33.73646,-36.90782,-37.61321,-39.5708,-39.38473,-39.67217,-40.27634,-39.12279,-39.88615,-38.04104,-37.71351,-34.90975,-35.1179,-32.13446,-30.13316,-27.52943,-24.87011,-23.23639,-18.47661,-17.77909,-12.00912,-10.55338,-5.718511,-4.256742,0.5922844,3.196151,7.62996,10.21939,14.04197,17.48115,20.95113,24.42859,27.38515,29.18792,32.95814,34.64976,37.41752,39.21309,39.72302,42.51501,42.01166,44.37755,42.43618,44.04735,41.45569,44.52117,42.61013,43.29068,42.48768,41.38599,41.46183,39.52244,38.08349,35.58936,32.8019,31.19603,26.6131,24.383,18.29566,17.70371,15.24772,13.51468,12.28642,8.809048,8.852512,5.367768,5.162419,1.167048,-1.107974,-3.115404,-6.50868,-8.176146,-12.76198,-14.30518,-17.88896,-19.91292,-23.60935,-23.24848,-24.2831,-25.51529,-26.89005,-28.09318,-28.17011,-29.33076,-29.32445,-29.21623,-29.16734,-30.28153,-30.1583,-30.05064,-29.43473,-29.27857,-30.11063,-28.85585,-29.71684,-28.2074,-29.60641,-28.5687,-29.26648,-28.86251,-29.09872,-28.34342,-27.30856,-28.61032,-27.73969,-28.49797,-30.21318,-30.83234,-33.66698,-34.75702,-35.34566,-36.08402,-38.05615,-38.77965,-41.16299,-40.74935,-42.7726,-43.32592,-45.85723,-45.31886,-47.5982,-45.90807,-49.58133,-48.63191,-49.44176,-50.5272,-49.36925,-51.54034,-49.72576,-52.4287,-49.52904,-50.95341,-48.61446,-50.58793,-47.8344,-47.95623,-46.19147,-45.62346,-44.39956,-42.54172,-42.10339,-38.67321,-39.21682,-36.30482,-35.36899,-31.63265,-30.94168,-27.0135,-26.82112,-22.35055,-20.64762,-17.56115,-14.60955,-12.57347,-9.468257,-6.077476,-4.341525,-0.9552112,1.503931,3.493896,7.662573,9.031999,12.62283,14.86078,17.36348,20.57876,22.51988,25.98686,26.10641,30.89534,30.70117,35.06511,35.54734,38.27926,40.24315,41.57023,44.75193,44.77554,47.46583,48.43635,48.65652,52.01716,50.55743,52.76925,51.55227,53.33007,53.05045,53.71019,53.41413,53.87967,54.11511,54.10633,54.87376,53.00662,53.45645,53.20739,53.70791,51.72861,53.76697,52.51311,53.90212,53.42245,55.52807,54.68926,56.77242,56.93641,59.57572,60.4625,62.33952,64.40652,66.51388,68.45316,70.78713,69.9336,72.20812,73.15752,73.78356,75.46625,74.47402,75.67523,74.98283,76.62234,74.86178,76.19308,73.98667,76.46149,73.46111,75.05378,72.70505,73.18659,71.29198,71.66713,68.74839,70.02412,66.42602,67.30806,64.40612,64.15501,62.26603,60.22088,60.4705,57.94795,56.75919,54.59287,53.19419,50.48645,50.05752,48.34084,45.99481,44.58415,42.39915,41.33505,39.21886,37.78647,35.68632,34.43296,32.21034,30.77472,27.20733,26.42373,23.63189,24.65766,23.15151,24.41745,23.14093,25.26621,25.22545,27.80155,27.88996,28.89695,30.5753,31.14216,32.96498,32.60601,32.80975,31.29968,31.42963,31.75381,30.05556,32.05708,29.58672,32.7522,31.74825,34.2816,33.00322,34.47202,35.67404,36.02118,37.40986,37.98167,38.16321,41.50915,40.06923,42.48281,41.66349,43.91495,43.30954,45.0704,45.49312,45.61593,45.95001,46.27052,45.96435,44.86669,44.96242,44.13022,42.64545,41.64553,41.33642,37.77613,37.51733,33.62927,32.20087,28.82697,25.88317,23.07285,20.18612,16.15889,14.30418,9.322861,5.682257,-0.2247761,-5.696062,-14.38571,-22.0604,-32.57352,-42.283,-53.80404,-66.03682,-77.73414,-90.9666,-103.5979,-116.8764,-129.155,-143.7229,-154.8518,-169.4226,-179.5852,-193.9709,-205.5294,-219.4571,-228.0919,-239.2646,-246.7262,-255.3141,-261.6235,-269.2464,-272.7129,-279.7088,-284.626,-289.7466,-290.8148,-292.7884,-292.0687,-292.7678,-289.9741,-287.0568,-284.3779,-279.9294,-275.8081,-270.7289,-265.4225,-257.9722,-252.2621,-244.9719,-237.6972,-229.6264,-220.6367,-210.7169,-199.151,-187.5935,-174.611,-162.527,-147.7272,-137.2824,-121.5379,-110.5823,-95.59841,-84.89597,-71.46545,-60.9611,-48.55315,-40.56659,-30.53865,-22.64344,-14.01896,-1.681539,6.628682,16.18704,24.76556,32.04398,39.74419,43.68397,51.58048,55.16243,62.11912,65.58685,70.83976,74.16911,78.22288,79.67508,83.34518,82.7765,85.93891,84.87296,85.23803,85.35646,83.19623,83.74626,80.70067,78.89501,76.14152,73.72088,70.9603,68.15089,64.93545,61.60984,60.39802,57.11535,55.37162,53.82142,51.84766,52.78316,53.16617,53.18307,55.25939,56.24699,59.20448,60.14904,62.04577,62.85739,62.62162,63.3145,63.38306,62.60276,62.52771,62.25562,61.59905,61.85291,61.67136,60.50833,60.14229,59.37624,57.77807,55.19475,55.47816,51.56933,54.31817,49.9691,51.67345,51.27741,53.56432,52.89488,54.9218,54.10827,53.9126,53.23625,53.01152,52.44379,51.58091,53.99067,55.35954,55.4371,57.59516,57.51847,59.39593,59.34537,59.84195,61.49078,61.2666,61.68339,62.86734,62.06777,63.53459,62.11057,63.67446,61.62456,63.99509,62.10664,62.62881,61.98104,61.55491,60.63927,60.94026,58.49435,58.68672,55.69285,55.72764,52.30181,51.83209,47.51964,46.00465,42.23806,41.82115,39.11951,38.67385,36.60393,34.52625,31.85846,30.66547,27.98168,25.22129,24.9217,25.28894,24.09389,24.50777,22.11506,24.43291,21.82594,21.97845,18.44867,20.69737,19.79655,20.91409,21.46622,20.84167,23.22156,21.92871,25.03235,23.76789,24.94575,24.59785,25.75921,26.28289,26.47591,25.94444,25.71928,26.61777,25.41959,25.29364,24.17601,23.2786,22.58939,21.75259,20.2268,18.99003,17.05374,15.57514,13.86495,12.11655,10.12168,6.698802,5.03407,1.661866,0.1216787,-3.229101,-6.850731,-8.827033,-13.16086,-15.05982,-20.29966,-22.52469,-27.70121,-29.63977,-32.70172,-33.99841,-35.71045,-35.48484,-39.70785,-38.90133,-42.13115,-44.16119,-45.08525,-48.14646,-48.97765,-51.98078,-52.74655,-55.57656,-56.33602,-58.75994,-59.35359,-61.8392,-62.90815,-63.37903,-64.95301,-64.80542,-67.00358,-66.02161,-66.91387,-67.2933,-67.18603,-67.45765,-67.94188,-66.4794,-66.82094,-65.01882,-65.40289,-62.78653,-63.14046,-59.74831,-59.06761,-57.14066,-56.16844,-52.53584,-52.12062,-48.79054,-46.93451,-44.37892,-42.66327,-39.08847,-38.00879,-34.46582,-32.91227,-29.06414,-27.413,-23.56134,-22.0977,-18.3333,-16.76391,-12.25231,-11.52308,-8.337808,-5.921122,-4.840862,-1.496191,-0.7459215,0.3681534,3.220134,2.28239,6.656539,6.961782,13.02824,12.34548,17.04656,17.61161,20.3472,22.72979,23.47479,25.44626,27.37943,27.7998,29.83361,30.57986,32.41913,31.79969,34.58471,33.48413,35.88658,34.59348,35.9669,35.98311,36.21075,36.11151,37.26054,35.07525,37.39568,34.84767,36.28011,34.4108,34.64932,32.8665,30.96113,30.22256,29.82158,29.89659,28.40082,28.57407,28.21382,27.91901,28.94182,28.47589,29.73956,29.44217,31.1519,32.37911,33.86487,35.2,35.10411,35.97244,37.20944,38.17254,38.05735,39.65352,38.55703,41.16055,39.96282,41.98896,40.16779,42.3026,40.76442,42.29152,41.40752,40.92729,40.80604,37.35117,37.63694,35.6747,36.55824,34.22612,35.93514,34.63611,35.50286,34.94818,34.80062,35.06501,34.23194,33.8031,33.18183,31.66098,31.174,28.23973,27.40977,23.95838,23.279,19.69982,18.45069,14.62559,11.73363,9.086764,6.533954,3.011972,1.782264,-2.16811,-4.347293,-7.344729,-10.05444,-12.48833,-15.05796,-18.37912,-19.95572,-22.27843,-24.87487,-26.19907,-29.80032,-29.60631,-33.10115,-33.52469,-34.8639,-37.23266,-36.12006,-39.41201,-36.56837,-40.64436,-37.6312,-40.88201,-36.62433,-40.5586,-36.88977,-39.16417,-36.72818,-37.04668,-35.49639,-34.35972,-34.0052,-31.93444,-30.50515,-29.70601,-27.57542,-26.45436,-25.01737,-22.69009,-20.93881,-19.9053,-17.75123,-17.99698,-14.42023,-15.47763,-13.75471,-14.32308,-13.64289,-14.54494,-14.50651,-12.92795,-11.2973,-10.38624,-8.435639,-6.854282,-4.768082,-2.888003,-0.9950968,2.669574,3.081054,6.925876,7.152059,10.61388,10.93624,13.30152,13.60614,14.72463,15.77242,16.87573,16.01832,17.32799,15.20116,17.54033,15.45625,15.4893,14.87331,12.42449,13.14605,10.74301,9.860114,6.630341,5.763546,3.208929,5.162982,3.80347,4.184981,3.74303,4.174465,3.448305,3.9402,2.566561,3.108377,1.874547,2.269845,1.698748,1.426473,3.253141,1.246308,1.932508,0.7101319,1.318023,-1.424964,-0.4738182,-3.343767,-3.063257,-5.39865,-6.106725,-7.759621,-8.719967,-9.776388,-11.34909,-13.297,-13.12035,-15.72206,-15.19649,-17.08975,-17.53958,-18.74626,-18.16047,-20.02075,-18.86317,-21.83352,-19.66692,-22.31861,-20.22516,-21.39796,-20.4979,-19.26047,-19.55135,-17.28375,-17.64001,-15.02759,-15.79812,-11.62672,-13.88439,-7.971222,-10.84172,-5.918883,-4.895597,-2.599897,-0.1580316,0.9377838,4.127201,4.630529,8.458775,9.846245,10.61951,13.62618,14.09847,16.66703,16.91409,17.54135,18.9699,18.7792,20.37565,18.51892,20.24766,18.28353,20.33184,20.16293,22.92112,23.22311,23.6145,25.48867,26.39789,27.38262,27.99963,27.9628,30.05701,27.90668,31.32857,28.05561,29.94336,28.86041,28.4497,27.76825,26.94319,26.02946,25.03193,23.54764,22.74957,19.99092,19.17095,15.68154,16.08105,14.05515,13.16658,12.06764,10.27312,9.506592,7.832668,5.888273,4.041232,1.455881,1.311994,-0.4167251,1.173434,-2.639631,-0.2864454,-2.502383,0.1412097,-2.074831,-0.6068516,-0.9605888,-0.3596037,0.3230867,0.2954408,-3.320654,-2.895919,-4.856871,-5.74941,-8.708304,-9.356222,-13.03541,-13.2251,-17.5625,-17.3898,-19.87343,-21.04395,-24.17193,-25.00581,-29.5495,-30.65082,-34.87066,-36.37885,-39.56796,-42.88127,-45.94965,-48.05329,-52.07868,-54.47564,-58.39805,-60.55031,-64.96859,-63.68931,-67.02388,-68.06118,-70.38332,-73.40807,-73.29093,-76.19798,-76.84665,-79.31981,-78.81988,-81.62342,-80.47548,-82.41862,-81.65245,-81.18465,-82.81977,-80.12119,-81.61082,-79.90077,-79.8967,-77.4105,-77.19745,-75.949,-73.03831,-73.24539,-68.60079,-68.08124,-66.27784,-62.74365,-61.50718,-55.35976,-52.993,-46.57368,-43.97488,-36.79165,-33.55162,-26.83688,-22.70426,-17.82254,-10.89991,-7.787993,-1.531265,2.184279,7.474667,12.34047,16.66167,21.34508,25.02295,28.60883,33.12377,34.36939,39.92973,39.87292,44.51223,43.91396,47.56288,47.90275,48.31608,50.25275,51.30705,52.86149,52.82335,55.0738,52.12958,55.33643,51.29633,54.1448,50.181,52.51348,50.22823,53.74486,51.76652,53.59032,50.66141,53.96953,50.21511,54.40752,48.6644,52.20101,48.07247,49.54753,47.2743,46.85256,44.44892,44.79651,42.89508,42.31625,41.71634,40.31719,39.95577,38.76475,39.35957,38.79943,38.49013,37.4059,35.19107,36.66198,33.55502,34.55895,32.78711,32.8213,32.18056,32.35922,31.83262,31.27206,31.48724,31.19511,33.25612,32.51825,34.20911,35.9156,34.18097,35.62418,32.94566,33.46885,34.75005,34.4041,35.98178,36.29976,36.80769,38.19985,38.46683,40.12959,39.28304,41.35681,39.02019,42.18836,39.588,40.67472,38.72615,39.27669,36.61393,37.50739,33.97017,34.25622,30.22785,30.27415,26.87776,28.17108,25.56271,25.87478,24.08636,23.25898,22.39295,21.16794,20.05578,18.78518,17.83417,16.83549,14.895,12.95191,11.58479,8.001178,6.78216,4.18599,2.846974,0.8331793,0.7382538,-1.759042,-1.546656,-3.725269,-3.757911,-4.760767,-4.79867,-5.271898,-5.180334,-5.754898,-5.786341,-5.160579,-6.484816,-6.034643,-6.303765,-5.740504,-7.57184,-5.521201,-9.111318,-5.656293,-8.749447,-7.526805,-9.537381,-9.552041,-10.54481,-11.86869,-11.88929,-13.49302,-15.20679,-15.04696,-18.85805,-15.60385,-18.33357,-17.34323,-21.14361,-20.30362,-24.53463,-25.07786,-29.80297,-31.05829,-35.30654,-38.19483,-42.79562,-45.23133,-49.85951,-52.98316,-57.31666,-61.08076,-67.043,-68.65841,-75.19893,-76.19913,-82.88066,-84.31713,-90.31343,-90.2726,-96.80069,-97.65664,-101.7511,-103.6133,-106.0983,-108.7802,-110.5809,-113.4978,-114.5673,-115.3543,-115.977,-115.6561,-113.5461,-113.9544,-110.7837,-109.3082,-107.5545,-104.1266,-102.3464,-96.98786,-94.79066,-89.27863,-86.12143,-80.6426,-75.79092,-71.20968,-64.43195,-60.43208,-53.84718,-48.00636,-42.39625,-35.96521,-31.44438,-22.41729,-18.60101,-9.608893,-5.517921,0.9585631,8.629858,13.47343,21.38067,25.37689,31.06043,35.57992,40.35895,44.69624,47.18228,50.90175,52.64728,55.92129,59.52157,63.11209,63.13687,66.05813,65.13544,66.69598,65.76025,67.79716,69.54351,73.46872,74.47231,78.30639,78.36552,81.47368,83.31182,84.45357,87.03004,87.49661,87.82457,90.21737,89.64081,91.62924,90.07956,92.36071,90.81441,91.12668,91.38694,90.44654,90.07742,89.99701,89.9041,90.51102,88.68082,90.77276,89.04472,92.28439,88.43298,88.33229,84.35229,85.78454,81.22683,81.18475,77.01028,75.55138,72.42946,70.6302,66.63877,65.17929,59.4299,58.76197,53.08428,51.13751,46.1473,43.34423,40.45319,35.75698,32.74053,28.81232,24.14972,22.5093,15.98959,15.53393,9.144941,6.959751,2.64533,1.135565,-4.447466,-6.309077,-10.1848,-12.43595,-15.34426,-19.30686,-19.66504,-24.00113,-24.08991,-26.92903,-28.51075,-29.34381,-31.85633,-31.4133,-33.33578,-32.35,-35.10945,-33.71605,-34.89189,-34.40478,-34.17732,-35.60723,-35.26998,-35.23555,-33.211,-33.15061,-31.11215,-28.89193,-28.36963,-24.07986,-23.57569,-20.68313,-18.00671,-16.95187,-12.34733,-11.68132,-8.127368,-7.316168,-4.335069,-2.928093,-1.457577,-1.111025,-0.8191261,-1.955619,-1.004348,-4.98315,-5.853978,-8.966421,-10.24291,-11.01105,-11.06342,-11.2324,-11.32153,-12.8753,-13.75818,-14.49975,-16.49204,-17.64576,-18.75847,-19.59114,-20.9405,-23.46969,-23.56874,-25.07476,-26.12204,-26.81931,-28.45507,-29.32509,-30.26076,-30.9148,-30.36159,-33.19049,-31.97684,-33.07689,-32.73526,-31.38584,-33.8489,-30.51897,-33.44072,-29.05365,-31.55546,-27.95609,-30.05342,-25.30976,-28.18143,-23.01327,-25.37587,-21.72061,-22.51525,-21.17321,-20.23811,-16.1647,-16.68655,-10.99371,-10.86705,-5.621823,-4.471178,-2.348797,0.4320324,2.059084,7.645237,8.956997,13.37497,16.94555,20.75203,25.20317,27.36874,31.35711,34.25586,37.71526,39.03544,43.30048,43.22618,47.55919,47.44888,50.80728,50.52689,52.05921,51.916,53.05294,52.16908,53.06458,49.9039,50.8432,48.11178,47.14433,43.80361,42.68025,38.62845,36.87879,33.0753,30.88513,26.45406,25.91738,22.11367,20.70021,17.08094,15.19747,11.30447,11.25576,6.54153,7.211362,2.582184,3.687182,1.163081,1.489422,-0.5371827,-2.239154,-2.758329,-4.119253,-4.144284,-6.409567,-7.231018,-7.954058,-8.816299,-9.427593,-9.061829,-11.39335,-10.23057,-11.7088,-10.39544,-12.1017,-11.16734,-12.05006,-11.05492,-11.07174,-10.48872,-10.79137,-9.661226,-9.227796,-9.149277,-7.346532,-8.638223,-7.065984,-6.544897,-5.525194,-4.353577,-4.921477,-2.895092,-2.496934,-1.351457,-1.474631,0.4701673,-0.07801439,1.014326,1.434457,0.7980175,1.683333,0.305852,1.910417,-0.5472702,1.054019,-2.52948,-1.0336,-5.452905,-3.346654,-8.081004,-7.482579,-11.73346,-11.6483,-12.2741,-12.75653,-16.11239,-15.7144,-19.50213,-18.88453,-22.33012,-23.65569,-23.88143,-24.23533,-23.96608,-25.12231,-25.60155,-25.48756,-27.57068,-26.00034,-28.78818,-28.33266,-28.9723,-30.92133,-29.78052,-32.32068,-31.84068,-33.57159,-35.98644,-36.56586,-38.87001,-37.12236,-40.63971,-38.54953,-40.25534,-39.89518,-41.5496,-40.32983,-42.10026,-41.25289,-42.13824,-42.60595,-43.55662,-44.38681,-44.23366,-46.43946,-47.29234,-48.14417,-51.13531,-49.93178,-53.73153,-53.39252,-56.98229,-56.70627,-60.53667,-58.0576,-60.74444,-59.06242,-62.99604,-61.16864,-65.77022,-66.44176,-69.98625,-71.29999,-74.97022,-76.47208,-80.91264,-81.68094,-86.94925,-86.64218,-92.23531,-92.49844,-96.99802,-98.78401,-99.9335,-103.4904,-103.8003,-106.8955,-107.2926,-108.1636,-109.2285,-109.7544,-109.7273,-110.1331,-109.2241,-108.3381,-108.2971,-105.3497,-105.7446,-100.7058,-100.7885,-97.0545,-94.26084,-91.83349,-86.77384,-85.20582,-79.32463,-77.32682,-72.57814,-67.4869,-63.41247,-57.80865,-53.6005,-47.27261,-43.10829,-35.49562,-32.36693,-25.46506,-20.72702,-14.59812,-8.528634,-3.40397,2.077421,8.890676,14.30482,21.21259,25.41313,32.5359,36.40029,44.0873,47.39451,53.30941,57.67063,61.59092,66.61455,70.28683,74.63539,76.56769,80.57121,83.65017,85.65048,88.24558,89.76888,90.37456,92.73665,92.20361,94.34926,91.82477,93.03475,94.06902,95.5292,95.68148,94.4698,95.98011,93.88614,95.73632,93.34864,93.55377,91.96153,91.74453,90.13237,86.42439,85.16139,82.91872,83.2017,80.15142,81.89212,79.46123,80.49696,81.09174,79.76482,82.76107,82.03158,86.23739,86.27611,92.4082,91.1124,93.97336,93.0004,97.28126,95.82277,98.28038,98.72234,99.33007,100.6998,101.362,101.9018,102.5354,101.8198,102.5556,102.4947,101.6583,100.8766,100.0341,99.8287,98.04746,97.5339,94.74505,93.95544,91.63669,90.30853,88.02351,85.71806,82.89882,80.94643,78.48056,75.34994,72.82947,68.83527,67.64541,62.7964,60.9217,55.98624,53.36722,49.74077,45.42541,44.1056,37.9756,35.01796,32.24453,27.05295,25.51917,19.74156,18.0623,12.64682,10.83272,6.486936,3.174084,0.4327579,-3.551047,-3.740242,-9.10721,-9.452818,-12.90494,-14.81976,-16.40568,-18.24723,-19.5752,-21.84546,-22.26424,-24.56428,-24.30338,-26.31056,-25.88191,-27.39023,-26.30878,-27.24538,-26.80029,-27.00442,-26.39373,-24.84078,-25.39649,-22.86619,-23.92947,-21.67352,-19.89262,-19.20222,-18.04758,-16.0119,-15.35563,-12.40635,-12.79928,-10.05082,-10.83853,-8.100967,-8.243836,-7.146563,-7.33115,-6.632924,-8.788661,-7.911485,-9.641787,-7.25025,-8.0739,-6.119535,-7.880737,-4.544592,-7.901586,-4.68333,-8.087779,-4.328016,-5.494822,-4.169605,-4.499311,-4.783969,-3.022402,-4.228631,-4.287005,-5.586092,-5.746344,-5.443122,-4.316766,-3.478928,-2.958449,-1.733068,-0.7286734,0.3522359,-0.9851078,0.4689165,-0.6158864,3.126497,1.27686,4.831953,4.012186,5.820202,6.6849,6.70892,8.826801,6.854916,9.38879,7.310496,9.127176,7.47855,8.107524,5.914604,6.392591,4.765287,5.027479,2.506849,3.035688,0.931178,-0.09536992,-0.9007266,-2.457954,-4.199661,-5.168513,-6.063502,-8.45048,-9.763851,-9.761106,-13.88798,-11.21346,-16.06467,-15.17973,-17.9309,-17.61999,-19.40891,-20.36497,-21.37583,-22.58667,-22.40367,-24.59234,-23.16273,-25.783,-25.34326,-25.07375,-25.50334,-25.72766,-26.01689,-25.87043,-25.57557,-25.1049,-24.53347,-24.27338,-24.88427,-22.36047,-22.58372,-21.27997,-21.13186,-19.19141,-18.30956,-17.0147,-15.27423,-14.68209,-13.82386,-10.38626,-11.2413,-7.406794,-7.646099,-5.552561,-2.854512,-2.75935,0.7984858,-0.3325536,3.870161,2.567809,7.737135,5.089905,10.29952,7.508565,12.47229,11.88637,13.64634,14.25309,14.21782,15.86613,15.61284,16.71457,16.68061,15.22297,17.68308,14.32134,16.59968,13.16857,13.17807,10.67327,10.02515,7.416428,7.066646,5.747485,6.206525,4.590877,4.164865,3.133103,-0.07975644,0.7466622,-3.046998,-2.021762,-3.511309,-3.071734,-2.946504,-3.431325,-2.666445,-4.329797,-4.371665,-4.825926,-5.325604,-5.38863,-7.399375,-6.648318,-8.33044,-6.313368,-9.480344,-7.897675,-10.48913,-8.17672,-10.55323,-8.979524,-11.74762,-10.30693,-12.37594,-10.89603,-12.62156,-12.70146,-13.71033,-13.79283,-13.74608,-15.14529,-15.16286,-16.11539,-17.58946,-16.00225,-19.69448,-18.35522,-20.33786,-20.53921,-21.45117,-22.28985,-22.81806,-24.20788,-24.30263,-24.89806,-26.48721,-25.92322,-27.20939,-27.79279,-29.15871,-28.94467,-31.98926,-32.42561,-33.29983,-32.40089,-34.13445,-34.21321,-35.60074,-35.04624,-35.42754,-36.35323,-36.2466,-38.44257,-37.2626,-38.63852,-38.88561,-39.85358,-41.48797,-40.35492,-42.77636,-41.55951,-45.48721,-45.97798,-48.00679,-47.7662,-48.11303,-48.8636,-47.96332,-48.44111,-45.96949,-47.49385,-44.13111,-47.38565,-43.25629,-45.48157,-43.68504,-44.39768,-44.56878,-45.28388,-42.60489,-41.64825,-43.21482,-42.10873,-43.18499,-43.49301,-44.35936,-46.54295,-48.40533,-49.89874,-52.59095,-54.90205,-57.19081,-60.10701,-62.89205,-65.69568,-67.45635,-71.43564,-74.07854,-76.35326,-78.77691,-80.59323,-82.61838,-85.48923,-86.2998,-88.6922,-88.9733,-92.00016,-90.66172,-93.1611,-91.9964,-91.98053,-91.78168,-90.58388,-90.41476,-88.19655,-87.55736,-84.50312,-83.7314,-80.02927,-78.44122,-73.7683,-72.11448,-66.72288,-64.07836,-59.15654,-55.33251,-50.23737,-46.75792,-40.76355,-35.64355,-31.44379,-24.29443,-21.17586,-13.39371,-9.311489,-2.103115,3.191428,9.053918,14.34277,20.97847,26.16678,32.92787,37.48008,43.67977,48.96662,53.86546,60.53794,63.01269,68.21212,72.48403,77.30263,80.25633,85.98017,89.66319,93.71591,96.43122,99.99977,101.9544,104.2693,106.379,106.6208,106.6707,104.7142,106.2934,104.941,104.4569,104.151,102.6483,101.9175,101.8224,99.21073,99.31137,97.39854,99.28839,98.10594,100.0757,98.13714,99.782,98.56677,99.81995,98.17043,99.70102,97.06366,99.10367,97.04703,98.63747,97.9878,98.90362,99.04922,102.0095,98.89413,99.59368,98.17976,96.72834,96.06092,93.99879,93.40408,90.54919,89.36499,85.80723,85.7254,82.03823,79.57994,76.76127,73.19275,71.71108,67.14424,65.19393,59.80496,58.47593,53.24106,51.84447,46.20226,44.18042,39.31121,37.36042,32.10558,30.55914,24.5351,23.36857,19.34207,16.07757,13.30242,8.453518,7.255192,2.937648,1.630164,-2.224406,-4.210141,-6.825587,-9.105576,-10.76824,-12.44584,-15.79093,-16.21453,-17.94044,-18.63142,-20.37194,-21.15778,-22.39279,-22.98939,-21.90792,-24.65064,-21.72306,-25.13367,-21.7127,-24.01122,-21.50803,-22.35328,-20.10878,-20.5398,-17.98947,-18.07374,-16.86305,-15.03306,-14.42783,-11.7933,-11.44582,-10.02663,-7.586122,-7.369496,-5.369937,-4.595993,-3.930319,-3.721189,-2.204671,-2.787951,-2.786569,-3.134703,-4.410933,-5.421848,-5.95866,-5.500999,-5.261134,-5.274664,-4.823837,-4.031834,-4.324981,-4.075749,-3.195619,-4.676778,-1.680311,-4.568148,-2.331655,-4.155874,-2.104385,-3.825355,-1.112366,-4.210937,-0.9087192,-3.860854,0.1738571,-3.510351,0.06322523,-2.882637,0.3590176,-0.6254483,-0.411944,-0.3638597,-0.563039,-0.1465491,1.12036,0.2939027,0.7479717,-0.2782565,0.3235678,0.343046,1.457356,0.365399,2.984837,2.14755,4.692245,3.380735,6.1161,4.678929,6.940896,5.138065,5.444539,4.158508,5.620049,5.450706,6.315999,6.966941,6.774461,7.230718,8.018502,7.982538,9.295257,8.231762,9.906729,9.619089,9.741245,9.751881,8.637331,9.222518,7.800301,9.161344,6.559167,6.93715,5.490604,3.807806,4.792773,1.969405,1.492254,-0.05766339,-0.8591235,-2.185197,-3.602376,-5.622034,-5.471395,-8.020938,-7.958434,-10.34443,-10.26653,-13.18948,-12.92633,-14.64261,-14.58678,-17.3489,-16.28224,-19.59919,-17.33035,-20.42019,-19.01384,-21.66761,-20.53699,-21.62002,-21.88933,-22.9026,-22.67633,-24.50516,-22.6273,-24.21559,-23.06992,-24.51423,-23.0312,-23.42512,-23.81578,-22.0296,-23.73845,-21.96133,-21.38136,-21.16911,-20.87591,-19.65387,-19.59068,-17.2582,-18.07672,-15.97968,-15.31103,-14.91877,-12.12602,-13.26596,-10.42639,-10.62007,-8.988715,-8.234666,-6.074867,-7.558909,-3.348762,-6.588989,-1.363099,-5.480858,-0.3060387,-4.527632,-0.4364469,-4.160461,-1.583926,-2.942539,-3.039665,-3.293432,-3.708946,-3.937308,-5.0084,-5.611562,-5.75328,-4.726581,-5.460957,-5.652362,-6.109344,-7.030575,-7.210257,-8.668689,-8.813825,-12.04513,-12.29253,-15.20811,-14.78547,-16.34534,-15.87593,-18.14083,-17.08981,-17.64356,-18.15412,-19.01508,-17.52007,-19.23256,-17.43738,-19.46221,-17.90671,-19.90592,-19.5082,-19.54909,-20.88077,-21.01625,-22.76648,-21.69596,-24.20214,-23.64316,-26.14842,-25.70317,-26.56873,-27.39586,-28.34094,-30.15357,-30.47779,-31.79583,-32.45171,-34.26979,-33.98147,-37.19088,-35.94768,-38.95872,-38.00811,-41.12155,-40.35619,-42.73841,-42.04659,-44.87528,-43.37532,-47.55874,-44.97138,-48.55809,-47.77157,-48.1218,-46.94646,-46.66591,-47.34514,-47.46569,-48.93498,-49.24568,-50.64605,-51.17331,-53.30484,-55.06061,-57.19259,-57.72328,-61.11998,-60.39422,-65.03154,-64.59813,-66.13361,-68.1584,-68.16399,-70.39937,-71.1141,-71.13551,-73.03932,-71.87536,-73.27965,-73.93464,-72.55169,-73.87653,-71.76449,-72.51822,-70.91507,-70.63753,-67.70366,-67.58899,-64.78201,-64.43222,-60.57096,-60.01813,-55.24713,-56.26663,-50.04124,-50.85964,-43.23516,-43.33135,-37.81616,-34.40426,-32.10937,-24.81897,-25.78101,-17.31144,-17.0634,-10.03702,-7.756701,-1.950667,-0.620398,6.727005,6.997162,15.07891,14.74286,21.1788,22.36254,27.68232,30.15064,35.15122,37.42591,41.67602,45.41326,49.22465,52.8701,55.57597,59.35816,61.07896,65.07619,67.10761,70.01917,69.68516,71.32285,71.68732,73.33304,74.38691,74.5146,77.5896,77.77561,80.06225,80.47701,83.32497,84.86358,87.92286,88.93385,88.85928,90.82146,90.90128,91.20617,91.21982,90.72894,87.75268,85.87599,81.80396,81.29826,76.78364,78.08858,74.87269,77.26814,76.42417,77.26916,77.55183,78.78117,80.22553,82.19031,84.0893,83.6143,84.15819,82.88514,83.7148,82.99661,82.21743,81.30545,80.20606,79.59425,77.04376,76.4221,74.40187,73.0577,71.53988,68.93362,66.79953,64.76472,61.74958,60.8292,56.70661,55.07042,51.29147,49.99067,45.69852,44.32965,39.55273,38.0832,34.14044,32.82376,28.00295,26.70541,21.9922,20.91226,17.99891,14.0973,12.96249,8.49376,8.372687,4.69433,3.135416,0.5086353,-0.8857672,-2.674394,-3.707961,-5.313835,-7.202465,-9.519904,-8.066815,-11.68927,-9.494994,-12.80012,-11.43636,-12.99246,-12.65737,-13.68465,-12.81377,-13.64822,-11.86905,-13.50092,-10.08239,-13.05504,-8.427732,-11.37405,-5.31122,-10.13287,-4.197785,-8.631287,-1.974944,-5.487124,-0.7129609,-4.364946,0.06036351,-1.862807,-0.01662882,-1.82502,-2.245289,-1.229139,-0.05202763,2.856052,2.709703,5.448663,6.579493,8.29846,10.38466,11.61954,15.4853,16.18678,19.70216,19.35031,21.43285,22.38208,22.15956,21.14941,20.48232,18.83003,17.67395,16.39436,18.23316,19.37653,21.75964,23.25964,23.88346,26.35025,26.74412,26.89152,27.79896,26.06206,27.64878,26.3566,26.10542,24.5222,23.46781,22.81511,21.47375,19.87937,17.27013,15.99374,13.38862,12.51106,8.40164,7.967279,3.407468,2.378484,-0.7284677,-3.25844,-5.032723,-8.293466,-9.732425,-12.40287,-13.62875,-18.31387,-18.18335,-21.68522,-23.43542,-24.70252,-28.62593,-29.23886,-31.88456,-32.48974,-34.70053,-35.2419,-38.7446,-37.02209,-40.18901,-40.14695,-40.49446,-42.17092,-41.53295,-42.54251,-41.83229,-43.3289,-41.83264,-43.79904,-40.8086,-42.93718,-40.42826,-41.5875,-38.90302,-38.77379,-37.70061,-35.73866,-36.80152,-33.9293,-33.97205,-31.46442,-31.20289,-28.90701,-28.45667,-25.46903,-24.55892,-23.07516,-20.76247,-20.85591,-17.31363,-18.96206,-13.70705,-16.63994,-11.16895,-14.01435,-9.347524,-12.55771,-9.034565,-11.10659,-9.879373,-10.20812,-10.39155,-10.58452,-11.65708,-12.29843,-13.47243,-16.26483,-17.88571,-20.14764,-21.29866,-21.4455,-22.19988,-23.67205,-23.22204,-25.26314,-25.3855,-27.11051,-29.11771,-30.37855,-30.96119,-32.26132,-33.29172,-35.12039,-34.6717,-35.64608,-34.11725,-36.5872,-34.77929,-36.17746,-35.84299,-36.05126,-36.98116,-37.77254,-38.76314,-39.24049,-40.49062,-41.87878,-42.81033,-44.52178,-45.0406,-47.14807,-47.6525,-50.50584,-51.20598,-53.35187,-54.78545,-56.68757,-58.50823,-60.26449,-60.79781,-63.89689,-62.90098,-67.94061,-67.02392,-70.74866,-70.12635,-74.78776,-73.34421,-78.11818,-76.62439,-79.50368,-80.71906,-80.89464,-83.74326,-82.74842,-85.33839,-85.57141,-87.0318,-87.20913,-89.38787,-87.67321,-86.89515,-87.04682,-86.7209,-86.855,-86.60946,-88.1948,-87.06827,-89.94634,-88.41388,-89.79512,-89.91186,-91.37407,-91.78461,-92.36974,-92.5394,-92.98224,-93.98478,-93.35613,-94.57755,-92.28691,-94.27208,-90.76859,-93.08535,-88.58196,-90.51962,-85.59506,-88.03126,-83.15017,-83.52499,-77.52451,-79.00964,-73.5551,-73.16852,-68.17756,-66.03365,-61.57751,-59.91948,-54.15299,-52.78343,-46.37508,-45.02186,-39.29412,-37.41936,-32.73171,-28.51187,-25.51579,-19.55729,-16.48313,-9.991162,-4.846278,-1.335677,5.436652,8.235303,14.68158,17.33469,24.06557,24.93079,31.21545,33.38496,39.68709,42.60253,48.4236,53.14828,58.4517,62.69787,67.83967,71.32549,75.53329,79.77549,83.34819,85.97058,90.78162,91.15175,96.27547,97.68253,100.1072,103.8882,104.2366,107.9867,108.4784,110.9253,110.7465,113.193,111.8366,114.7161,113.6906,115.0982,113.7854,114.9227,113.9048,115.0064,112.3961,113.3995,111.9385,112.3733,110.4145,108.3438,105.2497,104.274,100.9379,102.4002,101.4213,101.9377,102.9845,104.8006,107.1683,109.2766,111.2524,115.5499,118.5432,122.6184,122.7352,125.5505,126.2939,129.7785,129.0823,132.3239,129.9499,134.1043,132.2651,134.022,132.5825,133.4039,132.4108,132.5366,131.078,130.5778,128.1911,127.0498,125.4151,123.3623,121.6901,117.2598,117.0833,111.5231,111.116,105.2246,104.2846,99.0479,97.0533,91.24574,90.17549,83.82732,81.11389,77.31586,72.70576,69.3051,63.74527,60.22193,55.61299,51.05342,47.65653,41.08715,38.7775,33.73598,30.91484,26.38553,23.05869,18.25141,16.33825,11.74444,10.25262,4.556596,4.269412,-1.608482,-0.3607762,-6.896469,-5.193296,-10.5785,-9.204376,-13.04872,-12.77858,-14.76073,-14.45509,-16.42048,-14.21386,-16.78536,-14.54667,-16.23055,-13.77601,-15.15431,-11.36869,-14.56373,-9.018934,-10.74956,-6.891,-5.579926,-4.154175,-3.102341,-0.3229611,0.7126763,2.560327,4.109071,4.014287,6.99841,6.680618,8.27691,9.407823,11.16477,11.59072,13.65762,12.79892,13.26714,11.39744,9.916066,7.76645,6.692516,7.392823,7.805563,9.340643,12.41005,12.48454,14.94423,15.56066,16.90907,19.27498,18.30299,20.55127,19.21027,21.09136,19.92523,21.28079,19.30077,20.43152,19.09009,19.16203,17.64703,17.2594,16.82443,15.05729,15.1733,13.41393,12.5688,11.19274,10.08192,9.569016,7.551251,7.145595,4.799523,3.939908,3.010944,1.680452,0.04644599,-0.4386664,-2.533075,-1.741328,-3.960151,-3.748734,-6.167798,-5.18106,-6.999067,-6.233865,-7.587384,-7.962394,-7.642849,-9.152278,-7.517681,-10.5629,-8.483825,-9.926251,-8.734649,-9.043317,-8.90193,-8.860873,-7.553795,-7.594611,-5.722132,-6.620011,-4.946372,-5.178778,-3.516178,-3.662369,-2.54895,-1.435165,-1.661597,1.744531,-0.04643978,3.442073,2.709181,5.0938,5.803617,7.392729,8.844507,9.436358,10.41115,12.26827,12.586,14.46177,15.32014,16.64181,17.07271,20.05757,18.9861,22.01223,20.13599,24.26828,21.66855,24.24151,21.24828,24.45494,21.46642,23.61268,21.13172,21.42443,21.21609,21.0447,21.85841,21.33234,20.74578,19.73467,20.45511,17.76727,18.93995,16.0705,17.52238,18.37019,18.75291,20.09837,19.43621,21.09494,21.3738,23.36418,21.86238,24.3018,21.70266,26.1365,22.00959,26.34875,22.52728,26.59225,23.68788,26.87234,25.29912,26.48417,25.65291,27.20469,25.21518,26.78203,24.79322,25.14403,26.41183,25.66006,26.65436,27.6061,26.62938,29.17795,28.55706,30.27124,28.70278,31.65797,30.76762,32.71677,31.5092,33.49625,32.16564,34.35166,32.57223,34.5555,29.96732,34.35624,29.82716,33.45313,30.94759,31.79799,29.85014,31.1604,29.56892,27.02568,26.35873,25.3927,23.99574,24.0228,24.27846,22.58289,24.36738,21.03954,23.65388,21.32175,22.4403,22.54349,23.06512,23.35634,24.70054,24.60533,23.68721,25.52361,24.53742,25.80245,25.45794,25.4542,26.43398,25.61273,26.0744,25.38273,25.755,25.0389,25.82569,24.37339,23.99655,21.77442,21.8113,20.39729,18.18707,18.95439,15.48608,15.63687,11.63974,11.70004,6.881889,6.249166,0.9252964,-0.8573233,-7.092352,-6.593263,-11.19008,-12.757,-15.96939,-21.74532,-23.4588,-31.47556,-33.41554,-42.02639,-43.82929,-54.28548,-55.85162,-65.79983,-69.49631,-76.22717,-81.82799,-86.777,-93.154,-98.29384,-105.2818,-109.7328,-117.6732,-120.7577,-128.3368,-130.7249,-136.4287,-138.1654,-145.0443,-145.3883,-152.255,-154.4462,-158.3443,-162.0302,-164.5821,-166.9171,-167.8049,-168.4105,-167.2925,-167.6608,-166.144,-165.0425,-163.3232,-160.0689,-157.1335,-153.9339,-149.823,-145.2185,-141.5064,-137.4148,-135.3463,-131.0309,-126.9569,-121.4258,-114.7219,-106.9882,-98.472,-87.36306,-79.4148,-65.72995,-58.01519,-44.84928,-37.29799,-24.3922,-17.93128,-6.345016,5.64013,15.67262,28.72757,38.27526,52.49327,58.6693,71.44128,78.99221,90.1553,97.98256,106.163,113.2721,118.2508,124.3769,128.8718,131.3077,133.9009,136.2667,136.5795,138.3917,135.8335,139.2425,136.2988,137.9096,131.8621,132.4312,123.893,121.7676,112.8657,108.434,98.34554,92.54926,81.92828,75.62709,62.94549,58.32278,43.13507,37.50513,24.51979,17.74708,5.468248,-1.206746,-12.65253,-17.73389,-26.16406,-29.86476,-40.08822,-43.94366,-53.98415,-57.13476,-65.62362,-70.40374,-75.75677,-80.85687,-82.28537,-88.34928,-87.95163,-91.79483,-89.95881,-91.19271,-90.09944,-92.56188,-90.75063,-89.30185,-85.2204,-82.99822,-76.84708,-71.17356,-64.99442,-56.03516,-49.72315,-41.32324,-33.3771,-25.63512,-17.113,-9.616223,-0.2503192,8.189293,17.4555,26.43235,36.57435,43.64703,52.4619,58.86516,66.47796,72.7629,77.79163,81.03263,85.79303,86.15242,87.92755,86.56619,84.67164,81.00607,79.82109,76.67434,75.89039,72.09746,70.11298,67.12435,62.50912,57.17462,52.1616,46.531,39.33666,34.55818,24.47196,20.46567,10.41576,8.135743,-1.461659,-3.180652,-12.17898,-17.73032,-23.98162,-31.85762,-38.23158,-45.35661,-53.59151,-59.54267,-67.503,-74.46548,-81.06762,-89.08239,-93.19538,-100.7709,-106.1573,-110.6014,-116.5127,-119.3916,-122.8451,-120.4112,-126.1127,-124.8767,-128.934,-127.477,-132.5423,-132.5779,-136.1694,-136.6244,-140.9001,-141.2382,-145.2428,-145.4878,-149.2156,-147.3163,-151.4585,-149.8411,-152.2061,-151.2458,-152.0611,-151.1292,-154.5195,-152.8054,-153.1278,-150.0319,-148.1255,-143.6025,-140.7653,-134.427,-132.6655,-124.4698,-122.8243,-114.4083,-110.8543,-105.1781,-99.9163,-94.87761,-90.7174,-85.72791,-82.02113,-76.95621,-69.69351,-66.32928,-57.65158,-55.34079,-46.55589,-44.10539,-37.73511,-32.13899,-27.93421,-21.66464,-17.83422,-14.50965,-7.005692,-5.808502,3.183662,3.916827,10.41644,13.95404,19.25414,21.89302,26.81967,29.27761,34.62102,37.19244,41.37966,42.75597,48.37191,47.56181,53.53338,52.34397,55.86688,56.03232,57.82427,58.29612,59.15837,59.0933,58.90331,59.31531,58.60311,57.96301,58.26153,56.55811,55.55018,52.88872,55.08297,51.10313,54.08165,51.3559,54.59684,54.20592,52.92794,53.35407,53.26588,53.16283,52.33853,53.22251,51.11293,51.64179,52.1595,49.92943,52.15861,48.01994,51.89938,46.57833,51.03737,47.05077,50.58293,50.96476,56.24911,58.28559,60.57304,63.82243,65.54587,68.19616,71.51881,72.89286,78.2416,80.10961,85.27959,87.18934,91.3684,90.78883,93.34828,92.1483,92.26481,89.91561,86.55866,82.39197,77.59818,70.74788,65.95355,61.1519,58.18765,53.74476,50.12002,45.10212,41.28951,35.82926,32.7198,28.0296,24.08508,20.56806,17.17129,14.3465,12.35431,9.118152,7.583606,5.482606,4.223067,3.792384,1.856619,1.22336,1.544438,-0.7603865,0.499557,-2.2344,-0.9540591,-3.572339,-3.286349,-4.767476,-7.026759,-8.038417,-10.57077,-11.84511,-13.38256,-14.851,-15.93413,-16.70918,-17.63547,-19.90807,-24.19789,-28.15007,-34.57198,-40.74133,-49.27975,-58.62073,-67.57048,-79.98239,-89.82705,-104.2559,-116.7577,-129.3546,-142.6632,-153.2518,-167.2364,-177.2694,-191.5492,-201.8196,-214.6678,-226.095,-237.2538,-249.1788,-259.7023,-268.3798,-275.2375,-286.1727,-290.1609,-300.1262,-302.3106,-311.2905,-313.0648,-320.7845,-322.595,-328.4724,-327.8745,-331.3766,-330.6866,-331.8597,-327.705,-328.6912,-322.6011,-323.2809,-316.3284,-314.4,-303.9338,-302.9355,-289.463,-285.9629,-271.4736,-263.7563,-250.258,-238.8508,-224.3031,-210.5666,-196.0097,-181.3667,-162.1935,-147.4001,-127.2996,-112.9689,-94.30984,-81.16906,-65.10553,-52.6175,-37.78599,-28.2042,-16.42105,-8.828405,0.6315932,8.251447,16.38816,20.88412,27.31344,30.83215,35.37345,37.04137,40.23993,39.63423,41.70321,40.7065,40.248,38.74994,37.57764,35.21163,34.00777,30.60251,28.48412,24.87958,23.28838,20.19364,16.85316,14.31148,11.49965,8.621634,7.069507,4.612695,3.270229,1.379639,2.011264,1.809154,3.005724,5.530203,7.787547,12.35086,16.92947,22.73073,26.45837,32.31113,35.39813,40.04287,41.49455,46.22872,46.87616,51.96715,53.10795,56.49241,58.22753,59.85224,63.01035,64.77125,68.48811,72.71261,74.60009,79.78907,81.38243,86.03549,87.06383,90.20542,92.57149,95.07752,97.62876,98.81226,100.1892,102.0663,102.6219,104.1517,103.1834,103.4336,103.0679,102.3116,101.3342,99.67582,98.65549,98.07919,99.29751,96.48145,97.76386,94.13913,95.64607,91.65417,91.81739,88.54825,86.03753,85.19965,81.52648,79.91542,76.90243,73.07412,70.97535,68.75726,67.17962,64.62897,63.35601,60.98201,62.15818,62.6743,64.92775,63.64502,66.65414,64.78481,67.39651,65.62746,66.30116,66.54891,66.92433,66.72419,67.62368,65.70304,68.33075,67.12468,69.19239,67.82713,69.70233,69.88807,68.9459,70.47412,69.24928,68.66369,69.2068,68.6955,68.98054,69.25642,68.91801,69.2137,69.60768,69.88382,70.16876,69.31111,70.80004,69.70958,70.69303,70.17241,71.28047,69.65271,71.41925,70.69611,71.30144,70.36476,71.18946,70.70126,71.38752,70.8955,71.0984,70.3862,72.32765,70.32319,71.96671,70.79241,70.85259,71.87544,70.88252,73.50019,70.64366,70.63488,70.81876,68.665,68.55367,68.72807,73.42395,68.10263,74.92666,68.73783,76.03413,70.15008,76.46889,72.62659,72.54795,76.49512,75.64245,76.31124,76.53073,75.02706,78.98684,74.64202,81.98182,74.33781,82.90297,74.06416,82.10896,75.4314,81.14351,76.45766,79.65732,75.79032,76.02547,73.8622,75.00077,71.75793,72.62575,71.41436,71.55047,71.27208,69.65011,70.62064,68.93439,69.9378,69.18784,70.12894,70.53861,73.53156,72.64862,75.32877,74.95194,77.15947,78.13702,79.59564,81.7727,81.56968,84.42295,84.61031,87.24613,87.41108,89.3817,89.53969,90.74279,92.06733,92.25948,93.61245,93.5375,94.60816,95.07006,95.55541,94.90484,92.70532,89.78082,89.42897,86.30324,87.68471,85.02902,88.42934,86.65655,89.46463,89.09196,90.82497,91.26005,93.10346,93.33995,93.73946,95.16975,93.76505,95.80556,93.90273,95.44329,92.4642,93.79878,91.67227,91.0013,87.68696,89.94043,80.49075,80.60533,81.51091,71.8496,80.07078,60.57078,79.06753,58.28171,62.32715,62.20905,53.92672,50.52279,54.09745,45.04688,42.15174,44.73991,38.5153,36.57669,30.34827,36.69098,27.93578,25.51873,28.7979,19.92794,25.42871,17.83751,23.5327,11.17154,35.86603,1.451121,25.29327,3.780952,17.52844,5.653911,9.966116,5.889804,2.627754,-0.9369124,-12.88561,0.4501132,-26.73043,-17.22146,-25.91661,-29.71354,-35.27458,-45.2301,-34.77362,-62.16919,-41.65231,-73.18413,-54.49796,-73.65118,-70.69768,-79.00305,-82.56601,-87.23922,-89.34251,-93.68373,-95.46991,-100.4778,-99.41167,-104.2369,-100.9816,-105.5468,-102.6214,-106.3502,-100.5908,-104.2174,-100.5432,-103.3542,-97.90729,-97.15706,-92.14074,-89.89438,-85.71685,-83.03997,-78.08449,-76.08865,-73.70259,-72.99562,-69.63062,-67.98733,-66.47986,-64.47382,-62.92044,-59.67183,-55.17973,-51.6689,-45.92711,-44.18901,-37.17774,-36.87836,-30.4109,-29.0338,-25.03319,-24.22111,-20.02302,-19.35278,-16.38258,-16.22238,-14.17429,-13.82956,-12.75258,-12.7218,-12.56741,-14.56691,-13.78487,-17.20068,-17.36667,-20.47438,-25.43321,-22.43549,-23.92083,-32.06994,-25.93343,-42.166,-25.56241,-52.32734,-35.59393,-47.87454,-52.60168,-51.98804,