ConstAcc,0.5,0.20431,79.48975,71.8417,63.98515,55.97069,47.84615,39.65668,31.44482,23.25052,15.11124,7.061958,-0.864729,-8.638578,-16.23163,-23.61817,-30.77464,-37.67962,-44.31375,-50.65967,-56.70198,-62.42718,-67.82359,-72.88134,-77.59227,-81.94991,-85.94937,-89.58737,-92.86208,-95.77316,-98.32164,-100.5099,-102.3415,-103.8215,-104.9558,-105.7515,-106.217,-106.3613,-106.1946,-105.728,-104.9733,-103.9432,-102.6509,-101.1106,-99.33685,-97.34479,-95.15011,-92.7689,-90.21766,-87.51318,-84.67256,-81.71307,-78.65217,-75.50741,-72.29638,-69.03666,-65.74578,-62.44112,-57.20568,-54.79405,-53.45054,-51.25912,-47.13,-40.24897,-33.7818,-28.3616,-25.04371,-22.73755,-20.64696,-18.92953,-17.91273,-17.78055,-18.32697,-19.27842,-20.48528,-22.01418,-23.75483,-25.82025,-27.95321,-30.34542,-33.12437,-36.17115,-39.12874,-41.69078,-43.68317,-44.96481,-45.68136,-46.14717,-46.27716,-45.99478,-45.48432,-44.87022,-44.22579,-43.48748,-42.43173,-40.95404,-38.98016,-36.84294,-34.82661,-32.65816,-30.16298,-27.26523,-24.15358,-20.95699,-17.50727,-13.61238,-9.235235,-4.424124,0.7065625,6.22265,12.07211,18.12462,24.28507,30.20502,35.55821,41.0164,46.26516,50.55068,53.98559,56.73942,59.12321,61.45018,63.79443,66.00387,68.09438,70.13381,72.50085,74.73074,76.42379,77.8502,79.26873,80.68303,81.67476,82.0752,82.15925,82.49965,83.39932,84.8314,86.63275,88.8781,91.41291,93.69626,95.7346,97.55179,99.54512,100.8573,101.7605,101.7891,100.7661,98.96185,97.71942,97.02425,96.55959,95.9748,95.5038,94.18604,92.3257,90.08031,87.33972,84.09685,80.49379,78.77125,78.88485,80.78689,84.36077,87.94797,91.51571,94.80091,97.53556,99.69467,101.5223,103.361,104.87,105.8187,106.294,106.5634,106.6391,106.3343,105.6481,104.6206,103.3742,102.059,100.8431,99.72706,98.84812,98.58768,98.70035,98.65019,98.24642,97.37158,96.48416,95.64904,94.69126,93.2888,91.4868,89.76933,87.92087,85.57962,82.85918,79.76166,76.67298,73.6296,70.64493,67.25713,63.57597,59.83518,56.18861,52.39801,48.18321,43.76353,39.49965,35.66688,31.97846,28.27866,24.71329,21.42427,18.45901,15.67766,12.58048,9.385689,6.18878,3.346523,0.8101554,-1.936357,-5.040166,-7.824654,-10.71192,-13.55767,-16.10943,-18.3494,-19.86598,-20.34677,-20.05319,-19.42328,-18.53951,-17.17831,-14.95884,-12.58873,-10.43844,-8.125893,-5.418994,-2.422196,0.8949064,4.192505,7.176793,10.2696,13.58273,16.98173,19.93964,22.37375,24.39562,26.60921,29.43695,32.58892,35.82018,39.17844,42.84933,46.42569,49.53158,51.9695,53.89924,55.67615,57.4649,58.71827,59.47405,59.70855,59.47514,59.24554,59.27182,59.93063,61.58101,64.25425,67.13505,69.68781,71.60276,73.17926,74.66785,76.0992,76.88741,77.13487,77.27325,77.48369,77.44758,77.0857,76.07269,74.86903,73.75223,72.55675,71.17558,69.2778,67.30837,66.03409,65.42622,64.92808,64.15779,63.22744,62.29192,61.14844,59.61441,57.68544,55.49874,53.44458,51.45968,49.32926,46.79482,44.12719,41.25621,38.52285,36.23092,34.18334,32.2709,31.04495,29.86686,27.98391,25.20289,21.93255,18.7388,15.78036,12.47276,8.998145,5.942747,3.745521,1.946159,-0.1939986,-2.942632,-6.210755,-9.580265,-13.03837,-16.94709,-20.74305,-24.50044,-27.47156,-29.91906,-32.44956,-35.5343,-38.80829,-41.99392,-45.08894,-48.18618,-50.99501,-52.82,-53.04899,-54.54794,-55.14342,-54.4787,-49.53108,-43.05855,-36.33295,-30.98314,-27.1642,-24.24308,-24.26932,-23.93725,-22.80233,-20.34649,-13.69407,-5.689365,1.844227,8.343715,14.02705,18.94077,21.51527,23.44273,25.98955,29.24771,36.12856,44.0562,51.41816,56.9958,60.30973,61.61948,61.97702,61.75108,60.56574,55.57437,49.63406,45.00052,42.58234,44.49446,46.92045,48.03741,48.13077,47.65826,46.58449,44.20724,40.47975,35.6097,29.28102,20.83092,10.65252,-0.7789083,-12.75645,-24.64779,-36.66134,-49.51223,-62.53994,-74.92038,-86.73675,-98.93485,-112.0662,-125.929,-139.7189,-152.9331,-165.6637,-178.3916,-190.7827,-204.554,-217.8331,-228.9947,-234.741,-239.7234,-245.3838,-255.1307,-265.307,-273.9041,-279.5167,-281.3667,-279.1965,-271.23,-261.7939,-252.8127,-244.1731,-236.003,-228.1112,-220.1998,-211.6445,-201.878,-190.7374,-177.8807,-163.6219,-148.5208,-133.149,-121.4677,-110.5349,-99.66006,-88.46335,-73.24776,-57.25848,-42.07546,-28.57545,-17.16604,-7.049835,1.860491,9.813317,16.53402,22.35886,27.95006,30.21749,32.81454,36.35387,40.62012,48.33048,55.66467,64.26272,71.63737,76.92556,76.98557,74.49864,70.35073,65.72947,60.19099,52.40052,48.68269,47.9357,51.76546,55.26535,53.6533,48.81741,42.64613,35.17924,26.1667,17.04422,11.31403,8.318761,5.91841,3.557304,-5.132892,-14.71504,-21.66003,-26.03032,-30.58008,-35.46106,-40.47238,-45.50064,-51.09325,-53.37714,-53.18257,-50.51865,-45.91997,-46.89199,-48.3064,-47.27064,-40.70626,-33.09315,-27.32223,-24.38983,-23.4519,-26.64324,-29.23917,-29.38159,-26.9108,-18.49081,-8.548495,0.7177172,8.256045,14.15855,18.43349,21.25015,19.8767,19.17655,19.89756,22.31401,29.43688,36.90135,42.09624,44.23037,44.20779,45.79712,48.201,49.84395,45.78956,37.39579,28.70574,26.81479,29.79983,38.71288,48.51752,57.2371,64.02573,66.58954,67.11724,67.33692,67.83042,68.13157,68.10054,67.00305,65.49859,64.30706,63.72421,62.34036,59.15492,54.01643,48.20499,42.18569,37.87604,35.5882,34.9791,35.24907,34.34979,31.19631,25.47927,18.32414,11.46759,5.604818,-0.08677926,-6.011502,-12.00492,-20.68996,-25.56053,-27.75469,-28.78229,-25.6134,-25.78789,-28.46761,-32.84207,-38.53491,-44.00851,-47.91832,-50.31753,-51.86903,-53.5329,-57.72372,-58.06925,-54.64045,-46.05906,-40.75254,-38.49997,-37.5818,-36.43988,-35.29878,-34.1662,-32.32325,-29.48446,-25.64439,-22.06123,-18.72011,-15.91744,-12.33933,-6.460202,-0.8951766,6.377199,12.30677,16.61424,20.22905,23.11183,25.27874,26.9708,29.21467,31.8682,34.10999,35.78578,38.49304,42.6455,47.72527,50.75145,51.08464,49.76987,48.05381,50.94355,55.8494,60.57433,64.7125,61.6861,55.99388,50.86203,46.81083,47.47085,48.70017,49.48717,53.09503,55.75735,57.13815,58.293,55.75672,48.13608,40.99846,36.33874,34.06581,37.1141,40.35476,41.27786,40.13936,41.16067,45.60172,51.62174,57.7185,59.38941,56.67124,54.67774,56.14137,59.02286,65.80701,71.19182,74.12688,75.73468,76.39576,76.58123,76.42463,76.8724,77.11749,76.21541,73.84112,70.90206,67.48564,68.68132,70.70959,72.27623,73.44449,70.40552,65.66101,60.10894,54.29585,48.83505,44.20371,40.03351,35.56347,30.158,24.13587,21.42602,21.12573,20.9325,20.63168,16.15505,11.03188,6.418529,2.257385,-1.673388,-5.014649,-7.333172,-8.526143,-9.681848,-11.10725,-8.123254,-2.718935,3.613179,6.054185,6.173813,6.30283,7.859833,10.43828,13.33182,16.11877,19.01538,21.89235,24.68572,27.44434,29.72475,32.02231,39.10932,47.99408,56.70478,59.57283,60.52884,61.94044,63.97465,66.42217,68.56308,70.42569,72.31912,74.14969,75.55369,80.65779,86.71601,93.03693,94.60789,93.81255,92.14465,90.48545,89.2902,88.43134,87.36608,85.35508,82.35209,82.08113,84.67877,87.23556,88.44442,83.06624,76.44988,70.07093,64.1702,58.51262,52.65169,47.37604,42.23463,41.66042,41.28083,40.21749,39.24729,33.78751,27.4067,21.35778,16.03587,11.98148,4.115016,-2.463748,-7.578913,-11.3677,-10.02706,-5.265988,3.157342,9.759089,9.104821,6.510438,5.352137,0.7088514,-2.874321,-4.361583,-3.243753,-1.071353,2.685366,7.077211,9.423095,10.10635,10.34176,10.47959,10.25448,9.106689,8.246579,2.560603,-1.827061,-4.666445,-1.915505,0.2775982,0.1999609,-1.940387,-5.580395,-9.632774,-13.74117,-17.19377,-20.57482,-29.20972,-37.94018,-43.99267,-48.32462,-51.30944,-50.37157,-51.20479,-53.8418,-57.01315,-60.47505,-64.23562,-72.47667,-79.62896,-83.85535,-85.96248,-83.47846,-83.10954,-85.05161,-87.92861,-90.99066,-94.05922,-98.71825,-105.216,-108.8005,-109.6755,-109.9851,-110.6622,-107.01,-104.262,-103.1962,-104.0981,-106.0387,-109.5119,-113.3957,-114.8164,-114.3761,-109.1405,-104.1946,-101.0368,-99.69835,-100.1251,-101.1258,-103.4254,-106.2694,-107.0675,-106.3035,-100.6559,-96.86053,-94.93469,-93.64293,-93.76036,-94.37173,-95.32335,-98.58353,-100.186,-100.5904,-96.55722,-93.17435,-92.22017,-93.0983,-94.94113,-97.29706,-98.61543,-103.9233,-106.9622,-108.3686,-104.1155,-101.3761,-101.3292,-103.2393,-106.4068,-110.7647,-114.6229,-120.7049,-120.8883,-119.0115,-111.9824,-107.1731,-104.6083,-103.9276,-107.9525,-113.1292,-119.0076,-125.0842,-128.3095,-124.5064,-114.5901,-107.1585,-103.0465,-100.6921,-100.7155,-103.147,-105.1811,-105.0938,-103.7898,-107.8758,-111.5562,-112.971,-108.6551,-99.34187,-91.98655,-88.27252,-91.55135,-94.5814,-95.18399,-99.91553,-103.4096,-104.9054,-105.0691,-100.338,-97.81335,-93.21355,-89.23094,-85.44835,-81.38539,-78.0092,-80.81812,-84.11462,-85.56713,-90.99042,-94.65682,-96.83755,-93.46759,-83.85997,-75.92601,-71.35021,-75.76488,-81.09547,-84.10485,-85.07726,-85.37752,-86.60252,-91.90093,-92.25625,-89.06571,-82.31408,-75.90311,-72.05549,-74.38651,-76.94449,-78.89513,-79.96587,-80.84588,-78.86278,-73.16011,-67.76696,-64.14152,-71.50439,-77.65348,-79.72197,-79.23813,-73.08497,-69.79574,-67.56835,-63.09814,-58.08651,-53.60234,-56.00175,-57.83324,-57.97367,-57.31363,-61.69871,-65.17867,-65.02794,-58.49523,-47.28061,-39.30562,-40.50798,-43.6524,-44.802,-43.91091,-42.87626,-42.61997,-42.75122,-41.77041,-38.31711,-33.76753,-30.06966,-28.89167,-28.83213,-28.43115,-29.07879,-29.80508,-30.3785,-30.79419,-29.36131,-25.74586,-27.6308,-29.98873,-25.92865,-21.88555,-21.11705,-22.58888,-21.4293,-16.20316,-10.8954,-6.89792,-10.35569,-14.21255,-15.83946,-15.5381,-15.20648,-21.28316,-26.09482,-28.81398,-28.68943,-20.80617,-15.01189,-12.40308,-15.98425,-19.84522,-23.63328,-26.39258,-28.43651,-29.93471,-32.32478,-29.78369,-32.24864,-33.6531,-32.22328,-34.48028,-32.8551,-32.76079,-33.46027,-34.84399,-35.31978,-36.3018,-37.87878,-44.50286,-48.92084,-44.21346,-33.93067,-26.25071,-21.67007,-23.30399,-25.00491,-25.39198,-24.34638,-22.60764,-20.83489,-18.87385,-23.32609,-26.67941,-21.41932,-13.02827,-0.9254406,4.44424,4.193926,3.562157,4.79741,7.789521,10.71578,11.76881,7.433876,5.399289,7.013009,14.03268,17.40119,23.59154,29.10193,34.10469,38.51476,35.99753,33.25116,33.29311,34.98066,30.48684,26.61923,25.34735,25.09677,29.86525,31.17482,34.86058,37.1799,39.33141,41.76512,38.86438,34.73633,31.33144,29.42104,28.20013,21.11098,14.80858,10.66166,7.966039,16.71012,22.81667,24.57159,17.42137,10.95163,7.064213,4.083845,1.708473,-2.355471,-11.10942,-12.20931,-8.506652,-5.924006,1.116779,6.079115,3.059493,-0.3814066,-2.367176,-2.727536,-2.801048,-1.661542,-1.656688,-3.132701,-10.10011,-13.90566,-14.17634,-12.29438,-8.519823,-2.115226,2.641071,7.392657,9.612774,7.766822,6.075611,6.40923,7.573454,3.293676,0.4165192,-0.7841639,4.562354,6.955714,5.537039,2.538976,5.061951,8.747802,12.75945,16.19883,7.837256,1.71264,0.1824902,2.371166,8.687271,10.51818,7.949613,11.03389,15.87946,20.74126,18.58728,14.81349,13.0505,13.20555,13.84525,12.69025,5.176492,-0.4547664,-2.043149,-3.480083,6.536824,12.20934,14.35663,15.65955,12.85613,9.600901,7.547334,7.312384,7.635863,7.210757,5.139887,3.737563,9.891206,16.93763,21.41826,17.74546,8.524411,3.655192,3.539882,6.210151,11.42304,12.59492,10.53164,7.945658,5.800143,10.15874,13.61282,15.49879,17.66166,14.44018,11.09862,7.870681,1.475576,-1.364513,-0.774729,3.00951,2.819901,0.4130187,-1.473095,-2.536596,2.383247,6.539301,9.410437,13.40254,6.48062,2.14447,1.8794,4.69024,13.37999,18.69884,20.3947,19.2896,19.81588,28.15416,37.57167,44.57388,50.40576,49.5065,45.62912,48.00135,52.73898,63.0008,68.50628,71.79733,73.96538,76.25427,78.49835,87.57933,97.52644,106.7148,106.9761,105.1641,106.6136,111.902,122.9371,129.925,132.6281,134.561,137.0981,140.2605,149.4598,157.1707,162.6325,156.9416,154.2406,155.9438,157.645,158.3272,159.1175,165.4618,168.4942,174.5885,179.947,185.4994,191.0288,190.1696,188.9749,189.2625,186.338,185.0111,185.3506,185.4583,190.3834,191.8323,189.8317,186.5932,182.7262,185.2458,188.4695,189.845,190.7168,183.6635,172.0086,165.8512,164.7527,168.4624,167.7082,163.0424,157.5565,153.8781,150.6957,146.9701,141.5274,132.5776,122.885,115.6576,114.758,117.2025,116.581,115.2388,111.7396,102.9609,94.22852,87.96579,84.09999,73.45317,64.90571,58.58567,53.25719,53.8502,50.1644,42.56099,34.7217,34.35088,35.22304,33.35582,25.08852,17.12027,11.34892,2.905695,-2.89516,-7.612923,-6.411274,-8.611506,-13.39686,-11.39705,-9.287684,-9.092838,-8.988874,-13.90507,-17.16599,-18.95233,-20.24181,-22.76478,-28.59165,-31.32725,-32.39682,-27.77917,-26.8271,-22.12833,-17.32972,-13.97888,-18.87768,-20.72862,-19.07631,-16.56208,-16.19357,-21.90236,-24.74888,-24.23112,-21.67221,-10.63558,-5.095046,-2.23386,1.049214,-0.5500478,-1.84164,-2.000659,-2.212067,-2.030234,-2.42055,-10.96695,-17.45083,-20.80797,-17.79081,-9.214242,-6.627133,-7.507041,-6.910302,-4.165583,-6.034035,-7.785277,-9.276481,-10.09526,-15.9776,-18.97786,-19.98065,-16.30723,-15.9214,-11.97463,-7.397517,-4.809679,-3.093799,-7.324114,-9.434552,-8.984412,-9.026908,-10.75145,-17.7185,-20.67858,-20.81906,-17.36194,-16.96569,-12.85462,-9.413887,-5.461898,-8.724762,-11.9162,-12.87571,-11.85,-11.2943,-12.16309,-20.20724,-24.03884,-21.554,-14.10224,-4.793752,-8.157677,-13.36252,-14.38879,-13.49547,-13.47932,-15.72822,-18.45833,-19.7123,-21.1122,-16.13007,-13.70658,-12.70339,-10.20122,-20.3493,-24.49052,-24.6599,-24.11854,-17.7255,-15.67093,-17.14485,-19.61585,-21.00654,-20.51956,-13.17225,-7.992382,-5.54975,-16.05148,-19.71116,-17.49981,-12.817,-9.079626,-9.410741,-10.01744,-10.17815,-10.27931,-11.75299,-13.81715,-12.92138,-6.364843,-8.246054,-9.158786,-14.15384,-15.74676,-7.633804,-4.89403,-6.648342,-8.796481,-9.230473,-9.360707,-10.63525,-12.65265,-8.655857,-6.022304,-7.87543,-9.176513,-13.15931,-9.029417,-7.358123,-7.620767,-8.872064,-10.865,-12.83875,-13.76135,-14.78238,-17.421,-13.98642,-12.38225,-15.97437,-15.67588,-19.11047,-14.48494,-14.01301,-15.73117,-15.94079,-16.64752,-19.19831,-21.5976,-23.45728,-17.67346,-13.33858,-12.39085,-24.38632,-29.96293,-29.24048,-22.495,-21.89791,-25.32506,-28.45454,-29.18138,-29.79612,-31.56687,-34.45823,-35.14964,-34.76067,-31.62938,-34.26847,-31.96558,-30.12882,-28.7601,-28.72676,-29.75129,-30.64437,-31.16818,-31.31902,-31.78843,-34.03064,-29.17006,-25.56891,-28.37681,-28.77074,-31.50791,-32.69388,-25.67153,-22.43475,-22.59325,-23.69452,-24.41113,-24.82912,-24.9835,-25.56991,-27.41079,-29.7904,-37.36661,-41.38309,-34.21717,-24.42866,-21.00557,-20.09294,-24.72222,-25.73587,-24.8345,-25.30968,-25.88502,-25.73164,-26.33708,-29.17231,-38.71108,-35.99064,-30.07436,-25.56461,-21.62449,-24.99527,-27.67059,-27.82378,-26.74104,-27.3754,-29.55596,-31.53658,-36.1533,-43.03085,-38.68964,-34.79654,-26.49721,-22.30186,-27.17957,-30.03059,-30.97885,-30.60004,-30.66213,-31.53683,-33.31588,-36.33358,-40.4779,-45.96856,-42.01996,-38.70056,-31.0108,-35.97069,-39.85242,-39.78292,-39.16185,-40.353,-42.43019,-43.55748,-44.19535,-45.69302,-48.90123,-57.26768,-53.16863,-39.40192,-32.70049,-39.98897,-44.59943,-44.11166,-43.01195,-44.24224,-46.97747,-50.17055,-52.68732,-54.96787,-57.88941,-61.94498,-65.18719,-64.61179,-62.15533,-62.4674,-64.66028,-67.21847,-68.24419,-68.85313,-70.22114,-74.05659,-77.25875,-73.02723,-66.47759,-63.69693,-67.61596,-73.19319,-72.54047,-62.06939,-57.90047,-56.76276,-56.62818,-54.46529,-50.991,-47.43186,-44.90635,-44.14906,-48.79692,-39.87171,-30.02897,-17.72121,-10.57361,-11.84212,-8.880271,-3.199815,2.03377,5.370212,9.049827,13.2028,17.45849,13.66579,14.43245,25.79989,36.66841,49.91977,50.40517,51.18659,55.34811,61.76829,66.32687,68.76225,71.06807,73.20126,69.78843,68.32428,69.67381,79.01044,91.88639,97.14204,99.38973,96.09785,95.93727,98.7001,102.0981,102.6751,101.0451,98.8163,96.92585,92.71455,96.99936,100.2644,101.9878,102.5683,101.9423,100.6092,99.05553,97.63311,95.01437,91.21348,80.81757,74.40475,70.59917,69.64854,74.50762,83.51599,86.68759,78.9801,76.34469,79.0369,81.42341,81.66502,81.3834,81.91662,83.3401,77.29501,76.15546,78.39922,88.46641,102.5322,100.5418,96.37515,95.5176,97.36264,99.17029,99.50044,98.23745,95.82832,91.0416,85.84754,84.11723,85.81798,84.68966,88.01266,89.82078,89.82872,83.35355,77.5986,74.28376,71.91059,68.20348,56.35046,49.71312,45.93817,42.2632,43.03275,38.52096,38.62266,38.381,38.02197,29.978,24.40478,19.83579,16.01596,12.07524,1.887976,-5.814052,-11.7462,-16.90688,-7.151018,-5.503037,-8.039557,-18.20899,-23.58692,-24.94615,-25.87034,-28.75523,-33.85345,-38.6927,-48.41461,-52.95306,-56.12282,-44.79909,-42.48865,-43.85064,-43.09021,-48.56441,-50.24741,-51.29384,-51.373,-51.88255,-60.20876,-63.35807,-64.22241,-64.72908,-52.08914,-45.97905,-44.77513,-42.79639,-45.45237,-43.33121,-40.68781,-40.02779,-39.96621,-39.03874,-44.88633,-46.81649,-46.4313,-40.19762,-40.54464,-34.99857,-31.52182,-30.64266,-29.58739,-34.68236,-36.87594,-44.84978,-49.01972,-52.59843,-49.32547,-50.67674,-46.06006,-44.54459,-43.54798,-41.27995,-37.63257,-41.37606,-44.05897,-45.08952,-50.6902,-51.52275,-50.44403,-46.12649,-47.2417,-49.339,-50.75096,-42.45634,-37.86982,-36.21427,-32.91804,-35.91638,-43.48777,-43.12872,-40.49483,-39.79641,-33.93484,-33.10539,-35.4316,-36.09562,-31.9537,-24.05362,-18.54912,-20.85157,-23.85013,-26.08346,-26.88308,-25.32475,-22.60184,-19.55044,-20.01591,-20.09345,-19.88272,-12.38705,-8.613054,-6.502246,-2.729095,-12.75665,-14.72755,-12.77074,-11.75822,-5.139043,-4.552817,-6.360463,-8.319804,-8.740498,-8.993465,-1.790952,2.141806,3.124306,2.05754,-6.036413,-6.077845,1.012682,2.712788,1.135609,1.218935,1.045119,-0.608638,-2.536063,-5.549747,-4.728462,-0.546777,4.547457,3.25966,2.139652,3.199722,4.401459,5.314874,3.43283,1.943148,1.598189,0.5183324,7.404997,9.904483,10.0972,12.69474,2.3717,-0.059456,1.246201,2.107083,8.264646,8.774836,6.845174,5.909316,5.896868,6.263724,13.91999,18.86041,20.07965,11.81326,6.67388,8.396991,10.04111,16.46304,15.40749,12.94915,12.41354,21.39645,25.1583,27.01046,22.25525,22.29987,16.27807,16.24415,17.56998,17.37258,23.70274,23.27495,20.2901,19.36594,27.02018,31.77047,33.26501,28.19623,26.63224,27.56679,28.5768,20.2344,16.92396,15.2031,14.03368,18.15103,25.05134,24.70135,23.57305,26.26829,22.96177,21.66319,21.55475,20.29866,12.61837,10.78397,9.818254,14.52398,12.4839,12.71683,16.88131,19.13058,17.40772,12.55318,12.72882,12.93575,11.45991,8.053174,4.469844,-3.797747,-6.644079,0.6261348,8.781901,9.621209,9.95291,5.810697,5.844528,6.206596,4.954169,3.231294,-3.221788,-5.841101,-7.045867,-2.56139,-1.130307,2.729067,5.042097,-0.7963721,-4.213499,-3.954217,-3.600466,-4.923692,-14.12558,-16.92924,-15.24086,-7.68916,2.697836,3.364962,-1.710285,-1.541946,1.693137,2.561858,0.9178608,-0.6674854,-0.9053934,-0.6258937,-1.497795,-11.11799,-15.31834,-16.12345,-16.59743,-3.360168,-0.2448079,-1.245593,0.3617458,-2.336273,-1.555228,-1.289047,-1.709281,-2.020441,-9.076516,-11.55064,-12.85994,-14.88773,-7.702,-1.894178,0.07359922,1.377089,-5.758939,-7.037431,-5.602995,-5.136827,-7.625142,-11.00649,-14.35262,-22.23986,-24.93694,-18.30879,-10.01968,-11.3023,-11.17494,-16.48141,-17.31493,-18.15038,-19.75527,-20.72638,-22.05789,-24.28312,-28.32035,-38.61717,-41.60246,-43.45816,-33.49254,-31.39695,-32.90816,-32.19453,-37.25318,-39.82715,-40.76869,-43.058,-45.71447,-46.76398,-56.54466,-60.15332,-61.91476,-48.71153,-45.55151,-47.35105,-55.24588,-57.04393,-55.81462,-55.92117,-58.66128,-60.76005,-61.63557,-63.28907,-65.30345,-68.50518,-72.46857,-76.91474,-78.53704,-77.13519,-76.42301,-76.49004,-80.38161,-82.11272,-83.29224,-84.88703,-88.41482,-91.11361,-92.30003,-86.02476,-83.55746,-84.0749,-97.76319,-98.32361,-95.0575,-87.81699,-88.72011,-90.16655,-89.65308,-88.31873,-87.31829,-78.46588,-74.36563,-75.6899,-71.10025,-71.07148,-69.2793,-58.69692,-54.63241,-52.77672,-48.68955,-44.80182,-42.10636,-38.42601,-35.2249,-32.75574,-22.54318,-15.1117,-14.3676,-8.508321,-7.807854,1.662258,7.719273,11.75244,16.38691,19.85195,23.53567,26.38189,29.26853,40.51215,40.66152,45.79693,52.97057,52.00517,63.34201,68.80171,70.08137,72.41621,76.68266,80.00386,82.19897,82.30093,82.26788,83.11617,86.49317,90.38496,94.04485,95.87049,96.17686,97.78007,100.0058,99.9082,99.31424,99.56337,98.57872,88.56885,84.67619,82.66317,88.53962,91.39096,96.19641,96.67046,94.73224,95.56608,97.9095,99.83396,100.0438,99.33188,100.6226,102.7229,102.5943,110.4846,106.5177,108.9019,107.1075,109.206,116.8654,117.1329,117.7909,119.6678,121.3577,123.0338,121.6636,119.9756,118.4446,117.013,113.4201,102.4281,99.41225,106.0035,107.6411,111.6781,100.8664,96.95652,96.61531,94.65552,89.92645,84.18387,78.93574,74.07727,68.75221,55.3075,48.37944,50.45413,49.07813,52.93458,41.81102,34.5331,30.5368,27.98632,23.49036,16.70485,9.476987,3.002905,-3.258541,-2.952681,-0.7680968,-0.6604604,-12.22103,-15.44107,-15.75204,-19.3544,-23.49376,-27.03327,-30.23937,-32.42397,-43.33297,-47.14926,-50.13965,-45.30694,-35.33577,-34.40481,-41.93439,-44.01061,-41.10837,-39.44861,-39.81336,-41.41473,-42.34422,-46.93382,-50.00818,-40.6464,-36.9048,-27.30269,-22.90896,-26.30759,-23.50742,-20.10562,-18.17694,-17.49947,-15.55953,-14.95603,-15.21627,-15.53062,-21.41818,-14.44135,-9.036827,-7.275952,-7.546699,-7.610374,-6.634285,-7.731328,-10.98378,-14.47101,-17.96783,-21.44051,-15.11013,-15.16726,-16.75557,-15.40981,-12.26545,-12.82711,-17.33416,-26.0902,-25.35528,-23.39648,-24.87978,-21.04903,-23.20172,-25.2238,-25.00768,-26.32082,-28.69051,-22.63923,-19.02788,-21.04201,-22.70195,-26.2849,-26.0977,-17.98316,-18.01647,-19.9637,-20.83117,-21.46149,-21.92449,-22.38636,-23.97837,-25.82775,-26.90078,-24.40722,-21.12329,-17.33766,-16.83222,-17.24008,-16.24928,-14.57672,-14.37159,-15.66556,-16.8824,-17.59988,-18.32616,-19.80192,-13.92653,-20.04089,-18.21933,-13.71716,-18.3741,-12.39252,-12.23281,-12.28637,-12.15939,-12.63896,-13.9052,-15.36063,-16.0859,-7.834772,-5.295686,-17.57957,-20.50989,-18.38781,-17.73125,-11.64216,-13.43912,-17.30251,-18.18156,-17.31332,-19.21267,-12.64753,-12.16066,-11.75449,-15.71332,-19.87072,-19.80415,-13.85628,-13.42656,-15.77416,-16.10232,-16.2433,-18.5431,-20.055,-15.1739,-10.18517,-8.167639,-14.49759,-20.16429,-17.46295,-13.56843,-9.768994,-11.89508,-13.18932,-12.17468,-11.23463,-12.49037,-14.29083,-16.09182,-8.383231,-4.025375,-11.0908,-8.753388,-13.1285,-11.54843,-1.912831,-2.393652,-3.886878,-4.071058,-3.183671,-2.267691,-3.657746,-5.529688,-6.198574,-6.310702,-14.9722,-16.4492,-17.83455,-3.487616,-2.628415,-2.885406,-0.1038854,-5.453146,-5.39844,-3.588781,-3.869467,-4.541336,-13.96261,-14.64334,-14.46918,-10.23138,0.2692369,-0.1325253,1.291667,-3.586394,-1.869482,0.03580729,-1.464189,-3.202665,-3.608898,-11.85925,-12.15596,-13.29452,1.392277,3.521399,4.743317,6.956932,2.856541,3.637789,5.640541,5.790444,-1.93759,-2.930853,-3.219042,-4.136539,2.572083,0.7111344,-2.385229,5.435496,8.660322,11.2809,14.20026,8.412147,7.768133,8.621223,2.045591,3.051259,11.092,10.6911,7.98194,6.795482,5.918614,12.78596,12.00953,12.89682,15.83911,9.153212,8.245183,6.563491,-1.764021,-3.477201,-6.835767,-12.00688,-16.22729,-10.67799,-4.127752,-3.888903,-2.391531,-7.017867,-5.688583,-1.696207,-0.2708243,-0.6876855,-0.01343239,-6.507329,-4.761424,-2.171605,3.524087,13.94132,17.18593,22.33565,27.59175,26.27047,29.02542,32.14261,36.7745,38.8483,32.17037,32.95151,35.90789,45.81515,44.23166,52.72699,56.74644,60.32241,67.14723,63.22949,64.11992,64.2917,58.02633,59.09115,59.75168,65.03619,62.36493,58.75435,57.85605,66.76645,66.76688,65.8706,57.47011,57.18803,56.84042,52.89701,40.96778,38.33496,36.30273,35.44286,33.32878,36.31085,34.83881,33.95021,33.41401,24.80886,21.3386,18.10954,14.25345,10.19835,-3.868464,-8.817979,-12.73734,-18.2323,-5.752411,-8.94857,-12.96994,-22.48391,-23.85368,-25.23929,-30.4524,-35.54052,-39.67723,-43.69341,-47.77362,-51.22085,-51.84608,-51.33542,-49.57569,-48.14751,-48.94734,-49.86231,-49.65467,-49.01953,-47.10688,-47.31409,-47.60314,-45.37336,-41.35249,-28.59212,-25.53622,-32.28851,-35.22994,-36.84737,-34.82045,-36.20831,-30.28193,-33.19513,-35.74529,-37.51924,-39.87918,-45.09196,-49.47862,-45.05391,-47.55912,-48.73159,-56.11202,-53.6528,-59.56444,-59.4047,-52.21265,-55.15246,-57.29365,-56.69973,-56.28336,-57.69248,-59.94112,-61.58162,-51.78923,-48.81669,-54.76865,-58.04595,-57.15386,-54.51668,-44.95411,-45.33778,-45.78909,-43.99359,-41.13198,-39.55896,-39.3921,-30.07496,-25.91827,-21.6941,-33.24212,-28.57268,-24.26679,-24.19191,-14.01964,-14.49195,-13.80548,-12.39291,-10.02145,-0.1815961,5.178204,9.061211,4.330644,5.973009,9.839755,12.28178,11.84061,3.383831,4.288434,5.421056,5.407339,12.04281,9.225661,16.63192,19.86545,23.57161,24.16636,20.81615,21.03841,18.15371,15.17184,15.75868,13.88252,19.33825,16.47296,14.79263,13.21917,20.90269,21.7812,22.35618,26.07552,19.49498,19.03217,18.73159,13.16635,8.433093,7.928537,6.040912,11.33764,7.338182,4.30632,3.366059,11.46898,12.05073,12.6814,17.36462,11.5388,3.087089,5.642334,7.415841,9.709997,16.68342,17.10683,17.04392,18.43904,19.48939,18.06971,17.72962,16.59624,18.1448,24.30919,26.52848,19.83806,12.58553,14.13098,16.06615,22.32926,19.41495,16.08291,15.0226,13.97087,12.9261,9.576839,15.13761,14.6468,14.9715,16.92808,9.336076,-0.04876763,0.6519749,-0.569466,-2.497719,0.6310636,-3.726321,-7.295176,-9.327545,-10.81375,-4.68156,-5.90816,-6.288453,-2.678605,-17.20535,-16.57828,-17.13848,-18.93087,-11.73281,-14.33516,-16.92558,-18.55602,-19.88326,-20.91514,-12.13244,-11.71424,-12.86051,-10.51731,-21.79103,-18.08612,-16.83407,-9.30108,-12.55129,-12.35742,-12.02555,-11.9024,-13.40286,-14.61365,-14.77148,-15.96952,-17.47209,-10.35252,-17.4501,-13.89337,-8.915036,-8.323767,-7.945152,-8.4267,-6.625711,-5.271042,-5.989393,-7.255665,-7.682706,-2.725797,3.063224,5.61958,-0.5319729,-5.222417,-0.6260483,1.342226,8.167818,6.467238,5.18695,7.759317,8.582385,8.9178,6.699443,5.103255,10.02726,16.25767,17.22796,9.965297,4.084632,6.849361,8.00635,13.35799,9.997511,7.227039,7.477261,7.292018,5.840293,12.91628,13.32887,14.34078,17.76025,4.040836,4.580765,5.603962,4.986806,12.45176,11.09484,8.882655,7.559342,7.905122,7.653726,5.191588,12.38851,13.13515,15.82228,13.04239,6.766102,7.261378,7.417691,15.41896,13.37623,11.67099,11.0294,9.72634,9.412776,8.712675,6.74592,4.067674,10.54907,5.705475,6.416433,8.645051,2.84105,10.69534,10.23327,10.20253,9.619702,8.567811,7.79315,7.205462,6.33214,14.98977,15.30938,17.03204,13.14225,9.744113,11.96428,20.72158,18.21865,16.69766,18.78461,19.31726,17.71669,16.58523,18.03813,26.07429,28.44564,30.58031,21.6311,17.2676,21.0204,22.10539,27.34161,26.01137,25.62857,26.23353,26.62853,25.23684,24.04755,32.13449,34.57669,36.39041,22.7664,24.06357,27.75175,34.61934,31.6594,28.82279,27.58077,26.05983,16.64035,19.30535,17.81378,25.26782,35.55458,36.11494,40.21998,37.04259,39.46872,41.99448,43.38328,44.60473,43.9413,43.45229,34.99468,36.82587,37.41175,41.36145,47.19132,47.80965,51.15676,53.9653,48.65662,47.90119,48.43051,42.78408,38.22976,36.87924,33.05235,37.8921,33.44747,29.48599,36.80547,35.65011,35.6797,38.1248,29.8857,27.88082,25.24953,20.8142,10.98184,9.507093,5.81245,9.637966,1.475057,-3.970708,0.8774543,0.7251519,-2.031526,-3.148437,-11.64344,-12.69668,-15.86347,-21.01547,-33.10459,-35.11238,-37.2738,-38.42649,-41.22606,-47.01727,-43.90432,-41.41373,-42.09147,-41.52936,-50.07299,-49.50677,-49.52466,-51.8243,-62.44524,-62.59179,-62.4429,-63.98997,-58.6265,-60.27055,-60.5945,-50.02993,-47.06951,-43.3037,-50.81665,-49.24898,-45.54213,-44.92656,-45.70769,-46.79798,-47.95841,-53.70487,-52.29798,-51.98798,-45.76401,-48.9057,-40.40929,-36.51927,-32.98982,-38.14318,-37.07725,-35.11326,-34.21441,-34.31446,-36.18463,-39.20717,-45.77969,-45.16506,-45.9858,-33.12034,-35.13409,-35.68884,-41.47238,-40.08083,-41.30559,-42.78311,-42.71008,-31.31376,-30.6435,-29.97237,-27.88731,-39.55154,-34.05772,-31.48289,-26.67901,-26.52758,-26.14363,-24.10889,-22.29964,-21.97849,-22.94519,-11.99794,-8.530224,-5.939312,-18.89109,-14.1837,-10.82139,-11.14934,-1.61884,-4.255211,-5.002318,-2.937602,4.823549,9.565368,11.34782,15.73387,10.55807,15.06434,17.56231,8.860252,10.30754,10.46882,10.59834,18.85471,16.00639,14.2284,16.48451,26.28272,28.44459,29.92213,22.19364,25.14124,26.75511,25.93902,14.32834,14.77253,14.09003,10.91276,15.97901,10.94685,7.420543,15.21495,15.72108,15.9725,11.92997,7.093856,3.17953,0.02055054,-1.103356,-2.066665,-0.1064459,-4.110738,-5.238729,-5.687032,-8.1816,-0.8425868,-0.4408785,2.392023,6.827423,-7.393454,-5.532005,-5.241608,-5.777333,2.044242,-1.588809,-2.78524,-1.977779,-1.22066,-0.7534545,-3.110898,-4.547488,-4.166701,3.312917,5.043866,5.751485,-11.47093,-6.182822,-4.443893,-6.429979,-0.548787,-4.287281,-5.659741,-4.625485,-4.997678,-6.718175,-9.379212,-8.795754,-1.251179,-0.978994,-9.878104,-13.1517,-10.9391,-11.19484,-2.783425,-7.00649,-8.332871,-7.804185,-7.141641,-8.84862,-11.1849,-14.35961,-15.80296,-15.38818,-12.21873,-7.667745,-9.150131,-11.58694,-8.829888,-7.553552,-8.330756,-10.81094,-11.84335,-11.50443,-12.52565,-15.32118,-16.03218,-13.50785,-11.81681,-7.645587,-7.293794,-7.391106,-5.884899,-4.627641,-3.983255,-3.025435,-4.054163,-4.905105,-4.789946,-4.152651,-6.399558,1.573015,1.083073,-2.531259,4.457878,-0.3936448,9.671129,8.185088,9.079136,11.80712,11.91645,11.51211,11.24096,10.93206,11.66734,9.174584,9.392868,11.52106,14.4125,18.2186,20.73157,19.99676,20.22194,21.52259,22.46997,22.4336,21.30964,19.70126,21.34584,23.76805,26.39183,26.71267,30.26375,29.88459,31.3249,31.34622,30.12382,29.0796,28.21136,27.0865,24.26156,32.64942,23.69587,28.00867,33.37499,29.47519,34.27133,33.85677,33.41114,34.60879,33.35024,31.88056,29.91388,28.98272,27.51721,25.22486,12.52835,22.52746,21.41494,21.59519,32.16767,22.02934,21.6495,23.58126,22.9945,21.77161,18.01365,16.56218,5.986294,3.700779,1.74705,17.14157,12.06474,11.08955,16.73923,9.003231,9.804278,8.786003,6.258428,5.054899,3.167888,-8.084796,-8.163342,-7.929624,-1.622385,6.534892,1.709336,-2.594381,0.03342954,1.11263,0.04139579,-2.869328,-3.93609,-4.731265,-10.86124,-15.66149,-16.85953,-9.77183,-2.557049,-2.759096,0.1097823,-4.220593,-3.47267,-3.265876,-2.705556,-2.674662,-4.504047,-6.5775,-7.98006,-18.01419,-17.67928,-18.79193,-22.14773,-15.02647,-9.496684,-8.285251,-6.860621,-14.88045,-12.51418,-11.11035,-12.1159,-14.82612,-16.79043,-19.04684,-28.06892,-28.91323,-30.93009,-24.3717,-17.82523,-18.43405,-14.74666,-21.39062,-19.56585,-19.94876,-19.88999,-20.37112,-22.88236,-26.32049,-34.99156,-30.33441,-25.51834,-19.43961,-20.03123,-27.48518,-23.21058,-21.92596,-23.80504,-25.5632,-27.34906,-29.15521,-36.75025,-36.49678,-39.81754,-22.87262,-25.96312,-24.45588,-23.55138,-26.74658,-26.48106,-24.77259,-25.59145,-26.29929,-28.18658,-36.95555,-35.29523,-36.83362,-33.98168,-23.52458,-24.77939,-20.33392,-14.24608,-20.97143,-18.83537,-17.61236,-18.26496,-19.91688,-21.25375,-22.08148,-26.03418,-24.47319,-21.24911,-19.67358,-28.2299,-18.08353,-18.40407,-19.63871,-18.70985,-20.68547,-22.42894,-23.52009,-24.91249,-26.79742,-19.93012,-20.63344,-26.27945,-18.97478,-26.53293,-16.59219,-19.14988,-18.1727,-17.11724,-16.8141,-16.59535,-17.85256,-17.92231,-12.95783,-7.667214,-7.016221,-12.0649,-14.64669,-10.00098,-6.973609,-3.871841,-5.040183,-3.655452,-0.8436356,-1.632459,-1.885254,-2.037043,-2.817011,8.895747,10.52316,3.452791,11.1675,6.325256,18.71693,17.18601,18.4219,19.64356,21.84454,23.27824,24.1741,23.90439,23.84329,15.19784,28.52304,31.04007,40.70036,42.53778,37.71907,43.82923,46.07999,45.83336,45.58259,47.00134,47.06035,46.19319,44.68306,36.02065,46.79066,48.3436,50.22445,51.95866,51.21633,51.66669,52.97261,50.90888,49.01415,46.64197,36.5869,40.21612,46.82258,49.27719,54.45484,45.29246,50.5563,53.29277,50.65341,49.7329,49.51233,49.98002,49.73151,47.39254,38.05187,50.43218,50.89172,62.42447,56.80049,55.70641,58.65638,59.37444,58.50698,57.75615,55.69946,45.50871,46.67246,46.25055,49.19931,44.62819,41.53644,47.64212,50.19765,48.83684,50.56912,42.47032,43.4207,42.56861,37.96305,25.99289,26.3253,24.33109,21.37908,24.23561,18.57096,16.02672,23.07076,22.27099,22.72224,13.08586,13.86121,12.13678,9.727586,-2.795594,-3.614691,-7.764293,-11.32715,-6.136052,-12.9769,-17.82584,-9.910849,-11.45599,-10.95651,-12.88489,-18.84369,-20.15392,-20.05618,-32.93946,-31.44599,-34.70021,-38.9338,-31.74817,-36.84409,-39.49214,-30.22087,-31.38452,-29.23963,-35.78923,-33.24078,-35.30629,-36.92275,-44.89259,-42.61959,-43.52508,-39.52691,-43.70768,-33.218,-31.0411,-28.27698,-34.50293,-32.28268,-29.16798,-29.43239,-38.71932,-35.56045,-36.47491,-37.64198,-29.66684,-33.84514,-34.83655,-26.07351,-24.61992,-23.23012,-20.3311,-27.89163,-27.01303,-27.19463,-37.59049,-36.05583,-38.92515,-41.67672,-23.07194,-26.96537,-23.16224,-23.86114,-25.67415,-22.88538,-21.69846,-22.91494,-23.2108,-25.80182,-27.74331,-33.32765,-32.67345,-34.95957,-18.74133,-23.04308,-18.23334,-23.31461,-20.47425,-21.17118,-20.82859,-21.7614,-22.21622,-24.68003,-27.65852,-26.01686,-21.51967,-17.06924,-17.2743,-18.75645,-15.94809,-12.33562,-13.22708,-12.3139,-13.12367,-12.94687,-12.4916,-21.99637,-18.96977,-10.70463,-11.11131,1.487672,2.445884,-1.630058,2.858932,3.291701,6.258743,6.032395,5.888136,5.270846,4.695946,5.824717,-5.197198,8.166271,6.414797,8.023816,21.55232,12.79595,15.19755,17.75741,17.3375,17.68702,17.72599,16.50338,13.99099,10.53321,4.614508,16.90186,14.47438,24.87109,23.76833,18.47744,22.74142,22.87365,20.82574,18.95628,19.16024,17.87575,14.88897,11.97383,2.22348,13.48695,11.78477,16.414,10.94163,11.72185,12.84798,11.93101,10.40983,8.055223,6.514006,4.739712,3.008151,11.1805,-0.7469163,4.474258,8.037797,0.999933,10.03089,6.837727,6.655439,7.177604,7.457721,6.339053,4.674416,3.048802,2.004657,1.711783,5.435451,6.577475,18.63929,8.194548,13.93109,15.13803,13.80688,13.62943,14.47717,14.42578,12.77227,10.70347,1.44945,6.778672,12.61112,15.39379,20.39995,12.09114,17.25674,17.52399,16.67997,14.51619,13.74756,12.60789,12.09053,0.6486289,2.473053,0.7414862,9.834369,18.11379,14.17182,10.18033,13.1742,15.02153,13.87437,12.71034,10.76941,9.389139,8.396505,6.53411,5.787561,7.175292,8.149517,10.64464,12.22809,11.71924,11.15604,10.29058,11.25101,10.15918,9.387403,6.575077,3.840098,-4.298754,-7.446774,1.928784,-2.791298,7.274268,6.150376,-0.7943822,2.479502,1.466275,-2.023253,-3.105256,-3.265124,-6.44465,-9.384305,-21.43592,-16.60814,-12.21414,-9.913692,-6.232733,-17.35682,-13.18369,-13.05741,-15.04239,-18.20441,-20.23695,-21.75906,-23.80546,-26.58578,-30.08081,-42.92271,-31.68096,-34.02853,-30.7924,-31.12735,-36.1864,-35.0643,-35.11712,-37.15858,-39.44939,-41.74946,-42.83969,-45.29214,-57.67958,-56.92686,-50.27613,-53.43292,-43.28861,-44.55222,-51.16712,-49.73577,-47.89887,-47.4657,-47.21342,-48.80617,-50.68463,-51.79793,-53.78351,-44.3412,-47.68675,-46.53019,-55.04931,-52.43489,-54.34862,-67.40908,-66.14525,-69.04462,-72.96371,-65.73399,-73.10869,-76.46557,-66.89297,-67.90141,-66.20071,-68.74208,-72.10581,-71.21967,-71.17966,-71.16228,-83.58182,-80.43342,-81.97997,-83.52547,-74.79196,-68.18324,-67.54355,-61.49951,-54.6725,-57.93966,-52.62973,-51.11911,-47.24151,-51.82268,-45.67504,-43.77751,-42.35889,-29.98097,-31.06762,-26.65391,-10.60506,-8.733462,-1.270571,9.056236,6.893189,14.7201,18.65514,13.90712,22.31662,26.17173,35.85371,35.4583,39.28416,51.81359,58.4586,64.79588,72.02493,67.22678,72.96865,73.83104,77.20127,78.35143,90.25224,89.54078,92.15369,94.59675,94.17255,106.0094,107.7,113.4232,112.0963,112.2851,114.0561,105.7918,108.0687,105.0369,102.0878,100.9359,100.6717,109.0462,103.5304,102.3208,113.0365,113.0973,116.7632,117.916,112.5712,116.0664,116.5032,106.197,109.794,106.9342,103.1388,112.4082,107.3936,118.47,116.2361,119.4948,123.7562,118.5702,121.6326,122.2157,122.4843,122.6495,112.4449,114.9647,111.2713,106.7585,114.8259,107.9446,106.2341,102.9752,98.29943,93.8152,89.75944,83.14409,87.71213,81.2144,79.43315,70.42606,62.15818,58.76529,52.51571,56.23931,46.14471,42.16971,36.81347,29.53114,23.3122,16.35561,9.251745,12.80673,4.014443,-5.971938,-2.537106,-16.18725,-10.28095,-19.60132,-24.60254,-27.55111,-33.06155,-37.70608,-41.55115,-47.3707,-41.60942,-45.34045,-56.24187,-50.6453,-60.84532,-49.92559,-55.0285,-57.77466,-59.06215,-59.6147,-60.34007,-61.62991,-64.63501,-66.17257,-64.74574,-61.41744,-58.92795,-56.75778,-56.95324,-55.19718,-52.7925,-51.44023,-52.24287,-52.8117,-51.56972,-46.18406,-40.64002,-39.26178,-44.98404,-47.51051,-43.32477,-42.6589,-36.90537,-41.10046,-40.01956,-40.04125,-42.88551,-44.37012,-50.39837,-54.25548,-46.51064,-49.86614,-48.84369,-56.21281,-50.94186,-48.27183,-55.60986,-46.36443,-50.79169,-50.22045,-49.39356,-49.63241,-51.52327,-52.86056,-55.05635,-56.28207,-46.72767,-48.58237,-47.92463,-50.09101,-55.26867,-51.88909,-51.49555,-47.20373,-50.63843,-48.85566,-48.88404,-49.95086,-51.53928,-51.5242,-53.78869,-43.07545,-45.15058,-52.40992,-42.73522,-51.64746,-44.6228,-39.39437,-43.18996,-42.11948,-40.57852,-40.1509,-40.03406,-41.27111,-43.35535,-42.71608,-31.74786,-44.5363,-36.68832,-33.11909,-41.33625,-25.82031,-30.7746,-30.03519,-28.89459,-26.91949,-25.94883,-27.39333,-27.33256,-27.96595,-17.91548,-27.53199,-19.51149,-27.89311,-24.53535,-14.12816,-17.52259,-16.54581,-16.75811,-16.54167,-16.41011,-15.50921,-18.01548,-6.645055,-8.554783,-10.20994,-17.0649,-12.43204,-14.38891,-5.143189,-9.688174,-8.500257,-8.061053,-7.849096,-10.5948,1.372397,1.333295,4.245896,-3.391459,-0.500175,0.1273602,-0.508631,-1.732644,-12.90385,-9.843301,-11.6296,-14.62316,-7.529235,-14.15541,-3.783123,-4.810222,-1.228044,1.703639,-4.98454,-1.55398,-10.23757,-7.372428,-7.56853,-10.11079,-0.3088053,-6.974952,-4.9412,-4.688631,-5.227107,3.734096,3.639015,7.686757,10.32594,5.591273,-0.6583414,5.276139,4.980261,8.854547,11.55074,9.216069,10.86111,12.31858,12.51262,10.20389,9.582917,19.08987,18.81236,22.17059,12.98766,11.93363,15.07398,14.20192,23.05492,17.54384,17.72327,17.38457,17.80529,16.32212,13.99964,22.91735,20.40708,24.12738,15.54931,14.31521,14.17668,13.81198,22.31372,16.60152,15.89001,14.98747,14.18431,12.16233,11.20058,19.29879,15.66696,18.01356,22.14115,3.516005,11.52389,6.926672,5.304295,13.06949,7.211748,6.486381,3.714655,2.83015,0.1339406,9.173333,5.940921,6.884883,9.8179,1.548407,-4.641564,-1.9194,-4.346822,-7.570454,1.775444,-4.571597,-3.065345,-5.318162,-6.530095,0.7277448,4.613837,4.839448,9.000667,-1.123304,0.5761168,3.77255,2.747787,11.15971,7.327893,9.253819,11.88314,12.12356,10.13798,10.67867,11.8369,9.94769,8.793128,17.50893,15.69647,10.15349,18.97867,9.47501,22.05756,16.34974,17.48803,19.42576,17.42639,15.74608,14.04686,23.74491,24.08633,26.29434,28.95574,10.6853,22.82768,20.67616,27.66829,22.81001,24.15051,24.79766,25.49994,23.62046,22.1219,32.54704,31.01292,34.94825,23.87053,26.92252,27.40907,36.40515,31.95477,33.48438,33.12497,33.0711,32.4842,31.64486,30.70014,39.17027,37.42988,31.65319,40.04906,30.24898,42.21101,37.16008,38.13813,38.67384,38.41807,35.70366,34.07696,33.43964,32.15962,41.86814,36.78275,31.83845,38.92661,29.64546,32.5507,39.45382,34.36791,35.0247,37.4732,35.63901,36.1546,34.36478,33.61812,23.40291,39.9483,35.19731,39.70074,54.17004,43.09074,51.33826,51.71603,52.42177,53.68966,55.22442,55.59733,52.85656,52.38665,50.3726,38.83536,55.03198,48.67044,59.91622,58.47644,52.27615,55.57232,52.02352,50.20541,49.37999,46.07974,42.33145,30.87289,31.29371,28.73573,32.76966,38.92973,35.10494,23.82864,30.11731,27.14284,23.3075,19.27684,17.09338,13.38658,9.127258,-3.504869,-2.77011,-9.336918,-13.84112,1.902614,-6.583313,-4.389945,-16.62212,-13.02213,-15.64185,-19.47491,-23.79382,-27.66353,-36.18975,-41.71747,-43.6491,-50.09477,-44.31589,-43.02036,-45.25266,-42.00115,-51.44726,-49.9647,-52.02943,-52.93821,-55.71827,-57.1572,-60.67407,-70.95377,-67.70014,-71.37935,-53.22623,-60.88564,-55.38582,-61.29979,-56.57903,-56.81945,-57.48608,-57.70564,-56.77686,-54.56904,-54.52146,-55.61125,-55.97023,-44.37693,-55.34183,-45.76102,-55.24298,-52.17467,-42.32715,-47.51812,-47.38688,-48.31497,-48.83833,-49.60587,-51.90009,-56.0476,-59.32152,-53.32608,-56.9413,-55.17248,-63.86615,-69.04555,-69.56779,-69.65849,-64.60749,-71.02918,-72.65898,-73.69361,-74.43556,-62.97883,-66.71284,-63.15317,-59.27282,-66.03596,-70.36812,-63.79732,-66.82996,-66.42796,-56.12197,-59.14634,-57.70222,-56.62333,-56.11017,-54.42242,-41.59891,-43.12269,-37.6232,-44.9188,-37.60277,-47.63048,-40.15216,-41.78674,-42.4837,-31.67257,-36.00736,-32.72374,-22.49523,-22.45676,-16.60544,-10.48512,-17.77245,-11.99025,-9.885014,-13.44978,-14.86513,-12.6663,-13.91951,-5.234689,-9.645865,-6.857767,5.460161,1.42393,6.798242,11.5578,5.958125,9.854651,8.722128,8.029058,-0.8254023,3.432337,0.02370766,6.022773,0.4615078,6.692956,11.74675,12.33932,14.9377,4.844149,10.93109,11.17721,10.10582,7.676356,5.938484,-3.064842,0.1284492,-3.231693,3.937013,-3.325157,8.174551,7.925454,12.01383,4.301832,7.391971,8.057176,9.008938,9.60304,9.221373,7.633206,1.768249,7.650255,5.45181,10.75183,6.244465,7.548507,7.133299,18.48973,14.73716,17.94119,22.92119,15.98274,21.3638,10.63064,15.05823,13.62407,13.28089,21.7821,15.67895,17.05514,16.97594,17.1771,15.21261,24.67568,20.94112,20.63918,21.78808,14.86964,17.86923,25.04149,18.54157,20.26026,19.90086,18.66749,16.39793,14.5615,12.93158,25.3181,18.09226,12.42236,20.95158,11.05314,23.06731,16.94503,16.54628,16.00515,14.16452,14.2092,11.32672,7.610129,5.181251,-2.627191,5.753805,-0.3824369,0.4292821,13.31396,-2.511182,5.430918,1.552414,0.3129282,-1.70555,-2.2016,-3.691066,-6.451681,-8.950429,-13.0185,-18.41669,-9.481506,-13.05752,-0.8817918,-15.60388,-7.258232,-8.76384,-10.66159,-10.64555,-11.9131,-11.81749,-13.39411,-14.44844,-16.68672,-26.81432,-11.9047,-14.18384,-7.431001,-11.41101,-9.681225,-6.360516,-4.870684,-5.348343,-4.962603,-3.494386,-1.492941,-1.43244,-1.829255,-1.926439,-9.89797,6.121191,4.479855,14.8097,9.128507,14.51459,17.50029,19.03347,20.67911,21.66333,22.94922,25.30541,26.19103,26.49181,25.50485,17.20749,33.43542,30.40659,37.99551,35.52331,38.24244,40.12048,41.3069,42.31143,40.63675,40.81365,40.7018,39.05642,27.88736,42.33047,38.16453,41.79799,55.25248,41.85546,49.56002,47.83924,49.37268,48.40936,47.26522,45.11856,42.86413,46.85498,50.2629,41.08212,48.75329,37.12712,42.92487,52.14524,45.60604,46.51009,47.06406,47.05149,48.13343,45.11944,44.18148,53.74176,51.24799,55.50683,37.56911,46.86732,42.60228,40.82633,50.72412,43.99236,43.55631,43.94141,42.84183,48.28913,51.45652,52.40481,55.91291,47.60395,44.93711,48.04065,46.09273,44.53791,55.08568,48.56793,49.76408,47.90275,44.63942,43.32763,46.36722,47.81254,50.0223,50.43714,51.43557,52.95178,53.37661,53.7534,53.1407,53.74057,54.26486,53.5021,51.91663,40.97096,57.26642,52.57389,58.76695,61.67913,56.35634,62.15416,61.92856,62.36991,61.02255,59.61575,57.7692,57.72637,54.69945,51.50169,48.41164,46.05637,47.4449,47.13117,47.48772,42.24808,41.3138,38.89694,36.86923,32.4757,28.30729,24.4086,20.36193,15.7837,9.723736,-6.289817,4.916948,-3.813702,-2.612808,-2.467081,-14.93696,-14.08686,-18.13985,-22.91001,-29.18153,-34.154,-40.66231,-55.74812,-54.63627,-52.17874,-59.83331,-50.2003,-56.41361,-63.76932,-61.46539,-67.39428,-69.83628,-72.93743,-75.04854,-79.93903,-83.04737,-86.21366,-89.509,-103.133,-88.57598,-97.88953,-95.13631,-84.42247,-96.16264,-88.61006,-90.5424,-90.45118,-91.16819,-92.91258,-94.49036,-98.25307,-100.8269,-104.4463,-106.2831,-98.32025,-105.9211,-102.9698,-100.3581,-119.4304,-111.2636,-116.619,-117.7612,-110.2451,-116.5225,-116.1543,-118.5015,-119.2423,-121.2833,-110.6205,-114.3519,-111.9135,-109.4943,-127.6047,-116.4177,-121.9686,-122.2457,-112.0216,-116.0283,-101.7972,-101.0999,-93.99084,-100.24,-90.82427,-87.96375,-85.67984,-82.4628,-80.17938,-85.18959,-76.67531,-76.25646,-63.67539,-56.44291,-51.66482,-41.63601,-37.07034,-36.40678,-28.16893,-23.87705,-19.32133,-15.7037,-12.2225,-18.47103,-7.451904,-8.379553,-0.6743776,3.38264,4.190867,19.66317,21.89236,29.18701,27.21539,30.67671,35.0846,38.30602,28.77889,36.56357,33.59595,45.87554,38.25792,41.38063,38.9989,49.60589,47.0697,50.03132,50.86021,43.63681,45.60569,34.61799,38.03554,31.55609,37.15263,28.60191,26.59473,36.88993,31.42198,32.28209,32.35413,22.94656,27.95581,23.40031,19.21944,8.176685,12.04525,6.890732,7.396698,10.34905,3.424585,3.870207,3.586019,13.91658,9.598184,14.48453,17.94797,14.24938,18.08906,15.69178,15.40892,13.60008,5.643265,7.721779,5.127331,2.468091,11.66222,5.307981,5.640314,4.133315,1.603845,-0.7415106,-2.298006,6.157827,2.99123,-4.377575,2.698149,-7.45363,-0.9478581,1.797092,-2.586929,-2.470498,-0.8012718,-2.533608,-4.609646,-6.816993,-8.484441,0.9680593,-12.21163,-2.285577,-2.482403,-12.37986,5.135345,-2.429109,0.4211786,-0.8079631,0.3291088,1.091631,0.601878,0.1940186,-1.656842,-6.017957,0.3048521,-0.5302333,1.599929,-9.520542,7.632339,-0.2938869,3.460183,3.334616,2.637116,3.05209,2.703855,3.753373,2.17575,0.3716129,13.30353,9.771979,6.297988,11.39917,7.857654,21.69727,15.19801,17.85033,17.25305,15.42454,14.59937,13.7145,9.872322,19.75215,13.84474,16.27992,5.040679,0.1324265,1.133166,-5.090179,-8.167785,-0.9815913,-9.065523,-9.195567,-13.114,-14.42143,-6.046174,-10.03682,-5.31627,-15.81083,-13.01938,-22.72857,-17.93677,-23.55211,-14.91771,-21.51223,-20.41688,-20.26374,-21.59508,-22.70724,-12.44977,-13.92134,-6.504197,-5.484555,-9.585579,-13.15,-6.527477,-7.858936,-0.4219957,0.7343001,1.157997,6.071378,6.817161,9.374047,9.762413,9.970641,11.20645,23.55958,24.08827,19.16068,30.69858,21.6464,31.44752,40.55723,35.71802,41.13781,44.16524,45.82765,48.21838,47.3667,59.63134,58.40053,65.54485,68.22941,54.40043,65.64464,63.42582,64.02611,74.27041,68.22874,70.20422,71.75099,70.96791,82.45743,78.21412,82.0047,85.68797,78.6841,72.70352,75.40681,70.60314,69.27056,76.67277,67.87501,66.54285,62.97939,64.05627,68.62004,66.0173,66.96922,69.95882,59.37464,57.1007,59.52032,55.20232,65.05905,58.03767,63.0594,62.38305,62.91497,62.93201,62.92274,64.25676,76.58379,62.91827,73.31868,60.51034,68.02479,67.32234,74.31597,71.46458,74.57785,76.0056,77.63644,76.82673,76.26029,77.58023,77.20171,90.90814,86.23756,83.31851,94.28723,83.8299,94.56587,96.95875,94.29514,97.19561,97.8509,97.75563,95.93299,94.38136,92.70647,102.0732,87.65125,97.41457,82.85019,87.78219,94.62293,86.54412,86.77947,83.00239,81.09541,77.63662,73.28532,67.1472,62.31991,67.62485,53.89367,56.21127,46.27951,38.88106,46.28713,33.30465,32.72739,24.0719,18.08042,10.75718,5.663482,-2.287238,-11.15437,-7.756597,-17.66787,-27.98032,-25.42485,-43.40507,-33.83212,-49.04274,-51.03241,-57.07301,-63.91018,-70.60888,-77.80537,-82.45314,-89.26427,-96.20854,-91.6326,-109.7501,-102.2925,-105.9691,-110.3586,-111.1983,-115.2995,-117.5159,-118.6109,-122.2667,-126.0382,-129.0949,-130.3652,-134.123,-124.3618,-139.8164,-129.4231,-129.4307,-133.3379,-119.3162,-123.0977,-118.9943,-116.663,-115.2236,-115.3305,-115.1124,-117.2663,-116.4486,-107.7104,-111.0466,-107.6814,-118.9023,-111.9008,-116.9221,-119.3002,-123.7608,-135.8917,-134.9548,-140.8498,-136.2668,-134.8209,-137.5592,-133.8684,-130.2098,-128.5401,-135.0456,-130.209,-130.3739,-140.7707,-133.4776,-135.6937,-135.3936,-124.2035,-128.7855,-124.7372,-124.3829,-110.8498,-112.5074,-103.2267,-100.2433,-103.5083,-95.48477,-103.8328,-93.27318,-94.58688,-81.70524,-86.63333,-79.84138,-76.72948,-61.31078,-61.83985,-53.09451,-44.6115,-48.9448,-37.48932,-37.68557,-41.66936,-32.72092,-31.66701,-22.6486,-19.89048,-18.74075,-13.736,-1.757801,1.780922,7.619553,15.11245,9.796539,19.90908,9.681435,19.03053,16.21818,29.85404,22.96456,28.24139,28.18661,27.06183,27.79029,39.07094,36.27023,40.49492,30.39579,37.27956,33.95029,33.48064,20.30541,24.26866,20.25132,26.72753,18.04846,17.33138,12.76524,21.90129,17.59334,19.02506,0.3789913,6.51504,1.606341,-0.5932174,5.268713,-3.35733,-2.131959,-4.512065,-5.340586,-7.29019,-9.080054,1.128516,-1.494364,6.476146,-2.752558,-0.4004072,-0.8994665,-1.544984,9.45357,2.635445,6.097572,5.622751,6.632443,6.1148,7.764066,6.60606,4.125833,4.972476,-5.656679,-1.157183,-5.752427,-6.761332,12.06713,4.149278,12.49021,2.813214,9.837435,7.378583,9.264628,8.663551,7.587261,6.836512,3.568518,-5.568128,11.81373,3.98158,19.07469,15.191,11.36058,19.36645,16.71009,17.12656,17.02235,18.19898,17.65567,16.28291,16.15772,5.517488,23.97538,17.90879,32.83098,19.54114,29.37121,27.8696,31.35805,30.88178,29.51256,30.45526,30.22215,31.83398,18.85796,25.49736,32.16586,30.14111,46.79915,37.0049,42.07055,43.71463,45.2448,45.9844,47.10212,44.49206,46.63354,45.27995,36.3546,53.22647,45.6732,53.11466,53.29133,56.45247,58.00612,57.88526,59.67146,60.65084,60.75573,60.82817,59.44832,57.86542,49.86292,53.67511,49.43108,60.27419,65.30187,63.80596,59.33669,65.40887,61.1269,61.3117,60.62764,59.36088,57.83908,67.06684,52.16868,64.36112,63.02816,59.61207,67.45415,61.32422,64.54358,65.03634,62.78784,61.58846,59.62586,57.38123,56.37398,65.39451,50.07631,60.75373,59.96833,52.23905,66.51951,56.6281,59.35246,58.12754,58.70406,56.82318,53.93081,52.44759,50.119,51.54148,50.90396,52.08487,53.56885,55.85857,54.62773,56.49301,55.4649,53.99303,54.70344,53.44048,51.50206,49.01918,45.73556,45.57001,43.77202,46.47062,46.79771,35.62221,51.6776,43.03654,45.45887,43.3186,41.72499,40.33183,39.02827,37.70587,34.23172,30.53994,29.92189,31.04524,30.75079,21.69708,23.69294,31.42703,24.41996,27.64361,25.15761,25.93007,24.43081,26.15328,24.12951,36.1005,31.21308,27.83901,39.11937,26.55118,44.75157,34.33275,39.80864,39.79488,39.81089,39.10803,38.49011,35.44991,35.65392,44.78116,39.32367,43.9057,34.85889,34.18969,35.27649,39.13257,33.09041,32.91759,30.65359,28.98341,25.20209,20.28589,18.49741,23.55701,19.40418,9.148652,14.58236,-0.9723219,4.102523,7.156616,-2.898082,-3.816274,-8.366834,-11.76084,-16.44995,-22.88302,-28.96731,-21.89908,-30.90316,-38.01954,-38.76293,-49.42297,-49.42689,-45.1494,-56.8899,-57.05328,-62.73794,-67.79188,-71.3339,-76.44908,-81.8482,-77.38428,-84.75768,-90.64554,-85.4502,-100.2147,-86.42496,-99.80483,-96.58958,-100.3329,-102.109,-106.3789,-109.21,-111.1694,-103.9429,-107.6621,-102.7005,-99.57113,-107.3001,-97.81141,-101.4889,-101.0322,-101.2759,-102.2998,-103.8388,-115.7961,-111.8199,-118.4193,-119.9541,-100.4625,-112.4304,-104.7022,-103.6295,-110.6268,-105.0642,-108.6522,-110.364,-114.0455,-120.1506,-117.4303,-120.9065,-119.9521,-124.8643,-112.2521,-116.0276,-110.4436,-107.7306,-102.9667,-108.5285,-98.72554,-110.3286,-99.50237,-103.1597,-97.40453,-95.65398,-84.67931,-88.24428,-82.77121,-67.46507,-64.65655,-55.26586,-60.4969,-49.96282,-46.9203,-41.28245,-37.54815,-45.0216,-33.2213,-32.45749,-28.37441,-15.18776,-18.66117,-12.08097,3.475896,5.51618,15.61314,11.63154,19.32026,22.81591,26.73364,19.20721,27.34144,26.85271,27.80107,40.47785,33.53846,50.36502,47.12911,55.19396,59.49396,53.69792,58.46303,56.66307,57.91979,56.85531,55.62774,44.57724,48.73891,42.30099,41.5318,58.36482,45.22544,53.38467,53.0599,44.14622,49.21174,42.48692,40.98002,36.98315,36.58162,30.71919,18.02758,21.38949,14.3288,32.88136,19.13579,28.35494,15.27666,22.74203,20.50863,20.22209,18.66643,8.031517,16.09399,13.53544,18.94555,25.61263,22.28032,26.71191,27.7047,27.50068,27.00775,25.23369,23.7056,22.72694,11.07364,28.23727,18.09807,35.83939,30.31014,28.26291,33.32699,31.4708,32.66484,33.13907,33.15657,31.86889,21.04684,30.26703,32.98971,32.60354,42.71292,31.64001,39.03097,36.99573,37.16648,36.87442,35.06105,33.34711,32.15862,30.88532,29.80084,29.3079,30.35898,33.50939,44.86687,30.29201,39.27602,36.16956,37.36563,34.9826,34.11377,31.38458,30.06642,28.24298,25.62218,12.14619,28.7062,17.68882,23.83958,34.62439,18.41357,27.63921,22.65512,24.68046,22.07575,21.03437,17.76271,17.05738,14.12656,12.16909,12.10221,13.18363,11.77522,16.32126,15.84316,15.45243,14.91912,14.65416,13.99845,14.15934,11.65951,10.59832,8.574756,6.855418,6.212406,-8.945575,8.900237,-2.496749,3.888833,14.96155,-0.227387,9.845872,5.332365,7.211105,6.596708,4.75575,5.325121,0.7554726,1.979636,-12.44774,-5.31877,-1.722474,-6.574863,9.128598,-8.366584,3.042642,-3.812744,-3.954154,-4.115935,-6.816712,-8.392467,-11.96295,-1.979427,-12.23684,-8.589862,-9.466648,-15.84034,-3.360552,-13.38244,-8.946693,-11.42438,-12.68457,-15.56984,-16.38595,-17.84767,-7.744757,-14.16458,-8.881557,-27.26482,-17.57658,-23.85543,-25.41596,-17.87522,-27.77727,-23.92831,-28.86271,-30.22628,-21.81685,-27.36878,-22.02402,-21.95618,-31.71627,-26.24001,-40.27381,-32.35042,-38.6001,-31.38505,-39.05676,-36.45723,-39.34701,-40.82435,-32.3794,-38.02873,-32.601,-34.98748,-44.46449,-37.01215,-42.88617,-30.83451,-39.00256,-34.85816,-35.86426,-35.46725,-36.60116,-33.31475,-34.06238,-21.93012,-27.10605,-20.62038,-17.15768,-24.5607,-20.38876,-22.49392,-21.48605,-23.18415,-24.53685,-37.56805,-32.94742,-40.57633,-41.54559,-35.6673,-33.81864,-38.19234,-32.80383,-30.90927,-39.14309,-34.35676,-38.20567,-41.43262,-45.67295,-43.79121,-47.6904,-37.81756,-48.51118,-42.41041,-46.60731,-32.53652,-40.01554,-31.46792,-27.72277,-34.95096,-25.43145,-29.78595,-36.14136,-27.59462,-30.66972,-20.21987,-26.31214,-21.28563,-21.23746,-5.987569,-11.52802,-1.621196,2.233508,-3.221475,7.535925,-4.664816,6.046093,3.659393,7.895554,19.08031,13.68868,19.94407,20.59939,30.46701,37.12267,39.78818,46.58711,40.63933,51.47459,50.66768,43.55665,51.4558,49.18244,52.84273,62.78538,55.44816,60.44688,59.2615,70.08572,71.34983,75.93856,78.40685,70.25831,79.62959,67.13523,73.15295,67.87797,66.92303,76.80677,66.44593,68.65967,63.38013,60.55656,63.2637,58.16354,61.98793,50.01023,63.94492,52.45032,57.54564,53.24935,51.72944,49.71317,49.79859,53.47509,55.03037,55.49431,59.35217,49.94899,48.11843,53.67619,50.7868,51.63625,64.06174,55.03454,60.55385,57.55197,57.62104,58.18584,58.41546,54.6608,54.17483,49.70052,37.32562,40.4875,32.07471,49.04588,34.44501,42.30069,41.34631,30.94621,33.8767,27.73757,27.24179,23.1346,9.210129,11.9027,3.719805,4.38965,17.73136,5.942337,13.41587,-1.557211,7.043091,-0.3664017,0.00281564,-4.555396,-7.155654,-15.27488,-18.09679,-19.63995,-26.97999,-17.30511,-18.15075,-17.28298,-14.77489,-24.17476,-21.21549,-23.58038,-24.59706,-26.53574,-30.05881,-32.67893,-34.06401,-36.23662,-49.83533,-32.63066,-42.8872,-35.86978,-24.42975,-39.08719,-26.70997,-32.97361,-28.01128,-29.63325,-27.97059,-29.98287,-29.18911,-40.25529,-32.33017,-38.92929,-15.9219,-28.76139,-16.3113,-15.02936,-19.76619,-12.49908,-15.2869,-13.01582,-12.97709,-12.62123,-25.38969,-17.84207,-25.16122,-24.57427,-7.230548,-18.68086,-10.70049,-9.380794,-19.79003,-11.91602,-18.03627,-18.07984,-19.94075,-17.381,-17.05924,-13.95146,-11.65379,-8.88948,-9.197492,-7.183566,-8.433817,-8.272554,-8.65686,-8.915888,-10.82694,-11.34986,-14.57832,-16.67605,-26.62064,-9.044791,-20.71437,-4.306366,-11.52,-12.99884,-7.445473,-11.58536,-10.72479,-11.93063,-12.21447,-14.43801,-15.66621,-19.67735,-30.14705,-13.99643,-22.84856,-9.306887,-23.3417,-15.21713,-18.46605,-17.08921,-20.13921,-20.82174,-22.27724,-24.42965,-25.85222,-16.63434,-32.30539,-20.00116,-22.63356,-26.34178,-15.16427,-23.94803,-18.38633,-19.40619,-17.49063,-19.202,-20.7903,-20.45845,-13.99306,-11.74182,-9.673526,-5.416285,-25.18495,-6.719805,-17.1694,-4.942259,-10.88128,-7.117377,-7.761326,-6.092031,-7.738209,-6.850627,-8.910095,-8.952849,-9.694143,-8.838375,-5.468839,-5.957338,9.911377,-5.821172,8.154176,2.025494,6.037004,4.27022,7.562372,5.617736,5.375223,2.106976,7.751739,8.568744,12.31729,14.00326,12.09586,15.81308,16.23395,14.71395,15.33241,13.85312,13.6426,13.06037,10.67493,21.11379,4.866522,19.17624,16.84066,19.68132,18.78302,19.61458,19.73441,21.59171,19.54828,18.84627,17.14717,8.001644,21.4097,18.1273,32.92569,28.25703,24.34939,33.67722,30.83148,31.57124,32.95552,32.9331,33.72185,35.08271,33.7449,32.09808,23.54906,41.44176,33.94757,51.52909,34.46842,47.91181,44.33933,47.61549,46.88026,46.89771,46.74855,47.2127,46.83876,44.1754,34.45828,51.32574,43.18242,56.72013,48.55211,51.98374,52.07478,51.87937,49.93436,49.30061,36.20194,42.92791,38.84434,48.02649,38.70648,54.86219,48.62149,59.40474,57.18462,54.79151,59.8728,48.24046,58.75164,52.94722,64.13497,56.10408,60.33516,58.26913,61.02769,57.39936,55.79898,65.271,51.85086,63.80357,50.81483,54.44089,61.0991,53.05734,57.11635,53.21797,51.04002,48.4794,46.4307,42.33082,50.82537,42.29132,47.80389,25.23268,37.51858,24.1801,35.09349,19.87906,23.70862,16.60679,12.87489,7.57176,4.219091,9.041454,2.559786,3.997734,-22.82579,-9.603158,-23.4373,-13.57456,-27.3934,-26.22351,-33.50176,-35.85619,-39.99668,-44.83272,-51.04208,-43.94399,-57.97106,-54.74985,-68.91517,-66.86185,-64.41867,-71.90583,-70.4443,-73.86139,-76.33012,-78.16632,-69.59042,-75.41913,-69.89649,-84.42376,-77.02786,-82.80817,-82.39949,-85.99665,-98.13594,-92.88487,-98.36742,-96.42713,-91.83462,-98.96608,-94.26479,-83.68645,-85.57175,-78.02009,-86.91019,-79.27799,-78.42023,-76.53919,-85.58972,-77.97609,-81.79558,-78.82295,-67.10905,-74.93539,-69.67331,-59.0899,-60.28025,-51.54216,-55.50414,-55.17863,-52.86495,-59.94368,-57.32116,-57.45672,-58.2615,-34.07161,-45.264,-30.26469,-40.0396,-29.21197,-32.55192,-27.22239,-26.82555,-25.69844,-25.13149,-25.66205,-21.16316,-18.2593,-13.3593,-10.56754,-10.29905,-7.690349,-4.832286,-5.01167,-5.79629,-5.599522,-5.287782,4.747412,3.432279,6.706153,10.18207,-6.50101,10.52447,-0.373924,12.12475,3.915969,9.50675,7.185587,8.479071,7.423892,4.086642,4.752161,13.49504,8.670805,14.16091,-9.011317,7.53063,-3.230211,3.418888,-0.4033473,-2.071049,-2.97849,-3.935622,-6.808359,-9.492241,0.3763415,-6.02864,1.447748,-21.82445,-6.426844,-18.94949,-5.454855,-15.9579,-11.64837,-16.89643,-16.91382,-19.34016,-11.521,-10.89405,-8.596614,-4.818572,-20.94579,-5.182007,-13.96719,-1.117949,-11.46273,-5.285655,-7.000428,-5.873898,-7.021218,-8.008427,-10.21153,-13.8478,-19.32838,-19.44704,-10.79882,-5.287903,-6.641717,0.395712,-8.873243,-1.429962,-5.710059,-2.999075,-4.937981,-5.271942,-7.939888,-10.36111,-18.72312,-15.05359,-10.01609,-3.622402,-7.976829,1.782404,-10.55773,-1.863738,-7.569869,-5.503856,-7.696736,-8.318203,-11.32827,-23.97945,-19.11062,-17.99961,-13.34279,-6.556415,-8.430601,-14.46566,-5.693385,-9.511265,-8.18392,-9.488865,-9.651567,-9.299201,-9.994998,-11.7791,-12.95938,-14.1344,-3.360676,-6.852864,-11.76258,-15.55346,-12.77101,-13.48096,-3.930032,-13.14607,-7.570058,-10.27423,-9.128809,-9.373725,-12.06713,-13.07856,-16.37322,-12.5247,-12.75174,-9.11761,-7.42214,-10.29775,-6.788901,-7.563857,-6.957777,-10.06113,-8.392112,-11.34544,-11.42651,-12.53578,-25.86859,-7.793387,-17.12578,-8.994959,-4.000636,-10.6098,-4.734857,-4.93915,-3.23022,-3.496676,-4.521429,-4.960089,-13.43226,-9.397814,0.1606991,-5.386846,12.52598,-4.33901,11.82289,4.912235,8.797021,6.441468,8.838432,7.694966,8.300761,5.159811,5.48271,5.323737,9.081072,14.02542,8.373919,12.48167,11.78979,12.65404,12.18154,10.65435,8.258751,4.535086,4.647915,11.36252,7.81354,24.60369,4.523203,21.39149,13.1236,17.44651,15.13128,16.15862,15.24393,15.66618,12.32345,9.825177,4.102324,17.28908,10.13969,26.28231,5.738054,22.39355,14.4632,19.22831,15.09859,15.89966,13.08879,14.16625,1.27636,8.21102,13.2039,9.839964,28.09117,19.35653,21.72953,24.34098,25.78672,27.60326,28.07319,29.39031,28.48396,29.81748,20.59096,27.79324,22.41602,22.99166,31.9706,24.02546,29.61607,38.60411,34.90817,42.78877,45.52732,39.25497,47.40154,42.35042,44.77849,34.42862,42.24073,35.44678,36.17769,47.41309,47.78337,51.02498,55.98568,45.02402,55.10165,49.97348,52.96263,48.75403,49.1092,47.0555,35.4529,41.97265,33.11597,56.02546,38.97744,52.18375,51.31472,44.28595,48.32159,46.12032,46.7429,44.16938,33.32095,38.21027,33.30662,53.56614,41.76051,52.52836,53.22909,45.84012,54.33658,53.17472,52.3811,52.63956,47.52458,46.98216,46.85294,45.2388,54.54282,45.07011,64.44698,56.76326,63.48623,57.48652,64.15134,59.29272,51.67111,57.24494,49.15749,51.53447,54.32975,70.97001,63.2432,76.95057,64.45903,80.76203,76.87373,81.62363,81.00768,81.64818,76.80392,83.5927,79.11923,92.74436,84.25872,101.2093,97.45494,106.0953,95.35769,104.6525,100.4923,103.1354,98.79753,98.7116,83.6545,91.93055,81.2494,94.51768,89.80775,91.31935,94.50665,82.47261,88.45847,79.12647,78.41561,72.10376,70.87096,52.69069,55.06051,42.50965,39.85141,53.407,35.8904,43.01219,36.3562,25.42591,28.62716,17.37429,13.75971,4.120919,0.5410451,-6.899415,-25.99867,-24.50707,-40.28954,-44.34317,-30.9399,-50.34164,-44.53363,-49.8557,-63.11882,-58.66614,-68.13091,-73.51738,-79.40046,-83.7158,-96.77849,-93.90088,-94.00643,-107.2131,-107.0522,-100.4853,-108.8591,-106.0706,-122.404,-113.5684,-121.9415,-121.3952,-125.955,-126.3828,-129.9903,-132.5034,-135.3539,-126.4987,-144.7146,-131.1383,-149.4083,-133.3844,-141.4308,-141.5685,-140.9285,-141.1776,-143.8925,-146.0969,-147.9628,-146.0123,-147.9987,-142.1709,-133.8195,-147.4734,-135.0852,-139.5026,-135.1834,-138.7174,-138.9419,-140.6535,-139.8761,-139.5938,-136.2409,-132.6,-127.4089,-108.6335,-121.9896,-102.5893,-107.3018,-96.01285,-94.30208,-87.87903,-84.73333,-80.32863,-83.74058,-61.55671,-64.42962,-41.26095,-57.08779,-34.59952,-36.69724,-26.98155,-25.57062,-21.24646,-16.91262,-24.73189,-12.70618,-14.70226,-0.5135322,5.896882,10.83604,18.94119,21.98476,18.57465,24.35612,22.64822,25.27776,21.55098,20.53488,19.01501,15.46057,12.20472,10.31478,9.466123,6.446963,8.497487,-3.253275,9.065851,-5.598059,-1.574463,-7.340784,-8.796752,-14.01517,-17.84586,-22.17534,-26.35076,-31.8512,-33.52746,-35.59791,-36.57476,-34.10735,-36.83039,-36.17049,-38.03076,-39.25572,-37.54345,-39.42022,-38.91917,-39.38028,-39.10697,-37.51864,-25.29011,-41.56894,-37.23316,-33.65948,-23.29376,-28.48836,-20.04583,-19.71336,-14.98098,-11.08098,-7.174073,-4.907911,-3.976696,-2.16458,-0.761222,0.7814747,-9.629276,-1.235285,4.727618,2.927494,21.6837,9.179343,17.52244,16.65077,19.08918,20.52878,19.15876,21.35818,16.76598,15.16341,27.67745,22.96648,28.92782,25.16708,29.20473,26.79139,27.10349,23.11083,21.4422,18.91853,16.93602,17.11383,17.94799,16.77228,22.01492,19.944,21.1986,19.84423,20.20604,19.24149,18.45462,17.67001,13.84651,12.18359,21.56472,7.546487,21.07291,4.023517,26.75532,9.199465,21.89835,15.91328,18.28787,18.13019,19.38436,34.42764,31.58582,38.46449,29.49145,36.96282,27.83474,34.83246,29.61633,42.11779,30.86344,40.17463,32.82311,36.33598,31.18828,30.61523,29.25777,24.14994,34.96879,23.84665,23.64939,28.25324,26.2745,27.923,26.56244,26.08561,26.90695,25.36336,23.99316,20.76843,19.42751,17.15532,15.33096,25.01834,5.523064,23.68565,15.69993,15.57609,25.08129,16.65518,23.76778,20.47215,24.62563,21.38086,22.69161,21.70394,21.21126,21.25178,22.65329,25.34098,27.868,19.78964,39.83685,26.49514,35.84681,33.11046,37.29151,35.65789,36.92229,34.90624,35.28959,25.8343,28.26759,37.64996,28.11143,47.31342,39.63199,37.98929,44.7543,39.54186,43.24342,41.61,40.63141,39.97339,37.47819,38.20914,46.21094,31.26955,45.76459,26.15116,37.93964,39.8992,34.18962,35.9714,32.71478,32.43718,30.2649,29.02723,38.937,30.36936,39.41343,35.06219,23.88126,33.44974,25.36966,37.57449,26.66689,35.03005,29.35345,30.78335,28.33263,28.52679,39.27565,33.89414,41.54023,27.64787,31.18887,30.59101,27.75882,38.38131,29.61182,35.20159,32.50881,32.67092,31.19947,27.85213,22.05455,34.63851,27.64069,34.7727,23.32396,48.34191,33.60367,46.82306,41.02542,48.03056,47.8806,51.62372,52.6968,53.211,44.63614,65.59231,57.05739,79.7541,60.6216,77.35422,73.38837,79.22264,76.61481,77.96155,77.04876,71.74893,70.08634,69.82585,64.30969,87.54857,68.85397,85.41651,76.47927,72.73205,74.23376,69.976,68.41772,63.18916,57.94857,52.81928,39.21101,38.48734,26.79087,34.40866,31.82744,26.15916,29.98835,12.16717,17.29467,3.192934,3.29153,-7.829916,-11.4159,-22.76648,-28.50461,-47.5469,-35.18026,-50.58922,-41.43672,-53.19486,-60.22176,-60.68617,-68.33973,-72.8981,-79.19305,-82.79909,-89.05896,-92.85275,-101.0993,-106.4087,-122.8639,-120.4336,-116.9679,-118.799,-121.2034,-118.3363,-129.704,-121.5869,-130.996,-129.4756,-134.3424,-133.1667,-136.3157,-148.2305,-141.3952,-150.1093,-142.9822,-128.9801,-135.4109,-123.9171,-133.8932,-118.7595,-122.6738,-116.9039,-116.9541,-112.853,-116.6285,-112.3754,-111.3371,-110.2408,-97.92419,-91.07732,-86.73101,-78.44973,-86.63213,-74.97868,-78.8043,-73.3402,-76.43164,-74.31559,-76.93849,-68.61974,-67.28909,-62.40981,-45.38065,-49.23416,-47.7433,-39.15918,-39.16469,-33.18158,-32.13015,-27.44965,-25.38919,-23.48954,-32.58799,-9.841114,-18.71195,6.934041,-13.85384,8.987626,0.5378004,11.18111,7.237124,13.89687,11.57193,14.20069,12.69487,25.08877,21.48417,41.58691,20.06011,40.84915,31.60447,39.38194,34.12833,37.61417,35.37979,36.50087,33.38014,32.63527,26.12423,30.06713,32.04171,31.56745,45.36352,24.39803,40.082,29.81647,33.61844,28.64578,29.02904,25.0297,25.07453,21.2994,19.4882,15.29002,20.01743,12.73136,22.29972,16.34835,20.55559,17.36197,21.16207,20.83939,20.093,20.00156,18.83827,19.06897,17.52924,5.854038,13.12421,18.44497,17.07456,26.55458,16.73501,24.27239,20.395,24.29056,21.69474,23.8615,23.03059,21.22089,17.1276,18.99903,28.98201,34.2049,34.92252,44.15108,35.81057,46.61038,41.25051,47.32406,46.96519,46.66841,45.35697,46.02078,34.96925,52.25964,47.0289,60.1192,55.93981,53.10323,59.86089,56.06271,57.49296,56.39856,55.79947,54.68211,53.01022,49.45822,36.22505,43.75653,42.37548,42.28924,49.33444,29.93891,41.3645,31.46034,32.1361,25.25641,22.41956,17.39309,13.90455,-2.410078,1.40461,1.588122,-5.413137,7.924068,-16.06143,-1.188341,-16.47382,-11.25033,-18.42083,-16.30111,-23.51026,-23.59751,-37.92493,-18.799,-33.67322,-24.13942,-29.72185,-25.71423,-25.28273,-25.33553,-25.1094,-24.50081,-23.36653,-22.24771,-21.70943,-22.08738,-22.98948,-16.60148,-6.223624,-8.018789,0.5155675,-10.71446,-8.668771,-3.672079,-7.117356,0.4912697,-0.4414229,-0.1256223,3.279629,2.638434,2.353968,1.011003,2.025604,8.747438,11.62936,0.3634915,2.680203,-0.9821782,1.198826,7.89749,-1.271066,2.395699,-2.404273,-1.636983,-5.608302,-8.525299,-0.5986724,-10.69143,-3.622211,-7.637081,-22.42465,-16.41941,-23.09382,-21.89374,-15.46534,-24.75696,-21.07744,-27.09141,-20.80229,-17.75598,-18.68837,-14.57453,-28.26986,-20.47503,-29.98633,-25.60087,-33.15297,-19.53816,-31.73559,-24.25513,-29.25594,-27.13713,-31.17621,-17.33412,-23.1557,-15.52987,-24.48496,-15.29055,-19.23853,-25.90664,-17.02386,-23.85635,-21.54205,-13.39315,-19.5527,-15.85654,-19.66817,-6.871464,-13.16788,-3.720953,-9.043561,-23.03623,-12.29673,-19.87246,-18.38793,-10.49143,-20.20086,-16.20004,-18.92677,-19.13428,-9.164419,-17.71638,-10.30644,-10.357,-28.18804,-11.27108,-26.3317,-19.29365,-26.09165,-13.80217,-25.16816,-18.22561,-22.97744,-9.699086,-17.03534,-7.725442,-8.839846,-16.91701,-10.24973,-13.53988,-11.0814,-14.39974,-15.74363,-15.55832,-17.99286,-19.78217,-21.66028,-23.2158,-32.86313,-37.77037,-39.28984,-41.05672,-44.08347,-36.924,-44.93214,-37.14702,-47.39684,-48.3876,-49.41154,-53.50577,-54.65949,-59.77275,-71.8896,-67.51003,-75.95013,-74.83442,-60.1551,-72.48083,-57.34413,-60.27683,-63.23417,-56.85203,-59.73258,-55.53103,-55.37565,-64.36827,-55.19162,-60.44161,-44.04459,-54.85848,-43.40065,-34.72593,-34.27879,-23.63475,-16.74013,-19.86802,-18.22516,-9.589769,-8.664071,10.10478,2.933827,17.25634,16.04706,26.20823,34.58802,45.35925,51.48099,62.50844,48.60702,72.98778,67.14426,88.1991,79.35514,92.69309,91.84912,99.9937,88.52876,103.5246,97.34486,106.6464,129.2,118.6865,137.6403,137.7862,138.0984,145.2874,145.3492,145.2096,145.7773,142.4328,136.3963,138.2242,144.427,151.0712,146.3852,155.0164,140.3386,149.2101,138.7046,140.5948,132.9539,130.2812,121.3164,117.1779,99.1666,116.6339,95.82065,104.375,106.9789,103.0347,97.94639,99.39352,92.60579,89.04593,85.48174,80.51127,77.2117,69.63624,67.43886,60.54256,47.89645,47.49834,34.5902,44.27339,24.40461,30.09143,17.82821,14.86214,7.00684,9.324722,7.691628,1.415855,-4.321197,-12.64047,-13.79001,-19.57346,-26.34683,-42.98082,-38.80648,-51.42062,-52.1635,-51.30757,-63.55096,-49.47618,-60.59512,-51.5573,-56.87783,-62.43745,-58.51867,-63.75461,-72.23465,-65.77263,-75.06278,-73.42803,-76.39027,-73.18579,-52.47868,-64.32426,-47.18304,-60.41644,-40.83918,-48.18133,-39.75438,-39.70219,-34.18531,-31.81121,-40.70161,-14.84858,-26.82509,-7.461145,-9.937987,0.553735,0.3547104,5.938291,7.96901,10.80476,12.0688,10.43398,10.0955,20.18684,14.66867,19.5293,-5.401603,11.41884,-4.1173,2.614869,2.272124,9.215382,2.887105,11.70333,10.93867,4.029998,-0.6068132,2.516862,-1.623555,9.844236,-0.8249327,2.132114,-0.8639502,-0.4777673,0.4445592,6.895702,2.590114,8.968586,-2.977986,7.301003,-1.825946,-11.0032,-7.987375,-15.01986,-16.3573,-11.24141,-23.65552,-20.68693,-27.62822,-14.44024,-25.72105,-18.23386,-21.45745,-31.8444,-34.8403,-36.69945,-40.62539,-43.72866,-45.62951,-36.62024,-46.79027,-43.39293,-46.46918,-47.57165,-45.20234,-37.44967,-41.97827,-33.44993,-45.18377,-42.89586,-39.95028,-41.98781,-29.85388,-40.07217,-29.18031,-35.20716,-29.80412,-34.58031,-31.922,-33.76007,-34.11467,-37.60489,-36.44975,-36.25029,-32.98694,-28.09279,-32.35614,-29.08225,-31.06222,-29.6668,-31.87902,-33.86908,-37.04181,-41.15968,-41.03846,-33.22735,-43.9023,-46.10507,-40.74612,-40.99987,-38.05632,-38.59997,-38.56089,-37.55887,-36.23337,-36.68308,-38.06373,-38.00723,-40.17625,-38.58447,-53.46632,-29.21909,-46.40455,-30.11787,-23.17788,-34.3816,-21.90564,-28.2677,-24.15291,-23.84582,-23.28456,-25.29635,-26.17526,-37.85363,-30.08614,-37.65688,-29.50617,-25.56528,-29.49033,-21.24221,-20.43616,-28.61317,-20.12983,-25.22052,-22.13748,-22.60494,-33.52871,-11.77234,-24.4944,-7.661658,-13.11901,-5.02651,-6.434566,-0.8911966,0.1621019,4.47129,4.35147,6.103757,6.608684,7.562464,9.062753,8.475225,19.40271,12.21978,12.94846,17.49023,5.855842,11.9098,16.2754,6.845423,11.82016,4.260356,2.892755,-3.622237,-5.12708,2.451609,-5.963914,-2.491782,-6.457637,-11.99544,-17.82497,-15.24023,-11.77491,-22.86687,-17.0613,-22.94492,-22.81965,-26.82351,-28.97451,-31.28794,-17.4195,-27.54866,-18.27506,-34.31156,-29.82661,-32.68606,-33.0131,-24.81658,-35.61613,-27.10627,-32.21994,-29.96172,-33.12637,-19.5398,-26.01921,-13.84834,-16.92619,-18.04678,-22.33607,-14.1296,-16.89902,-7.081324,-7.693296,-4.347049,0.7045156,0.1372585,5.095133,4.685708,18.77464,17.10342,28.52191,31.47763,17.95476,36.97744,29.07119,39.18226,47.17893,44.18649,51.15733,50.93432,56.08884,70.4539,65.09825,77.24965,78.92883,76.1388,71.54365,75.80619,70.04446,73.73383,70.80299,72.35489,81.9944,73.34079,94.65057,87.05135,100.3667,88.72516,99.2643,94.8266,99.20997,84.0894,96.10693,83.93741,100.9069,86.28349,94.25479,98.97977,95.11661,100.3887,101.0654,92.15615,97.66843,91.05056,86.36874,83.23627,82.5907,77.16173,86.9045,73.56168,80.06534,70.70406,68.12097,61.09278,57.26969,61.01993,42.40587,52.29263,42.94252,32.02237,47.16133,28.43523,34.81447,23.8069,23.99972,18.08512,15.24985,8.088799,2.252738,-0.8341548,3.962097,-1.81683,-1.342988,-27.69689,-10.61576,-28.45774,-22.55372,-24.09339,-31.92376,-28.83082,-33.63797,-34.26569,-38.78332,-41.2255,-44.32865,-35.42727,-41.40007,-47.85208,-52.87719,-50.69659,-55.11305,-45.61808,-57.70169,-51.66327,-57.5362,-54.0758,-58.58478,-59.12127,-62.85543,-51.46728,-57.96281,-60.71588,-58.20873,-64.34526,-59.84625,-53.01148,-57.58569,-53.61911,-55.45162,-53.0547,-54.29901,-51.12381,-56.12535,-51.04972,-50.29331,-45.88072,-39.48528,-41.86691,-37.44565,-38.65406,-33.06915,-37.15302,-34.11365,-38.35998,-38.71007,-41.90298,-45.27371,-45.14135,-43.79924,-41.93802,-26.95755,-32.6713,-19.31745,-33.07898,-18.21841,-25.16099,-17.79823,-21.40598,-18.03903,-20.41264,-27.00089,-22.00254,-12.25951,-18.73762,-7.043582,-9.985129,-3.820516,-4.238711,-2.389249,-2.935252,0.02584568,-0.8350655,-0.5048797,-2.980597,-2.306049,0.5029351,-2.087211,3.49036,3.315007,4.296641,4.502251,6.631397,3.202202,3.458558,0.09954087,-0.9569295,-1.033759,9.156532,1.7238,8.301724,8.12106,-6.628794,7.225103,-5.536414,11.31661,-3.696656,6.160224,-0.05806673,1.426544,-1.413574,-1.416661,-1.792475,-7.082266,-6.066837,-8.137885,-4.975004,-3.676466,9.133587,-7.739061,9.877475,0.1468811,9.299045,3.707958,7.624324,3.603697,1.350053,-2.325731,-0.8531188,8.38719,12.43234,12.64566,20.63485,11.53602,22.87074,15.54985,21.35122,18.89481,20.87941,19.07719,7.311258,16.87956,7.285423,29.69357,18.98217,29.82686,30.1273,25.75699,33.64891,27.32306,30.98332,27.96363,30.36163,25.88912,15.56512,35.46644,20.90872,46.66761,30.78884,38.12446,36.19145,40.3284,38.50367,41.07208,39.26974,29.86159,37.90095,31.20516,38.38076,51.61477,43.62555,55.76117,43.14947,57.43534,48.78791,54.38081,51.09175,54.57183,40.49606,50.73527,40.07358,42.85226,61.04068,48.24948,62.68853,60.70528,69.7179,58.74083,70.71097,61.2058,66.70426,59.87125,60.81912,45.24263,52.76772,40.2008,42.05016,39.69168,50.94438,50.67404,54.02092,45.85904,58.24215,49.9818,56.64436,50.50422,54.36508,52.21247,40.13293,50.80869,37.97708,43.94399,49.98705,52.78244,53.04262,58.21759,46.23967,59.44719,49.82073,53.31304,48.24994,47.65432,35.54559,39.4572,31.3571,28.10915,46.43979,29.61271,44.42779,22.6716,35.81816,22.34066,24.56562,17.46302,14.0673,7.339261,-0.7637364,-6.161529,-2.093245,-12.30705,1.496199,-27.29606,-9.922822,-28.50835,-23.467,-36.0823,-36.49101,-43.65339,-47.35417,-55.34743,-61.8383,-55.94045,-74.81902,-62.29136,-80.03144,-67.9065,-84.6648,-77.73716,-87.47389,-87.0641,-94.67783,-98.39698,-101.5033,-105.8271,-108.9462,-98.15367,-109.6145,-98.62269,-117.0353,-106.0536,-121.0339,-126.726,-126.0676,-133.4627,-128.7871,-135.7518,-126.0837,-132.3836,-123.2836,-129.4775,-131.2492,-129.626,-130.467,-128.9523,-130.1016,-140.6937,-132.2879,-138.0484,-123.5339,-121.4929,-116.0515,-109.9731,-100.4122,-106.7288,-91.07514,-97.63765,-88.94115,-95.53596,-92.39781,-92.68829,-93.21797,-85.12399,-94.82275,-84.88477,-77.21656,-80.06309,-68.96432,-66.58497,-56.00084,-55.77161,-54.53967,-47.96569,-57.11104,-43.13496,-49.51186,-32.3612,-42.46421,-30.80895,-34.00575,-13.29277,-22.53359,-6.275615,-5.171919,-6.498517,-6.997191,1.478224,-1.893711,16.91818,5.612253,21.0007,13.44452,20.46037,19.44297,34.40403,31.3246,41.01919,42.31043,34.47946,41.45457,40.36702,42.86426,40.94412,53.40844,45.75014,51.8677,49.5733,49.41306,54.47365,61.09464,61.47978,65.03511,51.92157,63.42304,52.54312,58.00217,48.43549,47.80148,32.32447,38.40422,25.7802,33.14424,22.3369,23.34497,28.67744,20.08622,24.78125,5.806591,8.238333,5.124589,2.416046,3.235691,4.349303,3.911394,5.605834,6.235192,5.051039,4.219968,3.50935,2.13943,1.378042,-1.884022,-2.815915,-3.045863,0.1043106,1.100424,5.488405,-0.2998447,6.604762,3.870142,5.808886,4.953298,4.007381,2.824717,5.192128,1.379109,2.748819,11.68064,6.009135,6.358868,1.261011,7.619294,0.8894717,16.39744,2.76278,14.42175,5.573708,11.48764,6.239241,13.84907,15.88316,16.83073,20.36798,8.945184,23.76499,1.140666,18.71,4.089826,12.43518,17.49324,10.2648,17.2055,10.74773,13.64837,23.1637,18.8952,27.88258,11.59442,24.27598,5.376148,20.26278,6.592769,23.0627,7.037712,16.60447,9.487572,25.12303,11.54713,26.16039,8.445939,24.28627,0.4567102,18.26999,4.07576,13.88775,17.17192,12.82874,18.11341,15.71817,24.28759,29.50951,31.70481,37.08118,43.04605,37.12165,50.49575,36.23174,52.72107,44.4247,64.35129,52.34463,63.42562,59.08886,63.52522,61.16044,65.55092,60.74144,61.85772,47.81072,69.6022,53.33141,73.35728,55.63816,63.46963,57.82783,58.07127,55.86068,52.06092,51.27177,59.9739,53.65836,49.23986,53.72723,45.022,50.60537,55.96997,49.00382,54.34124,49.30297,50.54539,49.84233,47.06525,44.91932,42.20832,52.99468,45.87633,43.82218,40.91056,39.81419,39.78972,37.52521,48.62214,36.29198,44.78954,39.19335,42.30503,39.49236,38.33442,34.89665,35.85043,43.77839,26.2101,42.70637,30.86661,29.19014,34.94801,40.23461,35.42765,39.59271,38.17515,41.29891,39.6507,39.91924,37.96918,39.04729,25.30616,49.75245,32.05313,59.35121,43.53804,50.74083,52.13542,49.30179,50.76758,48.75727,49.89997,45.58983,43.56298,29.021,35.99373,36.62546,35.59032,42.00236,22.43839,33.43558,22.15989,22.90632,15.22696,14.249,5.255953,-5.175626,-5.485133,-2.183756,-12.62864,3.843376,-9.782602,-9.527901,-11.12045,-15.69911,-19.00065,-22.60355,-25.88587,-31.45221,-36.38647,-40.64556,-56.72291,-51.84915,-51.58235,-58.11651,-43.75251,-69.19748,-49.29937,-67.88589,-61.24526,-70.7178,-68.31245,-75.56567,-77.2177,-83.40815,-82.83934,-83.66895,-82.49766,-83.56077,-84.79131,-83.7419,-83.7827,-82.55725,-86.29974,-86.327,-89.50849,-89.7179,-92.69049,-80.48459,-92.887,-80.99626,-86.23441,-89.01579,-97.68081,-91.56964,-100.0808,-94.67901,-91.39604,-97.11788,-93.86619,-97.00092,-96.33857,-99.26685,-86.92343,-97.37089,-86.52091,-89.94867,-80.63967,-93.22814,-93.4043,-92.50432,-93.8628,-91.28355,-88.02763,-94.7355,-90.87324,-96.27779,-93.88766,-85.39367,-91.06098,-80.65744,-80.5175,-72.38516,-81.43777,-80.05131,-75.79155,-77.54,-72.19657,-62.70793,-67.50687,-59.98895,-60.12499,-39.92161,-45.87951,-30.50272,-42.34006,-22.20819,-30.23791,-29.73189,-22.66658,-23.99141,-18.95745,-8.00055,-11.15611,-5.272611,7.472318,6.425092,18.43715,16.19462,18.45867,21.86902,24.87664,14.60961,28.88064,18.74282,25.64087,34.41085,39.87483,43.69961,49.73859,56.01862,47.62398,61.55307,54.50234,61.59217,55.72522,53.05966,53.40561,50.89801,48.82888,57.58797,46.28859,66.72186,54.598,66.90037,60.85843,55.7611,62.96959,54.60351,56.09539,49.73125,42.92069,42.31948,36.9593,34.21877,41.84131,40.62458,43.70836,47.49075,42.21341,44.86355,42.2285,42.99095,38.69442,37.66933,34.56529,24.76398,28.44678,21.04155,19.36852,26.73874,13.34083,20.88413,10.51867,27.39553,11.85795,26.55559,21.3537,17.43968,21.76165,5.292217,15.99021,6.643819,12.92997,12.81071,9.446583,11.34972,11.07938,10.33514,7.318171,20.17748,11.9033,23.94611,17.59005,16.8188,9.825943,17.142,10.84621,16.68363,21.03839,15.29796,21.91326,17.13601,21.50611,15.94988,30.39055,21.21129,35.01372,31.1466,15.65879,31.72882,20.56055,38.56495,22.69509,35.48671,25.28247,31.19399,24.36953,27.03755,33.46447,16.89538,32.65339,24.53213,22.62104,31.6533,19.3577,27.26985,19.79909,22.48952,16.656,14.27414,11.5506,9.252754,20.48919,8.28048,8.334984,13.42014,-1.175199,9.899653,9.507662,3.770621,5.725026,4.469287,3.667962,0.7465509,-2.287333,-3.981222,2.999296,0.9913712,4.523822,-7.047114,-6.995493,-5.790223,-8.376774,-0.1832233,-10.88609,-4.681238,-7.398802,-8.491262,-10.06603,-12.99441,-14.34982,-7.331176,-9.559826,-5.801462,-14.77483,-17.358,-12.81713,-16.93124,-8.732072,-19.22965,-12.83052,-17.75188,-15.82014,-20.44481,-21.88034,-26.71033,-17.24579,-22.6594,-30.61334,-20.06888,-41.04345,-14.68969,-38.78715,-22.80518,-37.77917,-30.04814,-38.53791,-36.40208,-42.5199,-44.74493,-47.10766,-44.8174,-44.83266,-36.36058,-49.05102,-38.55948,-45.85197,-41.43178,-46.31545,-46.39418,-51.13634,-49.04041,-54.66823,-53.97947,-59.22516,-48.34865,-68.19349,-47.61281,-61.38067,-50.01782,-59.97549,-54.20666,-55.85563,-56.31136,-56.70423,-58.24558,-59.29528,-67.57717,-64.65191,-55.21025,-51.74038,-51.60722,-54.41537,-46.59428,-51.87561,-48.11657,-49.90999,-47.09405,-49.107,-50.01989,-46.03236,-43.35984,-38.75083,-31.42503,-33.88765,-27.22695,-25.94335,-21.19457,-20.79702,-16.65472,-16.01054,-12.97282,-10.42708,-9.86954,-9.398168,-7.390996,-1.066509,1.452537,12.31375,7.041423,17.00769,14.62993,21.54092,21.41828,24.14125,24.03705,25.17767,27.29018,25.85504,25.26285,27.63787,31.67393,34.33774,42.25858,39.07489,43.97029,43.86408,45.70835,47.03108,35.53382,46.7421,38.69631,44.74415,51.40747,45.41002,63.61538,54.65369,71.30573,66.83583,69.16865,72.53546,72.64664,75.60798,63.45769,73.74061,63.77725,71.0838,76.20379,67.19677,88.50767,74.54767,90.94937,72.79714,90.18886,74.99444,82.64625,64.79286,77.37632,74.63856,69.03425,67.95888,78.47957,72.24519,80.89395,67.20608,73.75961,65.64982,58.72087,61.89947,52.70059,64.13978,47.49913,55.15367,45.24117,45.24276,37.2698,34.91215,43.03478,33.44059,39.08242,19.92239,20.62126,16.80326,11.23507,14.62817,7.011768,4.604079,3.075682,8.704646,3.635177,7.47521,-6.457236,3.972512,-6.206366,-3.941886,-11.44819,-21.59667,-16.14203,-25.88545,-22.37321,-21.2739,-16.76261,-17.80154,-11.40806,-14.4237,-16.21056,-10.99787,-12.88918,-10.75098,-11.99958,-23.15534,-12.18547,-18.27897,-8.347169,-15.98043,-10.43364,0.7245182,-2.916896,10.28642,4.541771,4.999495,9.259034,12.42034,12.70369,12.14985,6.651654,4.898122,8.629984,4.163755,8.906972,4.929522,18.10379,11.15743,21.46807,13.27946,10.28159,11.689,11.00095,8.601591,-3.851901,14.96577,-0.8486685,16.20453,19.14281,8.246384,18.94373,12.07865,20.20541,14.75992,17.50325,11.46276,12.77253,10.28942,-2.682751,17.83903,-1.214934,15.73984,19.19003,6.972638,21.25766,8.576047,17.59436,11.94163,15.66288,8.777604,9.09156,6.305365,19.08421,11.10474,-4.535631,7.755805,-5.54459,2.96561,-1.159785,2.423297,-4.668635,-1.313074,-3.734149,9.212048,-1.624858,8.30622,-9.640368,7.10236,-6.141203,0.3314086,-11.06765,-14.01958,-10.52862,-16.7729,-6.325076,-22.44497,-13.39272,-7.98446,-8.800229,-4.550179,-12.92321,-9.421907,-8.420188,-9.025554,-20.78556,-11.87284,-23.22261,-14.86972,-11.41433,-18.28941,-15.89799,-19.79568,-3.46195,-13.88246,-1.179458,-10.2959,-9.975392,-5.891867,-19.24353,-7.438193,-20.85647,-3.002235,-20.99039,-7.22104,-19.57517,-14.25378,-8.408472,-11.83698,-5.64201,-15.47703,-19.978,-16.25782,-21.60495,-18.39246,-16.19958,-22.98225,-18.79099,-21.95312,-23.22107,-26.57214,-30.2047,-25.83966,-23.68885,-37.15261,-22.49099,-39.42876,-21.02574,-38.32618,-26.0453,-37.20846,-31.92303,-39.18089,-35.75807,-42.5519,-54.28097,-35.26763,-53.00205,-36.08831,-35.87499,-45.16271,-37.24368,-43.15129,-40.12316,-43.54733,-44.87341,-46.98676,-50.47883,-50.40314,-65.44749,-42.98662,-63.65909,-45.62602,-44.40151,-55.3972,-42.72844,-54.33988,-47.44826,-53.1316,-51.18361,-56.39339,-55.65563,-60.00055,-70.73214,-66.06049,-77.56935,-62.81662,-65.6433,-63.55716,-59.10629,-64.15954,-63.93828,-64.75839,-65.05692,-66.86213,-69.46888,-69.11262,-72.28361,-70.96821,-74.56454,-77.29329,-81.49952,-91.31158,-75.42018,-88.57627,-69.12421,-96.68137,-76.00871,-93.09982,-83.74501,-96.13197,-92.06504,-99.11408,-98.16999,-104.1861,-105.1941,-98.00491,-116.0862,-97.75723,-108.4434,-102.7213,-106.105,-103.5985,-103.8081,-102.8857,-102.7749,-104.6252,-103.7385,-106.7387,-108.6299,-91.67326,-89.98442,-84.12215,-89.11569,-73.38088,-79.20666,-69.76957,-71.76811,-60.61829,-60.93742,-65.47764,-53.68022,-44.07599,-40.498,-16.91817,-21.28842,-10.80112,-3.472004,4.214471,10.77181,18.29318,22.78924,28.87823,32.76726,31.83328,57.45188,47.94493,81.73278,58.20129,92.88215,78.24111,97.79071,91.84885,104.8537,102.9314,109.6281,123.5353,116.3469,127.9861,132.3693,126.9884,148.1097,134.6154,149.8218,144.6523,152.4333,147.6357,151.7981,148.5289,151.6025,160.943,141.8897,162.2801,149.4765,151.7074,160.3237,148.6311,154.3762,146.5525,146.9319,129.4009,136.7234,121.8411,126.2497,129.0934,137.7546,131.4667,141.9557,126.1577,144.178,130.8967,141.0363,132.5216,139.8532,135.7286,128.0108,137.4659,126.4616,133.0549,137.3246,129.7362,135.5667,128.1009,145.0457,133.7097,143.0839,128.1677,137.4305,126.277,130.5332,110.0773,121.8441,102.1035,107.5185,107.2676,95.951,95.00598,85.85965,95.41675,82.19048,87.17443,70.04843,72.96598,59.96926,48.53377,44.70355,34.00793,27.73113,30.31002,21.04589,28.35876,16.73795,6.898667,6.472525,-3.881928,-6.968519,-17.49175,-23.02574,-29.65713,-37.66422,-43.35938,-38.92932,-51.5456,-57.85373,-53.8176,-73.84151,-54.21635,-79.00011,-66.57649,-80.31236,-75.32683,-85.87771,-83.46821,-90.75508,-87.78033,-84.68632,-88.53919,-94.24162,-97.88066,-92.95717,-96.1302,-83.82659,-89.28924,-80.28727,-79.44314,-71.53456,-71.46148,-64.22546,-59.19663,-44.27779,-41.61384,-39.66643,-36.3998,-26.92814,-23.10681,-3.807395,-11.00379,6.93207,3.809849,17.24794,16.494,22.80279,36.15855,28.88636,38.27659,41.56233,34.02653,41.93085,47.77527,42.4828,50.05018,61.6615,57.45413,69.6848,69.9999,81.29954,66.62357,82.84382,67.08271,73.42782,69.1922,68.65723,74.8041,64.82319,69.37513,63.87259,78.26489,63.30206,74.99843,67.26879,60.5573,61.53535,50.20777,49.6646,38.57149,35.64876,14.77706,16.9094,-2.419661,-3.619597,-8.600823,-8.292583,-21.06384,-17.42454,-26.18783,-38.23145,-38.07243,-51.05822,-54.41496,-64.25995,-68.90801,-77.79868,-95.95802,-93.56551,-108.9897,-94.56844,-101.2574,-99.96719,-98.68124,-107.4741,-98.78654,-107.855,-103.6322,-109.1563,-109.576,-112.6246,-109.3214,-108.6853,-101.3606,-104.7288,-97.18446,-99.32517,-95.42232,-97.02663,-80.22998,-84.70001,-70.39742,-95.09709,-67.5408,-85.01506,-57.55293,-77.11929,-58.60798,-72.61338,-60.34299,-68.75495,-61.14738,-67.41807,-58.8574,-58.67264,-50.05987,-43.57425,-43.49112,-39.66114,-35.66736,-32.41681,-31.67184,-28.89534,-31.88632,-27.4735,-30.48635,-41.78627,-17.31976,-38.91284,-16.55566,-15.87934,-24.99888,-12.8656,-21.67008,-15.39891,-20.7625,-19.96681,-25.23684,-27.0921,-26.42381,-21.12029,-37.72516,-21.74204,-34.08799,-36.51044,-23.00452,-37.94702,-30.16653,-39.10834,-36.41994,-40.62575,-41.86834,-45.48044,-49.1184,-47.41912,-41.95617,-57.40531,-39.83462,-63.1626,-45.08345,-47.98662,-49.33219,-49.63822,-51.61914,-52.1573,-52.79234,-54.94102,-57.91011,-60.25286,-64.86254,-72.72821,-70.68599,-65.35934,-61.83126,-62.51167,-54.73325,-63.71075,-52.58829,-61.15775,-55.40793,-60.39336,-58.43116,-62.85053,-64.63333,-68.56954,-69.94154,-74.072,-79.0672,-67.61591,-80.60665,-77.14929,-76.39112,-87.18834,-69.24088,-88.19383,-73.21554,-85.19933,-77.30715,-86.46945,-80.1799,-78.98987,-71.44008,-73.1824,-69.24352,-83.77505,-64.7606,-77.342,-57.24993,-69.59171,-55.78161,-59.51566,-51.95892,-54.244,-35.11855,-42.61701,-24.5192,-38.59066,-29.34793,-29.244,-23.86952,-11.05097,-16.2985,-4.121424,-6.061339,14.43964,9.643213,27.17626,25.61115,30.7807,26.53106,40.37675,36.42683,52.16317,48.67743,57.83508,58.94705,64.59126,80.98596,73.30144,92.85952,91.4286,82.013,101.6585,90.98465,114.6757,98.43329,118.6487,107.5405,118.3255,111.8915,117.6581,113.7549,129.4717,107.1507,131.9473,117.0223,122.2489,130.7604,122.135,128.8425,125.2394,127.5524,123.6787,122.9807,119.3064,111.1163,103.9932,115.1644,98.19681,109.9997,102.32,100.1206,112.923,99.98095,110.2996,103.4322,110.0964,104.4848,109.2833,105.116,110.8117,118.144,117.7664,114.2208,115.3848,120.5178,119.8474,131.6677,122.0633,130.3271,125.5911,131.0748,126.0151,127.9625,122.9888,124.2478,119.2923,107.0719,113.2542,98.8115,102.5715,117.6435,101.9299,116.3469,91.64862,109.4237,89.69087,97.16308,80.08914,82.76998,69.36887,67.45946,55.84163,50.19834,38.69857,44.2449,19.78461,31.4054,4.053681,22.68392,-6.482575,5.928912,-14.79734,-11.0878,-27.30851,-26.78843,-38.44864,-42.87126,-51.35127,-54.06253,-59.06989,-70.79571,-63.98982,-67.67355,-69.40737,-69.63835,-68.76142,-69.14871,-68.76564,-69.75547,-55.10825,-59.81937,-45.51444,-52.71541,-43.07319,-45.26638,-43.26587,-36.2601,-36.39054,-28.77855,-15.47896,-18.46901,10.04319,2.511053,24.92777,11.46081,38.4946,28.48093,45.3532,41.22026,51.80625,43.17665,54.70205,48.88407,69.56568,70.31614,77.786,84.00907,76.63205,87.00761,79.78118,85.16,78.08865,77.56048,69.25476,55.16272,63.75353,55.66357,66.58591,53.72842,62.56735,57.01529,59.63025,44.53763,50.61639,35.96199,39.54858,15.29207,25.50212,3.31629,6.401072,2.899607,-9.301135,-12.11762,-7.90211,-21.03487,-15.30739,-22.92532,-33.92385,-34.65013,-53.58862,-46.85249,-62.33525,-48.74408,-71.02897,-60.63098,-73.57925,-68.4992,-63.36493,-68.62577,-60.75091,-58.99372,-66.81321,-69.22394,-66.11927,-69.51914,-67.24634,-56.85286,-65.85413,-55.59367,-60.90976,-54.91582,-55.70787,-54.00517,-54.29318,-53.801,-62.31915,-40.95062,-51.69446,-31.12996,-55.56349,-29.60311,-47.7812,-34.64217,-46.38667,-40.67109,-49.25455,-59.74797,-54.7156,-51.30678,-56.92321,-37.84702,-48.92052,-33.90586,-49.52932,-35.4063,-45.82221,-37.46634,-45.45549,-43.53463,-46.63424,-46.31832,-61.67302,-51.31736,-67.14596,-62.36309,-55.62752,-58.08791,-54.35802,-52.98339,-51.24905,-60.23913,-49.73503,-59.15245,-56.1322,-62.14176,-70.22985,-64.94705,-74.63225,-62.1642,-80.71886,-69.90365,-71.37575,-68.43486,-69.57353,-66.40807,-78.97426,-65.63762,-78.77127,-82.56025,-81.53527,-86.09724,-85.59568,-79.23566,-89.14079,-84.12503,-77.20913,-79.61507,-72.12499,-86.99503,-74.08916,-85.82469,-78.68364,-85.41691,-96.00324,-89.95593,-99.76527,-96.87802,-77.90639,-96.06494,-77.53324,-86.07011,-86.5244,-82.61868,-87.0799,-86.76131,-88.84988,-100.0952,-91.36582,-102.4232,-84.07572,-91.03852,-82.2698,-80.55783,-91.42233,-81.30597,-89.0028,-83.66334,-87.13246,-86.91188,-91.64129,-92.59372,-96.53706,-97.88626,-90.12869,-100.3737,-91.85258,-95.12201,-102.8398,-110.1445,-108.4602,-116.6093,-112.8501,-109.964,-118.1256,-114.9993,-119.2353,-104.6278,-113.9359,-104.1749,-116.3041,-104.8276,-122.5584,-107.2438,-118.7081,-110.2253,-104.3185,-108.3137,-84.94453,-94.96538,-75.82308,-76.65422,-73.10314,-61.95939,-62.02112,-52.34425,-55.64431,-46.67995,-42.95608,-35.20598,-23.25053,-24.91382,-11.98,6.642322,5.453389,24.01801,29.54713,31.25091,37.64027,49.87062,49.79644,74.39893,65.79541,87.13197,82.38144,97.21314,95.7118,119.6972,115.0481,134.6409,120.5197,136.6028,130.4075,143.6871,138.6005,157.2831,144.4535,161.547,152.4548,162.7759,168.7514,168.1517,177.2544,179.9864,173.9564,182.5968,167.1378,181.567,168.5073,180.2812,172.2874,174.1395,170.4682,166.7944,162.4083,160.6459,158.9477,160.2262,161.8055,150.6471,171.6161,150.8509,168.5077,156.8788,166.4597,160.134,164.2182,162.7794,179.5537,171.2165,185.6035,166.2778,177.9506,174.8283,176.7925,189.2402,178.8285,191.9704,185.8575,191.2988,186.2563,187.2685,186.8142,185.3561,181.4798,169.6684,173.1811,162.4708,163.2684,163.5384,165.0166,159.0009,163.9653,159.483,149.0601,151.5053,139.2795,139.0426,120.6433,120.8664,107.0608,100.9566,102.954,98.51636,94.48141,90.74164,86.9025,71.58879,77.17272,60.74902,60.52476,45.8179,35.50464,32.12998,21.52868,24.44465,5.849544,15.34899,5.115592,7.045637,-1.03809,-9.970587,-9.522215,-17.39012,-21.95592,-39.24374,-33.40555,-48.86131,-44.34453,-30.72643,-47.98213,-31.64868,-52.90863,-34.90327,-52.09472,-41.57217,-54.14759,-47.50845,-62.74409,-55.30523,-66.29795,-62.8926,-50.62911,-57.08177,-47.86923,-49.02924,-54.89492,-45.59954,-51.4663,-46.66084,-52.42305,-49.69696,-63.61176,-51.98958,-65.07887,-48.95765,-68.70134,-45.01507,-63.57327,-47.14969,-65.99,-59.97234,-70.57894,-69.66382,-75.08099,-78.34578,-69.52614,-88.80112,-69.39626,-80.89968,-59.84358,-86.77561,-62.29705,-78.97434,-65.54061,-75.84555,-69.75582,-74.53614,-71.04559,-73.28655,-84.35434,-76.0475,-84.36837,-55.85943,-76.60736,-52.10033,-77.88669,-51.54914,-70.09065,-53.74224,-65.26127,-58.34898,-73.17822,-60.26958,-71.8504,-55.79588,-58.47497,-53.14988,-48.30981,-44.8716,-52.1277,-42.23943,-48.47285,-40.99973,-45.88485,-43.57709,-56.27119,-45.22985,-56.51782,-29.04426,-47.18995,-27.82922,-35.12906,-33.73473,-28.37248,-31.61167,-29.89309,-31.2872,-39.33258,-31.8308,-40.84917,-27.8455,-42.31603,-18.55096,-32.60257,-16.69538,-35.50365,-17.40821,-31.06692,-20.0586,-29.8071,-34.11726,-33.06088,-36.76372,-35.61545,-31.07026,-25.40608,-27.61899,-16.85077,-17.07572,-22.86364,-14.08265,-21.87303,-16.36391,-20.64513,-29.70182,-23.85704,-32.71981,-28.14654,-13.10655,-23.44181,-11.02698,-14.65746,-16.62742,-11.363,-15.45276,-13.63333,-18.1427,-15.21426,-31.65385,-17.92265,-33.92359,-25.29709,-11.12701,-22.62077,-7.171717,-26.20716,-9.54678,-22.63232,-11.93488,-22.80347,-16.64132,-25.45991,-30.92433,-28.60061,-35.774,-25.62704,-41.00353,-19.23352,-33.22226,-19.94717,-38.82315,-24.52035,-37.37798,-29.4136,-38.68218,-36.6683,-43.08027,-42.30509,-58.42928,-49.19313,-50.13971,-52.56267,-36.64346,-60.3693,-38.38673,-57.5022,-45.21468,-56.30752,-48.22197,-56.80198,-55.3841,-58.18115,-44.7284,-51.91546,-40.11562,-55.14328,-54.27997,-52.54308,-55.53255,-46.07501,-52.85021,-47.83811,-51.5821,-48.33839,-51.59263,-50.51972,-41.77039,-47.69244,-36.91633,-51.77025,-48.62195,-49.67044,-49.4571,-48.90213,-39.51356,-49.2853,-39.60217,-45.67869,-26.17559,-37.54085,-20.85017,-38.2696,-17.41364,-40.2383,-17.66741,-34.53583,-19.00164,-17.08568,-17.85207,-11.77308,-14.50618,1.995847,-3.202487,12.53725,9.816598,10.92048,17.93137,17.18774,11.53815,22.92709,15.75785,21.82348,32.27649,24.98571,34.95337,44.20803,41.03122,53.72453,55.49443,52.09784,61.42395,55.9651,60.78158,51.76293,62.13741,52.99796,69.29226,54.15388,67.65274,72.91527,69.84338,77.57775,78.54768,72.92446,82.86153,75.78518,79.21277,65.92493,78.67422,67.51625,82.49315,65.0838,78.259,79.74898,82.12647,83.91985,71.68799,73.00943,73.17892,69.64913,70.29607,79.39952,66.95644,79.72075,69.86891,76.6566,69.46476,72.76843,69.63374,84.64859,74.32542,86.45167,72.18679,78.8524,78.42506,84.53465,82.87617,86.07912,87.47254,89.74345,90.20445,90.86732,90.26179,91.40772,89.36415,87.79522,72.46041,95.13303,75.19259,96.22968,80.76057,87.20049,79.54386,84.05855,76.23326,76.16408,68.1465,66.46104,52.97652,53.92989,43.45568,64.27007,39.18255,58.50681,42.52049,43.09218,37.39252,33.61919,30.22577,24.05528,19.48506,13.07832,-3.65811,1.239567,-0.5830197,2.9569,-2.018286,0.7452264,-14.8005,-1.652498,-18.62177,-11.95732,-25.39519,-21.70992,-28.96708,-28.83991,-35.67622,-37.61441,-51.15515,-33.00884,-51.10025,-38.32,-35.43764,-51.7063,-34.85851,-48.76916,-40.28297,-47.87333,-42.58965,-58.39445,-45.25958,-59.33764,-37.93987,-55.84668,-28.70969,-44.0387,-23.68325,-44.66517,-19.60091,-36.44432,-19.99401,-31.37506,-31.47378,-27.00722,-29.75067,-24.65021,-23.23767,-25.08089,-9.772637,-17.44231,-6.867833,-20.74281,-8.805689,-19.82,-12.77972,-22.08329,-18.88265,-35.31199,-12.35998,-30.50545,-7.506376,-15.35551,-18.88636,-9.401105,-15.15088,-9.684776,-15.54592,-12.75062,-14.9334,-14.1371,-26.73309,-18.51603,-30.13816,-10.23869,-13.59189,-6.707689,-12.58713,-8.83389,-10.51438,-7.615511,-8.889719,-10.8042,-10.07954,-16.95622,-16.26497,-20.4141,-22.08013,-0.5488253,-19.31958,2.513089,-11.47507,-5.864933,-9.765474,-6.950576,-10.07936,-7.943054,-13.28195,-13.02872,-26.883,-5.972442,-20.03014,4.732189,-26.19476,1.949182,-19.40171,-0.5735353,-17.00386,-6.03409,-16.49645,-10.00107,-16.8657,-25.04737,-21.64787,-15.72295,-18.7186,0.3416706,-21.57802,-2.60986,-15.23731,-3.166277,-12.21905,-6.050835,-13.03319,-6.461337,-10.51132,-8.845754,-25.83299,-14.09186,-31.53396,-10.90088,-15.6495,-13.78761,-10.28447,-22.41128,-8.04546,-20.78573,-13.16639,-23.24647,-18.75384,-33.12737,-11.69371,-29.06646,-13.60273,-25.47701,-12.71182,-20.78296,-15.29892,-21.33086,-17.28895,-22.35507,-18.75034,-25.87333,-25.22268,-18.39119,-32.10283,-16.72549,-30.32544,-15.6108,-30.01727,-18.05767,-26.59989,-22.46372,-28.25664,-25.71292,-28.99183,-28.95217,-34.48066,-36.13561,-36.76341,-33.61668,-33.1207,-26.75013,-38.08549,-27.38151,-36.12353,-29.61398,-38.26896,-33.18025,-40.6667,-36.96921,-42.08611,-28.94276,-52.03862,-26.83161,-43.63572,-34.28376,-33.05952,-35.92613,-32.42644,-32.51897,-31.43116,-32.3386,-30.80356,-31.75951,-24.81835,-23.19902,-18.63108,-18.34455,-26.75839,-16.28254,-24.79824,-30.95554,-26.17021,-34.02274,-29.96973,-24.19871,-34.83332,-28.68685,-36.26352,-17.63124,-31.20566,-15.2719,-37.9473,-17.61406,-32.75484,-33.23721,-32.47838,-37.90372,-35.65314,-27.83804,-36.54171,-29.01199,-23.65333,-25.12213,-16.05953,-14.73742,-20.67978,-10.95615,-18.31801,-19.99831,-13.4676,-20.29358,-3.229811,-19.95219,-2.871464,-14.08525,-5.332187,1.450571,-2.058316,10.84646,10.83398,6.104389,5.633342,8.902833,9.634329,22.44098,12.3948,22.72806,17.5073,25.16013,32.63163,35.20514,40.32811,46.14925,33.54754,47.88884,40.309,47.74225,55.52289,50.6457,59.78142,54.47993,61.0126,56.90483,63.73735,71.19362,69.22452,77.85536,63.21294,70.94007,67.42827,70.60064,75.58734,66.18035,73.38689,66.43556,58.25576,63.92081,54.94521,72.12769,71.67383,76.76705,69.35144,78.22094,73.52154,78.47674,74.79865,76.76352,72.35873,75.44673,71.48915,59.78154,67.08572,68.17687,65.86076,83.40178,69.25119,77.19644,72.19389,77.22173,75.16606,78.03302,73.48132,74.01085,60.76056,68.78449,58.03725,57.36852,62.39492,48.37507,56.51734,45.76607,61.05408,43.43381,56.72962,46.13247,39.67784,38.82927,29.03831,28.54175,18.99037,16.12402,6.458334,0.3333108,-18.78027,-16.1205,-18.71007,-27.92066,-28.06494,-19.99002,-43.2554,-25.30919,-46.56665,-34.54834,-48.69238,-40.18248,-50.58728,-46.05692,-54.85696,-54.09853,-50.86189,-51.49328,-39.10589,-56.05615,-36.24644,-48.62256,-35.16275,-44.55946,-35.67586,-39.75774,-32.8762,-49.30103,-32.23292,-32.36172,-14.26407,-20.87596,-14.50982,-11.98832,-8.788334,-7.221369,-3.293427,-3.44338,-12.85848,-3.274964,-12.0076,13.58866,-0.3801766,18.04803,11.20993,12.06962,17.58478,15.77108,17.70076,14.15345,13.17156,3.416937,8.868906,-1.416153,9.898591,-8.81717,13.69277,-5.653096,6.157281,-17.20153,-0.9680527,-20.22139,-10.6719,-23.17666,-13.87457,-21.51088,-12.13174,-18.65153,-15.66893,-20.48923,-18.81185,-22.89764,-21.4236,-27.31283,-29.14196,-33.17003,-45.35171,-39.77496,-37.55841,-43.61895,-24.5647,-37.68793,-31.68007,-32.79198,-32.75072,-32.08154,-32.13956,-31.2508,-31.70926,-33.19336,-42.96988,-20.86288,-32.87749,-7.773884,-17.05442,-10.79276,-3.095363,-2.109708,0.5832111,1.307409,2.768403,3.953523,6.975748,-7.138767,4.810106,-7.147084,0.2785722,2.294542,-5.501141,-3.960677,-9.833502,2.671125,-7.961718,2.501616,-4.989578,3.940003,-12.28198,3.141049,-24.58312,-2.882542,-25.95295,-12.09972,-14.75328,-18.19603,-19.31788,-22.20186,-17.87742,-13.72735,-16.65579,-19.7267,-20.84543,-20.28941,-22.49932,-36.19569,-26.86846,-40.05439,-33.70582,-31.18573,-22.62353,-26.87021,-18.98583,-31.41339,-16.22631,-29.50974,-20.47652,-29.83256,-23.66272,-28.8499,-38.02337,-19.13985,-34.72597,-16.10788,-25.35574,-15.01671,-20.5519,-13.67949,-16.43468,-12.21304,-14.87827,-13.39021,-16.13915,-11.71985,-3.924699,-7.027823,-10.81054,-11.77911,-6.531929,-8.861112,3.290744,-8.132421,2.074577,-4.568601,2.859779,-3.679472,16.33901,-0.6327342,13.7574,11.08681,8.912914,25.27357,14.9222,27.71203,23.56022,31.31397,25.70386,34.60205,30.18232,51.45086,40.73133,46.39477,54.37882,43.43901,71.33362,51.81372,73.4301,59.97513,75.91654,68.01471,77.73291,69.45259,77.25344,86.0129,73.19104,93.24453,72.38317,89.57502,89.28599,88.12775,89.21815,88.37295,86.49646,75.22264,85.75218,71.58615,94.10786,86.86595,96.19517,99.1597,92.15019,103.4703,94.25072,102.928,99.3368,101.1867,98.50973,97.27932,86.48878,94.35826,82.62779,112.2016,83.09008,109.853,95.38525,97.99596,95.36116,94.26747,90.32776,89.24854,83.93797,70.98501,73.924,61.40919,62.04372,61.18788,63.13291,54.95769,60.95091,56.6009,45.74786,49.63003,35.61638,38.35721,25.89959,14.67945,12.94474,0.9513955,8.705138,-11.26191,-6.561781,-8.553148,-15.90816,-13.38177,-17.66164,-29.34539,-25.31473,-40.67987,-48.34239,-48.81185,-59.11961,-52.4686,-70.5544,-65.20059,-77.99237,-77.16277,-89.41126,-76.21299,-95.96851,-82.83746,-95.71259,-111.5903,-100.6235,-104.4642,-109.6471,-108.2489,-115.2056,-117.9892,-118.5287,-113.5431,-117.8021,-113.0406,-127.197,-117.3713,-127.0103,-134.0931,-129.7724,-137.1411,-135.6289,-127.6618,-137.4108,-129.3742,-121.6898,-125.0733,-112.9058,-124.0009,-109.8722,-120.4358,-109.235,-115.9173,-118.7492,-113.283,-118.6866,-115.1582,-107.2172,-101.353,-100.9132,-94.34122,-91.57262,-99.31938,-85.65771,-95.42232,-87.43566,-91.28205,-81.92887,-81.77414,-71.6882,-70.62886,-61.38845,-59.01569,-50.54895,-49.01935,-44.56258,-40.37364,-35.85544,-33.3856,-28.73818,-29.85603,-24.31014,-20.6689,-14.1106,-9.203131,-4.820853,-3.329804,4.595269,5.035321,9.171554,9.025922,11.44942,13.58509,14.63298,14.82346,15.83435,19.64741,23.80181,30.1036,28.91926,33.43105,31.95417,36.29657,35.12415,35.32388,33.522,32.53811,31.11955,19.63037,39.79736,20.80905,38.85821,24.90559,37.43685,26.04012,32.63971,24.04143,28.38075,21.66155,22.39543,13.62347,15.39605,22.47362,15.36111,10.68698,5.796542,7.266564,3.721014,14.92223,2.256213,10.57748,2.3194,10.37313,6.246113,8.213811,19.44688,12.17693,10.02158,16.44298,9.042068,0.8134352,6.89097,-2.212945,2.742056,4.05979,1.518686,1.335354,-1.546895,-7.196696e-05,10.22641,0.8603697,12.20126,8.602724,5.814347,8.743801,3.687423,4.930278,-8.21809,2.830835,-10.95459,6.310704,-14.99536,0.5815909,-14.89356,7.306628,-13.78419,6.136531,-6.287679,-3.415035,-3.372787,-6.905729,-19.69687,-9.876458,-20.31167,-12.0359,-13.12064,-15.34078,-14.76001,-1.135309,-7.415781,2.246919,1.20983,-4.368257,7.451618,-2.864533,-5.226406,-1.830543,-5.45875,-2.419774,5.686707,-4.645319,4.783193,-1.895772,16.12387,6.922368,20.34089,1.326316,17.36428,0.08975941,15.16729,0.5350767,22.88376,0.4906497,19.93514,4.241126,14.19151,16.21678,16.31885,21.82241,22.18901,15.63639,11.80969,17.32703,10.6112,16.35338,17.98124,12.91493,16.91628,14.33674,27.74412,18.93294,30.4238,26.99144,24.86193,18.71623,26.10292,15.61656,23.76672,17.22595,31.66481,17.21049,30.67265,19.46605,27.67341,19.30813,36.08515,23.44516,39.14268,32.35206,30.61529,22.9364,31.05705,23.02689,27.73669,33.30355,26.06211,31.36083,27.05422,29.84807,25.54826,24.93262,35.1764,26.70767,38.1537,22.713,32.36523,21.98894,29.26155,34.66802,27.99113,34.70452,27.18759,32.64565,28.88934,30.51383,26.16923,25.39346,14.47782,30.20789,18.24796,29.71011,21.16208,27.21337,22.39871,25.77388,21.89932,20.96701,18.75897,18.95496,15.0292,13.29819,8.252336,11.846,12.16333,15.98707,22.82991,8.069352,23.47543,12.37606,22.23853,11.87987,17.97837,11.20438,15.55477,9.254409,-0.2418866,19.47132,1.656997,21.59929,21.88117,13.721,24.45143,18.04688,24.44196,22.11368,22.0445,20.77963,21.60262,26.31187,20.10986,30.50168,26.33169,20.19788,29.88698,23.52403,37.93716,24.34165,37.77233,29.22805,39.69896,32.23081,37.76354,46.34817,35.17402,52.49255,43.56259,46.83584,58.99428,49.67777,60.47423,54.52071,58.45419,54.09846,57.12137,52.40921,67.27079,51.80802,66.80974,48.38294,69.0115,42.22189,73.89238,40.55444,66.28085,42.42288,57.59901,41.11728,46.4743,35.22679,36.97218,26.77081,38.51334,10.72468,31.06404,12.77402,18.07067,9.813719,7.292163,1.69439,-0.7949821,-9.08879,-14.00089,-22.30492,-25.18977,-32.56412,-21.60491,-38.11897,-29.46915,-39.56894,-46.02908,-48.27614,-59.15384,-71.57272,-71.13624,-85.10412,-83.24657,-91.29884,-98.41205,-93.27773,-97.34767,-98.61322,-98.59836,-112.5742,-102.7736,-116.9477,-109.7152,-124.801,-127.0023,-129.0403,-132.5664,-132.8733,-127.4986,-135.9341,-114.4332,-127.9187,-107.9222,-128.5502,-104.4217,-119.9165,-102.5254,-111.3385,-111.8293,-104.7954,-108.0077,-100.9928,-90.43842,-82.24048,-79.41013,-65.88922,-60.38444,-61.30017,-49.20724,-49.86751,-41.7577,-51.09989,-34.07768,-43.64545,-31.80587,-26.19387,-29.47273,-7.896516,-20.28971,-1.195893,-6.710405,9.631048,7.412176,8.106608,13.63651,4.27981,19.48657,11.11262,27.63519,14.49617,28.70073,31.11854,36.96096,38.9574,44.32349,31.47702,43.02909,36.30026,41.4599,48.25287,40.69068,49.91923,42.79154,47.03648,40.30015,44.45736,51.90385,44.76202,53.57845,34.51497,49.95217,34.28871,44.85257,29.6667,23.49026,24.89614,15.78744,16.62706,19.59634,6.426664,25.25726,9.797761,24.32307,5.768746,16.97978,6.586884,14.32367,6.075143,12.60814,-5.913548,12.16308,-4.748735,10.53152,2.230484,5.285365,1.105325,4.978613,-0.9760784,0.4045321,-5.355794,9.26881,-2.155498,-0.01760471,0.9175349,-6.576553,0.472957,6.372727,-1.257629,7.050782,-0.07407303,4.78218,-0.06059693,3.688855,-2.877978,-1.762067,1.569232,-4.773992,6.420179,1.635519,9.791394,4.243644,10.83298,10.37449,11.06902,10.66105,10.44538,11.66305,9.417015,8.012492,19.62276,8.79797,13.82969,18.20935,9.522816,23.92907,10.75515,23.58871,14.14767,21.25989,12.63651,16.88393,6.541773,22.70922,8.259885,30.94099,18.75566,20.70792,25.18698,22.05816,23.8141,20.35996,22.67035,19.05871,19.0709,2.795609,14.27698,12.92985,13.64155,23.86495,6.683139,21.8985,9.161678,19.25158,8.926029,14.09033,8.117779,15.3249,6.469633,17.1179,11.15518,6.452271,26.48121,6.281627,25.0884,8.313885,23.08619,10.92674,20.95324,13.06799,16.7775,12.09894,6.895076,8.042464,1.769753,1.842206,22.14973,3.890883,25.94931,14.87483,14.60464,17.73394,13.52373,16.24918,12.38458,13.16469,8.105301,-0.3312609,4.489023,-5.414758,6.781267,2.451357,6.120781,8.580832,6.631565,1.434512,4.434905,-0.16928,0.454365,-4.479727,-5.593712,-20.23019,-13.11486,-25.34958,-3.126792,-18.70263,-5.576753,-9.69926,-14.82586,-8.086377,-16.62376,-13.00559,-19.7236,-17.58339,-35.64528,-24.98965,-39.88769,-27.34015,-20.54436,-24.69877,-14.6352,-31.329,-11.7883,-26.71911,-13.73176,-26.22161,-18.21244,-25.81348,-21.50862,-37.48922,-26.41551,-41.3825,-32.56111,-19.32409,-31.08984,-22.87216,-33.84565,-24.92213,-32.85031,-39.48599,-34.89795,-42.74395,-37.76006,-24.21876,-27.59443,-17.00508,-27.88157,-17.416,-22.56295,-18.71331,-24.89891,-22.65173,-29.16837,-27.64864,-34.71501,-34.06405,-28.1452,-34.87765,-27.7331,-32.40614,-39.41213,-37.66367,-54.02537,-44.15297,-59.05103,-44.18541,-64.96108,-53.58445,-67.3393,-47.54445,-65.98451,-50.79576,-60.46181,-62.40545,-59.30464,-76.29145,-61.28504,-77.4899,-64.57535,-64.88951,-67.65509,-63.351,-66.45371,-50.85909,-54.91663,-43.76045,-43.05333,-46.06351,-34.12056,-49.6711,-29.54181,-42.69408,-28.41658,-21.52521,-23.13193,-14.42754,-15.50758,-6.861024,6.540506,6.540517,19.57148,8.639511,28.20405,13.95739,29.48016,23.2001,32.31038,41.3441,37.57374,47.85462,44.54054,51.17267,61.05591,61.76631,71.72841,70.66827,70.52623,66.9283,74.82052,69.91259,78.85179,74.23323,75.88106,75.02621,65.52961,89.11434,71.17401,93.48092,96.8017,90.86673,104.0225,96.26525,106.8464,99.73064,109.424,99.45868,104.9106,97.20096,99.92567,81.80407,105.5616,79.37181,99.05371,94.26335,83.44914,92.41192,79.40506,84.80117,76.14606,79.72777,84.71778,78.75619,86.24887,78.89171,68.8179,75.37436,63.6785,78.26919,59.72661,72.65666,58.75096,64.82814,53.61973,59.36342,49.80294,53.11253,41.59472,41.87711,24.21383,31.82099,17.5279,25.85998,6.946126,28.86931,7.449219,24.26204,-3.113006,13.90925,-7.117159,3.457922,-13.78385,-9.568509,-33.6472,-21.76998,-42.50217,-25.70789,-33.39535,-33.55712,-32.34144,-31.60944,-44.16426,-35.93026,-46.29871,-41.46249,-48.71874,-47.71485,-55.24824,-57.00889,-69.02511,-61.33198,-58.57791,-51.60799,-56.04491,-41.97515,-57.28574,-35.94541,-51.2008,-33.86264,-49.4863,-36.11847,-42.81149,-24.21798,-39.25891,-20.53757,-23.08677,-7.872522,-10.4641,2.216155,-9.878201,10.57885,-14.37902,12.68273,-9.963512,11.51564,5.955297,10.89435,7.080439,9.069877,18.57508,12.57027,21.47728,11.36516,15.71396,12.20057,3.248961,26.4101,6.990452,26.83652,29.8645,19.79352,33.44447,24.06558,30.37834,25.25148,29.7983,21.75122,26.04981,17.40194,20.29833,0.9458787,28.55942,1.445045,23.76964,20.39155,11.04427,22.46286,9.166456,16.70149,7.151646,12.36998,4.466266,4.466272,-3.830404,-9.130161,-9.318556,-5.88885,-10.50899,4.933552,-22.66934,2.838856,-19.85073,-4.753603,-21.71855,-10.89066,-24.3995,-16.52644,-27.459,-25.60338,-42.34598,-19.03424,-39.46756,-18.14342,-38.23999,-19.91768,-32.122,-21.45115,-30.29421,-24.44183,-29.42176,-24.37998,-29.1232,-39.05546,-31.22266,-27.84821,-16.47755,-20.48897,-18.47555,-20.69003,-16.05684,-18.13288,-15.50878,-17.11943,-27.25578,-20.11954,-29.15079,-14.05741,-32.59253,-17.62333,-30.4879,-9.300833,-26.22419,-7.487858,-32.82551,-9.171376,-35.81129,-19.93516,-36.71357,-26.9755,-28.71848,-25.99607,-19.25741,-22.08167,-27.56827,-20.78161,-28.20581,-21.72684,-31.07505,-27.33609,-39.43043,-38.38107,-44.40188,-29.85499,-33.49303,-29.74254,-25.62421,-34.66985,-23.71274,-35.10441,-26.62356,-35.05639,-28.6992,-36.30472,-34.49211,-50.82927,-37.37644,-39.20094,-35.38429,-30.4294,-29.55862,-37.62025,-26.04441,-35.05429,-30.38115,-34.29759,-32.00816,-35.08758,-32.95815,-39.57323,-40.8076,-50.90381,-29.2162,-50.10515,-18.29911,-43.23408,-29.5896,-34.97747,-31.09792,-35.58346,-33.31061,-34.77651,-33.88525,-36.29191,-37.55854,-38.56125,-32.57581,-29.99549,-28.54966,-26.12809,-39.66797,-29.96736,-44.592,-36.59742,-49.75782,-30.3869,-54.72149,-33.43084,-54.95166,-42.35271,-58.83678,-35.04679,-53.834,-34.68481,-53.05931,-41.98788,-52.1819,-52.71511,-50.67479,-55.3213,-40.3176,-54.45792,-39.44218,-50.72519,-25.8651,-42.88226,-17.27218,-40.55261,-12.95675,-32.93967,-12.27711,-23.8871,-9.472581,-27.23205,-5.997376,-7.711058,2.877536,20.7665,7.21554,30.80234,19.97588,38.4908,33.30309,47.94263,33.5795,55.95783,44.99329,70.91465,78.23948,87.01691,100.3807,96.88312,118.9378,113.9905,131.2227,128.6391,142.1489,131.1889,148.9002,138.5732,150.2397,151.907,166.6691,169.6107,190.9393,172.184,204.5344,188.5967,211.9054,199.735,216.9296,208.4088,222.6192,214.4146,221.5535,204.8981,233.2636,211.5499,240.1388,220.0678,232.119,223.2656,230.4274,222.7073,224.2215,217.92,215.3867,198.196,205.6948,185.3379,189.5393,187.7093,186.6666,181.5291,181.2054,162.2848,170.9797,152.8958,156.353,141.054,140.7244,128.1316,117.1017,115.734,99.69067,109.7113,83.29798,93.51427,70.09398,73.30863,54.11467,53.82286,43.44627,44.91784,33.26949,34.26402,3.949504,17.3667,-8.025121,-1.71943,-11.17874,-18.0107,-22.07175,-29.9422,-34.11168,-42.33635,-47.05476,-48.45184,-45.74166,-53.65302,-58.93828,-68.43638,-62.85526,-61.3404,-69.76165,-65.79871,-71.4353,-69.40721,-72.92461,-74.31478,-76.57789,-87.91302,-80.34013,-89.68582,-63.76643,-84.48036,-60.51418,-72.11869,-67.30664,-68.17163,-66.77105,-67.09243,-65.00285,-66.50445,-65.40934,-64.86399,-61.63379,-56.53186,-42.08137,-59.52212,-39.97394,-54.16343,-40.88092,-49.92154,-45.5827,-54.10823,-53.09662,-61.92019,-48.11419,-74.9584,-51.83002,-72.02126,-53.32967,-54.03434,-53.54582,-59.75301,-52.15204,-60.43626,-54.10272,-62.18598,-59.26976,-67.08007,-63.86413,-82.62154,-70.53577,-88.09691,-67.03684,-74.93382,-69.01993,-75.50048,-73.73396,-74.93454,-75.8393,-76.95553,-79.45389,-83.17658,-86.24209,-89.35333,-74.40051,-87.84865,-74.20862,-84.20883,-94.57295,-83.8433,-96.77183,-78.60054,-101.9765,-82.73465,-99.91697,-87.58325,-102.1234,-93.94647,-101.8235,-85.62571,-97.01942,-94.85338,-102.5174,-92.46808,-99.34079,-82.61273,-96.19332,-83.27464,-89.77829,-80.93841,-84.8997,-82.05816,-84.64798,-73.57499,-83.92216,-67.00966,-72.82676,-73.03758,-52.74569,-66.90037,-45.52863,-59.21277,-42.23433,-51.52258,-38.20054,-44.90455,-36.74819,-27.76712,-38.75258,-15.57656,-40.28842,-0.3605331,-33.26583,-0.6525175,-22.45228,0.334717,-17.11953,-1.188281,1.465761,-1.049627,9.301654,1.291636,11.53797,18.71825,15.5009,24.81533,20.01551,27.25464,23.45029,29.09945,26.4431,28.52913,39.27753,28.32091,44.20405,26.16483,54.48623,27.71132,50.17697,31.87775,44.71195,30.31698,36.98239,23.61954,30.03182,16.44941,32.72186,1.980369,27.03417,5.781753,9.334638,11.21975,-1.893543,2.985025,-5.841762,-5.975073,-12.97751,-17.25015,-22.17002,-26.0778,-29.34498,-29.71015,-32.40646,-30.54796,-32.27833,-31.46943,-32.50931,-35.18437,-35.43089,-34.59602,-36.47765,-37.49226,-39.44949,-39.74893,-52.40947,-43.44874,-57.70006,-50.01692,-47.77392,-42.59644,-41.92308,-36.19136,-50.01478,-33.41224,-47.47867,-36.25987,-46.52973,-40.21601,-48.86852,-52.13999,-49.77299,-57.28168,-29.11527,-56.32242,-25.4286,-44.48416,-32.83449,-41.88105,-35.3655,-43.02961,-50.28276,-45.0423,-54.42998,-49.20965,-45.46036,-37.26088,-38.6084,-31.80282,-29.25376,-36.13862,-22.39752,-35.17776,-26.62093,-35.90851,-37.76294,-28.56642,-37.58705,-33.4794,-39.23855,-23.60382,-37.11124,-22.08537,-59.08864,-27.27816,-59.84745,-26.06541,-63.06084,-34.18622,-63.50029,-42.93418,-56.57533,-44.11359,-57.25587,-58.71041,-66.26419,-61.76668,-65.11426,-67.10828,-67.64638,-70.86984,-69.61711,-76.05173,-73.25121,-79.26827,-68.12004,-76.42468,-68.63554,-87.58286,-71.74229,-88.10696,-91.88866,-91.77581,-98.29193,-90.17265,-102.3779,-96.98569,-106.5634,-105.9076,-101.5228,-107.1931,-102.1167,-105.7586,-114.2684,-107.702,-119.1697,-114.9661,-120.3898,-124.9028,-123.8465,-126.4796,-126.8397,-115.92,-124.374,-113.9923,-114.2696,-120.4254,-108.3565,-119.8256,-108.8124,-115.0201,-109.8908,-114.2107,-111.8646,-115.6358,-113.1814,-100.0359,-107.3799,-92.6054,-95.73044,-94.46727,-82.63023,-85.73642,-76.15583,-76.55583,-65.73098,-63.40744,-53.72892,-52.46065,-44.26074,-37.5515,-17.95157,-17.38236,0.5570958,-9.037832,18.33844,10.12971,31.91522,24.8319,43.51691,40.37449,57.33377,70.91216,75.00702,92.23674,101.9147,106.034,124.4142,124.05,130.4596,143.2622,148.379,160.9584,172.229,178.4577,190.8079,209.7965,203.6651,221.5432,208.6372,230.5686,220.5596,237.7347,229.2158,254.9139,255.5275,265.4477,258.1305,271.6694,262.1691,271.7982,263.4802,258.2131,260.5629,251.2125,267.8218,251.2233,277.5729,245.672,269.9841,242.4332,249.3135,238.1121,238.6809,224.2357,224.6205,212.2003,211.3846,206.451,198.142,190.4697,182.0421,190.6731,170.556,165.4331,148.3418,148.4091,132.2458,135.7544,115.9153,117.2352,101.1289,99.92584,83.65589,68.51742,66.05716,53.50718,50.96975,45.17261,41.81609,32.61383,30.30771,22.25895,20.24083,8.522909,7.729294,-11.5499,-2.803922,-24.6156,-6.457902,-36.43986,-21.11202,-42.73201,-34.68097,-53.88672,-47.92841,-62.43233,-57.70202,-69.85295,-79.1336,-75.74659,-86.77929,-84.08454,-81.77909,-88.00884,-84.59575,-87.35287,-86.03588,-86.91976,-89.16493,-87.18588,-89.28276,-99.54893,-89.00899,-99.33243,-91.73861,-85.53762,-90.821,-82.93713,-87.87698,-83.06489,-81.85431,-79.93832,-78.02361,-78.90682,-72.77815,-74.76008,-82.12668,-72.86473,-82.60123,-62.67623,-63.7254,-56.24634,-56.31227,-57.77221,-54.37022,-55.71247,-54.44586,-56.69077,-58.45677,-51.04834,-63.07354,-46.63148,-58.13736,-33.64834,-51.08013,-43.52193,-43.19051,-44.36176,-43.25978,-46.13175,-47.19461,-58.58949,-39.73122,-60.03825,-40.93478,-41.37864,-37.20309,-46.80166,-37.14028,-47.4936,-39.15839,-32.4282,-37.50609,-29.1813,-31.97045,-30.95295,-21.66223,-22.84619,-11.5432,-22.61741,-7.985353,-16.79571,-7.661896,-17.11611,2.735124,-10.30968,8.74811,-0.4664783,-6.698075,0.8769255,-5.440209,1.421956,4.892136,-0.3398157,18.89721,6.801094,27.04236,18.69708,25.6847,21.37543,29.46326,13.83132,31.75744,15.07438,40.27882,18.5167,52.27381,29.65592,56.36957,27.16152,57.65292,33.24292,42.48547,35.28165,36.22837,34.42428,44.74425,30.76421,40.01443,41.86663,41.2099,47.88579,48.03425,39.80469,43.97483,30.71803,40.62834,28.57908,40.8665,25.52757,35.76283,25.77453,47.37168,28.51865,46.74648,38.52047,38.77088,31.80778,39.79447,30.5345,51.85314,32.39473,52.95721,37.98154,53.19004,39.44516,51.48456,55.76694,53.00553,59.93182,51.04638,53.24811,52.90748,51.00241,50.04544,63.75244,50.51758,66.50057,53.66194,64.33139,60.27944,75.53609,67.64127,79.89789,59.83292,72.20138,62.69876,68.80414,70.94163,63.28918,67.69254,65.3369,77.88318,70.11967,80.74009,78.28277,74.09888,81.24267,62.78674,79.07744,61.24008,74.718,71.99227,69.30196,69.22407,68.9272,78.37405,71.18417,79.88676,57.92269,74.58304,48.1132,66.30499,41.61999,66.72954,35.18105,57.22129,32.12989,43.44393,37.5615,36.8933,35.77317,35.68827,21.19802,15.62854,12.55601,6.165983,5.606939,4.590396,-6.352393,-4.418556,-13.29661,0.7630632,-17.04813,-5.617475,-31.2816,-12.31322,-37.91833,-26.37056,-58.52257,-39.80898,-67.26116,-54.24935,-53.46112,-64.52484,-54.48072,-62.17503,-67.54635,-65.5744,-75.05174,-71.47343,-81.30757,-89.42948,-88.12526,-98.46047,-96.02492,-80.6538,-96.41811,-79.22115,-101.8481,-82.49295,-99.46302,-85.70068,-101.8503,-89.82085,-99.64451,-91.47139,-98.13694,-79.34627,-96.39985,-76.80067,-109.4176,-80.73772,-108.039,-91.38349,-99.56184,-98.54996,-101.3063,-104.9424,-109.8931,-111.7996,-104.725,-112.2243,-104.3885,-109.317,-102.0461,-128.046,-100.4031,-127.678,-96.20169,-127.7853,-100.3508,-123.3699,-105.5701,-123.0977,-108.3507,-109.5457,-103.2772,-101.4441,-108.47,-107.731,-102.7131,-105.3361,-95.4193,-97.06305,-93.28284,-90.39003,-87.31446,-85.402,-70.20374,-76.41668,-58.03807,-58.96557,-69.96588,-48.88167,-62.66943,-43.3772,-41.36037,-38.15653,-34.01468,-30.40675,-23.15712,-10.79361,-9.661903,3.076288,-9.327255,13.85674,-10.05807,19.32776,-1.047022,19.78201,17.96361,25.03337,24.1508,28.50324,41.45988,38.26422,53.9335,47.10165,52.06714,41.29967,55.80669,44.34014,63.66485,45.01044,62.18201,46.99816,58.99136,47.12998,52.34174,55.91639,51.5284,58.60123,54.05967,36.52315,51.55662,32.83707,54.85587,28.92239,46.46984,26.09169,38.03557,22.93664,43.31624,20.92736,29.79272,26.9367,18.67167,30.21896,22.82874,27.37484,24.47576,30.06542,26.82127,31.54467,25.88312,29.78823,26.59638,26.67579,11.08463,21.48995,8.409393,25.87089,24.56459,25.76818,30.59885,19.85087,35.07904,21.10805,32.15355,21.69209,29.88783,13.04075,26.80245,10.49336,20.90626,20.38883,31.98976,26.5195,36.73795,18.74057,38.28904,21.54955,34.91665,20.97509,29.81432,20.01441,15.01272,18.96667,8.047439,11.81843,28.54646,12.19446,32.75084,13.9029,27.02227,17.28277,26.45469,17.14925,21.80324,11.72511,16.25818,10.65226,10.37113,17.71398,-4.01565,17.91183,1.213334,6.743862,9.973313,2.250594,7.415088,2.716867,4.970521,-1.371602,0.6048383,-5.942994,-15.42121,5.208872,-16.16371,3.749432,3.38012,-4.757444,7.889197,-2.546569,5.853911,-1.125721,7.50255,-1.717326,5.452743,-15.07552,16.27629,-8.652107,20.12203,0.5096321,18.76305,6.525583,21.97765,11.82562,21.80231,13.41465,21.21541,15.79399,9.568507,15.12615,20.50615,17.29982,40.57811,12.4601,42.94457,17.18387,41.26674,21.30645,38.10543,21.60637,31.91474,22.92725,35.11018,30.47102,44.23952,26.82711,44.67318,32.38137,43.51346,32.97387,38.89353,30.85159,36.60422,14.93967,31.47065,22.06828,38.73308,24.32465,42.017,16.01173,38.34762,15.33826,32.25526,14.25178,13.8838,8.980046,5.021783,2.418972,22.01992,1.220109,21.04854,7.609284,9.713565,10.0262,5.770048,4.226873,1.979636,0.7045225,-13.31856,-4.205569,-20.21293,-12.89917,-25.09463,7.821971,-23.44428,9.534219,-12.32567,1.279044,-4.296767,1.769126,-4.549246,-0.7729183,-3.443779,-2.101711,-17.35166,-5.776563,-19.66259,-10.04423,-11.50846,-16.26804,-15.95972,-5.743455,-11.77128,-2.669214,-7.210716,-12.93132,-9.153904,-23.84895,-14.27343,-27.02015,-21.84942,-21.04813,-27.32391,-8.803283,-24.3823,-7.102349,-18.26536,-16.78565,-15.66574,-19.75519,-19.51334,-34.70757,-23.56161,-38.67914,-20.72138,-46.3777,-14.07762,-40.66617,-13.16418,-33.50654,-25.34866,-33.05411,-28.04154,-42.62486,-35.34372,-47.58055,-43.62993,-39.98332,-49.34101,-30.07034,-47.27751,-29.57806,-39.15431,-39.51472,-37.33178,-43.12131,-52.34896,-45.83278,-55.49877,-39.26378,-60.21762,-43.20888,-45.26411,-39.60733,-39.61479,-46.42416,-38.15665,-53.28796,-40.48431,-53.0014,-46.25312,-42.14826,-49.31066,-42.50314,-33.13491,-41.13096,-27.92907,-46.42796,-25.28212,-45.29161,-29.64675,-56.27999,-30.8961,-43.15016,-39.19546,-30.55449,-37.84028,-26.75002,-29.77331,-35.72327,-30.33356,-37.05011,-34.42271,-47.25104,-38.77353,-51.61697,-47.25093,-44.47395,-53.19684,-33.85388,-52.63996,-32.33822,-45.42761,-24.9326,-49.95037,-26.57267,-47.77916,-33.20538,-52.57294,-35.24697,-46.7723,-38.07159,-46.64797,-37.99602,-46.39407,-27.1949,-42.81613,-21.40399,-31.22547,-39.32827,-26.24736,-37.89687,-26.8143,-23.07583,-25.3426,-20.4939,-23.0845,-17.37006,-5.901182,-7.262348,4.238108,4.15783,2.064387,14.8281,-3.114368,19.24707,1.297359,21.20789,19.35931,25.48288,26.64474,28.97187,45.53797,41.3987,57.66934,43.06496,64.877,51.32527,56.09438,59.57426,57.5592,60.92217,72.58347,63.8574,85.95289,76.0184,92.34196,89.81628,89.015,97.70684,91.99688,97.77091,81.66548,97.03126,79.74709,90.33065,76.79419,99.72312,94.78306,105.1587,92.12212,108.5237,96.65492,110.934,100.2741,108.7957,100.4762,106.3893,112.047,99.90035,117.2277,106.0773,107.0608,122.1559,108.6784,120.8961,111.2055,118.4406,113.8211,116.2207,112.3151,113.5569,121.8949,103.8034,109.0841,102.5095,100.0939,108.0627,94.13825,101.7834,89.1655,93.03564,80.6831,84.37106,85.16815,78.11696,78.90708,71.3153,58.65163,66.11095,48.52135,65.8117,38.06026,56.93147,31.88336,43.34201,22.69224,28.3069,16.91043,27.04841,11.10648,9.166479,-9.502464,0.9248766,-19.78721,-4.997312,-28.69128,-17.60706,-36.20044,-28.1985,-31.28945,-36.49871,-33.45927,-35.48454,-45.95884,-39.16574,-53.66315,-56.38733,-58.09421,-62.72116,-59.20604,-65.41826,-65.06633,-68.36405,-67.86974,-58.79911,-67.75693,-55.96416,-59.67612,-61.81637,-57.28167,-74.21265,-57.62487,-73.1266,-58.55078,-61.90051,-62.71906,-61.3,-61.43253,-43.392,-56.50194,-36.94101,-45.35007,-41.48538,-37.66847,-51.1353,-37.62034,-51.83854,-40.48509,-40.74168,-45.82355,-45.86301,-51.17508,-36.93895,-48.73382,-36.19518,-42.67551,-33.03919,-33.73361,-50.44873,-31.45677,-52.3778,-34.86638,-38.35236,-36.86499,-36.14955,-36.90698,-37.20826,-37.02791,-37.68962,-24.55434,-36.68928,-22.00222,-28.41506,-28.9398,-25.70104,-41.18294,-29.50343,-41.78481,-23.16286,-44.11932,-27.63523,-46.40215,-32.2033,-33.81874,-31.96257,-30.02797,-30.96442,-46.27,-28.39854,-46.06158,-22.23677,-45.42328,-23.97136,-41.37439,-25.48295,-41.24339,-29.99042,-33.57724,-23.00518,-28.84222,-18.52822,-38.47276,-27.31019,-35.8317,-30.83113,-28.99235,-33.58498,-28.32626,-31.09266,-30.00503,-33.08796,-32.54314,-22.56148,-28.68144,-29.15364,-32.64499,-30.0258,-30.84605,-15.82964,-29.34649,-13.56145,-24.31262,-12.51271,-18.20877,-11.90046,-17.35523,-12.83654,-4.481473,-17.13345,3.642835,-14.73787,-1.183139,1.461083,-0.2702789,4.436158,1.713497,4.369248,3.105002,6.464166,2.190192,3.800509,13.45712,-1.270597,16.49704,6.510596,7.788478,21.93518,8.697231,24.55398,14.82313,24.89469,15.07698,24.54163,15.73884,21.44874,26.46241,20.12243,28.57965,16.769,19.61817,16.65333,27.48513,12.81477,26.20068,12.93123,22.49362,8.528389,17.50116,5.306527,25.83602,6.905399,26.98313,3.994432,17.83876,8.087576,21.61045,9.741193,19.57783,13.06816,17.27016,10.61784,13.00577,9.277074,11.35979,-3.797057,7.706236,6.105795,7.483421,13.0454,11.82513,15.93178,13.49095,19.09733,17.67795,21.97807,19.26694,20.94815,24.42922,34.13578,33.06473,