ConstAcc,0.5,0.20431,34.58522,15.16594,-1.102043,-14.48331,-25.23058,-33.58494,-39.77609,-44.02256,-46.53192,-47.50105,-47.11635,-45.55396,-42.98001,-39.55084,-35.41323,-30.70462,-25.55337,-20.07895,-14.3922,-8.595562,-2.783281,2.95834,8.550719,13.92276,19.01064,23.75754,28.11346,32.03497,35.48497,38.43248,40.85238,42.72523,44.03699,44.7788,44.94679,44.54179,43.56915,42.03847,39.96341,37.36143,34.25357,30.66422,26.62089,22.15398,17.29655,12.08409,6.554297,0.7468192,-5.29694,-11.53407,-17.92038,-24.41064,-30.95878,-37.51816,-44.04176,-50.48246,-54.92818,-56.82224,-61.06719,-67.06489,-71.60737,-74.11902,-74.8363,-75.36292,-76.66654,-78.57681,-79.79608,-79.93914,-79.3732,-78.93793,-78.87674,-78.63112,-77.71734,-76.09905,-74.18915,-72.29965,-70.31431,-67.7527,-64.58316,-61.22192,-57.70549,-54.02665,-49.78544,-44.86978,-39.48327,-33.89203,-28.07147,-21.9459,-15.36465,-8.566594,-1.937279,4.391314,10.6005,16.71642,22.54791,27.86068,32.57918,36.98482,41.30921,45.49962,49.07261,51.97371,54.3503,56.76196,59.29274,61.68161,63.58769,65.26722,67.0676,69.05644,70.84168,72.25028,73.35815,74.34303,75.39446,76.26272,76.75112,76.97112,77.37503,78.14215,78.84611,79.02307,78.58827,77.91493,77.24064,76.4478,75.2194,73.72283,72.3738,71.44296,70.66838,69.70328,68.54829,67.6575,67.27195,67.19574,67.1243,67.19463,67.78301,69.20851,71.13931,73.2012,75.35704,77.80868,80.61792,83.41474,85.87767,87.93218,89.86744,91.70995,93.31928,94.51913,95.29212,96.08571,97.17363,98.33072,99.246,100.0199,101.1335,102.686,104.3858,105.8732,107.1538,108.7354,110.8561,113.2574,115.3937,117.1464,118.8671,120.7694,122.6891,124.4511,126.2788,128.416,131.0371,133.8571,136.4749,138.7492,141.1462,143.9971,147.0456,149.8936,152.4522,155.0552,157.9523,160.9142,163.2407,165.2343,167.2602,169.517,171.6534,173.0874,173.7366,174.0099,174.2702,174.1576,173.1701,170.8063,167.8971,164.8309,161.6649,158.1176,154.1787,150.2228,146.5278,142.7413,138.2531,133.0365,127.5942,122.3308,117.1366,111.8206,106.2547,100.9559,96.11968,91.22932,85.9097,80.40939,75.22965,70.60306,66.37827,62.2296,57.95081,53.8684,50.51441,47.32645,44.38481,41.47905,38.80502,36.45277,34.00876,30.9342,27.3123,23.21325,19.75351,17.1458,14.90047,12.41053,9.844696,7.281193,4.28644,0.4769108,-4.068838,-8.769864,-13.29924,-17.60091,-22.03288,-26.63042,-30.70885,-33.72526,-36.02522,-38.30353,-40.88678,-43.40076,-45.4659,-47.30701,-49.327,-51.63993,-53.77379,-55.20732,-56.10238,-57.11596,-58.53306,-59.73457,-60.36239,-60.63549,-60.98916,-61.55835,-61.90278,-61.79303,-61.33377,-61.18457,-61.41613,-61.44713,-60.78533,-59.40929,-58.02442,-56.70321,-55.05076,-52.48987,-49.21004,-45.6739,-42.13576,-38.65964,-34.73287,-30.29295,-26.0032,-21.99935,-17.73417,-12.719,-7.036081,-1.338679,4.091431,9.597463,15.66211,22.39441,29.06485,35.55866,41.77554,47.96014,53.73522,58.6369,62.49494,65.80394,69.01989,72.04661,74.41947,75.81495,77.28049,79.31094,81.87166,84.1532,85.5855,86.50318,87.37728,88.59562,89.72247,90.46624,90.77612,90.55937,89.56798,87.22617,83.01889,77.45826,71.35842,64.90224,58.22713,51.12505,43.92551,37.23707,30.92526,24.52748,17.85189,11.17568,5.030629,-0.5454862,-5.478111,-10.919,-16.66753,-22.04619,-26.73,-31.49322,-36.42925,-41.28207,-45.12438,-48.19372,-51.2238,-55.0202,-59.06907,-62.57398,-65.25684,-67.26388,-69.03497,-70.43596,-70.82827,-70.02002,-68.85277,-67.73414,-66.56408,-64.91119,-62.90747,-60.98511,-59.39159,-57.61678,-55.12379,-51.56209,-47.27832,-42.98376,-38.57038,-33.78458,-28.628,-23.62789,-19.37422,-15.51145,-11.59727,-7.183823,-2.625355,1.91624,6.528737,11.32163,16.42549,21.3129,25.65774,29.67271,34.1676,39.25313,44.23454,48.54307,52.26158,56.07239,60.13599,63.9622,66.97422,69.15852,71.40289,73.96257,76.28816,78.09179,79.60633,81.28146,83.04828,84.46946,85.17493,85.39619,85.74953,86.43057,86.82256,86.40804,85.35018,84.59918,84.662,85.11917,85.70241,86.27939,87.55861,89.51664,91.58622,93.42553,95.48954,98.17118,102.0073,106.4022,110.7932,115.416,120.5328,126.5394,132.172,136.3218,138.9177,140.8006,142.7231,144.2302,144.7158,144.4395,144.0891,144.1171,144.3688,143.8608,142.7438,141.7031,140.9794,140.3766,139.167,136.843,134.4415,132.8651,131.3458,128.5019,124.1552,118.997,113.6355,107.8495,101.3356,94.04424,86.73242,80.36395,74.59608,68.31623,61.92129,55.92647,50.49026,45.44682,39.90931,33.63738,27.36367,21.51281,15.77296,9.669422,3.078322,-2.9524,-8.233709,-12.90865,-17.74421,-22.72566,-26.98254,-29.92432,-32.02013,-34.22931,-36.46905,-38.45004,-39.51321,-40.00546,-40.56939,-41.46341,-42.55946,-42.86323,-42.14301,-40.76946,-39.43985,-37.81019,-35.09673,-31.6016,-28.38132,-25.75149,-22.65226,-18.76422,-13.95456,-8.793408,-3.293318,2.827944,10.01141,17.63725,24.53905,30.41186,35.34023,39.67593,43.7122,46.68382,48.35766,49.06891,49.7556,50.54175,50.88583,50.62555,50.39559,51.16487,52.43873,53.07668,52.77822,52.05349,51.67399,51.24649,50.72983,49.24478,47.34397,45.59366,44.25208,42.64635,39.77932,35.74113,32.04029,29.20978,27.31154,25.878,25.15659,25.92691,27.49366,28.79574,29.3605,29.1754,29.22037,29.76293,30.36654,30.76948,31.12369,32.24944,33.84092,35.22943,35.9928,36.36023,36.96328,37.83227,39.0797,40.12384,41.56863,43.53135,45.66967,47.42475,48.34316,49.01182,50.53611,53.02395,55.44686,56.76739,57.7782,59.11282,60.79763,62.24299,63.09377,63.23704,63.79397,64.85285,65.58862,65.30918,64.36327,63.70982,63.51247,62.91984,61.16635,58.72488,56.35873,54.68694,52.98962,50.61201,47.88102,45.30998,43.00783,40.36976,36.61298,31.56411,26.45136,21.56571,16.57263,10.21277,3.28175,-2.643272,-7.182586,-11.22167,-15.63702,-19.65109,-21.99927,-22.17529,-21.49838,-21.53376,-22.57174,-23.9706,-25.01371,-26.42282,-28.95919,-32.49718,-36.10489,-39.77819,-44.12984,-49.88426,-57.09155,-63.66056,-68.44955,-72.22294,-75.8822,-79.57486,-82.49074,-84.74301,-87.01992,-90.57216,-95.51917,-101.0505,-107.4318,-114.7761,-123.8661,-134.2027,-143.9671,-150.768,-153.8297,-154.3457,-153.0795,-150.149,-145.5191,-139.6631,-133.393,-125.6123,-114.9758,-101.3869,-86.71704,-73.5229,-62.95286,-54.73722,-48.34869,-44.00654,-42.12043,-42.6355,-43.51526,-43.67884,-43.13757,-43.05741,-43.80221,-44.34367,-44.40304,-44.88861,-47.33221,-52.32974,-59.17318,-67.45719,-76.87044,-88.88571,-103.445,-119.1458,-135.1276,-151.9656,-170.6738,-191.4017,-213.2321,-235.8123,-259.9513,-286.0654,-313.5636,-340.6821,-365.6994,-388.8891,-411.5809,-434.6696,-457.5283,-479.3287,-499.8312,-520.3669,-541.4056,-562.2075,-582.1858,-601.2262,-620.1097,-638.7678,-655.9042,-670.6526,-683.7501,-696.4104,-708.836,-720.4719,-729.8443,-737.129,-743.4324,-748.7727,-751.979,-752.6657,-750.9396,-748.4982,-744.9894,-739.356,-730.0656,-716.8015,-701.0096,-683.8347,-666.1125,-647.9206,-630.3442,-614.2458,-599.2471,-583.5251,-565.7861,-546.3695,-526.463,-507.0413,-487.5226,-467.2002,-446.5589,-426.5101,-407.5345,-388.6034,-369.0104,-349.459,-331.4664,-316.0295,-303.1249,-291.8744,-282.3101,-275.3925,-270.9261,-268.0257,-265.847,-263.6284,-261.4831,-258.7172,-253.6279,-245.032,-234.724,-224.9249,-216.4755,-208.4508,-198.7433,-187.386,-176.1745,-165.7979,-156.5957,-148.0307,-139.9249,-133.3087,-128.4984,-124.2771,-119.4182,-113.3251,-106.8109,-100.4604,-92.93277,-82.90036,-70.36094,-57.10602,-44.4936,-32.41476,-20.73674,-9.663968,0.09218078,7.50522,13.12379,18.49224,24.82875,31.06099,35.83262,39.20439,41.9561,44.69493,46.27593,46.08017,44.70794,43.08467,41.82307,40.82591,39.61378,39.26189,40.28514,42.40687,44.02953,44.02014,42.8787,42.39328,42.52038,41.56206,38.59252,34.47546,30.75675,28.18303,25.66393,22.37123,19.00048,16.01413,13.76058,11.77818,9.219841,6.499623,5.346822,5.480424,6.259457,6.782039,6.757027,7.238779,8.899327,10.77546,12.9248,15.53482,18.87263,22.44426,24.86311,24.90555,23.28953,22.39799,22.75195,23.87368,24.62057,25.06904,26.28883,28.32533,30.16694,30.40719,29.72863,29.49725,30.29911,31.38872,31.74441,31.43098,31.86221,33.24757,34.61734,34.96159,34.15629,33.3121,33.32983,33.65164,33.35389,31.93029,30.40237,30.35371,30.39126,29.16835,26.61661,23.84722,21.90751,20.42059,18.24849,15.52853,13.71481,13.24556,13.22948,12.51197,10.78469,9.459074,9.718281,10.55551,10.34639,9.027931,7.549826,7.397942,7.384902,7.441616,7.686649,8.318646,9.220902,9.989937,9.213516,7.171674,5.34938,5.28893,6.237998,6.420278,5.526728,4.986999,5.636291,6.638653,6.240208,4.009537,1.603894,1.074577,1.78982,2.458073,2.252636,2.173954,3.044058,4.82561,6.525287,6.85265,7.017871,8.543895,10.97655,13.46149,14.97165,16.67941,19.29696,22.3651,24.7324,26.08572,27.24375,29.11816,31.34731,32.65312,32.82128,32.85898,34.21714,36.38408,37.91891,38.37404,39.04967,40.75874,43.3273,45.13714,45.44422,45.41854,45.79986,46.89076,47.74307,47.05576,45.81744,45.26898,45.15374,44.5391,42.79593,41.16817,40.11021,40.00905,38.96399,36.92032,34.30169,32.2706,30.95833,28.96452,25.95384,22.65814,20.03272,18.05702,15.78247,12.1048,8.437029,5.993679,4.40598,2.663183,-0.8968492,-5.29102,-8.476893,-10.35298,-12.22915,-15.08631,-18.31984,-20.93915,-23.2855,-25.42468,-27.96194,-29.76524,-30.01422,-29.19593,-28.76431,-29.7152,-31.47655,-33.09074,-34.29147,-35.84793,-38.40652,-41.12612,-42.78577,-43.3912,-44.15845,-45.73493,-47.70232,-48.25977,-47.44229,-45.84068,-45.6989,-47.59864,-49.44925,-49.80184,-50.04096,-50.84048,-52.39968,-53.16559,-53.13496,-52.94326,-54.00489,-55.58561,-56.08646,-55.39451,-55.06726,-56.18615,-57.26071,-56.12047,-53.94222,-52.63384,-52.36421,-52.56133,-52.08309,-50.26481,-48.69497,-48.59383,-48.07079,-45.77053,-42.16051,-38.33297,-35.86793,-34.08462,-31.56979,-27.90969,-24.0565,-20.86871,-18.218,-14.75737,-9.953399,-4.787308,-0.5176699,3.068255,6.826871,11.24326,16.02449,19.89223,22.8457,26.44489,31.03773,35.97385,39.62256,42.34069,45.23875,49.89426,55.08907,59.43887,62.88597,66.22217,70.15532,73.96937,75.90431,76.76776,77.43987,79.40987,81.18139,82.03885,81.3834,81.13345,81.58465,81.31706,79.13107,76.25712,74.2733,73.83094,73.61862,72.10572,69.42066,66.69015,64.42625,62.26993,58.9077,55.02181,52.20188,51.54436,51.57945,50.6652,48.63187,46.51807,46.51895,48.0819,49.29151,48.88039,47.41065,46.06114,43.604,39.52641,35.9442,34.59092,36.09912,38.1022,38.59658,37.12175,35.14752,34.54763,34.61116,33.75271,31.62125,30.1142,30.14348,31.06291,31.20294,29.89391,28.98289,29.49485,30.76629,30.68633,29.57421,29.39335,31.21447,34.41955,36.16458,36.48671,37.12592,38.87672,41.22375,43.24604,44.18802,45.49971,47.87504,51.36008,54.53428,56.16434,57.42516,60.47007,64.70508,67.8257,69.20379,69.97224,71.87397,75.60643,78.62294,80.11779,81.24707,83.72675,87.45007,90.61662,92.00743,93.10171,95.23562,98.20924,100.3603,100.7401,100.7457,102.252,104.9121,106.6142,107.0469,107.6954,109.4504,112.1516,114.0958,114.6249,114.8154,116.7475,119.6862,122.3146,123.0025,123.1601,124.2912,126.0679,127.0075,126.4192,125.9531,127.4308,129.831,131.5694,131.7924,131.6417,132.5927,134.7415,136.5529,137.1934,137.4552,139.0744,142.235,145.1008,146.4386,147.421,149.9006,153.8773,157.4171,159.1023,160.0846,162.709,166.4174,169.6333,171.1418,171.3841,173.3063,176.3602,178.4878,178.296,177.6246,178.6849,181.0483,184.0778,188.2916,192.2547,195.2127,196.6164,196.2249,193.9365,190.8829,188.869,187.7248,186.4927,183.7541,180.3907,177.8159,176.0702,173.5957,169.35,163.9908,159.6593,156.463,152.6603,147.721,141.8271,136.8055,133.0339,128.4586,122.6305,116.4691,111.3668,107.8034,104.4387,99.6649,94.36185,90.71124,88.33954,85.88846,82.49582,78.42884,76.06064,74.88327,73.15064,70.61307,68.1657,67.42565,67.81722,67.70902,66.20259,63.89294,63.13901,64.46761,65.79687,65.71475,65.54724,66.71779,69.26115,72.36096,74.20661,75.63508,77.788,80.76384,83.69387,85.965,87.55459,89.92215,93.16941,97.35477,100.073,101.7937,104.1152,107.274,111.049,113.4754,115.2603,117.5644,120.087,122.43,123.6502,124.1644,124.9846,127.0229,129.1911,130.0287,129.2814,128.2534,127.8678,127.0708,125.3856,123.5637,122.347,122.3033,121.8499,119.9087,116.7914,113.9103,112.1155,110.2361,106.6671,102.9141,100.3331,99.34481,99.21938,98.75821,97.52026,97.33291,98.93328,100.9367,102.2947,103.4154,104.9629,108.0429,112.6452,117.0496,119.1053,119.9977,122.0005,125.4316,128.6565,130.6557,133.1398,136.9332,141.1958,143.1097,143.0856,143.8211,146.5405,149.9909,153.0636,154.6443,156.1241,158.346,161.3896,163.967,165.0698,165.633,167.4962,169.6792,170.7165,170.1138,169.4838,170.6147,173.0455,174.0852,172.7589,170.5026,168.0067,165.7527,162.8451,159.5965,157.7802,157.6633,158.6149,159.1047,157.8024,155.104,152.5767,151.1813,148.7715,144.878,139.9531,135.6378,132.261,129.6641,126.7003,122.7785,119.0723,115.9915,112.1985,106.8328,100.8031,96.32884,93.64603,90.93167,86.47263,81.08737,76.60725,73.4749,69.38911,63.86005,57.34313,51.93008,48.19784,43.45139,36.80267,29.1908,22.12262,16.66849,11.3923,4.768098,-2.412309,-8.26642,-13.23021,-19.26018,-27.21929,-35.91842,-43.62709,-50.17141,-56.52022,-64.3595,-73.45179,-81.97688,-89.29995,-96.58397,-105.4124,-115.1242,-123.667,-130.7819,-137.4541,-143.9545,-150.6394,-156.0083,-159.6064,-162.6668,-167.4405,-172.9748,-177.3635,-180.3194,-182.4254,-185.3642,-189.1832,-191.5036,-192.4367,-193.1766,-194.4723,-196.2714,-196.7294,-195.5294,-194.0303,-193.3018,-193.2577,-193.0783,-191.2413,-188.9299,-186.7206,-183.8166,-180.1286,-175.5549,-170.5553,-167.2323,-164.8558,-161.304,-155.9512,-150.0443,-145.9739,-142.6076,-138.5,-133.43,-127.9636,-123.7332,-120.666,-117.332,-113.5581,-111.219,-110.4202,-110.4758,-109.2888,-105.9727,-100.6327,-95.78464,-92.82493,-89.97148,-86.12234,-82.61847,-81.29184,-81.3797,-81.24983,-79.61045,-78.42023,-78.36371,-79.63032,-79.47542,-77.0345,-73.63748,-72.27222,-73.74501,-74.9342,-74.50623,-72.32214,-70.77895,-69.76692,-68.33654,-65.94317,-63.5307,-62.43696,-62.73712,-62.79591,-61.56957,-59.86134,-59.68957,-60.74551,-61.3276,-60.60125,-59.53134,-59.10768,-59.83327,-60.00171,-58.7738,-56.98485,-56.06091,-56.46163,-56.61224,-55.68049,-54.73021,-54.47306,-55.15629,-55.70516,-55.07635,-53.82581,-53.92769,-55.51842,-56.86734,-55.97207,-54.36569,-54.16212,-55.2308,-55.99411,-54.75871,-52.5475,-51.13158,-51.79772,-53.00538,-52.64957,-51.35938,-51.34519,-52.56765,-53.33409,-52.48223,-50.75463,-50.0251,-51.15976,-52.30923,-51.83475,-49.87656,-48.13494,-48.06794,-48.51177,-47.37468,-45.05838,-43.72834,-44.15962,-45.16528,-44.31943,-42.00701,-39.12096,-36.71888,-35.72265,-34.91682,-33.80565,-33.65943,-34.76198,-35.91542,-36.55962,-36.37582,-37.7071,-40.09516,-42.41466,-42.51545,-41.16902,-40.78085,-41.832,-42.70692,-42.05884,-39.88931,-37.33591,-36.19084,-35.34362,-33.05444,-28.78942,-25.29739,-23.46755,-21.64491,-18.83785,-14.58354,-10.66243,-8.533434,-7.50717,-4.998424,-0.9642729,2.860023,5.174188,6.444469,8.90985,12.66141,15.58305,16.58916,17.42538,19.5862,23.01851,25.82025,26.80694,26.87896,28.63406,31.8016,34.28125,34.74772,34.50055,35.29527,37.0571,38.52876,38.34388,37.26692,37.23419,38.52423,39.9029,39.2795,37.79972,37.31445,38.4101,38.90292,37.26606,34.86913,33.10848,33.1076,33.61469,32.42549,30.01437,27.71207,27.10546,26.71485,25.35375,22.71916,20.00937,18.33956,17.04346,15.15499,12.78048,11.06145,10.04674,9.209494,7.127633,4.535169,3.021682,2.617994,2.982743,2.488315,0.4627408,-1.108963,-0.638692,0.2277468,-0.4895012,-2.034075,-2.28739,-1.090771,1.261874,2.03409,1.82819,3.129892,5.965239,8.867199,10.80997,12.14319,14.71936,19.65304,24.21653,25.87109,24.66568,23.36527,23.84131,24.99167,24.44857,22.21942,20.262,20.03123,20.65997,20.53395,19.25753,18.88397,19.92932,21.86235,22.43774,21.81526,20.94889,21.59219,22.96293,23.26153,22.03596,21.10089,22.04617,23.78802,24.23658,23.24189,22.39301,23.40651,24.817,25.0036,23.6527,22.54387,23.47398,24.313,24.7779,23.14208,22.32936,23.43329,25.7951,26.77259,26.31695,26.30033,28.03976,31.31286,33.52589,33.99364,34.16136,35.20306,36.75999,37.08582,36.29071,34.90916,34.48718,34.53498,33.93163,32.62641,31.69974,32.88106,35.42509,37.10328,37.86483,38.09775,39.31609,40.57857,41.12771,39.93842,38.39293,38.81355,39.63933,39.55585,37.30138,34.80067,34.1187,34.19591,33.20256,30.35287,27.43731,26.0293,25.57274,24.83131,22.60905,20.32366,19.83102,21.26446,21.94443,20.30966,17.78015,16.27537,16.77797,16.35889,13.34941,10.80669,10.2464,10.70737,10.01538,7.67487,5.305033,4.466243,5.139091,4.983069,3.163187,2.173367,2.571476,4.455625,6.232018,6.645642,6.178499,6.968724,8.496991,9.950996,9.537097,8.478779,10.29425,13.89429,16.00445,15.76913,14.96207,15.40374,17.85704,20.30335,21.52773,22.04681,23.62691,25.72194,26.76018,25.89292,23.31741,22.38307,24.36273,27.07412,27.67602,27.56102,28.77725,31.6527,33.93722,34.47299,33.69117,34.1605,36.42892,38.52843,38.438,37.5817,38.21614,40.35709,43.56267,44.6661,44.94049,46.2436,49.02662,51.81906,53.73404,54.56302,55.84534,58.65171,61.17957,60.47006,58.77739,57.68251,58.91419,60.27552,60.7041,58.83472,57.91441,59.50008,62.22183,64.07816,64.85965,66.34367,69.18184,73.13772,74.92815,74.16154,73.90407,75.50219,77.70309,78.31634,77.17573,76.34834,76.93957,78.30606,77.63861,74.29852,71.38181,71.04194,71.69972,70.68589,67.7016,65.00901,65.25626,66.95475,67.16873,65.55015,64.19771,64.29261,64.006,62.51874,60.36581,59.49898,61.5308,63.67607,63.70014,62.66843,62.20555,63.52258,65.36899,65.28449,63.78747,62.74833,63.95887,66.16716,67.96048,68.68054,68.89984,70.47416,72.99188,74.25634,73.83728,73.57255,75.37818,77.85357,78.97178,79.02102,79.24507,79.80379,80.00058,79.61519,78.20463,76.90791,77.2431,77.65428,76.5941,73.11924,69.75442,67.49545,66.6711,65.03915,61.65063,59.0195,58.63362,58.97063,57.69968,54.50022,51.6,50.66575,50.37152,48.67764,45.30916,42.22308,41.31298,41.45474,40.00663,36.34568,33.06665,32.15855,32.39692,31.39956,28.95077,26.52301,26.31883,28.19601,28.93418,27.41281,25.97462,26.24992,27.76183,27.63509,27.04289,26.20096,27.89874,30.63135,32.80647,32.51081,32.74538,34.54343,37.48733,40.38753,41.68374,42.68749,46.10296,51.65124,55.48112,57.4491,59.34596,63.12398,68.22699,71.77292,72.71357,72.99939,74.64545,78.21707,79.88846,78.79756,78.90582,81.10414,83.9281,85.41065,85.24895,84.37211,85.03559,87.08397,88.06689,87.03708,85.15229,84.60458,86.24602,88.4692,88.65973,87.80466,87.86291,88.61694,89.20903,87.762,85.94459,85.63713,86.2418,86.45704,85.36618,83.91053,83.84021,84.73785,85.58281,84.07863,81.49238,80.09582,80.65652,80.70486,78.52425,74.9768,73.48768,73.49145,73.61581,72.20339,68.72531,66.7693,66.70262,66.44329,64.38746,61.48324,59.56656,59.16183,58.53339,55.87882,52.44092,50.53285,50.44017,50.25551,47.4192,43.21796,40.69933,41.00937,41.26058,39.51865,36.62062,35.67349,36.22688,36.69277,35.65005,33.56525,32.52961,32.97905,32.77787,30.45345,28.00225,26.84998,27.39554,28.47303,27.35417,24.835,23.74102,24.86699,25.67825,24.82999,22.99825,21.5387,21.79481,22.35268,21.37705,18.53591,16.40162,15.98814,16.11152,14.15218,10.34521,6.600282,5.627964,4.950229,2.218057,-2.856873,-6.771955,-8.398275,-8.413815,-10.12443,-13.60535,-17.13229,-18.51778,-20.33561,-23.72398,-29.05108,-34.47567,-38.13228,-42.25751,-46.67528,-51.70509,-55.01777,-56.02238,-56.12548,-58.16651,-62.32281,-65.84401,-67.09204,-67.5795,-69.70086,-74.18116,-78.91186,-81.47132,-82.94797,-85.54695,-90.06908,-94.80509,-97.70051,-100.0495,-104.4522,-109.9875,-115.1269,-119.4279,-122.4013,-127.8869,-134.6163,-141.7946,-147.3369,-151.9509,-157.9498,-166.0262,-174.5328,-180.9083,-186.284,-193.5102,-202.4285,-210.7965,-218.065,-223.8947,-231.0873,-240.7756,-249.8854,-257.1768,-263.6072,-270.8068,-280.3302,-289.809,-297.1759,-303.8943,-310.7202,-319.4906,-327.607,-333.4097,-337.0478,-342.5574,-349.7799,-356.1903,-360.8186,-364.768,-369.7298,-376.6128,-383.0875,-388.407,-391.7994,-396.0032,-401.719,-407.227,-410.6071,-412.5614,-415.3366,-418.9089,-422.7269,-424.4629,-425.5079,-426.8717,-429.1503,-430.7282,-428.1333,-423.5912,-419.1373,-416.4533,-413.4933,-407.8466,-400.6853,-394.6836,-390.5043,-385.2256,-376.6439,-367.531,-361.0736,-356.9658,-354.8267,-352.2191,-349.9896,-344.8035,-339.2727,-333.4066,-324.1867,-314.5822,-307.9786,-304.8213,-303.4112,-301.3475,-299.5696,-300.8196,-305.0177,-310.4461,-312.5138,-309.8118,-305.954,-304.5015,-304.5892,-303.9324,-302.1371,-300.9448,-301.6225,-303.8597,-305.1968,-304.628,-305.9004,-309.804,-314.6936,-316.1567,-315.1,-314.3933,-316.324,-319.4951,-320.9804,-321.1261,-321.6141,-324.2557,-327.945,-329.743,-327.9913,-326.4374,-326.1386,-327.521,-326.6791,-322.3037,-317.4366,-315.3053,-314.3717,-311.5252,-306.6195,-301.9729,-298.9781,-296.5201,-291.5207,-284.0901,-276.1122,-269.7403,-264.9066,-258.1667,-248.4957,-238.7959,-230.3237,-222.3639,-213.0538,-200.7534,-187.9324,-177.2464,-166.8362,-154.9701,-141.1358,-128.0916,-118.4634,-109.3775,-99.70005,-88.92675,-77.94511,-69.40688,-61.94872,-54.01712,-44.37753,-35.53239,-29.12085,-24.22349,-19.67228,-13.85326,-8.796258,-5.594571,-4.617953,-2.806308,1.726389,8.15637,12.90359,16.61367,21.45588,27.11052,32.81316,36.22222,38.3155,40.94484,44.98331,50.01526,53.66832,55.56969,57.96687,60.43842,62.97356,65.19093,65.83803,67.63509,73.75106,83.68098,89.89147,93.08866,96.96115,100.2073,103.7515,105.6169,104.225,103.174,104.563,108.5219,112.4127,115.1904,120.2065,127.6701,134.4263,138.5836,140.2239,143.0727,147.9144,153.2251,155.8505,156.1019,157.1512,159.9558,164.7823,167.8345,168.4232,169.7438,172.3378,175.5803,176.1682,173.6856,170.7881,168.9543,168.4223,166.8199,163.7699,161.6734,161.145,160.8678,159.2663,155.5857,152.1496,151.8417,151.0372,147.2757,141.8711,137.1666,134.8223,132.6139,129.9219,125.717,121.6858,118.9774,117.247,114.3393,108.6614,103.5978,101.2414,99.59587,97.39786,92.84853,88.98877,87.3314,86.54186,85.31998,82.27454,79.51167,78.9626,79.16894,77.19279,74.48097,73.04401,73.00565,74.1052,72.89881,70.55271,67.3802,66.76517,67.4276,66.85818,64.44358,61.51123,60.96825,62.46587,62.83027,61.39047,58.63782,58.56113,60.30317,61.47374,61.46654,61.87512,64.02332,66.76215,68.81131,69.21612,69.46627,71.60939,75.3269,78.75822,79.62885,81.31754,84.22504,88.77436,92.49024,93.62842,92.79467,94.12565,97.64462,100.9132,102.0985,102.2033,103.7643,107.9683,111.215,112.1171,113.4955,117.0097,122.3058,127.2164,130.0269,131.0478,133.6096,138.177,141.7641,142.9335,143.9472,146.6203,150.878,154.0411,155.4479,155.92,157.5326,161.6312,162.7371,162.2075,160.9089,161.5216,163.7794,165.2338,164.1883,162.265,162.5501,165.4648,167.5555,167.0756,165.4584,164.9243,166.0824,167.3343,166.4619,164.7643,164.8597,165.9859,167.0592,166.5849,165.6011,165.1258,166.5782,168.747,168.2646,166.0599,164.8662,165.6334,166.8502,165.7162,164.2377,166.3699,169.3119,172.3879,172.996,173.1009,174.1742,177.4817,180.6337,181.7077,183.0692,185.375,189.3,192.8276,194.7181,197.3594,199.6706,203.6234,207.3933,210.1734,211.5267,214.1191,217.8446,221.106,222.0674,221.963,221.8242,223.5625,224.4797,223.5432,220.9501,221.6906,226.4066,230.4214,230.9279,229.7761,228.6336,229.4804,230.6389,229.3664,226.487,225.1644,225.1788,225.5357,223.6061,220.218,217.4849,217.7923,217.6395,215.3603,211.7417,209.7309,210.6753,211.6919,210.6419,208.0432,206.9155,208.0666,209.2906,208.7102,207.2235,206.2612,207.8274,210.5128,209.7016,207.1111,205.6492,206.1105,206.582,205.6181,203.3295,201.2668,201.8118,203.197,203.4123,201.5413,199.6017,199.1502,200.1207,200.0365,198.5805,199.4966,202.7527,208.1757,211.4393,212.6098,214.2921,218.1125,224.3677,228.9008,231.1927,233.5136,236.2375,239.9865,242.021,242.422,242.9692,245.6993,247.5294,247.497,245.7177,244.46,247.2072,249.6721,248.9022,244.7671,240.0453,235.8777,231.5444,224.7042,213.6901,199.6843,183.0258,167.5504,154.456,144.5633,135.7569,127.7018,119.4635,110.2885,99.06347,87.02924,76.4836,66.684,55.40923,42.95498,28.77776,15.41785,3.737292,-8.429473,-22.40911,-36.93802,-49.82468,-61.40491,-74.97088,-89.34627,-104.2738,-115.0247,-123.4197,-131.8986,-141.6831,-151.0066,-157.465,-164.3477,-170.5076,-176.0165,-182.3069,-186.6744,-189.3893,-191.734,-194.5194,-196.4094,-196.2426,-192.8855,-190.243,-189.2457,-188.3482,-186.4449,-184.9432,-182.4616,-177.1158,-169.6089,-159.0734,-146.9077,-134.9737,-124.4284,-112.9676,-99.52652,-84.18688,-69.52455,-57.16528,-47.03955,-36.09121,-23.98998,-11.64028,-1.261508,6.186896,14.74974,23.35825,31.7397,37.43841,40.87679,45.09225,48.85586,49.95908,46.90551,41.39379,36.19561,33.47926,30.16524,25.05587,18.60875,11.56316,5.032736,-3.528907,-13.53115,-24.07961,-33.19332,-40.76965,-50.80282,-63.24098,-76.304,-87.76874,-96.88934,-106.2779,-117.1111,-128.4266,-138.5351,-148.0091,-156.2621,-165.3406,-174.7697,-183.4324,-193.058,-203.2668,-215.3926,-228.798,-241.9444,-252.641,-263.2073,-275.9783,-288.1115,-295.5123,-295.4292,-290.9044,-288.1683,-289.5122,-290.2696,-288.2793,-284.7406,-283.0433,-281.6078,-278.6097,-273.963,-269.4731,-264.8032,-261.008,-254.7711,-245.974,-237.1224,-229.5283,-222.8518,-215.2212,-205.3114,-194.8729,-184.3421,-175.007,-164.1941,-151.278,-139.6749,-130.0396,-121.5039,-112.0337,-101.9506,-90.56163,-81.9582,-76.40319,-70.85111,-63.60994,-56.56471,-51.56883,-49.08894,-47.00027,-44.73841,-43.68228,-44.65312,-47.70166,-49.77187,-48.65363,-44.49263,-40.76934,-40.29963,-41.09404,-40.72092,-39.21171,-38.13372,-38.25186,-38.50755,-37.89319,-37.15625,-37.78872,-39.66648,-40.55329,-38.04865,-33.95827,-33.26632,-34.3767,-34.16649,-32.98877,-29.92952,-28.66989,-29.73231,-30.82128,-30.37121,-29.58856,-30.6891,-32.89031,-34.55598,-33.59106,-31.55157,-31.3749,-32.64046,-33.92321,-33.15982,-31.27052,-28.76539,-28.29433,-28.07584,-26.01764,-23.16583,-21.50789,-21.16173,-21.55525,-20.76851,-18.55031,-16.7345,-17.2478,-19.12302,-18.85807,-17.10012,-16.04168,-16.31151,-16.69078,-16.07759,-13.81463,-13.10787,-14.32779,-15.37181,-14.63992,-13.22052,-13.80951,-15.46967,-17.02483,-16.53378,-14.84592,-14.4466,-15.72111,-17.29314,-18.12167,-17.85747,-18.15348,-20.96829,-23.58252,-24.89699,-25.49451,-26.01184,-28.80532,-32.00849,-33.99189,-34.66008,-35.82722,-38.86804,-42.41417,-43.78664,-44.41611,-45.22495,-48.0335,-50.90675,-52.34825,-54.54536,-57.97793,-62.37531,-66.4455,-67.97612,-67.89304,-68.67985,-70.96169,-73.78686,-74.26346,-72.49019,-70.67222,-70.69379,-71.18982,-70.0309,-67.17386,-64.71287,-64.5488,-65.30802,-65.14786,-63.23799,-61.4506,-60.75104,-60.94253,-59.66177,-56.51801,-53.49262,-52.98288,-53.15375,-51.65552,-48.69253,-46.33158,-45.80895,-46.46597,-45.4662,-43.54762,-42.14112,-41.12628,-41.92552,-41.72508,-39.98299,-38.57445,-38.96188,-40.54199,-41.04824,-40.03678,-39.40772,-40.04194,-41.41636,-41.53452,-40.96329,-40.30798,-40.71757,-43.1173,-44.51223,-43.67626,-42.39721,-44.3796,-47.62201,-49.12638,-49.48184,-49.82138,-51.63002,-54.18069,-55.33452,-54.79139,-54.19516,-55.27062,-56.69066,-57.17413,-56.68102,-55.50622,-55.33527,-57.24575,-58.304,-56.66795,-54.90371,-53.81569,-53.48352,-52.5249,-50.06136,-47.01574,-44.85301,-43.99495,-41.66902,-37.03064,-32.37937,-29.604,-28.21031,-25.73899,-21.2314,-16.63019,-13.90062,-11.0753,-7.978487,-5.244408,2.465279,8.213025,10.2042,12.07434,15.9754,20.39012,22.36222,22.77054,24.08872,25.63754,27.85696,28.21184,26.83031,23.45109,20.79393,20.22697,21.25854,21.15642,21.56146,22.98919,25.42904,27.16134,27.43077,28.84258,32.56497,36.3059,38.87282,40.51817,42.67084,46.07256,50.99823,54.3262,56.39623,58.71621,63.13957,68.12719,71.80679,73.92735,76.1931,79.5915,84.77991,87.79463,89.94206,91.86117,94.62739,98.49921,101.5046,102.7386,104.2636,107.1041,111.1037,113.7416,114.8816,115.8644,118.0777,121.5109,124.1725,124.9247,125.8007,128.0449,130.9014,132.946,133.3415,132.88,132.5326,134.5851,134.6031,133.9926,132.923,133.6735,134.4114,134.303,133.46,131.344,130.0172,130.9841,130.7773,129.1295,126.567,125.4146,125.2343,124.3312,121.255,117.7546,115.8497,115.6459,114.7058,111.1521,108.0459,106.4575,106.3899,105.8623,103.931,101.2103,99.45567,100.0778,99.93991,98.31893,96.65197,96.02948,96.18841,95.77403,94.46434,92.6662,92.35764,93.24839,94.09752,93.97421,93.71097,94.14198,98.03965,97.39347,94.22431,91.49407,90.73901,90.50379,89.19073,86.22177,82.4886,78.95712,76.95883,74.43847,69.2017,62.97041,59.56086,58.34829,57.51227,53.99642,49.55369,45.87672,44.35408,42.91266,40.40474,37.65702,36.20976,35.99405,35.67066,34.18469,31.3875,30.03695,30.49687,30.37633,28.26159,25.58081,24.4353,24.00162,23.87111,22.93261,20.21692,18.74124,18.89166,18.90276,18.15585,15.8062,14.10906,13.96746,14.38888,13.98197,11.62317,9.736298,9.65735,10.38326,9.249362,7.331979,5.762552,5.362931,5.948595,4.824058,2.09196,0.1639498,-0.3913573,-0.3567521,-2.161398,-4.398658,-6.537018,-5.792341,-4.779262,-4.746309,-7.326992,-7.975425,-7.809755,-6.843604,-7.08986,-9.704629,-10.8785,-10.40541,-9.999526,-10.54083,-12.46835,-13.66838,-12.54265,-11.42046,-11.40532,-12.5966,-13.21725,-11.30601,-10.12125,-9.573936,-10.26063,-10.15623,-7.53955,-5.418438,-4.068485,-4.27413,-4.274223,-2.65237,-0.5781764,0.4398847,-0.1609414,-0.7163258,0.7293053,3.073337,4.152073,4.172447,4.458629,5.711528,8.047721,9.835484,9.842843,9.304783,10.25457,11.47744,11.52902,10.74437,9.346635,9.206949,9.560429,8.938331,7.088524,4.911617,3.906761,4.55514,4.32144,2.448597,1.796624,1.545151,2.396822,1.642366,-0.2877462,-2.53219,-2.620689,-2.624833,-2.877685,-5.143245,-7.747104,-9.875495,-10.66892,-11.39201,-13.8084,-15.78907,-16.73635,-16.3821,-16.58569,-17.55162,-19.75719,-21.37697,-19.60741,-18.22781,-20.45389,-23.50786,-26.77317,-27.632,-29.55766,-33.934,-38.64984,-42.70549,-46.12724,-50.09912,-56.28712,-62.79589,-68.21222,-72.24489,-77.85868,-84.24744,-92.24087,-98.45975,-102.576,-108.327,-115.0585,-121.9791,-127.753,-131.3198,-135.7186,-140.9261,-147.2734,-152.2609,-155.0757,-158.0794,-162.2947,-166.245,-169.6433,-171.0497,-172.2965,-175.2428,-177.6442,-179.8075,-178.773,-177.323,-177.085,-177.6535,-175.7888,-173.4873,-170.31,-168.2803,-166.9188,-164.0165,-160.4802,-155.7171,-152.9963,-149.8301,-146.5414,-143.3866,-138.5837,-135.0596,-132.7231,-128.4147,-121.8371,-115.3473,-111.1513,-107.1305,-101.8304,-95.69848,-89.41506,-83.57702,-80.09067,-75.78751,-70.39768,-64.36881,-60.67592,-57.76231,-54.89792,-50.34379,-46.06953,-42.64727,-42.09109,-40.20792,-37.3982,-34.95088,-33.66285,-32.72499,-31.17056,-27.90776,-25.06764,-23.29009,-22.19103,-22.12946,-20.39734,-17.55399,-17.11744,-17.79362,-18.03053,-17.55324,-15.17796,-14.84572,-15.57721,-15.15567,-12.07481,-8.840022,-7.37161,-6.718827,-3.47837,0.3486992,5.739336,10.49946,13.66481,19.0679,25.99762,31.77658,35.90513,39.1585,42.56604,48.88089,55.69092,60.56933,64.81321,68.78443,74.2162,80.92566,85.94871,89.48631,92.85605,98.63373,103.8319,107.9658,110.8548,113.6429,117.4641,121.0634,123.8398,124.8289,125.6551,127.3846,129.5242,130.8173,131.6918,131.9748,132.5674,133.5648,133.2471,131.2561,129.5103,128.5371,128.4253,126.8488,124.2793,120.2145,120.7994,119.909,117.7548,114.1466,110.8001,108.2696,106.7944,104.2624,99.63732,95.8522,93.28877,92.06984,89.75285,86.30056,82.32173,79.9058,80.40102,80.54125,78.45399,76.67137,76.13157,75.80557,75.21241,74.36406,72.5847,72.85207,74.11848,75.3903,74.50968,73.92611,74.9143,78.12309,79.80636,80.94457,81.12665,83.01877,86.02523,88.55652,89.5216,89.86547,91.75132,95.56707,99.88637,101.3053,101.3039,103.2933,107.2007,111.0952,112.9573,114.9128,117.696,122.7052,125.2627,125.8645,125.3965,127.2992,130.945,132.6396,132.9106,132.7595,133.2659,134.478,136.0873,136.8474,137.3363,136.6586,138.9508,140.5529,139.6467,138.0479,136.801,136.9321,136.7713,134.4882,131.0616,129.1404,129.1328,128.2057,125.1854,120.7867,117.7346,116.1204,114.2982,110.6727,105.5692,102.0697,99.00834,96.27452,91.92627,85.94882,81.93554,77.81203,74.73745,70.62317,64.87535,60.08401,57.4713,54.69131,50.69016,44.00328,37.69042,34.94384,31.88206,27.03432,21.68258,15.87986,12.35425,8.699081,4.142925,-2.300042,-6.412713,-10.57482,-14.06633,-18.36405,-23.98133,-28.5621,-31.81649,-34.07845,-37.6446,-41.87821,-45.41409,-46.84487,-48.35611,-50.90485,-54.40262,-57.8901,-58.80015,-59.72693,-62.56002,-65.4024,-68.04401,-69.33543,-69.20547,-70.46079,-72.77917,-73.84247,-74.32343,-73.85601,-74.41717,-76.50801,-77.89468,-77.48663,-76.29132,-75.98434,-77.61068,-78.71631,-78.0712,-77.8136,-78.59875,-81.73966,-84.02307,-85.32452,-86.64967,-90.21251,-94.27727,-97.64081,-99.54605,-100.4891,-102.6124,-106.7389,-110.5888,-112.562,-115.3955,-118.1143,-120.9171,-123.7733,-125.6044,-126.7416,-128.541,-131.3933,-134.5359,-135.2505,-135.0651,-136.338,-138.7818,-140.2174,-140.5389,-139.0451,-139.0622,-141.051,-141.8773,-141.583,-139.7593,-139.0411,-139.7921,-140.1582,-138.5292,-137.0768,-135.5438,-135.5355,-135.3077,-133.7546,-130.8655,-129.0683,-129.224,-129.018,-125.9021,-121.371,-118.3437,-116.5095,-114.7112,-113.4819,-109.9747,-108.5198,-108.4126,-108.5871,-107.4869,-104.8859,-103.3245,-103.2681,-103.9599,-103.0241,-100.8525,-100.1426,-101.2209,-102.144,-101.6107,-99.51833,-98.12918,-98.98659,-98.43836,-97.64836,-94.75421,-92.3279,-91.82649,-91.34923,-89.59782,-86.13018,-83.19375,-81.72138,-81.04378,-78.58845,-75.01453,-72.0137,-70.10589,-69.36504,-66.30404,-62.28196,-58.46267,-55.99272,-54.39713,-50.88769,-45.62232,-40.73674,-36.54684,-33.92517,-30.45134,-24.53176,-18.87227,-14.51364,-10.89216,-5.994059,0.8737343,6.557817,10.85627,13.15761,17.14443,22.49663,28.60753,32.38709,34.81702,38.17813,43.06726,47.49968,50.11242,52.5613,55.81427,59.60425,62.81029,63.70305,64.19808,64.23609,65.36789,67.29445,66.82368,64.21199,62.71829,62.33621,61.1596,57.90983,53.41181,50.48234,47.53468,45.04807,42.19309,38.23828,34.53016,33.12887,30.96479,27.27601,23.10994,18.39005,15.93104,13.18083,9.058646,3.39568,-0.4616165,-3.012918,-5.157042,-9.34535,-13.56398,-16.43659,-17.5212,-17.55983,-19.09113,-19.8612,-20.87634,-21.6213,-21.44744,-22.20614,-24.94354,-27.70528,-28.06489,-27.76327,-28.88603,-30.98824,-32.33206,-31.85732,-31.23201,-31.91733,-34.6728,-35.10422,-34.28582,-34.63491,-35.86517,-37.3861,-40.08447,-40.01422,-39.84975,-41.25454,-43.25825,-46.61049,-45.80139,-46.93534,-48.59574,-51.902,-54.50764,-55.58812,-56.45058,-58.79901,-63.36613,-66.17477,-68.05237,-69.79283,-72.20024,-76.60631,-80.21837,-82.816,-84.69568,-87.51351,-91.85435,-95.47673,-97.29951,-99.23095,-101.7937,-106.6753,-110.9082,-112.6547,-114.3985,-116.2989,-120.2217,-122.8398,-124.1706,-124.5259,-125.7087,-127.9107,-128.4256,-127.5705,-126.1952,-126.2582,-126.5283,-126.7989,-125.3983,-122.7131,-120.6369,-119.6379,-119.3183,-117.3575,-113.4327,-110.7769,-109.6483,-108.1327,-104.9185,-100.0931,-97.2109,-96.2727,-95.26037,-92.19044,-89.32453,-86.62069,-84.11724,-82.26076,-79.30535,-74.64317,-70.11597,-68.18673,-65.92369,-62.49785,-58.00022,-54.72227,-53.78355,-52.30662,-49.22241,-46.02157,-44.09278,-43.2574,-42.54318,-41.31054,-39.5466,-37.47391,-36.7611,-36.39636,-35.76852,-33.20355,-32.16488,-32.27267,-33.50317,-32.33898,-29.28673,-27.01335,-27.66915,-28.09899,-27.34386,-25.93312,-24.32104,-23.67222,-24.16306,-23.3485,-20.47014,-18.81534,-18.41196,-18.25248,-17.94148,-16.49825,-14.03828,-12.8947,-12.87198,-10.67317,-7.685827,-5.343377,-3.738209,-2.530752,0.6450982,2.711876,6.283147,8.112697,10.29611,12.54313,16.28821,20.51167,22.9807,25.50481,28.43274,33.5966,38.56771,42.02589,45.321,48.90604,54.00691,59.26015,62.58945,65.60027,68.99554,73.42168,78.20439,81.0185,83.51333,86.99398,91.96536,97.1996,100.3568,103.1395,105.7035,110.9716,115.6816,118.5034,120.9146,124.2745,128.7771,133.0963,135.9141,137.2658,139.9153,143.787,147.376,149.4323,150.2863,152.0052,154.958,158.7554,159.9757,160.3984,161.1925,163.0398,165.4253,165.7096,165.5217,165.6055,166.3042,167.755,168.4911,167.2262,166.5037,167.8091,168.6695,168.8824,167.5538,167.1534,167.7778,168.2646,167.3568,166.4919,164.1234,163.3838,163.0169,162.0692,158.7741,157.3258,156.3002,156.7186,155.3246,153.3451,151.9161,152.1697,152.1551,151.9002,149.8298,147.4655,147.3449,146.9279,144.2461,141.6296,138.5772,137.1115,136.3345,134.851,131.1905,127.6349,126.6697,125.6832,123.6221,120.1839,118.2166,117.5718,117.7938,116.3457,113.6192,111.8392,110.6457,110.0065,109.285,106.6372,103.4758,102.7436,103.5261,103.1041,101.6443,99.88654,100.7557,102.7293,103.1435,102.6941,103.6339,106.0596,108.3433,110.116,111.3541,111.4907,113.8913,118.1,120.7628,122.6265,123.8578,127.3891,130.6673,132.5767,133.9784,135.6509,140.1279,145.5227,150.1299,154.2175,157.3709,163.5138,169.8365,175.2424,180.2039,184.6507,189.846,194.9925,200.3866,204.074,206.7782,210.3894,215.5899,220.0019,221.4414,223.2545,225.8012,229.3235,230.9741,231.3441,230.9665,231.0306,232.8034,232.8764,231.5108,228.8952,227.1879,226.9133,225.8378,222.7006,217.7865,214.6718,211.7414,208.9545,203.7236,198.6259,193.4641,189.6716,185.079,179.2579,171.9366,166.034,161.9339,157.1744,150.4552,143.9838,137.738,133.6248,129.0257,122.782,116.0008,108.6541,104.961,100.6242,94.34693,87.27744,82.20257,78.43339,74.73638,70.00658,64.11759,59.52452,57.26014,54.87617,50.49249,46.58598,43.91375,42.31912,40.87314,38.3578,35.7001,33.77087,33.03404,33.06885,31.4655,29.16957,27.49841,27.99724,28.55065,27.45648,26.66741,26.67564,27.24339,28.46756,28.02219,27.0264,26.35174,27.54196,28.15949,27.24076,25.94849,24.23413,23.86738,24.31834,23.07606,20.02506,18.37859,17.9369,16.23786,13.86271,9.199369,5.505609,2.71754,0.4911668,-2.062679,-5.176664,-8.155346,-9.870114,-11.63248,-14.51189,-18.60123,-20.81339,-22.90077,-24.3516,-26.92988,-30.41544,-33.99001,-35.97776,-36.3306,-39.5929,-42.97734,-46.76521,-47.90861,-49.6081,-52.55493,-55.59974,-59.49931,-61.23386,-62.26892,-64.82513,-68.70267,-71.56005,-72.79044,-74.13276,-76.55311,-79.88127,-82.76504,-83.81987,-84.1322,-85.61384,-88.26491,-90.33173,-90.71154,-90.50985,-92.15867,-93.81069,-96.92706,-97.578,-97.04284,-97.18224,-99.37195,-101.009,-100.4899,-100.0694,-100.4956,-102.2931,-104.6137,-105.1143,-104.0137,-105.4744,-107.3292,-109.9446,-109.8806,-110.4823,-111.2949,-113.3594,-113.5334,-112.7897,-112.9512,-114.6265,-117.3728,-120.5704,-122.3676,-124.0778,-126.2977,-130.4098,-134.9727,-137.216,-138.0757,-140.7228,-144.1387,-148.6639,-150.2903,-151.4566,-153.3544,-156.438,-160.264,-161.2536,-161.4757,-163.1912,-166.3021,-170.5212,-170.7902,-171.4115,-173.299,-175.4955,-178.2091,-178.9845,-178.4475,-178.6046,-180.5828,-182.3785,-181.45,-180.6707,-180.3315,-180.6241,-181.3425,-181.0248,-178.5975,-177.3779,-178.8193,-178.3323,-177.6994,-175.5916,-173.6292,-173.3775,-173.6484,-171.6755,-168.727,-166.4235,-165.4511,-165.3532,-163.8934,-161.5581,-159.0695,-159.0257,-159.4232,-157.1584,-155.1699,-154.4696,-153.2352,-153.9866,-152.78,-151.3867,-149.9929,-151.3384,-152.518,-151.425,-148.6818,-147.537,-147.8796,-146.8936,-146.7781,-145.0132,-142.2548,-141.8169,-141.9112,-140.1591,-137.076,-135.7004,-134.4977,-134.2584,-133.8608,-130.9972,-129.3235,-127.9945,-127.4569,-123.818,-120.6731,-117.6884,-115.3089,-112.9273,-108.4812,-103.2097,-99.16419,-96.07106,-92.84656,-88.24219,-83.49709,-78.76327,-74.88594,-70.35271,-64.80404,-59.69664,-53.64372,-49.31085,-45.76577,-43.69079,-40.37268,-37.76043,-35.17244,-34.65341,-31.25242,-28.86363,-25.67344,-23.70492,-22.43246,-19.75187,-16.21933,-13.33215,-12.30127,-11.85221,-9.179634,-6.171556,-3.872972,-1.212625,-1.654963,1.514471,3.400714,5.23624,7.724843,10.11029,12.39018,14.31041,17.43704,19.56029,19.56614,22.69821,25.98663,26.76173,29.03943,31.39888,33.4804,35.58662,38.82755,41.81119,43.06086,45.20043,48.67664,51.91076,53.57186,56.72845,58.17833,62.37324,66.36807,68.50449,71.67356,74.74924,77.85288,82.07988,85.41584,87.87189,89.27013,93.49624,99.42397,102.9424,105.5166,107.9458,111.3076,114.9341,117.611,117.4187,118.6133,120.464,122.836,124.0085,124.7085,125.9295,128.1698,129.0121,130.6051,131.7001,130.7835,132.7593,135.1662,135.2118,134.3747,134.8605,134.9881,132.6667,132.9311,131.1229,130.7565,132.3616,133.7421,135.4783,137.2826,137.5993,137.5851,145.7821,150.4777,153.625,156.8479,159.1194,161.7336,165.1763,166.2216,166.0584,167.2874,169.907,171.6258,173.3878,170.7626,169.3069,171.263,169.1836,166.8955,164.0991,162.6108,160.5392,160.1573,156.1186,153.862,149.068,148.1332,146.0118,141.3647,137.849,133.6211,131.6366,129.9384,127.7344,124.3786,123.3936,122.11,122.3558,118.95,118.1166,117.745,118.3068,118.0682,117.4129,114.5017,114.952,115.6248,115.3356,115.354,115.7288,114.2512,115.9891,119.8335,119.9399,120.3572,121.8621,125.0928,128.6853,130.5685,132.5995,135.2951,138.3766,141.2957,143.5332,144.5571,147.9966,152.0202,156.1525,161.2322,162.7752,167.0109,173.0137,178.6091,182.5608,185.1995,191.8711,197.0634,200.8546,204.4824,207.1831,211.7409,213.8608,217.1337,219.0502,219.8186,221.1131,222.9213,223.65,223.6708,222.6452,221.3901,221.2067,221.032,217.861,213.5939,212.2869,208.9611,204.727,200.0245,194.0343,187.6557,182.4107,180.1028,175.3508,171.72,165.71,163.22,160.4267,156.6787,151.5537,147.6727,148.5541,144.0717,139.8554,134.0032,129.3591,125.5397,122.3596,115.4033,110.2864,106.9361,103.9196,102.511,98.75874,94.46579,92.03749,92.93914,91.39395,92.28453,92.20565,91.78078,91.60821,95.14614,94.82747,94.96332,95.22913,96.37023,97.77262,98.14902,98.59476,98.75532,100.9724,102.4436,101.5919,99.96737,100.0443,98.96689,98.59969,97.78354,93.48894,90.61088,87.91517,87.35437,86.78958,82.73241,78.65792,73.64828,68.80592,63.81085,55.45284,47.98939,41.79037,35.25429,26.4245,16.30739,6.000844,-1.117172,-10.86305,-18.87472,-30.43965,-41.58823,-52.55865,-61.04678,-72.51224,-82.74828,-93.38659,-102.5903,-110.1112,-117.8382,-127.6074,-135.36,-142.3654,-148.3583,-154.972,-160.9286,-166.9195,-171.2179,-172.1384,-174.8544,-178.1621,-179.5975,-181.3433,-180.0984,-179.5272,-179.6118,-178.3937,-176.7831,-172.2426,-168.9381,-166.4053,-162.441,-156.4551,-151.5179,-145.059,-139.5566,-133.5937,-128.6414,-121.4675,-111.7267,-106.4267,-101.0784,-94.35773,-86.77838,-79.7573,-74.03653,-70.41802,-64.91844,-59.22972,-54.88532,-52.59217,-51.67672,-48.24492,-46.83289,-45.49871,-45.75497,-46.79724,-48.11673,-47.31779,-48.07973,-47.94691,-49.55302,-50.58344,-49.94322,-49.77853,-50.17769,-51.30972,-50.05087,-50.17316,-49.71009,-51.22546,-54.43136,-56.2189,-54.32984,-56.74975,-59.96738,-63.58601,-67.5102,-67.04281,-66.16121,-66.20763,-67.47278,-68.14186,-67.20366,-67.39295,-67.38941,-69.00033,-69.97971,-67.98694,-67.42384,-69.26917,-68.0338,-67.44366,-65.31049,-65.89075,-69.27011,-74.21103,-76.54359,-77.25875,-78.80655,-81.2261,-83.50233,-86.74299,-89.41943,-91.22057,-94.00323,-97.86059,-101.5297,-107.7228,-109.769,-115.1368,-119.6244,-123.8783,-127.127,-131.2,-135.0328,-140.119,-144.4845,-147.1011,-149.8817,-153.9904,-159.2579,-162.3056,-165.1955,-167.0371,-169.8627,-174.7211,-177.4384,-179.5318,-182.8516,-183.7552,-187.314,-190.0286,-189.2059,-188.6949,-189.472,-190.62,-190.5678,-188.6553,-187.514,-185.7823,-185.1516,-183.3851,-181.3508,-177.3864,-175.6875,-173.5381,-171.438,-167.9863,-163.2005,-162.1161,-159.3331,-157.608,-154.9123,-152.355,-150.6725,-150.784,-150.2631,-148.3409,-147.2348,-147.2107,-149.0836,-149.1718,-149.2685,-147.4667,-147.959,-150.1966,-151.2324,-151.0614,-150.8997,-151.3941,-154.9353,-156.4606,-158.7434,-158.7221,-159.9436,-162.811,-164.8508,-166.6077,-167.6001,-169.1681,-172.9558,-175.2889,-175.7207,-176.9521,-178.427,-179.7129,-179.5455,-176.6889,-173.1508,-170.7812,-171.5517,-172.0309,-170.5143,-168.8843,-166.8298,-168.0021,-167.2208,-165.5763,-164.5552,-162.4758,-163.3579,-162.7395,-160.5671,-159.0204,-157.3702,-156.1916,-153.9026,-151.2915,-147.2597,-144.2169,-142.8835,-142.3042,-139.4056,-135.3107,-134.0403,-135.4119,-134.8726,-131.7548,-125.6988,-121.0219,-118.5723,-115.347,-111.4488,-106.6309,-101.6562,-99.28575,-96.28772,-91.53501,-84.99948,-80.20951,-76.38051,-72.75438,-69.02501,-64.07934,-60.49791,-58.84516,-57.48627,-54.45628,-49.79029,-45.98788,-45.2539,-42.98475,-40.54648,-37.90991,-35.65336,-34.64629,-34.54939,-33.28643,-31.04963,-29.42428,-29.5488,-29.97302,-29.84433,-27.73072,-27.07354,-27.6985,-28.5668,-28.61229,-27.09569,-25.72268,-27.12494,-30.51862,-30.81211,-30.34789,-30.44834,-33.00044,-36.16343,-38.91881,-39.29523,-40.64654,-44.2564,-47.01908,-49.19803,-49.47579,-50.683,-53.61652,-56.09151,-58.95963,-58.95194,-61.2047,-64.64242,-67.23749,-70.01015,-69.59,-70.16614,-73.88844,-75.60462,-76.781,-75.96393,-75.8667,-77.07442,-78.58763,-77.98605,-76.81769,-76.55688,-76.75954,-78.55771,-74.98572,-75.47,-74.30339,-76.82982,-80.08693,-80.27047,-80.86829,-80.63539,-84.14325,-85.14232,-87.32604,-88.34401,-87.62179,-91.02529,-93.64429,-96.66938,-96.66877,-97.35116,-99.23244,-101.7731,-103.2435,-102.2245,-102.2483,-104.5166,-106.8667,-107.7674,-109.9337,-109.988,-111.0114,-112.5745,-113.6295,-111.6321,-112.5297,-112.8832,-113.8941,-114.3046,-112.419,-111.0868,-112.0964,-110.9261,-109.4765,-106.3719,-104.188,-102.4518,-100.8537,-98.24931,-95.28137,-91.06017,-89.43515,-88.44898,-84.97519,-80.84142,-77.73908,-75.15285,-73.57818,-71.03619,-67.07467,-63.78902,-63.03217,-61.51221,-59.65876,-56.24427,-54.17637,-52.8273,-52.94753,-50.70384,-48.6275,-46.59109,-45.84656,-46.56416,-46.72297,-44.30287,-43.06595,-43.73043,-44.08947,-44.58409,-43.76628,-42.99936,-45.27154,-46.40681,-47.40741,-46.74207,-45.76216,-46.9432,-49.13793,-50.89593,-51.02807,-51.43512,-53.41149,-56.37823,-61.13825,-61.97894,-63.40757,-65.54583,-69.5521,-71.46528,-71.51041,-71.83321,-73.12983,-73.80368,-74.36963,-73.50921,-71.96142,-71.91058,-72.87038,-73.03769,-70.04285,-67.88525,-67.33732,-68.86018,-67.3829,-69.75838,-68.28832,-69.82064,-72.20528,-73.71084,-74.07326,-74.21375,-76.53675,-78.10652,-82.30479,-83.82229,-84.91981,-88.57472,-91.59638,-93.14754,-92.4721,-92.98523,-93.62515,-95.04649,-97.64263,-96.5689,-97.26243,-97.69434,-98.67141,-99.2101,-98.15841,-94.38566,-93.68457,-94.54084,-94.92711,-92.07379,-91.9938,-90.19515,-90.76857,-91.0295,-89.58235,-88.28888,-86.55157,-86.13171,-83.98966,-81.03955,-77.18921,-75.10584,-73.40037,-73.5395,-73.12856,-69.81711,-70.16094,-70.4849,-71.36678,-71.17388,-71.25996,-72.0596,-74.66043,-77.41594,-79.27043,-81.12343,-82.9722,-85.08132,-88.99381,-90.47111,-91.32275,-93.96201,-97.76839,-100.7263,-104.0075,-105.7006,-107.9768,-110.5484,-113.2759,-113.4543,-114.4228,-114.4335,-116.1703,-118.42,-118.4986,-118.0929,-118.0334,-118.6095,-120.2618,-121.0493,-118.3407,-118.8007,-119.4776,-119.668,-119.4283,-116.8657,-115.8604,-116.1699,-116.5859,-113.1432,-110.2242,-108.6784,-107.2811,-104.6966,-101.6935,-97.23992,-92.26387,-89.13431,-85.34553,-79.95152,-74.13871,-67.69071,-61.94499,-55.09835,-45.40455,-38.68201,-32.07815,-27.1003,-22.69098,-18.77278,-13.97688,-9.32119,-7.209858,-6.02989,-3.276032,-1.346485,0.8896192,-0.003684837,-1.273316,-1.838842,-1.232544,-1.761196,-3.9061,-6.710822,-7.574078,-8.923551,-9.994025,-12.17332,-15.55614,-15.88445,-16.17476,-15.11671,-16.40351,-17.14865,-16.60285,-16.46276,-17.23889,-18.73925,-20.04592,-19.107,-17.58399,-15.19361,-13.17767,-11.79017,-8.581171,-3.265156,1.697338,6.071643,10.67123,14.7363,19.15638,23.36483,27.25064,29.64796,33.88995,40.42588,44.77608,49.50404,52.19261,57.49843,62.43855,67.58014,71.24349,74.29937,78.47306,83.4671,89.4595,92.18492,94.95879,97.34466,101.1882,103.4102,105.3798,106.7318,109.5523,111.8214,115.1073,115.6732,114.7854,114.0078,114.0197,113.0165,110.78,106.7714,103.2722,101.089,99.35794,93.84751,88.5884,83.49141,80.84185,76.54522,70.99039,64.70815,57.78911,53.57538,49.04966,41.28574,33.41597,26.06587,19.39708,15.66908,11.48378,6.760626,1.115536,-0.7723033,-4.226066,-8.88227,-11.35754,-13.68697,-13.52868,-13.00253,-12.54505,-12.76707,-13.01621,-12.8684,-12.89635,-12.95858,-13.96779,-14.30631,-12.38077,-12.8513,-11.25388,-12.36178,-11.0238,-8.83936,-4.778089,-3.100606,-1.145292,0.459604,4.896991,8.26035,10.70886,13.19374,15.92104,19.03496,25.06173,26.77351,27.97759,30.8425,34.40503,37.86576,41.1593,42.72144,44.80855,47.35765,51.02102,53.77245,55.65167,56.95754,60.66688,64.98164,67.75967,69.17814,71.53116,75.04495,77.77046,79.79178,80.13061,80.7287,81.50958,83.57355,84.56463,84.24801,83.78753,85.32871,85.38934,85.95872,84.02113,82.71241,84.18834,85.16018,83.90322,82.57239,80.39247,79.54134,79.44406,77.45056,74.91973,71.95277,71.20205,70.41651,68.83188,66.69294,63.85016,61.06495,59.76125,56.6245,52.78876,48.42025,46.39467,43.02023,41.81231,37.48465,34.75817,33.58768,32.50046,28.81354,25.07463,21.89016,19.77813,19.80208,19.0859,17.51933,16.37514,17.32294,19.21815,18.57182,19.88601,21.1452,24.16164,28.56757,30.70498,31.25681,31.97707,36.47961,40.26259,42.82361,46.16674,46.85459,49.58227,51.86183,55.04491,55.2305,55.43864,57.55976,59.04315,60.76902,60.53111,59.09556,60.41728,60.49638,63.42484,62.25371,62.58533,62.95645,64.68617,63.88553,63.18579,61.90352,61.20618,61.03831,60.32089,59.67324,57.77009,56.82576,57.91711,55.10455,54.50268,53.26882,51.10904,51.11809,50.62249,47.28792,44.72446,41.71974,42.03499,42.38381,40.66535,39.91876,41.31014,43.51884,43.48792,41.68944,40.82274,39.14679,37.91467,37.3646,34.92171,31.72525,29.94133,29.42799,27.72049,25.68697,23.8324,22.89871,22.05406,23.46808,21.67669,21.06173,20.94477,20.52835,21.20902,21.51006,21.30243,22.43974,25.36524,27.71066,28.86562,30.71833,32.1769,37.71097,40.27557,42.64236,43.99883,46.76733,50.22138,52.32668,54.19652,53.65501,54.32334,56.18642,57.63415,57.99366,58.47175,60.44307,61.98844,64.86473,65.39423,68.30396,69.96739,74.72617,78.48918,79.67295,80.84041,82.74893,85.95405,88.02443,90.3089,90.29415,93.1642,95.56826,96.98864,98.36421,99.58276,100.7144,99.90415,98.95812,98.36312,95.46275,94.9732,93.60003,93.83906,89.87659,88.47012,85.41515,80.9682,78.38465,73.30621,66.45761,60.41563,56.16859,48.8554,43.53006,34.75958,27.66475,20.71841,16.12512,9.596469,3.3251,-2.924953,-7.082778,-10.35033,-16.31546,-22.12568,-28.03495,-29.73236,-35.47685,-38.62882,-44.68136,-49.23097,-51.9855,-54.35296,-56.72303,-60.54787,-60.82698,-58.40074,-59.95197,-58.19523,-58.84986,-58.59207,-58.04599,-57.51427,-58.37114,-58.10717,-59.49631,-58.67601,-55.30934,-54.92295,-54.65861,-54.94162,-51.41745,-49.77996,-47.16005,-45.26633,-44.12548,-40.57081,-36.4641,-32.98285,-32.55278,-30.25636,-21.648,-18.63111,-13.45939,-9.002127,-4.091478,1.086563,7.469828,11.77743,17.0619,22.08422,28.09157,31.64316,37.25345,38.78679,44.58009,47.53908,52.82726,57.8353,58.8717,64.84257,69.40083,75.79951,79.83839,85.37456,90.54698,94.40615,101.3737,102.7969,109.194,110.4253,115.3207,120.2038,121.3375,125.8966,128.6252,132.1454,135.5523,139.602,141.037,144.1498,144.5817,150.1376,153.3483,154.3466,155.1963,157.1235,161.7117,164.0326,165.6705,167.9896,169.3897,172.558,173.477,174.9237,172.9424,172.8624,175.1844,176.6538,177.062,176.6066,180.5617,180.1422,185.6305,184.9348,187.0159,190.0791,194.2748,196.8439,200.3175,201.5807,204.3947,208.9054,210.2998,213.2259,213.6832,217.3631,218.045,221.5023,221.5627,222.2481,222.3963,223.8028,224.7735,224.1213,224.6164,223.2621,223.6136,225.8113,221.5803,218.517,216.823,214.8338,212.1649,210.0639,204.3006,201.1719,197.7241,192.4936,187.3158,180.5931,176.0061,169.0886,163.5147,157.1692,148.7628,142.0051,134.5964,127.2149,116.8996,110.2175,102.6393,92.81627,87.45662,78.28488,69.22295,60.20995,53.76926,47.09178,39.61842,30.15997,21.37251,15.853,10.19458,3.12338,-2.010827,-9.216331,-12.13798,-17.64865,-23.43342,-27.43491,-34.27056,-36.2764,-40.85879,-42.56078,-48.68326,-52.7474,-53.82753,-57.95187,-59.0027,-64.97998,-66.91999,-67.98205,-69.71405,-70.83039,-74.15817,-76.97847,-76.91203,-76.63116,-78.91485,-80.57684,-81.37023,-79.76586,-81.91407,-83.41079,-85.21513,-86.05424,-86.41303,-87.22637,-88.77765,-90.5753,-92.86803,-92.08171,-92.8566,-94.39229,-95.87391,-96.52057,-95.24417,-93.55773,-95.2824,-95.88338,-95.99873,-96.45072,-94.13795,-94.94416,-96.47368,-96.34091,-95.82929,-94.02388,-94.32059,-95.04999,-94.62359,-92.93601,-92.10312,-91.425,-92.4824,-91.12285,-89.87453,-88.27268,-87.94578,-88.66405,-88.89143,-86.97798,-84.18511,-83.45503,-83.46779,-82.69431,-80.03014,-77.93909,-77.18578,-75.3027,-73.89104,-70.96143,-68.07313,-65.88043,-65.82241,-64.82965,-62.52436,-60.01522,-58.62565,-58.90809,-58.1443,-55.92288,-53.17613,-51.95587,-52.80737,-51.928,-50.91562,-47.69895,-46.30683,-45.54095,-45.93068,-43.27588,-41.42583,-39.22798,-38.77413,-38.13409,-35.92993,-33.90043,-32.48878,-31.46482,-30.34237,-26.864,-25.2335,-24.11194,-21.85853,-20.79926,-19.05966,-15.4764,-13.45686,-12.63188,-10.71684,-8.396275,-5.539753,-3.329915,-2.704569,-2.092979,0.5439159,2.631959,4.891709,5.003982,5.920762,8.64712,9.966971,11.44373,13.34399,12.66917,16.26083,17.4312,18.46317,19.55331,19.88396,21.21808,23.81059,25.22713,25.7539,25.99065,27.30732,29.90795,30.02543,30.32744,30.45037,31.49269,32.34461,34.17341,33.73034,32.99463,32.86299,34.61614,35.14486,33.76662,32.32682,33.18511,33.55533,34.12129,32.36434,32.43972,32.39377,33.08367,33.70488,33.69465,33.07555,33.63304,35.05442,35.21866,35.43155,34.74922,35.2331,35.37707,36.77408,36.12473,35.8872,36.38801,37.84303,38.93477,38.93216,38.69814,39.85924,41.67354,42.79685,43.71484,42.36935,43.83954,44.73487,46.79122,46.47716,45.77292,47.0736,48.3407,49.61675,50.52258,49.57016,50.29121,51.76862,51.85281,52.86127,52.06107,52.7043,53.82128,54.55612,53.85781,53.33735,53.78668,53.34813,55.40598,53.41672,52.86918,52.93973,53.77138,55.32021,53.34715,49.42786,49.65748,49.33035,50.57015,51.56614,49.14411,49.99945,52.12174,52.70777,53.41467,53.92572,53.06299,55.45072,56.00973,56.13886,55.0537,55.74459,55.87583,56.81191,55.8454,54.43931,53.61214,53.01745,53.8757,52.81329,50.05283,49.27262,48.06863,47.67529,45.9976,43.19558,41.64608,40.46929,38.66708,35.72865,32.51241,28.79858,26.40994,23.18993,20.60525,15.97405,11.53927,8.872038,5.216674,0.944254,-4.585124,-9.241206,-12.1227,-16.57033,-21.89771,-26.6531,-31.6234,-35.58176,-38.52004,-44.05629,-48.95424,-54.30785,-57.99937,-60.87896,-65.18312,-69.61222,-74.36964,-78.29771,-81.5812,-84.86493,-90.2556,-93.85323,-96.89826,-98.22941,-99.6916,-100.8274,-103.3357,-104.3986,-105.3857,-107.7802,-110.4643,-113.6401,-115.4763,-117.6245,-120.1204,-122.55,-124.8921,-125.4282,-125.568,-126.8732,-128.1829,-129.8296,-129.2927,-128.7798,-127.9507,-129.567,-129.4233,-127.8857,-126.3624,-124.3309,-124.3365,-123.5935,-121.6484,-118.529,-117.5603,-115.6099,-115.4004,-113.4291,-109.1809,-108.5425,-106.5534,-106.1288,-103.9644,-101.6036,-100.1521,-98.59932,-94.60499,-91.3449,-87.00956,-83.2569,-80.12634,-76.99756,-72.17922,-67.33961,-62.87356,-59.00372,-56.40327,-51.32194,-46.00879,-41.38876,-38.3005,-34.81242,-30.01876,-24.682,-20.69178,-17.4661,-14.31797,-10.13547,-5.441181,-0.9301707,1.651861,4.216747,7.683937,11.61339,15.14886,17.55375,19.14817,21.00811,23.58482,26.40104,27.33767,26.73668,28.58868,30.22571,31.084,30.35454,29.39971,29.68735,30.2701,30.37207,28.39195,27.32053,25.62148,25.26535,25.32451,23.14556,20.68298,19.50713,18.701,17.96419,15.91326,13.98582,12.68233,13.53211,12.41596,11.5208,9.428111,8.586362,9.341205,9.729466,9.647759,9.490125,10.43893,13.52721,15.6556,16.41006,14.38307,14.54563,16.35451,16.73297,16.41467,15.27772,15.45493,17.09351,18.84879,19.26442,18.82385,18.90828,20.20501,21.34451,21.50984,19.96461,20.67036,22.12374,23.65589,22.41152,22.03172,22.53694,22.89809,23.78908,24.00707,22.28391,22.53706,22.74122,23.17718,23.8924,21.68268,20.36088,21.89898,21.72189,20.98428,19.48603,19.20586,18.89512,19.38937,18.27123,16.789,15.75421,15.33257,15.52395,14.2944,11.97468,11.45532,10.49882,10.08912,9.835385,7.262139,6.024592,6.103575,6.148423,4.932119,3.68054,2.489128,2.862548,2.712149,2.755059,1.225343,0.0007440394,0.9099673,1.632615,1.169931,0.2962053,-0.1661155,0.9679529,1.684731,2.229599,1.011431,0.2186036,1.971981,3.403785,2.88907,1.804436,2.158539,2.647969,3.69394,4.292004,3.910661,3.555735,4.477968,5.45365,6.474272,5.615824,4.815356,6.996236,7.617928,7.822018,7.392731,7.403231,8.312201,9.794405,10.63086,9.542407,9.223523,10.50286,10.41556,11.38112,9.870379,8.907441,9.525982,10.75555,10.44571,9.668217,8.666596,8.976565,9.180029,10.52343,7.904569,8.222529,8.511782,8.804315,9.472607,8.323349,7.8936,7.86232,9.192971,8.631282,8.105052,6.495742,7.242716,8.122396,8.360522,7.351056,7.129489,7.438527,8.035012,7.602679,7.886224,6.6634,6.814152,9.175452,10.19518,8.662438,8.785178,8.773173,10.63154,10.95139,9.91237,9.301265,10.04608,11.01031,12.315,11.5105,11.49927,11.52646,13.35348,13.86273,13.78016,13.19437,13.43516,14.89322,16.20375,16.44516,16.52845,16.3716,16.43116,17.09634,17.48598,15.69919,16.61292,18.61686,19.21179,20.105,20.19408,21.62416,23.54251,25.26414,24.91391,25.69438,25.92606,28.40901,29.62349,29.89979,29.24022,29.56313,30.4953,31.92159,30.96183,29.83311,29.85238,29.83892,30.16441,29.91251,27.60199,26.19533,29.18454,29.18439,29.36459,28.49144,28.42881,27.47146,27.44911,24.33507,22.03243,18.79754,17.3828,15.12431,12.11927,7.690911,4.396099,1.780735,-0.4500249,-4.820584,-8.605594,-11.86379,-14.49674,-15.93,-19.65269,-22.36578,-25.48604,-26.77057,-28.63728,-30.27567,-33.85458,-34.79757,-35.71214,-36.81684,-38.56193,-40.76728,-42.1626,-40.57269,-40.46187,-38.22591,-38.27019,-36.33765,-33.23352,-30.44233,-27.58234,-25.33725,-22.33509,-18.03695,-12.88746,-8.920525,-5.898679,-1.669427,3.11423,8.613941,13.28143,16.99488,21.38535,26.877,31.8969,34.95247,38.85998,40.61969,46.14421,49.94381,53.23972,55.40025,57.18892,60.72354,63.81568,64.96415,66.49496,66.49722,68.49314,69.70972,70.15096,68.80789,67.20687,67.57743,66.94053,64.88098,61.54507,57.61634,55.38625,54.53886,52.55488,47.20184,44.55464,42.15884,39.22387,36.33417,32.05085,27.02677,23.89007,20.79794,16.71602,12.8346,6.707098,4.797978,1.082838,-2.984764,-7.574868,-12.18919,-14.66271,-17.06769,-20.06948,-23.40903,-26.54503,-28.4437,-27.84571,-29.65401,-31.26212,-30.87175,-29.20998,-29.40353,-28.22346,-28.83318,-30.37746,-29.92229,-28.51885,-27.84965,-27.82711,-28.20152,-27.11683,-26.31251,-24.15723,-24.44841,-23.89323,-22.47332,-19.86451,-18.18448,-17.69215,-17.31261,-15.59348,-13.46547,-12.81558,-11.76803,-12.88321,-11.15042,-10.91008,-9.202983,-11.44604,-11.34025,-12.94672,-12.54196,-11.33124,-13.27448,-13.09691,-12.80976,-11.36507,-7.746772,-8.706384,-8.950311,-8.982101,-8.559359,-7.854327,-8.639644,-10.5087,-10.3932,-10.07831,-10.73977,-11.96191,-13.38121,-14.62536,-13.98762,-13.57682,-14.52512,-16.89444,-17.38336,-16.23683,-16.86195,-17.24105,-19.47394,-18.30847,-18.28794,-18.08838,-18.33128,-19.59506,-19.20185,-18.20014,-16.81474,-16.69621,-17.56439,-16.56962,-14.84808,-13.89426,-13.15312,-13.57012,-11.99457,-10.37453,-7.4881,-7.02888,-6.543811,-5.849449,-3.274119,-2.942542,-1.825801,-1.134744,0.6152346,2.370021,5.363665,7.683686,8.455412,11.68314,14.00418,17.95468,20.20195,21.93786,24.19993,27.07634,30.12374,32.9076,35.98976,39.34332,41.80141,45.15084,46.58626,46.89898,48.22089,49.80407,50.34464,51.02895,49.56945,48.36183,48.89639,48.19725,47.63366,44.37213,41.3559,39.47738,38.31781,35.86953,32.48247,29.51329,29.22503,27.57107,24.01499,22.6132,19.0917,17.76273,16.16883,13.74696,10.36223,8.03507,6.259797,5.186339,3.338632,0.3678346,-1.843136,-3.38758,-3.078061,-5.266282,-6.478926,-8.875354,-9.014279,-9.626507,-10.8571,-11.39084,-11.94313,-10.95127,-10.84451,-12.2488,-14.18245,-15.50596,-16.51757,-15.62447,-16.32483,-18.24397,-19.55729,-20.11151,-20.31563,-19.98882,-21.7767,-22.65275,-22.42614,-21.37036,-22.00119,-23.35685,-23.32679,-23.38255,-22.55826,-22.69113,-23.84553,-24.57102,-24.62034,-24.26403,-21.84852,-21.88752,-22.56517,-22.57856,-21.14246,-21.98194,-22.79631,-23.90395,-25.05843,-25.96765,-26.7438,-29.94028,-31.43199,-33.98537,-36.06268,-38.31133,-41.91784,-44.66888,-47.50672,-49.43359,-49.8491,-52.60964,-55.28689,-57.30261,-56.69573,-57.62567,-59.75864,-60.39487,-61.6783,-59.73208,-59.8192,-59.08845,-59.96908,-57.48164,-54.79917,-51.84963,-49.55626,-49.15892,-48.45639,-44.55534,-42.70917,-41.27141,-39.7306,-39.25941,-35.79206,-33.97792,-32.6333,-31.66716,-29.86071,-27.81352,-25.75534,-25.34069,-24.35493,-22.05239,-18.95523,-16.00448,-14.67337,-12.99718,-11.18179,-9.074739,-6.235866,-4.142597,-3.681453,-1.957572,0.2421122,2.565885,4.130316,5.073885,6.949326,8.571,10.37788,11.62165,12.14499,12.87792,14.24543,15.8602,15.52426,15.50482,15.13841,15.86243,17.06433,16.84416,15.3098,14.73465,14.34735,14.22366,13.92682,10.81392,9.777693,9.57112,8.143073,6.52192,3.241634,2.039625,0.6976221,0.1828252,-2.00974,-4.113997,-6.84342,-8.354479,-9.230244,-10.91229,-12.85164,-14.90051,-14.62019,-15.36476,-15.86227,-16.42,-16.88285,-15.30951,-13.07613,-14.28735,-15.02453,-15.94184,-14.11541,-14.14868,-13.82263,-15.22609,-16.66396,-15.78351,-15.39999,-14.8412,-15.67066,-16.8431,-16.30649,-14.39767,-15.0493,-14.4843,-16.04974,-14.27334,-13.54095,-13.20945,-13.2789,-13.47166,-12.16417,-10.65602,-10.81535,-9.700556,-10.71287,-9.394769,-8.153121,-8.296889,-7.842238,-8.288705,-6.971152,-6.424329,-5.315682,-5.460704,-6.17465,-4.565774,-3.796664,-3.188924,-2.737435,-3.403599,-1.509809,-0.2814333,0.575689,0.717761,0.3421947,1.666903,2.496514,4.059629,4.413541,3.43264,5.115803,6.481742,7.797509,7.881246,7.878316,8.694839,10.18288,11.02478,11.47974,10.71209,12.09609,13.68797,14.58082,14.33502,15.26967,15.50734,16.78186,18.52705,18.24959,18.22912,19.14397,20.65038,21.7178,21.98125,21.48061,21.96655,24.34771,24.88048,25.54011,25.44051,26.01886,27.31335,28.99262,27.46605,29.34478,28.01415,29.2081,29.86039,29.96582,29.18551,29.15158,30.17595,31.44752,30.21241,30.10285,30.77409,32.53072,33.49032,33.49225,33.79297,34.80041,35.44059,37.609,38.1524,37.4986,39.15522,39.73865,41.0822,41.89012,40.17627,42.13665,41.70967,42.56016,42.57936,42.32575,42.90103,43.71422,45.77791,44.8381,44.74456,44.56825,45.70313,45.9065,46.97476,45.99923,46.6737,47.22423,47.74832,47.63171,47.16091,46.78253,46.80169,46.82571,46.83708,44.58732,43.85443,44.33657,44.01229,43.61907,41.17029,41.08354,39.7293,41.12827,39.51115,38.00739,37.75025,37.42245,37.06133,36.41085,33.36574,31.55133,31.21077,31.77097,30.61185,30.10239,29.77869,30.20677,31.83105,32.37508,32.1015,32.03795,32.99256,34.97442,34.97452,35.24199,34.63109,36.5664,37.52974,38.88838,38.74536,38.78054,39.72228,40.76833,41.56855,41.37432,39.72146,40.88967,41.87912,41.49613,40.52011,38.95477,39.27741,38.85807,37.97397,36.41405,34.98395,34.22181,33.59352,31.73898,29.2117,26.39823,24.99101,24.0393,21.94327,19.80461,15.59475,15.10248,12.86571,11.52768,7.555865,5.959002,3.135462,1.939612,-0.6969259,-3.442964,-6.694103,-9.262249,-10.77635,-12.74733,-15.28822,-18.89411,-20.02655,-21.39827,-23.19983,-26.34967,-28.0899,-31.06021,-30.8123,-33.44461,-35.44759,-37.20522,-39.86732,-40.41738,-39.57509,-42.55874,-44.00757,-44.90204,-44.31483,-45.66556,-45.94007,-48.17047,-47.52588,-46.6299,-46.10599,-46.32882,-47.84345,-47.14889,-46.47329,-45.62056,-46.06798,-47.77602,-46.11145,-43.22869,-42.36247,-42.46785,-43.22614,-43.75964,-43.52226,-44.18623,-44.84765,-47.24724,-49.22877,-49.92458,-51.01789,-53.93349,-56.78695,-59.93545,-62.08612,-63.0249,-66.48485,-68.21397,-69.82442,-70.10176,-71.46237,-72.10962,-73.85515,-74.62745,-74.22795,-73.2808,-74.75329,-75.48557,-74.97398,-73.70202,-72.80231,-72.03898,-72.42247,-70.51641,-69.44772,-66.33937,-66.18758,-65.12798,-63.59276,-61.31018,-58.3675,-56.26278,-54.77096,-52.52566,-49.53599,-47.48035,-44.73681,-42.6962,-41.05435,-38.18031,-35.09304,-32.8201,-30.85401,-29.74206,-26.00962,-24.18156,-21.0668,-19.95298,-17.35943,-14.73885,-11.63462,-9.656368,-8.156443,-6.852083,-4.644226,-2.115203,-0.6760743,-0.7079924,-0.1855627,1.599687,2.81907,3.096403,2.932439,2.175024,3.352719,3.802037,4.124738,2.61851,2.51124,1.596172,1.953996,1.259018,-0.663752,-3.282962,-2.76303,-4.884029,-4.832834,-8.447838,-10.32428,-11.80964,-12.23147,-14.27958,-15.95867,-18.73225,-19.11337,-19.80585,-21.30684,-23.41876,-24.6265,-25.5347,-25.64878,-26.00264,-28.50513,-27.58235,-28.95167,-27.04457,-26.78864,-25.43016,-24.34302,-23.90626,-23.9744,-23.76571,-23.71529,-25.06641,-23.74045,-23.00914,-22.16261,-23.02546,-23.46504,-21.74504,-20.63474,-20.55511,-19.32923,-20.85385,-19.15281,-17.68596,-16.88306,-16.26848,-16.24655,-15.00895,-13.12053,-10.76119,-10.33187,-9.852876,-7.664629,-5.728345,-4.578481,-2.884024,-3.083622,-1.466461,1.135457,1.980182,3.458228,4.25686,5.351467,7.684561,9.409912,10.29364,10.69455,12.2513,14.39709,16.6415,16.4908,16.33299,17.94711,18.62366,21.43615,21.06342,20.71557,22.19614,23.16981,25.04203,24.99671,24.33134,25.32563,26.07264,27.86978,27.49716,26.84976,27.2913,28.31695,28.97466,29.33235,27.78491,27.63713,28.22946,28.38623,27.92677,27.30078,26.39448,26.34459,27.566,26.81453,25.09526,24.58222,25.07014,25.22061,23.58496,22.68534,21.38052,21.31948,21.49006,20.13843,19.25334,19.50005,18.48601,19.31338,18.54196,17.49012,16.3308,17.49394,17.66789,17.17476,15.30818,14.94814,15.39441,14.68811,14.72571,13.2407,12.7835,13.24882,12.94261,13.23076,12.87576,11.14905,12.84227,13.07047,13.48655,12.17881,12.19185,12.6873,14.37093,14.0999,13.17938,13.50527,13.68544,15.01097,15.92265,14.80619,15.8701,15.78035,17.12719,18.34261,16.84553,18.32014,18.91219,20.60128,20.73612,20.46193,19.97393,20.67333,22.72655,22.37608,22.50304,22.02437,22.17573,23.70353,24.0247,23.46242,23.41357,24.23322,24.84642,26.16956,24.0916,23.59706,23.97761,24.66318,24.76835,24.45262,24.04131,23.65315,24.76793,24.19223,23.69068,23.65679,23.30848,25.13418,24.84741,24.50595,24.00887,24.73212,25.58202,26.18878,25.15748,24.90005,24.45142,25.47494,24.67762,24.05864,23.34987,23.01409,23.62178,24.21148,23.48643,22.23675,22.77442,24.29809,24.93938,24.4529,23.78073,24.09708,25.48304,25.33269,24.26817,24.18857,23.88847,24.85976,24.51878,21.889,21.47432,21.59336,22.35595,24.36641,23.66933,23.65147,24.17647,26.26107,27.916,28.40989,27.96359,29.24119,30.98354,32.24855,31.97322,31.78009,32.63312,33.07778,34.54666,34.09888,33.27065,33.79094,34.23879,35.10585,34.38408,32.63643,32.81587,32.72882,32.59879,31.37415,29.10043,27.93117,27.01483,26.07806,23.9303,21.48552,20.07404,20.04643,18.84245,16.17948,14.44244,11.74579,10.72911,9.899399,6.538982,3.098901,3.130988,1.600693,0.3344421,-2.565306,-6.241719,-8.751706,-9.937922,-12.56727,-15.73852,-19.54252,-22.3741,-24.78028,-26.44617,-31.16814,-34.47061,-37.68149,-40.48566,-42.95533,-45.93391,-49.26433,-51.67737,-54.10672,-54.80289,-56.73464,-60.07615,-62.39199,-62.90327,-63.3916,-64.30307,-65.58901,-66.71018,-66.07444,-65.63714,-65.11229,-66.66681,-66.2744,-65.33164,-63.80297,-63.89666,-64.59073,-64.48913,-61.79233,-59.55655,-57.72519,-56.26022,-54.09119,-50.65692,-46.48673,-43.90553,-40.41521,-35.88658,-32.27638,-28.00456,-25.13678,-23.10275,-21.28688,-18.00308,-15.56281,-13.96167,-13.7469,-13.94946,-11.90182,-11.14421,-10.50723,-8.774391,-9.412626,-7.312052,-5.541229,-5.152632,-5.106797,-4.425875,-4.091219,-2.591265,-2.690863,-3.911414,-4.627493,-4.224357,-4.147107,-3.935618,-6.032067,-6.732814,-7.414304,-6.607884,-7.782465,-8.579542,-10.03135,-10.28962,-10.74019,-10.89683,-13.42715,-13.44818,-14.05948,-15.26391,-14.48211,-16.47194,-16.90596,-17.82045,-16.40679,-16.90011,-16.86369,-18.02059,-17.43883,-16.63778,-16.05511,-15.61901,-16.80621,-15.17777,-12.795,-11.46408,-9.994591,-7.776639,-8.724667,-5.90575,-5.218927,-4.851009,-4.257063,-2.708031,-0.8531866,0.2430465,0.6364576,1.118954,1.514286,4.623318,4.522935,6.786598,6.362074,7.061121,9.570524,10.38913,10.61666,10.03258,10.40167,12.26618,12.85381,11.64185,11.76819,11.48871,13.43723,13.07018,12.69291,10.784,9.642435,9.94351,8.821945,6.846368,4.852074,3.999297,2.915036,2.711776,1.615805,0.5604189,-0.04582868,0.9619522,1.02613,1.027989,-0.1396179,0.6714633,2.380711,3.873955,4.797164,3.437887,3.604104,4.289821,5.408767,4.738084,3.723834,3.959059,3.762547,5.087161,3.900281,3.764863,3.850203,4.468233,4.483014,4.536694,3.381633,3.022134,3.460816,3.834208,2.668432,1.907592,0.6974092,1.29049,1.64865,0.5911937,-1.21749,-1.728661,-1.608414,-1.839219,-2.997761,-5.261704,-5.451193,-6.189406,-6.035936,-7.010198,-8.925708,-9.955921,-9.919417,-10.04974,-10.39044,-11.51511,-13.5771,-14.42454,-12.145,-13.80023,-14.85302,-15.80055,-15.85989,-15.50176,-16.2507,-16.9189,-16.91197,-16.85166,-15.75187,-16.16061,-17.08151,-16.99754,-16.22767,-15.46512,-14.77402,-16.0901,-15.8335,-14.35456,-14.45228,-12.0341,-12.29836,-11.65829,-10.70403,-8.362493,-7.51761,-7.206575,-6.353942,-4.565137,-3.216679,-1.19016,-1.693964,-0.7022504,0.2179411,2.204196,3.149093,3.100048,3.639322,4.691906,6.508679,7.705353,7.771096,7.610317,8.833814,9.572883,10.73387,9.693342,10.21477,11.13793,12.25489,12.9927,13.04655,13.56121,13.67668,15.176,15.50541,14.01461,14.32014,14.77644,14.36413,14.47005,12.51816,12.9623,12.38078,13.16904,13.40166,13.19878,12.75364,12.57291,15.12045,14.24048,14.74502,13.1654,13.91013,15.26393,15.65902,16.36203,15.39126,18.67316,18.41785,20.2421,19.11784,18.28441,18.6454,18.52241,18.74017,18.15022,15.88361,15.46483,15.01846,14.91272,12.83689,11.62564,9.927507,9.679225,9.379028,7.12442,6.413882,4.854204,5.130575,4.984441,3.600564,2.456513,1.965149,1.687148,1.930137,0.6353215,-1.15915,-1.516994,-0.5654766,-1.102381,-2.030434,-3.348702,-3.847662,-2.438871,-2.27429,-2.141779,-4.219088,-4.88757,-3.139182,-3.891436,-3.073646,-4.75904,-4.6443,-3.493755,-2.357981,-3.052071,-2.073852,-2.678638,-0.9873737,1.279947,0.7066404,0.3713032,1.240462,2.249269,3.848778,4.958197,5.058028,5.844363,8.047483,9.875623,10.14766,10.97975,11.6499,13.74692,15.70803,16.40921,17.05753,17.83011,20.12257,22.19685,22.78105,23.4187,24.19119,26.06077,28.59561,28.38972,29.6402,28.96536,30.77702,32.14466,31.87985,31.07646,30.06744,30.38574,28.79457,27.43204,25.4035,23.6002,22.98116,22.05529,22.39066,21.49757,20.03814,20.813,22.67978,22.33411,21.82951,21.91259,23.10099,22.80676,24.10495,23.23444,25.25277,25.27563,27.83877,29.57779,29.401,30.05515,28.66776,31.55252,30.85535,29.76036,28.42909,28.82724,27.85194,27.47799,24.61236,23.78255,22.40467,22.10821,20.29278,18.01395,15.23959,14.66141,13.66159,11.09836,9.619614,6.297701,5.921451,4.093745,2.225316,-0.08643965,-2.910573,-4.695615,-5.877354,-7.386832,-10.36281,-12.60933,-14.79906,-15.78321,-17.29452,-20.04713,-22.23699,-23.95076,-24.73297,-26.76329,-28.90415,-30.66422,-31.43137,-33.17457,-33.05873,-35.49658,-37.47835,-38.02363,-38.41099,-39.27781,-40.45582,-42.68229,-42.77739,-42.72619,-43.19462,-43.85982,-44.6891,-44.83288,-43.44857,-43.35482,-44.87192,-43.98689,-44.83456,-43.06716,-42.98875,-42.4235,-42.25874,-41.90034,-39.99311,-39.15479,-38.21801,-38.69207,-36.78438,-35.87594,-33.69887,-33.07368,-32.88718,-31.59085,-28.72829,-27.2914,-25.6074,-25.68385,-24.12239,-23.38457,-23.55435,-24.99042,-28.56777,-30.84297,-31.69956,-31.91307,-34.37048,-36.18081,-37.74756,-39.11362,-38.84805,-41.51861,-42.63358,-43.55266,-43.90065,-44.37079,-45.90145,-46.76784,-47.37034,-47.35801,-46.09745,-46.66434,-47.04197,-46.92883,-45.34059,-43.35411,-43.27089,-42.35651,-40.16623,-38.16066,-35.69065,-34.77848,-32.99714,-30.92573,-28.79659,-25.1437,-23.60315,-21.15761,-19.88007,-15.94611,-12.99747,-10.87275,-7.511259,-5.235982,-1.607773,1.399299,4.188635,6.006324,8.603841,10.47544,14.44845,16.39715,17.59063,19.82568,22.25615,24.44766,26.20321,26.465,27.61883,29.5543,32.05359,32.54458,33.8671,34.50266,36.13404,37.42433,38.00728,38.84688,37.75848,39.57627,40.13586,40.00692,39.34208,39.21614,39.146,39.29205,38.89364,37.52975,36.66208,35.79358,35.76279,34.82083,32.55667,30.31714,29.65448,28.35282,27.51372,26.65328,22.44858,22.93179,20.83751,20.51334,17.82728,15.87274,14.4488,14.64424,13.42797,11.16808,10.79946,9.959464,12.22104,11.44233,11.97338,12.53948,14.58928,15.99333,16.72516,16.814,16.09291,15.99698,16.13544,15.64723,14.90898,14.34035,15.87025,14.82445,16.02871,14.72763,15.38997,14.22853,16.14507,16.29777,16.32518,15.26191,15.79676,17.35069,16.79192,17.7018,16.54813,16.22815,16.86078,17.32541,17.00625,16.2618,15.67037,17.20885,16.4849,16.70892,15.60375,15.47338,16.80468,17.30478,18.40803,16.68994,17.98494,18.60193,19.56563,20.1518,19.5717,20.7751,21.76628,23.6196,23.45786,22.3025,22.61351,23.3187,23.84197,24.92711,23.88265,23.97671,24.91467,25.55787,25.20138,23.9328,23.47509,23.14381,23.7175,22.60304,21.46089,20.43695,21.50448,19.97219,20.83538,17.74327,17.56249,17.26724,17.78228,18.07242,15.25905,15.43089,13.79425,14.114,13.55361,12.13428,11.41827,12.15273,13.07509,12.32903,12.31561,11.30747,13.13214,13.32824,14.13874,13.15823,14.7468,14.63736,16.69245,16.64312,15.48616,16.12302,16.15018,17.48794,16.84561,16.52324,15.28651,15.0582,14.31279,13.57728,12.44416,10.28129,9.820045,8.846288,8.353047,5.728829,4.367976,2.32459,1.66721,-0.3239335,-2.993695,-4.768403,-7.218731,-7.778795,-10.99729,-13.0733,-15.96924,-17.80734,-18.28323,-20.95238,-23.0408,-26.82298,-27.1189,-29.52123,-30.78702,-33.93512,-35.99102,-37.55311,-39.1943,-41.3987,-44.30607,-46.5167,-49.21371,-49.44207,-51.26235,-54.08895,-56.59109,-58.62258,-58.45725,-59.82309,-61.72564,-62.68385,-64.17602,-64.25374,-64.23431,-66.20474,-66.58935,-67.53383,-66.8196,-66.31499,-65.9939,-66.68947,-64.68018,-64.75224,-62.81121,-62.76463,-60.9611,-59.39863,-56.51066,-53.15874,-51.60235,-50.47014,-47.95668,-45.61772,-44.00222,-43.76642,-42.45804,-41.70503,-39.59734,-38.33302,-37.91753,-37.96406,-36.32784,-36.66917,-33.78604,-35.75088,-34.53095,-34.53326,-33.95591,-34.45594,-35.94446,-36.40729,-36.74523,-35.18387,-34.87518,-34.32684,-34.81563,-33.89567,-32.73725,-31.21503,-30.42807,-30.88764,-28.79908,-27.78404,-24.5924,-25.09407,-23.26194,-23.03009,-19.68237,-17.97577,-16.42757,-15.87497,-13.84964,-11.48558,-9.510137,-7.536904,-7.184056,-6.363818,-3.137185,-0.8852446,-0.05896097,1.88959,3.38935,6.551523,8.359908,10.3058,11.03599,12.87668,15.89194,17.83768,19.89393,20.8226,21.73817,24.5209,26.91026,29.07911,29.80353,31.9138,34.49838,36.84498,38.14015,39.76504,40.14403,42.69693,44.68602,45.29169,45.84598,46.23998,47.38,48.53901,49.43836,49.33619,48.29011,50.50918,49.89938,50.20717,48.45439,48.52733,49.03675,48.4967,48.66915,46.94207,45.49735,45.51797,46.10171,44.66327,42.08857,41.81054,41.11702,40.98412,41.15895,38.48233,38.18076,37.24264,39.08942,38.16567,38.44096,37.76508,38.428,39.66835,38.80577,37.31901,36.55311,36.37282,35.92171,35.4093,34.68626,32.83023,32.05559,31.90323,30.93667,29.0314,27.04028,25.43275,26.09919,23.55035,22.42706,19.59548,18.1002,18.03304,16.82268,15.85689,12.66533,13.02952,11.37286,11.89621,9.398595,8.044154,7.046406,7.301903,6.669293,5.985556,4.943425,4.339705,5.012022,3.647501,3.737107,1.860529,2.32438,1.947047,2.269804,1.127563,1.086546,0.445823,0.8360018,1.74112,1.543528,0.5088678,1.726398,2.408922,4.188919,4.088378,3.963518,5.179193,5.458618,7.626105,7.048502,7.430307,7.724228,8.705688,10.40294,8.747318,9.613199,9.924926,13.30943,13.20788,15.11246,14.60172,16.29527,16.4079,17.38791,17.7877,16.42137,18.00642,17.38246,18.13684,17.43271,16.49019,17.18646,17.31284,17.70589,18.22589,16.57505,16.38881,17.99045,17.91021,17.48546,17.23399,16.78574,17.54593,18.0061,17.51594,16.91625,16.48797,17.36057,16.42055,16.713,15.42177,14.63578,14.96297,16.7759,15.1026,15.41885,14.53434,15.09636,15.81301,15.38417,14.31826,13.79872,14.12026,14.14354,14.6112,13.31785,13.26981,12.06287,13.26738,11.67283,10.03699,9.304181,8.796894,9.580656,7.599628,5.746753,4.289108,4.988214,4.074104,3.125353,1.778208,-0.3006643,0.4587105,-1.030974,-1.448905,-4.7213,-4.943661,-7.197299,-6.20239,-8.353485,-9.385073,-11.06516,-11.51722,-11.28115,-12.26734,-14.39302,-15.78161,-16.55966,-17.63684,-18.67349,-19.63972,-22.28654,-23.01134,-22.71441,-23.41365,-25.17673,-26.81824,-26.52486,-25.90954,-25.61123,-27.39236,-27.20988,-27.04817,-26.14786,-26.44566,-26.02564,-26.36536,-26.34939,-24.52563,-24.4022,-24.35114,-24.95518,-23.90575,-22.67144,-22.65099,-20.2741,-21.67397,-20.14237,-19.87384,-18.19341,-19.33733,-18.78985,-19.04725,-17.58524,-16.69907,-17.30737,-17.33304,-17.27764,-16.80326,-15.5363,-16.73481,-16.60608,-16.80036,-14.23834,-13.97775,-15.01018,-14.90421,-14.36756,-14.66148,-13.65298,-13.73786,-15.17706,-14.46288,-13.9366,-12.66053,-13.34392,-15.24441,-14.80099,-14.20192,-11.96131,-13.27476,-12.42632,-13.66264,-11.93461,-11.77968,-11.40632,-12.18503,-12.24897,-11.19983,-11.37557,-10.74002,-10.56527,-10.05323,-9.385662,-7.872572,-8.650472,-9.747955,-9.784128,-7.732698,-8.066869,-7.805693,-8.595325,-8.552296,-7.239894,-7.089327,-6.725386,-6.98921,-5.608947,-5.520087,-3.9916,-3.674895,-4.850753,-3.5181,-4.007683,-1.614564,-2.21576,-2.248795,-2.247208,-1.195946,-0.866689,-1.011637,-2.0092,-0.7835014,1.757664,1.859399,1.064974,0.2557346,-1.422778,-1.296186,-1.770429,-1.894822,-6.217305,-5.926172,-6.987541,-8.205173,-9.91106,-12.86113,-15.28817,-16.64608,-18.11628,-20.91054,-23.09421,-25.91232,-27.57821,-27.71786,-29.16814,-31.41548,-33.21106,-34.10659,-34.45903,-35.52129,-38.2135,-38.22944,-39.26159,-39.33482,-39.77976,-41.7242,-42.29088,-40.6883,-41.45646,-39.03714,-40.86165,-40.05279,-38.89443,-36.90034,-35.91654,-35.2805,-35.30991,-33.71637,-30.9372,-30.59943,-28.30739,-27.52831,-24.83056,-24.30959,-21.36935,-20.856,-19.66105,-17.38057,-15.61333,-12.72637,-12.98005,-10.1832,-8.872717,-5.160888,-3.991341,-2.390886,0.3251178,2.770902,5.401306,6.553307,8.082664,7.745488,10.75553,12.44975,13.56565,14.41053,13.675,16.32486,16.8391,19.30314,18.35935,17.78316,17.20608,18.54288,17.6941,16.99009,15.89909,15.57804,14.64212,14.36803,13.88,12.31615,11.61051,10.89079,10.28662,8.504582,7.355423,5.179567,5.521211,3.482358,3.136197,1.027245,-0.01982965,0.5174191,-0.7373785,-2.131086,-2.906944,-3.703783,-2.434518,-2.071267,-0.7107243,-1.410047,-0.8022564,-0.09361658,0.3171866,0.9676243,-0.9073379,0.1879095,0.0686518,1.13548,-0.3232668,-0.3783222,-1.057374,-1.243837,-0.3763293,-2.033847,-2.400737,-3.234138,-1.92314,-1.90853,-1.365208,-3.098643,-2.041005,-0.8408035,-0.01460024,-0.05437495,0.2182305,0.2023578,1.794112,3.385519,3.902708,3.578521,4.431016,6.738598,8.550213,9.862474,10.19853,11.30208,12.29998,15.32958,13.88227,15.06865,15.41471,16.19418,17.80726,17.47269,16.82598,16.61094,17.92443,18.35722,19.1886,18.25841,17.04299,16.47394,17.87622,16.68418,16.51638,16.14265,17.27168,18.87233,19.46105,20.03218,20.4662,22.61936,23.60579,25.31726,25.29665,25.56522,27.47357,30.24076,31.32514,31.14989,31.54104,33.2224,33.78475,34.49382,33.75746,35.14208,33.78484,35.7067,34.50443,33.45435,32.53902,32.15022,31.88045,31.35897,29.42642,28.60053,28.06823,28.41913,27.72191,25.51275,24.28838,22.88857,23.5115,20.9865,18.81207,15.1779,15.98572,15.07284,14.765,13.09813,11.45849,12.10939,11.83916,11.98036,11.33788,10.5753,11.2707,12.19151,12.71073,11.70773,12.4074,12.57845,12.25119,13.31169,11.17373,10.81462,10.61683,11.4445,11.2496,9.838722,9.090569,8.477191,9.86848,8.686172,8.489872,6.808305,6.819481,6.406115,5.943864,5.026322,3.871274,3.852007,3.656528,4.102509,3.577758,1.990264,3.095546,3.459654,3.939097,2.816435,4.70209,5.387749,4.63788,5.558649,2.93233,1.023981,-0.4415909,-1.264455,-3.00743,-6.239251,-8.097046,-12.18508,-12.86877,-16.28314,-19.06999,-24.02668,-25.59676,-30.3622,-31.88791,-37.64534,-41.76939,-45.21468,-46.81549,-49.36233,-52.16582,-54.56441,-57.21378,-57.74257,-59.10621,-60.68234,-62.39863,-63.6127,-64.18437,-62.94419,-63.73041,-63.809,-61.7635,-60.95263,-59.39431,-59.08128,-58.53657,-56.35103,-55.0814,-50.68933,-49.67245,-47.2323,-46.68944,-42.2449,-39.64611,-37.22389,-35.63645,-31.9334,-29.53452,-25.42142,-23.74394,-21.21561,-18.29766,-15.49847,-12.088,-9.834134,-8.43884,-7.390611,-4.276987,-2.797735,-0.1223432,1.855532,3.960477,6.925888,8.672144,11.42862,11.38885,13.76941,14.76258,17.741,19.21938,19.98364,21.30617,22.48766,25.14899,25.41957,25.76628,26.14249,27.30872,28.91816,27.97786,27.44929,27.94391,28.09325,28.79033,28.87807,28.79903,27.24047,28.25794,27.07688,26.57058,25.64355,23.58995,24.75012,24.19694,25.00653,23.00506,23.41201,22.46188,24.56519,24.40998,24.07763,24.15882,23.99886,26.15191,25.84916,26.79602,25.3168,24.59258,26.53055,25.06712,25.23905,23.42087,23.55602,23.42535,22.70959,21.89466,19.31234,20.12795,20.01888,21.72254,19.87374,18.04119,16.36159,16.76293,13.38645,11.42224,6.847089,5.489032,3.055171,0.5401277,-2.367684,-7.009205,-8.71909,-11.83189,-14.10416,-17.39162,-22.25408,-22.85957,-25.15294,-26.74297,-29.12334,-32.15848,-34.1026,-35.05047,-35.79989,-37.81634,-38.6617,-39.69045,-38.67481,-40.29102,-39.61948,-42.04041,-40.70589,-40.04872,-39.16642,-39.04654,-38.10653,-39.01575,-35.66913,-34.82891,-33.09266,-32.01917,-30.12249,-26.72217,-24.5273,-22.99198,-22.26549,-19.89254,-16.66764,-14.40334,-12.91128,-12.07268,-9.082746,-6.667391,-3.884926,-2.197265,-1.237202,1.131417,4.219295,7.23797,8.304119,9.842167,10.8233,14.90177,15.79976,18.43942,18.73618,19.87797,22.98509,23.98234,25.92588,26.8177,27.2947,29.24478,30.53907,31.03114,29.69708,31.08612,31.48596,32.161,33.76201,31.98666,33.63121,33.03183,33.7308,32.80148,31.85739,30.74729,30.79366,30.54035,29.12808,27.33872,24.93295,24.47481,22.71909,23.00915,20.49437,20.03745,20.1587,20.62425,20.28177,18.54108,19.35999,19.85313,22.11436,23.16944,24.39571,26.01496,28.27491,29.84025,29.46725,28.6439,29.91655,29.33876,30.84474,30.52442,29.47551,29.82213,30.00065,31.01354,30.84804,29.15128,29.42192,28.08153,29.50355,28.83468,26.1538,27.02001,24.74025,25.93665,23.87983,21.29655,20.50313,18.61971,19.71303,17.30808,15.95821,12.2729,11.3239,9.583074,8.699048,4.369472,3.403506,1.005738,0.05509221,-1.737225,-4.334629,-7.079721,-7.32584,-9.08185,-9.696169,-12.80494,-14.55828,-17.24561,-18.7042,-19.9953,-23.37064,-24.96331,-27.05966,-28.00496,-29.97638,-31.85652,-34.8306,-36.53636,-37.74588,-39.25546,-41.23874,-43.87698,-44.6809,-44.95901,-46.32862,-48.60487,-50.17505,-50.20202,-50.98051,-51.1424,-53.56861,-54.78482,-54.67478,-54.6365,-54.52179,-54.31522,-55.09962,-55.11677,-53.03106,-52.43874,-52.56991,-52.51405,-51.65968,-50.03706,-47.41478,-48.15662,-48.15553,-48.07352,-46.6984,-45.10659,-46.17356,-45.68834,-46.25974,-45.00822,-46.00888,-47.02625,-48.84634,-49.00022,-47.91699,-46.17467,-47.45434,-47.45664,-47.59561,-46.1901,-45.94629,-46.61253,-46.31965,-47.4808,-44.26211,-43.58662,-40.87732,-41.88955,-40.7442,-39.61161,-37.2623,-38.27125,-38.58221,-39.00892,-37.65583,-36.62669,-37.60913,-37.93803,-39.24486,-37.50065,-38.07301,-38.25173,-39.63856,-40.57465,-39.08639,-39.07347,-39.13639,-39.88205,-40.22112,-39.63509,-38.79335,-39.35534,-39.18371,-39.7927,-37.58536,-37.75452,-36.84565,-38.50821,-37.35392,-36.40886,-34.836,-34.42129,-33.79567,-33.70342,-30.76475,-29.53914,-27.37252,-26.61161,-24.35644,-22.31093,-20.00345,-18.33019,-17.22607,-16.26641,-11.96509,-8.495723,-7.061675,-4.603997,-3.31641,0.4571822,3.615852,6.124027,7.688915,10.27669,13.96743,17.56184,20.2386,21.56983,25.17139,27.36964,32.06593,34.21739,36.87266,38.49752,41.70351,45.04368,47.07138,49.24441,50.56441,54.37322,55.36937,58.71461,57.19002,58.64442,60.54939,62.79141,63.83715,63.76515,64.52897,66.01942,67.20263,67.08642,65.32782,64.86533,65.74155,65.82907,65.82819,64.66597,63.71557,64.02664,64.68253,65.08512,64.60547,64.02568,65.01366,66.99156,66.61995,66.87631,65.99352,67.36335,68.42616,68.57418,69.36869,69.28094,71.93283,73.2769,74.71249,72.13003,71.70011,71.78644,73.03206,73.23547,71.54893,71.5359,70.02145,71.53937,69.27826,68.26392,65.35295,65.32099,63.71082,63.22963,60.05927,58.16495,56.43832,56.31273,53.25129,51.6816,47.77033,46.45538,45.05037,42.55887,40.20399,36.48518,35.45126,32.81676,32.07578,27.97835,25.93192,23.36176,22.10621,20.31938,17.11012,13.88028,12.35945,9.60692,9.308353,5.34589,2.654566,0.4819135,-1.281452,-1.346514,-4.920794,-6.712933,-7.851608,-8.119301,-10.13556,-9.962763,-13.95006,-13.4917,-13.60021,-13.32712,-13.67411,-14.81122,-14.24036,-13.33165,-11.84168,-10.68006,-10.46367,-9.53766,-6.191624,-5.146183,-4.296701,-4.155619,-2.00735,-1.376566,1.348458,1.087528,0.2471304,2.493288,2.410051,5.139065,4.870166,5.18265,6.33351,7.845775,8.246049,8.528799,7.824774,7.367745,7.887783,7.442574,6.190673,6.015164,5.332988,5.486549,6.596432,5.302317,6.235332,4.486986,6.26635,5.934856,6.656823,5.200127,4.940205,6.68834,5.186896,6.457911,4.287173,4.050536,4.949386,4.71013,4.473416,2.513171,2.036797,1.936802,1.634185,1.170891,-1.143759,-1.29774,-1.774427,-1.718342,-2.696057,-4.993804,-5.623652,-5.325093,-5.527416,-6.433058,-8.277396,-8.758063,-8.323682,-8.479468,-8.767288,-9.58938,-10.19481,-9.254423,-9.270846,-7.47125,-10.00268,-7.670084,-9.178273,-5.290497,-6.586458,-6.162274,-5.41485,-4.750225,-1.933333,-2.042937,-1.696215,-1.399919,0.1857097,1.380807,2.309313,1.61059,2.319824,3.646102,5.459147,5.470296,5.648148,5.024643,6.0553,7.807273,7.523798,8.560709,8.08221,9.520404,10.40305,12.04282,10.57021,11.25889,12.4618,14.01203,14.29247,14.05351,13.13748,15.35752,15.6245,16.3957,14.98445,15.26067,15.157,16.82131,16.23365,14.64176,14.51637,14.49825,16.60603,15.69504,14.7935,14.50592,13.24458,14.23887,13.08076,11.66543,10.18347,8.454659,8.001597,6.928506,3.507496,1.085177,0.1801802,-1.738802,-2.213064,-4.78069,-7.158674,-8.664221,-8.910858,-10.89534,-12.86058,-15.94992,-17.45113,-18.21969,-19.24658,-21.7861,-23.55824,-24.77056,-25.31719,-24.52936,-27.86225,-29.43159,-29.84255,-31.64886,-31.91202,-34.6712,-36.2012,-38.58439,-37.77968,-40.31233,-42.1354,-45.03392,-46.23853,-46.63524,-47.47387,-49.87616,-51.3551,-53.40617,-54.62098,-54.43786,-57.15399,-58.32301,-60.20149,-60.79757,-60.53954,-62.69243,-64.493,-65.51654,-64.68926,-65.18042,-67.04934,-67.58007,-69.74996,-66.19018,-68.83859,-66.97117,-68.8441,-68.48661,-67.71943,-66.53777,-67.16075,-67.45452,-67.52522,-66.72172,-65.76013,-66.14973,-66.90988,-66.74117,-66.3278,-65.07072,-65.75498,-65.78342,-65.51959,-64.02281,-62.70874,-62.79038,-63.63858,-63.15337,-61.16604,-60.36601,-60.19413,-60.34618,-59.36327,-58.09175,-56.78049,-56.21823,-57.35429,-54.51943,-55.91433,-51.88797,-52.87181,-51.58866,-52.81326,-46.90843,-45.25506,-44.10883,-42.37811,-41.62912,-39.30212,-38.79224,-38.26057,-39.0342,-39.31481,-38.22765,-37.89275,-38.59812,-39.82475,-40.90875,-40.67667,-39.77157,-41.50014,-41.70033,-42.73001,-42.25744,-41.29427,-43.04872,-43.85753,-45.54612,-44.37649,-44.54286,-43.17124,-45.40031,-44.91973,-42.49052,-41.59468,-40.8,-40.21805,-40.11302,-37.75576,-35.85026,-35.44635,-35.21014,-33.67544,-31.707,-29.01146,-27.10225,-25.90425,-24.10671,-21.32258,-19.15325,-15.66389,-15.80655,-12.7443,-10.35773,-6.386303,-4.850916,-3.246975,-1.302848,0.9440746,5.60412,6.90895,9.242831,9.701179,12.91064,15.97822,17.18823,19.02418,20.30279,23.96827,26.47082,29.00974,30.75846,32.4656,35.72613,37.88048,40.22163,40.83944,41.44259,44.31875,45.86375,47.78918,47.40225,48.15848,49.7327,51.48265,53.08574,52.37678,53.04922,53.48805,55.36785,55.18663,55.32505,52.93289,55.04857,54.63819,55.13852,54.36967,53.6689,53.90118,54.27356,54.97334,53.66014,52.64573,52.74271,53.24046,53.76949,51.48859,52.26901,50.36107,53.61662,52.91938,54.22568,53.5295,57.1002,56.41487,57.49315,56.78469,56.24529,56.59498,57.46019,58.75593,55.80382,54.76407,54.23043,54.75288,54.3394,54.71594,52.2813,53.66876,53.39632,53.86047,53.14343,51.7084,52.38843,53.75952,54.17061,54.41217,53.97628,55.42698,56.0961,58.22091,56.34666,57.05831,57.51258,57.54513,58.53946,58.49975,56.78263,57.05108,57.34771,57.45034,57.09892,55.90083,54.94322,55.98229,55.85799,55.10884,53.56756,52.50137,53.81935,52.23316,51.57543,49.53424,48.76362,48.41072,47.75018,46.93864,43.37353,43.04597,42.4247,41.36091,39.15947,35.72147,34.49131,33.88068,32.36969,30.89025,27.87211,26.88053,25.00461,24.60724,22.60254,19.63354,17.8084,16.75856,15.28168,13.55752,9.800943,9.365787,6.993961,7.091426,3.993174,2.932113,0.5535659,0.5218773,0.1826268,-1.28754,-2.46999,-3.415844,-2.71455,-2.733078,-2.972642,-3.792602,-3.454625,-3.079736,-1.104326,-1.702614,-1.849433,-2.289807,-0.5659957,0.3039172,1.056116,0.5328895,1.72532,2.970364,5.513252,5.853271,6.885465,7.108284,10.17748,11.56786,13.49704,13.68005,14.05512,15.89678,17.71743,17.44209,17.06316,16.27685,17.82617,16.888,16.62555,16.90463,18.15105,18.51398,19.67761,20.55317,18.42511,19.05931,17.65239,20.95605,18.30488,18.24148,17.60598,17.01975,16.9791,16.32335,14.39511,12.89737,12.54345,13.14275,12.46144,11.37403,11.24535,9.439779,10.05178,8.903227,8.124964,7.157224,8.178738,9.592805,9.824738,8.797178,8.24059,9.330701,9.702119,10.82332,9.790429,10.96994,11.10871,12.4581,14.21398,14.71829,15.37256,17.60241,20.5032,21.94668,21.64621,22.94433,21.70067,23.41355,23.79515,22.37934,20.64705,20.68281,19.09333,18.91169,16.03914,13.49968,11.88417,10.9339,8.268794,5.227056,1.558354,-0.02314793,-3.340767,-4.819279,-9.018896,-12.3743,-15.30155,-17.44875,-19.67925,-23.63304,-26.3755,-28.99766,-30.95683,-32.2964,-34.96935,-37.37325,-39.59797,-39.85808,-42.47146,-45.951,-48.75222,-49.26156,-49.76484,-50.85949,-51.50755,-52.73736,-52.03983,-50.77935,-49.3413,-48.61569,-47.59856,-46.76736,-42.86535,-41.61558,-38.88903,-38.14762,-35.02207,-31.80761,-28.56317,-26.77706,-25.36704,-22.1926,-18.88348,-15.09448,-13.09304,-10.0842,-6.319731,-3.425807,2.08087,4.245969,6.928208,8.17158,11.62136,14.80997,14.99808,16.4073,17.05613,18.98964,18.17025,19.34449,17.61048,17.14258,17.48023,17.59774,15.94077,14.39045,13.44512,11.4487,11.695,7.235547,4.790898,0.1867112,-0.08862685,-2.784932,-4.370855,-8.542245,-11.35187,-14.16185,-16.54808,-20.13989,-24.22225,-26.87698,-28.34058,-30.45977,-32.02488,-35.61154,-37.40284,-37.72145,-37.22715,-38.71954,-39.94676,-39.48928,-39.96374,-40.01154,-41.46465,-42.2559,-43.6952,-41.90544,-41.83105,-41.29019,-43.30033,-42.21732,-42.01968,-40.55191,-40.37913,-41.69657,-40.58324,-40.1094,-39.00049,-38.65112,-39.21163,-38.34963,-38.82218,-35.41888,-36.6977,-35.97507,-36.10076,-35.27141,-33.70045,-32.92524,-33.51168,-33.99938,-33.61916,-32.42582,-32.70364,-33.99616,-35.50999,-35.8387,-37.68886,-37.54579,-37.36369,-39.03477,-38.81597,-39.20093,-39.18948,-40.51958,-41.2303,-40.14042,-40.08043,-39.4662,-40.24429,-40.09745,-39.48057,-38.12261,-37.44627,-38.34766,-37.98546,-37.09748,-36.56536,-35.45003,-35.69299,-35.47724,-34.18882,-32.32284,-32.31222,-32.09688,-32.26735,-31.4292,-29.34172,-29.64888,-28.77707,-30.29381,-29.42524,-28.69179,-28.81838,-29.17284,-29.32484,-29.42293,-27.67255,-28.24359,-28.16105,-29.03406,-28.66948,-27.14122,-27.18565,-27.11667,-27.32437,-27.685,-25.52778,-26.07195,-24.97986,-26.61851,-25.55157,-25.18431,-24.4045,-25.10529,-26.21049,-24.5583,-23.13643,-21.77868,-22.18625,-23.14249,-22.68076,-23.97634,-22.96897,-24.61116,-25.72585,-26.64847,-25.59036,-26.65279,-27.26721,-29.26079,-30.83876,-29.44087,-30.64237,-31.70153,-33.51251,-34.12467,-32.75161,-34.54264,-33.4691,-34.66413,-33.33403,-33.6259,-31.25017,-34.0013,-31.31572,-32.21285,-30.71752,-28.75444,-27.3831,-26.75217,-25.32539,-22.44944,-20.46362,-17.96545,-16.9363,-14.16202,-10.82579,-7.887444,-5.818456,-3.558702,-0.7055189,2.533865,6.22266,7.894577,10.42637,11.89864,16.02504,18.77375,21.65097,22.14195,25.00541,27.34544,30.25411,33.43516,35.00754,38.9466,40.83865,44.79597,47.21839,48.6854,50.69866,53.67163,55.92116,56.46085,57.92373,60.00975,61.83931,65.69528,66.17252,68.33377,70.29113,73.63381,75.74374,78.87499,79.50901,80.98653,82.71592,85.28033,86.15321,84.93428,86.25059,86.339,87.63619,87.11183,86.38187,84.70809,84.34311,83.6447,82.6765,80.68423,78.88777,78.2215,77.61464,76.25308,74.17298,71.19556,71.21125,68.63614,68.31859,64.31616,63.12185,61.25011,59.45564,59.34644,55.79644,55.66204,52.81307,53.08831,48.96277,47.48532,43.89392,42.71659,41.62182,40.02343,36.54073,34.27818,32.42053,30.15608,27.99213,25.12986,23.12859,20.27394,17.85715,15.84254,12.96295,11.15158,9.421674,7.703071,8.406441,4.571226,3.384694,1.346824,1.601586,-0.9161663,0.2436557,-3.934235,-2.729259,-3.033839,-2.995126,-4.614144,-5.895964,-5.085498,-5.166252,-4.697851,-5.185137,-5.482116,-4.26791,-3.233163,-1.708415,-1.449358,-1.961683,-1.239793,0.2325388,0.9320034,1.188604,0.413451,2.18228,1.961698,4.451239,3.101399,3.873388,4.019346,5.582383,7.270249,6.655824,7.602411,6.167575,7.620451,7.983639,7.26828,5.844999,5.516586,5.931324,5.976223,7.151034,6.149474,6.37998,7.267829,7.867357,9.015894,8.727588,9.661077,9.487782,11.58893,9.754293,10.83924,10.06386,11.63204,11.33511,10.84606,10.95316,10.51818,10.63502,12.06964,10.48682,10.98091,9.93239,11.80415,11.44515,12.50939,11.25955,12.5452,12.40704,14.42816,13.26551,13.00177,13.23931,12.0056,14.07515,12.78264,12.55523,11.04783,12.2443,13.08882,12.52373,12.10709,10.45343,11.83188,10.63752,11.5932,8.956977,9.466982,8.352355,10.21414,7.217832,6.358376,5.355244,6.236534,4.961934,4.341522,2.814895,-0.04551087,0.243235,-0.3664867,-0.8947218,-2.615033,-3.968161,-4.195409,-4.129515,-4.121938,-5.662038,-5.904041,-6.412979,-6.181536,-6.150413,-7.46247,-7.390464,-7.402885,-6.942039,-6.914105,-7.759304,-7.337835,-7.757213,-5.895027,-5.930049,-5.03879,-6.299911,-5.242918,-3.810394,-3.610602,-4.880371,-3.935617,-4.7969,-2.789304,-3.150046,-3.482843,-3.16474,-3.972497,-1.983077,-2.947979,-2.122713,-3.331915,-2.79661,-1.505823,-2.026907,-1.947133,-3.635223,-2.306237,-1.655121,-1.815499,-2.123501,-1.973561,-2.002169,-1.948653,-2.225678,-2.643913,-4.360238,-5.581708,-4.309599,-5.561425,-6.676066,-8.260322,-9.895352,-8.826943,-10.5847,-10.61701,-13.08476,-13.31863,-14.67443,-14.40939,-17.32598,-17.443,-19.98537,-18.99715,-20.27511,-21.2839,-23.99439,-24.76363,-25.38446,-25.84277,-26.77959,-28.71605,-29.23073,-29.14216,-29.80226,-29.95759,-31.34161,-30.78905,-30.1559,-29.0909,-30.50756,-30.39442,-29.58699,-29.45549,-28.35906,-29.83655,-29.97922,-30.55912,-29.22135,-29.01749,-28.98495,-29.68428,-28.93109,-28.58219,-28.10257,-27.62814,-27.71824,-28.1201,-28.44479,-26.95426,-27.97218,-29.01627,-28.23962,-27.88561,-27.2028,-27.9971,-27.95836,-28.99139,-27.98075,-28.11715,-28.65885,-29.99845,-31.06194,-30.21646,-29.55333,-30.28331,-31.36818,-31.79687,-32.49514,-31.19568,-32.89305,-33.18214,-34.589,-34.34122,-34.1007,-34.35126,-36.62067,-36.07025,-36.43271,-36.12489,-36.3065,-37.20278,-38.35586,-36.87945,-37.72197,-37.60878,-38.805,-39.40868,-38.79772,-38.85286,-38.38939,-40.42765,-40.54923,-40.34155,-40.06733,-39.83629,-41.37124,-40.45007,-40.61389,-40.00202,-39.27791,-40.69421,-40.87277,-41.08689,-39.68085,-40.21584,-41.41033,-42.44729,-41.46718,-39.23164,-38.47537,-39.1906,-39.52326,-38.52224,-39.08708,-38.28364,-41.5093,-41.44782,-42.49047,-42.1425,-43.57779,-43.53461,-46.82258,-46.52933,-46.61083,-48.17064,-49.50065,-52.10903,-51.54862,-52.14385,-51.72199,-54.48725,-53.49278,-55.20723,-52.77413,-53.58164,-53.85789,-53.40921,-54.04328,-52.08331,-50.77058,-50.32552,-50.66003,-50.06326,-48.10917,-47.30841,-46.27224,-47.43041,-43.25739,-42.0063,-39.3867,-38.2149,-37.24557,-34.42506,-31.72308,-28.58732,-26.11555,-23.62574,-19.55501,-15.41964,-11.50578,-7.670144,-5.189598,-1.070476,3.511912,8.201222,11.21893,14.17875,17.44777,21.99689,26.17904,28.77998,32.44769,35.52059,39.95123,42.34926,45.40045,46.93651,49.78748,53.17303,55.57005,58.1746,58.70798,61.01292,63.80516,65.05542,66.69311,67.51977,68.80547,70.20418,72.19811,71.33446,72.74966,71.96206,73.50695,73.59628,74.00611,73.55385,73.31328,73.16382,72.13697,70.64387,68.2465,66.94797,67.84375,67.59833,67.12475,66.21505,65.27988,66.38806,66.65829,66.69934,65.94998,66.14369,66.44263,68.15586,67.99508,68.42896,69.21851,71.6506,70.30215,69.53584,69.4495,68.42361,68.07874,68.77311,67.04099,67.83476,65.22475,66.18871,65.44985,65.42876,63.08834,63.06115,62.40332,61.66912,59.94834,57.97578,56.85817,56.15062,54.86175,53.54283,52.06807,49.32436,49.22403,47.99694,45.81333,44.79143,41.65675,41.43024,40.41175,37.72154,34.52831,32.05214,30.54287,28.30367,26.40249,23.14956,21.4302,18.13396,16.89025,14.66724,11.61462,9.888079,7.704075,8.282036,5.981355,4.583661,2.127208,1.49287,1.197698,0.5370534,-1.309145,-1.256338,-1.917331,-1.956607,-2.539984,-3.701814,-5.018896,-4.475808,-4.015861,-4.568456,-3.432367,-5.947196,-2.900161,-3.432628,-1.384981,-1.133513,-1.062726,0.4639032,2.502789,2.707324,3.426836,3.656106,4.559254,5.876474,8.056262,6.860511,7.92714,7.032981,11.13546,9.516647,11.79553,9.203751,11.51162,10.91967,12.49959,9.825183,8.894541,6.969447,7.557762,8.362693,6.708997,7.630221,8.144009,8.366724,7.279616,7.444538,7.514031,7.049291,7.914284,8.034218,6.969945,5.815079,4.459881,6.115151,5.150315,4.701786,2.613193,2.741138,3.053508,2.402547,3.343445,1.094265,2.854797,2.372822,4.187521,4.313474,4.204103,4.146556,5.389581,6.603992,6.012573,6.115137,5.609732,7.892525,6.7585,9.008147,7.326362,9.629694,9.844163,12.20882,12.38855,13.05578,13.6587,15.78986,17.08303,18.99082,17.65572,20.77675,20.17576,22.8726,22.62047,23.39039,24.07957,25.52524,26.57867,26.88824,26.37638,26.40755,27.32486,28.46707,28.21681,27.21968,27.04575,28.73817,26.74861,28.55967,25.02545,26.79333,24.26224,26.52642,23.21216,23.24829,20.26123,20.01057,19.4983,17.9546,16.38262,15.24928,14.56463,15.69737,14.31426,13.29664,12.47021,12.19355,12.3353,12.15084,9.313297,9.756475,8.324954,8.386532,7.84236,6.318113,5.409729,5.226153,5.603577,4.268315,4.090404,1.964867,3.344001,1.114364,3.056739,-0.3309431,0.7941098,-1.461065,-0.1717019,-2.348854,-1.085682,-3.479164,-2.054876,-2.965053,-2.864615,-3.734362,-5.109212,-6.213056,-5.896688,-5.335594,-6.908391,-9.716411,-9.147335,-10.79467,-11.4002,-14.63168,-14.37232,-16.65407,-15.98746,-18.52009,-18.60728,-20.70967,-20.54894,-21.3305,-20.20316,-22.67586,-22.12808,-24.96907,-22.70992,-24.95838,-25.31081,-28.92424,-27.5745,-29.11545,-28.41921,-30.38992,-30.23671,-32.06527,-31.76775,-30.55201,-33.2875,-32.13721,-34.22488,-32.15943,-33.06879,-33.36834,-35.0321,-34.36589,-34.02815,-34.18299,-33.95395,-34.59146,-34.89138,-34.15428,-33.57875,-34.61293,-34.7141,-35.2584,-35.69356,-33.8615,-35.27307,-35.48043,-35.16377,-34.15482,-34.16774,-34.22872,-34.24034,-34.34371,-35.67795,-33.10199,-35.94469,-35.29814,-37.75395,-35.56239,-38.29238,-37.6669,-40.09141,-39.76836,-40.52326,-40.57376,-41.33981,-41.82434,-43.5161,-43.02169,-44.39472,-43.98768,-46.28377,-45.37595,-47.05736,-45.23661,-47.67441,-47.49381,-49.6763,-45.55054,-46.43908,-45.61855,-46.60504,-47.07685,-46.69876,-46.00676,-46.35812,-47.10124,-48.5826,-47.98173,-48.26409,-49.17443,-49.91042,-52.11128,-51.71685,-51.72382,-51.83188,-53.7617,-53.62054,-53.42233,-53.58841,-53.62018,-54.92738,-54.49925,-53.7146,-53.52334,-52.54017,-54.01117,-52.07435,-53.19296,-50.75228,-50.95696,-49.4447,-49.73804,-47.81797,-45.83777,-43.27877,-43.25002,-41.4376,-39.58069,-36.77308,-34.77703,-32.27054,-30.42011,-27.12124,-23.96661,-20.48702,-17.54177,-13.10314,-11.90307,-7.763949,-6.718796,-4.747801,-4.155482,-0.57528,1.530756,2.47376,3.783476,2.66687,4.961255,3.883498,4.611729,3.246784,3.119853,1.983436,1.057985,-1.709088,-4.843894,-6.73,-9.812723,-8.782613,-10.9023,-11.34491,-12.00199,-11.9599,-9.840768,-9.649657,-7.753246,-7.931316,-4.789326,-3.774627,-1.29257,-2.06009,-1.678418,-2.110627,-0.1282382,-0.5970877,-0.457591,-1.110551,-1.691183,-1.374532,-1.888171,-2.773178,-4.302777,-4.843152,-4.800449,-4.534659,-5.937482,-7.820692,-7.909089,-7.612957,-7.054465,-6.660409,-7.569638,-7.18572,-5.40282,-5.131811,-4.239772,-2.546208,-0.6605847,-1.320858,0.8419405,1.332551,1.431545,3.149826,4.921344,6.908971,6.987743,7.965898,8.601212,10.84982,13.47232,13.94726,15.40789,16.11138,19.3445,19.72345,21.07744,20.88043,22.21083,22.298,25.17801,23.59391,25.17729,24.66021,26.67044,28.16745,26.29472,27.25878,25.99282,28.22681,28.97237,29.79632,30.46792,29.60149,32.23397,31.36452,33.02312,32.40799,34.62847,35.6279,39.13974,40.52498,42.40779,43.60849,48.01902,50.34358,52.09584,50.53835,50.94261,52.6571,54.50474,57.16298,58.38706,60.44624,62.40421,63.51266,65.16037,64.06774,64.74654,63.48098,64.43049,63.0392,60.51822,59.10027,56.21516,54.68184,54.05839,50.53272,49.69656,48.11727,47.79104,46.28701,45.01508,42.10868,41.52699,40.51992,39.25456,36.12588,34.20356,31.53386,30.27004,26.83106,24.54483,19.83345,18.33526,14.77569,12.74003,6.957153,3.512119,-0.4594521,-3.932217,-6.656145,-8.694495,-11.18544,-14.4648,-17.79596,-21.26011,-26.40067,-31.12995,-36.50136,-39.71689,-45.97394,-51.66689,-58.38747,-62.91082,-68.59601,-73.10756,-79.56184,-85.60746,-90.16298,-94.48069,-98.92225,-102.7591,-108.3627,-109.6618,-112.7597,-114.1169,-116.7245,-118.6539,-118.6765,-117.858,-118.6095,-118.0463,-119.3689,-117.5812,-116.282,-113.2201,-112.2233,-109.4536,-106.7798,-102.1011,-97.85051,-93.03707,-89.10685,-83.71833,-77.71916,-72.58234,-64.7324,-61.13163,-52.96118,-46.57554,-40.0726,-33.66376,-28.80144,-22.11061,-15.42323,-7.684344,-3.032155,3.395558,7.51064,15.54438,19.53825,26.09624,28.28541,34.28091,36.533,41.73768,44.72437,48.91474,52.48404,58.82283,62.02474,65.97258,65.5196,69.12504,71.30537,76.16593,77.41445,80.52149,82.66202,87.36614,89.33292,92.17551,94.05931,94.23012,97.54319,99.51691,99.59735,101.1178,101.141,102.3488,103.2175,102.5419,101.0644,100.8043,100.8086,101.1232,100.052,97.98267,97.02869,95.74022,95.00604,93.16517,90.38507,88.60386,88.01011,86.90091,85.26592,83.6309,82.37908,82.5151,83.14654,82.48249,78.7682,75.78532,73.69211,71.58004,68.48456,64.39108,60.55763,58.16599,54.87326,52.54698,47.43738,44.78828,39.99305,38.68764,32.71553,30.5765,24.68156,22.33487,18.85696,16.41414,10.68371,8.896145,4.094046,2.428165,-1.279159,-4.543959,-8.25813,-11.04077,-13.00595,-15.24962,-18.38324,-20.72584,-22.00751,-22.1269,-24.82872,-25.45898,-28.61293,-28.11771,-28.79314,-28.71531,-30.39026,-30.09291,-30.75168,-29.43447,-29.08693,-29.34421,-27.94555,-27.88179,-25.24664,-24.2035,-23.17078,-23.09603,-20.63771,-18.7601,-16.27289,-15.85135,-15.54199,-12.55452,-11.88966,-8.441632,-9.827417,-7.242377,-7.89666,-4.942277,-4.782162,-5.166303,-4.740681,-5.114652,-5.342764,-4.69179,-6.726117,-4.408637,-5.405878,-1.356681,-2.973678,-0.2336327,-2.028376,-0.09300011,0.638215,2.895861,2.187544,2.242704,3.101557,3.898108,5.747824,5.475759,5.959523,5.462315,7.36809,8.425408,8.866926,8.902789,9.669777,11.28815,13.14897,13.40974,13.97231,13.98547,16.51461,17.28669,17.16498,16.34516,17.5313,17.22987,18.23739,17.20687,16.94728,16.98511,17.12894,18.24109,17.00029,16.94811,15.68154,16.61962,16.74108,16.26002,15.29271,14.4616,15.34429,15.20506,13.73033,13.05886,11.25265,12.6302,10.9385,11.02995,7.857177,7.66762,7.218089,6.482943,5.199901,3.045029,2.201539,0.9876087,2.140345,-1.11759,-1.808534,-3.99038,-3.163814,-4.632075,-4.677962,-7.903972,-7.676101,-8.870861,-10.42798,-10.53494,-13.24145,-14.0455,-14.02318,-14.92081,-15.50799,-16.81297,-18.19731,-17.4876,-17.92717,-17.98977,-20.1999,-21.33854,-21.9051,-21.45116,-21.92678,-23.38942,-24.73478,-24.114,-24.62347,-25.99995,-27.15298,-28.12212,-29.36279,-28.31807,-30.12925,-30.8975,-32.10815,-33.23602,-31.47361,-34.22489,-33.67731,-36.91171,-36.00706,-37.63918,-37.24473,-38.98026,-39.71566,-40.58686,-41.03645,-41.13835,-42.72008,-43.32106,-43.89704,-44.47622,-45.48628,-46.64205,-47.95053,-47.64802,-48.05135,-49.39401,-49.67913,-51.67243,-51.70081,-50.50524,-51.25203,-51.57496,-52.46629,-52.06654,-51.25137,-51.67813,-53.50973,-54.09872,-53.57625,-54.19675,-53.62742,-55.8984,-55.21548,-57.04536,-54.46951,-55.41861,-55.32328,-56.70026,-56.09017,-55.49683,-55.40924,-55.21034,-56.44941,-55.21992,-55.53744,-53.12948,-55.14523,-54.95566,-55.48829,-54.14877,-53.99074,-53.79675,-55.77085,-54.82452,-54.53235,-53.92976,-54.92655,-55.06545,-55.32811,-54.96142,-50.93545,-51.90534,-49.95889,-51.18923,-50.24386,-51.91628,-51.17491,-54.65562,-53.95262,-57.18635,-56.09208,-60.11261,-60.97385,-64.50116,-64.52292,-66.16155,-68.05762,-70.92956,-70.83247,-73.10107,-72.20248,-74.73459,-75.11138,-77.01498,-76.21086,-76.32429,-76.79515,-77.38994,-76.65973,-74.38898,-73.80066,-72.25329,-72.50051,-69.99633,-68.78544,-65.75199,-64.13997,-62.70729,-60.32028,-57.1132,-52.90008,-50.85499,-46.53882,-45.48092,-38.41828,-36.48325,-31.01873,-29.32832,-24.40747,-20.11178,-14.65278,-11.46955,-6.565359,-3.928544,3.91249,7.582166,14.80131,16.38442,23.88173,27.89716,35.25144,38.74229,43.67051,47.3536,52.44625,58.74645,62.57674,65.68411,69.96061,74.60756,79.78437,82.78393,85.39533,88.88592,92.17178,96.34953,98.00198,100.7224,102.0681,104.7857,107.5741,108.3906,110.1211,109.9411,112.1329,112.9184,113.0223,110.4209,110.5251,108.9424,109.5743,108.4142,107.5616,106.7295,107.2481,108.9655,107.4253,107.2641,107.3674,107.2074,109.1623,108.9667,109.4711,109.8603,111.5222,113.9447,113.9262,117.2678,116.6927,121.0425,123.7222,123.1255,123.1005,121.2867,121.5123,122.7218,121.9563,119.5985,118.5478,116.1175,117.4428,114.1047,112.3649,109.8273,107.8541,106.4537,103.9478,100.8949,97.43635,93.97289,91.87037,87.83242,84.1468,78.72567,77.09486,72.6604,70.55825,65.42379,62.0215,57.05063,55.35709,50.23365,46.83214,41.00412,38.0511,33.61928,31.58343,25.51982,21.93581,17.87054,16.1801,11.31324,8.511643,2.733944,1.187945,-3.351224,-5.581396,-9.348867,-13.33733,-16.16785,-18.14111,-20.08106,-22.47039,-25.95175,-26.04878,-28.02678,-26.9331,-30.7709,-30.05006,-33.51799,-31.92121,-34.03774,-32.81803,-36.46094,-34.08089,-34.48762,-32.82277,-32.10168,-30.67613,-30.19622,-26.71116,-25.92333,-23.70887,-22.59736,-21.22578,-17.79838,-16.05496,-14.82376,-14.11009,-13.21242,-11.21895,-10.75036,-11.2957,-11.71121,-13.51482,-12.32469,-15.05139,-15.15366,-15.96252,-16.59375,-15.63099,-14.84095,-15.63048,-16.20997,-17.02533,-15.29076,-15.55618,-15.78374,-16.31257,-18.55877,-15.26144,-17.62997,-16.13221,-18.7188,-17.48045,-16.85533,-17.53663,-15.5638,-19.03777,-17.66171,-18.03444,-17.00234,-17.07388,-17.77108,-17.9328,-17.28401,-16.79483,-16.328,-17.01767,-16.29546,-15.74329,-15.12729,-14.14866,-15.19302,-15.5412,-13.89027,-14.15464,-11.88538,-14.42807,-13.51193,-12.67337,-11.40656,-9.905535,-10.98392,-9.080711,-9.769752,-5.958421,-6.918342,-5.880092,-6.024699,-3.378927,-2.236197,-0.1116683,-0.6087613,1.325301,2.097519,6.048663,4.725419,8.394553,6.811015,10.39374,10.13203,13.26097,12.33227,13.74296,13.92128,16.47551,16.8155,16.67665,16.37022,18.36481,18.37286,19.30182,18.21685,18.27498,17.81966,18.91087,18.35508,17.72136,16.72038,16.77035,17.34568,17.30907,16.00175,15.70368,15.90963,16.09097,16.27342,15.32012,13.94403,14.32688,14.7809,14.81339,14.09926,12.44201,12.70443,11.01783,11.76875,7.749952,8.14536,5.557022,6.629109,3.847105,3.662882,-0.05050255,0.4838243,-1.524291,-1.682146,-4.622254,-6.359658,-8.595869,-9.169091,-10.86363,-12.20312,-15.82961,-15.29786,-18.35999,-19.45866,-21.34431,-25.00321,-24.43453,-27.68614,-26.51128,-30.0327,-31.44817,-33.04459,-34.23229,-34.23775,-36.79423,-36.87453,-38.82697,-37.58755,-39.69945,-39.36111,-42.40398,-42.35853,-42.15538,-42.66577,-43.64484,-44.88499,-45.83466,-45.6734,-44.94055,-46.99327,-46.7767,-48.07779,-46.51229,-46.55916,-48.68302,-48.58988,-49.13257,-49.61589,-48.54625,-51.11199,-50.59059,-52.6338,-50.85638,-51.48909,-51.44543,-51.78368,-52.97013,-51.1983,-52.3548,-51.08955,-52.9542,-51.60024,-51.44585,-49.98353,-50.25556,-51.52463,-50.83585,-50.30174,-49.40341,-49.99086,-50.83617,-51.7753,-50.69323,-50.57933,-50.13084,-52.3234,-51.06704,-51.605,-50.48343,-51.53081,-51.00802,-52.239,-50.53589,-51.14866,-50.89927,-52.41937,-53.20866,-52.63287,-53.18091,-54.2251,-56.73311,-56.39098,-58.75405,-56.2959,-59.4502,-59.14313,-62.09906,-60.41412,-62.47379,-60.94124,-64.43344,-63.4568,-65.05998,-62.58941,-65.5905,-62.29128,-64.00106,-59.90501,-61.92236,-58.49133,-63.03843,-61.54853,-63.93882,-62.20793,-65.19945,-65.7552,-68.92051,-68.63561,-70.2235,-72.60986,-73.16376,-76.58075,-77.00024,-78.13614,-77.87526,-81.79588,-81.57568,-84.77069,-81.99105,-84.35279,-84.25443,-85.40384,-84.27543,-82.13054,-81.86719,-81.22068,-80.9971,-78.18789,-76.06613,-71.45105,-71.9371,-67.32361,-66.63126,-61.75873,-58.79276,-54.57193,-53.25,-46.8212,-43.08387,-37.00779,-33.91002,-29.22087,-22.95996,-17.57121,-11.93887,-6.988523,-2.684381,2.54242,9.189474,14.04393,20.35476,24.51392,30.53997,36.63346,42.12805,47.54229,50.7712,57.46331,62.68079,68.61647,72.77754,78.09919,81.91797,87.36138,90.77225,96.02083,97.84954,102.8074,105.2933,111.4865,112.0013,116.523,118.3987,123.3254,125.2723,127.7545,128.9751,131.0096,132.642,135.087,135.0657,134.209,133.2537,134.2775,134.8869,134.5931,132.4345,133.1034,131.9382,133.2877,131.8639,131.6404,129.6916,131.9568,130.6674,131.9415,129.8212,131.8518,130.3377,133.633,131.539,133.3188,132.2387,135.8469,137.0726,139.0147,138.9973,138.6662,138.9385,139.1766,135.6623,136.795,132.2864,134.0526,130.6406,130.4783,125.6765,124.7413,121.8233,120.5897,117.7866,113.3489,111.1541,108.0881,105.2374,100.4887,96.89371,91.26382,89.05892,84.04922,79.86984,74.18459,70.07205,66.40815,61.74748,58.32438,51.99091,48.30403,43.7733,39.89025,34.09715,28.56994,23.50855,19.70634,17.24194,12.17107,6.792255,3.257584,-0.2805529,-2.987927,-6.978228,-10.58133,-14.5124,-17.69776,-19.77555,-23.23803,-25.77865,-29.64007,-30.53039,-31.70429,-33.2013,-35.47787,-38.16572,-37.78207,-38.43535,-38.57925,-41.23467,-41.35294,-41.63598,-40.4735,-40.42914,-40.94627,-42.27013,-41.14179,-39.70966,-38.72718,-39.39085,-38.7343,-37.48375,-35.26046,-35.79021,-34.49772,-36.50085,-33.8231,-34.76627,-32.71729,-35.18319,-34.94504,-35.38153,-34.65246,-36.01297,-37.10855,-37.11366,-36.44502,-35.90042,-35.72664,-37.51103,-36.66718,-36.63901,-34.65711,-35.70987,-35.21217,-36.82449,-34.43022,-35.03956,-34.56316,-35.35264,-36.83188,-36.74555,-35.6976,-35.57168,-36.85276,-37.41519,-37.71398,-36.10929,-37.34652,-36.01831,-38.13076,-38.33557,-38.04548,-37.83744,-37.11457,-40.24346,-36.97771,-36.93188,-36.33253,-36.50517,-36.95228,-35.43302,-33.45325,-31.20191,-29.09588,-29.46687,-28.16362,-28.95797,-27.37633,-29.57164,-32.36079,-33.52565,-33.41611,-34.51038,-36.3369,-39.24733,-39.79656,-40.98833,-41.60565,-43.5583,-44.59157,-45.82701,-45.16494,-45.83345,-46.48702,-46.01917,-48.145,-44.43871,-46.59495,-44.97056,-46.26175,-46.80943,-47.83932,-45.72813,-46.76349,-45.62332,-41.93036,-39.73748,-35.2709,-32.49936,-29.02804,-24.70237,-18.37958,-13.83409,-8.509664,-4.791158,1.443204,7.264197,13.14277,18.69864,22.51977,28.5134,34.43182,39.58069,44.2111,47.4414,52.06424,57.15637,62.04827,65.14503,67.39348,70.7582,72.94066,77.54355,78.34041,79.78572,81.9455,82.55395,85.88629,84.76667,84.95135,85.11534,85.31195,85.12855,84.48448,82.37542,80.36271,79.69969,77.8818,75.39243,71.70166,69.07234,65.60248,62.5692,59.57833,53.18847,49.04191,44.17979,40.12846,35.23109,28.60843,23.38048,17.53548,12.92905,6.03879,0.2818027,-6.253283,-9.705467,-16.09958,-20.13812,-27.89628,-32.67277,-36.43337,-39.50011,-43.5653,-48.66682,-51.0688,-53.70912,-56.52286,-56.24339,-58.87959,-57.37511,-56.42309,-55.54367,-55.22504,-56.58662,-57.02698,-56.881,-54.10199,-55.05461,-54.89327,-53.87326,-52.26058,-50.81996,-49.92588,-50.08824,-47.47131,-48.20924,-44.50908,-44.69615,-45.08945,-44.23808,-44.70967,-42.68841,-43.18568,-43.65098,-46.36971,-45.53114,-48.83078,-48.11592,-53.73118,-56.48829,-57.70018,-57.40475,-59.58019,-59.80162,-61.51194,-62.56047,-61.19915,-62.34124,-62.49077,-64.3755,-63.7844,-64.29766,-63.18506,-65.78672,-64.71461,-66.44952,-64.3665,-65.7648,-66.37707,-66.71899,-67.08555,-66.13968,-66.09882,-66.8024,-67.37354,-67.06447,-66.74229,-67.29029,-67.43542,-68.54803,-68.38723,-67.28815,-67.91505,-68.66763,-69.74846,-70.41,-68.7469,-69.80177,-70.14356,-70.78609,-71.45904,-70.25654,-69.38287,-70.2802,-69.06064,-69.92079,-68.60834,-66.06343,-64.70084,-63.26249,-61.2629,-59.78711,-58.91613,-60.07527,-59.48738,-59.22273,-60.19922,-58.46004,-59.6243,-60.64392,-62.24152,-61.14796,-62.0656,-62.22677,-64.24844,-66.00425,-65.524,-65.94379,-66.62624,-68.81722,-69.58759,-70.05885,-70.66862,-71.26123,-72.13861,-72.58766,-71.50927,-69.17047,-69.1867,-68.65796,-66.0932,-64.31243,-60.47422,-58.16556,-56.44969,-53.5064,-49.00697,-45.29704,-41.33182,-37.73946,-34.73251,-28.10588,-23.76979,-17.88123,-14.87435,-9.082565,-2.890591,3.220156,9.097244,14.86808,20.43274,27.42905,33.52614,39.67449,45.22398,50.17846,56.07578,63.01144,66.74575,72.53032,75.94523,82.75465,87.47176,93.61151,97.08339,102.0323,105.7421,111.4187,114.6331,117.5513,119.482,123.8195,127.018,128.3801,132.2367,131.7484,136.8262,136.3065,138.5653,136.4599,137.7513,137.7994,138.6974,138.8282,139.4107,137.8601,139.8947,139.4666,141.3556,138.9359,138.8805,138.3252,139.1625,138.0042,137.6798,136.438,136.5157,136.7644,135.8923,135.1745,133.7398,135.2931,135.6114,135.0949,134.9514,134.5444,134.8284,137.4199,135.7632,134.4391,132.5078,129.9338,128.0582,127.5058,123.4454,121.1702,117.7292,117.6828,113.1674,109.1802,104.8769,102.1891,98.75801,95.92529,90.15971,86.23488,82.99321,78.73629,75.47543,69.04085,63.00599,59.33946,54.91481,50.9423,44.30891,38.31915,33.08642,29.28,23.87014,19.54163,13.48632,8.48393,4.474661,0.632188,-5.160961,-9.67255,-13.21827,-17.02818,-20.0071,-25.31078,-28.39042,-32.11213,-33.71931,-35.17575,-39.59779,-39.92884,-42.79893,-41.95245,-42.64567,-43.71365,-44.72524,-45.58948,-43.56214,-43.54781,-42.44026,-44.56055,-41.34925,-39.63569,-38.35386,-36.68,-37.26702,-34.22198,-33.36048,-28.75484,-29.25275,-27.61775,-25.86926,-22.60802,-21.22969,-19.43803,-19.58623,-17.08094,-15.53479,-13.12629,-12.31171,-12.71673,-12.42056,-12.97386,-11.67591,-10.75009,-10.26711,-10.11982,-7.582215,-5.828837,-3.999245,-4.976535,-2.52651,-1.922078,2.032486,1.435437,3.113811,4.185646,7.034976,8.553511,10.66099,11.09243,12.44394,14.07808,16.22055,17.02653,17.63328,18.57868,19.99998,21.04721,23.19877,22.06544,22.28172,24.087,24.50064,24.99347,24.44102,22.99646,24.04522,24.50389,22.89479,23.49463,20.52692,21.17128,20.16374,19.82968,17.22403,16.05298,15.93646,14.89473,13.85371,11.85042,9.975229,9.71173,9.23944,6.599017,3.695368,2.933586,-0.4018049,-0.2504899,-4.269533,-5.679311,-9.43289,-9.603005,-12.22375,-13.41359,-18.59562,-19.06917,-21.4953,-22.15094,-25.88171,-28.13837,-30.79526,-32.20958,-33.7038,-36.21154,-38.21144,-42.07828,-42.16574,-43.09525,-45.48863,-46.51733,-49.01121,-50.81107,-50.64134,-52.98954,-54.38393,-56.27467,-56.02083,-56.87518,-57.35485,-58.72553,-58.82729,-59.7481,-59.40364,-58.92967,-61.15886,-60.47573,-61.2627,-58.99272,-60.84034,-60.36956,-61.634,-60.99703,-60.40662,-60.16407,-61.42303,-60.8715,-61.25007,-59.90163,-60.48299,-60.03095,-61.84363,-60.53124,-59.9456,-59.42462,-60.42792,-61.66727,-61.00265,-60.43381,-60.09121,-61.5818,-61.84684,-60.96902,-59.23321,-60.52967,-59.05506,-61.31931,-59.47097,-60.56061,-58.21967,-61.16765,-60.38394,-61.81041,-59.99162,-60.61543,-61.1027,-62.65544,-62.01272,-62.9709,-61.81042,-64.43389,-64.53756,-65.96287,-65.99976,-66.49456,-67.77554,-69.88312,-70.98721,-71.965,-71.51124,-74.01561,-76.16471,-77.39053,-77.18786,-78.34348,-80.01401,-81.48328,-82.69826,-83.31471,-82.97361,-85.64808,-86.72842,-88.11689,-88.79228,-90.20606,-92.41093,-94.0712,-96.19851,-96.31865,-97.27274,-98.74694,-102.7249,-98.55372,-99.80257,-96.79701,-98.89269,-98.82397,-100.1842,-99.13038,-101.2196,-101.1088,-104.7071,-105.6137,-107.7755,-107.9613,-111.4947,-112.782,-115.6598,-115.6951,-118.019,-119.8739,-122.6662,-125.3583,-124.2396,-125.6864,-126.065,-127.583,-127.8295,-126.6749,-125.2415,-123.5723,-124.19,-121.364,-119.491,-115.8467,-113.9268,-112.2719,-109.5374,-105.2951,-101.6358,-97.35483,-94.2017,-89.26946,-84.71228,-78.43284,-74.03281,-69.19423,-64.12914,-57.97107,-51.43108,-46.63154,-41.79498,-36.5752,-30.35191,-24.46162,-18.68534,-15.38522,-8.625905,-3.648157,4.187949,8.658366,14.06146,18.74021,25.27799,30.89561,37.39023,40.27032,46.09472,50.08005,57.23274,60.23808,65.19541,67.24006,73.5172,77.32099,81.1099,83.89525,86.11486,90.04053,93.31709,96.33953,97.34693,99.20146,101.3859,104.5829,105.5035,105.7378,105.8809,106.7292,108.1551,105.6239,105.7153,103.0548,105.4271,104.803,106.0954,105.4632,104.6669,105.9218,107.6266,108.0525,108.7688,108.6947,110.8845,112.5206,115.3765,115.7445,118.0225,119.7183,124.5486,126.6501,130.4997,134.1022,133.8539,138.6778,138.2225,139.9545,139.6192,140.855,141.1101,142.6678,140.7151,140.7136,139.0089,139.2021,137.0685,136.4286,132.5205,132.304,129.3997,127.7805,124.052,119.6489,118.8416,115.0882,114.3391,109.0956,106.767,103.6501,102.3408,98.9504,95.10211,92.06103,88.35721,87.40744,83.69804,80.09543,77.57848,74.24087,73.19719,71.22742,68.93043,65.49294,63.66832,63.11579,61.20707,59.73773,56.87152,56.17236,55.78544,55.18876,54.31084,52.15194,52.34829,51.54653,53.82972,51.1264,52.55529,50.81533,54.47,53.33572,54.7343,54.07124,56.52556,58.3486,59.7506,61.70253,61.43247,63.39196,65.87788,68.47897,70.22747,70.9821,74.77842,76.41519,81.12926,81.33077,83.9932,86.69225,88.79336,93.05156,92.46836,94.44193,95.61059,97.28551,98.32074,97.96891,97.31605,96.81431,98.2744,97.54988,99.67042,98.35982,100.7824,101.7261,103.9191,104.8644,103.6928,106.4094,108.1922,111.1915,111.8069,113.1964,114.3748,117.1068,119.988,119.7092,121.3622,122.2027,125.6086,127.7304,130.5218,129.9164,133.1359,134.8981,139.0341,139.2532,142.1298,142.7769,147.666,149.7109,150.8562,152.1571,152.2705,156.4378,158.1837,161.0825,160.8817,163.0209,164.4368,168.5155,167.9548,170.4867,171.1385,173.5777,176.373,177.3671,178.2834,179.5312,181.2765,183.8468,185.3579,186.0794,186.1719,189.3126,189.4491,191.5611,191.5079,192.0762,194.4043,197.8717,200.0851,201.5218,202.0179,203.9104,204.9922,205.8744,203.8594,203.6645,203.6448,203.3928,202.1984,199.7855,197.8671,196.629,197.1883,193.2419,192.5963,188.2994,189.0592,186.203,185.205,182.3806,180.0587,176.7338,173.8852,172.375,167.1337,166.8741,165.9712,166.9818,167.2088,165.7347,166.9353,167.2035,170.5822,171.773,173.2708,173.5545,176.6379,179.261,181.9762,183.1598,185.0128,187.3737,190.6007,193.6553,194.4027,195.9572,198.438,201.4259,202.7449,204.2482,204.5978,207.5123,208.6459,210.9863,209.0202,210.5536,209.8762,211.4245,209.6786,208.6502,205.8905,204.7621,203.5803,201.5823,198.7285,195.5538,192.7407,190.559,187.0395,182.0272,177.1102,172.8469,170.8186,165.1922,160.2504,153.8411,149.6222,143.7539,138.8668,132.1488,125.4354,119.7044,114.3006,109.6132,101.7426,95.487,89.35496,84.23814,77.91887,72.0287,64.14892,59.2188,55.01939,48.64154,44.60483,37.9079,34.29971,30.99328,27.51209,23.23838,19.30164,18.19533,15.91438,16.85595,14.43739,14.1744,14.08172,16.88325,16.26721,16.46997,13.62613,15.32765,15.54866,17.385,15.62302,16.70043,16.3164,17.04921,18.31661,17.6424,16.68783,16.92783,18.18869,17.61224,17.67169,15.24704,13.73955,13.44912,11.36539,9.165127,4.126902,1.889204,0.02534927,0.02795945,-3.085538,-5.819252,-8.194067,-9.661574,-10.41503,-13.72217,-14.97391,-16.87867,-16.87735,-18.15295,-20.80602,-23.75502,-24.87164,-25.00706,-25.58584,-27.16445,-28.62406,-29.22078,-29.90592,-28.34019,-31.25579,-31.33586,-33.64537,-32.9409,-34.61552,-33.89541,-37.54001,-36.19734,-38.36893,-37.44354,-40.62429,-41.59407,-44.39752,-45.4321,-47.74516,-50.52603,-53.97313,-58.16896,-59.40025,-61.55475,-62.80845,-66.36044,-67.77713,-71.61517,-74.56273,-79.53215,-86.77944,-91.76946,-98.96494,-104.5236,-113.7362,-120.5898,-131.0733,-137.9263,-145.2266,-152.3392,-161.6362,-171.1035,-178.2484,-186.8656,-196.0752,-205.2661,-215.3895,-223.1816,-227.9479,-235.7912,-242.5002,-250.3522,-255.4659,-262.7845,-265.8473,-276.0292,-278.1029,-285.3019,-285.9639,-291.6529,-291.7848,-297.4898,-295.8932,-297.8703,-296.8061,-297.2834,-295.0582,-293.8555,-290.4865,-290.1184,-287.657,-285.6819,-279.8101,-273.7373,-266.2473,-259.5557,-250.5053,-239.7867,-227.6075,-215.7982,-204.3814,-191.3478,-178.0806,-165.9473,-151.0976,-139.1074,-125.6859,-109.928,-96.27724,-80.05922,-68.05231,-54.09506,-41.91618,-26.67797,-16.68886,-4.279275,7.327156,18.4122,30.59914,40.58917,49.0777,56.63176,64.71778,71.90133,78.73295,82.69166,88.31482,90.61406,97.81943,98.99504,100.4106,100.1049,99.81935,99.59405,95.94615,92.17532,87.39644,83.00595,78.23071,71.76754,65.42517,57.01201,50.5482,43.15765,36.483,27.1203,17.92842,9.06138,1.494487,-7.485638,-14.77397,-24.61664,-29.57325,-36.60368,-42.91972,-50.73526,-58.7323,-67.92696,-74.51635,-81.61119,-90.2482,-97.51911,-104.8164,-109.2597,-116.0889,-120.201,-126.0846,-128.5046,-130.8796,-133.0915,-138.3178,-140.3968,-142.2147,-142.0505,-141.7843,-142.2541,-141.0644,-138.2927,-133.6292,-132.5211,-129.3704,-128.0527,-124.3596,-120.4595,-114.4048,-112.3121,-105.7728,-103.6453,-96.0617,-91.92165,-86.12912,-84.37657,-77.00564,-73.64638,-66.49099,-64.34867,-60.82896,-59.59908,-53.994,-52.45311,-46.1506,-44.31044,-38.12215,-33.61041,-27.51804,-24.0023,-20.0905,-16.74323,-12.93135,-8.56032,-6.825081,-6.010542,-5.086007,-3.919949,0.06842004,-0.8757916,-1.436946,-0.809746,-1.879464,-0.5152599,-3.775923,-5.853302,-8.074491,-10.09451,-12.34132,-14.56764,-17.45708,-21.29318,-22.98524,-26.26434,-31.03128,-35.04734,-39.69431,-43.46628,-46.39816,-51.67469,-57.13182,-60.89772,-61.49495,-68.28708,-71.38991,-78.30949,-82.12724,-87.31787,-91.05453,-96.56232,-100.4553,-106.1864,-109.8054,-113.6319,-115.6434,-120.586,-122.4955,-125.5983,-127.9574,-130.0343,-135.3292,-136.6142,-138.6191,-140.2751,-140.9138,-143.6162,-144.5333,-145.1271,-144.2021,-143.3198,-146.3293,-144.5007,-145.5564,-142.0154,-143.1161,-142.034,-141.7036,-139.5937,-137.3379,-134.9895,-134.3813,-132.6362,-131.0668,-128.4309,-126.7653,-124.4806,-123.2409,-119.9999,-116.8745,-114.1161,-111.3837,-110.0462,-105.9595,-103.4488,-100.1602,-98.82413,-97.60508,-93.20258,-89.47243,-86.87004,-86.06199,-85.22684,-84.04707,-80.89846,-80.38282,-79.65824,-79.90522,-78.98015,