ConstAcc,0.5,0.20431,95.252587,82.052989,70.116583,59.340047,49.625477,40.880269,33.016991,25.953258,19.611612,13.919398,8.8086354,4.2159015,0.082202267,-3.6471488,-7.0226552,-10.090761,-12.893973,-15.470988,-17.856813,-20.082891,-22.177222,-24.164491,-26.066187,-27.900732,-29.683598,-31.427437,-33.142201,-34.835267,-36.511559,-38.173676,-39.822009,-41.454873,-43.068622,-44.657779,-46.215157,-47.731983,-49.198023,-50.601703,-51.930235,-53.169741,-54.305373,-55.321443,-56.20154,-56.928658,-57.485319,-57.853694,-58.015731,-57.953276,-57.648196,-57.082505,-56.238486,-55.098816,-53.646689,-51.865938,-49.741161,-47.257845,-43.028575,-34.373033,-19.894936,-10.672558,-4.5184477,1.5146223,7.7990851,12.931982,16.821347,22.798565,29.759419,36.594658,43.599909,50.841997,58.404984,66.556704,75.130145,83.156698,90.445864,97.481117,103.62726,109.15513,113.90906,118.51254,123.74278,130.09297,137.27554,145.17958,153.50195,162.40521,171.81647,181.71928,191.33497,200.47674,208.67842,216.1597,222.99523,229.079,234.46516,239.41878,243.71204,247.23277,249.94154,250.59235,249.94301,248.53679,246.72222,245.82433,244.90547,243.51613,241.59316,239.22995,236.42261,232.92517,228.77408,224.08815,219.08457,213.94469,208.56874,202.82257,196.57023,189.87207,181.21529,171.59795,161.53247,151.38588,142.91365,135.46637,128.70242,122.21277,115.92207,109.9683,104.36996,99.044648,94.150228,89.73723,86.142214,83.685041,82.264501,81.704334,81.398797,79.62832,77.300035,74.963025,72.50756,69.831883,68.680582,68.297761,68.287342,68.306205,67.937609,67.224019,66.428005,65.318413,63.938326,62.389475,60.862608,59.405754,58.122628,57.159298,56.82843,57.060148,57.66376,58.670396,59.78139,61.046875,61.229315,60.969213,60.751935,60.728168,62.822498,65.844499,69.198656,72.57461,75.601926,78.051424,79.97955,81.564291,82.797863,83.786647,84.383014,84.750712,83.189048,80.593269,77.354851,73.814974,70.213539,68.533057,67.938511,68.025607,68.814032,71.315284,75.191485,80.11361,84.421168,87.804427,90.554218,92.737928,94.48152,95.49271,95.758151,95.534704,95.145999,92.707179,89.182912,85.295408,81.57524,78.32232,77.538553,78.069982,78.77471,78.882559,78.285846,77.096841,75.103907,73.232287,71.970133,71.767321,72.621122,74.923529,77.783897,80.830684,83.985062,87.024574,89.806097,92.11495,93.75025,94.69139,94.813214,93.980816,90.179037,84.781049,78.838226,74.411614,73.480514,74.21927,75.876383,76.304145,75.509017,73.485225,70.08247,65.516297,59.874069,53.474468,46.0156,37.47396,28.052895,18.268265,8.2029821,-2.31999,-13.590424,-25.394281,-35.898164,-45.395195,-54.095506,-61.991673,-70.675677,-80.967862,-91.360593,-101.78884,-109.93092,-116.66531,-122.37101,-128.27537,-135.0556,-143.08245,-152.0545,-161.41136,-171.01816,-180.6859,-190.6136,-200.98477,-211.44651,-221.41972,-230.98912,-240.26631,-249.14364,-255.84851,-260.41021,-265.48553,-269.67995,-274.3645,-278.50795,-280.65653,-280.99028,-279.82916,-277.21739,-273.51662,-268.85674,-264.25175,-260.72803,-258.49562,-257.15352,-254.1326,-249.58924,-243.65096,-236.2628,-227.21522,-218.21628,-209.17284,-200.29622,-191.41255,-182.4194,-175.58434,-169.1882,-162.72521,-155.69118,-145.93974,-135.32292,-125.20148,-116.05232,-108.18036,-101.39486,-95.915574,-89.330511,-82.150393,-74.391213,-65.81707,-58.828128,-53.721128,-49.783018,-46.252903,-42.312507,-35.475495,-28.039045,-18.910975,-8.9796264,1.7216159,12.9939,22.99864,30.857052,37.263065,42.921601,47.993821,52.577717,56.296263,57.116723,57.054392,57.292281,57.904002,61.333539,67.54543,75.176103,83.172693,91.382653,96.592836,99.560532,101.23534,102.1639,102.55063,102.43386,101.9339,101.26473,97.944447,94.256918,91.395904,89.743375,91.571182,94.383151,96.84382,98.172046,98.125056,96.791557,94.531327,91.512487,87.662836,82.994467,80.177271,79.506315,77.734602,76.855177,74.786164,72.032587,70.950207,69.717846,67.487117,64.218292,59.878888,54.932056,49.924604,44.690507,39.487162,34.550616,30.091112,23.11615,15.464304,8.2900041,2.1074029,-2.4583674,-4.4798114,-3.3040883,-0.70868554,2.6310348,6.4959173,9.8061937,11.810028,12.21309,11.310009,9.5225907,6.3902645,2.2956464,-2.6741549,-10.591008,-19.074789,-26.44827,-31.777461,-35.086737,-33.866452,-30.904439,-27.882981,-26.091535,-25.700041,-26.154786,-27.028398,-25.66686,-23.35639,-20.170319,-18.259894,-18.814063,-19.889204,-20.667636,-18.133739,-14.877186,-11.905208,-9.8502289,-9.0761716,-9.6082168,-11.23968,-13.05998,-11.737606,-9.7472999,-7.3841992,-6.833569,-5.684339,-6.2276722,-7.5075427,-9.4379455,-9.2180932,-8.6070888,-8.0023771,-7.9911423,-8.8014721,-10.41433,-12.690594,-18.389996,-25.265964,-31.908007,-35.069198,-35.110949,-32.770376,-27.132356,-23.940292,-22.905471,-23.948002,-26.579678,-31.264758,-37.27832,-43.623262,-49.609399,-55.234923,-63.768582,-73.048672,-81.434666,-87.949492,-87.208342,-83.889644,-80.650283,-78.071578,-78.788441,-81.507757,-85.714787,-90.913073,-96.429894,-101.75332,-106.73634,-111.33008,-115.79333,-119.73791,-123.31712,-129.50211,-132.39554,-129.12276,-122.96946,-115.31107,-110.57514,-108.62521,-108.69811,-109.88491,-110.61113,-110.69262,-110.64058,-110.47166,-110.37493,-110.17716,-109.69474,-105.98946,-103.31965,-100.01017,-95.290197,-88.929213,-81.118606,-73.839503,-67.635785,-62.499014,-58.293674,-55.32113,-52.317242,-48.793013,-44.735326,-41.032871,-39.037106,-39.401403,-41.329896,-40.201754,-36.099381,-30.315707,-24.262555,-18.424282,-15.674855,-14.344328,-14.01312,-13.966948,-13.761094,-13.55375,-16.78351,-20.293054,-22.495115,-22.939313,-19.133321,-8.8527015,3.3942717,15.231735,22.588209,27.267805,30.575701,33.329321,35.363976,37.115524,39.392423,41.71602,43.170389,44.630487,44.057269,44.163153,45.952928,49.606001,55.402421,66.103095,75.042859,82.034931,87.107061,89.781507,90.543777,90.1566,89.51206,92.508784,96.972311,101.94215,107.13208,112.76018,118.46125,121.24289,121.99202,121.05532,118.57111,114.65637,110.09521,105.25514,100.01294,94.776508,89.067903,86.793133,86.638506,87.957155,89.497971,87.579672,83.378379,78.25721,73.089918,68.633221,64.520594,61.419676,60.17574,60.211726,60.660466,60.529769,58.938999,55.753991,50.900343,44.929209,41.42815,39.004935,33.163717,25.543269,16.470151,7.0541312,-1.6031781,-9.481047,-15.693667,-20.474156,-23.84758,-25.852295,-26.32364,-26.340896,-26.836658,-25.345077,-23.94645,-15.616069,-0.034289775,21.74747,46.99607,70.973988,93.769714,116.18455,138.49483,160.94593,183.91264,206.75206,228.92931,249.69213,268.57052,286.13578,302.12786,316.8984,330.5231,341.94621,351.13823,357.99161,363.06162,366.01658,366.5654,363.54937,357.36325,349.51487,340.32835,334.39376,329.73681,324.9882,319.92383,314.71685,305.05376,292.66167,278.74011,264.24774,249.3757,234.34676,219.44785,204.87137,189.94522,173.06027,152.78799,129.24967,102.92241,76.948939,52.683188,28.401607,3.4622117,-22.261838,-52.069271,-83.5731,-116.19052,-149.82882,-182.87249,-214.45267,-244.53669,-274.02909,-303.20062,-330.73331,-355.91853,-378.53829,-399.58803,-419.57746,-437.75478,-453.72409,-467.3643,-478.48477,-486.81194,-491.53064,-492.14803,-488.51555,-481.44248,-470.61653,-456.3067,-438.53943,-418.11949,-394.90736,-369.12146,-341.17597,-310.62425,-277.46447,-242.26143,-205.58319,-168.49486,-132.94188,-99.087773,-67.355209,-37.579169,-10.13192,15.436946,39.630202,62.407103,84.406139,104.6348,122.52028,138.57737,153.23423,165.61758,175.61569,183.90188,190.7782,196.36865,200.10332,201.90635,201.78295,201.93583,204.30848,206.70516,211.65519,216.59584,219.36646,219.51056,217.08715,212.83608,207.46157,201.52734,195.06382,187.66403,179.25776,169.46758,158.12124,145.32438,130.96638,114.52825,96.83467,78.568316,59.329612,39.507975,18.717911,-2.7231369,-24.384579,-46.126706,-68.062341,-89.104367,-108.4114,-126.29671,-142.18098,-156.20537,-168.4398,-178.90991,-187.23537,-193.73073,-198.23703,-199.81306,-198.1684,-193.89642,-184.15645,-173.58146,-164.75777,-158.42914,-154.06156,-150.68153,-146.93718,-142.11926,-136.83451,-131.60674,-127.14327,-123.04539,-118.83784,-114.48471,-110.3936,-106.28345,-102.05146,-98.194504,-95.137608,-92.51865,-90.04985,-86.990573,-82.746109,-78.798775,-75.035192,-71.46391,-67.886775,-64.146393,-60.946889,-57.973253,-55.149392,-51.878833,-47.956615,-43.842706,-39.516243,-34.259079,-28.572534,-22.562956,-16.909222,-11.730243,-6.4791959,-1.6096583,2.5222272,6.8395,11.304714,16.086823,20.712117,25.385456,29.436207,33.421796,37.312542,41.369127,44.709076,47.677975,51.196082,54.668597,58.034067,60.643182,62.809297,65.192823,67.803787,69.724531,71.321437,73.045699,74.00013,74.400748,77.104913,84.813647,89.99625,91.437836,90.397267,85.6003,78.039054,69.096694,63.410051,61.832641,63.502611,65.203457,65.407709,63.345652,61.221991,62.030204,61.48802,57.24926,51.804103,47.669705,44.47931,41.334095,38.184828,35.576881,32.328511,28.334723,25.292673,24.450398,26.793234,31.340426,36.05432,39.799299,43.012768,47.171041,52.427072,57.559386,60.460895,63.781679,67.182747,72.135841,79.374715,87.476928,95.24074,102.4373,110.56457,115.40382,118.68923,120.96293,123.69348,127.26395,131.27794,134.61165,136.87226,138.22665,138.38835,138.24572,137.85203,137.86166,138.76619,140.86253,142.54112,143.21022,143.56581,144.52778,145.83896,147.65681,149.30387,149.69968,149.51291,148.88417,149.16951,150.29324,151.53177,152.17695,152.3613,152.70572,153.86671,155.35985,156.93024,158.16257,158.95587,160.35441,161.44016,161.64505,161.03822,159.02076,155.05146,150.98562,148.56344,148.07459,147.83921,146.84845,144.72834,141.64019,138.98796,136.82412,135.00589,133.17436,131.7612,131.436,133.69221,137.73903,142.5474,147.98288,152.2293,155.31449,160.37637,167.11931,173.20661,179.55168,186.64491,187.21696,181.75034,178.23298,178.19942,179.15377,180.49848,181.87332,191.47728,202.00997,209.03496,209.69716,206.21227,200.07085,195.02706,189.49175,179.19803,168.28409,159.22287,150.91982,141.76662,129.57267,113.67964,97.069246,76.873588,61.151532,51.872996,46.291834,40.045521,31.033441,19.452743,7.9207715,-1.555034,-9.2040964,-16.017885,-22.72821,-29.5381,-35.119453,-41.499542,-45.875997,-48.323949,-50.795788,-52.750731,-53.64179,-53.73377,-54.752075,-56.467032,-59.252616,-62.125473,-65.363669,-68.137929,-69.778225,-72.121329,-75.881397,-80.645838,-85.14021,-89.580495,-94.331586,-99.763464,-105.77003,-110.37401,-113.45027,-115.60381,-118.49623,-122.93224,-127.94261,-134.86997,-143.06461,-149.65607,-152.5287,-151.90071,-151.61755,-153.2193,-156.78301,-159.2648,-159.54634,-158.41412,-157.72027,-158.12238,-154.48097,-151.17396,-150.36613,-153.33502,-159.08271,-164.78609,-169.58868,-174.01201,-182.74898,-207.12114,-247.43955,-284.78713,-300.86745,-296.58495,-282.72274,-267.4684,-253.91403,-238.32908,-219.72238,-197.06948,-164.68913,-129.82556,-98.460341,-72.940566,-51.739813,-32.916087,-13.306106,5.1236888,17.504498,23.178401,25.404976,27.358932,28.007983,31.262842,32.216312,29.006789,20.930821,8.9449431,-3.9287781,-15.284452,-33.409553,-56.45559,-83.428419,-113.27196,-144.18831,-174.5866,-205.7093,-238.74556,-274.06888,-312.2985,-353.15424,-395.6871,-440.3284,-485.21576,-529.16049,-573.79335,-612.65677,-651.41063,-692.25904,-736.5216,-780.41765,-820.17858,-854.99483,-886.9443,-917.25406,-945.46384,-971.22415,-995.42661,-1018.3064,-1039.8522,-1058.1659,-1070.6413,-1079.2863,-1085.948,-1090.6533,-1093.3064,-1091.7664,-1085.2733,-1075.57,-1063.5278,-1048.5734,-1029.0685,-1006.2126,-983.93943,-961.8808,-937.74994,-909.62542,-878.79489,-846.66103,-812.7143,-775.62787,-735.25004,-694.47856,-655.23198,-617.87629,-580.06026,-540.14066,-498.35054,-455.17862,-410.35598,-365.61884,-322.33595,-281.665,-243.03606,-206.23785,-169.93775,-134.59791,-101.67395,-72.688603,-48.788191,-29.495615,-19.183741,-14.436836,-15.038706,-21.380912,-33.616291,-52.429343,-78.910649,-113.45973,-150.18817,-171.38346,-165.97915,-146.62623,-133.27351,-132.74838,-138.21286,-141.02759,-136.94745,-128.87012,-118.73484,-107.3038,-102.51648,-101.85764,-102.61968,-102.5548,-101.95139,-101.10262,-101.75619,-103.96411,-106.46055,-107.92637,-107.61651,-107.31858,-108.05325,-110.57774,-112.75923,-113.94018,-113.65691,-113.12151,-113.58791,-114.63168,-114.98508,-114.66563,-114.29351,-113.31364,-111.81321,-109.59363,-106.71585,-103.48747,-101.00268,-98.942835,-95.946149,-92.357143,-89.90371,-90.133347,-92.809396,-94.240657,-94.264037,-93.376828,-92.643639,-90.767588,-86.53637,-81.377022,-77.065302,-73.948544,-71.829868,-69.81781,-67.957753,-66.64427,-66.419597,-65.160105,-61.843483,-58.48731,-56.269587,-53.581695,-49.823232,-43.727479,-36.454606,-30.603996,-27.060886,-23.807366,-19.318968,-14.711144,-11.94105,-10.545052,-8.4858598,-5.319416,-2.4145474,-1.0057664,-0.92935513,-0.94438352,-0.10174508,1.7626112,2.3876122,1.5456107,-0.007251226,-0.27585958,0.96370039,1.3199801,0.81237648,-0.81233914,-0.5041782,1.267729,2.0447179,-0.35043822,-4.4919408,-7.4825841,-8.6740611,-10.001126,-13.240115,-17.324008,-19.874379,-21.081653,-22.841568,-25.635296,-29.366386,-32.27565,-34.068466,-36.049428,-39.60338,-42.749116,-44.483651,-45.659556,-47.281538,-50.051084,-52.819895,-54.538517,-54.507551,-54.796165,-57.447705,-62.100683,-66.313,-67.934522,-67.461485,-67.426335,-67.779069,-66.933266,-64.780657,-62.765402,-61.679418,-60.709296,-58.384017,-54.642752,-50.85704,-47.909615,-44.948466,-41.334447,-36.720088,-31.750803,-27.891717,-24.741081,-20.549895,-14.529378,-8.7195054,-5.1042073,-2.2972536,0.63069726,5.2318538,9.8437379,12.712576,14.459367,16.664345,19.706533,22.314862,22.581377,22.572405,25.033018,29.34164,33.329204,35.495787,36.110153,37.253705,39.824239,42.039856,42.840527,42.610283,42.575618,43.885177,44.792991,43.990364,42.447806,41.614313,43.147124,45.321959,47.138178,47.574345,48.129426,49.831239,51.087289,51.35803,50.79164,51.029796,52.23502,54.139073,54.889907,54.861958,55.103725,57.072176,58.923841,58.645007,57.269701,56.7134,57.734578,59.221233,60.316556,61.217861,63.807094,68.46296,72.519786,75.112275,76.861029,80.255838,83.49492,86.115471,86.64575,87.635009,90.656976,95.36916,99.754835,102.49811,104.13156,106.18722,109.11442,111.34416,112.31848,112.34081,113.94373,116.84746,119.42136,120.36685,120.19183,120.15221,120.76524,121.14154,120.42457,117.96978,114.88584,112.70248,110.6288,107.61924,104.29406,101.99513,101.20054,100.2236,97.856572,94.174279,90.485652,88.993963,88.265029,86.672069,83.330808,79.842647,77.72972,76.460243,73.714511,70.193439,67.42132,66.44149,66.234136,64.492778,61.608165,59.420343,58.617672,58.800279,56.543445,53.820097,51.908034,52.563294,53.273209,53.178473,52.03855,51.664161,52.837241,54.412908,54.154339,54.096138,54.266351,55.665644,58.026671,59.490605,60.101684,60.9147,63.990032,67.580694,70.0751,71.476244,73.035506,76.982015,81.78,85.556463,87.610194,89.159992,92.200821,96.297506,99.958657,101.73885,103.69906,106.93205,110.72842,114.23596,116.23649,118.41492,121.71271,125.61619,128.12873,129.14728,130.09624,132.6573,134.55676,134.19781,133.69721,134.7209,137.65816,141.39018,144.38991,145.85666,147.22443,149.84549,152.48465,154.07437,154.2238,154.9095,155.97632,157.809,158.50065,158.14236,157.91309,158.84383,160.80422,161.37234,160.24408,158.74986,159.30154,160.96195,161.90501,161.54641,160.95663,161.31506,162.72966,163.12586,161.2248,159.1208,158.57919,159.45047,159.3704,157.50785,155.45091,155.11497,155.56839,154.70057,152.32428,150.52144,150.77565,152.13929,152.2347,149.70051,147.34408,146.55793,146.4901,144.74171,140.62973,136.32693,134.12382,133.57215,131.71552,128.58172,124.70835,121.37369,119.5479,117.55631,114.06996,110.32643,108.59604,108.06546,105.85482,102.55841,99.455362,97.512055,97.627962,97.75595,95.864439,93.708685,92.359024,91.921927,92.120268,92.233809,91.415434,91.629926,93.645147,94.983681,95.189781,95.068829,97.396291,100.49614,102.86694,104.27342,105.55512,108.5239,112.02909,114.58489,115.7088,116.79149,119.55149,124.54864,128.85447,130.62946,131.57496,134.4581,138.7457,143.02439,145.37832,146.54116,148.35076,151.59848,155.13138,156.84847,157.71653,159.05929,160.97541,162.81158,164.62544,166.01029,167.50167,170.08586,172.71916,173.27683,172.68434,172.55077,173.24185,174.08833,173.09794,172.18637,171.52723,173.11143,174.43968,173.11643,170.85709,169.35826,169.97363,170.15025,168.87386,166.32917,164.38641,163.16874,162.6573,161.74801,159.49922,157.62758,156.19528,154.48526,152.52312,150.41135,149.27722,149.42129,149.38964,148.5997,147.06792,146.39626,147.47695,148.91396,149.46524,149.32764,149.02347,150.02344,151.19198,151.05211,150.14901,149.39823,150.63442,152.04963,152.35175,151.76053,151.57432,152.62543,153.25644,154.09311,153.30985,152.66475,154.25029,155.91757,155.73099,153.88908,152.35114,152.98404,154.40017,153.7747,151.81429,150.65814,151.59104,152.1687,150.91726,148.47619,147.11035,147.28716,148.54254,148.39602,146.42548,144.5405,144.20932,144.41865,143.96922,142.08455,140.74378,140.32862,140.31436,139.83006,138.12221,136.70007,136.2325,136.49056,135.94238,134.28922,132.65729,132.52785,132.73786,132.26398,130.56361,129.43169,129.32176,129.99032,130.15817,128.78166,127.05017,127.65384,129.22282,129.49681,128.97623,127.92444,128.37095,130.19283,130.7428,130.58802,129.89088,130.37542,131.82133,132.69854,132.33028,131.74615,132.51769,134.92265,135.93609,136.17923,135.1886,134.71708,134.4964,133.50552,131.66188,130.86121,132.3189,134.70843,136.29329,136.9233,137.22819,138.9546,141.82758,143.08628,142.08139,140.15452,139.56929,140.94927,142.225,140.70468,139.26042,140.0671,142.12593,143.27195,142.42856,141.22528,140.87175,141.53201,141.45202,139.62053,136.48602,134.14273,132.451,129.77293,125.7273,120.93856,117.1791,114.16743,109.85531,103.58146,96.553023,91.220204,87.12658,82.635974,75.464168,67.445085,60.773594,54.957748,48.76443,41.083926,33.287013,26.880419,20.829554,13.834564,5.8485458,-2.1533596,-9.3714014,-15.339561,-21.371784,-28.827647,-36.153093,-42.630858,-47.118077,-51.560076,-57.917617,-64.815884,-70.027308,-72.874979,-75.974529,-80.105427,-84.211572,-87.23554,-88.838945,-90.282239,-92.537155,-95.261681,-97.094173,-97.377705,-97.488483,-98.579388,-100.26784,-100.85458,-99.304925,-97.188046,-97.057065,-97.159942,-95.399088,-92.135587,-88.391007,-86.602514,-85.108021,-81.667177,-77.559764,-72.816153,-69.529686,-67.933024,-64.987661,-59.948158,-55.186006,-51.47104,-49.864021,-47.295539,-42.323071,-37.187432,-34.658722,-34.288683,-33.10978,-30.129982,-27.377018,-26.470724,-28.103426,-28.921397,-26.965816,-24.266639,-22.274414,-20.862602,-19.22863,-17.518658,-15.192106,-14.077118,-14.767007,-15.264897,-14.56731,-13.875329,-15.140962,-17.520242,-18.938103,-16.880044,-13.974532,-12.545546,-10.845542,-8.5220197,-5.2791786,-2.1208283,0.097917415,1.5478579,3.5344974,6.9859776,10.624065,12.788792,13.240175,14.54072,17.190405,20.133637,21.501787,21.953395,23.467344,26.258388,29.662841,31.676819,32.683394,34.46382,37.892697,41.700435,44.401007,45.153862,46.11658,49.201995,53.255303,54.600266,54.14075,54.559921,56.728325,58.776321,58.336962,56.728889,55.391392,55.873471,56.881602,56.38312,54.203416,52.644654,52.175408,52.395056,51.317132,48.811902,46.430844,45.926212,46.088357,45.375624,42.342195,38.625721,36.940597,36.637413,36.069695,33.494438,29.976658,27.559601,26.020858,23.707264,19.760522,15.927676,14.047555,12.742739,9.6483691,5.9095805,2.4862092,0.031480502,-1.3125984,-2.978663,-6.2178479,-9.4910758,-11.798527,-12.308644,-14.31515,-17.906683,-20.914155,-21.175372,-21.228951,-22.152126,-24.589684,-26.590457,-26.363305,-25.629596,-25.932473,-27.13643,-28.017992,-32.030952,-31.752884,-29.731048,-23.936488,-21.146833,-19.099214,-16.318621,-13.911726,-13.033058,-12.461203,-10.136061,-5.7920498,-3.0010383,-2.8603623,-3.4177768,-2.0493857,0.87445479,-3.4446843,-4.1131187,-2.2711118,8.3015156,13.562775,15.233044,15.637214,16.146983,18.518755,21.741801,23.929824,24.085717,23.35507,23.635051,25.537504,19.818023,16.745767,16.589925,24.070153,27.450121,27.320155,26.44696,25.728667,25.995239,27.757689,28.504416,27.995606,27.193687,27.349644,28.500119,28.933442,27.664361,25.649251,19.769517,18.612072,20.54899,23.945237,23.404783,21.276262,20.481311,20.011028,19.180055,17.075906,16.312112,16.693395,16.122424,13.868343,11.566061,9.9684837,3.7102598,1.9889797,1.595932,7.1452614,8.2363151,8.3141977,8.7320517,8.4485678,7.6132879,8.848274,11.404141,13.325209,12.739737,10.66383,10.396608,5.9872625,6.1973143,7.1520847,7.2386818,13.952652,17.271285,18.240429,18.865871,19.263872,20.186976,22.955672,25.913397,26.09377,25.385343,25.212106,27.143617,28.972585,28.78747,27.552127,21.30402,19.973036,22.038783,27.252862,26.960496,25.121594,25.203032,26.490953,26.018653,23.763344,22.280764,28.51739,33.354137,34.823462,28.624763,19.589517,18.996971,22.110872,27.801106,26.579969,24.125729,23.556521,23.922241,22.793077,20.211977,18.054366,17.219936,15.603432,20.394866,21.960722,16.270261,9.3252169,9.4950067,14.958342,14.561464,11.635584,10.118016,9.7302803,7.8078641,4.8505276,2.3925515,1.288414,-0.19497288,5.7037067,8.0952228,8.4708118,-3.1755842,-6.30522,-5.1684872,-5.7159761,-0.31222206,1.0323829,1.0972336,0.041764333,-1.8870832,-3.2021208,-3.0307672,-1.8237616,-2.1472211,-4.4332031,-6.2531205,0.13480855,5.6754183,5.9670862,1.1119919,-7.1200983,-7.2789907,-4.5381476,2.2497519,1.459811,-0.84671256,-1.9026742,-1.3388082,-1.5317503,-3.6771904,-6.5412096,-8.4942366,-1.2185429,2.8142857,2.8318751,-4.9739156,-7.4665046,-13.229898,-14.951359,-16.523368,-11.624636,-11.877639,-14.412206,-17.313999,-20.147539,-23.251357,-25.10575,-18.911089,-15.836752,-15.96298,-15.1801,-19.491187,-19.881503,-19.265559,-26.977055,-30.064704,-28.723321,-20.858126,-19.73503,-22.416769,-24.864788,-24.619813,-23.843179,-24.688208,-26.772251,-29.049587,-22.579079,-23.243501,-21.760255,-25.03313,-19.044391,-15.414749,-13.926595,-13.475626,-13.839737,-14.273416,-13.615676,-12.143433,-11.329637,-12.362464,-14.153042,-6.8901762,-0.70898373,2.347706,-2.483203,-10.99327,-10.600459,-6.5992673,-0.82891178,1.7556248,0.46402527,0.030570128,1.1095358,2.5016606,2.4128797,0.56611537,7.3920058,13.416143,15.864659,11.130449,9.0267042,10.040084,12.138162,12.695161,11.694399,3.5355701,1.1892818,2.7055088,9.5963876,8.5933816,4.4997117,2.4386661,9.4965234,14.025575,15.313778,16.332503,11.178316,10.652356,12.297908,6.1022436,4.2014887,5.4252807,13.417749,15.388785,13.499455,11.010224,11.020162,12.832646,13.380037,11.830037,9.7341849,15.93579,21.574746,25.386314,20.173313,18.236046,16.286175,14.375373,15.15725,20.381852,21.076436,19.095878,19.246838,19.946052,19.188387,16.97455,15.52774,15.461973,23.926371,27.79655,28.340524,21.772155,14.730842,15.996215,18.231685,24.417417,24.500717,23.100986,23.83979,23.589086,21.644973,19.800568,19.208712,18.753528,17.033972,22.102243,25.175093,28.589183,24.928918,16.234719,14.721674,16.051904,17.590123,24.762165,25.200062,22.22443,20.970463,22.330151,31.591898,36.140967,37.58184,32.295939,32.497692,35.838481,36.561542,35.410703,34.326335,34.789597,35.555197,27.906738,24.569133,24.504724,24.915232,31.20175,30.923943,27.112185,33.185715,38.912843,43.114217,41.761963,37.936364,37.368317,39.47372,41.154107,40.548233,38.155019,36.519798,36.636979,36.958028,29.454561,25.653539,24.873678,24.975191,30.583029,30.286088,26.537689,31.026026,35.830566,40.074515,35.505485,32.441513,31.963356,32.424319,32.947289,32.497022,30.092479,27.397487,26.591537,20.986272,17.363962,23.393018,27.134936,36.235084,34.179507,32.491054,32.051653,33.159426,34.247018,35.82991,35.769332,34.724302,33.659573,33.599128,33.777656,33.544931,31.991371,29.815014,25.5824,31.832226,37.268441,39.826243,37.420794,37.720792,40.5788,41.736487,40.849376,39.628366,39.662223,40.800106,40.494697,38.110307,35.753672,34.867385,42.958871,47.310893,48.15777,33.922881,31.957848,35.730881,43.225448,41.955539,38.36387,37.715002,39.355152,40.083715,38.307544,36.364222,35.356515,34.488966,33.030272,38.411253,33.545907,34.189287,39.279252,42.104402,41.511492,40.202518,40.485665,41.665941,42.03224,41.269494,39.784339,38.592617,38.716948,38.312298,36.958503,26.917661,23.407592,24.00964,26.028885,36.106292,38.087185,38.787473,43.026038,40.728082,39.736701,40.123674,40.581983,41.786302,42.252289,40.607226,38.42451,37.536406,37.787034,37.098733,35.183657,25.512087,22.464259,22.930676,24.52861,33.756852,35.123613,35.088779,38.879344,36.044462,34.592623,33.613485,33.832168,35.24724,35.079861,33.039639,30.424383,28.942296,29.005486,28.397293,18.586473,13.703159,12.410071,11.763309,24.220263,28.020293,27.139245,28.054805,24.577809,25.26102,25.98064,24.628236,22.721324,22.771555,22.753422,21.801931,19.182709,16.59349,9.4881609,8.4464892,8.1077222,12.630898,10.719042,16.804694,21.304861,23.519228,17.186962,15.63283,18.038683,19.420243,19.481448,17.245293,16.257566,16.939692,9.6741961,7.8749353,7.0646634,5.9525209,12.342224,13.073176,10.296154,7.2102638,14.270792,19.341047,22.943406,17.440373,14.520406,15.375754,16.860117,16.808174,14.532807,12.087033,8.8337289,2.4537539,1.5913765,0.16374559,4.7928558,10.227991,11.986477,13.797263,8.8426552,6.3191343,5.7817429,6.4025272,6.2203348,4.6631066,1.1672428,-1.8868779,-2.8627609,-3.3671049,-6.3518731,-18.004007,-13.667314,-8.7319245,-5.0474664,-0.53902922,-4.8244835,-6.8452585,-5.2613042,-3.5690917,-3.5986451,-5.517651,-7.6847253,-7.2448533,-6.8990805,-8.5556491,-11.047161,-13.463596,-14.519527,-15.094377,-24.574047,-28.475872,-22.056137,-17.886036,-9.5462846,-9.6999607,-15.019345,-15.688339,-13.526181,-11.844382,-11.95808,-13.994638,-15.467706,-15.470756,-15.651744,-17.193928,-20.014972,-22.765252,-24.681829,-26.142108,-28.779577,-30.990853,-30.545094,-27.742965,-17.663402,-22.513741,-27.035601,-28.408106,-27.582224,-26.144869,-27.024249,-30.058777,-32.393358,-32.400948,-32.021839,-33.581551,-44.516973,-48.404293,-48.519403,-40.540429,-32.842191,-28.541609,-35.799675,-35.995646,-31.879559,-29.192233,-29.472144,-31.024471,-30.571065,-29.372619,-29.005445,-31.437465,-34.080953,-35.263811,-35.714272,-27.901611,-26.203466,-32.816088,-30.417509,-31.978444,-24.551147,-23.191239,-24.53687,-24.118823,-22.350395,-21.443644,-23.079937,-23.68274,-23.242262,-22.183341,-22.175504,-24.212337,-27.586498,-28.203125,-20.973838,-18.221648,-17.184997,-26.325358,-34.275714,-32.542071,-29.240151,-25.807417,-29.285975,-31.584634,-31.93492,-31.992726,-33.830287,-36.650496,-38.503635,-38.783556,-40.215972,-43.377936,-38.810822,-37.12801,-41.170294,-39.430355,-43.019751,-36.715814,-35.845977,-35.621677,-34.253755,-34.603394,-35.13045,-35.227357,-35.380891,-36.330448,-45.099167,-46.927179,-45.50502,-43.904623,-36.902687,-26.924682,-23.943989,-19.987981,-12.786761,-12.56127,-9.7161989,-6.4946124,-2.7208281,1.4214947,4.5363682,6.7497167,8.0252134,9.9526789,12.464536,14.45707,8.0816588,7.6465993,8.7889915,17.103784,17.540237,15.080862,21.512217,24.795425,27.582731,22.502425,21.183636,20.014759,19.01889,18.433203,16.646605,12.874483,1.2275389,-2.7788712,-4.6527803,-7.6776922,-7.1387528,-4.0216061,-5.5387707,-4.8544012,-1.6568255,-5.1707,-11.57481,-14.472742,-15.869546,-17.918358,-22.282315,-28.470901,-33.651485,-37.478104,-41.321239,-46.300486,-52.279839,-58.061337,-69.244525,-74.827816,-78.224005,-83.568788,-73.169351,-72.334061,-73.269805,-80.446009,-83.078944,-83.663401,-84.12445,-84.520711,-85.045577,-86.102331,-87.705533,-88.657738,-89.099727,-90.3193,-99.023002,-100.26316,-99.110806,-98.230154,-92.234067,-93.881345,-95.222035,-85.964492,-79.354816,-77.255559,-81.309289,-80.643905,-77.131166,-74.288314,-73.517042,-73.608031,-73.230399,-71.337463,-69.542033,-76.807515,-78.040007,-77.482974,-76.480078,-60.504853,-55.901562,-54.56777,-61.139959,-59.731254,-56.399355,-56.336608,-58.617397,-62.331134,-63.955052,-64.072461,-64.985777,-58.330809,-56.852366,-55.57045,-51.756631,-63.802043,-65.603802,-64.324125,-63.616424,-57.160284,-57.337207,-60.371067,-61.817951,-62.240535,-62.32779,-62.81523,-65.56299,-69.190864,-71.908607,-73.542008,-76.508468,-72.637868,-73.42715,-81.129693,-88.255316,-87.794321,-82.218171,-85.468908,-89.039028,-89.666617,-89.953105,-93.160478,-96.456802,-98.852127,-100.45494,-103.05939,-106.36707,-101.49062,-100.92511,-99.517015,-96.869457,-101.86487,-102.88055,-101.46833,-107.46311,-108.08755,-107.69751,-101.79038,-103.10767,-104.47964,-104.70584,-105.59463,-107.33313,-108.34032,-108.68099,-109.31179,-111.76284,-115.73318,-118.65995,-112.60927,-117.80956,-118.80338,-117.11831,-123.58392,-122.3581,-111.81569,-109.82298,-110.65631,-108.85075,-104.86919,-101.3413,-100.84324,-100.25151,-98.949625,-97.033578,-95.130533,-94.857046,-87.167154,-83.502777,-78.960155,-73.727747,-76.61133,-75.818395,-80.736902,-78.125252,-74.024381,-66.811426,-68.171668,-69.38463,-67.673214,-65.454513,-64.902214,-66.849508,-68.379083,-68.432271,-68.987499,-61.742747,-61.117518,-60.542828,-57.054424,-69.890383,-70.196324,-69.689173,-70.944449,-63.426239,-63.183627,-64.696858,-66.061738,-66.068824,-65.581639,-65.946057,-67.734548,-69.903791,-72.778442,-74.355173,-75.900508,-68.872534,-68.58261,-68.821105,-72.545836,-78.341032,-77.73542,-70.229155,-72.213804,-74.46992,-73.789852,-74.371547,-77.327442,-79.488675,-80.547684,-81.325596,-83.307216,-85.364025,-88.064599,-79.616062,-75.281056,-74.118094,-87.401,-88.26839,-84.515581,-82.459172,-76.850499,-77.819509,-78.531328,-76.438583,-73.15563,-70.465023,-70.245434,-70.003707,-67.247838,-63.609449,-62.268585,-62.302335,-69.339035,-67.410111,-55.289792,-43.787811,-42.368269,-49.465183,-47.228523,-42.903398,-41.491945,-43.586856,-45.728236,-46.493802,-48.073875,-58.469437,-64.489332,-68.283419,-72.352848,-68.053555,-61.1304,-61.745533,-62.070986,-57.753267,-51.774166,-56.600897,-58.363879,-58.761454,-58.769117,-59.388553,-60.334984,-62.395607,-65.232978,-66.838811,-66.757112,-68.435453,-80.116106,-82.922891,-83.247443,-84.430848,-80.513046,-84.665228,-89.65858,-82.186325,-79.278877,-79.974619,-88.902603,-92.21109,-91.348748,-91.625993,-93.490392,-97.057256,-100.46845,-102.10196,-111.84424,-114.55963,-117.39958,-121.64595,-118.00188,-121.17092,-114.57136,-113.63564,-114.47488,-112.00178,-117.81291,-117.60964,-117.63225,-118.78518,-118.91595,-124.96194,-124.95622,-123.76546,-117.06997,-117.35387,-117.47596,-116.47151,-116.97865,-118.45954,-119.12763,-111.19269,-106.17513,-104.50066,-112.19584,-111.5393,-108.55458,-108.36547,-110.93126,-120.05742,-119.92009,-118.42063,-117.18284,-113.26651,-116.32679,-118.41332,-118.05287,-119.04694,-121.80804,-117.40214,-115.49425,-113.29674,-111.29321,-116.08909,-124.73422,-124.83997,-122.76382,-120.95663,-118.71202,-122.18028,-124.13732,-123.58916,-124.33719,-127.04206,-131.27105,-125.39816,-123.49601,-123.19428,-132.51743,-136.02951,-138.53067,-147.2099,-148.82091,-145.22112,-149.55424,-155.17922,-159.02272,-162.1615,-157.86977,-158.94371,-160.68629,-159.39064,-166.32215,-170.07856,-172.81714,-176.04605,-178.82157,-182.29629,-186.44323,-192.03844,-196.26781,-204.73468,-208.82913,-211.87161,-216.32446,-213.21683,-216.55745,-220.52635,-224.55629,-219.37244,-219.38408,-219.98738,-217.70412,-224.15316,-225.65862,-232.68768,-231.22679,-228.81421,-222.27275,-223.20949,-222.32137,-219.80332,-216.83374,-213.66211,-213.17899,-212.94439,-211.5196,-199.24402,-194.66324,-193.75587,-189.92143,-194.00592,-190.39553,-188.27839,-189.78954,-190.76383,-188.86803,-186.60671,-186.53118,-187.93177,-195.62866,-196.29706,-186.18041,-175.47688,-175.9383,-183.76354,-182.5271,-179.03297,-180.29493,-182.12917,-182.46552,-182.46827,-181.94499,-182.11346,-183.25457,-184.88795,-186.51031,-188.87322,-190.10542,-194.28885,-189.9512,-188.71338,-188.93788,-189.96478,-198.6651,-204.08338,-209.51657,-217.34409,-225.73453,-235.29991,-244.96927,-253.36221,-262.99261,-272.77351,-283.81319,-285.70137,-291.96682,-297.32203,-304.91702,-316.80263,-323.26486,-329.20876,-334.94228,-339.81932,-343.62386,-345.60333,-346.108,-344.2031,-340.9963,-336.21181,-330.70047,-319.72012,-298.48927,-283.2276,-271.52376,-253.55149,-231.18082,-207.1184,-180.99068,-153.90475,-125.38224,-93.647919,-59.85045,-26.09587,11.300547,47.746647,84.312266,125.07478,164.27701,207.60714,246.36956,285.79214,335.64662,381.26016,422.2682,466.23681,500.36448,542.17883,582.1951,616.90007,651.11632,690.25788,724.31266,756.12529,788.10076,817.31878,855.32725,887.24246,916.76083,936.30751,953.41233,976.725,1000.348,1026.5636,1038.6962,1049.2686,1062.0422,1072.5612,1079.4729,1083.9647,1084.8737,1083.7053,1082.1812,1077.8724,1069.5282,1058.4172,1047.0459,1027.7223,1010.4641,993.06895,973.00398,960.57994,952.31262,933.71813,906.20861,886.04689,866.78517,847.98182,829.68223,811.5056,785.20182,767.99202,754.64183,741.13638,730.37676,718.45267,705.45344,696.02035,688.91953,679.67437,671.39017,665.73167,657.60429,646.97574,641.26134,634.47641,636.77624,632.60582,630.26936,628.53182,626.71715,624.39793,622.96629,622.77367,612.65818,608.58563,605.67295,602.7254,605.85736,599.41265,590.40376,582.63031,577.7614,571.84556,563.195,551.89908,532.80349,524.10601,514.87401,507.80032,495.80163,481.6832,468.89811,458.26555,447.74568,432.26203,417.4755,404.63508,392.99824,378.94136,363.89774,347.33842,327.59411,315.82819,304.62539,291.64636,278.6517,266.29235,253.32251,241.92207,223.7236,208.90728,195.84223,181.01192,166.81497,151.38453,133.16589,111.93792,98.086484,83.48884,77.026036,61.965586,41.893434,30.555056,20.192256,5.5313603,-9.4286817,-22.330076,-35.112538,-49.560493,-63.731899,-68.925724,-76.507821,-92.58358,-108.82304,-117.26179,-125.98978,-127.51337,-136.15689,-146.20408,-157.0368,-166.45385,-174.37727,-181.9813,-200.58423,-210.4669,-220.67831,-223.28859,-227.24739,-233.92743,-241.60146,-247.83458,-252.47288,-265.00481,-272.90582,-281.27427,-290.24682,-301.57796,-314.26602,-322.598,-331.91504,-325.20372,-332.06872,-337.51975,-340.78578,-348.64243,-357.80466,-362.40653,-367.32691,-373.54306,-381.06301,-389.04062,-396.69938,-406.613,-403.2309,-406.85448,-402.13632,-414.36966,-416.99876,-418.3438,-421.58348,-426.35419,-429.53753,-431.81046,-435.1811,-429.30198,-430.63427,-431.50499,-428.26708,-442.53854,-441.89138,-440.86761,-434.10925,-435.56439,-436.22806,-435.72586,-435.51543,-425.52637,-421.27122,-416.41673,-418.00923,-418.07753,-413.97466,-417.69123,-413.47914,-410.1565,-401.20544,-400.15762,-397.61388,-394.05273,-391.29868,-390.76905,-386.47989,-375.34566,-368.65698,-363.93059,-363.03079,-361.7044,-363.21712,-356.94963,-352.86818,-351.40186,-340.12923,-336.37597,-332.88268,-329.81195,-327.46368,-323.97729,-311.50249,-304.64498,-299.03678,-302.56633,-298.48582,-291.20688,-286.63821,-293.03654,-290.43926,-286.75386,-283.29244,-272.61946,-271.24313,-270.41418,-267.89924,-264.42649,-252.48671,-246.6303,-243.26656,-237.26124,-238.52603,-233.27394,-228.6309,-226.89792,-226.18125,-229.367,-225.56716,-207.60899,-201.40243,-197.0075,-199.00192,-191.86758,-185.66859,-183.13327,-180.23284,-175.91343,-172.15479,-169.4593,-167.45983,-167.64981,-167.52147,-155.81713,-148.83964,-138.66583,-143.45972,-137.62832,-131.9612,-127.92295,-126.08164,-123.12321,-120.41727,-116.83754,-113.26669,-113.24913,-118.83194,-112.9525,-100.31235,-89.657922,-83.164655,-87.369201,-81.227214,-73.818841,-68.288642,-66.019469,-63.18912,-57.70667,-53.102703,-50.330895,-48.231184,-45.80419,-46.78122,-45.76552,-31.439266,-23.323389,-14.030177,-16.290082,-8.8093565,-0.89047942,3.2416502,6.7415883,11.094744,16.072645,21.215469,23.338901,25.702395,28.569451,41.789952,47.827606,52.255067,46.081975,44.524327,51.87237,59.461709,62.732999,61.55473,63.27968,66.623739,66.21994,65.140596,64.191251,64.001974,66.946774,69.362777,71.343992,74.628741,78.277716,80.010914,80.945507,81.740362,82.274685,82.975962,84.490845,85.084502,84.354259,82.694835,82.085203,82.807128,81.412361,88.172649,80.964164,84.060842,89.680119,91.021611,89.644146,89.836519,91.592657,92.544257,93.653091,91.943701,90.397844,90.641771,90.146299,89.181801,86.635722,83.909636,80.205658,83.862783,86.536068,87.922796,85.956299,86.027353,88.076586,87.682696,85.189662,84.408679,82.353654,80.560559,78.652681,74.965506,70.772393,68.786839,73.745499,73.683205,62.52971,56.405795,56.686385,62.00386,58.769079,54.958559,52.09328,50.325713,49.181319,47.107234,42.603501,38.729466,44.235562,41.44065,42.737611,41.390939,42.469298,41.757984,42.250061,42.774908,41.763182,40.491001,40.778881,41.317442,33.364395,35.651265,35.740474,35.121555,50.6227,56.884696,59.86408,62.650903,63.724077,70.031405,75.406071,77.855492,79.701643,82.056076,86.968009,82.833863,85.996437,88.718951,97.800001,98.182883,100.19921,100.86261,99.75807,101.80739,110.27295,112.63549,108.54052,103.99183,103.9407,102.97301,99.962138,97.232998,93.149473,79.660455,77.552004,84.259267,89.880874,85.168434,84.25132,75.75782,75.313947,73.760742,68.790688,63.948403,60.578589,57.576095,52.819143,45.739778,40.260581,36.898432,25.570231,19.077417,14.132163,17.302835,23.44078,20.752434,12.044909,11.544782,10.031123,8.2747799,7.0375636,4.1777246,1.4457734,-0.7116676,-2.5561341,-2.2906012,-3.6646162,-13.346847,-13.119228,-8.2107275,7.1219179,9.1463156,5.1181386,6.6687205,10.956347,13.646629,16.522158,17.586555,16.69935,18.61268,21.906185,22.451736,14.357412,16.339897,17.963618,27.552411,25.94107,34.521748,37.380482,40.365838,37.684112,40.692196,41.167777,40.692384,39.940984,40.214351,39.124645,37.731472,35.535451,29.217709,34.229177,37.299304,40.485471,32.31491,31.477387,33.194366,31.970543,28.835092,26.332421,23.879951,22.203484,29.826106,27.438812,27.312824,28.146706,15.501013,17.763393,21.658723,21.197857,18.119093,18.146355,17.544503,15.488406,13.531493,12.782998,11.109756,20.903634,19.835333,20.17968,13.50468,9.0740939,11.965773,11.832497,18.648242,16.422974,17.498387,18.177555,18.82183,17.298803,17.433176,17.348882,18.248369,16.356806,14.076783,23.706802,26.671839,29.318871,23.688691,24.575799,18.561114,21.905243,24.042963,29.99518,26.607972,26.032098,28.225192,28.247408,26.550055,26.121716,24.5808,23.517933,29.934505,32.846081,24.162263,29.206228,24.400676,29.111445,34.026142,31.05926,30.717004,31.765338,33.143577,32.581388,30.192096,28.862477,29.425445,29.121006,27.24184,34.18113,33.580185,29.540261,25.738051,26.747671,34.640868,30.695424,29.775123,31.544043,30.051296,27.602057,26.317053,25.94956,24.542932,22.496366,29.820102,28.748409,31.713339,25.06237,16.560913,18.371658,16.177671,15.52079,22.615288,18.754601,15.844092,14.869866,15.168939,14.843261,12.748217,9.2232823,6.0676257,13.547843,14.993445,15.097279,6.4630577,7.3196568,1.5632208,-0.64322599,-1.2009991,-1.6697305,-0.18370329,-2.1737765,-3.1301385,-4.091043,-6.7451026,-9.9822919,-9.9288282,-3.0318504,-3.2069821,-7.7208784,-12.404311,-11.440241,-20.610922,-19.433047,-21.063999,-15.415255,-20.121458,-20.688791,-21.469619,-23.250476,-26.003819,-27.334371,-19.303659,-18.270742,-18.135553,-26.503814,-24.373513,-23.1321,-23.867155,-27.403031,-36.122437,-35.830856,-35.917344,-37.499199,-35.30174,-33.450485,-33.631534,-33.823423,-33.475932,-34.720381,-34.95461,-25.210651,-22.634131,-19.838413,-25.662718,-23.435923,-20.79208,-20.398061,-28.790163,-26.967786,-27.607104,-19.539331,-22.495385,-24.076669,-26.144019,-16.902289,-16.149733,-13.183459,-12.869579,-17.917447,-17.798894,-18.401603,-19.164982,-20.856563,-24.229831,-27.506248,-37.272323,-37.754857,-39.571698,-37.851539,-42.963468,-45.627632,-37.786415,-39.397258,-38.916725,-49.867195,-49.420847,-48.558593,-51.458506,-55.61977,-59.090465,-61.688597,-63.499519,-65.997416,-78.703785,-80.1112,-82.727743,-79.067627,-83.806479,-77.376829,-78.937182,-77.458837,-73.119694,-79.183648,-77.713051,-78.006645,-78.169903,-78.254313,-78.069521,-78.682693,-88.797667,-85.604747,-84.046863,-76.779322,-79.683065,-81.062906,-80.545961,-70.642024,-65.057024,-62.752672,-61.07201,-62.008718,-57.361846,-60.617687,-58.403304,-56.097824,-46.190664,-44.5704,-41.964145,-38.420084,-37.318514,-34.243342,-31.465487,-17.452191,-14.620361,-9.9939486,-14.694666,-7.9091629,-12.353398,-8.535598,-7.241177,3.2250242,2.1711458,4.4544466,5.4737119,5.2021177,4.7840191,5.1915307,4.519451,2.1832359,-0.12218606,6.2016776,7.6373737,10.606754,12.305297,2.3045825,1.6600587,3.1781283,6.1625558,11.797654,9.6680268,9.5971825,11.08255,12.914024,12.34879,11.905468,11.922057,11.089977,11.795602,21.609322,22.601041,25.338596,19.572188,15.355224,20.054806,20.868022,28.951487,27.202431,28.189282,30.989762,31.331135,30.180972,31.304165,32.4867,31.966883,29.883054,28.866951,38.014099,41.033797,34.823076,31.882303,33.934749,44.876695,42.977775,43.114697,43.862972,45.179265,46.598938,47.705898,47.93704,48.01927,47.404814,47.999617,48.304096,48.224471,48.555065,51.835195,56.612338,60.623569,61.149468,62.341015,63.797072,65.285324,66.525313,67.259153,66.837851,66.635595,59.85122,62.925719,63.243096,68.854027,75.722758,77.590555,82.046579,77.509644,79.87342,80.419557,80.977782,82.009074,73.13354,76.748408,75.737564,84.056776,82.765548,91.592472,94.775518,97.969702,92.442694,96.347606,97.683706,95.535297,94.720457,94.183947,87.487304,85.8155,84.845088,89.28407,84.725165,82.353174,93.648308,92.416085,92.491615,84.285226,86.702272,85.001734,81.650868,77.935482,75.495033,72.489925,68.739302,54.20653,51.22219,47.269661,41.120175,44.234278,37.349347,41.196174,39.841923,39.996248,40.204214,32.023554,29.982876,26.215299,18.241664,17.287012,19.486407,15.872699,10.552912,7.909801,5.022369,2.768605,-2.5436596,-7.2008878,-9.4896713,-9.4552007,-9.3147321,-9.2252487,-9.8707518,-11.290999,-10.516537,-12.710648,-16.617563,-17.149232,-19.313011,-19.991764,-23.437005,-26.501112,-29.073367,-30.207125,-32.152824,-34.107369,-32.76421,-32.405096,-32.159122,-33.97536,-34.142165,-37.06348,-39.141391,-40.132102,-41.85861,-44.581927,-49.964457,-53.407503,-56.508769,-60.980419,-65.954289,-61.455636,-66.040455,-67.423428,-78.212818,-80.898418,-85.834652,-93.569934,-103.79776,-106.36109,-108.3057,-111.69561,-119.61136,-114.32548,-116.37308,-118.95432,-129.70395,-130.6772,-133.66716,-137.12661,-141.25244,-145.53184,-148.58374,-152.0815,-153.43037,-154.26787,-152.87579,-150.92039,-149.21231,-149.73578,-148.16589,-148.74101,-149.37986,-147.71501,-146.40472,-145.32513,-144.98384,-145.1771,-144.0635,-133.7801,-128.05962,-124.07738,-136.56805,-126.15229,-120.10568,-110.64297,-110.37628,-107.0089,-102.32249,-98.175142,-94.546872,-92.441387,-90.957998,-88.913863,-86.894207,-85.908059,-73.180942,-79.734242,-70.865145,-61.41094,-56.933775,-54.042673,-49.80614,-45.924821,-41.467463,-38.249677,-35.969996,-35.10248,-31.053293,-21.640866,-18.511372,-21.890399,-30.373399,-23.954121,-20.949013,-12.082549,-15.501222,-14.605176,-12.750905,-11.728027,-0.5417365,0.58268814,3.4264742,-2.62227,2.4841514,3.8534468,-5.9100802,-2.2958492,-2.5133822,-0.97523149,8.1639896,5.3408081,5.5497684,7.1053051,7.8523897,8.9172166,18.199948,19.265463,23.355856,17.439334,22.158237,23.129814,23.224674,22.794243,24.132569,24.482689,23.255111,13.92711,16.254102,16.100453,16.931679,20.809589,17.467089,16.365226,16.187763,15.92728,14.068415,11.852909,11.959764,19.023865,19.121705,15.612846,10.017732,12.233817,10.929435,8.6441609,6.619304,-5.0214335,-4.078302,-5.2686903,0.039261313,-4.5450265,-8.0433698,-9.6257872,-9.0994841,-12.4949,-3.3550231,-5.8639042,-4.279933,-11.752521,-8.3900035,-9.2935509,-11.859192,-13.289638,-19.705493,-20.04754,-20.745959,-14.31489,-18.780076,-18.452546,-16.803572,-18.351027,-20.085199,-10.088897,-9.2058821,-4.533421,-10.930976,-7.9950345,-6.6699336,-5.3335482,-4.1464793,-3.8576082,-3.4354169,-11.6109,-7.3663916,-4.6593111,0.64037299,1.8847376,12.741679,16.710519,22.886371,19.989769,24.779707,27.666381,30.471472,33.950556,35.753421,36.211413,37.582756,38.346974,41.487704,32.854738,35.494857,46.263724,56.859081,57.621274,54.044982,58.065193,60.026529,61.570624,63.016105,63.072891,62.447993,60.773248,60.480526,60.360294,59.641634,58.595057,60.915221,63.429687,76.740313,66.769571,68.982242,70.459355,70.72178,72.236947,70.485874,70.126969,67.710159,66.994966,66.565387,64.305745,61.601172,57.090661,48.91613,48.746716,48.271172,48.152699,53.351228,51.95664,53.971277,54.952719,48.48418,48.012026,48.163715,47.163456,45.555627,43.502432,40.612873,38.300615,28.839471,29.975902,26.893848,33.368204,26.549068,25.020928,24.761015,21.656574,29.475368,27.747536,30.616035,23.950505,25.054259,24.127351,23.003815,22.066452,22.375454,20.600368,19.106934,8.12053,12.205066,11.592497,15.10792,9.8286585,10.19947,18.68683,21.169996,22.061928,14.42533,18.597399,18.954361,17.770033,17.953154,7.383203,10.172977,9.9601829,16.584192,13.28815,10.955003,11.455409,10.054487,9.3383157,7.9956125,4.8929144,12.749833,13.157866,14.693981,11.650871,0.61410371,5.2210216,4.6495198,11.705199,7.3564609,6.6479229,6.7750013,6.3846647,4.9834088,2.7816175,0.18862629,-2.5962206,-4.2451437,-7.3561605,-8.7432664,-7.575971,-7.2609215,-8.3068606,-8.8701167,-10.2812,-12.22606,-15.351442,-16.033235,-17.194761,-20.484784,-23.68827,-27.558579,-29.996547,-31.384678,-36.518977,-29.536849,-41.631164,-36.248139,-45.57421,-40.256819,-42.393317,-46.567035,-47.306317,-49.31157,-51.695954,-56.041364,-60.182474,-63.249353,-65.564975,-68.968773,-73.883842,-75.737041,-69.524954,-69.820941,-71.54717,-78.55835,-78.681304,-80.801519,-89.139164,-91.351079,-94.016255,-88.890911,-95.875627,-98.017461,-99.288999,-103.83904,-108.00989,-110.04136,-102.83775,-104.31986,-103.87526,-113.78765,-111.27821,-110.45645,-112.29883,-114.44853,-116.10497,-114.80255,-115.15719,-115.2341,-117.45456,-118.61991,-120.07065,-120.54353,-123.08097,-126.74479,-130.29778,-129.54189,-127.72796,-126.62044,-125.38179,-125.05656,-123.97477,-121.29149,-118.80862,-116.86731,-116.37269,-114.08784,-109.66634,-106.90705,-106.02606,-93.205982,-93.357702,-87.742406,-86.604834,-80.137665,-65.546305,-64.299036,-55.5705,-46.971178,-41.366562,-35.402797,-26.529527,-17.744198,-11.419107,-4.9252611,12.070952,19.058356,23.500259,30.032432,49.572241,53.64646,60.750309,71.045139,80.942413,87.640145,94.094633,100.57198,108.87415,114.80464,132.43525,137.30188,138.44866,142.35614,153.23258,165.71318,168.36821,174.27457,180.63873,184.81261,188.51264,192.0229,195.95041,199.35813,199.68479,199.75977,198.39751,201.09048,204.80149,207.38466,211.0659,206.49226,208.06188,209.46857,209.18417,206.87223,205.38961,205.04768,203.87659,201.96531,200.91207,188.53092,188.62725,184.97315,179.51583,173.28341,167.83275,172.34245,164.4048,169.52441,169.46912,166.49902,156.91917,159.9735,159.18962,156.05289,155.50703,145.48562,149.19687,149.80597,155.2441,152.24343,152.8808,155.53931,156.43137,155.59253,154.29931,153.99869,152.19387,151.11196,146.58617,141.72584,136.52407,132.67045,116.46161,114.45777,106.81212,108.66345,107.90111,103.16303,100.85374,87.952958,85.045177,80.201385,72.918115,64.574647,56.007489,48.596755,36.681299,25.902527,17.270085,13.825162,3.8278542,-0.36806168,-2.2615362,-8.5342205,-12.81805,-28.68045,-30.858715,-36.757145,-44.819778,-52.622309,-59.98823,-66.788045,-73.56116,-88.746418,-92.906409,-99.663259,-97.236862,-94.664857,-99.677242,-110.20299,-111.624,-112.85345,-116.25346,-119.34202,-123.66446,-127.59619,-130.93725,-138.91808,-137.27024,-141.70927,-134.623,-129.03241,-126.56938,-121.77737,-126.96996,-122.97205,-119.46612,-117.06187,-114.5267,-111.6753,-111.76714,-110.07415,-107.64135,-105.42197,-103.58055,-101.97204,-90.099665,-86.680309,-90.660107,-90.555047,-85.032345,-74.254921,-76.719587,-74.025503,-72.096817,-73.052378,-73.590796,-73.263771,-74.765392,-79.911994,-72.255331,-76.483919,-75.159313,-82.603095,-77.018679,-74.676759,-75.358801,-75.096705,-74.363141,-74.175149,-74.459229,-74.315907,-74.137769,-73.752571,-74.831631,-77.912707,-66.935121,-74.84488,-68.057927,-70.02277,-64.590944,-65.560086,-63.342369,-61.591867,-61.330921,-61.443805,-60.158994,-58.883306,-58.798997,-59.614908,-60.939967,-61.11196,-70.427249,-54.802894,-55.663734,-43.66738,-56.256876,-48.952806,-46.478167,-46.013483,-45.683781,-45.374439,-44.654843,-43.219022,-43.75896,-45.182234,-48.000299,-47.443366,-38.597417,-31.362906,-35.18799,-34.272233,-30.031394,-27.665958,-27.62051,-28.312909,-27.386607,-25.874015,-25.624148,-26.553265,-28.10515,-28.533537,-29.42412,-30.489104,-29.879178,-27.756019,-26.476553,-23.117578,-24.156708,-23.870326,-24.333278,-25.013865,-25.130479,-25.603806,-27.645914,-29.985418,-31.320673,-35.767977,-28.461892,-27.499665,-17.000731,-28.644785,-21.452555,-20.010571,-19.70328,-19.54027,-18.976462,-18.097736,-17.050788,-17.145892,-17.284502,-17.357818,-15.816883,-24.749866,-19.789254,-22.028509,-23.327226,-14.07708,-18.822872,-6.3024372,-6.4681001,-3.1600706,-8.6992928,-3.3540098,-2.5975718,-3.6269596,-3.7395449,-3.5661379,-2.8132208,-3.448633,-4.7722718,-8.0490648,-15.174221,-12.982125,-0.75981683,2.2145449,1.6340181,-3.3757342,2.4590877,3.2616114,1.235476,1.2664361,1.2766894,2.1945724,1.5087638,0.41243867,-0.38520122,-9.9195206,3.7247154,3.5079901,9.9538431,3.2182861,8.4039583,10.454909,10.86301,10.2201,11.065561,10.751751,11.34001,10.636906,9.8054411,8.4093911,3.610779,11.566402,13.510691,15.302641,15.943658,17.298407,20.449863,22.336563,21.73997,21.87362,22.766744,23.431491,23.72406,24.330964,23.830694,26.733146,35.618061,36.130005,33.297352,24.369707,30.559729,30.864821,39.285051,35.680236,37.426172,39.549573,40.842191,40.702986,40.951939,40.586048,39.725484,40.698904,40.436572,50.215729,39.640432,47.857914,39.990632,53.192035,50.535886,49.842414,51.078268,51.679376,53.035491,51.814831,50.622962,49.894588,58.132415,61.772515,62.93889,47.832505,55.244256,54.568538,63.915009,60.174376,60.824747,60.970566,62.423497,63.082729,64.199787,62.225434,61.609215,61.234525,73.358643,71.250765,65.33875,74.211639,67.500671,81.759017,78.183726,79.87812,81.833047,83.613277,85.647605,85.522601,85.52285,85.646848,86.744486,86.967638,77.055321,80.442189,80.470915,97.824393,94.704852,97.336189,93.707642,97.848179,97.647765,98.549236,98.294789,98.129137,97.478895,97.482836,98.05451,97.099635,94.582315,92.933498,94.434701,98.383132,102.76661,100.33926,102.34606,103.67735,103.78878,102.77896,102.15524,100.24089,92.848243,94.949178,92.894806,89.785046,99.812319,99.733533,106.81212,110.68851,114.28924,109.09779,116.96859,111.01312,116.99325,117.89855,119.69835,131.83451,131.28918,134.3435,136.56532,137.27634,138.88828,139.09712,139.86914,138.66132,147.39888,146.34695,150.79907,134.3216,141.23528,137.76727,135.02995,142.51818,135.78142,133.54872,130.21553,127.25134,122.23968,116.90686,109.98461,115.22183,106.96711,105.02758,91.780311,86.866654,78.50233,62.35289,58.61321,51.243321,45.831357,33.438022,24.648687,15.396413,5.119367,-5.5827299,-7.9082375,-19.221049,-24.973584,-42.973461,-49.579992,-70.327549,-76.586921,-87.440581,-89.753659,-105.488,-115.24427,-124.14012,-133.82406,-142.50318,-153.77125,-152.19558,-161.0752,-165.00029,-178.8831,-181.64388,-190.11854,-206.12127,-206.92016,-212.19966,-210.5041,-219.15341,-222.52386,-224.61184,-226.58317,-217.77942,-220.4601,-217.34049,-224.28712,-219.5041,-221.0394,-222.19749,-224.36256,-223.23339,-224.69774,-224.57287,-229.05429,-229.16156,-229.5172,-231.56962,-233.42479,-236.50539,-238.45484,-230.76352,-230.78608,-231.95219,-239.7678,-239.37768,-240.70259,-242.943,-244.8615,-247.66529,-250.19858,-242.25209,-252.11671,-243.0531,-240.07054,-237.8627,-236.48078,-231.40092,-228.65617,-225.2376,-222.35625,-217.74862,-202.6726,-198.91847,-190.30924,-181.48835,-189.80688,-176.38695,-169.44671,-155.74702,-153.78709,-143.96207,-134.55498,-126.93487,-120.51374,-112.59033,-104.40329,-96.639354,-77.768817,-71.480664,-68.998976,-51.378694,-49.720575,-27.944448,-24.538447,-14.288804,-4.8691829,5.6543845,13.705955,21.378835,27.20516,34.918437,43.076155,38.488792,49.366883,53.782296,78.172918,78.304113,85.084534,85.751293,93.234182,97.450125,100.0564,101.98432,101.63334,101.64541,101.77969,101.03982,89.957839,91.219865,97.580827,103.09423,98.951602,91.476167,92.934535,87.464911,84.303871,80.987572,77.1286,71.768757,66.332808,61.075579,56.326954,50.51814,44.337247,37.697256,35.485225,34.900128,35.615434,31.406288,28.372408,29.071015,28.649799,26.662106,24.708493,22.327291,20.207167,19.2439,17.506483,13.958486,10.64967,1.7709689,3.6672534,2.2706135,6.5846547,2.7419427,1.9355946,2.3645247,3.2792507,1.0649498,0.72759354,-0.80582275,1.2584965,-0.52127458,-2.5672114,-2.4949571,-13.105729,-8.6358127,-9.090013,-3.7443627,-8.9237044,-7.586977,-7.3734351,5.8849903,3.5225367,8.1278936,0.086345716,7.7335647,8.0898858,7.405397,7.0333658,7.67289,8.2401329,-1.1610235,3.1138759,0.74858546,1.0218902,20.004999,18.547172,23.060438,16.711204,22.833124,23.73571,25.372606,25.072847,23.548339,23.315315,24.53071,22.715995,21.924918,19.399555,27.29479,20.921627,25.781189,24.055129,26.097217,23.768005,24.519841,23.74782,22.805605,20.917678,19.351083,18.444184,17.10345,28.209657,24.249617,17.228331,15.469564,18.082063,25.626628,19.517214,20.047101,20.281536,20.375074,19.428974,17.45177,16.020572,14.229899,14.173651,24.013441,11.322661,19.856218,10.606031,25.912137,19.900804,20.810189,22.561054,23.296668,25.309916,23.483778,23.90251,22.838609,23.222478,23.659404,23.065085,20.846523,19.514243,21.1916,25.025128,24.966453,28.519956,27.62745,29.154472,30.382055,30.665861,30.916578,29.462665,30.002175,30.253692,28.225834,27.462643,26.061378,34.688572,33.989909,37.147844,20.34985,29.453695,27.563353,27.702869,35.640131,31.01551,30.948813,32.783722,32.561831,31.893631,30.135676,27.74966,39.43384,38.023138,40.423472,33.911155,37.264397,36.377045,31.110169,30.994092,29.827444,27.844623,36.418751,31.270893,32.145583,31.866607,29.929899,29.390783,28.1873,39.662196,36.494785,39.571009,43.642776,36.776151,41.72653,40.370619,39.260356,39.594596,33.323075,33.866639,33.252104,38.890524,38.027232,37.074673,40.041742,38.31312,36.714812,38.750412,45.835874,46.793567,42.266063,42.235525,43.330203,43.67758,43.497847,42.667568,31.22849,35.263347,34.164399,33.774866,39.063671,33.729148,46.06394,44.169536,49.704194,41.649813,45.749186,44.259786,44.271594,45.559016,43.835944,41.7114,32.259617,37.6868,35.653268,41.770737,46.770427,46.471512,52.828092,46.440657,51.476177,50.477626,50.363613,52.461252,52.607274,52.501616,51.8893,52.486235,42.91391,48.680502,45.209203,54.371482,47.461801,60.439784,60.72196,65.694834,58.854,62.966816,63.718999,64.548737,64.220909,61.564518,61.578618,61.35235,60.405488,59.313802,56.991409,45.584082,49.476756,46.681072,51.009085,58.08638,54.532964,59.642375,64.105982,55.598484,57.499786,56.215548,53.810703,48.185938,47.527749,46.676535,44.149589,43.304776,52.08691,46.790894,46.398823,47.167838,47.49391,55.00223,57.057797,60.17057,63.767968,50.749332,62.092679,60.824628,70.220239,66.913124,69.934371,72.756159,73.465515,73.044914,73.071954,72.265146,72.405487,71.137784,68.418417,64.600956,63.310565,68.418423,57.537872,61.388494,52.308664,59.126026,53.163622,49.046805,44.499528,39.310727,34.332319,30.57162,24.893448,16.090058,9.0720268,2.0262938,-5.5279954,-13.175055,-32.72764,-23.922075,-35.494265,-30.007873,-39.289211,-51.646106,-55.56778,-63.134871,-69.002841,-76.011283,-83.417458,-90.812271,-97.569429,-103.83761,-111.36554,-119.46082,-127.35821,-122.92645,-128.91663,-131.41106,-145.72371,-146.30462,-152.9747,-158.19387,-164.14861,-169.97217,-176.06742,-180.80803,-186.28629,-190.04535,-202.89059,-203.40636,-208.28189,-198.1503,-191.15137,-192.26954,-198.50865,-189.85629,-186.54416,-182.70495,-180.31096,-177.48463,-171.21501,-166.54414,-171.0935,-159.83046,-156.81432,-149.87815,-132.82439,-130.769,-122.33629,-116.11043,-97.60357,-91.270298,-77.934125,-76.286977,-67.919691,-60.897008,-54.838169,-48.629562,-44.860566,-40.345015,-40.685948,-37.386862,-24.732232,-16.756402,-9.1272771,-2.4448132,6.9873167,5.4619012,13.062668,16.734295,19.549445,22.093626,26.530587,28.568974,27.84236,25.105757,35.249091,37.416486,46.577866,40.548835,44.675244,47.067584,47.479628,47.900138,45.291958,44.264113,43.573644,42.043143,38.177487,33.548756,28.82961,17.387072,18.157478,28.616189,21.407789,20.355001,10.499884,11.336636,5.7821196,1.0949754,-4.0846452,-8.1459599,-12.522287,-19.263241,-24.023602,-30.048945,-41.636197,-45.239168,-50.703257,-35.677405,-47.893386,-43.155886,-50.538901,-47.928664,-50.738822,-51.042214,-49.570413,-47.944907,-47.741622,-48.380934,-47.2571,-48.818953,-48.769717,-44.787912,-35.769476,-37.549506,-33.575994,-31.611394,-28.96639,-28.891811,-28.458735,-27.412348,-24.957595,-25.561588,-26.375882,-29.185314,-35.24119,-31.747947,-33.819275,-15.593434,-24.539306,-15.469446,-10.896849,-18.087784,-13.156488,-13.854586,-13.29058,-12.507989,-13.069718,-14.87676,-16.633903,-17.454682,-17.764973,-7.7721101,-12.022747,-8.1431325,-13.73092,-16.41039,-12.059916,-4.9846579,-11.1791,-7.9246546,-5.3777255,-6.0662923,-6.5090266,-8.4273498,-7.9101146,-7.5653527,-9.0739906,-11.521965,-13.682764,-10.106741,-5.3936259,-5.5987758,-7.4678529,-20.090396,-14.065155,-16.085377,-9.4773931,-14.43771,-15.205978,-16.237042,-14.416278,-16.474815,-18.75386,-20.717302,-15.872626,-11.322402,-10.686046,-14.381415,-15.244001,-14.045981,-24.608139,-17.300985,-22.265648,-12.405207,-18.359012,-14.92384,-14.42767,-15.613279,-16.115137,-14.897368,-4.8985375,-5.0201563,-7.9409708,-8.5879945,-6.1824195,-5.3418036,-5.0773082,-4.2936892,-7.2945029,-14.24538,-8.7624828,-9.4121711,-3.8658862,-9.1727803,-7.8567337,2.3621854,4.600133,8.1147621,-0.15616192,5.9143352,7.0643686,6.0630711,6.4994972,5.7720588,5.9269776,6.7063808,6.1329304,5.9818996,4.8602869,2.2943204,1.1905905,10.807961,14.693413,9.0705187,12.044122,15.057793,16.492833,14.805019,16.101428,16.123265,18.654799,17.787467,17.751021,16.73706,9.4019247,24.689864,24.049454,34.820642,28.260862,36.341602,38.143084,42.867241,43.643677,46.57862,48.287952,51.227714,53.930759,45.411929,52.397125,51.701753,62.467037,59.401661,62.85004,62.649462,64.772022,77.685976,79.202913,83.322844,75.524901,83.744439,84.463593,86.665903,87.360074,77.072592,83.446252,82.617091,91.549231,85.445914,87.039617,85.544282,87.187473,86.167195,83.776149,80.726325,89.430255,87.474891,91.303314,81.775547,83.33801,79.73473,72.611934,73.112651,73.74146,72.151378,67.059175,66.807446,63.653596,59.949377,56.208038,50.112084,47.516267,57.647399,39.930859,47.276996,31.490215,45.530379,36.493414,35.283119,32.411359,28.924151,27.2167,25.271922,20.826303,16.727365,14.241243,11.228515,8.2971357,5.5203769,-8.949643,-5.3508911,-0.19830965,6.9086398,1.6404702,-3.0350315,-0.66424133,-1.4739373,-1.3398148,-1.7153449,-5.1975295,-6.876477,-6.9493978,-7.3798596,-7.5790584,-11.184839,-13.629567,-22.137487,-19.239022,-22.060883,-16.901355,-23.749301,-20.474604,-12.209292,-13.642501,-17.02285,-19.640132,-16.239676,-18.203813,-18.664324,-21.422829,-23.325123,-25.470506,-27.21497,-28.97296,-33.67237,-36.985955,-36.461475,-34.997182,-33.167385,-30.291758,-38.397078,-34.378625,-34.315652,-36.837467,-37.313428,-40.845427,-42.5385,-43.070879,-46.160224,-36.472083,-43.171122,-37.982828,-46.530572,-52.490292,-49.912353,-54.970876,-45.883039,-52.802648,-51.946464,-53.035425,-55.171556,-56.437111,-57.680468,-59.068385,-62.407765,-54.517776,-56.91051,-52.126037,-59.837688,-55.75059,-58.621399,-57.353753,-67.565385,-63.345143,-65.861063,-59.038186,-64.916622,-62.634316,-63.491202,-65.018985,-67.703352,-66.161879,-59.165713,-59.788828,-62.814555,-67.12537,-64.913806,-65.923073,-77.498254,-73.5563,-79.303754,-79.254886,-71.265522,-78.220748,-65.550914,-69.421717,-63.304284,-71.719151,-65.809738,-69.454899,-71.62228,-71.151506,-72.669159,-72.463398,-74.713696,-76.465739,-78.448508,-78.463762,-79.928116,-82.625994,-75.270424,-80.004364,-74.195396,-84.965307,-82.55953,-86.428496,-89.017782,-90.794292,-92.357948,-97.248623,-99.548055,-102.56133,-102.23787,-105.43742,-108.68352,-111.06121,-115.18956,-108.48563,-106.23593,-98.560853,-102.45332,-97.008728,-92.629843,-87.752378,-84.919702,-80.057507,-74.918506,-69.091648,-72.376827,-60.776616,-57.510454,-50.753787,-32.654329,-29.087708,-20.601561,-10.759513,-3.849568,17.61573,26.240718,39.843656,40.266186,56.527844,65.89156,76.085225,86.67415,93.820376,101.90469,102.62105,115.53556,119.59309,124.27248,132.2531,138.90077,156.44307,169.16414,174.87311,189.1326,187.97106,204.27661,209.2976,213.76874,220.94198,227.30318,224.35931,234.20205,233.13092,247.69141,244.86185,249.65172,249.98095,250.24662,247.8595,246.68544,255.74987,251.67461,250.90298,238.81229,241.21313,223.51181,224.89301,213.32542,206.53613,208.20566,195.49055,189.78102,179.96185,170.22955,159.96306,150.65852,151.44485,137.23018,132.96779,126.36016,111.08258,106.03433,94.954471,84.620396,76.487876,69.29491,49.789628,47.966058,38.219566,39.763242,30.145914,25.947571,19.730675,14.023157,9.9522016,4.8731145,0.14722832,-6.1380474,-11.184743,-14.23457,-19.611429,-33.16418,-31.17066,-40.157972,-41.924179,-34.489002,-44.084425,-44.292716,-48.60884,-48.792545,-51.552788,-52.739037,-56.721394,-60.036277,-57.070137,-52.399503,-52.930778,-55.429838,-68.560709,-58.74217,-62.8694,-53.457625,-58.053444,-57.54139,-55.586995,-54.110801,-40.8225,-42.099136,-36.656809,-29.81536,-35.119249,-27.122563,-27.37928,-26.541738,-28.682973,-27.457248,-24.862004,-19.241568,-21.050168,-20.198142,-18.136185,-20.555955,-23.992366,-28.52433,-31.145163,-23.693981,-28.521645,-28.362221,-28.098333,-26.990086,-33.824805,-37.395916,-36.742043,-29.791455,-37.782099,-34.351862,-36.999602,-38.817482,-42.050878,-43.037712,-45.273915,-34.810392,-41.241319,-37.71892,-47.197129,-41.263019,-45.287551,-46.463511,-50.274037,-59.591571,-55.198168,-59.316774,-52.592389,-60.945415,-58.815953,-60.983641,-47.900478,-53.89356,-48.192307,-43.974512,-49.686369,-42.294571,-45.028242,-44.934617,-44.481019,-41.280821,-41.526816,-40.965263,-50.848171,-44.393287,-45.94962,-45.035406,-36.079815,-42.558583,-39.101224,-37.441187,-37.36153,-24.535763,-28.262913,-21.285252,-27.375457,-20.096764,-22.315863,-21.550294,-21.811176,-29.207288,-22.94668,-26.28104,-16.585552,-23.600622,-19.658551,-19.786214,-8.9454928,-12.65354,-6.603293,-2.6647105,-7.9365863,-4.6190029,-6.0979996,-5.5328677,-5.1552368,-15.391157,-11.102994,-15.823213,-15.323239,-6.6864176,-12.151763,-10.683061,-11.601099,-1.6609448,-2.0624653,4.5356009,-3.392514,0.97723969,0.65078709,2.6677844,3.0172051,3.1259484,-8.981869,-1.968441,-4.508104,5.4616956,-1.2661212,1.2285059,-0.44944024,7.554974,12.173526,13.648382,8.5510208,11.119306,12.602903,11.978264,12.557819,9.5372266,-0.43834369,6.0646276,2.7444401,4.9666233,6.1753116,2.975374,4.8399964,16.87742,13.413175,17.647048,8.1689267,15.710587,14.262995,13.645855,11.881918,11.520332,10.334731,11.34775,8.4688007,6.3621376,-3.9247687,-0.54491924,-4.3330572,-1.9815712,-1.4860716,-6.8057779,5.8143238,3.2478156,9.338221,-1.4020576,5.4199572,3.9103683,4.1446465,5.0006883,3.2493726,2.526065,3.1946455,2.4936832,-8.8642533,-2.8166703,-8.9550928,-7.3187837,2.0181227,-6.1995079,-4.7232593,5.6874699,4.3120934,10.734645,14.0368,6.9894797,13.549603,12.606687,14.739489,15.12948,14.596544,14.654037,14.789825,5.0021232,12.407152,7.5600118,6.475387,17.514381,23.176999,25.429043,30.489055,21.480186,30.094385,29.826004,29.598268,29.648264,28.030197,28.510469,28.625381,25.564245,25.367648,21.191642,19.350476,7.7989127,24.170893,15.206303,30.495133,24.194515,22.424099,26.681899,25.197184,22.494832,25.801237,23.295283,23.669686,20.669636,18.904337,7.4020167,12.329407,7.505048,5.7092624,26.394226,15.836971,25.60527,19.046977,25.101039,23.569326,25.638403,27.202246,27.676363,26.632361,26.650441,26.873694,27.85792,27.146229,25.787967,15.652024,33.232843,27.760566,43.538107,34.973324,37.23226,39.880006,40.683593,40.62514,39.401855,37.120886,36.804914,35.745449,33.945906,31.419691,27.274523,25.419043,24.984616,18.744533,15.35594,9.2699656,6.3278484,7.6360563,6.2366628,9.280946,-4.2026934,0.079896017,-3.3921086,-6.0785498,-10.801738,-15.18169,-19.077377,-23.044483,-25.404007,-31.986957,-36.677435,-43.507307,-53.789789,-54.371797,-49.270593,-47.406023,-51.122465,-46.508169,-57.782996,-51.55094,-56.372741,-57.136235,-58.348307,-58.71531,-60.707336,-62.691597,-65.259294,-64.335942,-66.793945,-77.446918,-74.28228,-78.23311,-79.251435,-56.43044,-66.762776,-56.759385,-52.768354,-56.579272,-47.469128,-48.528573,-46.073837,-44.649458,-40.597938,-39.590617,-36.45728,-36.846673,-34.925864,-32.796058,-31.19388,-30.392357,-31.484186,-41.036363,-32.787303,-23.706087,-17.479327,-16.481997,-23.550867,-12.309383,-14.875398,-12.487461,-13.431899,-14.13677,-14.86883,-15.570922,-18.841292,-21.028484,-24.195412,-13.300792,-27.948662,-16.639769,-18.750874,-18.472684,-17.435535,-15.166633,-16.285329,-17.191562,-17.520843,-17.384316,-17.307368,-17.712301,-18.190283,-20.566308,-19.656399,-31.117732,-23.355412,-30.654616,-7.093634,-17.907039,-6.744511,-14.480361,-6.6630228,-8.7147579,-5.9004001,-5.37232,-2.9465704,-3.0736689,-2.0111276,-2.5639795,-5.8336161,-0.1733161,1.6367512,6.5136582,4.939905,7.7095883,9.7451505,9.1099477,9.6651721,22.221422,19.586979,27.097433,20.040602,26.689373,26.373012,28.671399,18.01114,25.308733,22.403401,23.113649,33.280344,27.187396,29.445592,28.645388,29.809269,39.595755,37.544436,41.749991,31.542801,39.141846,36.270707,37.38325,34.093149,33.157341,26.27932,24.747021,23.425305,19.397018,27.620011,18.179396,20.489633,17.426708,26.965903,21.153928,25.575967,28.151547,19.546689,23.675461,18.674078,19.113818,17.562892,14.640965,13.681107,10.780927,0.37435994,3.811152,2.2582782,4.2206841,-1.7665457,-2.0633292,-3.9537305,-5.1004601,-7.5338681,-10.694728,-0.50174188,-4.9041044,0.98252657,-8.0881539,-3.6418528,-5.7524025,-4.8692134,-15.293526,-9.6152378,-15.878472,-13.897573,-4.4403247,-10.238413,-8.7917967,-10.283391,-10.448904,-10.949706,1.3133506,-4.3889111,1.1561373,-8.313111,-1.3502281,-4.1772186,-4.8907865,-6.8918654,-17.794398,-12.291076,-16.824547,-12.082901,-15.175113,-16.180967,-16.843072,-3.489453,-10.126173,-4.3745488,-15.595885,-7.2706373,-10.63081,-10.874119,-13.406941,-14.645727,-14.966237,-25.052679,-21.025895,-26.818486,-17.207325,-23.204835,-12.23181,-14.451498,-13.813036,-17.490624,-12.762762,-13.659754,-13.966815,-14.848737,-25.917172,-19.091736,-20.462609,-14.208675,-21.748384,-18.996593,-20.085934,-20.261186,-7.7252842,-12.463632,-7.8696743,-2.750018,-10.302285,-3.5444638,-6.879112,-6.9419119,-5.2014,-15.871765,-8.9424489,-13.081345,-3.037858,-9.7258636,-5.0074347,-6.8800948,-6.8762373,-8.3301913,-1.4763541,3.104918,4.7082318,9.1419388,-1.0472625,7.7151704,-1.7671774,3.1952571,-0.64265303,-0.40368039,10.072549,4.6760994,8.7473616,5.9135601,7.9964112,8.5118935,7.5843824,9.5367961,6.0664499,4.9317888,14.746745,12.532415,14.144633,8.0229117,11.18158,0.45597899,8.0533026,5.6348204,10.478915,5.2613087,7.986953,7.607607,7.5105397,6.1864592,4.2331075,3.7670228,3.3722587,14.508953,10.180076,16.168474,15.36389,6.0204185,15.102244,18.69504,18.594993,20.373634,22.754772,23.638999,24.688779,25.593159,25.039943,27.564965,16.959614,23.145769,29.147595,34.642503,36.192273,43.887111,39.35532,40.790971,43.63164,45.185002,35.031504,41.908855,38.775807,48.946568,43.64582,47.8612,45.66517,45.727946,45.252146,45.368303,56.686152,51.699087,57.498018,46.546854,55.445484,52.160114,51.690478,50.253118,40.100733,46.583034,42.157793,49.855033,41.038324,56.098925,53.119403,58.434485,51.167514,56.262549,54.852471,56.232,54.694386,44.065077,48.901247,44.205706,45.175844,54.002272,47.14884,49.532643,49.269826,48.848783,62.123922,58.563305,63.712507,54.133299,63.484155,52.765466,57.327908,54.392717,66.009404,58.025712,62.234676,61.447928,59.021583,58.133978,58.290281,66.222071,64.119545,68.079719,60.539962,59.232992,62.941606,65.598729,65.278342,63.651455,65.294902,64.905564,63.169087,61.691233,58.86747,57.29792,54.876011,51.114029,46.051566,42.156733,42.072597,41.048603,37.99891,34.96409,30.293973,28.822395,25.704442,20.65691,14.593681,9.5187191,5.4184062,-8.5150465,-9.334037,-19.327287,-23.748028,-14.701323,-20.157689,-20.030185,-28.453039,-31.2265,-34.467868,-38.234845,-41.969032,-47.343191,-53.851281,-56.853449,-63.099063,-55.494135,-65.130372,-77.440574,-75.139665,-80.792058,-86.666676,-91.941743,-98.091876,-112.3115,-112.36991,-105.56902,-110.14997,-111.75425,-122.76255,-117.98346,-123.24209,-125.53625,-129.33437,-130.70218,-133.11183,-135.93423,-139.5203,-143.91677,-144.43305,-149.72886,-151.74049,-158.23625,-163.58798,-155.54753,-162.73018,-162.89919,-175.30904,-174.18071,-182.16545,-183.5634,-189.95426,-195.71224,-199.97275,-204.63423,-208.83126,-221.78554,-205.31161,-214.88369,-197.00002,-200.17744,-201.32478,-193.78556,-193.20027,-188.61046,-182.38885,-178.67962,-173.24395,-167.68308,-160.22907,-164.92074,-139.97812,-137.53165,-123.29545,-114.55866,-102.2254,-91.538066,-82.18152,-70.862399,-60.713354,-49.301243,-39.773497,-29.597482,-21.730813,1.3203282,8.0388557,24.62426,19.616134,39.00897,44.970787,66.484661,69.20003,81.349677,86.391856,95.307876,103.70124,109.99818,113.44188,118.81863,121.61822,135.49526,135.12585,140.95519,125.64172,139.52418,133.5759,144.05974,135.65834,137.24468,135.09772,133.13598,141.07026,135.92266,138.10726,137.39638,127.62813,132.01844,125.09675,111.29535,113.46938,107.12243,112.09089,98.766756,97.72386,92.222215,87.635279,83.138863,76.041188,70.578545,65.819191,59.846551,54.837397,48.721034,32.725181,34.400948,37.057178,34.609134,40.525031,28.373163,36.393774,34.743814,37.296238,37.794279,38.378013,40.190289,41.466046,44.326065,46.061398,47.261198,48.070762,46.425974,45.292818,48.165536,49.465476,54.527746,51.827515,55.200555,56.14172,54.401181,54.038152,55.771023,53.551608,53.648556,51.61667,48.84226,48.356718,47.066637,59.059482,40.616136,52.700283,39.232331,56.082437,44.564018,46.721968,43.713004,44.475321,41.74933,40.414728,36.386334,32.600851,28.352019,39.916855,21.49936,33.331197,29.344833,29.695092,28.22191,27.428347,25.400153,22.133452,21.458884,19.6575,17.200126,13.608616,0.52872483,4.8462623,-0.97715592,6.0139251,7.829526,5.6419954,10.866637,0.1130066,6.5651859,0.11456476,0.76957949,-1.5529794,-3.4712967,-5.0243295,-7.5883,-20.678251,-16.155057,-21.841125,-14.341131,-23.745302,-9.9325154,-16.901195,-8.2867451,-18.805502,-14.11095,-16.873311,-17.559547,-17.920507,-19.48644,-19.525446,-24.001259,-32.075641,-26.619763,-30.534792,-26.52341,-21.322508,-22.942295,-17.584369,-26.898872,-19.402576,-24.655944,-24.137348,-25.342329,-25.475806,-27.028131,-30.126117,-32.233374,-32.189614,-35.646221,-49.038058,-33.595175,-43.545802,-35.582123,-28.094405,-40.923853,-32.284232,-35.87569,-33.69844,-33.997802,-35.654836,-36.75888,-37.107155,-36.431771,-38.158467,-39.56168,-42.38817,-51.561049,-42.797961,-40.718017,-32.755774,-36.877609,-35.819254,-31.236962,-31.114647,-31.131273,-30.648907,-30.358694,-28.481289,-27.759293,-27.944662,-28.728173,-27.901252,-37.215193,-30.512429,-36.185526,-11.645227,-24.568185,-10.819287,-20.169579,-11.317619,-14.064352,-11.738922,-11.668289,-10.170507,-9.8367472,-11.057972,-10.232069,-10.739781,-10.983094,1.7744304,-14.531269,-0.75692681,-13.162996,6.4340817,-4.8435643,-0.00061297962,-1.0377052,-0.04229327,-0.89692937,-1.0495993,-2.8199157,7.0696186,4.558335,11.001758,0.63988082,7.8690753,-6.0938861,1.1989494,-2.2562474,6.1710157,-1.8695386,0.31602654,-0.33574553,-0.83652092,-2.8757295,-5.0615022,4.4236978,0.051138707,6.5736396,-3.8466934,1.5793783,-3.816022,-8.3810008,-10.100883,-10.994896,-13.116947,-5.1342354,-13.352687,-8.2891378,-10.385435,-13.595919,-12.572759,-3.2901744,-6.1014582,-3.3571773,-10.116825,-6.3266524,-7.8532648,-8.0502679,-18.254269,-12.220713,-17.933549,-6.0243671,-13.538001,-9.7447758,-12.921325,-12.931683,-15.004971,-15.078481,-17.91228,-7.1316182,-12.853058,-7.1616712,-4.7991984,-13.291558,-8.3693644,-12.031679,-16.934817,-16.999547,-17.59423,-10.942204,-17.442305,-15.737696,-16.501065,-16.539639,-20.110137,-20.319183,-11.221101,-15.487006,-8.8546105,-19.150212,-14.891524,-18.097327,-17.758036,-19.968026,-21.879096,-33.586174,-26.611232,-32.776036,-23.415278,-32.446045,-29.264999,-31.444424,-19.484899,-23.0156,-15.753634,-27.241355,-17.009769,-19.267497,-15.674726,-17.106603,-16.769036,-18.482684,-20.594681,-16.287901,-11.94877,-11.778567,-11.768505,-7.5605758,-5.2943185,-4.8342502,7.9887145,7.4406664,17.084075,10.124478,21.022633,20.036476,24.434042,27.237498,19.167299,29.095001,25.427604,30.840584,32.848055,45.741852,42.921375,48.12735,62.071355,64.939625,73.201464,68.641785,78.048599,78.851298,83.086998,86.372276,86.42737,87.927454,78.220197,85.440997,82.022005,81.7478,79.619024,90.896465,89.794102,99.261192,101.15721,106.6751,99.781335,109.56609,108.80362,109.81762,110.20328,109.3536,111.48123,109.86921,97.385543,104.0804,97.199234,106.9869,96.742573,113.73911,103.71554,110.50554,98.08972,105.70663,97.417558,95.45914,90.017472,88.148224,82.391847,79.063122,71.364098,65.113981,54.170154,48.928347,45.129444,41.862338,31.645095,35.559737,31.758893,29.875131,16.613902,15.792752,9.1698567,5.1444023,-2.318014,-7.7701595,-14.782105,-20.653327,-25.454019,-43.153886,-41.496696,-52.215991,-45.85909,-60.925859,-59.606654,-68.690811,-60.170599,-68.126949,-64.626234,-76.475837,-73.628014,-78.587653,-79.94441,-81.308742,-81.262319,-95.591467,-87.886053,-91.980103,-81.731846,-90.996993,-86.568389,-87.824173,-81.533869,-73.834128,-70.900681,-72.904483,-68.042075,-73.213537,-62.634436,-64.077591,-49.768462,-52.851544,-45.919626,-41.428858,-36.603466,-34.690307,-31.283446,-29.398547,-25.563318,-9.0688016,-11.882062,-0.93667088,6.2298992,6.0928734,4.8803294,12.450595,24.062446,19.433097,26.794326,27.630834,28.860939,28.647654,27.81292,27.598568,24.464177,21.895075,16.628181,22.858907,11.212289,18.297277,21.787437,23.654957,12.559362,21.725709,16.219208,13.734308,12.321958,8.6989954,8.0556636,2.3811343,0.66169655,-4.7393233,-7.3353574,-12.748385,-15.668168,-6.6175749,-16.863029,-20.812238,-25.904455,-24.603675,-21.198615,-30.149847,-28.337012,-31.242218,-33.986589,-35.630604,-39.844329,-41.143492,-43.357089,-45.6942,-49.706503,-51.479782,-63.926785,-49.827526,-54.644793,-45.216565,-56.634895,-48.232843,-50.463857,-48.803014,-49.240106,-50.109596,-48.318797,-48.128955,-48.235053,-47.445971,-48.143417,-49.57843,-56.600425,-51.052982,-39.158036,-38.64022,-34.186967,-40.735748,-28.956192,-33.2764,-28.964191,-30.162359,-27.868616,-26.851927,-26.682752,-25.855568,-38.46403,-28.865824,-32.539435,-24.456045,-17.802798,-19.22742,-12.376662,-20.526843,-10.679563,-15.543202,-13.272553,-13.38556,-13.305388,-13.849807,-14.18506,-17.478345,-13.443826,-11.293661,-3.9878403,-11.158825,-6.0170241,-5.5024604,-3.8866232,-4.6217449,-3.6181048,-5.9097283,-3.7898466,-4.4159127,-5.1465311,-6.6352203,-8.188433,-9.6515149,-10.46734,-3.612402,-4.2249753,-14.301063,5.1863441,-6.4345389,0.83746771,-1.69819,-0.27365105,0.28592312,0.79449568,0.76183544,0.56575734,-2.1580144,2.1532419,1.2510268,6.6203641,1.0128882,13.009429,6.0144013,13.104919,11.300525,15.103703,13.092273,15.003137,16.250411,16.891205,14.773946,14.66449,14.230524,13.964938,13.14262,1.0177417,7.5480095,13.121086,19.282947,19.447545,12.046758,18.936162,16.17202,18.690124,17.590472,17.05952,16.062984,15.553877,13.289761,14.299975,10.885942,-1.6732851,16.876552,6.9965577,25.332415,6.8663476,17.170573,14.504519,15.866889,16.04205,14.271491,15.29214,11.771007,12.707774,11.622727,9.8620707,7.3628353,6.0954695,10.722465,7.2183362,8.8620266,2.2581167,18.014505,7.4479219,13.548766,11.09437,10.863949,11.227661,10.496882,10.867186,8.7846526,6.6933613,20.181745,14.332791,21.990436,2.1672825,16.940542,9.0170053,12.885422,23.777869,14.374771,22.057953,19.500747,21.911254,22.82534,22.056638,20.728373,21.243514,31.903929,30.356546,29.334916,27.376188,29.526244,27.859686,29.550727,17.098501,23.638958,17.957014,28.652488,19.594084,23.694735,19.193864,20.015813,16.419496,28.589649,21.998112,26.361507,27.972969,18.542196,26.053806,11.022708,18.324839,11.896197,23.206763,13.39014,17.57865,12.453955,13.490085,9.8401935,21.529011,17.418712,20.746481,10.730288,18.886521,14.74446,3.7053685,9.7886592,4.0557788,15.894733,4.1039123,9.6495855,6.0991597,4.8667342,3.3318255,3.166472,0.46550014,11.160401,5.3607673,11.577812,-3.8123767,4.3986677,0.30075824,9.5791411,1.5797763,6.6699979,3.6791992,3.5171454,0.49987192,0.11784437,-0.42644739,-2.7342749,-5.392422,5.2025324,-0.86883834,7.0430148,-15.926699,0.88980987,-8.9827435,3.9175549,-6.8051463,-0.54313337,-4.4363983,-4.9708749,-5.6341573,-6.1146779,-7.907402,-10.531737,-13.706892,-23.674994,-12.674553,-15.323087,-4.8658403,-9.2049119,-13.185942,-6.919175,-9.5294325,-9.6535423,-10.593069,-11.36053,-11.53415,-13.428391,-14.78267,-17.530281,-21.532931,-29.284786,-26.787953,-14.001165,-19.822435,-15.288791,-9.686619,-20.036413,-10.873248,-18.256868,-15.027799,-16.797804,-16.599909,-18.366889,-20.020635,-21.238502,-29.945263,-29.045444,-31.479006,-27.473482,-33.228173,-31.507028,-35.891658,-23.308373,-30.770525,-24.615921,-35.501604,-28.892291,-35.15538,-34.284504,-39.075268,-45.328675,-46.365271,-49.35459,-53.067009,-44.625294,-54.070856,-50.700446,-42.648546,-47.941925,-45.265273,-55.620169,-48.750828,-54.838975,-55.984018,-58.870885,-58.968675,-63.108942,-63.310331,-64.762981,-67.945098,-68.302921,-71.152355,-59.023039,-67.015648,-60.313533,-72.874263,-62.164178,-69.501556,-69.900706,-73.329814,-75.204276,-83.078744,-80.761846,-77.27563,-86.270727,-83.959994,-79.03228,-77.664246,-79.40958,-88.214696,-82.243256,-86.906699,-86.126836,-90.900487,-91.030319,-93.29006,-93.224542,-95.706652,-96.810728,-98.423748,-98.670274,-109.95695,-88.624297,-99.990149,-77.794269,-97.591981,-79.235343,-83.246062,-77.455273,-77.544361,-72.386086,-69.220052,-66.645207,-63.546753,-59.852823,-54.396105,-43.87635,-38.491379,-30.194205,-22.889521,-17.092209,-7.3826998,-1.228573,6.0498184,11.787006,20.875584,26.8887,34.592652,40.098247,47.164023,55.790696,61.465354,74.61835,84.605299,85.828227,99.174933,103.7231,112.31988,115.63284,122.87621,126.74679,133.01289,136.71281,139.08844,142.33623,143.70912,157.1528,146.68689,162.41294,150.90684,170.07112,161.21008,168.30629,165.15589,164.49141,161.63391,154.02838,157.87539,151.60083,149.56349,148.03724,156.08629,167.31131,161.83666,171.73022,162.60403,171.827,169.17773,170.73263,168.40546,170.9969,171.2556,172.65971,171.29798,162.25509,170.0993,165.78898,172.74975,175.41848,172.08077,174.90035,175.38471,175.94496,174.06839,172.9069,170.88817,169.09787,166.15565,162.01004,157.36065,153.94729,151.66681,155.77213,148.24772,126.59567,134.41213,120.87192,128.23076,110.98988,110.37284,100.95942,95.213555,86.479345,77.599168,67.249698,59.671454,50.095183,41.529123,30.477865,18.981872,9.4739299,-10.890972,-0.88816603,-19.238452,-12.469538,-40.863592,-33.171288,-48.316128,-54.322805,-64.500052,-71.543234,-79.880777,-87.069913,-94.813348,-104.05381,-110.85744,-106.05602,-115.64137,-124.01558,-130.11244,-133.26977,-135.6892,-128.42505,-136.81345,-133.75985,-135.79163,-134.11917,-134.12252,-132.82736,-133.61419,-132.0757,-131.73455,-113.88591,-117.3516,-119.28669,-110.70883,-113.08423,-111.36364,-105.89424,-97.325157,-97.100012,-91.831672,-86.923732,-84.405143,-81.527587,-81.214016,-77.155686,-78.412279,-62.714285,-69.906735,-61.032554,-73.537168,-64.596708,-71.080703,-82.958706,-77.943411,-83.89478,-64.831787,-77.580337,-67.559502,-67.623838,-63.133064,-58.567701,-67.756101,-60.136593,-63.8279,-63.419761,-62.383211,-64.285901,-64.452872,-67.433195,-65.956379,-68.063877,-69.20866,-81.429333,-63.360783,-73.834644,-52.629436,-62.890224,-59.989693,-57.107535,-55.93688,-53.729577,-52.585639,-51.020522,-52.621118,-48.212594,-48.80119,-47.251109,-47.091384,-56.586816,-47.762399,-51.503477,-48.830133,-41.762936,-33.671401,-32.605511,-21.917427,-29.323758,-18.841104,-20.569142,-17.535484,-13.529002,-12.319033,-10.639709,-18.150607,-9.9921521,-12.530732,-7.6418835,-2.2219349,-4.9149625,-1.8525938,12.156354,8.8743485,16.993944,8.5810006,18.766546,15.271013,18.699299,18.194195,17.831415,17.252523,18.005844,5.7189925,12.678885,5.5008413,15.978774,6.546153,9.6722325,19.023411,12.647927,19.918671,20.440274,13.05302,17.522233,12.861128,12.536174,10.357599,9.3028908,6.9928255,3.9015994,0.20811755,-6.795403,-5.4430784,-11.275753,-3.0981189,-14.074325,-4.7863533,-2.3356691,-2.8048511,-8.2659392,-6.0878939,-5.4076434,-6.4686894,-7.43822,-8.4812954,-9.6861485,-16.778558,-13.78764,-16.130138,-12.861354,-12.922055,-13.766501,-10.9468,-14.160968,-0.30949527,-6.8016659,4.127426,-5.9883823,4.5157177,-0.88377858,2.4245782,-3.3470615,-0.78568708,-0.63440171,9.6253364,3.1640365,10.11179,9.2400713,11.933428,10.490039,12.980518,11.983776,14.736559,13.043296,24.942635,19.455647,29.923449,17.891565,17.878039,21.877134,18.056804,31.856618,22.435789,28.924304,25.963758,28.202836,26.042493,28.127772,27.044279,24.949022,36.222425,31.531129,39.818966,40.506796,25.180049,39.125527,31.175294,47.636763,37.499312,43.930887,41.553274,44.606654,43.279293,44.053141,42.191494,53.805265,49.708374,58.495123,58.392642,54.577967,50.099476,56.591325,53.39832,66.239935,57.337089,63.639656,61.381747,64.262539,63.349596,64.111209,62.776831,63.664091,63.131227,76.713352,70.243067,79.267434,65.498395,71.662284,71.580922,70.160461,81.556682,72.192465,79.577596,77.554967,79.36733,77.485676,78.037964,77.371208,77.747137,74.725695,74.835458,65.240182,81.481895,75.603816,91.563948,74.898525,89.152724,84.691578,87.576852,87.144147,86.143559,85.863945,73.930478,81.692923,74.463183,74.371835,73.838365,93.228179,86.021266,95.119853,93.778527,95.291868,101.15969,100.77871,94.575783,102.0852,99.222869,113.60758,105.45017,113.29035,110.62049,112.79482,120.74311,123.98264,126.65847,117.78331,124.64339,119.13951,121.81182,117.53534,113.88097,101.72842,105.30686,96.391493,100.76364,87.422168,86.653054,76.854037,72.137077,77.641387,62.127895,64.937152,43.631169,47.182031,31.65216,24.884019,13.331963,3.2353061,-6.0384616,-18.640318,-28.045584,-42.941965,-58.376606,-65.815453,-74.430852,-72.800188,-90.263667,-88.303846,-110.63335,-109.67831,-124.90037,-132.1891,-142.20738,-149.3162,-158.46829,-167.35998,-175.25321,-182.95414,-190.17811,-197.8634,-204.69606,-209.83079,-210.87009,-212.87422,-214.96754,-219.24567,-219.68159,-220.20994,-220.28782,-219.5381,-221.16653,-220.82944,-219.05317,-217.1694,-213.86524,-212.51671,-210.37813,-203.48674,-192.21094,-189.85078,-188.58508,-188.57647,-177.30157,-173.55162,-157.88504,-160.69986,-150.34427,-144.46057,-137.9165,-129.75648,-124.41957,-119.05418,-102.76419,-99.613584,-89.806504,-94.12422,-84.834518,-84.553527,-81.943537,-80.199161,-82.120542,-82.642663,-83.564617,-78.276807,-80.637614,-75.682752,-63.645652,-68.520246,-69.250664,-63.60829,-64.176463,-65.354066,-63.721328,-62.496932,-63.161221,-50.007299,-55.522967,-45.363855,-54.682947,-53.489622,-50.382199,-50.979014,-39.026685,-44.547659,-37.164142,-38.581472,-34.752368,-35.32123,-30.028237,-29.604911,-29.42402,-26.849155,-15.022362,-15.700237,-17.787344,-15.818033,-11.829885,-0.047491519,-4.690207,6.0692779,4.3172475,10.997635,11.058116,16.153186,17.678368,21.022542,19.873339,24.002214,25.45912,18.633982,27.12047,22.1532,39.63023,40.101774,47.212197,46.677628,48.21561,52.664823,53.620601,56.090533,56.620718,56.613216,57.590709,59.06382,59.266382,47.899047,55.876521,49.171626,61.242575,52.09922,55.806118,51.994904,63.227833,57.348834,65.947562,53.22893,61.244288,55.210225,56.706304,43.581598,52.339262,42.350097,57.775071,45.010994,52.942287,46.110297,47.247975,44.024722,42.877594,41.203869,39.891854,47.909722,41.425616,49.771134,50.302031,43.921294,50.083291,46.512259,41.114756,48.934719,42.684558,56.130559,45.426304,54.090462,51.212161,54.525275,52.062863,52.456752,51.911774,53.457527,50.899334,50.339536,48.40822,47.604701,45.590281,52.837901,50.929272,52.98381,52.757676,54.584767,54.786721,54.795089,53.874332,54.838018,52.840464,54.600418,50.638267,51.405498,48.366972,47.695489,48.125478,49.129701,50.257222,51.261743,51.541728,51.128903,51.846487,49.050508,50.567688,47.907932,47.30268,35.893464,40.452231,44.710235,35.057042,51.182318,42.233979,50.133316,37.299677,47.022275,39.84732,40.481705,37.269858,35.251193,34.386243,21.134553,27.324665,18.052451,29.416069,16.285947,33.317738,23.860429,32.008412,17.450303,27.965591,20.752001,20.990461,17.074481,16.259561,14.211585,12.331077,8.489094,5.9500056,0.95954019,-7.7527073,-6.0440178,2.4200771,1.8342044,1.5054708,-5.1215189,0.14637655,-4.7782449,-6.6679493,-7.7330573,-9.5320633,-11.261176,-13.615715,-17.200561,-21.829439,-29.493728,-13.513751,-25.620793,-3.9529867,-30.083465,-9.9813476,-19.964388,-14.846527,-19.251303,-17.756395,-17.625027,-18.302915,-20.270096,-21.347352,-20.918088,-23.297271,-23.512132,-27.298521,-27.941809,-40.085482,-22.18389,-31.743631,-17.164227,-32.250746,-22.486308,-25.415881,-23.704809,-25.227865,-26.704852,-25.905946,-27.627902,-28.041314,-29.568968,-32.693426,-33.755551,-36.091005,-34.704221,-34.566162,-32.888905,-33.744715,-32.685336,-32.122051,-32.985413,-34.920454,-35.840726,-36.799391,-35.817332,-40.552666,-42.015315,-45.915647,-47.031756,-51.220926,-50.826813,-49.779659,-51.526122,-59.750584,-44.374878,-56.42363,-52.503346,-57.239137,-56.096845,-57.765688,-59.375647,-50.497032,-57.571885,-63.418909,-58.145532,-63.664624,-65.40155,-68.460898,-71.090527,-83.541193,-78.356258,-87.181914,-77.247319,-90.896282,-85.459939,-79.27416,-85.910899,-78.909367,-93.854239,-81.483624,-89.700031,-87.919562,-92.805939,-91.636245,-94.217056,-94.856775,-98.190947,-99.838522,-101.95401,-104.68544,-107.44161,-111.30153,-116.44338,-116.75362,-118.92021,-121.63752,-123.73117,-121.30828,-126.06042,-125.10646,-127.30162,-127.24265,-131.13333,-130.32123,-132.04545,-132.30378,-135.76419,-136.95128,-135.24575,-129.42513,-129.25031,-125.69743,-136.29074,-123.93593,-129.47326,-124.81511,-127.04147,-123.77082,-123.83139,-120.17358,-118.32062,-117.64672,-115.41205,-114.25675,-110.17237,-118.96834,-106.65093,-111.50829,-90.970398,-81.778824,-73.991727,-68.264621,-59.431248,-48.99183,-40.210252,-29.832776,-21.513736,-11.848748,-2.4129573,8.9355965,17.322533,27.648217,36.01845,35.137752,52.580161,69.380916,80.916638,97.878877,96.709988,119.53876,123.15035,137.99514,143.92555,156.21125,154.87755,172.38671,174.49632,194.78192,192.77203,206.37732,212.67472,232.14863,230.93075,244.51438,247.24155,251.10643,259.64938,262.57625,279.7976,273.58652,287.98138,284.77132,290.55606,282.26515,292.96075,290.96989,300.3085,299.48164,299.73122,301.71807,316.00377,309.70696,317.56119,304.14957,315.5025,307.26485,309.85256,303.6512,301.59531,299.08407,282.72167,286.8697,273.06198,280.90628,263.08287,264.94874,251.49562,245.17415,233.00053,222.36888,211.87653,198.59252,186.08883,171.60978,159.04832,154.89064,142.99204,134.41731,110.84552,109.12922,82.073591,81.140989,59.308007,63.365001,38.652777,38.144079,20.216815,12.074467,-1.7744849,-10.949867,-20.728861,-32.795871,-42.444603,-53.684596,-63.653855,-72.594634,-82.161335,-92.143664,-102.49453,-118.26251,-120.69233,-133.89974,-130.14231,-147.69282,-146.41209,-154.96047,-144.09673,-156.38424,-148.61823,-150.02208,-156.24998,-149.40602,-152.75744,-160.97291,-150.73224,-154.37397,-139.56453,-146.38564,-137.41933,-136.96245,-130.09275,-127.059,-124.70197,-121.49533,-105.67345,-105.99977,-92.881307,-94.417085,-89.223712,-82.497171,-78.206521,-72.919218,-71.188471,-66.652433,-74.046098,-49.760761,-57.6834,-35.765869,-51.013777,-34.947037,-37.295707,-33.392284,-34.00261,-33.750665,-29.866111,-22.875256,-24.397994,-18.394049,-28.27373,-27.936472,-23.402458,-17.495281,-23.61215,-18.803178,-8.0559936,-8.3379721,-1.1660212,-4.5210672,-3.2948615,-0.52080603,1.4210908,0.51279796,2.4055251,1.1937744,-0.43388105,-5.9367807,-0.56855215,-5.9399784,4.401813,-6.3327445,0.6890179,10.602511,6.8343145,13.62431,3.2323535,14.282343,8.3665241,11.366601,9.062137,8.9705846,9.610031,-1.6823232,7.2890855,-2.645373,1.7831081,9.0104523,1.2053649,6.9659092,2.2366713,3.4031033,2.5657447,14.020404,8.4800331,14.851851,2.8351951,14.623879,7.4728866,9.6939907,6.2445316,5.4309787,-4.3717827,2.4429066,-5.7749409,6.8278467,-8.9331215,1.2877251,-6.8326836,-5.6748711,-10.322362,-11.207599,-3.5551386,-8.9410834,-3.7561889,-16.531339,-8.6435277,-15.982162,-14.276144,-29.750051,-20.579404,-32.028784,-17.705794,-33.048706,-25.235315,-33.163513,-20.331505,-27.860903,-19.309376,-31.768584,-23.877491,-30.111703,-27.743844,-31.297627,-31.309941,-33.796346,-35.792487,-46.949875,-39.859442,-48.195365,-37.777569,-49.433457,-44.104019,-48.643032,-48.8686,-52.802368,-54.947668,-45.130939,-50.476997,-44.997508,-54.944397,-50.355351,-53.438239,-52.806315,-66.008457,-57.850201,-66.86034,-52.725228,-65.412552,-57.061786,-63.30765,-48.535857,-54.619586,-44.783334,-55.635366,-44.794055,-50.938152,-46.166234,-47.954036,-44.572475,-59.388418,-46.806525,-55.756843,-41.169873,-51.434969,-45.978424,-49.354378,-45.610066,-37.432924,-39.678469,-34.103781,-44.359677,-33.735322,-40.029752,-36.294648,-50.432738,-39.996879,-49.392284,-33.378295,-47.032968,-38.470336,-46.72754,-43.485275,-46.016437,-33.669377,-42.21124,-33.317346,-32.559976,-39.83997,-42.191399,-38.823577,-43.737232,-30.083673,-40.93673,-31.295842,-37.544063,-34.340209,-36.536736,-34.894972,-37.67192,-37.063915,-40.605911,-39.252513,-30.320913,-34.821367,-37.971039,-43.41219,-36.638011,-31.940735,-35.636451,-31.135555,-33.258476,-31.480322,-31.830848,-31.06266,-32.42408,-33.923096,-35.480874,-36.087416,-35.979457,-25.478247,-32.182893,-24.03297,-36.919577,-23.79199,-35.161747,-30.038844,-34.711324,-33.612858,-34.918429,-37.788267,-39.102419,-52.183177,-44.983003,-50.876278,-41.926138,-53.947278,-48.325882,-40.609789,-41.853581,-36.550957,-47.174733,-36.463786,-42.033508,-37.35071,-39.549937,-36.847221,-38.103665,-34.775569,-32.938891,-31.933387,-31.653637,-31.164425,-39.211961,-29.919988,-17.395611,-17.474177,-9.4905039,-14.675,-0.87591407,-3.3025307,2.7846073,4.7271082,8.4744662,13.646503,15.746151,17.208498,22.741326,23.82618,19.800606,27.591451,40.290952,48.069078,53.070496,53.128907,65.975399,66.412899,73.194185,78.237565,83.626973,88.813753,82.227263,95.534332,91.925132,99.882128,110.06199,118.11564,120.71695,129.2176,119.72781,137.51454,132.16093,142.92451,155.79537,154.73355,165.9898,169.12527,175.29784,178.82978,184.331,202.47641,198.25669,212.4414,201.50144,217.5461,211.19737,216.64349,214.44878,215.71576,214.006,212.33446,197.84644,204.10451,193.27981,202.32635,186.64229,201.34706,186.63942,193.11582,175.5286,179.50148,165.76899,161.20016,152.10725,144.82138,136.73606,115.03161,117.39269,101.08606,107.39455,86.298921,84.731049,68.19665,62.420643,51.696014,40.285049,30.06824,15.859519,6.2772125,-5.1816034,-16.430131,-28.064995,-40.276143,-41.201857,-60.599032,-57.847148,-73.800077,-72.156596,-85.029965,-85.255323,-94.507826,-97.047236,-103.6058,-108.50089,-110.29824,-114.00565,-116.26294,-120.07389,-121.41949,-128.64748,-128.99015,-130.11762,-124.89274,-128.63003,-111.7439,-116.27124,-108.76839,-111.04245,-101.88303,-100.14783,-95.742421,-90.933258,-88.641376,-83.179554,-78.962479,-84.137141,-72.920449,-74.010975,-58.674185,-63.326894,-41.269097,-44.330319,-30.932284,-39.489587,-22.132795,-25.831712,-19.345963,-20.587524,-17.311107,-17.9666,-16.714771,-20.90754,-9.9949257,-20.177978,-21.355319,-17.745838,-31.189704,-14.657112,-31.150511,-18.7387,-18.309624,-16.888783,-11.751551,-9.9051653,-17.468583,-6.8713095,-12.257302,-9.7649579,-10.73109,-9.2314615,-18.994848,-10.876403,-18.117785,-3.901846,-15.047973,-6.0591092,-10.338763,-7.9075457,-11.016087,-8.5178676,-10.805106,-10.240109,-0.24513768,-7.2238652,1.547135,-10.021401,-11.565882,-9.4237194,-15.382115,-2.8908965,-14.38027,-5.1116122,-12.156527,-9.3649713,-13.358979,-9.1702928,-14.068613,1.6607882,-8.8097126,-6.9584794,-11.801009,-4.7662165,-3.3222991,-6.7463958,-1.8756563,-4.3128414,-2.563602,-3.812559,-3.8765232,-3.6609925,-3.747836,-4.6057086,-6.7541111,-18.398221,-7.1166299,-5.1296652,6.8106421,-6.4256748,3.1837237,0.31232394,5.2879352,3.232171,4.0546524,2.3592595,5.2732866,2.1856688,4.1567942,1.6810412,-0.61179164,-6.3665403,0.8383731,1.3584974,6.3140645,0.68349895,5.3515809,4.8815916,5.8771834,4.2260327,3.322956,3.0962887,2.080694,2.942228,-11.054283,-2.3129285,-11.938334,2.2257968,1.5132789,3.9665707,7.5006476,-3.5218422,9.3779182,1.9782782,5.3933615,1.9258029,4.631686,2.9387316,2.2046661,2.3376867,-0.78219553,-4.1081422,-8.6844518,-6.8833942,-12.1206,-1.6096934,-14.641228,4.1915629,-4.1858787,4.0972869,-11.37049,0.87124261,-7.5347355,-2.9081136,-7.6580499,-8.2838761,-10.9427,-9.476034,-12.802625,-14.75531,-29.300673,-21.124351,-31.447844,-5.2537779,-24.032515,-6.8499179,-24.328606,-8.0940436,-16.42164,-11.644832,-15.424458,-13.641444,-15.248231,-25.74187,-18.686872,-28.081747,-25.154141,-18.048856,-26.531397,-8.5035831,-19.21914,-7.3736197,-20.725278,-8.1058211,-17.323983,-14.102134,-17.866743,-15.942218,-19.764175,-19.430856,-23.304668,-24.974599,-24.640623,-22.609027,-19.72125,-24.311675,-19.349025,-22.550353,-19.793005,-22.996511,-24.485866,-26.843083,-28.539076,-31.329351,-34.406606,-37.825751,-29.415254,-35.608275,-28.174683,-43.274911,-32.908402,-41.904727,-38.512203,-41.746788,-42.47443,-47.067175,-50.761786,-60.881482,-54.274577,-64.708849,-53.932509,-66.933689,-53.065843,-56.267871,-50.68044,-54.944113,-54.03279,-51.477699,-51.699387,-49.916082,-50.273176,-49.684412,-47.44896,-57.83199,-47.592283,-42.663721,-42.994522,-32.569455,-28.760534,-23.356938,-18.768696,-13.831427,-7.052507,-2.7084405,3.0659395,5.8194428,13.255743,14.781387,22.653681,25.438635,27.960419,32.748814,28.295213,48.618872,43.558052,68.706966,47.131143,72.970332,65.650764,76.578112,74.270264,80.776073,80.774903,86.597116,85.503355,87.473738,85.856341,86.303618,86.598143,73.037709,81.827457,83.946557,91.789068,89.063827,83.747706,88.168831,81.509565,82.286467,78.409798,76.631771,70.455756,66.338576,61.117351,57.497826,53.668965,52.795303,48.664144,61.224381,36.995109,50.811756,36.369248,37.132563,29.799431,29.271063,23.092571,18.171414,12.871064,9.8389252,6.1095643,3.1992497,-2.151657,-16.271854,-11.560778,-6.7348225,-0.47329224,-10.315488,-7.3192541,-9.9951094,-9.208332,-11.519978,-12.053157,-13.935003,-14.952937,-14.966425,-14.089055,-16.551277,-16.972865,-26.994398,-16.853889,-23.673114,-10.688076,-23.083877,-14.173883,-18.115834,-16.200991,-19.338018,-19.433459,-18.056667,-8.3528549,-11.981283,-2.894619,-16.422452,-6.0212474,-17.514555,-6.6039034,-15.044679,0.31972492,-12.883974,-2.1666407,-7.9417236,-4.4312685,-8.983246,-8.1197571,-10.419513,2.9914544,-5.2640546,4.7258045,4.4516832,5.7745608,-1.6317035,13.771129,7.4879032,12.823206,13.135688,16.743987,16.868835,17.088769,16.290526,18.952403,18.55097,18.764675,17.035798,15.959787,20.959008,22.952451,26.612753,27.443343,30.060967,31.834018,34.474469,34.469261,35.638668,35.558909,37.301495,37.295951,36.739873,36.006891,35.088935,35.328903,34.105309,45.788631,37.089999,37.140806,30.74565,37.835069,41.556369,35.046677,39.57855,36.852294,39.635534,36.108032,35.797245,33.136247,33.065031,30.739067,42.184952,21.513914,41.816851,17.544584,45.898154,23.956361,35.907555,27.973284,33.325444,28.54562,30.146962,26.35118,26.137122,24.121002,23.184727,20.223153,6.8406356,25.576522,12.088536,34.41284,9.5272232,27.716498,13.852295,22.810934,17.080153,19.86552,14.761017,13.552465,13.243924,11.879734,10.409236,5.7438666,4.2453097,6.0488995,6.2230324,7.4212148,7.8864817,6.363765,6.9101512,6.6165559,6.2646197,3.2847019,2.3665689,0.59769667,0.20936926,-2.2378766,-5.8657818,-7.8347571,-8.5669543,-0.70002644,-17.581681,-1.2798901,-25.87976,-8.3058315,-11.137867,-11.958198,-12.690678,-14.028214,-14.304941,-15.58727,-17.334279,-19.47414,-23.048401,-24.474693,-16.825602,-19.292245,-24.907807,-35.792607,-28.841059,-36.354459,-33.217104,-33.250028,-37.453473,-36.404106,-37.502236,-39.98371,-42.448349,-45.763192,-48.007092,-37.339631,-45.829243,-37.844559,-54.200644,-43.95081,-50.948256,-48.829463,-53.873266,-66.724464,-56.986963,-67.280907,-53.265737,-68.626805,-61.915579,-70.30055,-65.698611,-73.2038,-73.227981,-78.987945,-67.677583,-76.336298,-67.57045,-83.250171,-75.212091,-82.864291,-90.627121,-86.625605,-91.79767,-88.242224,-96.30009,-92.923538,-98.575766,-99.176167,-90.795025,-99.109501,-90.090549,-104.55178,-94.900771,-115.13838,-103.32324,-115.2265,-99.690799,-115.9291,-108.00117,-114.32122,-113.61126,-114.74486,-118.3822,-109.17809,-115.16046,-106.98796,-120.10279,-110.03372,-119.52902,-125.46226,-120.48396,-124.66248,-115.78229,-124.79107,-116.88888,-121.69514,-117.33659,-123.65367,-121.33629,-125.64099,-112.53685,-120.99169,-111.36365,-129.46125,-117.31338,-127.79309,-123.28793,-131.76612,-130.72197,-136.61358,-136.47563,-140.5432,-143.23697,-145.69395,-149.38785,-150.96874,-154.53573,-142.85263,-153.87587,-144.69625,-144.85686,-150.5448,-144.87785,-150.31107,-147.7443,-147.85234,-146.40654,-158.05886,-148.07356,-155.48182,-148.32051,-140.93189,-143.25806,-136.15627,-123.67113,-121.93825,-106.90563,-104.5098,-100.98032,-89.210852,-83.29602,-75.453927,-65.516763,-59.706391,-59.657677,-41.745728,-38.124429,-20.757447,-12.511621,-3.1580879,10.301334,18.85953,31.095644,37.561611,63.767407,65.423466,89.713294,83.228682,107.68684,108.2523,125.1842,130.28898,141.66293,147.82434,146.29278,162.10328,165.90147,184.07279,178.98024,193.99454,194.52455,217.05359,213.95367,224.97488,221.47447,233.16733,219.68592,234.79487,224.24853,231.32291,228.38784,233.96373,231.54717,234.85222,258.31732,246.72205,268.22056,253.34077,271.54384,263.98076,272.4153,273.81969,275.17661,275.4937,276.44994,277.14304,278.28522,276.76251,264.71362,271.86738,276.8525,286.41231,281.62181,280.11932,281.6245,278.97906,278.84826,275.43206,273.76951,266.56444,264.77265,258.9872,255.53349,246.46133,241.33898,224.50233,226.47387,213.69798,218.19762,200.82147,201.52153,190.27142,186.9144,175.40576,168.23404,158.93442,152.08909,142.25026,131.54462,111.82677,109.40069,93.401993,95.352607,74.764026,70.33467,56.547209,48.571499,35.68417,40.516037,20.109442,23.529617,12.557937,1.3939164,-2.9323747,-14.633337,-22.620377,-32.848257,-37.036808,-39.976265,-45.486387,-51.255164,-53.739861,-55.424981,-61.993593,-63.94481,-54.850455,-59.820498,-53.054622,-57.872111,-57.330705,-52.988675,-64.122866,-48.650038,-57.919215,-37.583958,-48.310062,-33.874397,-35.412123,-27.623996,-28.555874,-21.695952,-19.842932,-15.084191,-12.719123,-11.49834,-5.7934574,1.6537031,6.5069749,8.5350274,12.200918,14.104168,15.858474,17.376329,14.162112,12.987786,8.5713363,5.9289126,17.614996,5.1471355,3.7294929,8.4768601,7.2713122,12.996734,24.597002,21.080717,18.920767,27.677747,26.054285,28.658012,27.615675,29.436715,30.830971,20.065221,29.575718,20.694952,37.120845,22.528497,34.364145,26.24382,41.851314,33.762139,45.143643,31.611093,41.938142,32.530575,36.030611,31.632574,33.07496,27.678612,23.402149,11.92248,16.771391,6.4738616,13.864813,-0.8045152,1.238041,4.3610414,-1.5787615,0.024594525,-16.48236,-12.396821,-23.374462,-22.534122,-33.500165,-36.474433,-45.770879,-50.153598,-57.56993,-64.811465,-72.072509,-68.727827,-78.612432,-83.442782,-94.166684,-96.068886,-92.476992,-105.5745,-102.22444,-109.89662,-113.69799,-118.37511,-120.64993,-123.81907,-129.74144,-133.026,-137.31246,-136.07048,-131.7359,-134.99755,-139.3589,-140.11204,-150.52841,-141.96791,-150.19355,-138.17634,-150.41586,-139.61434,-146.2175,-140.48358,-144.86041,-142.38699,-144.72294,-126.99398,-135.84178,-122.90923,-147.21685,-121.5739,-135.79257,-115.40491,-127.85944,-116.22726,-120.63924,-112.81972,-115.31943,-112.57058,-114.13456,-99.504893,-102.89031,-93.554553,-103.56189,-103.09418,-97.988916,-99.907257,-93.806456,-92.057666,-94.521413,-91.102784,-91.809113,-91.804192,-94.106733,-83.730167,-90.47461,-78.748251,-83.430373,-87.873475,-85.857448,-87.710334,-97.516873,-92.437903,-99.83757,-90.764421,-100.71723,-95.528613,-86.854743,-92.847711,-85.549091,-99.25429,-86.021686,-97.274817,-92.959917,-98.899057,-98.984476,-100.20394,-103.29186,-105.11657,-110.40484,-120.63465,-116.25348,-124.69859,-115.0888,-129.86689,-112.91734,-123.34447,-113.97294,-129.50032,-122.66859,-129.73012,-129.29307,-133.192,-135.84002,-139.61885,-139.23279,-142.82203,-146.30252,-149.58304,-153.75928,-157.66897,-160.64235,-162.53981,-167.69063,-172.66313,-175.25108,-174.95556,-167.72773,-174.69773,-167.67347,-182.15577,-170.80957,-180.34286,-176.53893,-182.72917,-181.28598,-185.45477,-185.41773,-190.17685,-192.96379,-196.65699,-197.30585,-201.37373,-205.01028,-206.97925,-210.90327,-197.43099,-206.24237,-195.4548,-209.89903,-194.46564,-201.27009,-191.05814,-193.27014,-197.29805,-185.4143,-184.92513,-167.1605,-171.07138,-158.16315,-140.16496,-135.57362,-115.9149,-118.51819,-98.604687,-93.433854,-77.894353,-67.980374,-55.384955,-44.76912,-31.555659,-27.711158,-6.3002248,2.993678,22.399708,43.13735,55.984684,80.614538,89.177443,104.6643,121.34467,135.36282,150.68848,163.27552,176.00441,179.59159,202.78045,207.80495,233.57847,231.48868,253.78846,257.34801,287.47873,287.21828,308.55516,305.15183,326.7026,328.58304,342.13974,334.05397,353.48466,350.34288,361.14366,372.04983,367.79607,376.71129,375.27999,371.43986,376.72632,372.13278,373.21996,385.71117,382.32948,391.75366,390.52554,393.33601,397.00324,397.23902,400.76159,399.28263,401.66991,401.8122,405.37352,393.97501,403.81618,396.32431,409.17786,397.56297,407.48795,399.01246,402.1058,398.4885,400.08865,394.88621,392.36897,389.38392,385.46483,381.44593,375.11328,368.39897,361.23315,352.19854,336.97535,333.44325,316.28522,307.01784,303.92984,283.87823,277.90759,258.70177,248.01837,231.27627,217.81933,201.23718,185.5071,166.98744,151.85166,133.90017,118.8744,98.225685,82.678587,58.484498,42.702916,24.956306,13.288565,5.2732997,-12.481104,-19.482778,-43.442306,-48.065722,-66.856753,-76.716665,-90.637175,-99.566451,-114.77156,-123.44944,-135.12407,-152.38792,-154.08965,-168.75576,-174.40081,-170.38939,-171.90069,-174.41411,-176.65238,-181.77291,-179.62331,-180.18248,-180.92071,-180.51287,-181.24346,-179.26242,-177.15711,-175.14259,-173.9339,-171.73452,-155.98353,-165.19947,-147.54282,-158.31446,-141.22816,-132.46935,-130.84157,-122.44865,-119.76693,-114.4042,-111.07779,-107.05885,-104.80433,-105.2685,-92.491255,-100.02459,-89.280861,-91.834102,-101.26613,-97.508351,-105.76177,-104.84221,-100.15181,-107.48629,-104.73,-106.25093,-112.47384,-105.09147,-101.29431,-114.31845,-103.10719,-110.1185,-104.83037,-110.62964,-109.23237,-111.09141,-111.77707,-111.19104,-100.44736,-107.96786,-106.81232,-109.77126,-102.88193,-98.06465,-102.22753,-96.702085,-96.03341,-93.107609,-94.37027,-92.144466,-93.574097,-89.146833,-92.117023,-89.551095,-92.108957,-92.058358,-91.43588,-79.2389,-85.38332,-76.012661,-84.643929,-81.122948,-77.611725,-69.722661,-73.619577,-67.988546,-66.069361,-61.780335,-62.172171,-59.649366,-59.513045,-55.967738,-55.152181,-53.751776,-54.71334,-54.402593,-45.040026,-53.047611,-38.945584,-52.059602,-29.05981,-44.696325,-28.457215,-35.435487,-28.611235,-31.42109,-26.797544,-26.085486,-25.974471,-25.73064,-26.335573,-25.364757,-11.933899,-18.383888,-19.823697,-10.56312,-23.121782,-7.4678971,-11.022412,-2.5016846,-6.902797,1.5191923,0.19178842,3.7673959,2.6737207,5.0054736,3.9412698,6.5534703,4.7391098,4.5723917,2.4469058,-6.3916337,10.603527,1.4419682,21.861745,12.429936,14.128026,21.346297,19.09095,23.558799,22.510553,27.034548,28.199077,29.999345,29.644865,31.075799,32.835806,32.680496,34.554294,23.009893,32.987081,23.9626,40.65546,25.822371,35.109286,26.265786,31.953132,37.302932,36.390428,30.842437,31.861211,30.036884,28.979837,26.622342,24.533758,11.454846,18.442603,10.178652,14.118665,11.041044,7.9703316,20.339734,11.659556,23.027664,5.9114254,17.111107,7.706817,11.263867,6.6923406,5.7537163,3.0845852,1.8380668,-11.727081,-0.14066105,-14.743413,-8.6373286,-5.1188221,-11.361784,-7.2209742,-11.30146,-10.697235,-0.55111604,-4.3113056,3.7321354,-8.1524723,1.4634407,-4.2833452,0.86928541,-2.1934315,-2.4789215,-3.1031256,-12.997819,-4.2029028,-0.75401898,-8.0842242,-3.5883448,-5.4885939,-3.2619413,8.099417,2.6553079,10.326023,-2.1105875,12.492979,5.1524003,9.7961552,6.9800766,6.2318334,1.7506325,6.1735792,1.5641482,13.679824,1.1537553,12.010047,3.6639326,7.5325557,16.131223,13.036867,21.080473,23.391486,21.583159,21.82399,23.694144,25.108638,24.886925,26.411021,22.442793,14.966246,22.600492,15.139987,27.010941,17.25369,23.566869,33.525125,31.115768,40.878294,28.137227,42.786757,36.854226,43.114606,42.132292,43.21668,44.689198,46.5092,34.261727,47.036677,36.272172,42.919026,39.145074,54.399536,41.646547,64.526954,53.071634,71.018696,45.172297,73.838996,56.025762,71.231058,65.720918,87.271832,75.232715,89.429642,85.642947,93.353969,94.065061,96.951499,94.773682,110.52305,104.63772,116.99094,100.25903,113.29481,104.57357,120.56122,107.07012,115.46531,106.76837,108.28058,103.20982,101.53433,94.920127,90.934097,82.256999,78.901014,74.945943,68.953772,66.501816,73.325121,47.279348,60.353477,40.305313,40.921322,26.095201,22.801159,11.77045,4.1454964,-7.814225,-16.173175,-25.373711,-36.283045,-45.392654,-56.609006,-67.683727,-65.284527,-82.025531,-95.162733,-102.32476,-115.49623,-124.00576,-137.2014,-146.54894,-160.28568,-169.9565,-180.92535,-190.93161,-202.26144,-212.14669,-224.2452,-227.54777,-230.47165,-238.6266,-241.08652,-258.19593,-257.98449,-268.03581,-267.92321,-264.97115,-273.30847,-268.77983,-269.90761,-267.15045,-267.33287,-263.90246,-261.00937,-255.99139,-250.85507,-247.56473,-240.548,-231.90261,-220.7762,-209.0677,-196.9271,-189.1872,-174.04367,-164.59002,-151.47296,-141.86604,-129.47745,-119.52696,-108.46048,-96.800766,-89.718343,-78.99898,-73.202281,-63.307646,-52.79525,-43.324098,-33.547079,-10.550187,-8.0661755,0.30015417,12.124241,15.80071,25.687814,30.869125,52.905996,49.836269,65.890622,72.89839,84.683136,80.053588,83.640399,91.822815,92.034292,99.608119,109.37985,105.98916,113.60793,112.22573,116.66714,115.8031,130.46995,120.38967,133.26088,116.55942,131.72662,116.71616,122.64675,115.04515,115.5005,110.4469,97.64298,101.82071,89.727437,101.55328,96.812423,97.584147,97.392098,83.834739,94.812857,83.86343,87.420783,79.724062,81.439173,79.926008,78.679232,78.373597,67.064821,76.654795,67.887748,75.512402,79.526946,74.04965,80.071355,78.112855,83.397507,81.113173,84.055505,82.846376,84.935852,84.435129,85.150938,82.703788,74.616219,81.911827,75.083197,88.7817,74.408343,84.691837,76.074319,81.849366,75.61355,77.194281,71.163509,80.959722,77.46787,82.460864,58.690652,77.312212,60.887788,80.854793,60.481792,73.892844,59.573462,68.27976,59.162584,61.675117,53.616393,52.713724,60.10645,52.917129,48.633582,43.676753,41.649086,49.401585,36.984614,44.105951,33.974615,36.158504,29.073467,31.435641,23.550404,22.796691,14.816554,13.999414,8.5715768,18.847985,6.5222433,15.778557,-2.5643665,9.267667,-15.982718,-1.1598577,-18.182006,-1.6957733,-19.825651,-10.507495,-23.059399,-19.125615,-28.614641,-26.073046,-34.606732,-21.102159,-34.602107,-24.044697,-29.732756,-33.80035,-33.78247,-36.085962,-46.575876,-39.251319,-49.123705,-36.667989,-50.826837,-43.294802,-48.601636,-47.067711,-50.392961,-51.268468,-54.52975,-54.071506,-57.323927,-47.414401,-66.695163,-46.371929,-71.036564,-42.486736,-65.795856,-49.935968,-60.414306,-53.037779,-58.989039,-57.667617,-60.583554,-60.551633,-63.456987,-64.289831,-68.285453,-68.335674,-67.630112,-64.642653,-52.696457,-72.054429,-54.678194,-67.37842,-58.214758,-65.475379,-61.728152,-68.106513,-66.461792,-70.658401,-70.291291,-75.898368,-77.01628,-69.019837,-75.453629,-79.96453,-82.916593,-82.422634,-76.32451,-85.849073,-79.11805,-86.257149,-86.818861,-90.187003,-91.121802,-94.625804,-98.81038,-89.368599,-98.920084,-90.21938,-119.50577,-96.70561,-120.79669,-107.85883,-111.01805,-114.27534,-115.80653,-119.95349,-120.85035,-123.18536,-124.9648,-113.90195,-125.41198,-113.1558,-130.28391,-115.2993,-129.56236,-123.38014,-133.71836,-129.35903,-137.50989,-138.15768,-144.42039,-147.13377,-148.50879,-151.97041,-155.70862,-160.34662,-164.46236,-168.90892,-171.42997,-163.48207,-175.80406,-168.28494,-185.56898,-173.24811,-187.39416,-182.84007,-190.92097,-187.35798,-192.27488,-190.64114,-194.65421,-193.96188,-194.17501,-192.20648,-192.97495,-190.45977,-193.25671,-180.827,-179.53376,-161.92629,-168.00786,-150.29402,-146.50698,-133.97456,-126.40616,-116.26585,-108.17109,-95.891473,-86.378768,-74.556531,-65.471179,-40.665487,-34.722754,-9.7914804,-10.355713,5.454603,18.372149,30.173257,46.690568,67.795848,72.977915,93.256975,102.81099,119.91432,130.88427,142.78928,167.53367,173.55266,196.98198,194.88592,218.7872,220.61857,233.24947,237.65372,251.72918,253.33363,276.85828,268.84212,288.60156,285.90321,296.79076,295.41521,292.90523,302.24935,313.25528,309.4968,320.62146,321.66893,326.07942,327.40851,327.96929,329.17954,329.86239,329.2574,328.4973,314.93038,322.33985,310.15405,313.60304,330.95128,312.40487,328.9644,320.29878,317.71566,321.36194,315.04549,315.55016,311.45579,310.30169,306.94603,302.80407,287.74966,293.92398,280.38383,292.93535,271.73018,277.73883,264.7789,264.80839,254.83747,251.55681,240.62299,237.56713,227.42104,220.35871,209.65051,199.74205,188.52711,170.67507,165.675,148.62918,150.8121,125.64154,126.12633,107.24343,100.51776,82.912972,75.597739,60.093326,50.575252,34.370512,24.73617,9.2303642,-8.9268844,-15.274181,-32.279555,-29.573652,-50.748105,-42.155253,-57.8275,-61.004184,-74.92804,-75.655673,-86.83642,-88.432816,-97.850413,-103.36845,-108.26791,-112.6349,-116.57201,-120.8116,-136.14707,-128.82557,-140.48553,-135.33303,-134.94157,-128.57422,-131.05279,-120.2668,-120.36634,-121.22739,-114.63132,-116.31852,-109.72253,-109.5587,-106.61271,-105.7172,-103.16945,-101.24034,-100.02467,-98.443486,-110.77505,-101.03493,-104.14559,-84.648163,-97.045747,-81.881672,-102.22376,-82.545715,-96.679743,-89.623166,-99.284421,-96.925438,-90.281334,-95.592403,-99.66037,-92.744986,-95.76865,-93.186622,-94.969149,-93.284183,-96.329019,-96.319705,-99.218857,-98.772505,-102.62555,-90.96987,-100.29892,-89.964452,-91.582453,-98.056762,-101.54999,-98.434005,-102.74908,-98.669265,-92.531968,-100.4936,-93.494194,-96.637302,-92.590982,-94.846339,-93.442023,-82.157567,-87.753781,-73.860742,-89.312235,-74.454161,-84.025414,-75.192298,-90.191317,-75.126621,-87.264273,-67.811297,-81.314049,-68.42387,-75.866217,-68.971816,-74.450889,-69.443161,-59.426834,-62.093279,-53.298453,-66.785545,-51.488579,-59.631212,-63.986123,-58.089029,-61.805923,-60.110568,-48.319676,-57.271427,-47.534531,-53.16671,-46.56491,-36.889238,-37.152495,-29.685165,-41.399781,-26.189309,-32.496092,-26.160309,-29.610624,-26.181928,-29.912382,-30.908124,-28.702179,-30.904285,-20.354719,-28.921546,-19.054549,-24.558281,-21.063475,-10.342636,-14.679148,-2.1696435,-4.2987772,-5.3362775,0.77772177,0.54041745,3.4330013,-6.0212083,3.7531857,-3.5083953,3.6487792,11.055658,6.0392032,13.526569,9.7875248,14.540916,14.073006,16.679326,13.529631,28.587742,21.704691,34.454538,21.624753,34.780436,25.216461,34.551987,19.66761,31.925271,22.329412,37.808058,26.404474,36.932056,31.370345,49.553802,39.460004,54.380776,39.732637,58.281244,45.70013,55.473269,50.103092,55.980993,42.287674,56.246292,44.022741,62.793155,48.979787,61.196183,54.242933,71.601809,61.826101,77.843897,74.702157,72.031915,80.839509,76.022791,82.973334,80.547612,84.984158,70.740975,86.587497,76.509877,97.122385,80.772447,95.993259,86.92704,96.240449,105.93223,104.96781,113.9719,103.4743,118.19137,111.92396,120.2402,104.13554,121.13895,110.48043,119.17994,122.95391,117.73884,122.06898,119.82201,110.62874,134.06932,118.45641,134.6149,132.7128,132.41907,151.92368,141.19571,154.99345,152.91094,162.72273,163.33592,167.06708,169.25909,172.54197,166.31506,178.04997,180.34257,178.448,185.19095,189.56972,191.76921,194.34906,185.60931,193.75222,184.40515,187.35777,179.58229,179.71059,173.03213,168.67647,161.88438,142.1885,145.23794,126.98267,126.32897,134.82072,112.02719,120.29696,107.69307,97.52987,94.830979,79.863048,74.606833,61.64512,54.410807,40.819076,21.562832,18.400956,0.46414934,3.870839,-20.048755,-21.735922,-39.952681,-46.32734,-47.643916,-61.667902,-65.825961,-86.592943,-87.808017,-102.87805,-109.39378,-122.19386,-130.47861,-141.19337,-161.40953,-160.97665,-179.52753,-171.55436,-195.31814,-190.21344,-191.76486,-202.04453,-199.88985,-218.68209,-210.86514,-223.53747,-225.23796,-232.46747,-235.20966,-249.98924,-243.01478,-244.7056,-249.10706,-248.27207,-250.33583,-249.92004,-252.08477,-239.49838,-246.90741,-233.53909,-248.43944,-231.91734,-243.52133,-233.24939,-238.9102,-235.05849,-240.2577,-238.62124,-245.75613,-246.02175,-254.55601,-258.99128,-254.73425,-269.32916,-264.6356,-273.01401,-286.74699,-287.41417,-299.6888,-301.46632,-295.89511,-306.47848,-300.81655,-302.19903,-295.55914,-290.8035,-308.26714,-283.59596,-293.63558,-265.57111,-276.14697,-254.37799,-254.28288,-237.01824,-228.65199,-203.70948,-199.9857,-188.91161,-174.10603,-169.9392,-145.35615,-135.41775,-116.43996,-107.13431,-87.78248,-74.602009,-57.659694,-47.428799,-32.521097,-21.124702,-7.099564,3.8955592,29.421353,32.410299,47.379654,64.252324,64.882747,98.021083,90.495876,115.79751,115.4232,131.51192,134.47294,145.24648,149.26845,156.60959,161.50528,176.52509,174.75679,187.66229,178.66943,193.32237,174.77219,192.00092,178.92265,186.62682,189.2969,182.1251,183.34243,179.32766,176.6978,170.96255,164.44035,156.70182,149.32731,156.269,141.69424,144.7796,120.39671,122.9415,103.66188,102.95221,96.756729,84.910129,80.173976,70.846563,64.296077,55.129563,48.950647,42.255284,51.832928,39.635782,35.912982,33.109894,31.489731,29.281197,28.49318,15.827876,26.923788,17.616178,36.990459,22.40501,36.988619,29.546612,36.568142,33.177737,38.018889,33.025036,33.313342,33.214307,30.368899,31.631827,26.48391,14.612434,22.625232,11.058824,24.420819,7.8637774,16.779332,7.5742288,12.216323,7.0199347,5.9812154,2.3358945,1.3105538,-1.0396012,-3.6708607,-4.3750032,-4.0602703,-4.5894053,-10.954873,5.4862775,-9.9188431,0.28256116,-6.254554,-1.8407988,-5.0159269,-4.9370237,-6.8589696,-6.9041499,3.7958282,-2.9450591,1.04153,-5.4726823,1.3376466,-13.492123,-0.090026353,-6.6206328,0.17933622,-5.4802526,-0.46554045,-2.2836619,-2.2522371,-3.8675733,-3.2995782,6.3737262,3.5770653,11.031563,-3.8432737,10.640474,-7.2447266,4.5082282,-4.9605118,-0.69107309,5.6469604,-1.3970462,6.4510546,0.99417655,4.6680432,-0.018711858,4.7206035,-0.054175409,1.0966908,10.012511,4.0695633,13.558705,12.135531,5.7656819,12.230366,7.3731269,1.9111067,4.9659809,0.42840779,2.3575633,10.029677,2.253984,10.339251,4.2694846,7.7912598,3.8861334,13.268185,14.240915,18.217477,8.2198094,17.921335,12.039664,17.937618,13.02457,17.481176,2.6588588,15.8949,5.5540755,17.468581,11.626144,15.034674,14.143017,16.693691,14.674175,28.981947,21.320036,35.111945,19.642986,35.880012,24.252932,33.453218,27.696425,33.702655,28.933264,32.275058,27.647311,25.391667,22.353769,21.902959,18.740202,42.639337,23.058015,46.188163,23.473912,44.330355,27.951137,40.049643,31.982413,36.99866,31.167939,32.713282,30.046535,29.964558,26.075527,38.736152,29.056499,42.070111,25.80357,34.924744,29.863686,33.474257,42.980605,35.136869,44.057834,39.392886,42.560552,41.893216,43.161885,44.607007,41.588598,41.860779,40.815009,54.531409,48.021936,41.004954,47.324821,43.848969,58.975772,46.715158,58.205729,50.099941,56.966598,55.085588,57.453217,54.081147,56.927574,53.876005,64.741474,62.045373,69.486131,59.21118,63.066996,63.885653,63.142936,73.780103,64.576184,73.841794,68.69044,75.520761,70.686689,73.665981,71.618347,65.010053,70.070445,65.699699,66.698473,76.18462,75.98991,85.696246,86.445306,92.185494,83.50322,96.62592,89.489176,96.47875,90.1628,95.782533,81.557725,93.281361,81.25247,99.036811,79.591258,93.7677,82.008366,86.41796,77.90182,90.904532,79.891062,88.857604,78.175041,78.497213,71.288032,63.747831,62.905093,60.148363,58.46393,49.471491,48.516985,42.912355,39.209869,31.334541,26.268152,20.11717,13.360494,6.2879619,-13.835101,-10.292618,-22.426556,-8.5625124,-29.490657,-19.155805,-46.843102,-31.712675,-53.731926,-48.934584,-65.361389,-64.900848,-76.647659,-79.796546,-89.875069,-95.076834,-115.55957,-110.79858,-127.41154,-117.97659,-139.02482,-134.78685,-150.05267,-133.66926,-154.21904,-145.09794,-155.74164,-166.64263,-162.79356,-177.39866,-178.30744,-187.64001,-190.45273,-197.50316,-203.26289,-209.55144,-214.95437,-221.31757,-226.81066,-234.12488,-227.25887,-240.31645,-233.03944,-251.68662,-241.25983,-255.97599,-249.66791,-258.07127,-254.61049,-259.50148,-258.72004,-262.40145,-262.20703,-261.65564,-261.93763,-262.02264,-259.39531,-254.23186,-247.8059,-233.58923,-237.79474,-222.43307,-218.35818,-206.20011,-201.6071,-190.17485,-183.8211,-173.01238,-152.56317,-144.66731,-127.11249,-114.24216,-110.22478,-85.605992,-82.582903,-74.310329,-56.795685,-49.400805,-22.25588,-22.920358,-1.2419309,4.5323241,21.547098,42.805467,51.332919,71.879085,68.373254,96.313687,83.891052,113.39269,107.71526,138.04069,127.80086,152.90115,148.8846,162.99755,161.7944,173.24618,183.411,188.06875,190.80441,189.93126,196.59619,189.26268,191.27853,189.3929,198.52961,185.22446,191.98942,183.34408,183.45063,188.4977,179.00701,185.39243,167.14807,176.75048,158.78504,164.78451,151.37948,139.61996,142.79839,127.72676,127.63646,129.40525,119.13921,119.53636,111.12135,124.14183,112.34801,123.7199,105.91612,119.87289,105.6018,116.69873,95.962409,113.22661,98.203534,121.19869,104.02919,119.74955,112.9028,120.20817,117.40382,121.8205,121.84882,122.25286,120.27591,121.1767,119.69834,119.61162,117.75802,115.634,114.28824,102.9939,110.79046,98.842356,114.73444,93.776931,106.95013,94.053592,96.141549,88.562714,86.319184,83.422779,78.898199,75.620114,68.361593,78.31172,66.413156,76.492263,62.582139,52.236384,58.775003,45.677516,60.761305,41.428883,50.771821,38.901652,43.772611,34.460822,36.262848,27.316274,27.35784,20.309388,20.30043,11.700189,22.527704,10.208115,10.883036,-2.4558101,4.6211627,-7.914821,7.4133481,-13.262629,-0.051605557,-13.945672,-9.0349719,-18.590208,-17.648682,-8.4384926,-15.493185,-8.5440319,-25.818934,-9.6832225,-24.238735,-15.733017,-37.485662,-23.345079,-37.134369,-20.23938,-37.934533,-27.510436,-38.923348,-34.822274,-32.997944,-29.38471,-30.752134,-41.711253,-32.743218,-39.493174,-37.534391,-44.789065,-54.144836,-49.637396,-57.830222,-46.726987,-64.411952,-54.62027,-67.98996,-63.453383,-57.177998,-69.21646,-60.469423,-65.908407,-73.977348,-69.96674,-79.868709,-80.868495,-85.734616,-99.24144,-93.164669,-106.6116,-100.10614,-108.41324,-107.72442,-99.593047,-108.72144,-99.997297,-118.3689,-104.03764,-117.76352,-112.82461,-120.56012,-119.12962,-123.18906,-124.98639,-128.44012,-131.71555,-144.05327,-138.21813,-147.56622,-137.02924,-152.80404,-143.79621,-140.78975,-143.52778,-136.82574,-154.21296,-139.26409,-151.74723,-144.99057,-151.01167,-151.25671,-162.95613,-154.07744,-162.90302,-151.67972,-165.79869,-156.34095,-165.31087,-160.64248,-168.03635,-153.80117,-165.11969,-152.34289,-171.05363,-156.20044,-170.9674,-165.91564,-181.03192,-170.94922,-183.09677,-171.31806,-185.78318,-175.64011,-187.80392,-181.16312,-190.33312,-188.48421,-183.22631,-183.47509,-180.76977,-179.15367,-192.75052,-177.17344,-190.52814,-181.68813,-192.84543,-189.63413,-196.61556,-196.71401,-205.69456,-206.95609,-216.48902,-219.7769,-227.0168,-233.55581,-228.42501,-240.17658,-234.38995,-252.19119,-243.42644,-257.74233,-254.07869,-260.61757,-259.5317,-262.54023,-263.76456,-263.86978,-262.40614,-262.83915,-260.04618,-260.03269,-242.17212,-245.03331,-225.93617,-234.75466,-211.58255,-215.86618,-199.64975,-200.3476,-181.63191,-165.81564,-160.70504,-141.03093,-130.21792,-113.34218,-102.05045,-84.669166,-71.387529,-39.919654,-31.714816,-3.3133796,4.2065882,18.774247,44.28826,57.819039,88.611983,95.270065,123.73755,136.64836,160.75865,174.16331,193.68905,207.95846,226.39892,240.53253,254.86494,257.84431,293.52124,292.79582,333.23195,316.73271,354.61387,348.18306,373.56483,372.78883,388.11053,390.12516,402.73249,404.53442,400.97511,413.14038,407.50029,428.28473,417.66739,432.4079,427.60481,432.753,428.61433,423.21993,425.5901,419.41637,419.18521,412.67429,424.6579,408.15135,416.08759,402.62439,400.65909,410.59983,403.65314,418.15577,399.90456,416.53552,404.79142,416.73172,408.34485,415.95305,410.05752,417.32788,400.52215,414.51226,400.75826,407.4895,411.68733,401.88871,403.53475,396.05751,394.13304,387.41615,382.9291,372.77215,364.53345,355.99075,347.30802,336.0267,314.82714,314.28196,302.78893,288.54231,279.64515,264.02208,252.0386,237.8443,224.68179,210.24768,193.96644,178.82967,162.57706,147.78133,132.52713,102.73,99.454453,70.84612,64.529895,52.321025,30.200582,20.860538,2.1070763,-5.5336663,-15.772247,-25.477505,-50.771493,-49.81574,-71.052514,-74.228069,-92.211084,-97.807993,-112.08064,-118.74203,-128.77513,-137.3033,-156.33798,-153.91593,-155.74214,-150.66475,-158.93508,-163.63231,-160.18075,-164.21228,-159.37711,-165.11966,-161.11771,-163.51529,-158.41226,-159.00631,