ConstAcc,0.5,0.20431,-68.33286,-62.66592,-56.94643,-51.22127,-45.53415,-39.92559,-34.43307,-29.09106,-23.93112,-18.98196,-14.26954,-9.81714,-5.645411,-1.772488,1.785952,5.016609,7.908482,10.45279,12.64291,14.47428,15.94432,17.05237,17.79963,18.18903,18.22519,17.91435,17.26427,16.28416,14.98461,13.37751,11.47597,9.29423,6.847618,4.15244,1.225919,-1.913889,-5.248168,-8.75742,-12.42154,-16.21991,-20.13143,-24.13466,-28.20785,-32.32902,-36.47607,-40.62683,-44.75911,-48.85085,-52.88015,-56.82532,-60.66504,-64.37833,-67.94474,-71.34434,-74.55783,-77.56663,-81.20858,-85.56185,-87.90024,-87.74207,-87.41857,-88.06259,-90.53259,-93.78859,-96.42041,-95.47703,-91.44513,-86.19284,-80.12625,-75.85354,-71.77099,-67.85894,-64.41959,-62.00886,-60.35748,-58.86514,-59.14287,-60.13224,-61.39112,-62.40546,-60.2319,-54.78786,-47.29867,-38.7186,-31.25846,-24.41418,-18.13743,-12.51514,-7.948697,-4.90757,-4.418443,-5.336673,-6.93704,-7.368826,-6.239485,-4.115585,-1.089895,2.752769,5.784779,7.759756,8.902635,9.414325,9.28907,6.587845,2.214315,-2.859138,-6.251223,-6.607438,-5.140119,-2.628074,-0.6350803,1.232271,2.744513,3.482599,3.371899,2.69958,1.733755,0.4388381,-3.262511,-8.436653,-13.19361,-16.47676,-16.73656,-16.49595,-16.61421,-17.32829,-18.46687,-20.11683,-22.71403,-26.4175,-31.01225,-36.02137,-43.32321,-50.25337,-56.25703,-60.76213,-61.398,-60.68602,-59.49912,-58.60588,-57.95983,-57.51834,-57.29845,-57.83666,-59.66065,-63.72226,-69.11008,-74.66464,-78.46608,-78.64062,-76.59163,-72.80046,-69.36789,-66.76741,-65.23683,-64.36712,-63.67779,-65.0386,-66.98087,-68.93865,-70.44332,-68.9894,-66.1324,-61.52667,-56.65301,-51.39634,-45.60521,-40.66957,-36.74407,-34.01631,-32.40275,-33.41693,-35.41425,-37.86419,-40.60858,-41.18738,-39.45633,-36.09453,-32.253,-28.87495,-27.68781,-27.92163,-29.26035,-31.81125,-35.35061,-39.28033,-45.53016,-49.96478,-52.48732,-53.35908,-50.13702,-46.41163,-42.65795,-39.97568,-38.76357,-39.04869,-40.17573,-41.84823,-44.45005,-48.25608,-54.13746,-59.49366,-62.91553,-64.23628,-63.11108,-60.95615,-58.17375,-55.50281,-54.10646,-54.78014,-57.19508,-60.69195,-64.86634,-69.84268,-73.68398,-76.29975,-77.28396,-76.90326,-79.49204,-83.49439,-87.655,-90.91211,-92.52584,-91.5614,-90.0462,-88.86545,-88.04468,-87.32989,-87.18833,-85.83127,-83.48487,-79.62541,-77.16197,-76.17672,-75.79201,-75.18216,-71.17651,-65.80178,-60.68535,-56.75121,-54.1857,-52.3217,-50.77834,-47.48706,-43.63984,-41.21569,-38.857,-37.09874,-34.927,-32.63031,-27.36012,-21.33047,-15.61228,-11.28208,-8.836963,-8.233269,-6.757784,-3.622259,0.3918197,4.572833,6.255148,3.835039,0.5852553,-2.282012,-4.641347,-3.912062,-2.256763,-0.7286351,2.236888,5.330087,8.039385,10.84784,11.77447,11.05288,8.754642,3.063857,-3.170887,-8.407896,-10.54328,-11.7077,-13.50898,-16.20308,-17.03933,-17.08262,-17.09545,-17.17303,-19.4809,-22.64494,-26.75012,-32.12108,-40.68907,-49.59094,-57.41325,-62.01408,-64.96365,-67.98892,-71.53838,-72.75804,-72.82527,-72.65959,-72.47669,-74.56293,-77.5463,-83.9875,-91.11425,-97.72571,-102.5708,-102.9029,-101.7657,-101.244,-102.05,-101.5783,-98.61735,-94.07287,-88.64849,-85.71154,-86.88301,-88.9647,-90.93935,-92.6533,-90.88884,-88.32974,-85.67166,-84.01447,-84.03676,-85.58408,-87.86522,-90.07817,-92.56208,-92.95874,-92.20382,-93.22021,-93.25783,-91.91108,-91.68895,-88.86468,-85.90886,-83.31332,-81.92199,-82.27993,-84.15042,-86.78718,-89.39031,-88.70984,-86.6189,-84.69103,-84.2186,-85.93339,-88.10286,-86.99604,-85.59731,-84.49504,-83.99154,-84.73995,-87.12927,-91.20491,-93.69144,-93.46509,-91.15639,-88.36492,-85.42223,-85.47098,-86.81352,-88.5603,-91.05805,-97.58351,-103.9138,-108.5336,-111.9531,-114.8126,-114.1927,-112.7674,-107.6552,-101.2243,-95.14239,-89.40043,-86.95054,-85.54599,-84.25441,-83.20208,-83.54262,-86.30796,-87.86187,-87.77259,-86.42041,-81.18022,-72.09291,-61.21893,-50.05812,-42.73851,-38.89221,-36.70893,-34.60624,-32.17376,-29.85395,-28.05215,-28.15686,-29.14428,-29.08097,-25.32227,-21.13679,-14.8583,-7.496456,-0.271897,3.660433,4.005704,2.492596,0.7371689,-0.9780407,-6.322118,-12.5011,-17.68149,-20.9581,-19.72669,-15.22077,-10.80287,-7.187552,-4.230802,-5.332783,-9.244637,-14.96625,-20.53167,-24.8523,-28.1705,-34.57165,-41.37604,-47.08637,-47.52991,-42.09876,-35.87857,-31.4816,-32.53192,-35.9823,-40.55666,-45.77955,-51.55454,-57.01508,-61.27775,-64.73758,-71.93953,-80.07108,-87.28204,-88.67451,-84.58911,-77.13866,-70.52172,-69.1645,-70.1816,-71.83168,-73.69795,-75.79997,-77.31887,-77.34837,-76.15982,-78.52371,-81.20601,-81.67485,-76.92205,-65.02105,-51.43385,-43.25593,-38.82312,-36.34794,-34.40412,-33.13013,-32.92431,-32.68815,-31.46208,-32.94588,-34.48166,-35.58196,-35.9786,-32.15973,-28.38438,-27.4273,-29.87479,-30.20484,-28.8723,-26.35859,-23.23234,-19.82265,-22.00975,-26.66888,-30.29126,-33.20363,-36.19055,-39.91234,-42.83616,-41.05296,-39.13589,-39.34579,-40.53483,-38.43347,-34.15345,-29.30136,-24.95144,-25.91043,-30.54203,-34.03349,-35.64934,-32.35187,-28.97561,-26.65446,-25.36789,-25.48158,-27.3438,-30.17384,-30.32396,-26.80941,-22.58778,-26.83347,-33.60045,-39.35116,-42.51486,-41.8089,-42.07973,-44.62217,-48.77874,-54.82696,-60.35777,-61.84981,-60.81215,-58.22245,-54.97881,-56.47596,-62.05164,-70.39431,-79.48363,-87.913,-96.114,-105.1027,-114.6506,-123.9587,-133.0755,-141.723,-146.2682,-149.5355,-152.8994,-156.6813,-165.0045,-176.1314,-189.6695,-204.195,-215.575,-224.5025,-228.3607,-232.3801,-237.4403,-243.3171,-250.8802,-256.323,-262.9606,-268.4107,-269.1068,-267.3777,-262.8528,-258.664,-255.3853,-251.6916,-247.8314,-244.4049,-240.8179,-236.1558,-229.9024,-223.4079,-211.3963,-196.4905,-179.61,-161.3157,-147.0879,-136.505,-128.0527,-119.7305,-110.3628,-100.4469,-91.30955,-83.02583,-75.05823,-70.92882,-61.38614,-49.24115,-36.48277,-19.31006,-6.587827,2.803816,9.740012,16.03906,22.43126,27.8671,27.06722,24.53097,22.67269,25.41,33.40967,43.27667,53.25719,63.37417,75.16781,88.86472,99.22393,107.6398,114.9642,122.6337,131.7608,144.6013,155.8086,164.3008,172.2111,183.5422,195.3612,205.6841,209.3517,210.8144,212.4898,210.0599,207.8107,206.5876,206.8388,211.7958,215.1679,214.782,215.8145,217.2685,219.7632,221.8249,219.4468,214.8227,210.4094,207.9919,208.5453,208.3607,206.3775,202.6134,197.9057,191.8274,183.8756,174.8574,165.9263,158.1899,150.7975,142.7919,134.1281,125.5472,117.478,109.7871,100.7609,89.84357,77.73014,66.09962,54.87739,43.19594,30.61638,16.8888,6.891163,0.03353674,-5.640516,-16.6961,-29.19165,-40.76765,-47.68952,-53.89295,-59.74108,-61.44006,-58.46163,-54.86776,-52.46632,-56.35815,-61.58201,-64.49187,-64.91183,-63.89937,-62.31046,-59.48106,-54.61351,-53.03783,-49.92235,-45.4382,-40.37554,-34.8584,-29.57776,-22.50298,-16.05839,-11.29788,-6.783536,-1.740407,2.37153,4.892561,2.891991,2.098793,8.087088,14.18972,18.28872,21.96467,26.05834,28.19734,26.8936,22.41083,15.56398,8.075972,1.252758,0.4909627,1.511357,2.598577,-0.6294647,-2.688813,-3.685134,-4.30072,-0.1146133,3.60477,5.832614,6.849708,6.587975,6.999302,9.514981,13.00735,11.76717,8.307135,0.2559422,-5.082344,-7.381595,-4.281454,-2.760606,-4.559484,-7.936572,-11.56188,-9.993614,-7.941932,-6.264738,-4.203453,-6.209994,-8.651055,-11.13745,-12.39398,-12.16542,-16.62686,-20.64031,-23.78677,-26.14737,-22.85555,-20.30322,-20.76968,-24.19239,-28.79183,-31.81951,-33.37318,-35.39058,-38.96976,-43.33366,-51.16186,-57.48411,-61.51389,-64.87209,-63.56446,-63.46864,-63.42479,-62.53357,-62.18094,-63.24583,-65.00015,-67.61721,-71.61666,-77.0113,-83.11324,-83.83571,-80.83009,-77.5433,-75.70702,-74.03422,-70.58934,-64.9832,-62.32562,-61.21073,-60.29609,-58.00155,-54.48197,-49.93064,-46.1628,-42.93559,-38.66966,-33.35401,-27.78711,-23.50549,-19.74373,-15.81976,-11.45845,-0.9710657,10.14486,19.97098,29.58855,35.24611,43.96219,51.0801,57.17366,70.05538,82.06318,89.9226,89.1794,88.45178,96.05401,108.0252,121.585,136.4396,152.081,168.9751,181.8468,194.1269,206.607,224.0614,240.3542,254.7039,267.3799,277.8568,287.3365,293.851,304.4099,317.1303,330.0632,346.8791,355.1015,360.5836,365.0283,368.0667,370.3723,372.4636,374.4507,375.0108,373.4006,369.8149,366.8771,366.1993,369.1769,366.8821,359.1996,349.5688,340.5591,331.5245,321.0943,309.3743,297.3937,285.8223,273.596,258.9927,238.469,218.8971,202.0644,196.4132,188.1986,175.6442,161.2765,142.7576,124.4592,106.9325,90.1988,75.05089,60.20436,45.66192,30.96084,15.51505,-1.523149,-12.66556,-17.97691,-21.58702,-19.64591,-24.59563,-29.69761,-32.7117,-35.04965,-38.05646,-41.37038,-44.23042,-46.24827,-48.56072,-51.2843,-52.79693,-53.0156,-51.9986,-51.74135,-51.52491,-50.15745,-48.02044,-45.95068,-50.4085,-53.44875,-52.32687,-47.3433,-40.22856,-33.10291,-25.78446,-17.20199,-1.474108,13.8622,26.37013,36.94221,47.26298,58.99779,72.02371,83.2812,92.70026,100.5703,108.861,122.8814,136.0941,147.0348,156.6362,159.5266,161.3773,163.59,171.2846,179.1694,185.7907,190.7825,193.9954,194.4364,194.8383,196.2232,197.7171,198.125,192.0907,182.1178,175.4483,173.1176,172.2713,166.0449,152.5648,140.9121,136.8972,135.8505,135.0179,127.8466,123.1746,122.5472,126.2782,127.8059,126.9824,126.4724,127.1678,127.946,127.4408,126.3398,131.2222,137.4911,139.2739,135.4554,126.6953,122.5306,122.977,127.5467,131.8641,132.4634,131.6552,131.4201,131.0363,130.1934,134.0036,138.3935,136.2371,130.7873,127.4152,126.0571,131.5367,134.6574,134.5683,132.0747,129.5611,127.9686,127.7212,121.5569,115.7586,112.3129,113.6248,119.4091,129.989,137.2043,135.3084,133.9422,135.9372,138.4605,137.5589,133.7126,129.1056,124.4731,118.6129,110.7518,101.5391,92.36518,84.29178,75.1998,63.37691,47.89302,29.87333,11.32866,-7.598235,-20.41568,-32.86634,-45.47496,-56.46109,-65.56012,-74.68052,-83.68224,-91.07254,-103.1049,-114.7094,-125.8629,-135.703,-143.1391,-148.4929,-153.1206,-163.0358,-169.5128,-169.903,-166.6596,-158.6243,-150.428,-145.2288,-141.2996,-136.4784,-130.2449,-124.5811,-119.5094,-113.5613,-110.2886,-104.9532,-98.0044,-90.05647,-76.56877,-65.62856,-57.47328,-51.22833,-38.92344,-25.16819,-12.48763,-3.521975,-0.2714442,3.262114,13.12786,29.56401,40.67614,53.40223,67.91481,84.84711,108.2367,127.3304,139.3754,150.7417,165.1939,181.9799,197.8404,211.9906,224.0872,231.7594,242.4974,255.2472,271.5607,285.0721,301.5096,317.562,331.4397,339.22,340.9883,341.0769,346.7472,355.9257,364.3636,370.16,380.4792,387.9287,399.7523,408.6505,414.3606,419.8888,419.2637,418.4015,417.9634,417.8911,417.011,415.7175,407.5516,407.5357,409.3645,416.4847,420.695,422.9009,417.2069,410.7166,406.0441,404.2852,402.494,398.0015,391.7739,385.5963,380.4088,375.8997,370.5201,364.5372,357.3302,348.9005,342.3828,335.1911,326.0906,322.5527,316.6049,308.7043,300.2304,291.5861,279.7865,273.0662,268.7035,262.1228,258.9955,251.4301,242.0533,233.5073,224.4123,214.5431,204.3581,196.3123,189.388,179.934,174.5489,168.137,161.359,155.1847,145.1731,132.1187,114.3689,102.9505,95.97626,93.60851,85.77364,74.46945,63.98349,60.71868,58.64273,54.55484,50.1959,41.19734,35.10373,30.63416,25.09948,14.87621,2.743068,-5.250032,-10.94745,-16.63686,-21.93826,-19.54575,-19.39575,-15.10765,-12.25956,-10.3965,-6.900181,-7.857388,-7.556244,-6.61062,-5.521585,-3.627791,-1.275632,-0.8024877,-7.229093,-10.14397,-2.743401,11.47566,19.20178,15.17196,8.92797,6.080938,5.513966,4.730957,1.943915,1.048615,6.203287,11.69469,14.66398,9.746043,8.534415,5.029167,4.809748,9.884284,10.1811,7.210145,4.110186,3.619085,4.041334,2.323805,-1.816452,-4.89179,-13.22891,-9.71412,-5.545133,-3.450466,-2.611216,-2.890079,-3.869315,-5.72646,-7.982574,-8.405657,-8.44288,-8.886975,-12.65209,-17.63396,-22.00856,-25.95677,-30.64005,-37.51497,-45.76443,-56.74574,-59.30775,-60.7862,-58.56301,-61.26363,-72.31638,-80.49428,-84.46954,-88.55146,-93.01995,-90.77587,-88.28203,-86.90125,-92.2995,-100.6641,-102.242,-98.77766,-90.47412,-86.59099,-84.97369,-80.90373,-77.04787,-74.82972,-74.09868,-73.49093,-71.72621,-68.793,-66.23838,-71.49567,-74.10864,-65.91505,-56.7872,-44.44194,-45.15298,-47.62493,-46.34831,-42.40884,-38.25819,-36.75173,-37.8155,-39.58983,-46.56643,-49.97776,-52.32474,-54.96105,-46.60202,-37.2981,-31.56099,-28.80497,-25.71025,-20.08486,-19.09632,-16.71672,-13.57868,-11.70946,-11.69396,-12.28229,-9.595786,-6.762434,0.377727,3.48556,5.248356,6.802597,9.47444,18.40271,26.57578,33.40854,32.0611,31.38889,26.34045,26.86383,30.75757,35.58643,41.04464,41.05014,40.22228,40.58623,41.81083,40.91403,45.25105,48.79067,51.64487,47.70082,41.31786,38.39413,37.72575,43.79433,44.70551,41.18715,36.53303,34.13778,32.6582,39.14128,41.99878,42.07775,42.61872,32.36773,28.79799,29.60208,30.16368,36.75145,38.08606,36.29083,32.86864,29.77426,27.53907,26.44282,25.23578,21.99905,16.86256,6.742455,9.164247,14.08066,20.56811,15.42734,9.841286,7.541821,8.71877,7.577871,4.696366,1.471543,-0.2374997,-7.749371,-11.69669,-6.436258,-2.03807,7.324125,12.52976,9.595786,7.882362,8.506417,10.07287,11.99388,11.81966,9.884965,7.782155,1.114403,-0.9057098,-1.475256,3.943473,14.0072,18.23568,21.51498,17.50897,15.76238,15.92451,17.63921,19.10989,17.21031,13.38963,8.976675,2.385914,8.330116,13.75517,22.26986,25.09041,19.6783,18.56151,19.81235,21.18318,20.63282,19.89688,20.10929,19.13287,16.2054,7.641041,7.816656,14.95207,22.31425,27.23085,21.57653,19.60203,21.94004,23.92572,23.6864,21.5721,20.5391,21.10818,14.43341,10.57643,16.41979,28.29762,33.61299,34.05919,29.8784,29.19251,30.86599,33.77692,27.34376,24.49326,24.42066,24.80445,31.80213,41.00598,44.27438,45.96027,50.70966,50.08399,50.70026,51.21159,50.14123,44.12814,42.6951,43.18016,42.31686,41.11536,47.21331,56.81515,62.94486,65.70223,69.27414,67.36318,69.56066,73.37754,74.43971,72.01622,66.9499,67.0394,68.71906,73.74648,73.93484,79.28441,84.26881,87.53719,83.44699,79.44681,79.2746,82.99524,84.68054,82.66568,78.5974,74.08753,70.35105,73.66344,72.1368,67.55494,64.00422,48.22146,40.12648,34.95816,27.88065,26.83879,21.42586,12.95869,3.421493,-6.022007,-14.72767,-13.86531,-15.48724,-20.87289,-26.66837,-43.51206,-50.26449,-52.84177,-50.79917,-55.30646,-61.35741,-65.95541,-69.26243,-73.27947,-78.26584,-80.92473,-75.69683,-79.20415,-78.91113,-84.57407,-79.55144,-76.00564,-75.16953,-75.01115,-75.78338,-74.86064,-72.06149,-69.89277,-69.48576,-69.47743,-66.83968,-59.68494,-51.92708,-42.99868,-41.43865,-38.88342,-32.98344,-27.19845,-23.76894,-21.40612,-17.73713,-11.68664,-6.84392,-2.077537,3.877032,12.59154,14.42913,26.06053,32.69209,35.06732,38.29939,43.45609,48.24167,59.07713,65.42141,70.01996,70.58026,68.75179,70.4681,72.76204,80.69691,82.02264,80.81999,77.95109,74.09702,72.16546,77.84176,81.62649,81.59558,81.23563,75.58073,69.35028,69.05101,73.98886,72.39129,67.2948,64.32854,62.44392,58.5226,53.23136,51.75004,57.08565,59.89954,59.83523,52.90597,47.3961,43.69993,45.51235,46.33848,53.15804,54.8269,55.52849,55.90354,53.93302,50.84215,48.17735,47.79954,47.3524,44.49447,33.67837,29.04352,27.85684,36.36403,43.81378,43.18148,42.82692,38.58566,38.62044,38.27447,36.23987,32.31834,26.54407,25.46591,24.53671,29.43848,28.19951,33.86559,39.18955,42.57962,37.47587,35.48596,37.92799,41.27223,41.41442,40.28243,33.05226,33.26563,36.29351,50.07269,56.25906,57.82497,54.22684,56.77147,60.36954,60.90885,60.72309,61.71767,63.57468,63.72437,55.139,52.49221,60.88717,65.86272,66.527,57.8279,60.80077,62.60028,63.18722,63.28713,63.59824,64.02637,65.29468,66.31849,65.28596,70.86215,74.09196,76.4636,72.37453,66.43905,64.37911,63.87382,70.61599,70.69881,66.4664,61.91435,58.08946,55.69587,61.06788,61.95656,59.58872,57.57102,44.748,39.27689,37.51888,33.53702,34.82186,30.77689,26.34186,21.66388,16.99298,10.4656,13.29218,14.41718,12.44971,2.627632,-4.738805,-11.98077,-16.70435,-20.36583,-25.89296,-24.83583,-28.85723,-33.66484,-38.3337,-44.09945,-50.67651,-53.06912,-49.6799,-50.24997,-53.04323,-64.75314,-75.41207,-76.61066,-78.16317,-75.29105,-80.28765,-84.9502,-86.9877,-89.46919,-93.33346,-89.3781,-87.85424,-85.59561,-85.01995,-97.71684,-100.8729,-99.2613,-96.56379,-91.45957,-93.32889,-96.01073,-93.56171,-83.90517,-78.32494,-75.09525,-80.53725,-78.70134,-73.57633,-70.36766,-76.7173,-78.62108,-75.90416,-73.03093,-65.37667,-64.21974,-65.35622,-55.8038,-47.80342,-42.25277,-44.34008,-46.13463,-43.6243,-40.4321,-46.91524,-49.28009,-50.76967,-51.22994,-45.8488,-47.64229,-53.70956,-51.0738,-50.27663,-50.20605,-50.15286,-50.2588,-48.76362,-56.90377,-61.21405,-59.27795,-59.35131,-53.7502,-54.91615,-56.63353,-57.81266,-58.93162,-61.65515,-63.87641,-65.24257,-57.90377,-56.87411,-58.21908,-62.24656,-66.8142,-66.59747,-59.54734,-60.62753,-63.02766,-62.83943,-62.40811,-64.64102,-67.65222,-69.52736,-63.88374,-58.89343,-58.4059,-57.85466,-70.2289,-69.98289,-66.94881,-60.42317,-63.16973,-65.44304,-64.85875,-64.10605,-66.27207,-70.14462,-71.90803,-66.47527,-69.16365,-67.78155,-65.03579,-69.913,-62.19767,-59.26599,-60.04726,-61.33739,-60.95921,-59.11927,-58.44702,-60.36141,-63.23597,-65.11231,-62.20241,-57.66815,-54.97784,-54.67431,-55.33345,-53.68012,-51.42586,-51.49733,-54.05219,-54.89378,-54.53222,-62.9911,-67.07247,-61.64359,-59.6747,-56.55505,-51.54323,-50.51879,-50.33449,-48.44038,-45.56383,-42.91218,-42.03168,-42.62499,-42.57851,-41.91583,-42.17862,-44.7927,-40.17292,-37.7738,-42.59084,-40.13824,-44.59725,-46.12333,-38.10748,-36.77914,-37.61744,-40.56734,-44.07966,-48.01008,-51.11701,-54.76356,-52.50934,-55.59651,-59.51459,-61.53646,-70.30643,-77.60464,-85.20601,-99.19156,-105.5432,-110.7703,-113.708,-119.9788,-128.5094,-130.8394,-127.4193,-129.2409,-132.5393,-144.1449,-155.0998,-154.9188,-155.3136,-160.235,-156.4495,-157.2146,-158.854,-159.9861,-161.5326,-161.2893,-152.6318,-147.2901,-143.4091,-148.1212,-148.6379,-149.4472,-145.4643,-143.1369,-133.8851,-132.4435,-130.5915,-126.3798,-123.3836,-122.2127,-120.6576,-109.4018,-101.338,-96.00995,-100.3059,-105.7132,-101.0464,-95.77942,-94.11225,-85.03417,-83.27629,-81.04611,-77.33672,-65.58543,-60.47368,-56.27211,-48.95896,-49.28573,-46.85005,-44.65547,-43.09749,-47.95043,-47.20049,-46.69621,-46.68847,-38.35623,-35.43115,-27.50893,-23.40943,-21.59744,-29.45314,-31.32889,-32.68893,-37.97794,-46.9121,-55.52916,-64.06588,-72.43104,-73.06413,-79.47828,-86.29383,-89.17848,-90.7955,-96.41231,-107.9683,-122.5962,-127.4525,-130.0742,-135.1675,-141.1171,-145.3728,-138.4538,-137.5146,-138.6285,-138.2838,-136.8023,-132.8414,-118.9049,-109.3667,-101.4333,-92.4459,-93.85932,-88.76936,-80.02494,-73.17128,-59.13356,-51.65864,-44.68903,-37.86721,-31.5241,-27.25511,-22.0062,-24.04255,-18.62423,-13.02247,-8.558374,12.62212,22.7974,29.88916,32.01707,35.9067,43.29236,49.80288,52.90439,54.36255,54.84692,51.95346,64.48279,70.7245,80.32788,83.53555,78.9176,81.98948,85.27303,84.37981,82.43038,80.98049,79.77375,77.56255,72.31208,59.07468,56.46683,61.72394,67.32895,62.71591,47.69006,42.89598,40.3871,33.71495,23.54323,13.15046,4.240251,-11.82817,-21.06998,-32.26897,-44.80085,-39.77291,-45.05575,-52.75099,-58.78499,-74.14605,-81.71669,-86.60261,-93.86983,-103.503,-111.7137,-121.2353,-131.2202,-136.237,-142.0156,-140.6005,-145.1328,-139.0461,-134.8988,-131.4084,-127.8689,-131.9876,-128.7435,-124.8564,-124.542,-126.2125,-132.7045,-129.4932,-126.5442,-119.6011,-120.3594,-120.7399,-118.5729,-116.803,-118.4655,-120.3158,-121.7792,-122.8031,-124.9288,-136.6943,-140.8102,-132.5915,-129.2091,-120.6483,-117.6164,-114.6433,-108.4871,-110.4018,-106.9178,-104.6371,-104.1252,-103.055,-100.5835,-107.6111,-107.7065,-108.1827,-109.5401,-96.72284,-90.75599,-89.7842,-88.01983,-93.99297,-92.00378,-90.57116,-92.50738,-96.59535,-105.4241,-104.5242,-93.3296,-84.66008,-85.5309,-83.72488,-86.21881,-84.38014,-83.54084,-84.57544,-86.23946,-86.49044,-86.81442,-89.68105,-100.9158,-102.2411,-94.27626,-90.75901,-84.9351,-93.26416,-93.58338,-90.42959,-89.11866,-91.14548,-93.29943,-94.92724,-95.36345,-95.81069,-99.48701,-103.142,-104.1622,-101.6009,-100.0557,-101.9864,-104.7236,-105.9627,-106.5082,-108.2181,-111.3967,-115.6603,-119.5136,-129.2702,-121.5124,-120.1191,-121.1439,-112.1882,-117.7873,-117.6644,-117.0126,-117.7001,-118.032,-118.0868,-118.6534,-120.8167,-130.1096,-131.2221,-126.9761,-112.8984,-112.0898,-112.2173,-116.7677,-113.6459,-110.4704,-110.4184,-112.1449,-113.7972,-119.0197,-117.3706,-116.4191,-111.9367,-113.9457,-105.3934,-100.9923,-99.58336,-106.1963,-106.579,-104.8615,-104.0309,-107.5328,-118.5904,-120.8239,-121.5841,-122.4154,-119.3663,-113.4962,-113.3672,-111.4847,-107.5102,-113.2173,-115.2254,-115.9838,-116.4182,-117.9382,-121.9867,-126.9061,-138.7214,-141.1805,-143.3214,-131.3725,-132.3837,-133.6948,-129.8749,-134.998,-136.2041,-137.7387,-139.6709,-139.9739,-141.0892,-144.2267,-155.497,-158.3564,-150.1441,-146.8032,-139.8579,-147.565,-148.5412,-145.3363,-144.4241,-144.95,-146.8479,-149.0621,-149.0087,-149.3839,-151.7242,-154.9769,-155.8052,-152.8813,-149.7294,-144.9145,-145.0464,-144.1,-140.9486,-138.3093,-137.2627,-137.4954,-137.8693,-137.8637,-136.4808,-137.548,-140.9874,-144.477,-136.5245,-135.5668,-134.1588,-140.2148,-142.1496,-141.4746,-141.6151,-144.4265,-148.6111,-152.001,-153.7903,-145.7161,-145.1947,-146.9714,-146.6073,-153.1283,-151.8764,-152.6121,-155.7637,-159.3155,-161.4468,-162.4,-164.4675,-167.9904,-162.0251,-164.0779,-163.9661,-167.891,-167.5786,-157.1755,-157.6512,-156.5809,-153.9227,-152.452,-150.9171,-147.922,-135.735,-138.4671,-134.3626,-136.6789,-133.9696,-127.3499,-117.2109,-115.2935,-113.5829,-109.1172,-104.948,-101.6649,-100.1442,-89.25185,-83.05457,-76.65757,-77.01786,-68.83316,-65.69989,-61.46682,-56.59287,-54.16679,-52.54346,-54.30531,-54.09863,-55.62101,-57.67281,-61.36186,-66.57999,-60.05134,-58.87732,-59.23228,-69.1454,-73.78458,-75.79596,-78.55435,-83.94524,-89.38121,-95.44088,-100.4735,-105.0902,-107.9212,-114.5507,-109.7958,-115.9165,-112.1095,-99.87019,-105.1847,-104.833,-99.20217,-93.67832,-88.55219,-84.17699,-78.66832,-71.67049,-62.78133,-54.59292,-48.64741,-41.01231,-28.78308,-10.03105,7.71112,27.1188,39.81432,55.93508,75.96747,95.09692,111.8611,129.3341,148.316,160.6616,180.8086,200.2961,218.9358,239.2733,268.1406,288.9054,308.6031,327.1462,347.0593,367.8807,386.5089,402.7718,411.4596,428.0106,444.4092,459.0034,478.0094,488.3523,498.7858,510.8034,519.1969,525.6507,522.178,527.2111,531.4193,532.8874,539.2879,537.5629,535.1597,539.5769,543.2441,540.0508,537.3387,523.7974,514.4741,510.5301,501.1534,489.4251,486.8461,477.0185,464.0955,462.9773,452.5863,443.4956,440.0751,434.089,418.9805,408.8768,393.7419,387.0907,381.5484,376.0067,369.8769,361.9377,357.9548,355.8501,361.087,349.0042,344.0555,334.6107,331.9072,329.1831,322.6199,328.0919,323.6992,321.464,319.2181,315.4416,313.6549,312.7704,311.2232,298.4679,296.9255,295.5899,292.1591,296.1935,292.4349,287.446,284.6486,283.2096,281.4095,275.9261,272.057,266.8585,274.7041,273.1715,262.5541,258.3119,255.9105,253.2186,250.8027,247.1404,242.2897,230.1857,228.6922,227.7861,227.7354,222.3177,218.1716,225.5105,223.6292,221.7876,205.5813,203.2946,204.2314,201.3618,197.1748,201.936,195.6025,192.1993,201.4871,200.5751,197.8106,199.0773,193.7845,188.2164,189.1602,185.2991,190.9673,186.7985,184.1709,180.3919,176.4267,179.6115,173.4267,172.065,172.3469,161.5356,156.4411,161.7205,155.5317,148.454,140.8669,144.726,140.5546,138.3541,129.3533,119.8519,115.1872,120.0633,112.9785,105.571,99.31772,92.40478,87.54094,88.8184,85.19924,79.31934,68.46273,58.20924,54.50857,48.87571,49.33599,40.42153,32.99079,28.44509,22.31022,14.05777,6.668656,9.256458,6.356504,-8.053064,-15.97185,-22.92515,-27.21919,-31.57763,-29.43119,-37.11011,-44.36667,-47.33783,-40.30601,-41.09995,-43.19974,-41.98112,-56.47105,-56.7576,-57.40916,-61.10675,-64.21858,-56.58418,-58.86101,-61.48701,-51.4518,-51.00153,-48.42661,-42.38527,-48.06301,-46.82752,-49.15017,-54.76025,-51.0428,-44.5472,-44.7276,-46.98117,-45.67368,-46.52725,-45.60657,-48.86096,-51.66381,-52.40834,-62.22772,-62.91319,-66.70942,-72.74632,-58.85978,-61.44109,-66.31461,-73.96174,-77.57976,-81.83394,-87.25944,-93.36075,-100.8464,-105.6558,-107.253,-109.5975,-109.1041,-107.0442,-121.9407,-124.0234,-126.54,-131.3483,-137.8322,-144.6776,-153.942,-151.9529,-153.4294,-156.974,-149.7394,-163.3707,-163.5414,-166.4495,-170.5083,-176.1884,-179.349,-176.2785,-175.391,-178.4847,-187.2385,-183.7695,-190.5717,-189.3927,-185.0528,-188.7373,-190.8908,-188.5244,-188.803,-180.7999,-181.2313,-179.0869,-184.8616,-182.5099,-190.5653,-191.9261,-192.4564,-192.9829,-186.2515,-191.0816,-193.7773,-183.8929,-181.3633,-179.0437,-176.0435,-184.6516,-183.7179,-187.5725,-189.4425,-192.1275,-195.1179,-187.5444,-190.1239,-192.755,-183.4441,-184.1797,-185.5825,-182.0561,-180.1557,-189.9331,-192.2583,-194.2523,-195.997,-200.2595,-206.1852,-212.7346,-218.9488,-217.7459,-218.0131,-221.7357,-223.8273,-226.016,-238.919,-237.823,-240.0693,-236.0398,-240.2178,-242.0633,-242.3304,-241.909,-243.5709,-240.6411,-229.6276,-225.0243,-236.0953,-233.143,-227.2865,-223.3898,-211.8824,-210.5857,-207.2334,-200.805,-194.0704,-176.5827,-169.0657,-160.9028,-148.0196,-144.4569,-142.8505,-130.1431,-122.7346,-116.1211,-98.29448,-90.86846,-83.19752,-75.1457,-57.74061,-46.8599,-35.79412,-36.19265,-28.82447,-18.61556,-9.57805,8.022197,12.1119,18.76278,27.34143,40.49919,54.26006,62.71765,71.15738,70.66014,80.89086,78.87982,86.60112,90.7146,93.47249,105.3098,107.7916,109.1273,109.8941,121.5661,125.2318,130.3093,132.3828,127.8225,125.7558,119.2475,115.6485,111.2364,104.4408,100.4642,98.18581,95.32126,98.88468,101.6476,100.3779,102.8705,106.5205,100.5614,99.49223,99.63684,98.34294,88.74876,89.57767,88.09731,84.6992,92.42115,98.12389,101.7802,105.2635,108.4008,102.9507,106.5111,106.2613,102.8779,98.70226,93.04255,93.71275,90.97956,96.94246,89.84259,87.93418,85.07291,81.23035,74.91093,69.2525,62.90482,60.59367,54.83259,49.52269,43.24259,40.14794,40.71785,33.9247,27.54384,10.96646,5.05007,-2.42286,-12.72508,-25.69434,-48.18789,-57.44268,-69.46238,-84.21848,-86.45167,-95.73638,-93.84313,-98.43126,-110.988,-114.3968,-117.736,-118.7212,-119.4512,-121.8244,-123.9315,-127.4895,-130.0235,-132.4948,-123.4694,-126.7864,-127.5283,-123.4426,-142.1855,-140.0992,-142.1915,-146.2847,-146.5269,-144.5561,-141.1511,-127.7324,-113.2697,-105.6026,-91.93139,-88.42361,-76.80255,-66.17287,-55.97875,-44.28063,-34.50876,-25.832,-16.92763,-13.68367,-3.81748,17.05781,25.36164,43.99067,54.28653,58.34005,68.63301,76.69378,80.81495,85.92711,90.60865,91.09452,89.38916,85.0413,80.55247,82.68026,84.3891,83.55233,92.55569,90.84547,91.80625,95.27169,84.88201,82.21178,80.11111,76.54009,70.79871,63.10309,54.75284,39.64483,35.61612,39.16095,36.6698,27.57686,24.40572,12.16393,7.936891,-0.6506718,-10.13126,-19.43803,-31.02523,-37.3603,-46.89189,-46.25748,-55.42309,-53.38807,-55.46979,-58.60105,-70.77242,-69.81119,-70.44668,-72.55421,-74.35681,-83.6945,-80.16169,-75.37576,-71.92828,-68.53209,-71.21089,-71.01792,-68.89396,-68.92219,-70.64428,-72.31136,-73.51884,-73.90278,-84.71107,-85.91729,-89.2705,-80.60274,-71.30975,-68.52603,-61.71437,-53.48153,-45.11387,-44.19301,-34.83021,-27.29349,-21.12148,-14.26285,-17.97193,-10.6154,-7.600705,-9.07336,1.797639,0.09888878,-0.2250738,-2.396145,-6.698891,-11.45454,-17.48109,-8.16682,-12.44319,-14.5421,-16.2128,-17.03668,-12.74032,-11.5452,-0.7318055,-12.89492,-8.818015,-6.689094,-7.891835,-10.37868,-11.48114,-11.00851,-12.24687,-14.06074,-18.0285,-27.31358,-18.13437,-15.70955,-7.34036,-8.411738,-15.39806,-9.584403,-8.339802,-8.053498,-10.6225,-9.53611,-9.417477,-8.969672,-18.71588,-17.65149,-18.56399,-14.31524,0.01746841,-0.4504262,3.127639,-1.364834,4.4316,8.871764,8.598687,9.290807,8.687937,5.005654,8.565998,9.16435,16.89053,14.37011,26.32129,30.74461,34.33973,29.27708,33.2782,36.97201,38.18823,38.1726,37.57514,28.56268,35.05115,42.87579,48.13716,52.0244,43.17869,49.65595,52.75778,51.81558,51.41526,50.43403,50.74134,50.66602,40.17641,39.96485,48.55385,47.80598,58.7914,55.29289,49.93848,52.9272,54.18323,53.26007,51.70733,48.93172,46.60053,44.6704,33.4266,45.21668,41.27192,40.65446,52.20227,43.31093,44.52656,43.89032,41.1073,40.77324,40.06165,36.96542,32.91418,29.7284,18.83098,30.34125,28.11382,34.80301,33.63414,25.21777,29.63088,28.81515,25.09094,22.75889,21.22189,20.97749,16.99928,13.02612,0.544772,6.217935,10.86662,13.05864,15.903,5.81936,10.2517,11.05686,10.01905,6.285429,5.665424,4.295316,3.408536,0.9731305,-11.58118,-11.11373,-3.759881,-5.17216,4.60193,-8.022938,-5.702466,-4.627374,-5.431739,-6.527909,-10.31791,-12.40061,-13.99448,-25.23248,-24.55673,-18.57158,-22.19758,-11.00717,-11.5509,-18.20445,-16.63116,-17.87304,-18.72432,-18.27726,-19.86884,-23.66581,-26.69789,-29.57534,-25.40707,-24.05425,-23.7368,-24.22908,-24.45288,-22.59,-23.58036,-26.86755,-27.93022,-29.32632,-30.65448,-32.27407,-37.00531,-49.05128,-38.34901,-39.52385,-36.91165,-38.66702,-43.34885,-42.54437,-43.34775,-45.02988,-49.25067,-52.6328,-55.94954,-57.52478,-61.40542,-64.85179,-65.05782,-64.84701,-62.67605,-64.18591,-66.65209,-67.4254,-69.70876,-69.92054,-71.43306,-75.90407,-79.62138,-82.90865,-84.71137,-85.85543,-84.07348,-73.27985,-73.60494,-78.25513,-74.13421,-74.66167,-77.41791,-78.4671,-79.25814,-83.1976,-87.40625,-93.03601,-97.95746,-90.83536,-95.51792,-97.96949,-109.6778,-110.0559,-111.5723,-116.5794,-121.5009,-134.0613,-133.9008,-135.3164,-137.1765,-133.7294,-139.1939,-127.7225,-125.6592,-120.3885,-119.6918,-119.3045,-114.3968,-109.2835,-104.7343,-111.1474,-102.6278,-99.0596,-93.2024,-77.95211,-76.33466,-59.93122,-49.87589,-37.82316,-23.31486,-21.06115,-9.719028,-6.655094,2.060813,11.63052,18.26679,26.19616,34.83214,45.32678,68.07803,79.22053,94.6843,122.4313,126.7582,147.328,163.4672,177.3326,191.6438,207.3414,221.0524,231.8474,243.1884,253.5469,269.482,275.1504,289.1903,299.1652,296.6837,308.0039,323.1001,322.6161,325.7911,328.914,330.5713,331.398,328.6711,324.3294,330.2102,325.9002,313.1377,311.0573,297.9719,290.4369,291.2657,278.3847,266.7471,253.8557,241.0025,228.914,213.9878,197.0583,191.1452,169.4213,154.9584,145.2009,122.5042,117.4882,97.29935,85.62745,72.55407,58.57963,44.67367,32.29536,22.26208,11.89703,13.48339,1.551401,-24.90809,-24.89399,-33.70389,-37.29185,-50.16017,-58.62396,-65.22759,-72.53926,-80.52534,-89.921,-96.87034,-109.0397,-116.0638,-120.5974,-128.8507,-124.9352,-133.2896,-136.2129,-138.1249,-143.0945,-134.8863,-135.0836,-132.205,-129.8247,-135.8127,-132.3506,-137.2992,-131.8819,-130.9365,-122.0212,-124.7197,-120.6004,-117.4016,-115.4346,-103.4924,-103.1159,-95.70438,-87.40679,-92.85787,-88.91577,-96.09974,-93.17768,-93.4228,-92.13435,-95.49746,-100.8406,-95.14044,-93.88077,-94.89016,-93.75182,-93.1692,-89.31257,-85.4654,-82.5597,-88.78843,-80.06431,-86.40402,-79.45666,-70.078,-73.58423,-71.59156,-67.38939,-66.05189,-65.37662,-66.50336,-66.26679,-72.61192,-71.90818,-60.6183,-56.17999,-56.8282,-49.96331,-43.3603,-48.91674,-45.82126,-44.49847,-44.18858,-42.07914,-42.61362,-53.92358,-51.53718,-52.89715,-53.96178,-34.50447,-41.26304,-36.75752,-30.93697,-35.93722,-32.33187,-32.78463,-33.36629,-34.01304,-33.64999,-35.20521,-37.90388,-49.26183,-41.8136,-37.41647,-34.64285,-29.14943,-38.97675,-32.28024,-30.38345,-30.66163,-33.79999,-34.94641,-34.53633,-33.75737,-34.53059,-46.54369,-44.59024,-35.72187,-37.30886,-26.94741,-37.60076,-34.88463,-33.46819,-32.33517,-33.41986,-35.64902,-37.09706,-42.85588,-37.95408,-33.40919,-33.85543,-21.20304,-32.82575,-25.80048,-22.53943,-24.54046,-23.27628,-23.37024,-21.35703,-21.41575,-22.48503,-24.4721,-31.39591,-17.92763,-17.68069,-7.870459,-17.56607,-11.25961,-8.131406,-6.207985,-6.800929,-7.118655,-4.511352,-3.643835,-3.405073,-13.44601,-10.86259,-1.132665,-0.175173,12.41012,7.334746,8.182776,12.11125,14.21481,15.25237,15.0343,13.13779,14.18707,5.351358,8.128661,6.577203,14.99884,23.31059,24.74847,29.64666,24.22297,27.42657,28.87605,29.0472,30.46623,28.36687,28.58311,26.4675,30.30331,31.61932,34.44077,25.01633,37.95107,34.6983,36.69654,34.96758,34.72098,33.36499,33.98652,32.6692,29.13704,38.35097,34.44036,32.52363,39.14917,30.52472,41.39783,37.60362,38.42048,39.58573,38.87813,36.88632,36.30208,37.25646,36.80335,25.72608,27.58604,36.70193,36.59119,48.9048,45.80321,44.27417,48.46593,51.05826,51.80797,51.10398,52.41207,53.17882,46.46659,47.79944,46.7391,55.15823,63.82702,64.12728,69.78753,64.43013,69.11127,69.9358,71.77503,72.15875,72.33249,71.41174,68.72929,69.70005,78.04524,77.81809,90.4654,78.30208,86.60304,88.49485,87.71448,87.22873,86.68615,87.33484,86.61832,84.85831,82.48236,78.53395,82.36467,83.45826,84.66866,86.1776,82.35866,83.95552,83.9634,81.97767,78.96825,77.216,73.99217,72.76771,68.79031,66.81299,67.82983,69.27825,71.83272,70.88612,68.96315,67.80201,67.77444,65.3751,52.94409,54.08661,51.06404,48.1937,59.16217,61.53301,68.12788,71.07038,67.09174,75.6526,77.74569,79.6309,81.13935,84.87646,77.83109,85.1398,85.09914,85.35926,97.38885,101.2325,107.715,111.8111,118.0009,112.5231,120.4898,119.5019,119.0384,117.3553,111.2878,110.2081,108.5909,109.2916,104.5939,103.3716,107.6751,103.6512,102.0229,88.43218,86.90604,82.45584,65.04378,62.44938,52.36036,43.93316,45.35727,31.98791,33.88816,25.0079,20.97135,18.01653,1.53107,-3.622669,-13.45226,-22.42292,-40.79784,-46.11545,-57.66452,-69.06953,-69.34367,-73.79959,-79.48464,-85.85683,-90.21494,-104.8703,-106.6152,-113.826,-121.1256,-129.759,-134.386,-150.395,-151.2244,-159.9706,-166.7761,-160.1045,-160.1748,-161.9147,-160.7099,-171.5437,-168.4208,-169.0168,-170.5936,-173.4769,-174.9353,-179.1131,-181.5286,-179.76,-183.1285,-173.3083,-173.3028,-159.5856,-153.9245,-148.123,-154.4834,-146.1626,-144.0065,-143.4558,-144.6962,-145.654,-146.9666,-145.473,-148.3036,-152.0515,-144.4292,-148.269,-146.9388,-146.2444,-166.6056,-162.3353,-168.5694,-173.4519,-166.8486,-163.0516,-165.3127,-161.955,-156.2171,-152.1102,-151.5095,-153.552,-150.6276,-151.5803,-146.7609,-145.859,-135.3961,-135.3926,-129.9851,-111.8464,-110.2384,-101.3978,-89.96195,-90.25365,-77.58748,-71.88426,-75.52821,-63.89574,-58.33452,-50.57582,-38.2563,-35.64219,-28.02101,-12.42919,-2.662778,5.771871,8.441755,15.37345,24.1899,20.47483,30.25054,31.67438,36.71035,50.5629,49.23634,65.6053,66.31423,74.66143,84.44981,80.08113,86.26338,88.08674,87.53885,83.08105,87.53048,85.59054,92.29115,85.03218,86.25363,96.17048,92.42085,92.75472,93.95264,85.15347,88.03027,82.72241,76.63491,63.89575,64.23987,57.26235,57.76175,48.23933,42.00539,37.19021,42.19716,34.79958,31.42893,29.87896,18.11049,17.8199,12.11073,-3.700377,-4.685879,-8.695077,-13.20252,-9.236023,-17.66902,-18.29361,-14.09128,-8.256245,-7.730222,-1.780389,-9.465006,-0.4955323,-1.404096,-12.4246,-8.294236,-10.60268,-1.244722,-6.581124,-5.213222,-5.982888,-5.508877,-3.969575,-5.021929,-5.640751,-16.46031,-12.80502,-14.9885,-7.746905,-15.11242,-4.487572,-7.129429,-2.604423,3.420282,-5.63698,-1.937005,-3.603149,-2.675804,-2.853399,-13.57842,-12.40288,-15.68057,-13.43013,1.860773,-3.471216,0.9036718,-6.954343,0.163032,0.3691142,-0.6350839,-2.372561,-5.874701,-11.98258,-8.920332,-8.444013,-9.790177,-3.32923,-3.738211,0.3619169,0.8024281,-6.108703,-5.824727,-12.12055,-9.81042,-12.67441,-5.70145,-13.82251,-11.15752,-12.19495,-2.263212,-6.189805,-3.74521,0.4374023,-7.304126,-2.824974,-14.73651,-11.07408,-11.66995,-11.83135,-3.461039,-9.664165,-8.293027,-5.417577,5.056106,4.663633,8.130325,0.2624485,8.095205,7.999803,8.639912,-2.383378,3.123134,1.696866,3.105171,10.15251,4.900608,5.597828,17.89425,17.74901,22.75771,17.43079,17.71242,21.69555,9.687611,17.26608,12.74757,11.54029,20.98121,15.29051,17.95047,14.24577,25.11309,24.08954,29.12744,32.22856,24.27108,28.28599,18.90606,24.12198,20.85134,28.36379,21.9256,22.90473,22.93293,21.65398,31.07006,26.64865,31.76497,24.07768,29.69197,26.31143,16.01301,20.32571,18.30957,20.6361,22.34949,29.18172,28.6305,35.10462,28.76192,32.30383,31.04911,31.17271,22.92316,26.86427,23.81461,31.3863,25.69492,27.40441,26.40643,35.33438,33.13384,37.32801,42.5027,34.94876,39.03298,28.50931,34.26394,32.98276,35.68343,37.84692,33.98705,39.04837,48.58829,48.8475,46.71973,44.90962,47.03625,47.43327,47.26284,36.52718,40.04115,39.43107,47.77964,56.74404,56.57152,48.79336,57.18401,56.95875,56.77828,56.57349,54.59774,54.64925,44.67333,48.72769,45.43664,64.91394,56.32284,63.74619,69.3029,61.49655,65.67169,66.2595,67.19216,56.85901,61.37853,58.56426,57.60876,66.74901,58.83949,57.73696,67.09945,54.88696,65.40752,65.65479,59.38815,73.13902,68.23287,72.16736,74.69054,75.42621,74.91194,77.92629,79.52736,83.0266,86.7729,90.59754,96.00927,100.3257,104.3735,104.2566,107.8292,107.6708,110.8381,110.8609,109.5592,107.6296,97.04368,111.0114,106.6992,117.1667,101.1927,105.037,103.9377,99.25965,94.44236,88.69334,82.95456,77.18915,70.35063,61.29642,43.32784,50.58934,38.55976,38.41766,33.30927,17.40047,14.65629,5.95729,-2.411791,-12.90457,-24.34757,-33.70033,-44.33232,-41.85991,-54.83687,-70.9755,-84.19351,-87.68851,-89.44393,-102.7404,-108.7115,-117.2513,-123.4206,-131.7958,-140.9206,-152.5752,-151.395,-161.9918,-164.7499,-175.4203,-188.3901,-192.5794,-201.1856,-208.4324,-217.7868,-226.4072,-242.5562,-243.1982,-251.3458,-250.8146,-246.6291,-252.2493,-248.1444,-243.4856,-251.9616,-247.1262,-247.2987,-244.6088,-241.6095,-239.5662,-246.774,-238.5172,-236.0362,-218.8468,-207.7236,-200.0798,-200.0907,-184.3137,-176.2392,-170.7331,-164.3128,-157.2801,-151.1466,-144.0508,-128.002,-125.7581,-117.8747,-116.168,-115.3081,-106.8098,-95.26756,-94.99504,-76.06566,-69.2049,-58.37566,-47.36532,-49.4449,-34.18556,-26.40454,-29.92067,-18.85057,-14.20894,-7.484727,0.2276193,25.86076,25.61498,38.98602,51.53715,52.56302,63.37162,70.1304,74.52778,81.50136,87.75985,90.7837,83.89913,91.69778,103.73,106.4618,120.778,109.8561,117.6556,120.6632,121.4173,122.8229,121.4575,119.0837,113.0453,111.6127,109.9657,104.8978,122.0933,111.9641,118.8303,114.9445,109.3743,109.2599,106.7656,105.7361,101.5459,98.14719,85.84815,88.89256,84.82681,87.49313,85.11305,94.43644,94.95117,100.9205,94.967,99.13313,96.27311,96.57622,85.88176,89.02511,83.34266,92.03148,83.60914,85.95567,83.12924,80.02716,77.66943,73.90749,72.95967,68.06315,64.14538,58.72562,62.93619,55.16504,58.59399,48.42604,56.3538,48.61163,49.86284,46.39177,43.37962,39.5936,37.42106,35.2084,32.0143,27.34574,25.34064,26.47364,29.43498,31.56047,34.84029,31.04343,33.21642,34.75434,34.35496,33.16831,31.57559,31.2659,30.74437,28.66472,16.73067,18.60937,14.91373,24.45176,29.38064,27.78296,20.69148,25.33104,25.05151,23.32643,21.37359,17.12335,15.8113,13.61896,-1.012796,14.50336,4.603283,8.912972,20.47878,15.79441,11.11758,13.90042,11.79538,11.64327,9.61859,7.441846,3.049483,1.936911,0.5584884,-3.833716,-17.65282,-5.576211,-13.47685,-0.9802747,-7.269894,-15.881,-13.65637,-17.34052,-20.8786,-25.14879,-31.16294,-37.59081,-42.03483,-47.80089,-44.49161,-49.68345,-51.36674,-52.95471,-55.07691,-56.95627,-59.17591,-64.02763,-64.51185,-67.79633,-69.63649,-72.8608,-76.98865,-76.94628,-74.73221,-72.01473,-68.36591,-73.82777,-70.52547,-68.85165,-67.72793,-68.21567,-68.95102,-68.27624,-66.45851,-52.87814,-53.44949,-57.01095,-57.27921,-48.67423,-45.13722,-36.98837,-37.60916,-32.36988,-27.40872,-24.79954,-22.8096,-20.76943,-18.70892,-19.99335,-6.229393,-5.865092,0.1530097,4.993414,8.917905,13.96914,15.85848,17.09431,19.00936,21.15948,22.05495,20.6912,19.09977,26.98361,22.52679,29.64289,31.22079,31.49112,31.52565,33.10454,33.53474,31.68041,29.5382,26.53674,25.23718,22.84842,18.34807,15.39474,16.05211,15.89757,17.65518,13.56044,10.72442,8.503238,6.309239,4.407067,-0.9320044,-5.575711,-10.69273,-14.27887,-19.45786,-21.81245,-25.10918,-26.3393,-25.59689,-26.38686,-30.47055,-32.56056,-34.5208,-35.01758,-36.40789,-38.81308,-41.82362,-44.02463,-50.17367,-55.00234,-56.77274,-50.20346,-45.98344,-47.93533,-55.65104,-51.68311,-56.42426,-60.05596,-61.89257,-63.83363,-67.26138,-71.92011,-84.29724,-81.86995,-76.63668,-75.42384,-75.36149,-72.61494,-81.45815,-74.44208,-76.95454,-77.81483,-77.973,-77.71672,-76.05157,-77.36384,-79.51462,-81.81837,-70.07163,-74.52746,-71.2086,-83.00921,-83.11082,-85.90388,-90.59337,-96.27113,-102.2941,-107.6825,-112.0671,-115.904,-132.5428,-132.373,-130.5237,-137.9774,-137.1156,-136.7419,-135.6261,-136.8995,-134.5272,-131.8757,-129.1577,-126.7231,-125.2572,-120.2019,-104.3712,-100.7189,-101.2992,-84.66102,-88.03447,-70.86806,-57.93471,-53.66481,-43.94316,-33.86902,-23.86015,-14.30383,-7.897814,1.516941,13.66035,29.55641,28.50601,47.29668,44.44619,60.9859,78.60277,79.22666,90.37209,96.41249,104.4339,112.3797,117.5561,120.8308,136.8372,137.8643,149.0884,153.8224,141.7315,154.7774,153.6724,157.8602,167.6702,162.7597,164.7581,166.1938,165.4459,164.8013,172.8195,167.6915,171.6419,162.9762,156.5229,154.0342,146.862,142.7203,139.1807,134.4003,140.0749,130.2749,129.7002,132.6415,133.9859,130.2682,131.6212,120.37,124.6679,119.1359,114.4026,109.9708,98.51609,101.6036,93.62272,99.68863,88.79216,100.6345,97.73394,103.1482,97.27282,98.95193,100.8562,104.1477,106.5476,108.4411,99.75593,108.2772,108.5367,112.2983,117.839,113.8755,116.9985,116.0744,115.3701,111.1063,107.8155,104.6341,101.0063,86.17659,86.24094,75.26826,68.31326,69.93222,54.25661,60.77418,46.25508,45.62423,43.55341,42.34849,36.91936,23.76036,22.8722,6.855129,6.706462,-3.981974,-11.42604,-7.722593,-19.08715,-21.43371,-30.61617,-23.4054,-31.85082,-29.8165,-31.78019,-43.14237,-43.41025,-51.01929,-56.61557,-57.06215,-63.60683,-55.94863,-66.99082,-63.2423,-66.26458,-55.27242,-60.35228,-54.51885,-49.80346,-57.9351,-49.64083,-53.49765,-60.21582,-51.79811,-54.4567,-45.05637,-50.84774,-46.64162,-44.51967,-43.09068,-44.13826,-32.7894,-35.03932,-27.12344,-23.8914,-40.65169,-29.55108,-34.77311,-34.727,-24.99255,-35.6381,-33.8801,-39.151,-40.72018,-33.12304,-39.24854,-36.65544,-34.00304,-28.95933,-35.45503,-23.35488,-36.26843,-28.44723,-17.56319,-22.67856,-18.37471,-18.4579,-17.9125,-14.98581,-15.0049,-14.09581,-16.03126,-14.88922,-12.68146,-10.52157,-6.351606,-16.74189,0.6102967,-7.211869,-1.638218,-3.468878,-3.550083,-4.121081,-2.730013,-3.965808,-5.555055,-9.386126,-2.862098,-8.212702,-1.60493,-3.635646,0.942601,-3.611026,0.08089482,-1.40336,-2.079381,-4.441522,-6.999968,-7.246466,-9.933147,0.5773508,-16.89565,-5.349745,-6.629463,-12.46232,0.7577903,-8.573607,-5.859644,-5.96434,-5.358357,-7.830646,-9.306488,-12.52726,-13.55392,-12.93938,-11.80382,-11.78123,-9.992753,-7.651067,-7.260814,-6.87562,-8.458985,-8.72586,-8.023483,-8.668074,-11.49929,-12.51213,-16.13168,-19.95491,-9.846992,-13.60163,-0.1613533,-17.92308,-4.351589,-7.972873,-6.317597,-8.791337,-8.916278,-8.790426,-9.225315,-10.25459,-23.62389,-17.29488,-11.57281,-12.91178,0.3918133,-15.74961,-6.319097,-7.600479,-6.440546,-8.097256,-10.16364,-11.27595,-12.37719,-13.86074,-26.48567,-11.00237,-20.6165,-4.317194,-7.450536,-13.57569,-8.082474,-11.70764,-10.17371,-10.98228,-12.78635,-14.61026,-26.95955,-20.89727,-26.55929,-9.27706,-15.62632,-11.66211,-5.792728,-14.73963,-8.14796,-12.07375,-12.52869,-11.89475,-12.94432,-24.10857,-20.40958,-26.24419,-27.49546,-7.240185,-16.99305,-10.28695,-6.898029,-14.89839,-5.705704,-9.195165,-10.30978,-11.76437,-17.10401,-17.23398,-17.92208,-21.51018,-13.10022,-15.00578,-6.760024,-6.598763,-3.370157,-13.65233,-5.37558,-8.35566,-7.802971,-10.94217,-13.98347,-22.40439,-18.86869,-24.03159,-18.11906,-14.18248,-15.89115,-9.475629,-8.381651,-16.55537,-12.11699,-13.56421,-13.30319,-15.13248,-17.64281,-30.00179,-25.08583,-30.30509,-17.65293,-18.59536,-18.61133,-11.12777,-20.33602,-12.27251,-17.03394,-16.48008,-17.98577,-17.57902,-30.44349,-23.40622,-32.41933,-30.09837,-12.03271,-21.84901,-14.11685,-25.97881,-16.61675,-21.01383,-19.86716,-23.34959,-25.25355,-26.32787,-37.08511,-32.89678,-40.32931,-30.07007,-26.04523,-26.71245,-21.15198,-30.74423,-24.94828,-27.59676,-26.9817,-27.68891,-29.23184,-30.453,-31.42194,-33.68226,-34.6259,-26.1506,-34.54921,-29.35532,-40.22692,-47.09065,-46.0248,-54.14307,-56.64952,-49.59073,-59.74167,-58.72006,-64.56736,-53.47947,-58.69195,-53.57204,-59.80657,-62.77872,-66.58815,-70.4373,-69.43497,-72.28184,-63.4291,-72.28016,-65.84674,-66.9269,-54.19987,-59.04127,-48.85766,-43.179,-48.12898,-39.27787,-49.19445,-39.38203,-38.5387,-31.78936,-24.91547,-25.41152,-17.7223,-6.630014,0.9280139,8.265229,15.47306,12.96711,25.87119,28.9857,23.01512,34.30141,32.69438,41.08052,53.55434,50.38621,56.97022,61.71177,76.81436,79.1241,88.34804,82.15283,92.44224,84.13908,95.5095,92.91849,94.98724,107.1425,101.6859,108.5169,106.3046,106.9278,117.9575,114.9671,119.759,107.5235,107.6561,106.6097,105.6605,106.6328,110.5335,105.8942,106.4879,106.7423,104.7005,116.6296,108.3062,114.9154,116.4052,107.5765,113.867,107.6167,106.106,95.36645,98.63524,91.2545,86.74841,94.34057,83.28489,96.97619,88.13965,92.17039,92.11962,82.31592,89.24291,83.96653,81.81508,70.28858,75.93875,71.18484,76.70724,69.55737,67.69776,64.24698,63.03138,55.80612,50.34121,45.47902,39.85802,33.59021,29.47145,25.21614,22.23209,21.61367,19.25948,14.52205,9.882181,4.511091,2.109491,-3.809633,-9.267278,-17.52001,-21.97071,-27.44853,-26.07526,-29.44629,-24.4519,-39.31063,-30.88246,-37.96082,-39.84736,-44.26738,-46.46786,-49.27672,-50.94587,-54.72244,-69.66949,-53.61098,-62.57607,-55.81922,-49.23033,-61.23328,-52.71082,-55.40491,-52.814,-53.12975,-55.6116,-54.16409,-54.66037,-65.98269,-59.05781,-53.07941,-56.20043,-37.00602,-41.28927,-42.87855,-37.1328,-37.85362,-35.39092,-34.90074,-33.85853,-36.31732,-35.99535,-37.27306,-25.373,-40.66086,-28.92909,-31.97308,-30.46796,-31.35824,-32.79349,-36.02795,-41.21566,-43.50327,-47.22364,-62.61385,-46.01983,-58.96538,-39.85928,-47.94729,-40.32098,-48.55604,-45.04808,-45.95295,-44.60554,-45.64091,-58.07408,-51.71916,-56.01331,-55.07319,-46.99577,-57.57801,-54.16899,-55.643,-44.62907,-47.56729,-43.79003,-40.45216,-49.85987,-40.65054,-55.20912,-46.70341,-54.3934,-51.17007,-41.94963,-48.90682,-47.41197,-48.43059,-36.20621,-38.37003,-31.53144,-39.92914,-36.20196,-37.31309,-45.78931,-39.60703,-45.92264,-45.72354,-37.12948,-44.64452,-40.84289,-32.00806,-35.68945,-29.66123,-24.27666,-32.50781,-26.83192,-31.35467,-35.97522,-31.95222,-33.88635,-24.54396,-32.74369,-28.22054,-19.69929,-17.37998,-15.27987,-18.71899,-15.53263,-13.99863,-12.98316,-24.51672,-17.09029,-21.89702,-9.092055,-18.21433,-15.43555,-4.648466,-7.13999,1.173764,4.296808,-3.544075,4.715256,-6.746677,2.920771,-0.9275021,9.058724,2.284246,5.95171,6.70455,21.73968,15.69008,24.37793,27.62682,22.77283,32.71135,29.53962,21.58979,30.27064,28.02744,33.76693,36.70628,33.95837,37.39612,38.03933,39.87365,50.29009,45.45103,53.04092,45.10007,53.17419,37.96635,45.07442,40.18015,40.83375,48.89567,54.54655,51.87674,61.22116,49.9548,60.99617,54.18209,54.97391,53.30533,44.40033,48.15215,41.41509,61.57946,50.64695,60.7583,63.21538,55.27646,61.69207,57.96008,61.48769,58.82878,58.13877,46.03842,51.83582,46.93719,48.82581,64.09887,53.80638,65.72842,67.79714,62.0377,68.94539,65.71772,67.08421,68.58447,57.21233,63.97542,58.09037,58.81747,68.90871,73.9965,74.62196,80.05241,84.17321,78.69755,87.98326,84.64618,85.29438,85.63232,77.67362,84.38363,79.05236,80.31939,89.67548,92.17293,95.53285,99.52207,89.17633,93.59202,89.75045,92.83949,90.14121,91.20506,101.1998,95.09881,101.4674,99.36423,113.4139,109.7685,120.2205,100.7074,118.4343,110.0396,113.8381,125.3923,119.5984,124.0824,123.3927,123.4927,136.4885,132.488,139.1352,128.163,133.4262,122.2095,129.1892,120.482,130.3453,117.2416,121.7916,114.7068,111.4265,103.803,110.5858,100.609,102.2899,94.59,83.20751,78.85363,64.17652,62.24624,49.35198,51.6195,33.22707,31.42035,18.66821,9.825179,10.57284,-3.253718,-4.361001,-10.52032,-27.92121,-40.93816,-46.4006,-58.83726,-63.78454,-69.38675,-82.71769,-89.48313,-98.65078,-94.32661,-106.3884,-108.6972,-125.069,-124.6981,-132.8326,-140.4813,-158.7699,-158.4808,-169.3659,-173.1676,-171.7875,-185.7288,-175.6883,-184.2475,-179.6324,-184.108,-191.4243,-190.0073,-193.9099,-194.6095,-194.2837,-197.3879,-197.1333,-198.2765,-196.4296,-184.0083,-189.4643,-183.6482,-181.3924,-189.1871,-181.1292,-187.5269,-186.3624,-187.2822,-199.8586,-195.1789,-204.8786,-206.512,-211.2272,-190.743,-206.2425,-196.5825,-200.4394,-207.7316,-201.5677,-206.4882,-210.2165,-212.2611,-214.7639,-204.9925,-207.708,-190.763,-194.766,-194.2767,-183.6959,-183.4115,-179.5166,-177.2296,-172.0441,-167.7511,-149.048,-160.4853,-139.7507,-133.2608,-131.4872,-107.3856,-108.5397,-95.19533,-86.87895,-77.37825,-66.37527,-60.015,-52.12123,-41.49012,-21.55842,-28.21625,-3.128633,-14.57814,8.740447,20.12728,25.08193,34.93186,40.79974,49.45516,57.62021,63.11343,66.66209,70.8745,77.65551,79.71503,89.22913,92.15648,86.08739,108.1636,97.63255,107.7589,103.6746,105.607,104.5678,104.6211,102.0121,97.93398,105.2015,90.10602,100.2604,96.6435,92.56731,89.35749,86.68572,83.39618,78.71837,72.47348,67.46296,61.48761,55.16471,48.84484,29.96477,43.1769,28.63639,33.20136,38.15215,20.73044,28.05107,22.43195,23.69724,21.29234,19.3601,18.59625,19.7985,11.01794,21.79435,14.66592,19.0211,19.23963,33.44905,24.44505,31.36974,27.14334,30.20825,31.41503,33.21521,30.16142,28.78416,23.40097,18.22404,32.42149,22.84042,39.32112,32.30718,43.81153,33.71729,42.25473,35.35386,38.75198,36.63425,37.3508,32.46438,23.63439,28.83557,33.97805,34.63621,44.42955,28.00464,39.86821,33.58473,36.05236,31.8896,30.22151,28.18876,27.72689,14.63113,18.49464,22.87258,19.14888,34.52283,29.1442,25.61339,28.19242,26.93807,27.15261,28.02961,23.65744,22.04604,16.37012,11.58666,11.86397,25.59043,15.89216,24.78322,25.51946,17.62178,23.75107,17.21644,17.83244,15.86638,14.01225,-0.7266415,4.666648,-3.949958,-3.213654,14.35097,1.946714,10.58342,9.925669,2.871598,10.27241,3.106474,4.124149,0.7858221,1.550776,-11.55031,-5.071673,-14.00757,-12.80255,6.567782,-4.175491,2.81797,-4.611563,1.40076,-1.673154,1.070102,-1.810008,-3.419983,-5.560688,-15.24892,-9.817546,-16.86469,-4.760814,-0.6048554,-1.806364,8.803557,-2.800954,6.437091,2.504967,4.858879,4.081299,3.555267,1.239068,-9.941672,-3.69897,4.806995,8.662112,9.227761,14.99035,19.86312,13.75401,22.85796,18.07696,21.61263,14.35329,20.6055,17.78394,17.96914,28.41971,25.75402,38.77399,38.51364,45.10374,36.98267,49.07771,46.35145,49.10769,37.69132,46.88941,42.02494,46.55986,51.43403,45.95745,60.69985,57.60756,65.71785,65.03054,60.31054,65.21855,62.9294,65.4094,52.01026,59.26666,51.49067,53.28892,60.01859,65.24125,63.53542,68.84318,73.22796,66.38123,73.24879,68.79091,71.05345,69.77574,60.13524,67.49251,59.8849,61.15582,74.1533,72.94287,78.85438,72.1042,74.32377,73.18106,61.56591,70.22407,59.86581,61.14388,58.6673,61.21139,66.14759,72.93691,70.91004,79.58717,83.57066,77.44161,84.40524,82.45103,85.36187,85.48022,75.14351,82.65435,75.52628,77.59228,85.10951,89.63916,87.60767,92.66433,95.6578,86.94466,94.41507,86.70313,85.78774,82.8613,69.46517,72.16347,61.86717,58.89732,62.21646,62.59765,59.65706,58.7695,57.38608,43.81505,49.30531,37.90648,35.10813,25.65167,10.85619,11.63672,-0.8577273,0.7907763,-14.2984,-4.470565,-17.18613,-16.61577,-32.84631,-34.24203,-43.50177,-49.13244,-57.59066,-66.03803,-84.87238,-85.42492,-87.4865,-90.96878,-90.34589,-97.35839,-108.1122,-104.6545,-113.9011,-118.9099,-125.0581,-130.3718,-134.9496,-151.3351,-150.0525,-148.1965,-155.6791,-140.4926,-149.4825,-150.7905,-148.4844,-148.0993,-148.0601,-148.5457,-152.1748,-154.1087,-157.4362,-158.9914,-164.14,-154.9447,-164.4053,-158.8393,-158.8468,-168.9895,-164.8452,-172.3179,-171.6499,-174.5792,-187.3171,-180.6798,-191.2253,-191.5192,-184.7166,-179.3869,-182.3729,-177.3043,-175.3195,-182.2454,-173.7158,-180.6229,-178.1225,-183.2871,-185.0578,-167.7215,-175.4726,-152.8928,-157.5564,-140.2279,-136.608,-134.5258,-123.4242,-120.003,-110.3284,-104.2018,-107.2941,-94.23663,-91.95589,-82.8198,-66.50815,-54.53482,-46.6658,-33.00984,-19.90696,-19.83591,-2.399702,-0.5804167,10.1903,17.3292,13.81568,27.96816,26.27474,35.09336,48.50642,59.91752,66.70383,76.43007,84.34011,82.65941,96.00699,95.02018,98.97751,100.5299,96.41126,100.615,99.72747,97.40716,108.3002,110.9438,113.7566,117.4803,107.4847,113.5162,108.3822,107.8054,104.7962,98.83734,96.50269,90.04681,75.98134,77.61137,64.52296,73.2677,72.48417,68.34045,66.58288,57.12713,58.31576,51.93541,49.00772,43.89833,39.14823,31.12643,23.70599,24.60396,30.87369,36.65197,34.69716,47.44555,37.91744,50.24737,45.28538,52.39271,50.86266,53.60176,43.19604,52.11225,46.11803,50.16707,59.31154,52.89176,58.24877,55.81932,57.87977,58.28832,57.90276,55.1998,54.70539,48.8266,45.23233,57.99491,46.31751,65.10585,56.08096,56.66715,59.51795,55.75454,55.43242,55.64561,54.67487,52.73337,48.81469,37.15011,45.82874,45.36197,50.68885,53.00863,39.98343,51.54481,43.67375,45.84145,39.5811,38.20616,35.69086,33.48588,29.89833,27.73737,28.49067,27.32867,32.28728,28.91089,29.04043,26.67491,26.16984,25.92244,23.79679,20.74422,17.33497,14.30639,2.489303,18.86863,5.284439,13.53847,22.58138,6.52627,20.78229,9.289264,12.5198,10.06205,9.925253,7.726023,4.289395,1.280442,-9.241384,4.376496,-1.394742,10.78341,5.213873,1.174563,8.164282,4.434167,3.742425,1.964238,0.6159177,-0.6335308,-0.4306226,-17.30495,-9.048463,-20.87884,-17.70448,-0.710233,-15.66643,-3.519914,-6.711993,-11.8264,-4.493973,-11.84265,-11.38891,-14.19078,-14.98097,-28.85595,-22.7108,-34.00643,-29.42256,-15.85328,-25.40047,-15.59141,-31.04012,-21.22753,-28.70802,-27.17694,-30.60354,-33.16132,-43.24741,-44.65615,-48.4024,-40.13881,-38.7318,-41.21419,-34.4181,-46.31325,-39.21158,-46.99763,-45.62494,-47.89673,-49.76867,-53.54584,-66.06294,-61.25135,-64.24847,-54.98265,-55.36865,-55.0693,-63.67569,-53.78716,-61.07873,-59.78648,-64.17163,-64.03638,-66.80672,-68.10357,-83.01516,-77.48572,-75.24894,-78.22731,-63.15,-77.60332,-73.58158,-74.60253,-76.16109,-76.87359,-79.11409,-82.75498,-84.44076,-86.13409,-100.2772,-94.70505,-91.35538,-84.80787,-86.59079,-81.0496,-92.65016,-85.90806,-93.6896,-90.69245,-96.51869,-98.52246,-105.4585,-104.6757,-109.7424,-98.03936,-105.9335,-102.1854,-103.8006,-112.78,-108.2749,-127.9816,-119.7056,-131.1919,-129.6525,-124.9342,-134.9481,-133.7294,-137.054,-126.3171,-129.9898,-124.8608,-135.6139,-126.9159,-130.8025,-137.9522,-131.0228,-136.2515,-132.2931,-121.5528,-126.1559,-119.5632,-105.236,-107.6716,-91.32188,-86.12391,-87.30367,-73.99362,-73.26002,-70.62779,-60.46477,-59.77459,-50.73146,-46.85702,-26.27716,-29.31211,-0.1385898,-2.455816,18.67149,29.17207,33.48846,49.80904,55.47567,63.03663,65.61485,79.47263,84.01695,91.43308,110.3677,115.7977,134.7352,141.5272,155.433,151.9488,171.1879,171.5784,183.2767,184.3798,190.6742,186.8791,197.6997,195.8974,209.4412,213.9785,218.9893,227.4219,227.5,225.5227,228.8929,225.7057,213.7786,219.0875,208.5404,207.7399,202.9976,202.0517,205.8748,206.6924,203.8468,207.3842,208.0102,197.26,200.7053,192.7495,191.5113,175.6514,182.5719,168.3191,168.6794,171.9268,161.17,178.4382,163.2048,172.1992,153.6384,163.5541,151.6377,151.763,143.7844,143.0864,126.8249,132.9,121.6427,120.7536,123.9343,113.2859,112.1754,102.952,97.43054,90.5837,83.83014,77.08978,81.50086,68.27816,67.18912,58.95039,49.25699,45.84053,48.99005,34.96836,36.76739,26.76684,23.64654,14.95807,9.488986,4.980837,11.43507,0.2326201,2.199758,-8.809803,-13.56067,-13.3932,-11.83315,-21.03566,-19.50168,-24.82511,-26.59381,-32.35866,-36.07463,-40.6387,-33.18205,-38.88987,-33.84033,-36.09117,-30.15049,-52.75685,-32.60391,-47.18677,-40.29767,-34.0422,-39.7667,-33.68853,-37.43198,-36.05255,-34.10071,-21.55449,-23.04079,-13.72737,-10.82915,-26.5571,-4.624182,-14.24539,3.146913,-3.117144,5.900269,5.905366,13.21882,10.80711,15.30552,14.08841,16.20313,21.91639,23.20537,15.83502,23.98741,30.48141,24.40503,28.51797,22.50255,24.16781,20.90933,35.76673,26.91172,36.03322,34.78974,31.64566,41.0131,27.63255,48.65861,32.15945,42.46399,37.4651,38.5722,35.06381,33.68291,31.09286,44.98107,33.21657,42.0907,29.7877,30.15719,31.17833,30.34227,31.24357,26.68059,25.99683,24.57653,19.74831,16.97894,10.96657,8.583463,17.38579,-3.465643,8.922594,1.204524,-8.175402,7.621021,-10.14262,-3.163746,-13.50186,-10.61777,-17.94081,-20.53834,-26.99409,-31.97738,-30.58183,-40.83937,-36.94527,-41.97961,-54.03661,-38.88702,-55.44326,-49.4646,-58.71503,-61.00746,-63.44633,-67.72571,-71.39978,-77.3169,-80.22349,-83.87466,-80.6807,-84.10437,-82.50764,-88.91388,-86.91396,-90.19792,-91.5488,-94.80164,-97.32276,-98.91363,-100.9878,-105.1674,-107.5806,-114.4927,-123.553,-107.267,-120.1751,-101.1836,-112.4292,-113.22,-107.6286,-111.9985,-110.4828,-113.7635,-112.7104,-114.2553,-115.2867,-129.6762,-122.551,-119.1491,-121.1837,-107.3257,-124.518,-114.2217,-120.6254,-116.9235,-122.375,-124.3995,-129.0674,-136.4942,-126.32,-132.0486,-127.982,-116.411,-121.3033,-122.0126,-115.1541,-120.1234,-116.194,-118.8469,-116.9609,-118.6904,-120.3236,-132.3169,-124.7938,-119.9566,-112.3897,-116.1854,-121.8346,-114.8012,-117.9187,-116.8146,-118.7498,-120.9573,-122.0782,-122.8758,-137.7165,-130.6493,-142.685,-129.1034,-128.4168,-129.0628,-130.5287,-135.2596,-133.5014,-133.5511,-137.2345,-138.9322,-144.7408,-145.8031,-150.4442,-154.4047,-146.4436,-167.0943,-153.2289,-160.9581,-167.0689,-154.3481,-168.5895,-159.3576,-166.6844,-163.2587,-168.4,-168.4168,-172.4482,-174.8462,-164.6164,-174.2057,-168.9904,-171.9249,-180.9026,-175.2536,-184.9077,-184.318,-187.4512,-189.6986,-192.8479,-194.875,-198.2416,-199.8328,-188.4354,-193.3926,-196.2119,-199.2063,-193.3972,-192.7548,-178.7611,-183.3895,-172.6538,-171.5616,-163.197,-157.7235,-150.9918,-147.5899,-137.6167,-127.8093,-115.3326,-104.4609,-92.17349,-82.45034,-68.43816,-56.83425,-45.31522,-32.67968,-22.01318,-8.754256,2.271537,12.40971,36.4728,41.49102,54.29139,73.28017,75.01068,95.2091,112.4214,119.5608,135.5665,145.1634,157.1362,166.6924,185.1052,200.4502,211.1113,228.68,215.3028,247.2466,243.23,264.4413,266.957,276.7125,283.8542,291.4978,295.4924,301.2676,315.673,317.2301,329.5828,321.7197,322.9294,328.0585,327.1191,329.8311,340.4153,329.0941,337.2446,328.1012,317.073,333.5181,317.709,326.3323,323.82,317.0114,323.0368,317.6495,321.0598,331.7208,324.969,332.6789,329.3039,333.3931,333.4255,335.2937,335.7039,336.1857,349.452,346.2608,358.621,348.9925,356.4081,356.9834,369.6651,363.2456,370.2504,366.6524,366.2328,365.1301,362.758,358.8533,343.3179,346.7514,334.8676,343.0414,324.9555,326.0707,310.7905,305.3879,294.2639,284.6834,271.2881,258.1574,240.5852,226.3238,211.081,207.6504,197.294,182.9497,177.2161,152.8891,148.3481,126.7565,116.7584,99.49006,75.34804,69.39427,46.67496,48.79929,32.90565,26.41487,16.81457,-5.388337,-6.34348,-21.86946,-30.17102,-40.77547,-65.3427,-62.59325,-81.4767,-74.71264,-96.12655,-96.13747,-109.0161,-99.39221,-111.5245,-109.8987,-113.8311,-134.1446,-121.0531,-132.5688,-121.9695,-130.7566,-127.3047,-126.3235,-126.0969,-125.6938,-128.1516,-112.8514,-116.2651,-106.2102,-111.4119,-117.4544,-106.0232,-110.4633,-101.8786,-97.54511,-100.0467,-95.06726,-95.90023,-95.00046,-98.50375,-86.75045,-97.04009,-89.12857,-104.2909,-108.1044,-114.7898,-124.9335,-118.4081,-120.5301,-125.3032,-126.7399,-126.7008,-127.9253,-126.4911,-126.0546,-125.7717,-121.7914,-143.0731,-126.7239,-141.2375,-136.0107,-130.2092,-138.4277,-131.0724,-136.2409,-135.3952,-138.1499,-137.4963,-140.025,-125.847,-136.7671,-136.9492,-141.5745,-136.8986,-136.9762,-133.7201,-137.3751,-132.8909,-134.1331,-133.4171,-121.5987,-126.013,-115.2125,-125.4543,-113.905,-130.8969,-117.0735,-124.6342,-117.5009,-111.335,-117.438,-110.9736,-106.96,-98.84432,-98.14683,-90.44236,-100.8637,-87.85761,-92.59031,-99.55583,-91.62761,-98.33942,-93.89806,-84.09645,-78.48973,-78.13228,-70.72206,-77.62523,-65.84012,-71.72663,-66.6727,-68.79308,-66.17006,-76.452,-66.68858,-77.13446,-46.2801,-67.16701,-43.20368,-63.18126,-46.76808,-57.19994,-48.50061,-51.95302,-50.16683,-51.54007,-51.67583,-48.97937,-43.84132,-42.06319,-36.48976,-40.62306,-32.60903,-35.4082,-31.68938,-33.45719,-32.24987,-32.01357,-32.28695,-32.69408,-44.74146,-23.58471,-37.25204,-22.77287,-17.64467,-26.62664,-16.42426,-19.08735,-14.30793,-14.68874,-14.93101,-13.7922,-14.53473,-12.95372,-12.07208,-9.478374,-5.565562,-1.904615,1.9972,3.848813,5.959349,7.476727,7.226084,11.73395,9.998583,11.14337,9.994931,7.406402,14.50292,14.97041,18.50677,34.26861,14.48306,37.41389,25.85782,35.63071,30.98715,36.28045,35.2838,38.03202,35.54012,35.24655,39.5958,41.86446,46.43788,52.87858,44.92352,53.85305,50.09444,54.98574,51.40091,52.7055,41.91393,51.64686,43.37174,46.58941,67.6673,53.3687,72.93394,69.44099,68.00152,75.99143,72.58409,78.42559,76.32085,77.92722,76.79744,65.84692,75.15025,65.60274,89.5781,73.62632,87.82531,86.08256,80.52617,86.09593,78.73238,81.0591,76.35115,76.23346,70.60861,56.25061,60.526,49.81236,62.59088,56.91045,57.95649,42.61198,51.62623,38.95055,39.93096,32.66636,30.97815,26.44535,22.14712,15.95308,8.818196,1.030447,6.043287,-6.434714,-2.080347,-25.45544,-20.13577,-35.80835,-39.50196,-51.61731,-71.16692,-71.98178,-88.39095,-83.56532,-104.8688,-92.78987,-112.4818,-104.8498,-113.5175,-124.8488,-123.1462,-134.3742,-142.8896,-141.9683,-148.427,-143.3885,-154.6829,-150.0509,-155.5902,-140.8056,-150.215,-139.3039,-144.643,-145.7513,-137.1562,-139.1459,-122.2456,-128.3474,-114.5457,-112.5009,-104.3703,-99.70968,-87.42981,-73.43364,-65.69507,-61.46949,-54.65693,-40.50218,-34.09598,-12.85187,-14.19677,3.559513,8.032362,22.29715,26.92347,36.97055,42.33352,62.57892,52.38233,77.84074,63.57223,84.01437,91.47023,93.83052,101.2857,104.1976,107.5628,124.0882,120.6505,134.977,135.1214,129.6656,141.0403,124.6451,139.5868,128.0773,131.4888,137.9438,129.0858,133.9707,124.8774,123.7171,129.7422,121.3285,125.1465,111.4004,100.2315,102.1777,89.4398,88.4401,85.3611,73.40242,71.42541,62.53066,56.08777,47.70285,52.79553,39.07015,31.73162,33.7707,17.80766,21.31098,25.06987,16.39237,21.7944,17.16425,17.21669,14.98275,14.41646,11.64663,10.12168,-3.993561,7.32058,-3.029212,3.992961,2.841556,-1.638671,0.3455907,-2.791696,-2.393188,-6.721929,5.383013,-3.089019,7.379117,-7.167371,-7.512822,-8.238452,-11.46577,-11.61693,-3.883211,-13.27211,-10.04975,-12.83011,-1.754654,-7.217919,-4.084224,-12.81697,-9.035474,-23.37344,-17.37859,-27.2642,-26.97805,-22.685,-24.64638,-18.27704,-20.88703,-16.94643,-29.35313,-16.8471,-26.49561,-23.22321,-29.17807,-39.36357,-35.27374,-42.634,-34.67677,-34.86114,-36.29267,-31.85328,-30.896,-40.27953,-32.7107,-41.6907,-44.65546,-46.31682,-47.94589,-52.59975,-41.32293,-56.09206,-31.68106,-47.50758,-32.89333,-37.30203,-41.45714,-34.36264,-38.79326,-38.72105,-40.99916,-48.47779,-42.08416,-49.01182,-36.83293,-50.78599,-40.31541,-33.43041,-37.05457,-29.30892,-28.59954,-34.49348,-25.35578,-31.60618,-38.4986,-32.7139,-37.90049,-33.70456,-28.03099,-35.7966,-17.45921,-26.08335,-12.69836,-15.51116,-18.89714,-13.47867,-16.50648,-25.99357,-17.0342,-27.76817,-24.75402,-16.44554,-11.49698,-9.158854,-6.110378,-1.023518,-10.58326,1.876601,-5.611714,-1.94483,-7.644797,-13.39163,-9.473249,-13.6666,-4.315416,-1.809117,-0.3430027,5.941212,8.216814,1.511825,9.456064,4.460637,8.522134,5.465049,5.82251,3.23554,-7.716341,-0.2024573,-10.21337,15.07792,-4.022249,14.23943,7.648368,6.401633,9.51827,6.058881,6.733568,5.913723,6.399105,5.034642,3.694567,2.747913,13.53742,8.015186,14.87796,3.205774,3.008906,3.603365,-1.550579,-2.471246,-5.386881,-5.878397,3.086812,-5.128442,0.301915,-2.990297,11.94188,8.723616,20.06069,-0.821307,21.6684,9.360186,32.41891,19.37271,34.64925,27.36273,37.67791,45.2001,50.74657,55.87026,51.60033,53.93763,60.9361,60.03534,71.99434,65.72845,73.56639,71.47248,75.31636,72.39413,72.61975,72.93172,81.00988,65.82083,81.1142,57.62217,73.86664,67.83466,64.98107,63.80663,57.38566,54.56276,49.55211,43.61739,36.22457,41.3071,27.58971,32.64036,13.49051,11.44619,4.176103,8.585452,-7.755069,-4.306948,-18.59904,-21.94785,-33.41745,-39.60846,-35.71785,-53.446,-50.9206,-62.6179,-77.8968,-78.54635,-96.24497,-101.6681,-114.4313,-122.8581,-131.3133,-141.0755,-152.4684,-159.6257,-165.1359,-167.6076,-172.0392,-175.1369,-180.0602,-181.2786,-182.9093,-185.5341,-187.3548,-188.5589,-189.3788,-197.9315,-187.2445,-193.6661,-187.0107,-160.1664,-169.1689,-143.0578,-154.0175,-129.8708,-129.7718,-112.0832,-106.7196,-104.4885,-84.10014,-78.27377,-60.03258,-43.63016,-37.64345,-23.16368,-14.3317,-3.072565,4.152392,10.13079,28.22551,30.25699,47.94064,42.8467,66.81436,65.67722,85.29976,90.23377,102.323,108.112,117.0248,124.2964,131.1043,136.3277,154.6153,152.0319,163.081,152.9183,171.5209,160.4405,170.2311,177.173,172.2878,178.1272,173.2265,188.3785,178.5425,189.9069,184.4031,179.7079,179.9364,164.1428,170.9789,157.9669,166.1613,148.9766,149.6974,139.2123,148.8781,132.1935,137.2649,128.0287,119.0098,118.7784,107.2632,102.8829,85.43109,88.9172,75.40609,81.81896,66.68689,70.32574,61.25237,75.15601,63.54781,71.31323,54.89719,67.38554,54.67866,47.589,50.11188,41.57332,43.34958,47.591,38.83628,41.27636,35.8906,37.71392,34.26544,32.59096,29.6357,27.87894,17.44567,21.04053,11.6529,11.84699,18.94599,18.08596,20.33964,21.37174,8.750447,17.3577,8.511725,10.19208,2.691498,1.380256,-15.01646,-6.691342,-5.224096,-4.852543,-2.522698,-1.713377,-11.44066,-2.845982,-13.10611,-10.84154,-17.5875,-16.40015,-21.09055,-24.33933,-23.47149,-25.65856,-21.61047,-19.49266,-20.02731,-20.46468,-19.68742,-19.97763,-19.8808,-22.13089,-23.84381,-26.3251,-27.41179,-42.74097,-20.29008,-40.07989,-24.39558,-19.50441,-32.03048,-19.75644,-29.18033,-25.76005,-28.14587,-29.82326,-30.4975,-36.1351,-37.50009,-38.04625,-41.57932,-40.18532,-40.94363,-26.96486,-49.11942,-28.42914,-43.86305,-35.44333,-43.54727,-40.06243,-43.48716,-43.59025,-48.67877,-59.02946,-40.61172,-54.40498,-36.89389,-54.83822,-42.85342,-49.31499,-43.97796,-47.63285,-47.61169,-49.08193,-48.47442,-49.56928,-61.63831,-55.61896,-65.15052,-37.79813,-58.68851,-38.62508,-59.04846,-44.61073,-54.53349,-47.4819,-54.98727,-54.34433,-68.43375,-61.16227,-70.92085,-65.02482,-55.76702,-66.45504,-53.19009,-57.43662,-62.16986,-58.17536,-64.8757,-60.95526,-65.37879,-75.61583,-69.92175,-79.92396,-76.8069,-57.98768,-72.2169,-57.93557,-62.21814,-67.71469,-58.22491,-66.14375,-63.061,-68.59853,-65.98344,-78.88744,-73.94768,-82.88243,-83.65177,-63.60898,-79.52913,-64.11175,-78.46951,-72.03683,-76.57478,-75.41751,-79.57965,-80.82477,-85.88753,-91.93928,-97.10274,-98.53651,-106.1526,-81.2311,-101.2384,-80.03151,-90.19406,-88.50027,-87.41995,-89.61917,-88.57602,-91.93338,-94.27639,-99.09194,-102.7228,-107.8261,-97.57982,-112.1708,-106.8283,-112.4925,-123.6496,-121.1757,-133.3392,-135.7565,-142.3619,-147.5887,-150.8891,-158.7483,-162.1804,-167.2124,-166.0522,-161.1948,-175.5176,-159.6048,-179.5364,-159.7263,-159.6919,-157.0622,-151.9984,-146.5322,-139.4557,-133.9927,-127.3983,-122.0516,-100.9271,-98.70982,-90.73892,-80.85314,-77.19569,-61.44528,-52.74111,-36.00008,-26.05198,3.142765,5.453838,33.9947,41.61624,77.73664,83.38629,113.4942,101.869,143.1826,139.6247,165.9509,174.5648,195.3716,218.1175,226.3554,248.293,270.1343,284.2533,305.0783,314.4116,324.9954,340.33,340.1663,355.1429,358.3107,373.3401,372.2268,380.645,379.1436,394.5143,385.8272,386.9175,392.5848,376.3029,393.6902,370.0088,377.0817,361.5736,358.2406,343.4291,333.2298,318.7986,298.1667,294.8826,273.4519,275.7814,250.6543,233.7494,222.785,200.1853,184.8632,162.864,146.5909,126.8401,108.7084,88.11554,69.60382,50.4804,45.46123,26.26982,33.93979,-5.799419,7.802197,-19.34149,-17.37142,-37.45213,-41.09523,-53.94397,-59.77691,-70.04227,-78.06393,-97.45653,-93.8683,-109.4489,-105.5665,-114.4724,-118.5153,-121.7887,-123.7809,-127.5788,-128.9036,-132.4507,-132.8188,-132.2218,-145.2644,-135.306,-143.4392,-137.5593,-129.3326,-135.1032,-114.0687,-122.9192,-105.0639,-103.3206,-104.0675,-94.39561,-95.72573,-89.41776,-88.63587,-85.03713,-97.87396,-86.07083,-97.45061,-91.87033,-73.18563,-87.14289,-67.90501,-71.67278,-58.07732,-59.17034,-49.3078,-62.67959,-56.99242,-57.65949,-58.73021,-51.70565,-63.07296,-56.69818,-48.94158,-51.70165,-44.9481,-43.93375,-38.02129,-33.71475,-40.96083,-42.85022,-39.97412,-43.1407,-30.49487,-41.62161,-33.98176,-41.34379,-38.3704,-33.15869,-33.5103,-42.90514,-42.32923,-46.32989,-46.52188,-37.75218,-48.03268,-43.08697,-35.02699,-38.73025,-29.39529,-42.32352,-32.07252,-40.29194,-35.21765,-40.3642,-50.07882,-44.98604,-53.19788,-42.05161,-33.91275,-36.4163,-42.08385,-34.85093,-37.38382,-36.41298,-35.95784,-37.65529,-37.52371,-37.1485,-49.18658,-39.75142,-49.48132,-32.45634,-37.04395,-29.08198,-29.78934,-37.51911,-29.29187,-36.22272,-32.0537,-38.52412,-38.21601,-42.0009,-42.24038,-56.41552,-49.29194,-61.97909,-45.0328,-47.26258,-42.43596,-46.26494,-48.64695,-45.88272,-56.75945,-46.03681,-53.9255,-38.20539,-49.61628,-36.4251,-41.66954,-19.50149,-28.82647,-10.84589,-9.063879,-8.095463,-8.455531,1.504025,1.417817,9.639391,23.97273,19.76347,31.34111,31.9134,39.96825,42.64818,46.16546,61.03383,57.8702,72.33436,62.56566,71.4749,72.07753,74.85389,88.59292,81.47119,92.56695,87.53595,94.07294,104.8707,102.4837,112.5895,99.44821,110.5004,95.3648,108.0883,96.3254,111.5648,94.51448,105.1822,94.90645,97.81232,102.3631,94.80265,101.645,85.19891,94.78196,68.75336,82.00153,62.45144,68.6571,64.26984,69.56805,60.68593,67.52717,64.54102,54.75019,57.77074,49.41525,49.72876,43.59934,29.46123,33.02823,20.07344,19.95858,24.2051,11.21453,27.65779,11.6165,24.88643,19.20549,14.69715,17.79581,13.50467,11.64525,7.740414,10.95031,3.688832,4.503276,3.673294,3.840469,29.60695,13.6491,34.14523,17.66389,40.30648,29.24292,42.03033,25.50092,44.93294,36.1868,47.16652,49.55607,49.26964,52.99204,53.40619,67.97616,60.55271,70.20987,68.22798,51.48328,66.83834,50.61515,69.3713,51.4493,76.85934,59.70133,74.4909,52.59968,67.06219,52.44577,56.52705,34.43837,42.52442,25.732,27.52802,24.68272,26.36656,15.79199,18.05027,13.8747,1.59732,3.130388,-7.696573,-11.57818,-19.25512,-27.31701,-39.3006,-49.58436,-62.02721,-73.33697,-71.0098,-93.7638,-94.02846,-109.0058,-124.3297,-130.2219,-158.0933,-156.4956,-179.7024,-181.8048,-188.955,-204.2591,-209.487,-219.02,-214.6259,-226.4628,-224.2863,-243.7887,-234.9932,-248.2712,-254.1655,-253.8384,-259.353,-247.5948,-259.8259,-248.9618,-256.4171,-237.1502,-246.0782,-226.1073,-227.3776,-223.4741,-225.3096,-211.3024,-209.2647,-187.7848,-192.1392,-173.978,-171.9581,-157.5679,-151.6844,-126.7736,-126.8074,-104.0778,-105.7316,-91.64035,-81.87684,-72.79575,-51.84096,-51.13341,-31.85868,-30.61686,-17.84982,-14.52767,-0.9043032,6.914372,13.09869,23.28816,21.3045,41.14553,42.83289,49.43086,60.9658,62.59797,71.91176,74.56342,79.89147,81.84281,98.55963,94.19054,96.23723,105.3191,96.06556,106.6208,114.0833,109.6159,116.8012,110.677,115.0578,110.8961,126.9402,115.6582,127.8033,97.55627,124.1216,99.65162,119.6607,103.0522,109.6459,102.5936,104.8309,98.44285,109.9165,100.6333,111.3156,98.01479,104.0849,101.2024,104.1349,116.4007,110.1516,119.2582,116.1188,118.8224,118.185,118.9505,116.676,115.3891,111.9821,102.4403,108.1868,96.88847,110.4253,90.32588,102.1,86.75882,92.43022,92.41161,87.23184,91.49048,89.2158,80.08126,72.83641,74.40621,67.04121,66.7119,72.02782,60.03677,64.40614,56.73735,59.64387,66.04378,58.1163,64.23073,47.95125,60.3073,35.3116,49.77028,31.20313,39.05879,38.37909,32.24378,31.96416,39.71206,34.02281,39.82035,26.08713,33.14169,25.18054,27.11882,22.3318,21.87416,4.229586,11.98536,-2.286198,15.75702,10.10571,12.97977,13.45499,5.048148,14.15932,5.717438,8.280976,3.067274,0.5913254,-7.390564,-3.022635,-12.43785,-0.3797369,-4.426539,1.164727,1.339064,-1.050323,-2.392769,-2.301707,-2.388773,-3.506135,-5.789722,-8.714891,-15.93264,-16.73966,-3.66344,-13.96632,8.000518,-4.271097,0.387444,2.612586,1.183531,2.282316,2.036995,3.691226,2.694738,-8.122583,-0.5102826,5.158538,2.558149,23.1581,4.178382,19.60899,11.65339,19.78616,15.26156,19.42595,15.88553,18.37627,15.68197,19.1202,20.12129,21.72996,25.3918,27.88512,29.27285,30.32583,30.25838,30.53693,31.88242,30.30685,28.59517,28.06621,26.27296,33.91641,22.80128,35.34015,13.314,40.64027,14.96216,33.59599,16.18357,24.82887,13.81452,16.68068,10.60848,7.328106,14.36611,1.574849,4.150207,5.714,-9.566375,10.81021,-12.98531,3.063514,-12.20392,-6.705245,-18.8671,-15.82118,-24.58208,-34.6429,-16.91133,-36.69187,-20.3272,-17.85922,-28.48217,-16.21753,-25.95957,-18.7468,-23.82267,-18.58466,-22.41697,-20.23987,-25.04484,-33.6728,-27.97471,-38.37399,-12.49412,-34.18668,-11.94783,-21.60169,-19.64913,-18.89505,-18.93751,-19.29017,-17.54943,-20.44974,-21.14474,-25.37812,-30.30768,-16.90834,-28.6325,-5.079082,-35.13083,-8.056281,-28.32058,-13.52735,-27.38209,-20.99509,-27.80244,-25.27003,-42.9817,-32.60903,-48.8798,-34.19712,-32.24104,-35.17696,-31.63691,-44.15666,-34.05149,-43.89969,-40.28457,-48.84435,-49.81396,-54.28821,-56.71422,-73.23538,-54.35021,-76.30688,-60.89371,-59.69324,-75.36793,-63.75031,-78.06431,-69.46024,-79.93499,-77.52702,-86.1683,-87.62579,-93.6807,-108.1068,-87.84553,-110.6848,-94.92804,-93.63932,-106.7588,-94.84549,-106.5127,-101.0687,-108.0648,-103.4869,-109.1426,-108.4194,-115.9398,-122.5066,-115.94,-117.2524,-107.1436,-114.3166,-116.368,-111.2611,-115.491,-114.1589,-118.7168,-117.6822,-120.3627,-119.911,-123.5646,-125.7044,-124.2086,-119.2969,-125.1918,-133.0711,-142.3395,-141.9944,-151.1043,-152.5826,-151.0568,-157.7163,-156.2299,-157.718,-143.9675,-153.9701,-141.7604,-145.0254,-147.0489,-142.4272,-149.0363,-147.191,-151.6854,-151.3656,-156.368,-161.4892,-165.6857,-171.1909,-161.6298,-172.6883,-164.4591,-182.7835,-172.0424,-182.4233,-178.1399,-185.5795,-183.3024,-191.0073,-191.9705,-191.9313,-196.5106,-195.6722,-183.0139,-180.1412,-172.8902,-164.3607,-170.1191,-152.2633,-154.731,-142.3709,-140.7155,-131.2962,-135.6824,-115.9335,-118.0306,-79.52355,-91.9452,-57.14021,-55.02181,-40.8962,-25.94959,-16.20539,-3.327554,10.67461,22.9257,35.10331,33.43102,57.59303,58.00873,79.06922,102.6811,104.1771,130.6334,139.8302,149.3471,166.0839,170.6534,185.9946,190.2697,204.0819,207.4908,204.7754,220.1417,216.2253,245.476,241.4028,256.9503,261.3748,260.4813,273.3437,270.7733,274.9702,274.5598,278.818,274.8737,265.8537,270.9429,262.5667,274.1506,261.6213,271.0492,249.4912,262.8645,259.0638,257.2953,257.5818,252.8597,254.7537,252.2565,254.5121,248.5373,246.2125,230.2921,238.3064,222.874,231.8723,233.3357,229.1652,238.8809,239.5864,248.4009,239.506,252.1393,247.5284,255.3577,239.4632,254.4601,243.256,252.8603,256.3001,252.4241,255.2108,251.1797,252.6161,247.9627,246.7223,241.1405,237.6257,232.9469,216.6722,222.5355,203.8603,204.5713,202.068,189.1863,186.4926,172.5588,164.8475,156.5453,155.7691,141.0241,140.8289,119.3005,112.5761,104.3704,98.99905,87.66374,77.32168,67.36893,59.25201,48.23643,37.3277,27.10388,29.21724,14.95347,3.909008,-6.683831,-14.10176,-22.39867,-19.08111,-35.90189,-36.72318,-48.46486,-50.13916,-58.07417,-64.19661,-71.86894,-63.56657,-81.27242,-71.72133,-80.46485,-84.76646,-72.18207,-85.21652,-73.65931,-83.25148,-77.92312,-82.89464,-79.1765,-80.20531,-80.46177,-81.32063,-69.16375,-74.45952,-73.25972,-65.48893,-76.17242,-64.05454,-60.10577,-62.24708,-55.83392,-61.43646,-56.66325,-62.34861,-61.1943,-64.48707,-57.17812,-79.10502,-63.65167,-77.0165,-63.76019,-65.01206,-60.95389,-56.57301,-62.18167,-51.49507,-58.69001,-52.67949,-55.38704,-50.70487,-65.23891,-53.33688,-65.78843,-44.13912,-48.05896,-39.12978,-46.06048,-40.93425,-40.89884,-40.23746,-39.06567,-42.83429,-42.54348,-47.06821,-53.61988,-50.12362,-33.39748,-47.63151,-32.4145,-36.57854,-40.62499,-36.78383,-44.25065,-41.39348,-46.61521,-45.44864,-52.57977,-64.43194,-60.90069,-70.41627,-52.74789,-64.61151,-56.50581,-59.86709,-64.80923,-59.35702,-67.77271,-65.90872,-70.81967,-79.60227,-74.35012,-83.29078,-82.57801,-63.8434,-77.90564,-58.86782,-74.29177,-62.88441,-70.54203,-61.90331,-67.18154,-62.9163,-66.70147,-74.67516,-65.61659,-74.82661,-45.96913,-66.58545,-42.41105,-49.98159,-45.47529,-42.33743,-42.40768,-39.02322,-37.13134,-35.33776,-34.01842,-35.36197,-42.83806,-26.32026,-30.01887,-14.89006,-16.16751,-19.48078,-7.873107,-11.23086,-6.667767,-8.561159,-6.246017,-6.254797,-18.52621,-7.409631,-20.70002,-14.04387,-11.90919,-2.963242,-9.012285,0.2843587,-3.413508,-7.712219,-1.900557,-9.626181,-8.586296,-14.98007,-14.02437,-30.4563,-23.71101,-39.17155,-24.12979,-27.10242,-26.14421,-26.72176,-35.29535,-31.90889,-37.94121,-38.68188,-43.82256,-47.95392,-63.59793,-56.12109,-69.45467,-44.10344,-70.93147,-48.88729,-61.92185,-60.08454,-61.29424,-64.3947,-65.80299,-76.40346,-67.33826,-78.80664,-62.68934,-80.62458,-64.35722,-65.12706,-60.32355,-71.69913,-63.35583,-69.81687,-65.76205,-71.34209,-82.60397,-75.20015,-85.63089,-70.61846,-88.9643,-79.13371,-77.86879,-79.53447,-75.37599,-78.74973,-83.90175,-92.83505,-86.93176,-96.83465,-89.435,-96.21503,-97.18387,-98.03167,-86.02983,-96.17992,-83.81839,-88.10971,-89.80337,-82.64396,-89.44579,-85.28298,-91.18275,-88.45652,-93.06925,-93.55913,-100.1669,-102.0608,-94.41944,-102.7534,-95.31945,-112.9077,-107.3731,-125.3933,-114.3638,-130.2355,-116.8841,-135.0353,-124.662,-134.317,-131.7431,-138.7484,-137.0057,-130.5118,-143.2241,-125.4615,-143.6109,-119.7263,-139.0253,-118.6272,-128.9081,-118.1106,-121.9053,-113.1509,-120.9095,-93.59958,-105.0867,-70.22943,-81.61546,-63.43393,-58.38814,-47.71252,-43.12397,-30.28047,-24.48572,-24.44551,-8.904969,-7.895392,4.32454,21.22119,35.26436,42.11438,59.20244,70.81734,72.56415,92.90886,93.36335,106.7842,102.473,122.5785,120.5156,143.2226,134.3281,168.325,158.4707,183.8677,169.6535,193.1426,183.4471,200.4748,194.3732,204.5853,188.7485,206.5116,206.3726,213.8418,223.1964,207.3354,226.0823,213.2373,223.5639,210.2907,211.7507,192.9667,200.597,183.8865,185.6832,186.298,193.0386,184.9383,181.905,181.8845,175.6136,173.354,170.3471,166.9187,162.2606,156.608,161.7099,151.196,162.0852,148.9364,166.4512,151.6135,165.8439,158.2493,168.7202,160.6528,168.5567,164.7799,168.2987,166.1279,153.8359,162.0751,152.7122,157.4145,159.0865,151.7712,153.3715,148.3548,147.829,141.0194,135.7202,133.4789,128.3988,126.4692,123.1265,109.5207,124.0135,101.7921,110.7673,94.66741,95.78423,81.35187,80.89521,81.84522,70.12931,71.05667,45.51181,53.83753,36.76014,35.93752,33.64198,20.06295,20.17084,19.79489,14.67549,12.25577,-5.029754,2.873288,-12.46451,-11.38123,-24.62782,-36.34014,-35.69071,-48.12221,-27.15577,-50.80723,-34.85709,-43.93387,-47.42501,-45.80231,-51.16875,-51.30335,-53.52094,-64.3627,-56.22277,-67.74768,-61.35302,-44.11379,-54.52878,-36.74812,-55.40641,-33.54907,-44.98249,-30.48924,-36.69507,-29.91046,-33.61791,-26.93286,-41.24893,-26.1863,-41.43361,-17.34048,-21.03501,-11.83555,-12.02339,-17.51113,-10.64718,-17.49992,-14.16999,-22.40076,-23.43199,-27.27839,-25.54619,-24.15645,-22.33641,-10.39172,-15.25934,-17.92102,-8.108637,-15.60856,-11.37116,-16.41749,-13.35275,-16.18143,-15.99759,-19.82084,-32.29686,-17.81443,-23.95742,-9.408236,-13.66984,-20.56281,-9.82262,-16.59946,-12.72926,-18.78202,-17.65683,-20.72677,-20.84737,-24.50285,-40.52678,-18.4016,-38.48574,-19.53927,-21.74441,-31.73621,-22.33553,-31.04612,-24.18765,-32.71025,-33.00557,-36.75859,-39.48854,-29.35569,-47.88821,-30.63248,-43.45606,-44.14696,-30.20599,-43.65354,-35.6039,-43.3558,-38.99704,-41.41514,-41.72602,-45.1805,-47.54124,-55.10898,-40.73467,-51.63566,-30.7812,-57.71479,-33.04883,-50.44011,-36.71896,-49.47194,-41.79884,-50.29051,-44.54038,-51.10109,-51.2594,-67.72561,-43.94375,-64.22786,-42.05112,-60.02288,-49.06279,-56.89066,-51.10728,-57.72423,-56.51571,-60.6906,-62.14959,-63.91356,-53.18845,-74.16333,-54.46766,-67.78002,-66.31417,-54.9463,-68.40024,-57.22459,-67.69032,-60.41273,-67.25738,-67.27165,-71.72823,-72.58898,-85.67303,-65.0976,-85.07906,-58.65757,-77.04276,-69.46032,-73.47816,-73.46845,-76.40382,-77.94851,-78.65376,-92.68585,-84.23839,-98.35212,-93.16327,-77.81101,-92.00813,-76.39784,-97.79041,-80.25226,-95.04953,-85.94563,-96.9499,-92.98883,-100.4248,-108.6977,-105.0057,-114.9112,-115.7797,-95.53774,-113.8389,-94.05072,-114.4421,-102.945,-113.5148,-108.0805,-115.1418,-113.56,-121.3168,-124.2814,-134.3194,-131.0482,-141.3543,-114.3548,-139.7409,-113.0309,-127.2633,-121.6342,-124.9787,-124.4996,-125.5652,-127.5988,-131.0376,-134.9646,-140.553,-143.9985,-150.5126,-142.5549,-159.3971,-151.2865,-160.9302,-168.2082,-169.6174,-179.4072,-182.4796,-188.1097,-192.6492,-198.0396,-203.4202,-208.0445,-195.4732,-205.7876,-204.5445,-212.127,-204.7744,-207.2589,-189.3256,-199.324,-185.1974,-186.8315,-173.4476,-171.9487,-163.0893,-158.7804,-136.8613,-146.0084,-112.7959,-119.4392,-88.63739,-93.25201,-65.20587,-62.20167,-40.3954,-34.32685,-18.37522,-5.417347,8.244253,20.60408,34.53231,50.63782,68.34033,87.57703,100.8895,117.7051,131.0233,148.8328,162.8282,176.6959,187.6902,198.2579,199.9213,232.7409,229.6132,266.5929,246.7753,285.385,273.0375,299.9613,291.3,310.156,306.7714,319.3077,331.0778,319.2665,342.3578,335.3604,339.6609,352.67,341.9165,352.2697,343.9098,349.9934,341.9,340.7768,332.7954,330.9435,324.9663,325.4375,317.6027,317.4201,307.721,303.1584,280.9853,284.7569,264.615,266.2563,254.6881,253.1271,252.5715,246.2652,251.4284,258.1502,258.5674,266.3671,254.6792,273.0833,264.0292,274.8893,268.4547,263.6962,272.1056,265.4398,275.1091,269.0807,270.4452,268.2168,267.9668,263.5418,258.573,254.7473,249.1174,244.7334,225.0869,228.0714,210.7624,219.9847,196.4109,201.0578,179.7504,176.7843,160.1672,152.39,136.39,137.5461,115.5677,105.8272,100.3005,74.83096,84.17861,52.08757,55.93757,31.92277,28.20355,7.816314,-1.952365,-17.99359,-14.87862,-49.28685,-36.00117,-80.22315,-61.84994,-85.3039,-88.34805,-104.7236,-111.42,-123.6772,-131.4839,-142.586,-152.5747,-149.9658,-167.5148,-165.1537,-171.9773,-185.2025,-170.8042,-194.1869,-180.1861,-196.8749,-191.5443,-202.5364,-198.0062,-190.1831,-193.5241,-186.168,-209.195,-183.6021,-200.7436,-179.5834,-185.2064,-177.623,-175.9955,-168.791,-166.4909,-162.0249,-148.4337,-149.4613,-134.3198,-132.798,-133.059,-135.2491,-126.5823,-128.0882,-121.7553,-116.3826,-121.3193,-114.873,-119.4303,-103.3197,-118.3498,-109.5048,-118.7642,-126.7643,-123.4961,-119.6306,-127.7236,-124.3631,-129.3195,-121.4331,-126.0747,-118.3043,-128.6797,-117.1887,-126.7429,-120.1012,-129.589,-125.2535,-131.3557,-142.2211,-132.6418,-147.8517,-113.7579,-140.6756,-110.3071,-134.6302,-117.2659,-129.3233,-119.1569,-126.1042,-122.5594,-127.1413,-125.9216,-127.2739,-127.0265,-115.1664,-133.8041,-111.7947,-136.4674,-110.4357,-122.8039,-113.9135,-116.9393,-108.5191,-111.1069,-107.7604,-109.9039,-107.1002,-95.10622,-98.04383,-87.86386,-112.7332,-85.37955,-106.4744,-85.77037,-92.89207,-88.008,-89.54263,-84.9254,-86.19455,-69.19768,-80.36496,-62.00387,-66.58639,-75.58092,-59.05906,-70.75769,-59.35244,-52.31369,-55.23185,-48.76272,-50.95673,-44.65023,-39.4821,-41.7563,-27.28526,-28.75309,-31.04412,-6.115626,-19.49534,1.414172,-8.739276,7.041096,3.651449,14.80461,12.22302,17.27392,18.28026,27.86853,31.66589,43.84348,37.33393,51.42095,48.55563,58.51966,56.41672,61.22445,60.87208,64.53666,65.6193,65.8037,54.4532,78.90593,63.17299,94.53718,75.14776,88.5741,84.06019,91.35905,88.12747,92.07595,86.29648,88.88533,85.29268,74.65124,80.85914,67.02016,69.40108,76.89754,72.81078,76.5097,74.56123,61.57728,71.70821,58.39087,64.58305,50.81966,44.37414,47.46036,38.77476,62.33208,43.24665,60.90803,39.94805,59.41812,41.33806,52.934,39.63685,48.17058,40.03456,43.90501,26.59627,37.53524,25.51803,43.25624,24.99024,38.39399,39.09163,41.85609,50.00818,49.8114,48.77204,53.82729,44.76353,55.71679,46.81505,51.81714,46.85881,49.79225,61.70465,52.83202,63.29868,72.53446,72.9944,85.54148,87.59755,87.11513,94.97211,95.99496,90.93299,101.8352,95.24145,101.1592,109.2758,104.2159,126.0677,111.6207,128.5288,123.3722,121.1764,127.5354,121.1856,123.0695,110.5864,119.5932,123.3184,129.1454,125.0368,134.2532,120.7351,134.0824,118.1821,126.1091,114.4689,118.3842,108.3556,105.9214,87.68471,108.954,86.53859,113.059,80.40117,99.82622,80.06982,89.90987,76.19881,79.36052,66.90842,68.89498,48.31322,58.22875,37.81146,54.93102,32.9565,48.25762,25.02937,47.71617,21.33962,38.46444,22.33931,32.60119,18.60558,23.97365,15.00412,7.858458,24.55989,7.597789,23.33473,27.02384,15.17616,30.18015,18.94117,27.18258,20.39488,26.31649,22.86332,22.70034,19.75577,29.74231,16.64642,33.69466,16.88924,37.67275,19.24914,35.15616,22.41199,30.15266,19.64827,24.44277,17.95977,18.43544,10.90323,21.00865,4.749932,11.9348,-6.933136,1.90995,-4.868167,-12.90591,-13.30901,-23.33967,-27.82361,-40.59254,-44.73385,-46.48438,-59.46618,-60.25609,-70.17091,-76.27366,-81.04464,-93.70958,-93.50307,-94.29244,-108.6765,-104.5751,-115.5504,-117.9992,-128.1909,-131.0836,-139.2455,-128.7499,-144.9838,-136.8446,-155.1575,-150.6382,-156.9304,-150.5625,-160.809,-156.4676,-160.8002,-158.7259,-163.2681,-163.2799,-163.712,-152.2352,-156.7655,-156.0772,-162.291,-152.5318,-142.5191,-145.5517,-135.3685,-136.8876,-130.5208,-128.8806,-124.7494,-124.7696,-123.7825,-109.4719,-115.8074,-100.7948,-116.3051,-101.4757,-112.5268,-112.0434,-113.7406,-114.8604,-119.6903,-110.3149,-126.3144,-102.332,-123.6836,-105.7068,-117.2126,-102.8765,-105.7959,-110.0426,-107.6439,-106.3767,-103.561,-90.34659,-98.56532,-86.98256,-91.50553,-81.81193,-70.95958,-70.15946,-60.78451,-55.73631,-68.11284,-46.31083,-55.19195,-35.69091,-43.04647,-27.51466,-29.20639,-20.53919,-20.75351,-14.76427,-8.897151,3.001718,-7.05948,15.97772,-6.991543,34.92393,5.978745,38.15208,18.91966,41.12411,28.75459,44.72327,37.30231,33.36063,41.49062,40.02966,53.89189,59.71583,62.95444,56.62016,71.41125,65.39327,72.97377,67.9512,72.52157,69.28192,72.41472,68.43203,55.20508,63.10617,57.40882,67.52556,69.70722,69.10621,58.48246,68.88261,58.24832,63.0134,52.11727,54.50297,46.52944,46.4781,27.71552,36.79668,17.90026,37.87918,28.53832,34.99077,20.26653,27.51146,19.70614,22.22557,18.50944,16.80816,14.78432,8.685228,9.253372,8.933914,21.19793,27.80383,30.7652,28.44241,38.92381,33.87852,39.20711,38.20404,42.97154,42.20998,31.95707,43.14222,32.58212,53.22357,34.02538,49.5852,35.6525,44.48042,46.86223,49.96933,49.13097,42.28388,41.0126,46.07683,51.02388,42.43439,48.68425,42.93047,47.64192,41.76485,56.05183,43.02242,54.63675,44.114,46.26947,43.38219,54.43021,40.54279,52.48771,42.88727,45.77404,40.58124,40.8517,48.36279,45.08143,48.6825,37.96621,33.97262,36.99616,28.98916,40.17339,23.65939,32.92529,22.21681,28.00495,31.12222,24.80582,33.91479,16.12392,20.38092,14.11855,11.85727,20.01225,8.119699,15.74972,4.907053,22.03778,7.12342,24.05426,15.61085,14.95307,4.717222,14.00979,4.923591,12.89938,10.88541,9.02811,9.591681,8.642738,8.480208,5.055635,17.28026,6.721811,21.51843,14.82465,0.6271488,14.38255,-0.7812974,11.131,10.47049,5.752138,7.565787,3.734987,4.91511,2.028288,12.86252,-0.4603963,13.41183,-4.276947,0.9303608,-6.424879,-6.69434,0.15793,-9.684309,-2.53671,-12.76338,-10.25644,-17.56867,-9.220602,-11.83268,-9.879313,-11.37515,-26.49948,-18.93703,-28.63747,-27.87412,-23.03587,-35.40354,-28.25769,-36.90445,-36.13315,-29.92131,-38.96545,-27.86957,-48.06199,-31.23079,-51.95505,-45.46829,-59.64131,-52.1214,-65.31471,-50.03972,-58.11209,-50.07972,-51.43227,-58.52385,-53.27558,-60.55143,-56.45645,-62.24345,-60.90245,-77.57622,-67.95115,-75.9888,-61.20357,-62.77155,-58.22637,-70.35295,-54.07671,-65.79174,-56.37131,-65.39203,-59.98017,-64.49261,-72.62132,-65.91098,-77.61816,-71.48259,-57.17794,-66.83581,-51.28692,-71.66974,-52.60207,-66.57367,-54.28711,-65.5453,-59.39764,-67.97863,-72.16275,-68.97739,-54.50261,-60.72954,-50.1976,-64.42603,-46.64917,-62.20989,-53.9396,-64.34412,-60.00165,-68.90994,-71.38589,-91.25115,-69.90355,-91.26198,-68.87963,-78.01724,-76.46639,-75.70744,-75.56522,-75.14977,-79.22113,-80.29733,-84.95028,-85.32208,-89.98621,-92.75551,-83.80757,-95.87702,-82.98906,-89.98,-105.4532,-90.20499,-107.4365,-95.03866,-95.0983,-97.79676,-95.06305,-97.36197,-94.76512,-83.44397,-85.90437,-75.71652,-74.77752,-76.02038,-76.63057,-66.33328,-71.72365,-49.50189,-62.85526,-40.76124,-49.53514,-35.18768,-39.48759,-23.23138,-16.40494,-19.35874,1.908604,-15.73973,24.83081,2.478637,34.70297,19.74615,42.51598,36.43018,53.36662,51.04762,60.45655,50.7475,74.49917,73.57083,97.3409,91.50172,97.75126,107.9166,110.4533,117.6551,116.4585,123.4655,116.3672,124.3024,122.5872,123.7586,148.3193,131.7008,157.0515,147.5031,150.9127,151.6983,146.0809,143.5544,144.2172,137.2304,138.8964,135.9658,149.0517,150.2394,153.3525,158.9679,163.3743,159.054,169.6101,162.516,168.5139,156.2627,170.94,159.5426,178.0695,164.3582,178.6549,183.6931,186.676,184.6594,183.5865,184.8985,181.9747,180.2353,175.2545,160.607,166.1994,151.6388,161.0881,150.3436,166.2886,153.0443,167.5729,156.4087,154.1632,149.8902,144.8038,139.8125,135.6052,115.8185,121.269,102.5353,105.4076,101.154,87.86212,85.91752,75.14452,71.05669,61.15278,68.05605,48.69433,58.14839,35.38375,35.60816,24.90732,19.78112,22.69505,7.790631,11.36785,-1.819728,-3.762572,-12.424,-15.66889,-8.318697,-22.63737,-15.02448,-37.8154,-21.30389,-53.07276,-34.12848,-59.58678,-46.01159,-50.69406,-54.11446,-40.34437,-52.50858,-37.46758,-56.51937,-35.38648,-52.582,-50.4528,-49.07767,-49.18883,-44.98804,-39.29951,-43.36411,-23.49121,-30.56483,-13.60995,-27.44484,-11.1187,-19.84358,-8.692979,-13.38784,-19.57956,-12.02107,-19.83582,-5.649319,2.251368,-2.673668,8.117163,-9.009839,8.819486,-7.939489,-1.416376,-14.354,-12.88424,-24.84179,-11.29829,-25.15724,-13.26736,-7.746489,-9.363481,-13.37465,-5.622558,-14.47821,-8.687137,-14.83108,-10.7872,-16.98964,-17.24416,-20.11152,-17.42727,-17.33822,-14.29208,-14.29611,-17.3049,-13.39491,-15.64835,-14.58293,-18.76986,-19.28636,-21.10909,-23.0642,-25.15006,-40.50477,-18.54192,-39.65125,-8.463922,-39.0441,-17.71913,-36.43129,-22.13005,-35.51644,-27.69672,-38.05584,-36.45433,-50.57381,-42.34072,-57.46786,-25.2284,-57.62087,-26.3256,-45.08631,-38.29784,-41.36475,-42.41098,-42.52496,-43.21479,-45.03811,-59.50601,-49.31502,-63.45708,-32.79718,-57.80524,-33.02713,-48.67052,-41.55997,-43.59636,-41.76143,-46.32886,-55.09101,-48.0247,-56.70541,-50.10614,-53.76689,-54.92874,-56.27678,-57.08554,-46.62514,-55.61824,-46.61645,-50.2742,-55.33225,-49.70995,-69.32952,-54.49989,-71.27943,-60.22545,-62.68534,-66.90234,-52.20612,-62.91795,-48.2162,-56.91355,-56.66863,-57.14087,-59.37708,-70.03014,-61.69279,-76.48401,-68.57385,-69.07928,-74.28982,-72.31089,-66.04167,-72.05654,-65.28152,-66.21254,-76.5472,-67.766,-81.48649,-84.73425,-85.26546,-91.30678,-82.16791,-99.44587,-89.91192,-90.35559,-88.68669,-88.94902,-85.97739,-99.49084,-86.55934,-99.62398,-94.11605,-104.0831,-109.9973,-106.2521,-115.2789,-104.433,-119.8279,-110.6645,-109.2057,-109.3027,-106.2756,-120.3716,-107.8078,-118.4131,-111.8402,-120.2484,-117.4891,-134.5054,-123.3087,-137.8004,-121.6162,-127.5129,-119.7428,-118.0942,-124.0894,-116.7469,-122.9913,-119.2883,-124.4786,-122.395,-129.0771,-130.052,-134.9671,-124.1364,-133.5686,-123.3307,-146.0636,-127.2976,-156.3163,-133.1586,-156.5168,-143.3745,-144.8812,-146.1733,-143.2161,-146.308,-130.9061,-139.4828,-122.1774,-137.9677,-118.4554,-131.4285,-120.8925,-131.199,-116.0947,-125.8289,-102.2402,-105.6969,-89.77918,-86.97733,-74.39468,-76.645,-59.34582,-60.9634,-48.14053,-46.99959,-39.31177,-34.54555,-27.69671,-33.36416,-16.63582,-10.09261,-3.967004,20.89195,19.00839,29.9679,36.88242,45.09805,53.65518,60.75038,66.08728,72.80494,77.73573,76.4291,101.6041,92.64114,116.4808,124.7327,121.0771,142.8523,136.3823,152.4652,148.3257,162.8735,160.951,167.9977,153.4135,168.4763,170.56,176.249,184.019,176.3769,193.5278,198.3965,202.505,208.2103,211.5939,216.5629,219.425,222.7261,223.7316,212.5489,226.7235,227.6931,243.1486,236.9314,238.7667,241.6692,242.848,244.998,243.4274,243.3676,240.1375,232.3527,238.0721,225.8392,226.5545,230.8976,233.6608,235.9135,242.0927,230.1418,240.9721,230.0457,235.5796,225.0205,224.7092,211.7854,210.8196,200.3455,193.5192,181.7364,162.2971,162.7656,141.9668,141.3066,125.7088,114.7011,103.0438,106.9527,86.13693,89.03676,74.88313,53.4268,56.78231,35.51622,34.54319,30.07985,16.13807,15.33309,1.32651,-2.709409,-14.81334,-13.87289,-15.93676,-22.15722,-21.34661,-40.61701,-38.97867,-44.92703,-46.74002,-42.63032,-56.38414,-51.3885,-58.22652,-56.6826,-64.09792,-62.93719,-68.93361,-65.70848,-69.52122,-64.60369,-65.57166,-45.48832,-69.13433,-41.3993,-59.73779,-41.51993,-51.69719,-37.79775,-44.20232,-35.21548,-51.54458,-33.70915,-36.64944,-23.90105,-19.23553,-16.27144,-20.84098,-7.739097,-16.30838,-9.813875,-17.3738,-15.03348,-33.53727,-22.63973,-41.18659,-21.02798,-27.09156,-20.52824,-17.58205,-15.12995,-13.77778,-9.151628,-18.85685,-6.695587,-19.43132,-11.49649,-32.64309,-14.83087,-28.6753,-16.65248,-17.22092,-16.16212,-10.93196,-22.95424,-11.85543,-25.55216,-17.45074,-26.342,-34.99064,-31.91713,-43.6534,-38.77797,-25.05547,-38.15806,-20.72054,-27.16088,-28.56702,-20.04377,-25.14076,-20.46055,-26.03128,-31.97881,-26.12772,-32.21897,-21.70604,-33.17975,-23.70142,-32.72777,-26.31992,-34.38372,-33.01052,-26.55644,-32.61494,-36.54986,-29.50173,-44.87165,-20.74976,-43.38796,-22.83795,-40.00754,-27.41605,-39.57867,-20.671,-29.18423,-16.38994,-20.86539,-34.36718,-16.36804,-30.53204,-14.38551,-21.63428,-13.18847,-15.24994,-10.88768,-12.88919,-11.52149,-14.0302,0.8720538,-8.240232,6.270636,-15.00574,3.187453,-19.75321,0.03828119,-19.45034,5.185143,-20.68221,1.539477,-17.78353,10.91675,-13.28272,12.23179,-16.8909,12.07754,-12.53329,4.382015,-22.28197,0.8901863,-20.65566,3.808847,-21.72906,10.42078,-13.49212,13.60019,-5.698486,5.12511,-0.9987046,-4.052359,-4.043788,-5.414161,-6.83787,3.139954,-7.632854,18.70958,1.646472,22.88486,14.43341,18.14344,24.39239,21.30186,25.86238,14.00552,29.67277,18.06098,28.21051,29.8539,28.18391,46.17467,37.90009,51.92652,41.53152,55.96089,39.88811,60.85272,47.56142,71.29664,53.88454,73.78095,61.69122,89.81234,72.33966,95.58297,81.22717,85.4293,88.81801,93.72413,92.30347,96.91192,96.54956,99.70299,96.26678,98.81676,108.2056,104.0388,101.6241,99.10562,98.61882,96.28065,107.4652,92.36612,100.515,88.72787,92.85783,81.52402,101.9702,77.86925,97.16758,67.38972,87.83454,61.72435,72.38151,40.17674,55.98417,30.12622,40.4209,23.26078,20.73201,23.17187,12.88721,16.4471,2.879012,-1.400189,-8.881925,-15.29103,-22.86413,-41.96221,-39.36536,-56.78273,-44.68916,-70.08693,-61.33029,-81.87883,-73.82367,-79.75271,-80.93104,-83.47149,-98.99,-101.0549,-104.4848,-109.5783,-103.5363,-115.9353,-109.7819,-118.7559,-114.9351,-123.7868,-120.7737,-119.1021,-122.0499,-113.2318,-124.7744,-104.4586,-119.2153,-100.6039,-110.3265,-97.58996,-105.0908,-95.41241,-97.53366,-82.827,-84.73283,-71.45294,-71.06386,-60.62146,-58.03574,-51.91306,-49.29412,-46.33899,-41.84876,-41.45787,-37.84952,-41.73027,-25.87506,-45.94096,-20.82974,-37.41397,-17.75948,-33.69248,-16.42391,-26.27129,-18.90023,-26.50828,-20.39399,-14.6626,-16.45685,-11.53182,-36.31667,-13.93245,-36.35631,-8.664394,-37.71887,-17.17518,-38.77695,-17.84313,-30.93693,-20.46715,-37.74165,-28.47547,-41.01736,-34.77763,-47.61634,-57.28661,-55.23101,-65.57088,-64.56385,-49.3346,-68.036,-48.94655,-60.70276,-58.01214,-60.38541,-59.86889,-74.00063,-60.66727,-69.84639,-63.90714,-57.34714,-64.36424,-55.13699,-57.63229,-53.1988,-54.73859,-38.05211,-44.03587,-25.23456,-32.74884,-23.78722,-22.10588,-26.17904,-15.76027,-18.31225,-11.72534,0.8980674,-5.689305,9.434178,5.814421,28.39094,18.37669,41.87986,24.96617,50.9715,35.70812,43.09016,44.69127,47.30839,52.51823,55.67136,53.38695,72.83151,62.75866,80.48875,60.57729,79.30005,63.55064,76.59856,64.47228,60.58871,59.23755,61.07996,62.71149,65.75868,70.26233,58.65146,71.62967,59.89437,68.68263,56.93689,62.98195,54.1452,58.21697,57.22041,58.39092,59.35317,59.21268,62.33532,61.62917,61.83981,60.19509,63.12922,58.05502,58.94575,51.48528,49.76204,45.3224,54.2405,42.45567,50.88061,27.91212,39.58005,19.78373,29.00518,21.55959,21.18456,15.47514,16.08993,9.287827,-3.301024,16.58898,-2.321514,19.88333,-6.315222,27.56222,0.5997437,27.52341,10.92777,31.11333,18.56603,32.70931,25.38551,36.98499,30.54665,38.98425,37.51889,45.31738,46.82628,54.85197,55.59367,58.98036,60.12447,63.15938,63.0002,66.0536,61.30119,80.17804,69.98527,87.64338,69.05073,79.53485,73.83839,80.1995,85.15714,79.75103,83.00094,79.38952,81.81608,76.2321,76.01359,69.23446,66.31907,75.0863,66.04683,71.90539,63.10653,43.85456,58.14189,36.33049,49.54432,26.89488,34.14543,18.83964,18.43407,4.039573,-1.228703,-0.3820168,-13.31309,-11.03468,-40.56365,-33.05615,-56.12105,-54.29461,-59.56835,-72.8929,-76.38113,-88.70865,-93.12502,-105.8662,-115.2783,-114.9897,-130.3992,-125.8922,-137.6443,-139.4476,-155.9975,-152.4473,-166.3746,-162.571,-174.5502,-174.4684,-184.173,-191.762,-174.2921,-192.4512,-161.4568,-183.8297,-164.3645,-170.6698,-160.4064,-165.6881,-156.0905,-160.4779,-149.1343,-153.4516,-157.5484,-146.9507,-150.9746,-130.8828,-144.3027,-126.4264,-135.7923,-116.5164,-118.4301,-106.578,-117.3902,-103.9418,-120.7753,-101.1378,-115.1602,-87.41128,-90.74578,-75.2502,-69.70254,-54.63612,-59.16547,-41.22592,-41.3111,-28.22582,-28.16639,-20.49075,-19.6059,-12.66192,-10.92802,-7.032358,-19.56097,8.298426,-9.174749,17.43228,16.87597,13.15369,26.77194,21.46195,34.69139,27.43029,37.0777,30.35691,40.5901,22.25172,41.58346,37.06906,44.53595,57.89967,55.12081,57.14733,64.35673,64.53574,70.93913,70.60527,76.25495,72.87551,75.43628,75.53857,74.77801,74.99609,69.99125,59.47302,79.70838,62.06803,88.50868,53.78828,79.24521,45.20555,71.84102,46.2214,64.38718,57.87098,61.85852,61.95094,64.11355,79.81604,72.2508,92.64153,91.28215,82.70116,101.2403,91.14115,105.2876,112.3021,112.8956,121.3603,121.1294,129.704,129.2258,137.6282,135.3145,130.6263,141.954,135.9304,153.6999,136.272,151.7758,138.7579,159.7415,142.7319,158.811,129.7525,151.2224,126.065,137.4026,103.7383,120.6885,90.47566,101.6911,86.57513,79.65317,83.10739,67.93366,73.31269,46.04946,56.60557,29.6035,34.61641,14.67339,1.797002,-3.465937,-20.15201,-25.57857,-13.82892,-37.5755,-24.189,-41.25575,-45.71606,-45.77306,-54.08542,-57.68736,-66.2456,-69.67492,-86.97324,-80.91054,-97.29668,-83.85421,-107.5817,-92.566,-111.9021,-102.9195,-105.6293,-105.7455,-102.6387,-100.1315,-110.9166,-99.80153,-120.2534,-99.04627,-117.5313,-91.05845,-114.272,-88.32995,-106.7173,-69.90713,-94.11275,-59.37322,-75.69835,-57.0538,-57.91339,-57.43564,-47.97523,-49.93207,-39.39206,-28.69356,-32.3792,-21.45799,-24.49543,-15.88828,-18.19503,-15.47967,-20.10145,-4.724028,-26.12575,-6.203299,-36.13749,-13.05517,-24.90596,-6.415645,-17.95468,-2.916659,-11.39386,-14.73601,-9.376281,-16.16655,-14.32662,-22.77069,-21.47575,-38.84618,-30.11164,-31.57403,-34.81386,-20.61395,-31.29086,-28.57745,-30.98478,-33.19968,-33.14138,-35.16768,-33.41236,-38.43492,-38.08951,-29.1074,-44.58959,-22.98227,-50.11659,-15.61857,-50.1528,-20.54367,-44.31035,-26.28518,-44.96253,-32.78047,-44.13826,-38.14659,-48.07343,-41.4047,-47.3581,-39.42715,-41.65572,-36.65668,-39.95327,-36.26433,-37.57889,-35.49949,-36.46823,-38.40893,-39.57467,-39.42458,-53.57257,-27.13201,-53.16739,-27.58003,-31.58451,-35.77844,-24.79667,-34.30383,-25.8179,-31.46762,-26.05075,-31.13123,-29.16685,-33.25833,-31.20855,-33.66474,-27.5767,-31.54043,-38.15417,-17.8421,-38.71428,-19.12113,-36.71316,-20.18886,-32.66706,-20.15849,-31.63598,-24.23911,-35.1866,-16.68011,-33.24208,-17.10528,-42.07946,-24.30352,-46.12538,-33.51571,-51.51311,-44.53035,-61.72452,-65.76368,-70.13053,-77.36237,-57.07493,-83.06181,-58.47114,-76.94881,-69.50331,-77.70662,-75.40518,-78.63836,-77.3568,-79.88664,-90.62204,-82.19365,-91.07174,-73.78187,-71.28313,-65.43617,-57.80716,-63.93022,-45.87142,-52.63365,-39.21872,-42.83871,-30.00203,-36.88607,-25.13202,-25.74994,-18.56491,-4.851983,5.24317,14.84729,26.21085,35.87607,34.69137,55.78112,52.96391,70.52867,69.5906,84.07668,76.24672,96.63224,90.24553,116.1563,104.5304,139.3478,125.0677,153.6892,131.23,160.1978,142.9281,168.1603,153.9316,184.3557,164.5213,190.4278,176.8279,193.139,195.677,197.9419,191.936,207.1583,183.7566,204.7717,185.1995,203.5835,190.1416,212.0375,191.545,211.4305,194.1118,223.1074,199.3742,223.7893,207.1807,212.5854,209.1591,205.452,200.6481,196.1335,185.3604,181.8861,171.6459,165.8926,167.0525,149.1399,167.1613,142.5076,157.2498,139.1866,137.2462,134.6327,125.9303,121.8086,102.0854,107.9366,87.34667,94.52186,75.3399,76.65352,60.3977,60.18698,43.24644,39.74458,22.83598,19.09695,5.839299,-4.106995,-28.03503,-26.34719,-36.10333,-42.62866,-39.70761,-68.31074,-55.62792,-81.27827,-72.48031,-95.05232,-91.24235,-110.1415,-108.8564,-122.6972,-137.0667,-124.2017,-146.9325,-132.5824,-134.9447,-148.6942,-139.6664,-151.8722,-144.7805,-153.6289,-148.1649,-157.208,-153.0417,-166.0249,-151.395,-157.2024,-149.8888,-146.3955,-141.4057,-136.1972,-132.4201,-128.7872,-124.6086,-118.7121,-114.1788,-111.5395,-107.2908,-106.01,-101.0309,-97.70446,-89.72292,-86.9191,-91.79615,-67.87175,-83.15506,-62.48542,-74.24053,-58.98371,-60.88379,-46.46662,-51.63076,-39.33091,-67.83233,-37.62869,-66.20119,-35.59986,-69.54163,-47.04809,-71.70024,-40.18763,-67.80964,-40.54211,-59.73636,-36.03402,-59.78298,-29.19864,-62.51218,-30.29299,-44.73095,-30.43173,-37.17023,-29.37528,-34.68371,-27.30883,-31.27589,-26.06134,-32.16409,-28.18535,-41.62501,-21.62377,-33.1542,-7.062765,-26.40088,-12.93118,-15.61071,-9.608855,-14.16716,-10.05074,-12.55849,-8.325553,-11.56108,-11.33096,-23.98069,0.1261329,-18.12922,6.784561,-6.442031,3.660489,0.4272444,7.671739,5.922919,9.251724,7.450195,10.26535,10.79229,-2.333481,11.35746,10.46061,25.92808,19.7471,36.25005,21.43595,39.06436,28.26364,42.32541,33.53244,42.70859,23.07667,42.72245,26.18014,42.65445,48.59302,44.82948,58.01389,56.20759,56.03669,61.42323,57.56313,62.56551,60.07396,51.22106,60.45258,49.82881,66.76095,56.63248,71.5453,61.64529,64.57019,69.81875,60.58946,75.13322,75.49215,75.034,81.01553,81.95834,87.08323,87.94885,89.07943,81.1568,93.36891,98.19301,103.3014,114.307,114.9385,114.6608,125.4169,120.6907,125.9641,122.1161,127.0107,123.6705,125.1391,107.671,135.2481,109.0483,136.9669,111.0655,130.5102,108.9933,124.6601,106.6875,114.5851,97.72292,100.7462,86.91295,102.1408,78.18741,80.38824,73.79592,57.80939,73.71829,42.98135,56.67999,31.13993,39.09375,19.31786,19.41517,2.436416,-1.441234,-12.54937,-12.12982,-22.06384,-31.59779,-36.63997,-45.40888,-52.00444,-60.82888,-69.52862,-77.80299,-91.17098,-98.74967,-107.1705,-115.994,-98.28802,-125.6662,-102.9076,-127.1219,-118.4979,-130.2528,-126.2151,-133.8412,-133.4109,-139.6946,-140.6355,-148.1457,-150.2769,-136.6542,-148.9634,-119.4519,-152.0705,-114.1982,-140.3845,-113.3422,-131.5377,-110.6905,-124.1956,-110.3581,-124.6234,-99.6635,-116.8943,-93.28495,-109.9193,-97.68212,-106.1037,-97.96993,-113.4317,-99.1677,-114.33,-103.4657,-103.4171,-107.7874,-89.66729,-106.8384,-89.82959,-114.8885,-91.45386,-113.21,-97.52885,-99.64654,-104.009,-89.91656,-95.84148,-85.45277,-88.57191,-79.16431,-81.32144,-72.99086,-76.47713,-69.53026,-57.95651,-58.21054,-57.14758,-46.86148,-53.85173,-38.84844,-31.97048,-30.52964,-23.00063,-20.08005,-12.16921,-10.02261,-3.576856,-3.433097,16.61249,9.505559,20.83893,27.37367,24.43105,36.99429,47.00352,46.08139,56.65821,55.1868,62.85984,61.74401,69.6608,66.97014,69.95644,81.97412,65.70767,91.39624,62.82599,101.6495,67.31654,97.38172,73.61666,93.05927,73.92899,84.13933,71.43449,90.19383,69.87913,84.87519,60.39893,75.68787,43.15956,65.3831,34.32411,58.68518,26.75288,52.69294,30.63859,44.78995,29.22934,25.48273,26.06032,4.716658,16.89329,-4.751309,5.095938,0.3223081,-3.948559,-4.528368,-10.09037,-10.88603,-8.044536,-3.63829,-4.143841,1.969633,-13.69861,-2.288315,-9.336002,-4.52816,1.042689,-8.599699,-0.09503309,-8.290904,-3.005057,-8.631853,-5.391102,-9.591533,-7.925872,-11.71836,-24.34214,-14.89588,-28.33874,-4.933461,-18.06714,-4.347074,-10.13335,-10.91365,-5.521238,-9.011535,-6.26549,-9.559907,-5.103623,-20.46947,-5.843587,-22.08749,-10.61265,2.348212,-6.810038,8.929816,-8.224705,9.631247,-4.424457,10.9431,-3.812447,5.86636,-3.347734,2.349772,-17.42208,15.1045,-15.54582,14.78211,6.625242,6.504103,11.6342,8.179318,10.93182,8.967961,11.23029,6.304516,6.95502,1.742409,-6.411385,13.29649,-5.060577,25.31283,1.124896,16.53199,8.685301,15.12234,8.012253,12.72623,7.661352,10.50147,4.979644,7.239264,-9.329178,17.32602,-7.389585,22.6568,-5.047208,18.72218,2.101313,17.1561,5.425867,14.04472,6.232723,12.02152,7.045583,11.31663,-7.620954,7.484731,-8.55003,27.23515,-4.664304,28.60163,-6.198495,26.38147,-0.8454355,21.59934,-12.89265,17.02944,-13.49422,9.734794,11.78776,9.60373,19.08406,18.76691,15.89801,24.01611,17.20954,23.31102,19.12663,24.76297,20.55781,11.60342,19.42436,12.53593,28.10476,30.43523,32.78828,24.04797,38.31992,28.45012,39.13152,30.97455,36.27372,26.39062,30.38151,24.94029,26.21357,46.44104,26.32088,52.16462,35.398,46.10324,39.41412,44.6364,41.08727,44.67795,38.27773,40.71217,26.58439,37.19084,38.79479,45.04936,44.44649,52.59456,40.33764,57.8063,43.60514,54.87474,46.10622,54.52124,46.56627,40.29474,45.10617,34.15538,40.2169,50.51588,48.96312,54.93818,58.90472,51.26966,64.52467,55.51869,62.83785,56.35847,51.89406,55.21946,49.06996,51.60383,50.51095,73.95778,57.1334,81.76204,53.86852,84.92179,60.49119,83.64914,64.98623,80.25368,65.41211,66.99276,63.60591,62.38057,57.19326,80.55797,57.58135,85.88099,61.49775,74.89542,62.42159,68.5585,61.27847,62.482,55.57243,54.03054,40.79585,46.14613,31.68232,58.6953,24.88818,53.5473,15.16642,42.23015,8.356201,27.37792,-0.7805371,11.53941,-10.54106,9.188392,-19.23345,-9.295297,-21.82658,-28.74757,-32.06752,-29.107,-43.7888,-38.98594,-52.0528,-51.94217,-63.35776,-62.98831,-74.23494,-77.04005,-84.19099,-84.71932,-89.1112,-75.20613,-104.3471,-80.39081,-106.5593,-88.79152,-107.5534,-95.65455,-113.2132,-105.0551,-119.6383,-101.7659,-115.3729,-89.03062,-123.5968,-87.48372,-116.6116,-89.66689,-113.1248,-93.72405,-106.9455,-95.64056,-103.028,-92.59782,-100.4965,-78.52825,-89.06638,-70.946,-90.26952,-72.06979,-95.11528,-70.73121,-95.0117,-65.14046,-95.94705,-70.36449,-93.97302,-77.4099,-81.96883,-79.8884,-77.51608,-74.13793,-87.2532,-80.16018,-87.07117,-83.33701,-76.16901,-85.03635,-79.11429,-85.0958,-80.99281,-72.92123,-74.28635,-65.40601,-66.00397,-63.61441,-72.80535,-56.61078,-69.53731,-43.49107,-65.17966,-39.03028,-56.71695,-37.71182,-51.9536,-36.62617,-33.12761,-26.63661,-23.11815,-26.72561,-23.28487,-18.57314,-15.45655,-7.551336,-9.135742,-0.2654996,0.7125666,7.727401,7.437466,10.14312,13.86344,26.2463,23.51147,22.86329,22.24859,28.43281,25.83404,42.85185,29.30613,45.00944,33.82154,47.81331,39.07689,45.29521,37.57228,41.55015,47.0823,31.77981,50.32699,34.6788,36.75614,46.79448,32.7539,42.93718,30.09828,36.54322,26.14846,29.70978,20.35189,34.14852,16.82886,33.60882,5.533459,15.60491,0.02017873,3.936396,-7.227422,5.860375,-15.46573,-2.905903,-18.61708,1.951852,-15.37302,2.322335,-25.12828,0.4065628,-23.26254,-14.34334,-21.77414,-18.04739,-20.77663,-6.256692,-14.78977,-2.67094,-12.09339,-1.557161,-6.979652,-2.427923,-5.922407,-3.471835,-15.21641,8.523258,-9.949865,18.84436,-8.550093,19.6248,-1.719856,20.60104,2.441549,17.35859,3.260104,13.82623,-6.943049,26.21888,-4.158744,26.69844,17.88189,19.54184,25.49452,23.10789,25.57182,25.84107,28.15136,26.15736,24.61016,13.26902,30.06953,21.66013,36.76824,33.96776,27.92411,39.03307,30.91183,38.82698,30.77537,35.69775,28.93383,32.13707,24.19821,25.29547,29.65435,13.8533,31.91289,12.21093,30.9715,10.00825,26.24354,9.285555,19.81059,2.263955,11.28493,-4.910441,-7.159529,-11.18928,-2.018099,-15.82252,9.455983,-9.789859,1.038697,-6.293293,-1.975211,-5.579941,-3.076025,-7.107279,-7.35561,-11.63207,-22.35792,-14.38434,-11.0638,-4.661217,-7.445638,2.713016,-9.648942,7.624207,-6.562224,6.526998,-3.358882,7.360434,-1.055,4.640467,-13.94363,3.5076,-15.56821,9.912651,-3.157836,10.57575,4.67411,19.50898,2.098984,21.93,4.169667,15.8815,0.9466172,14.19698,-0.06644496,21.06882,-3.473929,19.15051,12.26918,19.99005,18.1029,26.67707,13.50264,29.32693,14.69313,14.54208,14.50948,11.69332,13.04739,17.29754,9.559268,26.92058,15.27597,32.52844,15.68032,27.03354,17.65449,25.27695,4.522187,22.73766,-1.057235,14.65353,8.41416,22.43911,11.18339,26.1729,19.7134,18.58858,24.95503,17.41233,22.02304,14.41836,11.8178,14.48228,7.371738,22.17159,17.28127,27.18466,26.66991,29.37399,25.37782,32.18988,28.56406,33.67826,30.01723,31.2621,17.60429,31.07274,16.68305,35.2921,16.22901,32.03212,29.72963,34.93044,36.22489,25.23269,35.458,24.10902,32.84002,8.697477,28.46669,4.060679,22.71787,27.45691,23.88424,32.62816,33.0642,27.12755,38.67562,28.4316,33.60886,23.76441,24.66597,22.9552,21.72806,18.97103,30.07806,30.58048,37.35152,40.16465,32.19032,43.6247,36.89599,44.81027,39.46911,43.42989,37.5389,34.05216,37.01113,29.65282,30.94464,51.29992,31.92893,57.80299,28.9052,59.0158,31.64591,55.51868,33.52383,51.24341,31.29584,43.8663,23.15644,46.0132,25.88907,54.11116,20.49376,52.14443,22.07377,45.20058,19.01357,36.00988,15.49711,25.86169,6.95248,1.621234,10.45651,-4.857371,17.22291,-8.013107,0.694468,-12.31077,-7.299753,-18.04926,-17.59233,-28.04811,-41.49532,-38.3351,-51.105,-29.90374,-53.26879,-33.73772,-51.08346,-46.53364,-51.62634,-54.46718,-57.8658,-61.2058,-62.03505,-68.97819,-80.66516,-76.25374,-85.23024,-70.42968,-74.0067,-69.6967,-82.45933,-67.72293,-80.25339,-69.92599,-81.78176,-73.29202,-88.18222,-79.79863,-88.07986,-85.05813,-79.01841,-74.20192,-72.35801,-64.3999,-74.16588,-64.54915,-68.13528,-59.69535,-64.93975,-58.84166,-64.29643,-59.7136,-64.01989,-62.36684,-53.45863,-62.70301,-52.52558,-64.05012,-61.46338,-65.76803,-55.32799,-73.36641,-58.19442,-76.0389,-67.05804,-80.06114,-69.72277,-72.63508,-69.30222,-69.25596,-65.74438,-78.42341,-75.32765,-78.38691,-79.23577,-81.83422,-69.01368,-83.48826,-68.70168,-82.51531,-71.96444,-79.65761,-61.99661,-72.90655,-65.79969,-60.75849,-71.02131,-52.64006,-51.06878,-49.22186,-45.13289,-42.76575,-37.74968,-34.38762,-32.04316,-30.01765,-37.94421,-9.546448,-22.84279,12.19233,-16.94384,17.95519,-2.314813,24.59742,8.171501,28.29855,14.86246,30.99898,21.88767,22.3136,39.42399,26.5776,58.81474,25.25131,62.23924,34.75675,59.3928,40.47962,56.88125,41.46069,52.54457,50.94539,46.51035,55.46531,44.06225,59.65447,40.72087,58.06971,41.83019,52.44872,38.88647,43.87226,33.81726,37.07462,26.07097,29.83524,22.70599,27.67326,24.49884,25.50107,20.53073,20.803,16.35011,16.97783,12.77723,11.02921,6.846822,13.61421,0.6024495,17.93234,5.054512,7.238246,21.41622,10.29151,25.25807,15.97052,29.87891,22.97944,31.43067,27.91113,30.9404,18.0933,33.27631,20.02914,35.13335,28.77006,32.91334,35.25408,46.84296,43.55165,54.30396,37.92283,59.02593,42.85412,46.92798,44.3037,44.80419,43.42466,55.34283,42.7697,51.47626,41.32283,47.75026,54.4252,48.91753,56.2491,52.57258,39.57193,50.12009,37.60895,43.03267,44.67896,36.25237,41.99355,33.67917,49.13756,32.50193,49.28545,37.77333,38.3731,37.73976,22.52964,33.82938,21.5466,32.42573,23.71942,25.95004,36.62977,29.6097,42.01092,23.57413,40.32169,24.25869,38.67732,24.81983,23.95669,23.02739,20.52047,31.28866,17.02451,42.61462,19.74637,47.80299,17.40301,47.72442,20.37301,41.09079,16.94885,32.36919,18.12668,25.78239,25.83598,23.18062,37.4863,29.04382,42.5102,22.07294,44.51907,25.63139,42.63076,26.21369,27.04574,27.03311,24.27872,27.7921,28.09971,37.88001,30.77841,43.90431,38.05125,35.63064,28.23264,35.23569,29.09074,33.56264,38.63022,34.38879,39.71927,38.08748,57.60656,44.07407,64.41279,56.1453,61.41585,51.25073,64.79176,52.66579,75.49068,53.0643,77.63799,55.58111,74.145,69.59714,77.53708,77.44227,78.35854,61.07491,79.34335,59.69652,74.74456,65.24378,66.78417,62.04385,62.8388,56.44289,67.67402,52.89943,64.25752,55.16753,48.9552,37.83335,40.7508,25.69805,28.59289,26.07505,14.88968,13.60577,2.295889,9.083761,-0.9872071,-0.02973608,-7.067623,-21.03432,-15.48509,-44.47939,-29.77469,-58.83079,-48.34456,-58.99384,-61.71621,-71.29337,-74.98465,-70.3934,-81.13114,-74.71311,-88.73053,-89.06555,-94.58667,-97.57938,-100.7762,-118.4186,-108.1581,-128.3106,-118.4384,-122.9139,-126.6541,-115.6287,-127.3214,-111.7248,-133.3995,-112.8267,-135.0752,-118.8876,-141.3793,-119.8943,-128.4735,-123.4377,-127.3251,-116.7407,-117.0411,-111.3556,-109.4968,-119.7858,-104.3302,-116.1566,-104.7492,-127.6768,-105.9301,-126.6889,-97.28392,-126.3683,-102.5315,-111.7219,-100.9498,-102.3379,-101.0386,-107.0265,-113.9091,-107.6375,-114.9871,-106.4077,-110.5644,-94.15686,-102.2474,-83.35597,-87.65735,-83.97308,-81.70961,-76.36804,-75.44307,-70.68718,-82.19321,-66.3292,-77.81804,-52.40187,-56.23542,-44.05806,-41.29035,-44.4436,-28.0635,-36.14996,-23.60355,-39.90705,-17.7395,-34.10867,-10.75811,-21.57879,4.425419,-8.945587,18.07329,7.587595,18.24102,17.11092,23.55965,23.73688,28.52361,15.77403,29.53619,16.14915,28.94067,22.22733,50.39491,27.82851,58.5789,43.2736,54.89066,50.44529,55.21651,54.36499,56.41332,42.00283,57.89371,39.36913,64.27518,36.32392,76.40933,42.34952,76.39212,51.54786,66.81424,55.81172,62.87024,53.84859,53.5742,44.27641,49.38923,45.45434,45.72559,40.17149,39.20139,34.30763,45.71395,30.06018,44.62867,35.75989,21.36981,34.71736,15.59295,29.12405,24.69849,23.43989,25.62658,21.99184,25.76996,32.91338,29.91134,22.79824,27.54567,15.13962,17.82978,12.65541,10.60116,18.30648,3.738908,15.24401,1.360572,9.024673,8.820485,7.583759,12.24203,-3.118435,-1.860039,-5.32402,-9.722739,1.616118,-15.74701,-2.184285,-20.59746,5.164801,-17.27901,7.711548,-14.88166,-0.9218504,-24.07179,-2.55119,-23.85356,-0.2676,-21.06839,-4.661115,-19.00419,-5.406701,-19.76468,4.616269,-16.24573,9.845989,-19.48311,9.433752,-28.53514,5.040326,-26.92834,0.7318852,-15.3205,-4.59646,-0.7457236,-0.07906587,10.08276,4.097266,7.51535,6.791643,8.647487,6.85219,-3.494245,4.390605,-8.319783,-0.8313404,0.08321419,-7.830462,9.977164,-4.847127,15.39462,4.649886,17.17489,0.9901499,16.80787,-5.908951,13.19437,-6.027058,8.375215,5.009165,4.385672,6.129486,21.27428,8.603368,27.61385,4.656548,32.11375,7.981445,28.15438,-1.751203,26.55906,0.1833491,26.22995,6.232349,20.47248,13.39388,30.65559,19.66078,27.98649,19.36256,26.80688,21.63188,24.09173,8.23436,19.18902,6.584654,12.69326,29.66032,11.18534,35.39692,19.8503,29.21754,26.10632,27.62104,24.28076,27.88273,25.08146,15.08784,23.11367,11.57811,24.27092,31.51259,27.65108,38.80507,20.96749,42.88176,25.29363,40.65802,25.61681,38.00726,17.62524,31.45082,17.28118,40.41179,31.18809,43.74636,28.17281,48.67536,29.07575,46.24541,28.12777,45.86035,27.95302,39.6708,14.91514,48.23971,18.87164,60.15814,18.02629,54.34978,23.82445,51.20921,27.75657,46.95325,25.74379,33.24662,26.34365,27.94208,32.42969,35.68151,33.87432,41.89363,39.96611,33.29848,40.42347,27.70928,32.64544,27.5659,28.72326,35.92954,25.86955,35.60628,28.03915,46.80769,30.90313,51.57527,41.73636,45.75437,32.74689,44.78086,30.41504,44.07035,42.1684,42.20823,41.75809,40.9064,52.15322,48.66278,57.34332,54.23322,49.07135,47.59459,50.30096,43.55809,58.23847,38.32574,56.66565,37.93212,50.70013,32.14647,56.13679,33.8626,55.73032,32.00575,32.74484,30.14435,26.24892,24.12461,28.3595,14.70538,20.64367,9.195697,12.69853,-0.2644581,14.0103,-4.967313,8.844461,-13.01975,-7.696264,-19.40915,-7.459505,-27.38924,-16.19043,-33.71012,-29.63937,-42.56001,-40.1711,-53.50364,-38.75973,-59.97242,-54.78475,-59.74701,-70.5289,-60.33708,-73.56083,-69.1312,-78.24202,-76.03376,-83.76397,-84.86206,-91.64914,-82.93992,-88.40102,-83.59107,-99.27794,-95.94049,-99.05315,-98.68226,-92.76486,-103.8171,-95.40334,-101.6082,-99.56053,-102.9352,-103.9773,-102.2603,-98.89764,-96.07423,-96.28197,-90.8116,-92.16404,-83.32809,-83.01931,-78.74638,-79.08148,-76.44873,-63.86827,-69.23664,-57.04973,-76.01621,-59.58727,-76.30373,-64.14633,-79.22188,-71.65539,-84.72905,-72.44657,-87.86508,-72.31126,-85.53012,-86.02239,-73.38267,-87.50558,-74.86209,-88.6997,-78.59965,-89.87795,-81.05082,-92.35153,-71.01293,-88.44759,-64.11846,-76.93917,-80.83505,-71.26715,-79.57045,-69.22692,-62.46198,-65.65998,-58.10641,-59.94076,-52.37416,-39.0735,-41.31137,-25.90865,-52.81513,-13.33231,-41.03502,-5.217484,-25.48564,-1.871749,-15.31387,3.786295,-6.173885,-4.511831,15.13317,6.188103,28.13717,26.7124,40.28883,42.82871,53.63168,59.25267,67.22493,71.72183,77.85809,78.99077,83.56781,100.9709,96.01487,126.792,95.93071,137.9755,109.4783,140.7232,118.03,142.7901,124.5579,143.47,115.9247,139.0628,126.8846,138.9775,143.2291,133.4371,137.1555,131.2778,131.8576,125.6231,121.0267,112.3012,102.7409,92.00239,84.40035,82.3723,82.41737,71.04688,74.96773,62.22109,50.34295,44.78583,30.05358,23.77696,11.0557,0.7119005,-11.81794,-9.424483,-26.88032,-20.77173,-46.56191,-38.43671,-69.24376,-53.66978,-83.16882,-63.58026,-99.10797,-78.58714,-109.1839,-92.33727,-117.9044,-108.6105,-136.0586,-118.4027,-142.5442,-117.9798,-147.848,-125.3222,-148.4089,-113.9479,-143.9014,-110.5667,-130.9208,-114.8434,-118.32,-122.1387,-110.907,-117.2692,-90.48037,-107.0026,-81.87844,-94.45442,-72.90457,-80.24806,-64.20908,-53.66257,-49.94791,-45.94441,-27.80308,-37.41246,-3.450562,-21.60833,9.009577,-3.040864,20.85795,11.18827,28.10638,36.46476,39.19934,50.91421,47.6404,52.97416,51.42792,49.55435,56.41933,49.58017,82.23921,54.76371,91.24407,71.46612,97.57114,73.64949,99.02821,80.56891,99.11551,82.78283,94.39376,70.28815,95.78817,78.12101,101.8628,85.05605,88.99457,91.25955,88.93002,88.7421,84.68151,83.94286,81.22245,79.58861,64.1495,87.19754,62.37821,88.62127,81.17051,78.93641,84.51059,81.83067,85.3403,85.46028,72.96502,87.44746,74.14794,95.66069,104.0221,109.0673,108.2823,119.389,117.0053,118.8369,126.8584,124.0986,145.6321,132.0979,155.5758,143.0203,160.8655,150.5188,165.6661,156.8686,155.3368,161.0453,153.6015,173.0572,169.9711,178.5348,166.1567,182.6621,168.549,183.0893,166.6617,176.0992,161.6059,171.127,161.3374,171.8186,154.8211,161.3925,149.3996,152.6746,138.6424,138.2,124.1424,121.4807,97.25612,102.7396,91.01337,84.76506,92.46054,59.85957,77.98123,43.6867,56.07538,26.62599,33.79833,9.852369,8.916406,-13.28189,-10.68584,-27.15758,-26.08665,-41.26412,-46.24214,-57.1776,-62.92922,-73.7243,-81.24815,-92.07428,-100.04,-107.6984,-116.642,-125.3576,-135.2167,-142.7446,-145.5282,-151.8541,-150.598,-166.9203,-160.3997,-172.366,-168.883,-181.8446,-179.6902,-189.4827,-189.0726,-197.4705,-199.0232,-218.2201,-193.8874,-219.4125,-183.838,-223.6639,-190.6483,-219.4376,-193.8185,-216.4518,-198.5607,-217.8035,-212.7182,-215.4054,-209.1709,-193.7433,-203.8792,-183.7016,-190.2081,-188.2838,-187.4719,-190.8122,-193.053,-192.7027,-198.4586,-183.5718,-200.577,-183.0215,-195.7197,-194.2365,-195.2829,-207.1128,-198.3347,-205.5869,-185.3486,-191.4231,-177.8191,-192.6364,-168.5003,-184.2625,-164.5967,-180.3683,-161.5134,-184.6261,-155.0068,-162.731,-148.6387,-134.0079,-131.1138,-126.0095,-113.7936,-111.9317,-102.9069,-98.16969,-88.896,-85.87977,-79.46524,-73.34727,-52.83013,-67.35445,-37.97538,-59.49401,-24.81348,-32.79375,-14.24992,-19.82634,-4.51158,-9.180162,4.521821,17.01169,17.3578,29.04218,23.30788,32.43329,35.8679,46.66678,43.19873,53.24943,51.6942,59.79761,55.69648,62.76177,58.37193,76.34813,66.29,71.96105,61.92705,72.10604,63.69899,83.22545,64.67348,82.01091,66.16019,82.10864,67.61913,78.22904,64.74206,70.85036,55.20519,76.02127,54.14278,80.14844,47.1782,76.80285,47.92806,68.12562,42.73249,58.56951,36.19647,51.68923,29.32424,28.61657,35.21495,24.76313,46.33929,13.81792,43.11067,13.97313,39.13076,16.47683,35.78753,16.38856,23.80317,34.62138,31.53471,44.60834,36.31747,46.29185,41.5538,47.91002,44.89185,48.00371,46.60319,49.03588,36.18365,50.80615,34.12452,59.2424,33.97728,60.20267,36.47685,54.30795,48.34977,56.01797,55.06913,48.12933,49.97614,47.74264,59.41014,46.32025,59.21192,43.67927,56.13524,42.23372,69.55012,46.34841,71.39553,43.42694,62.22904,48.87319,62.82005,56.9468,59.53895,60.56509,61.41518,60.83027,58.32409,59.05359,56.45642,46.02828,67.58161,47.9276,67.70975,67.43454,59.7421,73.07183,61.0588,71.26864,62.83861,70.82592,61.71885,65.55304,59.05162,65.65625,62.93951,69.58061,67.25477,66.57283,69.66661,68.20001,70.05747,66.14131,65.77233,62.70871,52.60203,58.55138,60.99396,68.31569,62.96117,76.11615,58.65155,75.89398,57.57895,72.71248,57.55543,56.91031,57.1194,49.06466,65.23626,58.76764,67.77466,64.94242,60.10019,65.8421,63.24262,64.10465,61.34876,50.37498,60.62242,49.53262,59.30005,54.35638,68.34158,59.63035,75.65893,56.22193,77.41365,55.87951,74.79467,44.18419,70.77896,40.39667,62.30141,52.0559,64.46662,63.36865,73.25754,62.39098,79.9473,68.97535,85.91324,73.69051,88.4031,73.10208,85.50207,92.91435,90.82576,114.0756,85.17027,123.0488,92.96691,121.9813,97.88909,119.6499,100.7064,117.5636,113.991,105.5291,118.2274,95.83146,117.6683,101.3333,109.9483,98.13695,104.3713,91.99832,93.68411,80.00214,92.77856,74.26479,85.61564,66.17363,52.34812,55.0236,36.70678,48.92153,18.10202,30.28786,1.61414,10.74555,-3.621873,-3.656948,-16.3964,-18.57842,-46.8651,-33.28141,-62.46483,-46.80901,-79.53669,-64.19499,-93.86471,-83.26859,-110.8915,-101.2627,-113.3553,-124.3861,-120.6847,-146.747,-119.7516,-158.9886,-131.6212,-165.1723,-146.5188,-173.2702,-157.4556,-166.6514,-172.3991,-166.4321,-187.7015,-168.236,-178.337,-173.6774,-179.2164,-175.7472,-178.2485,-175.1884,-162.5304,-172.163,-154.138,-186.424,-146.3282,-167.2217,-144.1857,-157.2304,-137.2427,-147.6298,-134.0781,-145.1182,-120.8079,-138.8004,-113.4647,-133.0563,-120.7777,-132.8803,-124.4426,-134.7558,