ConstAcc,0.5,0.52326,-585.4211,-579.26172,-573.433,-567.90099,-562.6332,-557.59849,-552.76711,-548.11064,-543.60198,-539.21531,-534.92609,-530.71102,-526.54799,-522.41614,-518.29571,-514.16814,-510.01597,-505.82282,-501.57341,-497.25348,-492.8498,-488.35015,-483.74327,-479.01885,-474.1675,-469.18074,-464.05097,-458.77142,-453.33615,-447.74005,-441.97875,-436.04866,-429.9469,-423.6713,-417.22038,-410.59331,-403.78987,-396.81047,-389.65611,-382.32831,-374.82916,-367.16123,-359.32761,-351.3318,-343.17779,-334.86992,-326.41298,-317.81207,-309.07266,-300.20051,-291.20169,-282.08251,-272.84953,-263.50955,-254.06951,-244.53656,-237.39972,-219.87134,-207.69994,-199.2071,-190.26395,-181.61173,-173.54296,-165.41641,-156.4759,-146.84397,-136.98948,-127.49973,-118.12284,-108.58442,-98.702116,-88.683608,-78.81289,-69.172609,-59.514846,-49.670599,-39.78483,-30.011321,-20.402345,-10.86607,-1.315941,8.1831703,17.60639,26.96393,36.346953,45.81313,55.298893,64.762194,74.188882,83.534489,92.884405,102.2116,111.43945,120.53471,129.51772,138.43256,147.25605,156.0239,164.70205,173.25851,181.66148,189.91041,198.07742,206.177,214.22067,222.14905,230.00429,237.86657,245.70732,253.46991,261.14318,268.70032,276.16605,283.61363,291.01519,298.31063,305.47425,312.61302,319.78963,326.99886,334.13645,341.19742,348.19915,355.23658,362.27979,369.22652,376.03579,382.7821,389.51798,396.20345,402.82348,409.30727,415.68786,422.07451,428.42983,434.69298,440.82321,446.8779,452.94439,459.0188,465.01887,470.92746,476.83063,482.74402,488.64138,494.48619,500.19791,505.81657,511.39023,516.88051,522.26905,527.49877,532.60047,537.66862,542.71303,547.63146,552.40171,557.06565,561.67315,566.27493,570.72325,575.00297,579.16773,583.31338,587.41919,591.44934,595.36152,599.19047,602.99795,606.81396,610.56135,614.17847,617.67549,621.10128,624.4964,627.77271,630.84333,633.75612,636.60846,639.40521,642.1068,644.60002,646.91185,649.17271,651.41878,653.54596,655.42565,657.09758,658.62593,660.03249,661.3469,662.49969,663.56127,664.58523,665.6174,666.65344,667.56311,668.35832,669.10713,669.85127,670.56167,671.11455,671.5097,671.86776,672.20558,672.47209,672.59147,672.62734,672.61567,672.65186,672.67664,672.60659,672.35393,672.01782,671.70083,671.36777,670.98649,670.48767,669.96916,669.51331,669.12258,668.67685,668.13817,667.61046,667.12392,666.70234,666.25319,665.78342,665.33165,664.98152,664.65967,664.25695,663.7801,663.31486,662.8457,662.40709,661.90122,661.32272,660.72683,660.20776,659.79871,659.36591,658.85623,658.39,657.98102,657.63301,657.27711,656.92134,656.6136,656.40228,656.30086,656.19005,655.98814,655.67489,655.44248,655.27208,655.06824,654.73661,654.37228,654.05508,653.87735,653.71736,653.48024,653.23937,653.08881,653.02149,652.99442,652.89317,652.76131,652.64697,652.5546,652.45486,652.30818,652.09656,651.91334,651.82395,651.78222,651.70051,651.5707,651.48534,651.44835,651.4331,651.31114,651.0973,650.90475,650.8104,650.776,650.7153,650.60228,650.57852,650.67835,650.81401,650.88479,650.95553,650.97499,650.96905,650.92079,650.84231,650.67312,650.55255,650.56467,650.66789,650.71298,650.74304,650.83192,650.97829,651.09112,651.11105,651.06845,651.05128,651.09693,651.15972,651.13727,651.06482,650.92065,650.86536,650.93639,651.03514,651.02207,650.98894,650.90566,650.81248,650.66468,650.46852,650.32276,650.28025,650.3539,650.35622,650.26918,650.1713,650.13473,650.1012,649.95534,649.70395,649.46185,649.32227,649.19531,649.00538,648.70385,648.3828,648.06218,647.7417,647.39843,646.92167,646.33059,645.80449,645.37941,644.91272,644.41801,643.93474,643.5048,643.0961,642.63444,642.08262,641.41997,640.89787,640.56098,640.23398,639.82577,639.37849,639.00648,638.69582,638.35418,637.96796,637.59298,637.2297,637.01626,636.77349,636.50185,636.23538,636.1335,636.13158,636.07877,636.01829,635.9586,635.96141,636.03917,636.13488,636.089,635.92651,635.79252,635.78421,635.85311,635.85766,635.81609,635.78894,635.88309,635.96964,635.98856,635.93793,635.82449,635.7301,635.61773,635.45885,635.23904,635.06928,634.99135,634.92981,634.84632,634.71597,634.55464,634.426,634.28797,634.13294,633.85855,633.60482,633.42973,633.29518,633.05455,632.80413,632.53925,632.35818,632.09072,631.77347,631.3633,630.95886,630.64305,630.43599,630.22285,629.92104,629.61159,629.42204,629.21359,628.97914,628.66487,628.34303,628.08611,627.86512,627.54756,627.17016,626.79045,626.58371,626.47103,626.30676,626.04948,625.80706,625.68913,625.5098,625.33007,625.15362,625.03564,624.97897,625.00148,625.04667,625.01037,624.9155,624.85902,624.87296,624.87243,624.81945,624.68426,624.56674,624.49547,624.39023,624.17575,623.95154,623.74512,623.51106,623.26212,622.9194,622.45917,622.04178,621.66709,621.2791,620.82078,620.42701,620.06861,619.74418,619.4523,619.06563,618.64222,618.23473,617.87285,617.56977,617.18055,616.68577,616.27926,615.94016,615.67205,615.26845,614.81365,614.3169,613.8569,613.39995,612.80888,612.14765,611.50476,611.0111,610.59784,610.25551,609.92354,609.9752,609.42394,608.37961,607.73917,607.82856,608.16153,607.86716,607.03001,606.40383,606.41131,606.65444,606.28146,605.28621,604.51573,604.56671,604.90795,604.71322,603.87937,603.16477,603.23279,603.6484,603.5776,602.87987,602.33344,602.48429,603.01596,603.01578,602.37739,601.86433,602.01671,602.63203,602.79677,602.26711,601.75041,601.89779,602.43403,602.60527,602.07905,601.87397,602.14015,602.40934,601.9985,601.31187,600.88698,600.8882,600.8801,600.4079,599.57366,599.03297,599.00158,599.03395,598.56654,597.79234,597.38168,597.58882,597.84834,597.47565,596.75327,596.26427,596.32119,596.39918,595.98192,595.12402,594.40877,594.38475,594.52114,594.134,593.28689,592.6197,592.49588,592.60314,592.2709,591.43926,590.72058,590.55001,590.5811,590.23116,589.38684,588.63832,588.38923,588.39617,588.07174,587.2476,586.56278,586.53822,586.78113,586.69701,586.04,585.37187,585.36386,585.73565,585.6992,585.11853,584.49421,584.40344,584.7626,584.78749,584.12125,583.35885,583.13056,583.30453,583.21115,582.50548,581.74119,581.65032,582.09025,582.34542,581.99583,581.4368,581.32496,581.63132,581.20733,580.71232,580.71816,581.01417,581.08432,580.54268,579.89691,579.69691,579.96779,580.00362,579.41608,578.6576,578.37092,578.53164,578.47363,577.81847,576.90178,576.50789,576.66246,576.72752,576.26469,575.6126,575.40296,575.59727,575.64131,575.10996,574.33467,574.04601,574.40609,574.78932,574.51402,573.84388,573.51921,573.71137,573.98704,573.82894,573.31645,573.13008,573.03371,572.99143,572.80578,572.59923,572.23509,571.9818,571.7785,571.52388,571.20054,570.90024,570.77536,570.72206,570.64547,570.52424,570.38441,570.2492,570.07635,569.90344,569.66883,569.40108,569.17548,568.97336,568.77413,568.52615,568.18049,567.89448,567.368,566.37268,564.39656,561.0158,555.7553,548.26732,538.72384,528.12879,518.40355,511.54857,509.32761,513.45972,523.33576,537.16026,553.67517,570.77285,587.15231,602.1474,615.7842,627.88694,638.33412,647.24892,654.57042,660.34822,664.75644,668.19712,668.82342,662.53362,651.55668,635.90418,603.57774,564.00331,524.89023,490.06358,461.75406,440.32267,425.35698,416.27547,411.71312,409.96294,410.17424,414.4696,424.06601,438.06021,454.40917,471.06998,486.90506,501.87216,516.32463,529.27092,538.78994,544.26428,546.48904,545.35488,539.67527,528.06988,510.71234,488.51845,461.78031,429.03572,388.45112,339.34701,282.38317,218.42454,147.25736,68.873065,-15.896229,-106.33762,-202.76228,-305.95474,-416.02668,-531.75045,-651.54494,-774.41125,-900.76117,-1031.2473,-1165.2451,-1301.0258,-1437.5476,-1575.0024,-1713.8164,-1853.529,-1992.5164,-2129.4367,-2264.3991,-2398.2946,-2530.814,-2660.3558,-2785.8579,-2907.1345,-3024.889,-3138.7739,-3247.3786,-3349.4239,-3444.6996,-3532.3171,-3613.8711,-3689.0482,-3757.9597,-3821.8847,-3881.7882,-3936.9718,-3985.6467,-4026.1885,-4058.9907,-4085.6822,-4107.0085,-4122.688,-4132.8653,-4139.2699,-4143.3651,-4144.93,-4141.1303,-4127.879,-4102.6957,-4063.1697,-4006.8279,-3930.1207,-3836.2009,-3732.748,-3621.8825,-3508.3792,-3393.4744,-3277.4039,-3157.9257,-3036.4348,-2912.8467,-2787.5557,-2660.9067,-2535.3575,-2414.3784,-2300.2959,-2194.0898,-2095.2987,-2004.6966,-1925.6121,-1861.6723,-1812.299,-1772.7886,-1745.2014,-1730.7169,-1714.2888,-1698.7182,-1685.908,-1676.6899,-1672.9618,-1675.4977,-1683.6147,-1695.8562,-1711.2851,-1729.3168,-1748.9363,-1772.498,-1801.9872,-1837.892,-1879.5126,-1925.8281,-1975.5073,-2027.6325,-2082.8776,-2141.8406,-2203.4516,-2266.6776,-2330.3927,-2394.434,-2458.9179,-2524.0057,-2588.2517,-2651.7195,-2714.4255,-2777.4332,-2840.7733,-2903.2151,-2963.2183,-3019.8823,-3072.8661,-3122.8348,-3170.4756,-3215.3426,-3256.2554,-3293.322,-3327.4438,-3359.948,-3391.4117,-3422.0862,-3452.2004,-3481.699,-3510.3059,-3537.4155,-3562.773,-3586.3683,-3608.9597,-3630.5563,-3650.9219,-3669.6539,-3686.4276,-3700.5397,-3710.6397,-3716.1361,-3716.7207,-3712.6932,-3704.4413,-3692.2001,-3675.9843,-3656.2034,-3633.7033,-3611.6152,-3589.9068,-3568.7512,-3547.6127,-3525.8028,-3503.5506,-3481.6404,-3461.0367,-3442.6201,-3427.0726,-3414.838,-3406.1747,-3400.3632,-3395.7183,-3389.6614,-3380.3107,-3366.3956,-3347.6433,-3324.9583,-3299.631,-3274.6877,-3253.3404,-3240.1651,-3233.5423,-3227.3539,-3221.8654,-3214.0777,-3203.5917,-3189.221,-3173.0137,-3155.7277,-3138.7839,-3122.537,-3107.1938,-3092.1452,-3076.0771,-3058.2493,-3037.9383,-3015.5098,-2991.932,-2967.1125,-2940.5166,-2912.5762,-2883.9241,-2854.7772,-2825.2559,-2795.2348,-2765.6853,-2737.5371,-2710.667,-2684.7513,-2659.7302,-2635.947,-2614.054,-2594.2153,-2576.5107,-2561.8125,-2549.5853,-2538.4661,-2527.7006,-2517.6689,-2508.6657,-2500.7573,-2493.7762,-2486.9137,-2479.53,-2471.7119,-2463.2123,-2453.5305,-2441.0218,-2424.3478,-2402.3594,-2375.8537,-2344.1831,-2306.9932,-2262.9446,-2211.2646,-2151.0962,-2081.9989,-2004.7628,-1920.7947,-1830.5882,-1734.7971,-1634.7576,-1532.5075,-1429.2334,-1325.7907,-1222.5954,-1120.0761,-1018.3841,-917.92401,-819.33821,-723.74513,-634.06875,-552.24058,-479.81789,-416.84559,-363.32469,-318.87656,-283.24897,-256.42134,-238.54985,-230.24402,-231.69925,-242.83105,-263.39423,-292.93091,-330.91727,-376.65172,-429.61865,-489.38028,-555.52219,-627.47121,-704.95893,-788.06784,-876.91927,-971.13834,-1070.2637,-1173.7314,-1281.1439,-1391.9877,-1505.2896,-1620.0606,-1735.7052,-1851.4931,-1967.095,-2082.2372,-2196.4748,-2309.4855,-2421.2561,-2531.3064,-2639.0418,-2743.9176,-2845.1382,-2942.314,-3034.9079,-3122.2922,-3203.5843,-3278.1215,-3345.5551,-3405.4758,-3457.7927,-3502.1676,-3537.8081,-3564.2418,-3580.8901,-3587.092,-3582.3859,-3566.719,-3540.4587,-3503.8524,-3457.1242,-3401.1652,-3336.7743,-3264.5722,-3185.7974,-3101.9831,-3014.5206,-2922.4847,-2825.2118,-2723.0222,-2616.8765,-2507.9797,-2397.2854,-2285.8617,-2174.544,-2064.049,-1955.1565,-1848.6976,-1745.7545,-1646.9894,-1552.8538,-1464.3266,-1382.0309,-1306.2128,-1237.188,-1174.8844,-1118.6623,-1067.6846,-1021.4575,-980.15058,-943.3386,-910.7562,-881.38027,-854.09487,-829.04407,-807.43609,-788.95182,-773.67807,-761.10778,-750.19176,-740.01043,-730.39506,-721.3922,-712.70405,-703.5069,-693.04027,-681.45759,-668.87397,-655.63711,-642.26569,-629.54327,-618.52234,-610.27643,-604.34461,-600.16062,-597.2001,-595.30523,-594.2435,-593.88662,-594.15868,-594.72988,-595.3356,-595.93555,-596.14962,-595.68864,-594.11552,-591.31405,-586.85334,-580.50997,-572.19672,-561.58101,-549.22311,-535.54528,-521.17021,-506.35206,-491.18874,-475.34978,-458.60629,-440.98112,-422.31949,-402.18704,-380.66419,-358.24271,-334.93043,-311.22391,-287.68209,-264.75327,-242.85296,-222.023,-201.40619,-180.71602,-160.03293,-139.81306,-121.30879,-105.09038,-91.521178,-79.855274,-70.461367,-63.557773,-59.292413,-58.116613,-59.501566,-63.303759,-69.44074,-77.355526,-85.797946,-94.594679,-104.17015,-114.66481,-125.73896,-136.73476,-147.57932,-158.65726,-170.49947,-183.30339,-197.10549,-211.9159,-228.02903,-245.42038,-263.6398,-282.57908,-302.42032,-323.34661,-345.29028,-367.9247,-390.83295,-413.86053,-437.15274,-460.5119,-483.62252,-506.15031,-528.07768,-549.47803,-570.17538,-589.98754,-608.57203,-625.69651,-641.46031,-655.38512,-667.30049,-677.07268,-685.44589,-692.59177,-699.16653,-705.83771,-712.65913,-718.41684,-722.53139,-724.9366,-726.10824,-726.51544,-726.1765,-725.26197,-724.03129,-722.29851,-720.12865,-717.926,-715.68633,-713.63407,-711.31063,-708.81029,-706.08045,-703.50786,-701.52534,-699.84467,-698.65294,-698.00975,-697.93577,-698.73827,-700.56512,-703.38239,-707.1549,-711.8357,-717.42423,-723.88741,-730.8892,-738.26702,-745.70229,-753.48694,-761.559,-769.82335,-778.59719,-787.99644,-798.4142,-809.71824,-821.39625,-832.85276,-844.26712,-855.70682,-866.90179,-877.46966,-887.4602,-896.93621,-905.73735,-914.00155,-921.63938,-928.46334,-934.47641,-939.81331,-944.58638,-949.22926,-954.36613,-960.47001,-967.74905,-975.76783,-983.9064,-991.60507,-999.73798,-1008.2677,-1017.0982,-1025.7696,-1033.2467,-1039.3831,-1043.8738,-1046.494,-1046.9025,-1045.9019,-1043.9612,-1041.0512,-1036.9067,-1031.5248,-1025.0238,-1017.5041,-1008.9409,-999.16341,-988.29153,-976.74451,-964.69213,-951.78719,-938.09609,-924.0165,-909.75931,-894.96215,-880.04921,-865.37428,-850.94215,-836.51069,-822.00625,-807.59937,-793.73074,-780.38396,-767.26374,-754.4503,-742.03745,-730.41684,-719.56452,-708.87827,-698.27457,-688.10145,-678.81659,-670.37554,-662.60228,-655.13834,-647.95903,-640.65867,-633.29111,-626.01089,-618.90763,-612.41133,-606.69323,-601.42862,-596.43011,-591.57459,-587.00113,-582.60164,-578.46518,-574.29742,-570.14384,-566.23478,-562.50188,-559.00674,-555.51228,-552.09978,-548.75264,-545.42535,-542.14432,-538.76034,-535.33729,-531.96469,-528.66163,-525.3565,-521.98149,-518.44184,-514.86734,-511.20283,-507.56658,-503.93448,-500.04442,-496.01957,-491.61726,-487.05224,-482.34993,-477.67624,-472.81923,-467.81062,-462.75025,-457.5815,-452.17981,-446.65529,-441.04347,-435.64308,-430.4392,-425.32037,-420.24664,-415.29084,-410.43617,-405.5369,-400.47445,-395.54111,-390.77536,-386.06429,-381.32602,-376.54007,-371.45885,-366.44508,-361.46428,-356.16257,-350.84877,-345.40887,-340.01722,-334.69091,-329.25619,-323.52844,-317.72952,-312.21256,-306.94963,-301.74766,-296.26775,-290.43718,-284.43933,-278.64455,-272.89076,-266.71531,-259.92904,-252.91877,-245.89101,-238.90924,-231.78581,-224.04171,-216.02862,-207.89161,-199.68354,-191.0858,-182.4581,-173.47113,-164.15339,-154.60826,-144.58072,-134.11539,-123.22035,-111.83745,-100.04171,-87.804023,-75.042298,-62.024074,-48.668506,-34.585047,-19.997286,-5.2209476,9.7868794,24.980141,40.369415,56.007253,71.762678,87.695547,103.63743,119.44,135.2041,150.94588,166.51434,182.07038,197.17887,212.07874,226.86911,241.56549,256.04744,270.27234,284.32741,298.25178,312.04764,325.79034,339.36894,352.74243,366.05214,379.2503,392.29402,405.10499,417.64147,429.97374,442.01313,453.83753,465.40394,476.98068,488.59878,500.14079,511.57484,523.03578,534.59534,546.13057,557.93968,569.52647,580.72037,591.92264,603.09529,614.30554,625.28752,636.1371,646.57421,656.69564,666.55434,675.87375,684.92454,693.62663,702.05261,710.27997,718.29864,726.31051,734.2199,741.83807,749.30201,756.92774,764.51848,771.72258,778.96355,786.03086,793.02112,799.83454,806.27307,812.55614,818.66519,824.4751,830.13781,835.42389,840.40581,845.19811,849.71191,854.00998,858.21355,862.21978,865.95467,869.41768,872.77625,876.12409,879.20576,881.73898,883.86544,885.53661,886.93301,888.51219,889.94478,890.98275,891.59848,891.98436,892.20522,892.46491,892.61704,892.58738,892.74092,892.95925,893.27851,893.62916,893.82483,894.21807,894.83325,895.39231,896.09305,896.97837,897.77526,898.56895,899.29624,900.13008,901.10788,902.12236,903.04698,904.10681,904.97468,905.84965,906.64484,907.50372,908.39325,909.37242,910.18564,910.99024,911.9091,912.98457,914.0473,915.13469,916.25494,917.42892,918.63967,920.06856,921.53846,922.73713,923.86176,925.10857,926.28794,927.352,928.34466,929.29522,930.18921,931.04361,931.8103,932.60265,933.37663,934.00493,934.76231,935.5872,936.25487,936.71923,937.39841,938.08839,938.72245,939.34746,939.88252,940.58673,941.37638,942.14707,942.76169,943.50577,944.12781,944.84233,945.64093,946.24953,946.82218,947.68858,948.59956,949.46223,950.19187,950.89605,951.54664,952.5843,953.56671,954.3564,955.19185,956.03432,956.8952,957.70605,958.47862,959.16344,959.71876,960.35098,960.9958,961.31046,961.54341,961.83161,962.09191,962.39108,962.65169,962.57972,962.50046,962.56477,962.6351,962.49872,962.23403,961.9504,961.82592,961.77367,961.78837,961.85973,961.8045,961.66708,961.71062,961.70858,961.5544,961.64164,961.70922,961.68044,961.64165,961.59193,961.68714,961.85336,961.84384,961.83444,961.77941,961.46783,961.24321,961.14899,961.08488,961.09214,961.05556,961.08874,961.17024,961.10784,960.81363,960.50692,960.19651,960.06137,959.96311,959.8402,959.55042,959.20767,958.92258,958.62244,958.35155,957.97779,957.61638,957.3726,957.07376,956.73529,956.28237,955.89217,955.60635,955.06053,954.61201,954.09464,953.3788,952.65246,952.17865,951.62895,950.73889,949.94991,949.23106,948.41539,947.5724,946.44777,945.38723,944.29657,943.28936,942.09943,940.94299,939.84796,938.74856,937.57234,936.26521,934.87365,933.64146,932.41243,931.02492,929.58325,928.16259,926.76305,925.30807,923.98381,922.75223,921.4541,919.9746,918.38593,917.06322,915.92044,914.6478,913.60029,912.47157,911.19802,909.92092,908.71841,907.31088,906.02895,904.7875,903.58186,902.34325,900.95957,899.65994,898.41403,897.14358,896.03291,894.64698,893.18232,891.91131,890.82358,889.5178,888.04264,886.6147,885.07725,883.72207,882.58809,881.43849,880.25167,879.03093,877.6994,876.3769,875.03382,873.86315,872.51812,871.34469,870.21731,868.84075,867.44228,866.21141,864.98018,863.76622,862.45659,861.13052,859.90295,858.72054,857.39809,856.16345,854.9113,853.78803,852.61133,851.39078,850.09367,848.80263,847.54515,846.44954,845.38501,844.46798,843.76243,843.20829,842.80273,842.26058,841.9338,841.54795,840.63408,839.14195,837.36731,835.21175,832.93027,830.26786,827.23034,824.05447,820.80676,817.6331,814.78358,812.44979,810.44642,808.53001,806.8422,805.61589,804.61681,803.77075,803.31623,802.93879,802.82699,802.85547,802.93482,803.18494,803.56628,804.05237,804.36072,804.67738,805.00119,805.05284,804.84406,804.79342,804.77385,804.37984,803.62344,802.84057,802.08017,801.11049,799.94622,798.70437,797.71406,796.5548,795.1195,793.60236,792.0716,790.7862,789.5826,788.21577,786.89111,785.50898,784.13476,782.98259,781.97783,780.72449,779.55567,778.5559,777.70079,776.93091,776.17589,775.61721,774.99047,774.60591,774.3965,774.1745,774.24257,774.61524,775.21689,775.68189,776.40839,777.17798,778.03978,779.58127,781.32098,782.8449,784.38906,786.04912,787.93831,790.00702,792.16721,794.43579,796.68612,799.09119,801.49779,803.86691,806.16804,808.48611,810.74861,813.15841,815.61838,817.93446,820.01316,822.05722,823.86635,825.64098,827.4621,829.31118,831.06926,832.84024,834.4688,835.913,837.45324,838.98426,840.38261,841.66645,842.59088,843.21552,843.44428,842.95411,841.85643,839.64446,836.76865,833.43916,829.70835,825.4674,820.80532,815.5964,810.26015,804.91877,799.5018,794.30867,789.29164,784.25526,779.2596,774.16176,769.14111,764.18448,759.31893,754.71356,750.29354,745.93203,741.67267,737.43129,733.31467,729.37062,725.60959,721.73442,718.15704,714.81,711.45043,707.89131,704.56281,701.57986,698.66269,695.72045,692.90136,690.13685,687.43326,684.93771,682.69283,680.53433,678.47989,676.41663,674.48718,672.74235,671.14415,669.64212,668.28163,667.00847,665.85485,664.55859,663.19039,661.93237,660.75442,659.37156,658.01208,656.83015,655.61304,654.4082,653.12505,651.60578,650.29989,649.14363,647.72918,646.37774,645.1662,643.70381,642.34247,640.87888,639.40427,637.9502,636.78116,635.55696,634.102,632.64901,631.51506,630.34881,629.06554,627.74907,626.61174,625.43286,624.33688,623.16098,622.21059,621.23005,619.99767,618.80471,617.66101,616.70915,615.6913,614.60034,613.39787,612.35145,611.3665,610.47054,609.47496,608.41278,607.3517,606.39443,605.3356,604.40262,603.41977,602.49647,601.50075,600.42378,599.41959,598.51141,597.57162,596.67684,595.86488,595.01767,594.08657,593.20727,592.34319,591.56607,590.69987,589.70797,588.78323,587.85635,586.97449,586.2454,585.39335,584.6081,583.96726,583.27012,582.31251,581.18244,580.18362,579.40682,578.68308,577.78719,576.83455,575.83475,574.93832,574.43897,573.61852,572.80423,572.19566,571.50813,570.57641,569.68394,569.1003,568.44448,567.76876,566.76159,565.78096,564.83076,564.07697,563.39729,562.60504,561.90121,561.09913,560.27623,559.45713,558.61545,557.75648,556.88028,556.05891,555.21742,554.41215,553.46965,552.50773,551.67263,550.78228,550.12753,549.45167,548.71659,547.85831,546.96826,546.19353,545.38111,544.81939,543.9492,543.0701,542.4241,541.83229,540.92741,540.14344,539.29706,538.64764,538.12455,537.50226,536.73273,535.79702,535.04602,534.53002,533.7453,532.83314,531.92437,531.30651,530.77626,530.20975,529.27689,528.55108,527.88371,526.99141,526.35646,525.65053,524.88739,524.1942,523.71543,523.21424,522.50707,521.5757,520.92547,520.31629,519.70911,519.02178,518.33001,517.76782,517.25618,516.42417,515.72648,514.98969,514.39895,513.78375,513.24084,512.66022,511.8125,511.26879,510.68706,510.01313,509.61466,509.07886,508.37388,508.00431,507.4188,506.86955,506.3625,505.86855,505.33679,505.0125,504.44147,504.04097,503.40701,502.7202,502.1357,501.5811,500.95084,500.4228,499.92017,499.57929,499.03817,498.47983,497.96092,497.50949,497.20273,496.90774,496.2551,495.60528,495.12742,494.77052,494.33591,493.90141,493.34514,493.16107,492.94948,492.65744,492.21163,491.69509,491.18345,490.73049,490.28662,489.72556,489.21076,488.70594,488.07318,487.72554,487.189,486.45274,485.78822,485.16136,484.55202,483.91839,483.39319,482.75429,482.05786,481.4234,480.72795,480.24249,479.49326,478.92287,478.22265,477.6048,476.88063,476.15459,475.4371,474.69406,473.88858,473.15048,472.53564,471.87384,471.13054,470.09473,469.27374,468.40443,467.5176,466.61888,465.70503,464.83455,463.91104,463.01194,462.13327,461.51325,460.70853,459.72704,458.9766,458.14809,457.33308,456.7298,455.96944,455.24605,454.358,453.59901,452.94381,452.17751,451.58961,450.97714,450.23606,449.50935,448.67521,448.0191,447.59841,446.96655,446.30901,445.65807,445.28304,444.57285,444.01326,443.50201,442.7802,442.40915,441.8602,441.20612,440.59923,440.33569,439.85358,439.30394,438.94277,438.45157,438.08662,437.81396,437.34591,436.87279,436.24731,435.81761,435.48452,434.93455,434.42642,434.11344,433.67459,433.1953,432.53157,431.89282,431.39742,431.0106,430.4417,430.16946,429.60927,428.97039,428.58925,428.34665,428.08098,427.51569,426.96002,426.62091,426.11397,425.39992,424.86492,424.312,423.6375,423.2712,422.97505,422.22464,421.59556,420.85587,420.23189,419.81395,418.97113,418.19429,417.73648,417.27029,416.77008,416.26691,415.58606,414.86986,414.27512,413.7685,413.07466,412.64874,411.84609,411.49423,411.12151,410.63085,410.05747,409.50672,409.10603,408.71635,408.43197,408.16549,407.91861,407.4195,407.01969,406.52918,406.01738,405.60827,405.44522,405.2116,404.64984,404.20239,403.91997,403.53302,403.26008,403.01218,402.51405,402.16075,401.80605,401.44533,401.0552,400.73969,400.41971,400.27666,399.75172,399.40601,399.01392,398.83205,398.64118,398.28966,397.82786,397.51833,397.29353,397.04524,396.79014,396.38512,396.03536,395.67022,395.55155,395.17423,394.91676,394.408,393.87589,393.5951,392.77404,392.42491,391.90459,391.19346,390.30167,389.72169,389.1608,388.45565,387.87375,387.08272,386.39767,385.41973,384.34055,383.06679,382.05285,381.34599,381.4233,382.18871,383.42492,385.26,387.47326,389.82138,392.31689,394.96885,397.65488,400.7469,403.66746,406.6863,409.73986,412.2586,414.34456,415.66938,416.40616,416.10156,415.08374,413.62833,411.4139,408.25075,404.13169,399.4518,393.87041,387.48579,380.76091,373.18934,365.17546,356.66278,347.77584,338.4255,328.47894,318.22894,308.08764,297.75668,287.14052,276.46593,266.0606,255.88657,245.89815,236.3096,226.72398,217.60862,208.84916,200.44814,192.47482,185.16727,178.28728,172.00357,166.4522,161.43876,157.02982,152.93318,149.69197,147.29676,145.80441,144.95974,144.53023,144.82482,145.98143,148.05247,150.52277,153.57021,157.52731,162.32955,167.58496,173.56686,179.89887,186.93658,194.9302,203.22152,211.82261,220.7113,230.0413,240.02373,250.14253,260.54483,271.18469,281.92836,292.82575,303.85819,314.4906,324.99394,335.59474,346.00916,355.99186,365.65985,374.91606,383.41959,391.52577,398.92231,405.47672,411.44276,416.62583,421.25334,424.79128,427.35277,429.24576,430.60465,430.79081,430.19816,428.83835,426.79615,424.00017,420.6038,417.28949,414.26069,411.6375,409.11788,407.27452,405.79213,404.37932,402.99363,401.54687,400.67792,400.25805,400.52652,400.99611,401.97369,403.44326,405.04037,406.28195,407.51529,409.03506,410.36186,411.83684,413.04785,414.51745,415.98774,417.3183,418.83766,419.85259,420.90856,421.85638,422.91379,423.78858,424.40912,424.8768,425.23999,425.67137,425.81689,425.82079,425.84859,425.75257,425.22593,424.78753,424.3031,423.58146,422.90443,422.02557,421.15455,419.89264,418.46293,416.93708,415.26594,413.68892,412.12909,409.87654,407.79816,405.66138,403.44182,400.9418,398.19556,395.67426,393.377,390.9367,388.04097,385.00662,382.09378,379.40928,376.68288,373.79064,370.73945,367.73482,365.15062,362.44792,359.64298,356.69215,353.75564,351.21901,348.56815,346.0479,343.31069,340.71844,338.37712,336.29898,334.0829,331.82545,329.35447,327.07768,325.06471,323.0311,320.82216,318.64684,316.59765,314.70305,312.79534,310.62388,308.51721,306.65004,304.85752,303.1887,301.22864,299.13299,297.12753,295.4059,293.55713,291.67821,289.65753,287.66083,286.0387,284.3709,282.36597,280.07803,278.23559,276.87973,275.23707,273.40084,271.56363,270.07398,268.72253,267.40981,265.87976,264.29538,263.1255,261.98546,261.18724,260.00032,258.87163,258.09986,257.25581,256.63483,255.98517,255.45085,254.80434,254.33879,253.96622,253.70116,253.37663,253.06334,253.13027,253.08754,253.13899,253.16247,253.05786,253.24311,253.62624,254.01734,254.12752,254.1172,254.4415,254.98064,255.32025,255.41978,255.62105,256.21317,256.98537,257.43649,257.88619,258.29861,258.94039,259.62122,260.2144,260.56956,260.72528,261.36219,261.9297,262.218,262.67389,263.04828,263.52165,264.04541,264.59203,264.73839,265.1124,265.43817,265.83561,266.1914,266.30626,266.31576,266.47288,266.67863,266.79414,266.88128,266.84845,266.57432,266.71706,266.74432,266.63676,266.50612,266.52719,266.69373,266.55259,266.53535,266.31496,266.27318,266.19719,266.29617,266.08994,265.91736,266.0347,266.04238,266.01853,266.04516,265.75817,265.72904,265.84416,265.89612,265.85103,265.77142,265.6817,265.83155,265.85398,265.88078,265.71897,265.87995,266.05414,266.20212,266.21551,266.17135,266.34279,266.66958,266.7771,266.95476,267.26104,267.59318,267.82281,268.43702,268.83653,268.96739,269.24961,270.04636,270.73596,271.31533,271.89289,272.42285,273.16773,274.20444,274.79325,275.32385,275.84361,276.47868,276.88518,277.35101,277.52342,277.58129,278.08544,278.66215,278.93849,279.12942,279.3288,279.31315,279.49465,279.30368,278.76639,278.49085,278.29034,277.90107,277.16482,276.43358,275.77121,275.04302,274.15064,273.23601,272.35264,271.52358,270.549,269.71359,268.64924,267.36232,266.10686,265.00369,263.85398,262.6322,261.32807,260.37508,259.21382,258.30269,257.37853,256.39638,255.3826,254.55319,254.01954,253.25658,252.72539,251.97415,251.28751,250.80922,250.3841,250.0178,249.91185,249.85105,249.74283,249.55208,249.42224,249.2252,249.33156,249.23688,249.53811,249.56547,249.92974,250.44629,250.75265,251.4062,252.25036,252.98859,254.02028,255.1449,256.18107,257.21105,258.27696,259.091,260.25518,261.26518,262.03966,262.8362,263.61557,264.29578,264.86364,265.41782,265.54698,265.62623,265.74907,265.76081,265.41211,265.06807,264.3793,263.75329,263.10647,262.06518,261.00292,259.71763,258.18331,257.15734,256.06992,254.47512,253.06654,251.95771,250.77399,249.53666,248.1502,246.94144,245.73477,244.68387,243.66759,242.45475,241.50298,240.75863,239.63672,238.87698,237.79489,236.77279,235.88594,235.18091,234.21132,233.0717,231.89092,230.38573,228.92978,227.46528,225.55241,223.51325,221.8053,219.58092,217.25612,214.70583,211.8612,208.44111,205.18782,201.69869,198.08211,194.26712,190.35962,186.44471,182.60358,178.52552,174.11798,169.66405,165.24098,160.68693,155.81043,150.95469,145.85277,140.69579,135.4073,129.84918,123.76923,118.02993,112.38265,106.58253,100.36802,94.01521,87.926727,81.666454,75.529606,69.067475,62.583728,56.325017,50.248048,44.106507,38.004512,31.779354,25.699564,20.083792,14.718458,9.280931,4.1529955,-0.47399124,-4.5658365,-8.4825449,-11.712787,-14.890246,-17.738279,-19.692269,-21.061196,-22.4029,-22.862176,-23.338971,-23.136238,-22.432346,-21.510555,-20.143403,-18.414866,-16.465524,-13.758066,-10.719629,-7.5963829,-4.4617475,-0.85126152,3.2793142,7.345677,11.726916,16.468825,21.258933,25.95907,31.01242,36.090354,41.079969,46.273017,51.590262,57.109058,62.503072,68.178288,74.108374,79.896311,85.576214,91.410686,96.848044,102.2539,107.81576,113.53233,119.03821,124.61493,130.15874,135.69446,140.96501,146.36089,151.41283,156.17558,160.9598,165.38595,169.83598,173.88953,177.67558,181.25857,184.49847,187.60196,190.22272,193.0248,195.48437,197.68668,199.68506,201.31046,202.44353,203.59725,204.58035,205.13523,205.32739,205.86465,206.25323,206.5374,206.59396,206.72179,206.54981,206.73515,206.75438,206.37111,206.17268,205.91783,205.40648,204.96667,204.54029,203.86264,203.17239,202.35239,201.66981,200.61803,199.96658,199.41688,198.6104,197.69226,197.08486,196.24332,195.36327,194.84764,193.95545,193.27737,192.6821,192.28753,191.7196,191.48133,191.24296,191.20293,191.136,191.17202,191.20787,191.39296,191.67618,191.90746,192.57899,193.28534,193.74937,194.43891,195.29483,196.45739,197.52371,198.67728,199.48704,200.8393,201.89866,202.93981,204.19179,205.38305,206.74616,208.2111,209.29257,210.39041,211.58632,212.88658,214.02537,215.0914,216.53397,217.57631,218.23206,219.19229,220.29502,221.26589,221.96465,222.90598,223.73991,224.5366,225.41852,226.20855,226.80486,227.31459,227.9049,228.54363,228.90673,229.36708,229.89391,230.28863,230.32341,230.58753,230.57729,230.63438,230.5675,230.59221,230.30187,230.15246,230.17075,230.00483,229.84197,229.49888,229.298,229.17345,228.96547,228.6615,228.34424,228.27646,228.21349,228.18722,228.06958,227.99359,228.04834,228.16952,228.20203,228.36522,228.48894,228.55129,228.65572,228.86681,229.30054,229.67116,229.80768,230.18505,230.48508,230.8036,231.2986,231.41636,231.78373,232.04334,232.33458,232.5418,232.65575,232.80835,233.10534,233.06467,233.27173,233.50176,233.42847,233.60345,233.92364,234.03072,234.36516,234.71519,234.80812,235.39437,235.64907,235.66881,235.86441,236.41289,236.43559,236.72354,236.82576,236.7941,236.83195,237.02035,237.01172,236.98417,236.93561,236.62265,236.66427,236.67285,236.2403,235.91302,235.4605,234.97577,234.64148,234.06875,233.06018,232.36973,231.96792,231.24128,230.13927,228.92903,227.90195,227.06402,226.28542,225.34838,224.45249,223.66516,223.03915,222.00833,221.13858,220.70583,220.05541,219.37868,218.62058,218.28901,217.5135,216.99304,216.59684,216.14546,215.89827,215.27021,214.90927,214.59444,213.9344,213.26736,212.58078,211.94451,211.31196,210.53448,209.71764,209.13071,208.0836,207.27738,206.42242,205.74165,204.63408,203.57113,202.34342,201.44195,200.25615,198.90652,197.38457,195.98246,194.80958,193.32602,191.95384,190.49192,189.1133,187.74215,186.17207,184.63059,183.01667,181.50012,180.01024,178.57059,176.77888,175.20101,174.00326,172.57353,170.81511,169.04271,167.33264,165.75283,164.14176,162.23084,160.37382,158.5851,156.86293,155.15652,153.60176,151.82176,149.7736,147.98864,146.77707,145.44001,143.84734,142.48773,141.18342,140.14599,139.03475,137.92596,136.75562,135.82249,134.83104,133.57288,132.63582,131.64199,130.72823,130.56782,130.48544,130.40085,130.74072,131.51199,132.58943,133.82259,134.85202,136.00595,137.11107,137.95766,138.82774,139.80063,140.52975,140.89939,141.522,141.6382,141.7703,141.81136,141.80552,141.48329,141.2429,141.04017,140.61895,140.39697,140.04194,139.59805,139.02949,138.29153,137.58051,136.91197,136.36102,135.65026,134.46196,133.60845,132.99969,132.59079,131.56231,130.99628,130.43392,129.80479,129.40086,128.5213,127.79637,127.25242,126.68755,126.0475,125.5479,124.97378,124.54028,124.23476,123.99958,123.61861,123.00193,122.80326,122.57263,122.50679,122.01759,121.93755,121.54184,121.70869,121.79178,121.86721,121.67845,121.64432,122.04012,122.41507,122.79053,122.84002,123.02804,123.45819,124.15144,124.6351,125.07139,125.71354,126.57602,127.22819,127.89993,128.8424,129.63743,130.41511,131.09086,131.64014,132.40538,133.17126,134.00694,134.74182,135.56952,136.03362,136.68296,137.21479,137.8046,138.24449,138.46099,138.69433,139.01701,138.95977,138.95689,138.76231,138.37237,138.09562,137.48936,136.78418,135.74486,134.698,133.67006,132.43699,131.56203,130.90436,130.16105,129.90105,129.59755,129.32799,129.39335,129.31612,129.05362,128.95576,128.91595,128.52608,127.90051,127.64596,127.47457,127.46928,127.12916,126.47058,126.4225,125.98658,125.70279,125.5899,125.09288,124.62355,124.23424,123.62619,123.04946,122.90909,122.32676,121.79336,121.43049,120.87931,120.23948,119.62283,119.03219,118.51704,117.98389,117.57976,116.87226,116.41279,115.94207,115.4299,114.77505,114.17198,113.69763,113.12527,112.61216,112.15826,111.50524,110.90439,110.5672,110.04916,109.64422,109.02077,108.32846,108.14539,107.58958,107.06311,106.54781,106.0466,105.76943,105.3618,104.97751,104.44141,104.09173,103.53097,103.04554,102.6514,102.22495,101.82258,101.28742,100.91017,100.67047,100.30166,99.764433,99.2461,99.05452,98.513923,98.107801,97.763487,97.459631,96.979329,96.541812,95.975838,95.428916,95.144249,94.905845,94.468394,94.011581,93.147194,92.730418,92.144182,91.957558,91.283838,90.947508,90.55837,90.044436,89.634499,89.360497,88.964415,88.473378,88.07392,87.703838,87.202141,86.777492,86.367116,86.217734,85.871721,85.2937,84.518103,84.046162,83.885987,83.364691,82.844223,82.08599,81.732959,81.385925,80.811446,80.198804,80.030163,79.63667,79.166716,78.702437,78.457585,78.378094,78.229022,77.622894,77.234082,76.996469,76.580456,76.444593,76.209064,75.790433,75.331784,75.049573,74.750553,74.804558,74.574879,73.989955,73.622692,73.757107,73.419489,73.233751,72.7023,72.60094,72.439188,72.280815,72.040755,71.578609,71.21523,71.058058,70.739091,70.674749,70.315801,69.817671,69.813596,69.361203,68.982493,68.528348,68.078983,67.803761,67.679813,67.377381,66.908418,66.401155,66.394333,65.844215,65.707528,65.423442,64.813158,64.471408,64.249712,64.231357,63.721922,63.327296,62.88089,62.547055,62.399361,61.95532,61.546811,61.09396,60.949022,60.673505,60.14197,59.415354,59.297424,59.020897,58.703963,58.617275,58.02092,57.476807,57.290807,57.061945,56.764289,56.519552,56.159298,55.923742,55.793459,55.460101,54.85461,54.807285,54.719835,54.523921,54.35941,54.091084,53.849562,53.630693,53.619179,53.384693,52.864619,52.267844,52.345782,52.153714,51.945613,51.866338,51.256108,51.137981,50.937965,50.700599,50.170843,49.9391,49.796906,49.64855,49.236571,48.727531,48.250462,48.146277,48.09051,47.830255,47.599466,47.323266,47.310357,47.059451,47.025252,46.745561,46.320228,46.201053,46.338707,46.261888,46.025374,45.484653,45.519808,45.587709,45.220018,44.943384,44.62826,44.474621,44.268756,44.042915,43.765365,43.463772,43.190364,43.302635,42.984328,42.942246,42.553518,42.414481,42.110758,42.020257,41.861945,41.783492,41.589472,41.558553,41.32049,40.97624,40.561691,40.127602,40.190094,39.966055,39.776565,39.35201,39.1118,38.876134,38.834596,38.460434,38.425822,38.125892,38.181049,37.932506,37.649808,37.450149,37.477117,37.229081,37.063577,36.488373,36.208504,36.039549,35.83781,35.501923,35.198449,34.759344,34.294711,34.093103,33.620424,33.122805,33.037623,32.463389,32.371314,31.932617,31.489291,31.287303,30.94437,30.648103,30.59763,30.237038,29.952659,29.70625,29.414266,29.202341,28.710164,28.483666,28.240383,27.741455,27.915399,27.495368,27.196392,27.003306,26.879223,26.695759,26.310656,26.041442,26.143262,25.891536,25.985774,25.613195,25.222713,25.168935,25.091759,24.726069,24.418917,24.431518,24.149884,23.890627,23.623464,23.606978,23.47373,23.439572,23.351155,23.142452,23.026638,22.899923,22.512524,22.364732,22.378974,22.098206,22.062102,21.77636,21.618158,21.380646,21.142461,20.821452,20.967914,20.662862,20.445218,20.254912,20.214096,19.966428,19.603992,19.471532,19.32718,19.553086,19.493219,19.232108,19.068413,19.112172,18.974039,18.679274,18.638063,18.650303,18.319519,18.287671,17.885527,17.5446,17.341967,16.94888,16.562166,16.346889,15.967769,15.71153,15.533188,15.29525,15.030288,14.751687,14.786233,14.579043,14.46737,14.201009,14.219718,14.22051,14.221151,14.102151,13.790603,13.705575,13.602906,13.664944,13.672255,13.396134,13.217336,13.02602,12.820366,12.504495,12.133578,11.850235,11.707573,11.626491,11.315639,10.957105,10.724746,10.331384,10.460981,10.131024,9.5320463,9.0095837,8.8614592,8.5386817,8.2544535,7.735379,7.1922295,6.6532918,6.4650051,6.0018996,5.6943576,5.3781182,5.2114809,4.8753173,4.4866011,4.0990944,3.4853531,3.1306451,2.8737209,2.6054087,2.0768826,1.625195,1.2361546,0.69127803,0.58137025,0.055050965,-0.44265582,-0.58498387,-0.79990899,-1.1584151,-1.5918579,-1.7929366,-1.9550574,-2.2121329,-2.4491459,-2.8507309,-3.3119732,-3.5075512,-3.6530231,-3.9330653,-4.172716,-4.3484487,-4.7902609,-4.8456408,-4.9098769,-5.2084838,-5.5135729,-5.6529357,-5.5190416,-5.7134682,-5.7866127,-6.77772,-7.3672418,-7.8458734,-8.1107487,-8.6104684,-9.1165873,-9.2541195,-8.861485,-8.0281851,-7.5250385,-7.3451777,-6.6963775,-6.1348408,-5.8001692,-5.6459653,-5.5517661,-5.5689056,-5.3203446,-5.2265913,-5.7405833,-5.9857984,-6.2051472,-6.7874633,-7.2080301,-7.5943038,-8.4827092,-9.1020498,-9.9452278,-10.834262,-11.793721,-12.76962,-13.745209,-14.784063,-15.719473,-16.445127,-17.532923,-18.738149,-19.881148,-20.872739,-21.663283,-22.591961,-23.699954,-24.522129,-25.506441,-26.435366,-27.491747,-28.560186,-29.693578,-30.405334,-31.355221,-31.944388,-32.743429,-33.564355,-33.906573,-34.109487,-34.85904,-35.382294,-35.706044,-36.073708,-36.468085,-36.842351,-36.858625,-36.993821,-36.86694,-36.960361,-36.932939,-36.846218,-36.44237,-36.293529,-35.505981,-35.28186,-35.20394,-34.647181,-34.079723,-33.388084,-32.847761,-32.127238,-31.543996,-30.854725,-29.90608,-29.291499,-28.499764,-27.655167,-26.657678,-25.864001,-24.993754,-24.215636,-23.858624,-22.532003,-21.69471,-20.796434,-20.293071,-19.435403,-18.58268,-17.930632,-17.135928,-16.624284,-16.096414,-15.613942,-14.911617,-14.636876,-14.336823,-14.198157,-14.457316,-14.271386,-14.918705,-15.178917,-15.8245,-16.852619,-17.654044,-18.733969,-19.232355,-19.97499,-20.334852,-20.419335,-20.362446,-20.329374,-20.214592,-19.794907,-19.599744,-20.106264,-20.075394,-20.139874,-20.229084,-20.260135,-20.492538,-20.527173,-20.593265,-20.689357,-20.680254,-20.457492,-20.521926,-20.825115,-20.682534,-20.556867,-20.839044,-20.754809,-20.860497,-20.801129,-20.629915,-20.709698,-20.654929,-20.718156,-20.57054,-20.320888,-20.185218,-20.070879,-19.943296,-19.460875,-19.10184,-19.133308,-19.15759,-19.098797,-19.023568,-18.987638,-18.967274,-18.953379,-19.258998,-18.862344,-18.856864,-18.837587,-18.751871,-18.908228,-18.894172,-18.831309,-19.015759,-19.045839,-19.346109,-19.597676,-19.789317,-19.983784,-20.342171,-20.716005,-20.95984,-21.194454,-21.548336,-21.859663,-22.649066,-23.284882,-23.447965,-24.219151,-24.773505,-25.247794,-26.130032,-26.783179,-27.414204,-28.179549,-28.914027,-29.846771,-30.31549,-31.192765,-31.652591,-32.735524,-33.402323,-34.113693,-34.942766,-35.61154,-36.4311,-37.044314,-37.962169,-38.500592,-39.141167,-39.643573,-40.300243,-40.854075,-41.369248,-42.177795,-42.883816,-43.459403,-43.975751,-44.501798,-45.48307,-46.344312,-46.912912,-47.215783,-48.099501,-48.34701,-49.104643,-49.670308,-50.189191,-50.516671,-51.000218,-51.559325,-52.024269,-52.028392,-52.313603,-52.84528,-53.153044,-53.62633,-53.912407,-54.160148,-54.462848,-54.95085,-55.387504,-55.609593,-55.80526,-55.812473,-56.079189,-56.364556,-56.60998,-56.333617,-56.503593,-56.969244,-57.160367,-57.16,-57.169405,-57.107877,-57.296654,-57.589375,-57.9006,-57.795125,-57.683096,-57.882697,-57.817592,-57.938466,-57.827118,-57.938888,-58.09656,-58.255802,-58.664131,-58.535928,-58.605025,-58.940484,-59.215436,-59.38533,-59.544469,-59.66753,-59.935049,-60.224298,-60.308505,-60.488371,-60.407305,-60.824232,-61.318164,-61.221875,-61.35298,-61.64921,-62.025026,-62.421733,-62.68508,-63.040781,-62.988324,-63.306022,-63.851757,-64.206136,-64.37213,-64.539577,-65.103243,-65.296457,-65.46386,-65.812377,-65.83424,-66.164186,-66.837659,-67.080126,-67.135497,-67.323208,-67.548826,-68.189976,-68.204144,-68.600029,-68.479996,-68.798124,-69.218646,-69.78607,-69.881201,-69.930361,-70.258691,-70.81629,-71.039134,-71.357723,-71.254287,-71.414891,-71.885484,-72.414245,-72.632824,-73.063283,-72.967476,-73.262187,-73.956509,-73.862103,-74.123767,-74.023972,-74.470659,-74.935875,-75.234063,-75.227948,-75.254582,-75.738927,-76.28771,-76.29343,-76.402108,-76.681283,-76.967307,-77.202532,-77.819375,-78.018056,-77.989501,-78.598285,-78.674091,-78.981729,-79.206871,-79.38108,-79.70409,-80.120673,-80.629597,-80.694747,-81.011636,-81.311788,-81.643992,-81.547336,-81.422133,-81.644818,-81.568519,-81.681535,-81.505182,-81.301694,-81.076056,-81.159664,-81.195929,-80.824136,-80.455423,-80.018619,-80.026942,-80.140651,-79.901401,-79.578695,-79.301854,-79.338938,-79.673295,-79.875092,-79.976002,-80.374635,-80.643052,-81.600182,-82.170767,-82.599667,-83.218814,-84.202364,-85.173314,-86.587934,-87.693467,-88.864425,-90.435446,-91.554171,-93.600253,-94.83834,-96.426551,-98.067412,-99.844106,-101.62449,-103.02282,-105.07291,-106.62202,-108.48258,-110.31565,-112.13737,-113.60344,-115.3017,-117.15287,-119.21203,-120.70822,-122.37785,-124.06271,-125.82543,-127.41962,-128.75047,-129.96883,-131.19488,-132.3897,-133.93099,-134.55928,-135.54649,-136.47386,-137.2566,-138.25466,-138.97073,-139.1131,-139.73022,-140.00785,-140.40932,-140.11895,-140.0639,-139.85326,-139.83148,-139.62585,-139.13957,-137.94746,-137.19492,-136.35756,-135.64008,-135.0028,-133.6391,-132.6627,-131.51824,-130.35484,-129.10201,-127.7295,-126.50217,-125.20351,-124.0268,-122.77869,-121.51291,-120.00259,-119.09079,-118.28628,-116.83739,-115.75534,-114.95471,-114.11622,-113.48935,-112.70135,-111.99177,-111.16972,-110.88851,-110.55696,-109.91337,-109.38454,-108.70785,-108.50912,-108.30157,-107.7493,-107.71339,-107.09847,-107.00336,-106.75366,-106.58155,-106.15032,-105.91577,-105.74851,-105.42792,-105.13316,-104.75388,-104.66271,-104.31061,-104.09695,-104.09562,-103.81059,-103.68751,-103.44499,-103.53431,-103.1944,-103.3827,-103.16227,-103.14066,-102.90906,-103.07515,-103.18128,-102.98269,-103.03282,-103.33365,-103.60533,-103.43154,-103.3146,-103.41211,-103.63021,-103.64767,-103.99194,-103.65231,-103.73752,-104.06757,-104.40277,-104.55445,-104.30983,-104.74608,-105.01546,-105.21818,-105.21783,-105.21628,-105.44695,-105.9412,-106.10552,-106.23559,-106.28303,-106.30827,-106.44652,-106.73263,-106.90029,-106.7863,-107.08078,-107.52878,-107.58382,-107.84932,-107.91023,-108.19437,-108.65551,-108.7683,-108.74902,-109.15433,-109.12996,-109.44103,-109.7496,-110.10931,-109.84326,-110.2199,-110.38281,-110.61731,-110.51718,-110.37014,-110.80498,-111.45023,-111.57539,-111.33363,-111.53281,-111.44977,-111.7328,-112.08995,-112.12242,-112.10323,-112.01099,-112.41876,-112.47312,-112.88652,-112.92982,-113.01074,-113.34936,-113.54868,-114.0534,-113.94064,-113.69197,-113.95419,-114.31842,-114.55215,-114.593,-114.80219,-114.9648,-115.40287,-115.70939,-115.98715,-116.40563,-116.4605,-116.77709,-117.46004,-117.22383,-117.41217,-117.6866,-118.29091,-118.56374,-118.81661,-119.24436,-119.31997,-120.04696,-120.31584,-120.78378,-120.59421,-120.97503,-121.50879,-121.53944,-121.4648,-121.56434,-121.8204,-121.99565,-122.4126,-122.37302,-122.14203,-122.39897,-122.67147,-122.79985,-122.81362,-122.79312,-122.9549,-123.47011,-123.47484,-123.3453,-123.42288,-123.46437,-123.97877,-123.7082,-123.84814,-123.73838,-124.24451,-124.57536,-124.89091,-125.09211,-125.23303,-125.57125,-125.90283,-126.26148,-126.44103,-126.73695,-127.02685,-127.28351,-127.61533,-127.8733,-128.08789,-128.35731,-128.82196,-129.02688,-129.28327,-129.42771,-129.50208,-129.91115,-130.20389,-130.46882,-130.51574,-130.69378,-130.89221,-131.21655,-131.7247,-131.69199,-131.75886,-132.16652,-132.44091,-132.53114,-132.71756,-132.76995,-133.07774,-133.42085,-133.50639,-133.78966,-133.91817,-134.06123,-133.94879,-134.50098,-134.55932,-134.63633,-134.92406,-135.11339,-135.09212,-135.10892,-135.2563,-135.54974,-135.99281,-135.97127,-135.99407,-136.27777,-136.2811,-136.49191,-136.74767,-136.78848,-137.00761,-137.3738,-137.50016,-137.95935,-138.17002,-137.99918,-138.44682,-138.88978,-139.30473,-139.38892,-139.58039,-139.95737,-140.58426,-140.75205,-141.38032,-141.67101,-142.08414,-142.76153,-143.39163,-143.81683,-144.01186,-144.82048,-144.97124,-145.56714,-145.61724,-145.73687,-145.93779,-146.08802,-146.32485,-146.4366,-146.42469,-146.44207,-146.46094,-146.69874,-146.58234,-146.5028,-146.14955,-146.39802,-146.29722,-146.02486,-145.74942,-145.43057,-145.03829,-144.6388,-144.48232,-143.98573,-143.57666,-143.0876,-143.0448,-142.87676,-142.53688,-141.99699,-141.91068,-141.70453,-141.571,-141.36401,-140.97385,-140.74958,-140.68717,-140.46937,-140.18083,-139.97557,-139.97756,-139.80191,-139.62671,-139.30486,-138.86377,-138.9193,-139.14851,-138.89188,-138.92881,-139.04846,-139.00728,-139.13056,-139.49735,-139.64516,-139.70937,-140.1919,-140.54924,-140.61648,-140.66875,-141.05766,-141.21473,-141.57278,-141.93115,-142.24573,-142.39059,-142.65963,-143.04194,-143.27335,-143.50568,-143.65558,-143.90354,-144.41739,-144.6357,-144.65801,-144.54512,-145.01859,-144.93446,-145.65247,-145.46944,-145.36064,-145.32027,-145.71942,-145.76236,-145.69791,-145.4692,-145.71932,-146.02544,-145.96694,-145.93271,-146.02873,-146.03142,-146.35638,-146.40879,-146.34406,-146.4946,-146.66927,-147.05898,-147.02992,-147.27187,-147.107,-147.31075,-147.38169,-147.29909,-147.46752,-147.41664,-147.62554,-147.71379,-148.00992,-148.41222,-148.48587,-148.35318,-148.81817,-149.37704,-149.55417,-149.79857,-150.29008,-150.59703,-151.22302,-151.94221,-152.37003,-152.93105,-153.92137,-154.74412,-155.52715,-156.2085,-157.10756,-158.33722,-159.4474,-160.19216,-161.35296,-162.35646,-163.43837,-165.05747,-166.11092,-167.11928,-168.32802,-169.77769,-171.44465,-172.55197,-173.89551,-175.3701,-176.6637,-178.03395,-179.58919,-180.48515,-181.91101,-183.36909,-184.71058,-185.96113,-187.08652,-188.24563,-189.32363,-190.52477,-191.95081,-192.67255,-194.09879,-195.02004,-195.80221,-196.70135,-197.89752,-198.5158,-199.32932,-200.30513,-200.81836,-201.44456,-202.12929,-202.59181,-202.95678,-203.41344,-203.73056,-203.88758,-204.15843,-203.90796,-203.9987,-203.44777,-203.24594,-202.52037,-201.81572,-201.32747,-200.54497,-199.56271,-198.16233,-197.36632,-195.98759,-194.9839,-193.82019,-191.8336,-190.56776,-188.3222,-186.83155,-185.39384,-183.59941,-182.07945,-180.87785,-179.78999,-178.72488,-178.25818,-177.71793,-177.35362,-177.47646,-177.63044,-177.60283,-178.34344,-178.93767,-179.78644,-180.99821,-182.2477,-183.61601,-185.48081,-187.28275,-189.22424,-191.63538,-193.98681,-196.70781,-199.79655,-203.04984,-206.71452,-210.43364,-214.2925,-217.94906,-221.51151,-225.26562,-228.6159,-230.8767,-232.90708,-234.50804,-234.98097,-234.96252,-234.25862,-232.64551,-230.15374,-227.58388,-224.36492,-220.47385,-216.22491,-211.46425,-206.84585,-201.62691,-196.92207,-192.58167,-188.27083,-184.18876,-180.88324,-177.94686,-176.26468,-175.54897,-174.98753,-174.76153,-175.66114,-178.23105,-182.44633,-187.55505,-193.90799,-202.12129,-211.53506,-223.23104,-236.09584,-250.32205,-265.36481,-280.87588,-296.84316,-313.02372,-329.51229,-346.36437,-363.77785,-381.82442,-401.1903,-421.16412,-441.82135,-464.06162,-485.9583,-509.3256,-533.18306,-557.82442,-582.98525,-608.65927,-634.12364,-660.58156,-687.13489,-713.67479,-740.32398,-766.03648,-791.73853,-817.49298,-841.72979,-865.9069,-888.5816,-910.40846,-930.961,-949.77974,-966.87814,-982.28951,-996.01907,-1007.5685,-1017.1253,-1024.1601,-1028.7126,-1031.1559,-1031.4665,-1029.6874,-1024.8095,-1017.9078,-1008.6675,-996.96008,-983.30926,-967.27062,-949.33483,-928.73475,-906.7663,-882.86704,-856.80478,-829.2658,-800.2568,-769.5538,-737.97621,-704.55799,-670.318,-635.00001,-599.46276,-563.70057,-527.49929,-491.79466,-455.72808,-420.7308,-386.02968,-351.10891,-316.83325,-283.45776,-250.98415,-219.30344,-188.03581,-157.4839,-127.43142,-98.091196,-69.624127,-42.109951,-15.378504,10.172442,34.0417,57.665521,80.26406,102.00544,122.84335,142.22521,159.23366,175.34186,189.67557,202.93381,214.76395,225.69859,235.66209,244.90128,253.52474,260.76036,267.43686,273.4825,278.94508,283.12648,284.9002,285.04231,284.22158,282.10665,278.32295,272.74999,266.24987,258.67674,250.47096,241.97658,232.97808,223.40141,212.99598,201.97475,190.49291,177.36294,162.40542,146.8976,129.74003,112.40019,93.969177,74.186605,53.876492,32.263179,9.2268557,-15.479006,-41.32183,-68.021185,-95.632868,-124.65908,-154.55433,-185.84727,-217.54771,-249.68969,-282.7495,-315.96645,-349.36943,-383.14595,-416.20917,-449.06616,-481.55079,-513.42133,-545.01663,-575.47002,-604.66837,-633.31837,-660.56921,-686.8615,-711.75627,-735.35407,-757.66915,-778.56915,-798.20704,-816.66575,-833.06525,-847.97475,-861.55245,-873.23276,-883.37759,-891.33656,-897.33538,-901.41839,-903.86948,-903.98527,-901.35997,-897.27838,-890.77126,-881.96295,-871.80026,-859.20998,-845.17471,-828.87006,-811.12557,-791.54655,-769.94355,-746.43657,-721.2436,-694.89223,-667.69785,-639.52013,-610.05974,-579.81018,-549.23195,-517.62815,-485.88658,-454.2343,-422.25859,-391.4537,-360.53456,-329.77644,-299.55826,-269.84057,-241.50032,-214.17179,-188.32271,-163.91231,-140.60796,-117.40735,-95.81336,-74.277968,-52.942523,-32.395802,-12.892094,6.2191764,25.372426,43.275862,60.895276,77.682668,93.739834,109.12633,123.67969,137.64183,150.90432,163.15385,175.55772,187.34106,198.67834,209.32445,219.36526,229.13636,238.9853,248.62281,257.55964,266.60321,275.87847,284.30487,292.79731,301.50317,309.85768,318.19907,326.39628,334.15049,341.10573,347.60329,353.12487,359.38647,365.21072,370.43627,374.88812,379.48523,383.17613,386.95442,390.35838,393.68608,396.76473,399.8532,402.87019,405.48214,408.29823,410.8292,413.55951,416.22351,418.4786,421.14207,423.11132,425.41614,427.59991,429.20855,430.51441,431.99815,432.85967,433.74867,434.34311,434.58386,434.95014,435.26467,434.78871,434.28509,433.34265,432.26685,431.37974,429.81824,427.9338,426.0217,423.56311,421.14013,418.92455,415.76602,412.37169,409.10912,405.30323,401.75496,397.89554,394.04012,389.69489,386.14145,381.7759,377.59721,373.03225,368.50546,363.95871,359.48273,354.86777,350.63138,345.46704,340.57315,336.09935,331.14986,326.40398,321.7129,316.48288,311.53162,306.57638,301.62639,296.69196,291.87152,287.3186,282.58497,277.61169,273.42499,269.10909,264.4413,259.95247,255.70435,251.4441,247.25301,243.27719,239.28125,235.2167,231.29193,227.43824,223.77975,220.22876,216.21058,212.91835,209.09348,206.01179,202.43002,198.63985,195.1954,192.0681,188.73088,185.21094,182.17645,178.60683,174.9746,171.8338,168.6354,164.95717,161.34161,157.91795,154.6342,151.24939,147.78879,144.23874,141.3098,137.57158,134.27493,130.82121,127.4778,123.74485,120.60519,117.50715,114.3588,110.63769,107.41935,104.25263,101.2027,98.112421,94.699632,91.439769,88.542459,85.469395,82.905714,79.68215,77.10249,74.153393,71.755475,68.869855,66.096432,63.66907,61.207298,58.487799,56.077681,53.480743,50.868645,48.41825,46.476402,43.925119,41.416239,39.531389,37.291439,35.29763,33.309905,31.321708,29.581063,27.795791,25.913541,24.371347,22.365535,20.801766,19.633278,18.181343,16.690981,15.002187,13.879204,12.338579,11.184613,9.7457408,8.1768256,6.7776074,5.5598844,4.1501774,2.6202245,1.1452296,-0.17536484,-1.634487,-2.9087933,-4.4823884,-6.1035665,-7.9645173,-9.4308117,-11.11356,-12.542982,-14.109181,-15.899087,-17.272305,-18.795578,-20.221177,-21.742605,-23.443824,-25.172907,-26.649487,-28.283617,-30.157455,-32.272938,-34.388944,-36.39398,-38.374856,-40.337235,-42.478474,-44.11111,-45.54481,-46.908765,-47.747396,-48.678596,-49.724869,-51.010105,-51.671703,-52.57389,-53.371568,-54.648023,-56.091064,-57.299608,-58.862159,-60.138556,-61.611621,-63.300329,-65.110323,-66.620207,-68.553788,-70.332043,-72.048322,-73.568014,-75.458065,-77.800922,-79.827475,-81.656686,-84.150879,-86.01817,-88.210413,-90.362104,-92.319591,-94.414869,-96.752464,-98.688736,-100.66224,-102.91325,-104.86155,-106.95856,-108.7772,-110.61441,-112.63599,-114.09755,-116.05583,-117.90332,-119.53911,-121.05534,-122.76383,-124.25812,-125.62231,-127.34716,-128.86355,-129.64789,-130.76965,-131.78198,-132.64521,-133.57114,-134.27835,-134.4966,-135.10826,-135.58812,-136.00565,-136.08607,-135.64846,-135.82612,-135.79924,-135.22242,-134.84634,-134.40757,-133.75466,-133.42191,-132.91954,-131.99954,-131.28364,-130.292,-129.72057,-128.84751,-127.96617,-126.8291,-125.78599,-124.85894,-123.98578,-122.71001,-121.47663,-120.74408,-119.98686,-119.20916,-118.03323,-117.1328,-116.64891,-115.81746,-115.50296,-114.56026,-113.83979,-113.65144,-113.35288,-113.26264,-112.99635,-112.94643,-113.34197,-114.03892,-114.54242,-115.25976,-116.08471,-117.18657,-117.91988,-118.69757,-119.21069,-119.38731,-119.84559,-119.99132,-120.18516,-119.87519,-119.73838,-119.99766,-120.62292,-120.81687,-120.69507,-121.05689,-121.28694,-121.91406,-122.22672,-122.34661,-122.10379,-122.59477,-123.03544,-123.38102,-123.42643,-123.2155,-123.51582,-123.63087,-123.978,-124.15522,-124.30332,-124.54899,-124.71065,-125.38624,-125.4534,-125.29503,-125.57759,-125.86787,-126.26547,-126.26473,-126.55549,-126.47821,-127.0393,-127.4557,-127.50438,-127.80631,-127.75771,-128.34451,-128.86011,-128.92606,-129.14396,-129.53925,-129.9724,-130.74689,-130.95415,-131.16919,-131.49646,-131.67079,-132.6674,-132.47675,-132.59275,-133.22603,-133.61441,-134.21268,-134.52791,-134.54898,-135.30252,-135.66129,-136.00997,-136.37123,-136.43118,-137.03681,-137.45732,-137.84106,-138.58131,-138.76134,-139.27459,-139.83889,-140.79112,-141.15181,-141.40718,-141.75681,-142.70098,-143.48034,-143.73379,-143.92615,-144.09578,-144.76549,-145.34018,-145.75091,-145.82702,-145.91912,-146.16287,-146.81477,-147.03417,-147.21456,-147.21581,-147.30835,-147.72791,-147.5796,-147.47688,-147.06944,-147.22953,-147.19514,-146.99609,-146.8045,-146.45482,-146.23231,-146.02786,-145.96368,-145.43821,-144.88414,-144.64868,-144.59294,-144.25774,-143.58554,-143.21246,-142.65265,-142.52511,-141.84955,-141.48124,-140.87557,-140.44982,-140.29469,-140.07632,-139.56545,-138.68824,-138.37583,-138.20889,-138.29218,-137.65598,-137.41739,-136.77162,-136.68306,-136.83752,-136.28362,-136.13642,-135.8006,-136.09196,-136.30393,-136.129,-136.32432,-136.54899,-136.98109,-137.34172,-137.92332,-137.79932,-138.32563,-139.03734,-139.57929,-140.46329,-140.62635,-141.28806,-142.08264,-143.19891,-143.89345,-144.02092,-144.95265,-145.86268,-147.00104,-147.68786,-148.15796,-148.6491,-149.70568,-150.47322,-150.99575,-151.50266,-151.88217,-152.85558,-153.45277,-154.10147,-154.60765,-154.52298,-155.63177,-156.20499,-156.57306,-156.97174,-156.80303,-157.60823,-158.31855,-158.76071,-158.62124,-158.93164,-159.35665,-160.12583,-160.52765,-160.48358,-160.67549,-161.1786,-161.64502,-161.9065,-162.21685,-162.33654,-162.60434,-162.92756,-163.37719,-163.18524,-163.52874,-163.70581,-163.99976,-164.25444,-164.29667,-164.2921,-164.59458,-165.06727,-165.21603,-165.02338,-164.85471,-165.15768,-165.45157,-165.7762,-165.40547,-165.52912,-165.39053,-165.79717,-166.14181,-166.10823,-165.9547,-166.24613,-166.71912,-166.61424,-166.74521,-166.66431,-166.67559,-167.32987,-167.52786,-167.65274,-167.1447,-167.71402,-168.23304,-168.67749,-168.58203,-168.71734,-168.64399,-169.17732,-169.74422,-169.59372,-169.63988,-169.87322,-170.48562,-170.43098,-170.34627,-170.08894,-170.11165,-170.58035,-170.83173,-170.67298,-170.30405,-170.53607,-171.24186,-171.10991,-171.27197,-170.87752,-170.80711,-171.39217,-171.89875,-171.48889,-171.58613,-171.39054,-171.75501,-172.3472,-172.02683,-171.75614,-171.56511,-172.002,-172.11104,-171.92224,-172.09795,-171.57486,-171.94686,-172.04219,-171.75417,-171.56716,-171.23794,-171.50266,-171.53741,-171.57164,-171.00294,-170.52481,-170.59342,-170.92527,-170.59513,-169.93698,-169.72624,-169.57714,-169.70021,-169.34528,-168.85088,-168.421,-168.24633,-168.48685,-167.86525,-167.7188,-166.89392,-167.20513,-167.06905,-166.48206,-166.30525,-165.67071,-165.73738,-165.70084,-165.72721,-165.21003,-164.56626,-164.70826,-164.82291,-164.64978,-164.13642,-163.43049,-163.47938,-163.66925,-163.647,-163.06734,-162.34879,-162.42166,-162.84877,-162.19518,-162.04456,-161.66776,-161.20794,-161.55086,-161.25037,-160.64799,-160.34168,-160.15748,-160.53381,-161.10369,-160.33083,-159.86075,-159.65465,-160.14669,-160.16348,-159.67811,-159.47784,-159.50329,-159.57589,-159.93203,-159.64932,-159.42139,-159.30818,-159.61768,-159.86866,-159.60155,-159.05932,-159.24601,-159.71921,-159.62002,-159.63886,-159.01181,-158.95766,-159.13029,-159.66742,-159.24797,-158.7686,-158.7208,-159.08415,-159.32287,-159.09462,-158.91071,-158.7339,-158.81627,-159.47444,-159.08893,-158.67191,-158.69709,-158.9101,-159.15432,-159.09042,-158.64839,-158.6358,-159.28992,-159.53264,-159.37407,-158.77939,-159.2344,-159.24577,-159.86631,-159.71464,-159.05308,-159.15874,-159.54834,-159.76049,-159.87608,-159.48984,-159.62792,-159.98466,-160.37803,-160.68854,-160.26648,-160.28844,-160.99248,-161.39673,-161.58774,-161.10498,-161.2278,-161.43124,-162.25851,-162.21927,-162.02715,-161.91463,-162.25103,-163.14988,-163.34471,-162.90728,-163.06645,-163.39817,-164.14086,-164.44,-163.91845,-164.05277,-164.38676,-165.00885,-165.23873,-164.83034,-164.8543,-164.70326,-165.29648,-165.23447,-164.84813,-164.56508,-164.5718,-164.8844,-164.70632,-164.28429,-163.81475,-163.76324,-163.61395,-163.78275,-162.91029,-162.39275,-162.25947,-162.57068,-162.40572,-162.04474,-161.36795,-161.4067,-161.65266,-160.87675,-160.50471,-159.63392,-159.45533,-159.29253,-159.5629,-158.72743,-157.98296,-157.62477,-158.31805,-157.95587,-156.96275,-156.50338,-156.09504,-156.21207,-155.71829,-155.29773,-154.57305,-154.15626,-154.30621,-154.06773,-153.43867,-152.70267,-152.58672,-152.48139,-152.42724,-151.97989,-151.48187,-151.40567,-151.78392,-151.76558,-151.64149,-151.04253,-151.10463,-151.46427,-151.87371,-151.99025,-151.70907,-151.99994,-152.36884,-153.28065,-153.3937,-153.05736,-153.4573,-153.67,-154.39576,-154.43877,-154.49331,-153.95445,-154.9395,-155.47568,-155.4328,-155.2823,-155.27646,-155.69722,-156.51212,-156.4991,-155.84126,-156.15262,-156.4167,-156.91725,-156.78169,-156.58191,-156.33728,-156.69865,-156.95243,-156.36873,-155.99693,-155.95582,-156.08165,-156.06059,-156.03719,-155.08127,-154.87481,-155.31451,-155.29984,-155.27546,-154.95882,-154.76632,-155.15672,-155.4169,-155.82139,-155.84859,-155.30258,-155.9512,-156.4783,-156.90318,-156.24924,-155.93228,-156.31603,-156.33753,-155.87205,-155.22295,-154.20498,-154.40211,-155.16157,-155.41674,-155.01376,-155.04413,-155.39599,-154.98118,-154.34675,-152.74802,-150.78112,-149.35257,-147.62793,-146.35157,-144.15977,-142.14842,-141.1964,-139.86507,-139.07745,-137.31723,-135.8125,-135.00201,-134.47521,-133.43534,-132.69881,-131.78391,-131.94996,-131.76977,-131.81365,-131.94836,-131.82223,-132.46743,-133.54784,-134.91986,-135.95597,-137.97405,-142.17712,-147.79221,-154.9458,-162.64362,-171.83753,-182.19628,-194.75078,-208.12405,-222.65669,-237.89887,-254.9802,-273.11407,-291.98156,-311.21414,-330.99744,-351.63859,-373.24535,-394.94065,-416.14553,-437.09797,-458.58461,-480.60757,-501.53928,-521.7554,-541.60185,-561.13165,-580.5979,-598.36664,-614.40586,-629.82088,-645.01436,-659.06772,-671.87947,-683.57883,-694.45136,-704.893,-714.73521,-723.48264,-730.78708,-737.99646,-744.38263,-749.97577,-756.09049,-760.5952,-764.02885,-767.96985,-771.96077,-775.40291,-778.67074,-781.45086,-784.17704,-787.54617,-791.00011,-793.78197,-796.44481,-799.79932,-803.27636,-807.19082,-810.43491,-813.96242,-817.73007,-822.20402,-826.9559,-831.42964,-835.56366,-840.6776,-846.50637,-852.4494,-858.05149,-863.97563,-870.11236,-877.31035,-885.06125,-892.94854,-900.49387,-909.40396,-918.42044,-927.77316,-935.95383,-943.77105,-952.27778,-960.04296,-968.93742,-976.9753,-984.8116,-992.83903,-1001.8145,-1010.6428,-1018.3361,-1025.4996,-1032.8534,-1039.1315,-1045.8059,-1050.4429,-1054.4408,-1057.5606,-1059.723,-1061.1205,-1061.0613,-1058.7784,-1055.3006,-1050.5611,-1044.8439,-1037.0758,-1027.6429,-1017.1826,-1006.3567,-995.45733,-983.81984,-972.0808,-959.87814,-948.01207,-935.99712,-923.64557,-910.53227,-897.83958,-885.79821,-874.53545,-863.41252,-851.36553,-840.14828,-829.11304,-818.92144,-808.49935,-797.83128,-787.1826,-777.14987,-767.32731,-757.34398,-746.33698,-736.03793,-725.24073,-715.32639,-704.1434,-692.11608,-679.70246,-666.77752,-653.53517,-639.50898,-625.45042,-609.76515,-594.11575,-578.61695,-562.16779,-544.67794,-526.22998,-507.47631,-488.43236,-468.88689,-448.78724,-426.92392,-405.58881,-384.89825,-363.03908,-340.23007,-317.31734,-294.52244,-271.79256,-248.87999,-225.43535,-201.66712,-177.95029,-154.97825,-131.4737,-108.05803,-84.189425,-60.651485,-38.023198,-15.341391,7.3891804,30.223185,52.65342,73.730246,94.667031,116.12646,137.14436,157.37582,176.74151,196.03299,215.29677,234.03633,252.26566,269.5731,286.26123,302.95335,319.2088,335.3841,349.32316,363.79995,377.42704,390.67826,403.89948,415.1336,426.32368,437.04856,447.91859,457.40134,466.28367,474.29331,482.1681,489.88134,497.32236,503.42481,509.27528,514.71718,520.67522,526.27757,530.64206,535.17035,539.78153,544.24805,548.84928,552.5711,556.28786,559.86985,563.97461,567.71609,570.53568,573.67818,576.88177,580.98401,583.99501,586.97933,589.29433,591.66264,594.86242,597.73098,599.80451,601.95571,604.78177,607.64109,610.83129,613.49782,615.87847,618.54794,622.10408,625.3008,627.90001,630.46908,633.33704,636.23832,639.58322,641.9257,644.57673,647.17335,649.78405,652.90779,654.97367,656.59985,658.47837,661.04118,663.06293,664.99214,666.47738,667.76124,669.3745,671.08863,672.38839,672.682,673.24242,674.44008,674.91636,675.38318,674.75119,675.03853,675.10675,675.54407,675.25409,674.27333,673.51375,672.79428,672.72294,671.80298,670.03555,668.74412,667.97442,667.01795,665.41915,663.33502,661.42711,659.47848,658.28884,655.85806,653.73232,651.17889,649.03911,647.34878,645.13172,642.7933,639.96141,637.81633,636.07656,633.80586,630.98914,628.30342,625.99977,623.97337,620.94202,618.648,615.21952,612.7082,610.53604,607.59544,604.45856,600.97938,598.2346,595.26552,592.7856,589.46943,585.95729,583.16735,580.04346,577.0888,573.01684,569.04,565.44926,562.54251,558.91608,554.9514,550.6852,547.04606,544.13225,540.58787,536.75245,532.71135,528.88207,525.80249,522.31674,518.27708,514.49836,510.61335,507.14245,504.29371,500.04231,495.76904,492.70589,489.279,485.97146,482.34796,478.2342,474.27117,471.02725,467.33327,463.32913,458.60865,454.6267,450.60217,447.02028,442.58012,437.79003,433.45313,429.68036,425.78495,421.29584,416.88479,412.29147,408.6195,404.91416,400.60246,396.09242,392.21351,389.01604,385.18376,381.39166,377.1125,373.15452,370.2047,367.33863,363.50961,359.76982,356.54743,353.906,351.15755,348.35661,345.4025,342.34678,340.75677,338.55765,336.15919,333.72271,331.39975,330.37242,328.67903,326.7834,325.3631,323.15424,322.24361,321.05375,319.58549,318.05906,316.46261,315.63398,315.1406,313.97228,312.49922,311.55047,311.23985,310.81764,310.12963,308.8236,308.00341,307.42591,307.39295,306.55955,305.12171,304.23564,303.52546,303.20984,302.26973,300.72111,299.55982,298.43557,297.44733,296.68516,294.57949,292.88004,291.68462,290.43304,288.54548,286.10301,283.56171,281.22213,279.39342,276.93306,273.99995,270.49432,268.23877,265.56459,262.78854,259.30586,255.75454,252.8138,249.9619,246.93452,242.95543,239.48737,236.41941,233.40573,230.35396,227.41532,223.7119,221.1729,218.73624,215.93292,212.76304,209.90133,207.43243,204.76196,202.6838,199.57979,196.51028,194.33218,191.92877,190.02188,186.91387,184.42493,182.29385,180.43749,178.65279,176.34898,173.84702,171.89823,170.39155,168.81995,166.82242,164.41501,162.83097,161.64122,159.5538,158.06973,155.88847,154.06034,152.70654,151.73881,149.6564,147.88917,146.25876,144.97426,143.70673,141.80172,139.92829,138.03788,136.66177,135.64764,133.63986,131.74484,130.17152,128.84962,127.68925,126.13925,124.17723,122.62797,121.30591,120.13069,118.83083,116.52708,115.46276,113.90866,112.85818,111.6014,109.38363,108.04842,107.12025,105.9798,104.46776,102.7483,100.80004,100.10786,98.953206,97.380249,95.942602,94.200822,93.072638,91.998697,90.434975,88.889335,87.142759,86.193468,85.266246,84.078749,82.046288,80.549139,79.585835,78.828248,77.296269,75.860302,74.238367,73.161742,72.68698,71.369102,69.895703,68.468687,67.490038,67.082886,65.592129,64.191331,63.147804,62.016203,61.366961,60.297057,58.492676,57.45784,56.364694,55.594334,54.454232,53.383806,51.674526,50.696016,50.232682,49.32262,47.614129,46.209472,45.429771,44.651096,43.703228,42.384714,40.761384,39.74397,39.515732,38.526132,37.121116,35.825099,34.737631,34.359911,33.89131,32.619395,31.485435,30.342202,30.41545,29.250387,28.187055,26.811188,26.103977,25.941275,25.106271,23.872353,22.858616,21.969079,21.496116,21.528038,20.109263,19.134266,18.718751,17.983757,17.763642,16.523631,15.524414,14.854176,14.615125,13.691599,12.979956,11.839898,11.170605,10.873798,10.228032,9.5226483,8.2161132,7.7479015,7.3923834,6.8714775,5.6351156,4.8697681,4.0959005,3.5886867,3.2884972,1.9192863,1.3601659,0.19773918,0.028534996,-0.08783263,-1.3507646,-1.7297419,-2.8059584,-2.8677341,-3.2690729,-4.0351475,-5.0488468,-5.2670576,-6.208784,-6.2102199,-6.727154,-7.948488,-8.8488619,-8.9963721,-9.1704373,-9.6197386,-10.860257,-11.312451,-11.504513,-12.209524,-12.71822,-13.428597,-14.397274,-14.420719,-14.638549,-15.468173,-16.229309,-16.946343,-17.065796,-17.135662,-17.711034,-18.579254,-19.307501,-19.462982,-19.882845,-19.998343,-21.214921,-21.653374,-21.846811,-22.041633,-22.686737,-23.157928,-24.19989,-24.43701,-24.790549,-24.913807,-26.044909,-26.722902,-26.967188,-26.981234,-27.50686,-28.390715,-28.90888,-29.356199,-29.178782,-29.653682,-30.277942,-31.020447,-31.717424,-31.056545,-31.959208,-32.234472,-32.966272,-33.058064,-32.848565,-33.451697,-34.227476,-34.729643,-34.744438,-35.217279,-35.049665,-35.872865,-36.21569,-36.425863,-36.432347,-35.461295,-37.682994,-38.427601,-37.037373,-36.232742,-36.841144,-38.440032,-39.03744,-38.251009,-36.887955,-37.737854,-39.20829,-40.001463,-39.086732,-37.767974,-38.121909,-39.827831,-40.726273,-39.772683,-38.636739,-38.965043,-40.696938,-41.59704,-40.928427,-40.003031,-40.392407,-42.453886,-43.943514,-43.729473,-42.576247,-43.120158,-44.252669,-45.421814,-44.216702,-42.220171,-42.07334,-42.911539,-43.80668,-42.531641,-41.147666,-40.864466,-42.074014,-43.240703,-42.464506,-41.218429,-41.31032,-42.988904,-44.458558,-44.181507,-43.221775,-43.668943,-45.850119,-47.318533,-47.768603,-47.373144,-47.280445,-49.452131,-51.748769,-51.923556,-51.499739,-52.035778,-53.990023,-56.561776,-56.642347,-56.416374,-57.034131,-58.971536,-61.200865,-61.712791,-60.99934,-61.048719,-63.035891,-64.61473,-65.181559,-64.64863,-64.526849,-66.040481,-67.704746,-67.994207,-66.694132,-66.116048,-67.546212,-68.83411,-69.051166,-67.279847,-66.804029,-67.610809,-68.673503,-68.473828,-67.053593,-65.99431,-66.636876,-67.506292,-67.099983,-64.834295,-63.890848,-63.510466,-64.520545,-63.754339,-61.702615,-60.165938,-60.048314,-59.963493,-59.741356,-57.337979,-54.894035,-54.988995,-54.979565,-54.186692,-51.616721,-49.796721,-50.147157,-48.834582,-47.518249,-46.190846,-44.844906,-44.320673,-43.386612,-41.919901,-40.677238,-39.509929,-38.724965,-37.728673,-37.016295,-35.245581,-34.766066,-34.334632,-33.745716,-32.911903,-32.191909,-31.889285,-31.404658,-31.71881,-31.226141,-30.919503,-30.806968,-31.210888,-30.689679,-30.467473,-29.353191,-28.749397,-28.138692,-27.478702,-26.380529,-25.449259,-24.446523,-24.26852,-23.783242,-22.848213,-22.088391,-21.283341,-20.978658,-20.553999,-20.161714,-19.501576,-18.818118,-18.172299,-18.3809,-17.605857,-17.106162,-16.39426,-16.318437,-16.017774,-15.975361,-15.188688,-14.69294,-14.328905,-14.831852,-14.377475,-14.094843,-13.827395,-13.539542,-14.139101,-13.772402,-13.48935,-13.060079,-13.140877,-13.370403,-13.171298,-12.741843,-12.233513,-12.198211,-12.302141,-12.160426,-11.907822,-11.38637,-11.163779,-10.969028,-11.115147,-10.339032,-10.273258,-10.088272,-10.040898,-10.06361,-9.51465,-9.3561226,-8.9774429,-9.1587659,-9.1253019,-8.8578464,-8.392186,-7.871964,-7.5236413,-7.5389265,-6.8666394,-6.4545821,-5.9011215,-6.0048911,-5.6839691,-5.3967569,-4.8033349,-4.1292361,-4.0344152,-4.112723,-3.1525074,-2.6395277,-2.25574,-1.8127612,-1.6707055,-0.88437858,-0.70868582,0.33276448,0.18385447,0.60523368,1.3191719,1.5134614,2.1929645,2.3409253,2.8603419,3.2231475,3.7938913,4.0547729,4.4815944,4.5427113,5.4297729,5.5763634,6.1112677,6.4248782,6.6690905,6.9996055,7.5962064,8.2919855,8.0314263,8.3058649,8.5765836,9.0419585,9.2948875,9.3947149,9.2494094,9.8257128,10.090421,10.106977,10.428877,10.205442,10.092621,10.342337,10.383041,10.293093,10.268482,9.8546311,10.272908,10.195678,10.260071,9.6964839,9.7946657,9.8172258,9.9843141,9.4431309,9.1902052,8.8255266,9.2925665,8.849734,8.8765244,8.3395648,8.2249265,8.203651,8.4520996,7.7396972,7.6783454,7.4287066,7.5088809,7.6541906,7.1157891,7.1763313,7.0453798,7.0266424,7.07876,7.0674909,6.9806361,6.8439484,7.0643464,7.0530753,7.2721702,6.9871207,6.8721534,6.9712073,7.4380719,7.3707633,7.1029822,7.3447751,7.1408785,7.509206,7.5095871,7.2646947,6.9250641,7.4665876,7.3019164,7.4296992,7.2164711,7.2763586,7.6566292,7.8719181,7.8437316,7.2642531,7.209957,7.3547545,7.6228362,7.2205728,7.1164739,6.8711433,7.0081311,7.1555817,6.9131242,6.6250155,6.8165345,6.6630216,6.6369192,6.6140605,6.6796933,6.4888018,6.5690132,7.1103449,6.945795,6.6988356,6.786218,6.6415237,7.2057652,6.9793442,7.0277552,6.688366,6.6848336,7.2642543,7.2745734,7.3125615,6.9630604,7.187759,7.5435561,7.7500422,7.5884239,7.4169789,7.5022024,7.7944209,7.8696666,7.6552847,7.6352489,7.8085895,7.5828587,7.8854312,8.1034088,7.889742,7.8230634,8.028019,8.1525504,7.794489,7.7654778,7.688719,8.1981407,7.8089079,7.872604,7.6850508,7.4979879,7.6063413,7.4775542,7.0298157,6.8365967,6.5500297,6.4341618,6.7444863,6.1615441,6.0271093,6.0083224,5.5302396,5.7640817,5.5256826,5.262462,5.4298644,5.1379046,5.5196523,5.1366966,4.9263538,4.5556728,4.9464767,4.9719565,4.9313538,4.5443414,4.4393471,4.6575213,4.6965425,4.7959602,4.484378,4.5462359,4.7324506,4.8816698,4.7495589,4.6989819,4.7064051,4.902771,5.0246678,5.2536408,4.9197617,4.8727635,5.2303242,5.1661335,5.158604,5.1643877,5.4546747,5.1293764,6.0861372,5.4202638,5.7266482,5.4463818,5.7044462,5.8227078,5.6723197,5.6599637,5.3875246,5.2547083,5.1392672,5.366303,4.6972086,4.5240696,4.5889927,4.2572579,4.2123021,4.2163401,3.4873114,3.6124253,3.6550001,3.6398071,3.1882261,3.1022529,2.7468326,2.9402224,2.6847945,2.3241485,1.2657238,0.88670502,0.5408982,0.22979581,0.023411315,-0.29832688,-0.30171094,-0.20012292,0.25638955,0.27447285,0.8021583,1.0340598,1.496576,1.7539957,1.8134748,2.4157444,2.2542042,2.2299423,2.4834304,2.4081265,2.1888297,1.8920182,2.1594349,2.1008459,1.3314393,1.1877159,0.87616142,0.15154338,-0.0020995218,-0.6028693,-1.2956227,-2.0134565,-2.5299808,-3.2186358,-3.8123317,-5.0219008,-5.2842679,-6.325156,-6.6653269,-7.6226269,-8.6263229,-9.2521955,-9.7504718,-11.103888,-11.323536,-12.466431,-13.059127,-13.798926,-14.114024,-14.736784,-15.51269,-16.028938,-16.066057,-16.779501,-16.947427,-17.232275,-17.465076,-17.601077,-17.686826,-17.73452,-17.470583,-17.847673,-17.48725,-17.35776,-17.222494,-16.908833,-16.724495,-16.628763,-15.829588,-15.490926,-15.182562,-14.914272,-14.008939,-13.35667,-12.676184,-12.046788,-11.323572,-10.966779,-9.2989134,-8.7742458,-7.8395533,-7.0228079,-5.9388134,-5.0515063,-3.3201724,-3.0371653,-1.6423765,-1.1148805,0.040677522,1.1364442,1.733929,2.4870695,3.4622498,4.415037,5.1119326,5.9462868,6.3711356,6.9400666,7.6088295,8.1269711,8.4080326,8.6654687,8.7527867,8.8977909,9.0469404,8.9021214,8.3256509,8.0058689,7.6702091,6.7059685,6.3696414,5.9144274,5.2872583,5.2830286,5.3484194,5.0791642,4.7651142,4.907275,5.0779052,5.179067,4.9209792,4.6935976,4.5352928,4.3140147,4.1653792,3.964919,3.1755826,3.0997127,2.849486,3.013843,2.6016206,2.2472464,1.8300241,1.7030711,1.7275515,1.4961948,1.0879583,0.36836169,0.76815436,0.57807949,0.11351146,-0.25168743,-0.26395199,-0.89555073,-0.44965817,-0.63933863,-1.0488736,-1.3508292,-1.3955597,-1.5037931,-1.7301121,-1.8937525,-2.3439987,-2.4779905,-2.0475178,-2.6978826,-2.3774264,-2.9460069,-2.5528633,-2.4282214,-2.7211318,-2.1192544,-2.8802112,-2.4763858,-2.4544162,-2.2388809,-2.7013387,-2.4896484,-2.5785053,-2.3560552,-2.4076565,-3.0520188,-2.3052553,-2.9187037,-2.5658012,-2.357244,-2.8393347,-3.0497617,-2.5208449,-2.7942468,-2.5177054,-2.4425249,-2.6076313,-2.7197883,-2.5734957,-2.2386324,-2.4371169,-2.5668296,-2.1254571,-2.5539983,-1.745287,-2.1263735,-2.3465033,-2.0601518,-2.1518478,-2.0594063,-2.0726055,-2.209912,-2.0976713,-1.9557403,-2.0604359,-1.8847246,-1.8076625,-1.7255369,-1.605449,-1.5911429,-1.5782804,-1.903584,-1.5685941,-1.3091914,-1.3197981,-1.1803724,-1.4342055,-1.1113388,-0.96373194,-0.61190165,-0.52365583,-0.51769535,-0.14571238,-0.3267281,0.26132423,0.1750234,0.27499746,0.85369755,1.1014217,1.1951608,1.3847311,1.8067716,1.8287983,2.0836425,2.2037376,2.4660422,2.340823,2.4890325,2.5369949,2.9705926,3.2873996,3.3635612,3.3354793,3.8555217,3.8155313,4.0766594,3.9251004,4.0770038,4.2478107,4.1358703,4.3874158,4.3676989,4.3564344,4.3425122,4.5128054,4.1173047,4.1739726,4.2212641,4.3277542,4.0967163,3.9536147,3.8910481,3.6525402,3.5370997,3.6820466,3.326504,3.1335136,3.0212174,2.8683413,2.9481513,3.0467131,2.6679691,2.4966858,2.7667875,2.1547191,2.5757056,1.3885071,1.6868829,1.0841138,1.2227004,0.87793971,0.53578733,0.52150053,-0.097530136,0.12127335,-0.17084461,-0.27573094,-0.70285112,-0.91560655,-0.7886275,-1.0982656,-1.0888762,-1.0472906,-1.5127396,-0.83226729,-1.5218757,-1.2707042,-1.5679196,-1.6093473,-1.0888543,-1.596724,-1.6778587,-1.6451869,-1.7771165,-1.5295402,-1.6409526,-2.0645271,-1.8749754,-1.6881813,-1.8018179,-1.8243695,-1.3842147,-1.6197768,-1.6307705,-1.2350114,-1.3456034,-1.1801482,-1.642589,-1.8225153,-2.0232283,-2.0070336,-2.2334644,-2.1932722,-2.5770508,-2.5098819,-2.4627656,-3.4804106,-3.5533124,-4.4763038,-4.1768739,-4.6260983,-5.1462872,-4.9834047,-5.2931796,-4.407161,-3.8025,-3.5676907,-2.8932451,-3.0140669,-2.3081381,-1.7775906,-1.3657303,-1.3886774,-1.0388205,-0.95649459,-0.38334937,-0.39701902,-0.43381356,-0.52714152,-0.26769944,-0.12611843,-0.45668994,-0.629279,-0.88940492,-1.1066031,-1.0737503,-1.83986,-2.241886,-2.4571778,-2.8649941,-3.366345,-3.6040206,-4.4279405,-4.8769319,-5.4199913,-6.194139,-6.2335274,-6.8867616,-7.8135051,-8.2144958,-8.7338765,-9.1342891,-9.6865722,-10.363858,-10.644991,-11.18865,-11.191753,-11.903124,-12.299099,-12.255152,-12.6627,-12.564966,-12.989963,-13.163984,-13.477921,-13.096104,-13.291022,-12.816493,-13.163562,-12.484178,-12.489885,-11.952639,-11.608868,-11.700295,-11.081652,-10.539713,-9.9161489,-9.2689088,-8.8904077,-8.2880815,-7.2124739,-6.4546881,-5.7991138,-5.1778977,-4.1178982,-3.2726893,-2.0204647,-1.3584569,-0.5647984,0.61531988,1.4903016,2.6284571,3.7214257,4.3629856,5.4684776,6.5411024,7.3496071,8.66984,9.5118304,10.053972,11.52807,12.433528,13.11813,13.57998,14.022482,14.422616,15.111673,15.126012,15.041268,15.140472,15.232088,15.502934,14.8696,14.571774,13.838592,13.174186,12.391104,12.46725,11.589624,11.475405,11.495413,11.662928,11.791595,11.76999,12.069333,12.237164,12.012468,12.442443,12.048469,12.242782,12.376154,12.416167,12.539891,12.198941,12.09858,12.474491,12.270319,11.940233,12.18771,11.620527,12.187343,11.938561,12.140671,11.512024,11.797124,11.760743,11.558832,11.824374,11.760348,11.116921,11.316178,11.410712,11.277777,11.004977,11.053994,10.981487,10.824527,11.349077,10.481278,10.102185,10.111282,9.8178172,9.6409562,9.0501638,8.2579735,8.1517731,7.5295234,7.2098115,6.6804629,5.9557858,5.4916022,5.3653162,4.7043467,4.0032076,3.521742,2.8264735,2.5236178,1.9100666,1.0403994,0.14403375,-0.3012108,-1.0935031,-1.695542,-2.4964753,-3.3850751,-3.9770669,-4.8918801,-5.133185,-6.2469811,-7.5802902,-7.8008251,-8.8969705,-9.4365785,-10.037143,-11.135294,-11.613662,-12.862039,-12.783852,-14.09793,-14.72197,-15.372362,-16.184189,-16.200271,-16.853032,-17.655206,-18.186803,-18.455968,-18.902447,-18.851034,-19.843634,-19.953542,-20.061061,-20.476218,-20.436045,-20.992998,-20.967503,-21.139308,-20.775818,-20.921551,-20.978337,-21.205919,-20.730668,-20.720009,-20.138525,-20.046382,-19.683637,-19.109364,-18.108545,-17.62156,-17.083733,-16.266804,-15.86874,-15.100176,-14.012397,-13.745578,-12.978146,-12.195694,-10.752961,-10.316472,-9.4207804,-8.8388023,-8.1177201,-6.7470677,-6.2399029,-5.6393808,-4.6789857,-4.3862056,-3.1323748,-2.3292595,-1.9410644,-1.0996625,-0.59664616,0.5407675,1.036454,1.8475946,2.0056834,2.8140812,3.5062433,4.1990024,4.3622464,4.8288842,5.6045224,6.2660005,7.1566123,7.3825594,7.7633549,7.9760449,9.0597223,8.8611281,9.2985204,9.3337287,9.2154328,10.193626,10.024953,9.996878,10.153308,10.046035,10.640201,10.806997,10.92744,11.034956,10.947134,11.450142,11.514376,11.566318,11.45659,11.468409,11.88171,12.067895,11.943446,12.254458,11.750222,12.321657,12.342161,12.357162,11.841334,11.972427,12.163519,11.746824,11.740548,11.612466,11.31257,11.39568,11.201534,10.909173,10.667512,10.134243,10.349934,10.106231,9.7679899,9.3203822,8.7584511,9.0137691,8.6675644,8.2612355,7.7315852,7.5930618,7.3388491,7.3051853,6.7786898,6.4349823,6.1849792,5.6311426,6.1179883,5.2688872,4.9402977,4.5733974,4.3965292,4.3903856,3.8142625,3.7434584,3.454607,3.5132971,3.4137885,3.4097888,3.1581366,3.1044125,3.0187828,3.1248628,3.0718314,2.8438893,2.5874886,2.8673552,3.0040643,2.9053719,3.0821385,2.8488456,2.9550971,3.0131064,3.3124605,2.5385213,2.860447,2.5868169,2.8444253,2.5143326,2.5549016,1.5906811,1.6028774,1.2878219,1.4395657,1.3238933,1.5157879,1.5889635,2.0025734,2.3905416,2.6114038,2.4202743,2.7267689,3.0777902,3.2667075,3.2893997,3.4138511,2.9125628,3.5440279,3.2268053,3.1842589,2.8593986,2.7887971,2.3306292,2.5598458,1.8434837,1.3816238,1.257246,0.73334075,0.57555692,0.33987317,-0.23718588,-0.51631424,-0.97288856,-1.1748303,-1.6415491,-2.3709526,-2.4559563,-3.0400141,-3.3573338,-3.5785483,-4.15199,-4.4359179,-4.9796085,-4.9338849,-5.7555048,-5.7710063,-6.6946033,-6.4004048,-6.5737438,-7.0676932,-7.1963451,-7.5104546,-7.6425448,-7.4319835,-7.7015337,-7.9398064,-7.7669782,-7.8743886,-7.6193872,-7.8449694,-7.9178401,-8.2142808,-7.8281023,-8.1069197,-7.815883,-8.1397617,-7.9649257,-7.9902695,-7.7196782,-7.6381713,-7.1551148,-7.7778584,-7.1295875,-6.7198885,-6.7920723,-6.3661952,-6.6518842,-6.2354819,-6.0226761,-5.5305821,-5.7257639,-5.4692332,-5.2494269,-5.0349096,-4.3440167,-4.630501,-4.2117017,-4.2157883,-3.2394185,-3.1791216,-2.8640336,-2.8909595,-2.185689,-1.8957581,-1.641277,-1.2009561,-1.1351536,-0.79633252,-0.40343598,-0.26330076,-0.35501543,-0.30279208,-0.34716785,-0.090105018,-0.41940084,-0.086442857,-1.1238437,-0.83566878,-1.2524026,-1.0751192,-1.6695293,-1.7831455,-1.6805112,-1.3673386,-0.92734294,-0.96893859,-1.0087782,-1.1317967,-1.1056035,-0.53134099,-1.2190406,-0.99570324,-1.2466826,-0.73728326,-1.2451097,-0.9676577,-1.3319148,-1.2355328,-1.0550132,-0.95475176,-0.68341474,-0.96514268,-0.71165895,-0.43629556,-0.56781466,-0.20462507,-0.31581788,-0.39409834,0.011049535,0.1896211,0.25221115,0.12178154,0.002804111,0.44552809,0.56126931,0.24485157,0.45638508,0.24643908,0.19011623,0.87392087,0.32390403,0.34614106,0.14309224,0.44616425,0.28745559,0.77987535,0.29976152,0.52499488,0.61658074,0.64424497,0.90849954,0.79804874,0.80020379,0.79499649,1.1003949,1.2995377,1.2092299,0.6278604,1.0739941,0.93241077,1.1268782,0.86541143,0.74943139,0.75083945,1.2210074,0.98350697,1.1222738,1.0890764,1.4189953,1.3361948,2.093642,1.318002,1.9741254,1.6286937,1.8401716,2.1755497,1.7896778,1.8017661,1.8659162,1.8895376,1.6267757,2.0308479,1.2711475,1.7960645,1.5161157,1.4768505,1.3760843,1.1217383,1.325548,0.98949224,1.2011753,1.0282112,0.80889087,0.4509738,1.0088363,0.72848064,0.66867729,0.52587484,0.56727015,0.73973681,0.71089119,0.64849038,0.63376468,0.48794155,0.45256111,1.0269175,0.25379212,0.98921906,0.7008159,0.66507766,0.79107559,0.34919033,0.17753651,0.14054636,0.2720592,0.012561968,-0.065434745,-0.69901604,-0.40629678,-0.26731282,-0.93702709,-0.91643706,-1.2932348,-1.3074087,-1.7383436,-1.2663245,-1.7775742,-1.6583798,-1.6757635,-1.6195167,-1.3033077,-1.6801294,-1.6648253,-2.0243105,-1.7114486,-1.448568,-1.5750739,-1.8352102,-1.7476759,-1.5579787,-1.5021814,-1.611028,-1.6150931,-1.5061596,-1.3964574,-1.175781,-0.94874899,-1.0706847,-1.0671475,-0.39544489,-0.6267132,0.04204831,-0.39427237,-0.20252641,-0.1164433,0.50037881,0.79622652,0.3236732,0.87048796,0.90025967,1.3119653,1.2643746,1.1061876,1.0236121,1.2248616,1.3438783,1.669741,1.1187198,1.5677163,1.1928531,1.9218228,1.8135933,1.6328028,1.5897876,1.8842303,1.9493085,2.1252537,1.8373045,1.8037194,1.8482722,2.4914574,2.0424515,1.9564182,1.9515487,2.1508353,2.3682732,2.1093516,1.978536,1.8142179,1.6737388,1.8794374,1.7985156,1.141724,1.066839,0.69214376,0.94037077,0.55615493,0.37571191,-0.036617573,-0.43113918,-0.049815883,-0.30649232,-0.60012333,-0.84088951,-0.90536647,-1.359928,-0.9174967,-1.572427,-1.5007222,-2.3368245,-1.8787415,-2.3017804,-2.1081055,-2.8704772,-2.7133726,-2.60231,-2.924329,-2.7877642,-3.3644515,-3.5611168,-3.3471221,-3.6757798,-3.3523397,-3.597639,-4.0715417,-4.1781801,-4.1951486,-4.6403494,-4.8835627,-5.2387605,-5.0113479,-4.7905302,-3.8931663,-3.8592256,-3.1728012,-2.3814775,-1.6408302,-0.71039151,-0.59580196,0.29713854,0.70898033,1.4066519,1.7545855,2.1146535,2.2948255,2.6684385,3.3560928,3.2644437,3.574695,3.3373038,3.5704966,3.8815045,3.785242,3.4442018,3.1393593,2.9578139,3.1119602,2.6289843,2.3125918,1.7124048,1.352158,0.92006808,0.46860058,0.12732541,-0.82089574,-0.73816635,-1.4613361,-1.9104597,-2.7892919,-3.243515,-4.020557,-4.0765092,-4.700324,-5.2542581,-5.9730788,-5.6946502,-6.2278363,-6.6808519,-6.9455999,-7.4742387,-7.6353539,-7.7308807,-7.7366926,-8.2217701,-8.0596403,-8.3497532,-8.1407209,-7.7362147,-7.8964395,-7.7555021,-7.3211057,-6.8827351,-6.4018555,-5.9013187,-5.9599577,-5.5712731,-5.1152647,-4.3922307,-4.2632783,-4.1285037,-3.6946817,-3.1355815,-2.4173719,-2.2373519,-1.6258464,-1.2112044,-0.11675148,0.54941536,1.1200108,1.5972192,2.6402157,3.2644902,4.1252015,4.5253822,5.0599234,5.7033801,6.5968282,7.2743897,8.0740502,7.8120014,8.942055,9.2354252,9.8252267,9.8767707,10.049878,10.051039,10.225674,10.465518,10.311736,9.7508109,9.5877135,9.2122018,8.925736,8.1920199,6.8574929,6.6841152,6.2383483,5.8396097,5.480867,5.2387842,5.1446801,4.8312198,5.2423934,4.8712381,4.9870684,4.6345476,4.7590871,4.5974367,4.5789687,4.4107761,4.1222719,4.1780853,4.1539367,4.2592773,3.7922516,4.2048683,4.2375646,4.0438033,4.087554,3.6228276,3.8194275,3.6038452,3.796301,3.4938147,3.3841956,3.0557734,3.2566691,2.9605269,3.1227252,2.5159881,2.4490351,1.9215776,2.2434067,1.9696681,1.5357704,1.2074959,1.1374116,1.0964435,0.46874217,0.97491609,0.0147013,0.22204489,-0.39727119,0.042697403,-0.49929306,-0.58606929,-1.140639,-0.87622535,-1.2678191,-1.0819573,-1.7504531,-1.4577032,-1.9567262,-2.0733412,-1.7814697,-2.294565,-2.1432334,-2.0333638,-2.2366292,-2.3080635,-2.2296568,-2.2644813,-2.3725289,-2.0501584,-2.5421478,-2.5305158,-2.7798,-2.3989521,-2.9730214,-2.6089661,-3.0692593,-2.8944517,-2.7613433,-3.0161679,-2.695806,-3.0152018,-2.7959102,-3.0695958,-2.6583367,-2.6331399,-2.9472859,-2.6983848,-2.7917698,-2.4091722,-2.450203,-2.5320416,-2.3547092,-1.9848907,-2.0201559,-2.1353686,-1.9602803,-1.8896557,-2.0957761,-1.3967701,-1.8069463,-1.5111217,-1.6452094,-1.1751693,-1.375242,-1.1500519,-1.2188949,-1.2696575,-1.0579575,-0.8105338,-1.0962508,-0.52356767,-1.0435033,-1.0199108,-0.84364406,-0.5974121,-1.1573183,-1.0693709,-0.60673061,-0.52737216,-0.57657661,-0.70479828,-0.88622228,-0.95085556,-0.41819043,-0.50700434,-0.64801673,-0.95042025,-0.55917473,-0.4940398,-0.51228632,-0.15620407,-0.99821021,-0.4139812,-0.43094572,-0.36265674,-0.40734753,-0.5061483,-0.43775191,-1.0300418,-0.46217453,-1.19909,-0.97484719,-1.4441516,-1.1568525,-1.4764062,-1.3664937,-1.9680799,-1.4681217,-1.8943707,-1.4394208,-1.6435368,-1.5546448,-2.0017308,-1.1948267,-1.1835352,-1.6789709,-1.328925,-1.389586,-0.83457634,-1.3661086,-0.96847161,-0.86006789,-1.0348128,-1.2347056,-0.50566045,-1.3258545,-1.2469259,-1.5384733,-0.96569581,-1.2513494,-1.1135818,-1.4127682,-1.306765,-1.317366,-1.3297196,-0.74168422,-1.1248982,-1.3272938,-0.98278227,-1.404214,-1.0352465,-1.1289862,-1.2134403,-1.1736279,-0.74196979,-0.91969972,-0.96056388,-0.72324193,-0.91809562,-0.58160535,-0.50409065,-0.82767762,-0.39516536,-0.47881112,-0.45920697,-0.12345885,-0.24381072,-0.29797651,-0.22768116,-0.12466712,-0.080976645,-0.033695914,-0.059173823,-0.29890911,-0.17406275,0.066496292,-0.086543056,-0.27857289,0.29899761,0.17473373,0.33109732,0.14079968,0.31725323,0.072419135,0.20033864,0.3072861,0.12417028,0.14958459,0.24188989,0.4591146,0.51632698,0.27763162,0.73002621,0.85092036,0.98213162,1.1036071,1.4320229,1.4039706,1.5512803,1.5516383,2.0259675,1.7174662,1.2390852,1.6464622,1.6018446,1.3581872,1.6057742,1.7420596,2.1093297,2.7782135,3.536051,4.0949249,4.6954901,5.1744308,5.7913393,6.3758957,6.4230739,6.8038578,6.742525,7.6882868,7.3140479,7.9774923,7.4456266,7.7726068,7.5811342,7.4433835,7.084475,7.1758032,6.4287266,6.9665544,6.100744,5.7864836,5.3493128,5.1095603,4.3320417,3.7503214,3.4306798,2.6284731,1.9108856,1.3690816,1.1400484,0.21006032,-0.85123326,-1.1175416,-1.7343246,-2.861266,-2.8366812,-4.2276888,-4.3599122,-5.4015014,-5.3955889,-6.3384028,-6.692703,-7.4599096,-7.4613576,-7.7369983,-8.7138294,-8.883465,-9.1317504,-9.6274843,-9.580102,-9.6733638,-10.39967,-10.009179,-10.100381,-9.9866732,-10.02827,-9.981627,-9.784821,-9.3320317,-9.1222156,-8.8874905,-8.5044293,-8.431285,-7.772084,-7.2846507,-7.192193,-6.8888882,-6.1476052,-5.8731369,-5.1042681,-4.6486002,-4.2936688,-4.0047547,-3.212078,-2.4669005,-2.1660567,-1.4822009,-0.92843623,-0.72920927,0.018745838,0.37957373,0.73433535,1.149544,1.7865813,2.1003991,2.7336735,3.127902,3.2794493,3.9176356,3.7463416,4.3611918,4.4838057,4.3808773,4.4557572,4.8144219,4.1698336,4.1752233,3.8175839,3.4182541,3.3388416,2.3397122,2.1193614,2.3015507,1.8159947,1.6802674,2.3379677,2.2376286,2.744631,3.0559762,3.1671574,3.6243604,3.3355739,3.9444812,3.9266299,4.1782161,4.1292818,4.8113385,4.3498836,4.7228487,4.7225175,4.9968278,4.5599112,5.0492024,4.7595964,4.8692659,5.1345765,5.2222775,4.7934149,5.2545329,4.8926337,5.0502974,4.9386791,5.0780746,4.6007094,4.8295339,4.755083,4.7445729,4.4838159,4.4747946,4.4679895,4.419055,4.2758572,4.165366,3.6101196,3.7206149,3.7976621,3.0295053,3.1831887,2.7702045,2.5045839,2.7007155,2.0828454,2.1344754,2.026485,1.432517,1.5548531,1.2476383,0.9696012,0.45765121,0.73202819,0.66384928,0.4639327,0.60185952,0.36635593,0.38714451,0.45092222,0.47506609,0.46161155,0.32514877,0.37709962,0.24388591,0.46942509,0.62712261,0.24851092,0.62843039,0.14299079,0.59099612,0.70984753,0.09504296,0.53093908,0.063708921,0.12649633,0.25729718,0.071521235,0.20203372,0.098319904,0.30591038,0.19810171,-0.30874767,-0.018172649,-0.23944426,-0.2573668,-0.16239074,-0.52732763,-0.83971837,0.0077762099,-0.88954447,-0.7984766,-0.81700117,-1.1843048,-0.89874795,-1.1610154,-1.2862845,-1.6140507,-1.5400238,-2.1408535,-1.3676856,-2.0801404,-2.0727068,-2.3348661,-2.3641443,-2.1750793,-2.6342805,-2.5950633,-3.0230506,-2.7651971,-3.0903223,-2.9454758,-3.4805256,-3.4762836,-3.4144079,-3.5137731,-3.5721057,-3.7660049,-3.5804876,-4.1963724,-3.6393415,-4.4650178,-4.213152,-4.4565851,-4.5995725,-4.592586,-4.3097573,-4.7790727,-4.7785964,-4.6328046,-4.5643555,-4.7097608,-4.6487248,-4.7797233,-4.2601602,-4.1245261,-4.2422698,-4.3289131,-3.8376175,-4.1404796,-3.8786735,-3.8306132,-3.4763862,-3.3166103,-3.1267276,-3.0120188,-2.6587077,-2.9175932,-2.3661795,-2.3786102,-2.3141944,-2.1870473,-1.9034895,-2.3161551,-1.503053,-1.798438,-1.4636795,-1.1945258,-1.2463331,-0.66485511,-0.82356491,-0.2744787,-0.27331981,0.14862105,0.39940155,0.41146864,0.65525947,0.90737987,0.73406741,1.2598179,0.98845725,1.4385079,1.430043,1.2702624,1.5187369,1.8954686,1.5486572,1.8178463,1.7603208,1.6873553,2.0250502,1.6920229,1.7119776,1.5968993,1.5829523,1.7494499,1.8527908,1.6405164,1.6361927,1.5866682,1.7024817,1.2507441,1.1157898,1.4956131,1.3638123,1.0833127,1.4723914,0.70688843,1.2763335,0.84560389,0.72937508,1.1438765,0.72703945,0.75587868,0.66205424,0.78073124,0.56875286,0.59987237,0.64643553,0.44602832,0.86305744,0.26863228,0.45784001,0.4717734,0.34536479,0.21531918,0.36033386,0.37229664,-0.021276352,0.25571454,0.054494825,0.38892287,-0.15875401,0.3112118,0.044663399,0.17211926,0.2136603,0.25661464,0.39735507,0.072017685,0.56398651,0.34864369,0.51539838,0.68465697,0.74782219,0.85830591,0.44077106,0.26091333,-0.06465762,0.39608157,-0.17929026,0.41957765,0.23644681,1.1100706,1.2010325,1.8128305,2.0767234,3.2311516,3.4137638,3.895115,4.7612356,5.4064313,5.8553002,6.0111977,6.5490158,6.5227566,6.9497624,7.0498831,7.3311746,7.0577909,7.0458326,6.9763679,6.8469424,6.5163269,6.7535076,6.0425704,6.0267263,5.9462612,4.995026,4.9606242,4.2892505,3.9237118,3.2216085,2.6919947,2.2143831,1.5497112,0.93882338,0.23821917,-0.45547413,-0.91457245,-2.0671892,-2.3419018,-3.4205427,-3.7799284,-4.2993874,-5.4108033,-5.5066516,-6.1948279,-6.8910813,-7.3993079,-7.6952492,-8.5307042,-8.4690296,-9.2412124,-9.0925091,-9.7468407,-9.5123494,-10.083177,-9.8673685,-10.333997,-9.9989644,-10.317765,-9.4167909,-9.6568474,-9.4255532,-9.4903385,-8.807248,-8.9979441,-8.1650679,-7.8916417,-7.2446907,-6.6401798,-6.5603491,-5.7463443,-5.3275779,-4.6763242,-4.5327329,-3.4371124,-2.932218,-2.4936696,-1.4981095,-1.2234961,-0.228992,0.50930455,1.2687437,1.6261317,2.7971782,2.8539405,3.5622246,3.9978355,4.4885125,5.0704556,5.2918515,6.0361528,6.1080479,6.5317865,6.6501116,7.163907,7.0197011,7.0486403,6.8485981,6.5942312,6.2528087,6.089305,5.1610322,4.5311947,3.8266364,3.3486866,3.2062121,2.7434651,2.4519971,2.6003821,2.1332614,2.5623339,1.9422445,2.4547328,2.1243505,2.3331146,1.8147052,2.1874114,2.1490496,1.9172301,1.826168,1.8478828,1.9240222,1.6321093,1.9388133,2.1271899,1.9108028,2.0049968,1.9292094,1.7486847,2.1529526,1.9869103,1.979773,1.608495,1.8649596,1.5446864,1.717207,1.8300483,1.5854409,1.6340402,1.583545,1.9275971,1.5595374,1.937388,1.3798421,1.5034261,1.5038628,1.2238938,1.3024446,1.0191177,1.244727,1.0473633,0.9951045,0.80426828,0.94891691,0.47861099,0.7555545,0.77026372,0.79492346,0.17668985,0.70983146,0.26029173,0.6954342,0.19372458,0.38703697,0.12461081,0.54440696,-0.1187676,0.72246254,0.11856188,0.46532808,0.080076634,0.47546282,0.37296852,0.23974751,0.070692109,0.36275164,0.5668506,-0.29498382,0.38126762,-0.3806702,0.17869493,-0.34595313,0.028152485,-0.37757234,-0.059075557,-0.14926447,0.00076071572,-0.004888947,-0.30216764,0.070636422,-0.053245678,-0.18371399,-0.5923004,-0.41950691,-0.86611542,-0.4822553,-0.58348818,-0.39887287,-0.71976974,-0.47381081,-0.47619705,-0.66909113,-0.45939013,-1.1814142,-0.4616381,-1.15844,-0.60527158,-1.0942166,-1.2354689,-1.076753,-1.3369698,-1.3457962,-1.4145435,-1.6395799,-1.7984441,-1.6817194,-1.766094,-1.9842033,-2.1154416,-2.3303513,-2.1700227,-2.4028622,-2.3902536,-2.6088649,-2.6011591,-2.8820653,-2.4083751,-3.0300999,-2.9317403,-3.2122511,-3.00644,-2.6884124,-3.0619666,-2.9257439,-3.1265608,-3.3742952,-3.3430753,-3.2432171,-3.746248,-3.3566203,-3.8801924,-3.4294348,-3.6988202,-3.6345894,-3.9014903,-3.3400397,-3.4469631,-3.5721801,-3.4594454,-3.7029659,-3.3713743,-3.4902134,-3.1460867,-3.7454026,-3.6063861,-3.2114183,-3.3688529,-3.1990717,-3.4084788,-3.3050954,-3.5165727,-3.0713542,-3.1723343,-3.1724241,-3.2317292,-2.8510367,-2.8738362,-2.9443854,-2.5238473,-2.9097092,-2.2160617,-2.3201614,-2.1153597,-1.7658429,-1.8529007,-1.5394017,-1.5974949,-0.61365053,-1.1606852,-0.61870905,-0.23448955,-0.00078110127,0.05385328,0.13097383,0.30803667,0.51576361,0.77972685,0.90130917,1.6311179,1.2833227,1.8708052,1.8172914,2.5465685,2.2985384,2.477367,2.711211,2.9511677,3.1451759,3.2921443,3.3667742,3.1536577,3.2309968,3.5525087,3.5540731,3.501229,3.3105462,3.740666,3.4664135,3.438841,3.4569342,3.1059647,3.2650834,3.2644887,2.8015088,3.1158123,2.7932267,2.9536538,2.6100831,2.8084739,2.4950864,2.467884,2.310391,2.4965599,2.473339,2.2152227,2.3436284,2.2065479,2.1727838,2.4095694,1.7828285,1.9907293,1.6918121,1.7536538,1.7164409,1.5199266,0.88872136,1.7108399,0.90963437,1.7941317,1.1769892,1.3028863,1.493954,1.2464009,1.4365522,1.340659,1.1761857,1.3163353,1.5756637,1.4324738,1.4918782,1.5036647,1.8008031,1.833139,2.1295935,1.8666519,2.3701549,1.9008624,2.1762001,2.4582329,2.2198627,2.3288812,2.3228459,2.3510544,2.3264918,1.7582215,2.0394278,1.1545111,1.6422618,1.3129777,1.3295077,1.4394269,1.7592631,1.9272091,2.3768866,2.5784675,2.9433902,3.1113204,3.8904885,4.1295133,4.0183294,4.5474768,4.5186803,4.7947561,5.1462718,4.6203827,5.0995202,4.4242962,4.8793927,4.3618483,4.3540799,3.7242173,3.5840227,3.0526237,2.8852302,2.2301831,1.8030093,1.6386702,1.039185,0.97912403,0.22884776,-0.33718796,-0.62229024,-1.1941822,-1.2682984,-2.2306524,-2.3108553,-2.8854398,-3.2136399,-3.7220821,-4.0652008,-4.9228474,-4.9924254,-5.4995473,-5.9960032,-6.3381082,-6.8687406,-6.985474,-7.5840068,-7.2907802,-7.9189995,-8.1268071,-8.0494176,-8.3344905,-8.1906148,-8.0188874,-8.2036456,-8.4079069,-8.2337874,-7.6345039,-7.6571805,-7.3472437,-7.3293605,-6.6736494,-6.0734524,-5.9785568,-5.4185269,-5.4956966,-4.4479916,-4.4193216,-3.9583578,-3.383163,-2.8889322,-2.3904432,-1.4979783,-1.1858302,-0.42456925,0.20824314,0.50831777,1.8585606,2.0402559,2.6324593,3.6246318,3.7334249,4.7509793,5.2391055,5.5111214,5.9683681,6.5055921,6.9459552,7.4843802,7.4365632,8.1988073,7.7151177,8.5580468,8.0833732,8.3046408,7.4786051,7.7388224,7.2251318,6.9235109,6.2420787,5.7356651,4.8133995,4.4432693,3.9077209,3.4294196,2.4141627,2.6393817,2.0941844,1.8638358,1.305206,1.2239737,0.58098928,0.55981852,0.2891029,-0.19527873,-0.49364565,-0.99926325,-1.0321218,-1.1779409,-1.8873207,-1.9245908,-2.5138648,-2.3265427,-2.7335867,-2.8995006,-3.3687506,-3.4439027,-3.3705976,-3.5277951,-3.8356342,-3.8560705,-4.5539104,-3.8424084,-4.1375766,-3.8011576,-4.0006477,-4.2835502,-3.6163272,-3.6435899,-3.4380461,-3.5224384,-3.7864335,-2.6903797,-3.2436609,-2.4920872,-3.0488296,-2.6782664,-2.5456527,-2.1761348,-2.174226,-2.2145111,-2.1993289,-1.7360368,-1.0678152,-1.5921177,-1.1115585,-1.1472,-0.64288892,-0.43039662,-0.1590626,-0.042950338,-0.46229379,0.2674053,0.28389282,0.37622549,0.2151301,0.54277202,0.7119987,1.0487318,1.1067753,1.0363552,0.9703373,1.3833084,1.4449363,1.4353099,1.1589502,1.1746098,1.0369693,1.409601,1.5409491,1.1134868,0.91459223,0.95060362,0.97708618,0.96880255,0.44382861,0.43552039,0.40821151,0.78934472,0.65059579,0.70830048,0.17653985,0.71316615,0.45635337,0.64036738,0.30034119,-0.043830323,0.29752601,0.12810985,-0.018910588,0.30832508,-0.88112991,-0.14307532,-0.85108104,-0.61684531,-1.120561,-1.2748014,-1.4587549,-1.0457747,-1.2401753,-1.1909369,-1.9684971,-1.3604251,-1.5721851,-1.499197,-1.8879753,-1.8072618,-2.2173481,-2.3416816,-1.9380522,-2.1193495,-2.4078649,-2.3809588,-1.8785871,-2.0280365,-1.9651835,-2.4029594,-2.0527126,-2.0424613,-2.2066151,-1.6142974,-2.4945663,-2.0211376,-1.7084204,-1.501246,-1.5265949,-1.5610074,-1.666145,-1.2206704,-1.0887877,-0.95411574,-1.0406624,-1.0301652,-0.80196588,-0.33583625,-0.29369196,-0.76687426,-0.23901722,-0.40263624,-0.037691347,-0.12758287,-0.12309618,0.013769749,-0.26680408,0.6121812,0.39019246,0.36376438,0.38204174,0.82268992,1.2303055,1.3033564,1.3510088,1.34427,1.1589701,1.4995286,1.9558113,1.5511809,1.5942256,1.4283307,2.0376062,1.8834246,1.6748445,2.0753475,1.5277124,2.3562497,2.1475793,2.2062036,1.678205,2.247602,2.2462397,2.2173263,2.1624968,1.9285915,2.0170723,2.2087155,2.2790954,2.0331398,2.0429868,1.7215489,2.4274858,1.9724495,2.0007921,1.7560454,1.7521669,2.1731603,2.3842686,2.0248778,2.0314456,2.0841565,2.1914891,2.3007997,2.2076342,1.6651601,1.7066253,1.9191064,1.7397172,1.4980683,1.4540908,0.79501279,1.2313197,1.3895226,0.22855756,0.72281044,0.18887298,0.37296908,0.4120102,0.13374251,-0.41919893,-0.11692087,-0.61875533,-0.14068458,-0.97308331,-0.57928946,-1.4826743,-0.83983004,-1.1003616,-1.1217494,-1.6235115,-1.761116,-1.1007263,-1.1271844,-0.95457631,-1.5052181,-1.1620073,-1.0394231,-0.86216213,-0.77051845,-0.90424377,-0.74576831,-0.53873407,-0.047021628,-0.13731831,-0.23574448,-0.49988014,-0.43785597,-0.49037938,-0.31220363,-0.95786354,-0.57204665,-0.21271024,0.23674178,0.50267596,0.68134273,1.4790181,2.0873475,2.9441242,3.0975457,3.8231694,3.6327355,4.7864343,4.9395201,5.585274,5.2928615,5.7348378,5.8871061,6.4490396,5.7853471,5.9366387,5.4680594,5.3193046,5.2660186,4.4021447,3.8930431,2.9050024,2.9384119,2.2338249,1.4794367,0.66340248,-0.42164107,-0.54823014,-1.3414989,-2.0277861,-3.1745669,-4.0370655,-4.4946704,-5.2739729,-5.7290482,-7.0020865,-7.2844684,-8.1438537,-8.4031423,-8.696983,-9.8456786,-9.6673548,-10.720252,-10.232625,-11.091454,-11.276641,-11.648555,-11.702447,-11.867688,-11.60056,-11.824205,-11.985837,-11.613304,-11.625212,-11.425944,-11.049461,-11.633067,-10.842055,-10.644504,-9.987753,-10.093398,-9.6647922,-9.1882518,-8.4095534,-7.4123668,-7.6171487,-6.7853401,-6.1807241,-5.0015998,-4.7159807,-3.3865023,-3.5144637,-2.5726985,-1.7906813,-0.72149238,-0.41221183,0.70304455,0.57917986,2.4717661,2.2352768,3.6275274,3.1938924,4.4826926,5.0608872,5.5797409,6.4562956,6.6218951,7.6105548,7.8227651,8.7619693,8.7844313,8.9474328,9.1578547,9.4621835,9.8779533,9.6005512,9.3334553,9.0352526,8.8002334,8.7003707,7.6063703,7.334751,6.6464148,6.5059933,6.4909509,6.1964781,5.6829062,5.8031684,5.5844947,6.1070665,5.8302834,5.3380241,5.4267886,5.2333046,5.3177064,5.1670133,4.709498,4.7280451,4.6055896,5.1662872,4.6784568,4.7971804,4.2062122,4.7436334,4.4743271,4.7315731,4.077544,3.9328371,4.0577558,3.9958594,4.3386533,3.647475,3.5539033,3.8015392,3.584285,3.8394691,3.1518261,3.3701517,3.1501695,3.2536114,3.0590123,3.3547606,2.5072447,2.8907045,3.2989491,2.536885,3.2081895,2.219534,2.641324,2.8424482,2.8688821,2.8008635,2.3659084,3.0296456,2.5065518,3.2580453,2.7711531,2.6008998,2.9161357,3.0324295,3.3021262,2.9649696,2.9753395,2.9571752,3.4273986,3.3879423,3.1571133,3.3602096,3.4169573,3.912893,3.8109231,4.1513695,3.947985,4.2444336,4.4474681,4.4377023,4.8105789,4.4372852,4.5363422,4.8184853,4.9073312,4.5830405,4.3845393,4.3428778,4.4744023,4.2276616,3.9799204,3.5469626,3.3153519,3.2782218,3.777099,2.9946296,3.0739807,2.5465585,2.6917342,2.8415441,2.2895664,2.0859024,1.4485632,1.991203,1.5415826,1.6028942,0.91945264,1.0383412,0.61732357,0.98511239,0.56668838,0.47606324,-0.1360626,0.18297245,-0.0026284204,-0.16825325,-0.80185005,-0.91681264,-1.0807265,-1.0734286,-1.4449714,-1.7298518,-2.283727,-2.2179432,-2.5876167,-2.6952583,-3.1215081,-3.8066588,-3.6777155,-3.4539158,-3.7155054,-4.0075832,-4.2823414,-4.0249405,-4.058758,-4.2880431,-4.4621921,-4.5873731,-4.4055354,-4.268224,-4.3836475,-4.2374002,-4.3246368,-4.1014891,-3.619193,-3.8007574,-3.7866597,-3.9154736,-3.8368381,-3.3400524,-3.3593989,-3.5967701,-3.5916631,-3.3503252,-3.312021,-2.6949747,-3.4650243,-3.1870946,-3.1872085,-3.0977596,-2.4166584,-3.1181295,-2.8302659,-2.6166885,-2.4988092,-2.3474958,-2.7546132,-3.0293432,-2.5770956,-2.2372887,-2.5358225,-2.2740774,-2.8567168,-2.4740946,-2.4555939,-2.3869269,-2.64125,-2.8429859,-2.8415249,-2.5538398,-2.5066957,-2.9222212,-3.1707314,-3.4648518,-3.2518755,-3.1035249,-3.45858,-3.6201613,-3.6873358,-3.2803687,-3.7217772,-3.4224314,-4.1693413,-3.7275107,-4.0450943,-3.9223127,-4.3544023,-4.5151701,-4.8518639,-4.6814143,-4.6551232,-4.4883371,-5.2952438,-4.9160732,-4.90465,-5.2085004,-5.0789591,-5.6877423,-5.5259114,-5.86529,-5.2645681,-5.585762,-6.0425719,-5.9462019,-6.069946,-5.8725092,-6.5595777,-6.7474899,-7.9687592,-7.3121452,-7.991859,-8.2967066,-8.8043376,-8.6361898,-8.420861,-7.8540767,-7.6742569,-7.4406661,-7.3936731,-6.9612899,-6.3945702,-6.3636469,-6.5262093,-5.9762208,-6.1084152,-5.8972366,-5.6915442,-6.2371486,-6.0989787,-6.2266267,-6.3396761,-6.5253861,-7.2950252,-7.1059181,-8.0808304,-7.8909909,-8.6637352,-9.3211835,-10.143454,-10.580794,-11.062002,-11.448527,-12.658714,-13.379017,-14.104524,-14.563784,-15.319653,-16.291738,-17.084389,-17.972849,-18.517509,-19.403856,-19.895015,-21.379242,-21.435628,-21.987991,-22.651614,-23.378505,-23.874487,-24.420753,-24.519749,-25.204693,-25.50996,-26.120246,-26.410559,-26.356087,-26.593896,-26.223204,-26.78983,-26.797107,-26.706755,-26.259199,-26.644886,-26.415789,-26.445015,-25.413485,-25.516188,-24.656073,-24.866335,-24.010144,-23.283992,-22.421884,-21.318953,-20.406488,-19.188009,-17.853345,-16.76293,-16.386062,-15.622574,-15.427185,-14.725773,-14.150262,-14.683812,-14.687611,-15.180187,-15.352751,-15.369274,-15.714268,-16.744923,-16.963052,-17.314645,-17.368351,-18.296712,-18.732497,-19.198751,-19.397529,-19.528346,-19.694388,-19.945566,-19.927708,-19.33514,-19.188845,-18.522275,-18.314657,-17.570834,-17.008777,-15.802831,-14.650783,-13.715806,-11.379302,-9.8938474,-7.0410513,-4.0313781,-1.5619398,1.3840571,4.8430665,8.2922234,11.395076,14.89697,18.353915,22.149706,26.181319,29.86814,33.451885,36.889596,41.298533,45.210006,48.891228,52.580603,55.977488,59.958004,63.6967,67.271306,70.828482,73.357068,77.021531,80.149307,83.382283,85.857663,88.418183,91.314796,93.46863,95.708024,97.436139,99.100611,100.84572,102.09361,102.7853,103.63042,103.1531,104.00121,104.1381,103.98264,103.29971,102.59135,101.63106,100.66963,99.259465,97.426104,95.362617,93.396253,91.26638,88.88454,86.057369,83.262329,80.388272,77.672589,74.75447,71.274154,68.091416,64.852519,62.247788,59.473751,56.635936,53.817758,51.485229,48.828252,47.578531,45.256479,43.706853,42.294854,41.520846,40.598904,39.475743,38.013531,36.973408,35.906434,34.733299,33.665808,31.832997,30.739044,29.460285,28.044554,26.582187,24.352286,22.702631,21.505561,19.304789,16.921414,14.932043,12.366583,10.14434,7.1781382,4.7940594,1.252855,-1.4853011,-4.4108281,-6.9777149,-10.515263,-13.725803,-17.162196,-20.127372,-23.308774,-26.741949,-30.554321,-33.899531,-36.668628,-40.157029,-43.297321,-46.960633,-50.098595,-52.851278,-55.710879,-58.985422,-61.444421,-63.963541,-66.25177,-68.684702,-70.054169,-72.900312,-74.816655,-76.272481,-77.960998,-79.220101,-80.546095,-81.649865,-82.643591,-82.788054,-83.472936,-84.035589,-83.977115,-83.999828,-83.405359,-83.017281,-82.366289,-81.872619,-80.322067,-79.020932,-77.718608,-75.968359,-74.593786,-72.735617,-70.245334,-68.33847,-66.202177,-64.579649,-61.831158,-59.663863,-56.947244,-55.13994,-51.591687,-49.889787,-46.559671,-44.216278,-41.761349,-39.265557,-37.172901,-34.293806,-31.99866,-30.033113,-28.332972,-26.351668,-24.442036,-22.398686,-21.176349,-19.929564,-18.447246,-17.303185,-16.073539,-15.300719,-14.484488,-13.429577,-12.748305,-12.074963,-12.213527,-11.636951,-11.901944,-10.922799,-11.010109,-10.754348,-11.039626,-10.398044,-10.828071,-9.9990322,-10.435647,-10.511998,-10.32164,-10.241026,-9.6659944,-10.046064,-9.8383525,-9.5945121,-9.6411762,-9.2650584,-9.1182542,-8.9613809,-8.8029261,-8.3735371,-8.0617779,-7.6506752,-7.9042608,-7.7937728,-7.2561316,-6.6041632,-6.5997888,-6.0046512,-5.6288124,-5.3887664,-4.6431083,-4.4439743,-4.2645008,-4.031928,-3.1570234,-3.1925251,-2.3346839,-2.5418538,-1.8715993,-1.9895547,-0.93130065,-1.2898963,-0.47584493,-0.74935383,-0.079218761,0.46080179,1.0949264,1.0607107,1.2451023,1.2375207,2.1118097,1.4379395,1.7923821,2.2976844,2.1136925,2.8912253,2.7717628,2.4320419,2.3717046,2.1426992,2.7009925,2.4648739,2.8871117,2.9570831,3.7185232,4.5542252,5.4737838,5.5298183,6.4794721,7.0599784,7.9356894,8.5530521,8.9907895,9.5032063,10.060425,10.478523,11.041976,11.296111,11.453803,11.860625,11.801827,12.533281,12.425531,12.363397,12.597674,12.599531,12.684887,12.655576,11.999713,12.170948,11.7412,11.633059,11.473994,10.630107,10.983909,10.720169,10.308119,9.853613,9.563788,8.8041857,8.8975918,8.2478734,8.228088,7.1002663,6.9628442,6.2532043,5.8518484,5.8409829,4.6180741,4.7786395,4.1290443,3.9682364,3.5508271,2.8873878,2.3510479,2.4097625,1.909056,1.2029126,1.1719164,0.68596984,0.42657014,0.36205918,0.24135226,-0.18459621,-0.35687556,0.11129355,-0.040160996,0.11726358,-0.14916403,0.27379279,-0.19939829,0.65516262,0.49958632,0.99523187,1.3643504,1.9249986,2.3099229,2.6981718,3.2321313,3.4089795,4.1358058,4.7147781,5.2660626,5.9072657,6.4020192,6.7611517,8.2863057,8.0573056,9.1866931,9.1109631,10.040806,10.080042,11.211859,10.738606,11.556721,11.430488,12.041938,11.763567,12.062,11.357347,12.026792,11.270359,11.813128,11.107074,10.427923,10.121607,9.9230772,8.9648237,9.0207081,8.1974466,8.9396046,8.3794086,8.7151913,8.8882049,8.640338,9.0850737,8.8995242,8.9988574,9.2203485,9.0764844,9.5554223,9.140491,10.141107,9.4661455,10.040053,9.9915498,10.196169,10.464412,10.370005,10.751934,10.266513,11.057902,11.009725,10.995601,10.576877,11.083258,10.961017,11.313211,10.951028,11.334866,11.476629,11.761032,11.955707,11.730429,12.322451,11.70608,12.054252,12.039484,12.383668,11.845365,12.015533,11.973054,12.406283,11.929958,12.092934,11.446875,12.069772,11.753489,11.48121,11.344018,10.914641,11.083502,10.913268,9.9041498,10.098198,8.9801314,8.9457559,8.6421081,8.3705349,7.8149851,7.2364125,7.3940953,6.8049489,6.4910203,6.1559326,5.621526,4.8182179,5.1772098,4.1073698,3.8495893,3.1017497,3.3072932,2.5199467,2.5582434,1.6600832,0.94264434,0.51580444,0.52009188,-0.11542388,-0.89339819,-1.3446818,-1.7422799,-1.9721604,-2.4172087,-3.0906722,-3.4169201,-3.7850741,-4.1686024,-4.5814303,-5.3229421,-5.5637568,-6.2453002,-5.5449012,-6.8366933,-6.3129163,-7.787932,-6.9763813,-8.0650294,-7.5342633,-8.5226585,-8.298298,-8.8500659,-8.2793219,-8.9428166,-8.6455388,-9.3966176,-8.9600006,-9.2267808,-8.9915568,-9.0746216,-9.1890256,-9.1096592,-8.765205,-8.5102475,-8.8188625,-8.2963811,-8.6604372,-7.5736426,-7.534885,-7.3557029,-6.8499893,-7.0068407,-5.9142086,-5.9158355,-5.6076873,-5.2765852,-5.3603768,-4.866292,-4.2654885,-4.3825752,-4.5024767,-3.9877232,-3.9649546,-3.4608352,-3.2049963,-3.1822563,-3.083188,-2.8516708,-2.4794824,-2.5666307,-2.4603706,-2.3536462,-2.2385781,-2.2075568,-1.8891571,-2.5558189,-2.0489144,-2.3318016,-1.9549851,-2.1585997,-2.5393179,-2.6643061,-2.4566711,-2.8844661,-3.0084775,-2.9856127,-3.5283081,-3.198189,-3.4462734,-3.2489606,-3.8028773,-3.8448337,-4.2081694,-4.0439791,-4.1051442,-4.4266898,-4.2827454,-4.3275264,-4.3020774,-4.1315056,-4.2152287,-4.7865408,-4.2663214,-4.646515,-4.3635051,-4.8377034,-4.9944558,-4.5216721,-4.6873033,-4.5737698,-4.4351802,-4.9171607,-4.7508654,-5.0093551,-4.9038477,-5.1983499,-5.1070975,-5.1986612,-5.3215452,-5.133916,-5.5291476,-5.7025777,-5.472888,-5.5837274,-5.4830489,-5.5428344,-5.6709224,-5.7572902,-5.4753231,-5.5269581,-5.193816,-5.6872641,-5.1760647,-5.4399295,-4.8723981,-5.6370377,-4.999747,-5.602795,-4.9002004,-4.8293222,-4.9408739,-5.0758704,-4.7175177,-4.7031814,-4.2379607,-4.7381407,-4.2223534,-4.4563447,-4.3963166,-3.7281552,-4.1225462,-3.9191032,-3.8036011,-3.7641311,-2.9790732,-3.2185647,-3.0720507,-2.8324395,-2.5827012,-2.4133398,-1.9980819,-2.6534363,-2.0997267,-1.9860884,-1.621148,-1.3596285,-1.656168,-1.3311017,-0.52302036,-0.56022445,-0.33362698,0.14170754,-0.29703789,1.0503981,0.58512324,1.2506169,0.96088646,1.2295745,1.6251508,1.4314135,1.8801999,1.4679171,1.7276464,1.7813097,2.9190818,2.529694,3.1769114,3.5306014,4.0745773,4.6585289,4.6173921,5.226602,5.1339185,5.8511205,6.4289403,6.5073416,6.40937,7.0754297,6.5978676,7.3976366,6.8922525,6.9880769,7.0190094,6.8366666,7.042502,6.9509391,6.2926069,6.1185093,5.6367809,5.7416945,5.5271725,4.7663733,4.4771815,4.1470469,4.0154039,3.6396917,3.0879855,2.510094,2.3156393,1.8371742,1.4381622,0.51286858,0.1621576,-0.7662963,-0.0012634223,-1.3065081,-1.3565971,-2.1061563,-2.5370464,-2.2928126,-2.8503372,-2.976989,-3.543195,-3.4477813,-3.4427678,-3.4787763,-3.7575157,-4.2063159,-3.5857046,-4.0524745,-3.5856126,-4.1466801,-3.8662787,-4.0940532,-3.5659533,-3.7969762,-3.3541329,-3.6668261,-3.3659766,-2.7914544,-2.4156941,-2.4083772,-1.7862844,-1.823557,-0.98568083,-0.64330418,-0.080692961,-0.13005036,0.43885665,1.1594062,1.4465564,1.798355,2.1103518,2.263981,2.9692126,3.0982138,3.3458472,3.0947918,3.4276769,3.6891501,4.2179677,3.7851881,4.3759692,4.0855416,4.5878756,4.6919728,4.6154891,4.2850938,4.7142287,4.6365092,4.4209601,4.6443874,3.6973029,3.6606474,3.3524531,3.628598,2.684848,2.2938634,1.5773569,1.5789165,1.4618539,1.3647763,1.3535594,0.93089663,1.6772305,1.5303775,2.0011845,1.9899169,1.5548784,2.1953286,2.0263411,3.0147765,2.0570117,2.9579882,2.7136756,3.2760332,3.6925424,3.199854,3.390851,3.4953317,3.9155549,4.1770254,3.9609573,3.4769511,4.1560556,4.0092358,4.2101283,3.8709693,3.5555657,4.0098897,3.8945954,3.8653114,3.4135639,3.4000168,3.2223092,3.2218336,3.014559,2.8005319,2.5788579,2.1433316,2.4960752,2.2192345,1.8857282,1.5042458,1.4344264,1.2662719,1.5834958,0.92270498,0.76038085,0.61303151,0.6766757,0.55679109,0.311298,-0.040066086,-0.37872677,-0.33632303,-0.30070919,-0.84366845,-0.91081086,-1.5603699,-1.4407158,-1.3521612,-2.020347,-2.2222451,-2.2874656,-2.6005749,-2.4062506,-2.7988189,-3.1010153,-3.0837779,-2.8439752,-3.03148,-2.4954772,-2.9253474,-2.7645779,-2.4835394,-2.3606252,-2.2261538,-2.7515334,-2.3986195,-2.3754181,-2.0402791,-2.3824069,-1.9776801,-2.6522138,-1.688324,-1.9560855,-1.9026997,-1.9267085,-1.9254466,-1.8714683,-1.4736353,-1.4047692,-1.9174466,-1.7409584,-1.3595182,-1.4305522,-1.034907,-1.3463245,-1.5623534,-1.3700365,-0.72861111,-1.0749453,-1.1297421,-0.70498409,-0.71808697,-0.5918393,-0.14522733,-0.68782254,-0.51366257,-0.62873897,0.066391398,-0.20232378,-0.60746583,-0.45727477,-0.47448449,-0.082694852,-0.4309099,-0.44054723,-0.86264655,-0.53788145,-0.12205618,-0.69942313,-0.52031254,-0.64826834,-0.51808448,-0.099553298,-0.5988123,-0.37720667,-0.74440484,-0.47584671,-0.40132087,-0.46589295,-1.0408988,-0.85753202,-0.87583278,-1.0012719,-0.96059777,-1.5078017,-1.3525863,-1.456861,-1.2606521,-1.3413277,-1.3094744,-1.6199658,-1.5072442,-1.1488599,-1.234908,-1.5232969,-1.8073338,-1.69684,-1.4455544,-1.6155436,-1.5427305,-1.9030237,-1.3868203,-1.439643,-1.0940336,-1.0202449,-1.5912731,-0.77170488,-1.2649023,-0.35550507,-0.70334487,-0.59824754,-0.68528171,-0.11808689,-0.078366546,0.1348791,-0.63288885,0.049734747,0.27796149,0.11362264,0.44764844,-0.28297025,-0.088171914,0.17514403,0.70715332,0.16838021,0.3823977,0.102018,0.70710505,0.87135964,0.53130324,0.32868428,0.27383903,0.39824945,0.65081691,0.27770896,0.19298157,0.070146316,0.42966724,0.4851972,0.79451198,-0.18367651,0.61546658,0.038709744,0.34844236,0.64215584,-0.22265443,0.16963868,-0.15076952,0.55826245,-0.12048003,0.13680766,-0.1641465,0.28760053,0.68264918,0.38581243,0.45801889,0.72872404,0.53200365,1.0720149,1.0078835,0.054113321,0.43521498,-0.071786135,0.18503113,0.0036308933,-0.026844786,0.28722394,0.37339919,1.2534572,1.7603332,1.9694616,2.3572787,2.8486299,3.4739324,4.1577337,3.9345462,4.3431696,4.7061661,5.2266921,5.3128486,5.3822921,5.1962276,5.2942405,5.4784205,5.6636342,5.1951754,4.5462228,4.5842274,4.6462588,4.1579901,3.8019711,3.2758515,2.4615846,3.074103,2.2118648,1.861997,1.079151,0.7900828,0.45304574,0.25578768,-1.0718784,-1.0164195,-2.3876065,-2.0719639,-2.6466085,-3.3205958,-4.0050994,-4.3565507,-4.8148119,-4.8294331,-5.4646444,-5.9863337,-6.5292953,-6.2229753,-6.6015776,-7.0580303,-7.6710538,-7.5778175,-7.5042119,-7.7552182,-8.0268143,-8.3232819,-8.5240057,-8.0248891,-7.9602447,-8.5340825,-7.8462423,-8.5044612,-7.4766415,-7.4472544,-7.2542869,-7.3602186,-6.6615068,-6.4866181,-6.0073422,-5.6351664,-5.6639257,-4.9486283,-4.7507123,-3.806311,-3.6447063,-3.4128677,-2.624979,-2.0125146,-1.2188788,-0.96988399,-0.02375428,-0.12762781,1.2616156,1.2906759,2.5685367,2.3790856,2.8590856,3.7852857,4.2331656,4.70657,4.916527,5.0712807,6.143663,6.0882412,6.6448228,6.4839498,6.9339414,6.6567743,6.9421149,6.3057422,6.2046717,5.1392468,5.5354437,4.7831503,3.9143641,4.3806966,3.1927218,3.704296,4.0942633,3.6570797,4.0594818,3.5859662,4.1853672,4.1863885,4.1936652,4.3034939,3.8483161,4.6355102,4.5498948,4.3383549,4.0208949,4.2834467,3.8315734,4.1065947,3.9834415,3.9671963,3.2909563,3.5282226,3.6513243,3.2416567,2.9478694,3.18908,2.7123366,3.1450376,2.6835194,2.6853172,1.9486379,2.5121414,2.123282,2.2708226,1.8377218,1.6141958,1.245338,1.8939209,1.2592827,1.4454065,0.58654265,1.0420147,0.87225596,0.85299365,0.4879894,0.40812538,-0.087598306,0.86503051,0.48724725,0.37958385,0.30493016,0.49772682,0.57719053,0.76336214,0.35044547,1.003592,0.0063849643,1.1304756,0.72785011,0.72963643,0.42209392,0.67034853,0.6610892,0.75201133,0.9464752,0.45704467,0.55180576,0.40824645,0.56283662,0.24568865,0.21997208,-0.26074166,0.17449672,0.13704317,-0.02220653,-0.36251773,-0.81032919,-0.46440015,-0.40272776,-0.6058787,-0.83170429,-1.0006756,-0.78291462,-0.78019249,-0.73035399,-1.5090336,-1.010104,-1.5255342,-0.71561578,-1.7852259,-1.2924722,-1.806922,-1.5631453,-1.3749255,-2.0490376,-1.5709183,-2.271426,-1.7773419,-1.8853155,-1.8688976,-2.1648651,-2.4911735,-2.3953903,-2.4833947,-1.9939962,-2.6073406,-2.7103092,-2.5767557,-2.6628209,-2.3348095,-3.0239926,-2.7485562,-2.9773745,-2.5462866,-2.6163565,-2.8082864,-3.0667997,-2.722036,-2.2097723,-2.6138563,-2.2838335,-2.8755415,-2.5078014,-2.6831205,-2.2262465,-2.5769779,-3.0903557,-2.6069686,-2.5416291,-2.3555448,-2.71849,-2.6648204,-2.5124913,-2.4766872,-2.0151914,-2.1943499,-2.7649399,-2.2462034,-2.5009325,-2.0809569,-2.6681674,-2.4021982,-2.3902059,-2.3520337,-2.0697401,-2.3542286,-2.3443518,-2.5194773,-2.4134179,-1.9264674,-2.2532755,-2.4142662,-2.2386954,-2.0565424,-1.6880824,-1.6896396,-1.9727865,-1.2897159,-1.2420498,-0.83416928,-0.83442995,-0.75061793,-0.64609307,-0.13286502,-0.0021951151,0.59104126,-0.36136333,0.79462104,0.79964175,1.2416282,1.6151338,1.3940869,1.8259947,1.8918188,2.2969902,1.988383,1.8760021,1.7655632,2.1167128,2.1582758,2.261202,1.9543571,2.1095993,2.3264671,2.2437231,2.2335225,1.9896352,2.1994328,2.124448,2.4028271,2.183334,2.0320996,1.7184018,2.007599,2.2778172,1.8459027,1.7596806,1.1828943,1.9409176,1.6699667,1.5788649,1.204399,1.0989602,1.2134339,1.5552342,1.5823321,0.93474466,0.89870378,0.94063218,0.49886344,0.58636771,-0.13921463,-0.53417368,-0.35146903,-0.096819965,-0.36429427,-0.52186195,-0.074078946,0.360774,1.4888863,1.949733,2.3195601,2.5332596,3.593542,4.0238379,4.5974159,4.5619526,5.0518338,5.3910133,5.7304889,6.117835,5.7612922,5.8731218,5.6903435,5.949422,5.694004,5.2150769,5.0513287,4.5637866,4.4092548,3.9647801,3.5208207,2.2393474,2.1348228,1.7112469,0.89482823,0.15135672,-0.61959713,-1.0578417,-1.6616272,-2.2450091,-2.6638772,-3.8304215,-4.2770681,-4.4827299,-5.2100151,-5.987817,-6.9418152,-6.9323228,-7.7004547,-7.858129,-9.0006533,-9.0077512,-9.9205341,-9.6123691,-10.315602,-10.710422,-11.185561,-11.044782,-11.523956,-10.932475,-11.451704,-11.58548,-10.930091,-10.970655,-9.8768086,-10.530786,-9.7986625,-9.5507709,-9.1827839,-8.0662354,-8.3873488,-7.6255898,-7.9317369,-6.4406776,-6.4299463,-5.2172916,-5.4837456,-4.3967635,-3.683228,-2.5242411,-2.0646823,-1.4555867,-0.93565987,0.34438248,1.1170506,2.1178639,2.081921,3.1286748,4.227634,4.9032612,5.4312908,6.1608661,6.4011489,7.56087,7.4497815,8.7246584,8.2065837,9.1967058,8.8132779,9.6745631,9.5386527,9.5850718,9.191993,9.1222699,8.940617,8.5493426,7.6258781,7.0150289,6.4225674,6.4026767,5.8444682,5.0773376,5.3903157,4.4927973,5.4691006,4.656523,5.2777393,4.6088917,5.2109239,4.7763554,5.1955272,4.6375286,4.5253004,4.5968101,4.4805633,4.8097082,4.3469117,4.0428721,4.3749752,4.0654993,4.3093116,3.8093748,3.830633,3.5867989,3.8348247,3.7972383,3.5193451,3.2401167,3.2816979,3.3852471,3.4975138,2.8885746,2.925129,2.7609731,2.8924446,3.3446781,2.7572801,2.8016587,2.4083572,3.0893163,2.8426538,2.7190474,2.2352811,2.3634923,2.1434984,2.2953039,2.2596493,1.4600892,1.4417383,1.631004,1.185121,1.2097443,0.43989817,0.4515497,0.59157852,0.36949761,0.5801386,-0.083039476,-0.40945068,0.20406649,0.0010377122,0.014770891,-0.33851266,-0.7771306,-0.34407523,-0.74445381,-0.72981485,-1.0295485,-1.4113281,-1.0533567,-1.3302228,-1.2115818,-2.4062843,-1.5776731,-2.1282121,-1.8415121,-2.4706816,-2.4547962,-2.6982568,-2.8146869,-2.5511246,-3.1076798,-3.1259046,-3.1527429,-3.6714219,-3.0955135,-3.8934974,-3.7072772,-4.4638751,-4.1407866,-4.4098864,-4.2449168,-5.1515416,-4.7795133,-5.3889533,-4.6136024,-5.400207,-5.1640066,-5.8765491,-5.2856354,-5.3014101,-5.2704522,-5.8029054,-5.7646766,-5.4109649,-5.4946236,-5.3822143,-5.6474214,-5.8017827,-5.5382033,-5.0384555,-5.3905849,-5.1959246,-5.834529,-4.7770319,-5.631118,-4.4423974,-5.7208177,-4.8684822,-5.3638374,-4.395886,-5.1454353,-4.6739593,-5.2253371,-4.760273,-4.6711973,-4.4541046,-4.9671253,-4.7041942,-5.0275859,-4.1638821,-4.1339388,-4.1082778,-4.3644177,-3.9266487,-3.2044602,-3.3073353,-3.0310455,-3.3589219,-2.8678005,-2.2766844,-2.3843286,-2.1245493,-2.178678,-1.8576276,-1.3293045,-1.0980369,-1.1302423,-1.1295407,-0.81085194,-0.41117353,0.16053141,-0.49848196,0.16053834,-0.31906759,0.77030292,0.25938857,0.706117,0.2043248,0.57601953,0.5971005,1.184339,0.9285472,0.62750469,1.2865647,1.1378363,1.834385,1.3078165,1.2512839,1.678932,1.4330589,2.2787062,1.7019614,1.7224197,1.6319511,2.2068669,2.0955233,2.4307714,1.9452097,2.3974993,2.7245469,2.9060427,2.9282239,3.1543706,3.0217836,3.7844583,4.0603486,4.1424215,3.7311674,4.062947,4.3087331,4.6136527,4.9850223,4.207657,4.5759175,5.0024287,5.0666226,5.2873755,4.7783451,5.1848688,5.1957718,5.635381,5.6824454,5.4794598,5.6416148,5.9913331,6.4944063,6.4411173,5.6149695,6.037377,5.6665698,5.9829004,6.1698151,5.7143398,6.2538109,6.7962505,7.7896644,8.2863905,8.6026939,9.6336994,10.020177,11.146267,11.897317,12.211212,12.329357,13.011652,13.660835,13.725819,13.769762,13.697367,13.727904,13.774305,13.748582,13.133306,12.692108,12.361459,12.264362,11.798377,10.973578,10.392547,9.5147664,9.8651311,8.6549878,7.9126109,7.1835332,6.5650043,6.0385198,5.6978854,4.6645788,4.196216,3.4774091,3.268259,3.1933126,1.8562682,1.4988398,1.410549,1.2246011,0.96714415,0.8269241,-0.28748557,0.34419743,-0.43582839,0.045501785,-0.6435087,-0.94463071,-0.60912881,-0.89652907,-0.27200936,-1.3301124,-0.8159478,-1.4536578,-0.27363173,-1.0468913,-0.43986899,-0.99806339,-0.91924402,-0.6760977,-0.66006497,-0.87579578,-1.0985583,-1.1170866,-0.66544836,-1.0344727,-0.91120619,-1.242796,-1.3890206,-1.0187049,-0.76480755,-0.92624722,-0.90631384,-0.91689677,-0.84338386,0.068753452,-0.67350232,-0.28558262,-0.70324145,-0.66010333,-0.41647716,-0.61021927,-1.0119601,-1.2627345,-0.98178303,-1.2453782,-1.4977646,-1.7281451,-2.4242998,-2.5747108,-2.5721799,-3.2774764,-3.9804091,-4.4466039,-5.2733705,-5.2682016,-6.4763174,-7.4456546,-8.4678616,-9.4721571,-10.392983,-11.175269,-12.438211,-13.172917,-13.304984,-13.548842,-13.993146,-13.694656,-14.157089,-13.883538,-13.423516,-13.702002,-13.458065,-13.692863,-13.062015,-13.009045,-12.627483,-13.175194,-12.721896,-12.840032,-11.97411,-12.07028,-11.861426,-11.914653,-11.50638,-10.979179,-10.699397,-11.021036,-10.842684,-10.774797,-10.268864,-10.52817,-10.233855,-10.820254,-10.265753,-10.434877,-9.987949,-10.507191,-10.400856,-10.191643,-9.8557283,-9.9976831,-9.7604185,-10.347589,-10.019129,-9.6915002,-9.7216321,-9.6428944,-9.4124178,-9.8276775,-8.9415741,-8.8743201,-9.5580455,-8.6809049,-9.5479201,-7.9723961,-8.5602499,-7.5786095,-8.2525367,-7.7213121,-7.3479144,-6.9415791,-6.5243064,-6.8928992,-6.1104147,-5.9482185,-5.299496,-5.4822352,-5.3692066,-5.110537,-4.3706884,-4.0569754,-3.8853693,-3.6226114,-3.9371504,-2.9368271,-3.2076113,-2.5972719,-2.9766696,-2.1614515,-2.4243988,-1.4028247,-1.7032641,-1.5441091,-1.1424359,-0.64204753,-0.38633694,0.072202813,