ConstAcc,0.5,0.52326,72.10382,70.48332,69.14956,68.0798,67.25228,66.64615,66.2415,66.01933,65.96152,66.05079,66.27074,66.60579,67.04118,67.56294,68.15787,68.81355,69.51829,70.26112,71.03178,71.82071,72.61901,73.41843,74.21136,74.99081,75.7504,76.4843,77.18727,77.85462,78.48218,79.06627,79.60374,80.09189,80.52848,80.91173,81.24025,81.51308,81.72963,81.88969,81.99339,82.04119,82.03389,81.97254,81.85853,81.69346,81.47919,81.21782,80.91164,80.56313,80.17496,79.74994,79.29101,78.80125,78.28382,77.74198,77.17905,76.59839,76.59642,74.45464,71.55544,71.25695,72.82952,74.21577,74.35617,73.39088,72.25148,71.76126,71.71782,71.52532,70.83997,69.97855,69.39414,69.19349,69.02564,68.64138,68.20519,67.89102,67.77831,67.67784,67.37627,66.97791,66.58351,66.27973,65.94848,65.52569,65.05255,64.60207,64.24106,63.91932,63.58506,63.23238,62.90571,62.59873,62.27301,61.97736,61.70666,61.43707,61.16617,60.91079,60.65889,60.40056,60.13037,59.82226,59.4503,59.05919,58.69432,58.30288,57.84493,57.33853,56.85709,56.43478,56.01897,55.56808,55.07878,54.60887,54.18808,53.76554,53.24256,52.62875,52.01165,51.43801,50.88185,50.25955,49.53712,48.85154,48.22043,47.64827,47.00884,46.26649,45.51418,44.83425,44.17703,43.4341,42.56207,41.68797,40.88865,40.15387,39.34673,38.42715,37.45914,36.58417,35.84835,35.05011,34.09683,33.09427,32.18571,31.36543,30.46126,29.32923,28.09493,26.91722,25.81204,24.65625,23.26727,21.75259,20.2744,18.85377,17.3455,15.64656,13.83567,12.12222,10.53731,8.960416,7.199964,5.339053,3.607399,1.995682,0.3870759,-1.354301,-3.248911,-5.123881,-6.921034,-8.76302,-10.80992,-13.03983,-15.31305,-17.51765,-19.76844,-22.20326,-24.76267,-27.31445,-29.80996,-32.33002,-34.96793,-37.72383,-40.49867,-43.22376,-46.00298,-48.94577,-52.00543,-55.05527,-58.06216,-61.05108,-64.09519,-67.20589,-70.32365,-73.37668,-76.43986,-79.58477,-82.81009,-85.98243,-89.02215,-91.96678,-94.92285,-97.90183,-100.8142,-103.573,-106.185,-108.7671,-111.4153,-114.0011,-116.475,-118.89,-121.3485,-123.8431,-126.2402,-128.4493,-130.4915,-132.4511,-134.4038,-136.329,-138.1335,-139.8169,-141.4849,-143.1919,-144.9259,-146.4912,-147.9079,-149.2375,-150.4963,-151.6731,-152.6368,-153.4244,-154.1762,-154.9261,-155.661,-156.2409,-156.6733,-157.0952,-157.5208,-157.9321,-158.2478,-158.4425,-158.627,-158.8551,-159.0953,-159.2373,-159.3008,-159.2955,-159.3022,-159.2623,-159.1107,-158.929,-158.6999,-158.4694,-158.2124,-157.9442,-157.6989,-157.4702,-157.2658,-157.1047,-156.9075,-156.6699,-156.4639,-156.3226,-156.1688,-155.9794,-155.7125,-155.3892,-155.0893,-154.7748,-154.407,-153.936,-153.4716,-152.9079,-152.249,-151.5206,-150.6458,-149.7082,-148.7922,-147.8373,-146.8341,-145.7392,-144.599,-143.4923,-142.3477,-141.0759,-139.6472,-138.1005,-136.4644,-134.7715,-132.9948,-131.0743,-129.1018,-127.2193,-125.4357,-123.6825,-121.8686,-119.9981,-118.1553,-116.363,-114.5946,-112.7357,-110.7786,-108.8412,-107.0496,-105.2213,-103.2624,-101.1409,-99.02856,-96.97203,-94.91145,-92.74794,-90.57944,-88.48002,-86.49868,-84.57,-82.56805,-80.53984,-78.55541,-76.65683,-74.77517,-72.83227,-70.83023,-68.83335,-66.91396,-65.05373,-63.20139,-61.38665,-59.74364,-58.40686,-57.31534,-56.42667,-55.66749,-55.15838,-54.92132,-54.92125,-55.00461,-54.97506,-54.94152,-54.93298,-54.80183,-54.25765,-53.01448,-51.04327,-48.41498,-45.3261,-42.02292,-38.84904,-36.15496,-34.05048,-32.52259,-31.46342,-30.64882,-30.05545,-29.63179,-29.2501,-28.68827,-27.88118,-27.01521,-26.29557,-25.7508,-25.34073,-25.02275,-24.85614,-24.93262,-25.22543,-25.6319,-26.04566,-26.55119,-27.30121,-28.27332,-29.30454,-30.36063,-31.47148,-32.69142,-34.08506,-35.48325,-36.72499,-37.85151,-38.91207,-39.90327,-40.76429,-41.45317,-41.94483,-42.34524,-42.70695,-42.90585,-42.87719,-42.65745,-42.28592,-41.77031,-41.01845,-39.93489,-38.56113,-36.87752,-35.02396,-32.99635,-30.70923,-28.2097,-25.60185,-23.03641,-20.48855,-17.87115,-15.0501,-12.09759,-9.107257,-6.039189,-2.790035,0.6480362,4.127162,7.646171,11.28027,15.11431,19.16105,23.25085,27.38853,31.52687,35.7636,40.07517,44.34424,48.46745,52.44788,56.28139,60.11215,63.86202,67.41792,70.8236,74.17317,77.52079,80.70456,83.71383,86.43219,88.94273,91.27645,93.32077,94.92617,96.04092,96.68705,96.94188,96.71174,95.91974,94.57206,92.85539,90.93708,88.89559,86.67814,84.58388,82.71274,81.15471,80.03601,79.40886,79.32826,79.77213,80.49969,81.11572,81.18225,80.50064,79.23149,77.72913,76.29285,74.81692,73.46106,72.40003,71.72603,71.41575,71.39285,71.47167,71.60311,71.7691,71.92846,72.01886,72.03753,72.10176,72.31473,72.63243,72.92977,73.10225,73.1769,73.23181,73.28904,73.28365,73.27326,73.17514,73.10767,73.17448,73.27831,73.35069,73.381,73.47583,73.59523,73.6811,73.6305,73.4654,73.40311,73.42225,73.42838,73.35501,73.17163,72.99905,72.95171,72.89574,72.79904,72.63975,72.43734,72.32751,72.14281,71.84083,71.40435,70.87176,70.45356,69.96641,69.35135,68.60975,67.97006,67.38152,66.84943,66.21485,65.51069,64.86698,64.40239,64.03773,63.63466,63.2493,62.87786,62.51705,62.2357,61.86264,61.41543,60.8461,60.34237,59.86739,59.34371,58.70434,58.0902,57.53373,57.10461,56.68154,56.18682,55.63216,55.26786,55.08221,54.76265,54.27693,53.77832,53.35874,53.08559,52.83222,52.43752,51.90991,51.16988,50.35716,49.44837,48.49075,47.65847,46.94906,46.494,46.22352,45.95662,45.78529,45.80091,45.99042,46.17095,46.27944,46.2281,46.06534,45.86663,45.62971,45.19874,44.68512,44.11467,43.5936,43.14324,42.49585,41.82517,41.15611,40.59598,39.99458,39.30148,38.46115,37.5888,36.85572,36.20715,35.40639,34.5094,33.64313,32.75284,31.92893,30.99746,30.07856,29.19956,28.40842,27.66704,26.9022,26.07474,25.37242,24.71563,24.04498,23.37106,22.65931,21.86681,21.22772,20.71138,20.12607,19.52519,18.86922,18.30887,17.89233,17.44273,16.92564,16.36722,15.85489,15.49369,15.19377,14.8111,14.53232,14.35004,14.17746,14.04947,13.9567,13.86657,13.75637,13.61808,13.44913,13.37934,13.27128,13.27999,13.33906,13.38921,13.4512,13.45872,13.47976,13.5772,13.65284,13.58818,13.55846,13.70857,13.86063,13.97211,14.00753,14.04713,14.08265,14.17957,14.26187,14.25143,14.12802,14.06684,13.89708,13.65932,13.34646,13.076,12.76105,12.48438,12.19524,11.85353,11.369,10.87262,10.30716,9.597198,8.622695,7.492915,6.553592,5.740299,5.051746,4.428975,3.849425,3.422517,3.102938,2.826013,2.502608,2.064388,1.53339,1.12211,0.6624461,0.04885664,-0.6704075,-1.360015,-1.897167,-2.453766,-3.022669,-3.639512,-4.240935,-4.795666,-5.392189,-5.978942,-6.600677,-7.190966,-7.699788,-8.253842,-8.89402,-9.577152,-10.16432,-10.73216,-11.2607,-11.77699,-12.40352,-13.12908,-13.68293,-14.14393,-14.66579,-15.35593,-16.06203,-16.67773,-17.05297,-17.43962,-17.88785,-18.47684,-18.92033,-19.30795,-19.8037,-20.38037,-20.86195,-21.26531,-21.6069,-21.91329,-22.2875,-22.62618,-22.84473,-23.02845,-23.27244,-23.63572,-23.92646,-24.00141,-23.83035,-23.75301,-23.74557,-23.91776,-24.01117,-23.87386,-23.78582,-23.82171,-23.82441,-23.72746,-23.53578,-23.20672,-22.95316,-22.67931,-22.37996,-22.06001,-21.73087,-21.58495,-21.49945,-21.33158,-21.05019,-20.64258,-20.2316,-19.96997,-19.7878,-19.46062,-19.10222,-18.80601,-18.52838,-18.25355,-17.90846,-17.54489,-17.37789,-17.21378,-16.99999,-16.61979,-16.14725,-15.6731,-15.3252,-14.98423,-14.64415,-14.29307,-13.98446,-13.68744,-13.38225,-13.13496,-13.04206,-12.96915,-12.90825,-12.85719,-12.64781,-12.33383,-12.17343,-12.13589,-12.0447,-11.86967,-11.71144,-11.66819,-11.72068,-11.75204,-11.78071,-11.7014,-11.54707,-11.51286,-11.57969,-11.50205,-11.3851,-11.32037,-11.40376,-11.42866,-11.3459,-11.06839,-10.77761,-10.70381,-10.78043,-10.7087,-10.39352,-10.06722,-9.806297,-9.583718,-9.286769,-9.061061,-8.832023,-8.586582,-8.340637,-8.073176,-7.798663,-7.532336,-7.29901,-7.105468,-6.828409,-6.468153,-6.159106,-6.007513,-5.747114,-5.537906,-5.198236,-4.826217,-4.584844,-4.371859,-4.243999,-3.989994,-3.742928,-3.625621,-3.52212,-3.371921,-3.128566,-2.846194,-2.588805,-2.38303,-2.194423,-2.080393,-1.898775,-1.80983,-1.676693,-1.510855,-1.210158,-0.6822729,-0.2932121,-0.03883333,0.2187785,0.7171512,1.117007,1.31534,1.014629,0.5982303,0.3030055,0.1436268,0.207464,0.4824347,1.00214,1.846675,2.896658,3.897648,4.768312,5.522403,6.108651,6.710923,7.132205,7.303266,7.519238,7.812573,8.205816,8.602083,8.755909,8.748381,8.779831,8.801446,8.652689,8.440634,8.242391,8.052802,7.921211,7.64885,7.17506,6.609407,6.160539,5.874762,5.565788,5.052662,4.390211,3.698956,3.131068,2.647337,2.039166,1.501523,1.01042,0.6037911,0.1146499,-0.511327,-1.009457,-1.441874,-1.732479,-2.110799,-2.593787,-2.812568,-3.034508,-3.206979,-3.406299,-3.755084,-4.115533,-4.22332,-4.276487,-4.384939,-4.393866,-4.143662,-3.979048,-3.859167,-3.62389,-3.413976,-3.239104,-2.917209,-2.429994,-2.035448,-1.807709,-1.641929,-1.38563,-0.9728652,-0.3930873,0.123177,0.6989737,1.437903,2.147854,2.848741,3.591948,4.183364,4.796732,5.465181,6.026397,6.565868,6.951808,7.459423,7.97438,8.472384,8.911425,9.254784,9.70558,10.13778,10.62043,10.92329,10.99885,11.04817,11.1861,11.25168,11.20845,10.97806,10.80524,10.63069,10.35537,9.860931,9.263516,8.46783,7.567736,6.728319,5.757863,4.939439,4.38951,4.168343,4.255069,4.490064,4.635489,4.734228,4.870686,4.841954,4.581879,4.171931,3.703095,3.415707,3.308461,3.331101,3.443694,3.358946,3.294509,3.340069,3.32512,3.265907,3.184075,3.17655,3.322022,3.428567,3.25631,2.882054,2.531273,2.29927,2.192513,2.191892,1.998354,1.738668,1.637879,1.466193,1.109246,0.7530704,0.4830682,0.3525361,0.349502,0.3740829,0.07444364,-0.3075365,-0.5849119,-0.7628707,-0.8500326,-1.086969,-1.397284,-1.603059,-1.714929,-1.720121,-1.902894,-2.043785,-2.11283,-2.272915,-2.337894,-2.55563,-2.929737,-3.13136,-3.189733,-3.3096,-3.668159,-3.999794,-4.152995,-4.283592,-4.481042,-4.820523,-5.27586,-5.594848,-5.749402,-5.935787,-6.147351,-6.244044,-6.277715,-6.333128,-6.404297,-6.629615,-6.89711,-7.035395,-7.032872,-7.116456,-7.232913,-7.399056,-7.458375,-7.33398,-7.267985,-7.333295,-7.464024,-7.399212,-7.178186,-6.880675,-6.771344,-6.785594,-6.82786,-6.836082,-6.706515,-6.601148,-6.539141,-6.398324,-6.125067,-5.802404,-5.575689,-5.521354,-5.433127,-5.319175,-4.989276,-4.878816,-4.767794,-4.599864,-4.4244,-4.303349,-4.127941,-3.993016,-3.796128,-3.589634,-3.468437,-3.374155,-3.314165,-3.237018,-3.063764,-2.777989,-2.612653,-2.458252,-2.186092,-1.882439,-1.63283,-1.590695,-1.428907,-1.212862,-0.9733043,-0.6546607,-0.4121087,-0.2532414,-0.2299971,-0.2492433,-0.2148989,-0.06605039,0.0468146,0.2575919,0.5802578,0.8994863,0.901188,0.9432796,1.035401,1.101583,1.181044,1.256674,1.420167,1.717688,1.996703,2.168507,2.064378,2.018623,1.95946,2.121971,2.465869,2.641597,2.635337,2.752227,3.076496,3.501107,3.719129,3.842643,3.880004,4.008793,4.34247,4.5266,4.712519,4.950372,5.234245,5.50513,5.772576,5.899701,6.157798,6.674243,7.185876,7.661348,8.002813,8.266706,8.552514,8.99283,9.316965,9.465501,9.552957,9.831399,10.23052,10.474,10.71482,10.80162,10.93258,11.04358,11.23224,11.30996,11.41233,11.51735,11.70292,11.81773,11.73705,11.59149,11.61417,11.70763,11.762,11.77399,11.68929,11.86044,12.1707,12.32108,12.3147,12.32141,12.14321,11.92985,11.68087,11.55773,11.65552,12.06432,12.66464,13.17398,13.71565,14.15153,14.40509,14.67753,14.83771,14.75073,14.58898,14.34448,14.15484,13.83301,13.5159,12.93205,12.31545,11.80114,11.16259,10.40021,9.56826,8.693754,7.775659,6.991881,6.078176,4.908287,3.872311,2.803338,1.727153,0.5367176,-0.7254508,-1.986681,-2.953713,-3.879452,-4.88638,-5.921228,-6.874465,-7.741011,-8.619533,-9.475257,-10.45542,-11.36544,-12.0908,-12.70305,-13.16177,-13.68353,-14.32678,-14.90078,-15.25825,-15.50506,-15.83146,-16.04861,-16.181,-16.28665,-16.31676,-16.28614,-16.1571,-15.94838,-15.75379,-15.30627,-15.06149,-14.62951,-14.05466,-13.44651,-12.7125,-12.0715,-11.37145,-10.7719,-9.99104,-9.061929,-8.18018,-7.366542,-6.747804,-5.943941,-4.941987,-4.027119,-3.349327,-2.671109,-1.939582,-1.19885,-0.4289062,0.2588423,0.7208458,1.107683,1.627618,1.868623,2.190922,2.491875,2.866033,3.210906,3.330159,3.146777,2.939413,2.712699,2.542694,2.31882,2.148758,1.711361,1.333595,0.7873965,0.1616722,-0.5050672,-1.255732,-2.078455,-2.985974,-3.9361,-4.992786,-5.832776,-6.326616,-6.565251,-6.66996,-6.91359,-7.273325,-7.716362,-8.123719,-8.652234,-9.337614,-9.971861,-10.63119,-11.14748,-11.50363,-12.04077,-12.68352,-13.27135,-13.64778,-14.15492,-14.52614,-14.80504,-15.12757,-15.27605,-15.46033,-15.74666,-16.05145,-16.17483,-16.42404,-16.66505,-16.77577,-17.10744,-17.23774,-17.18688,-17.14674,-17.35083,-17.5442,-17.7978,-17.97767,-18.20787,-18.4051,-18.73207,-19.05513,-19.21189,-19.29648,-19.34228,-19.46323,-19.65989,-19.59434,-19.4805,-19.50721,-19.41252,-19.17932,-18.84941,-18.38347,-18.15774,-16.96501,-15.77125,-15.63287,-16.0965,-15.58434,-13.76412,-11.86117,-11.11961,-11.2939,-10.48883,-8.407396,-6.245688,-5.237698,-5.137803,-4.520092,-2.556459,-0.1942179,0.9596906,1.078137,1.816224,3.926462,6.342964,7.458575,7.213567,7.459859,9.282492,11.48621,12.56562,12.55944,12.9175,14.55793,16.87217,18.09898,17.95808,18.24307,19.83085,22.10268,23.34722,23.20641,23.35627,25.0086,27.29962,28.54868,28.22189,28.05848,29.35502,31.51129,32.42868,31.96105,31.43073,32.11052,33.44105,33.69918,32.54374,31.26361,31.22505,32.17015,32.16707,30.55071,28.45822,27.59848,27.57893,27.05768,24.93432,22.36202,21.00566,20.75852,19.97651,17.67819,14.79136,13.06759,12.60127,11.86703,9.732069,7.118302,5.670997,5.381054,4.932947,2.94917,0.3186632,-1.246717,-1.269744,-1.297044,-2.824778,-5.010716,-6.275344,-6.084617,-5.974923,-7.310864,-9.474119,-10.72528,-10.32717,-9.851341,-10.85356,-12.64394,-13.57972,-13.12942,-12.3412,-12.98436,-14.59396,-15.45882,-14.84042,-13.58365,-13.72344,-14.9145,-15.15187,-13.90583,-12.30455,-12.00145,-12.35953,-12.30998,-11.78636,-10.9422,-9.80686,-8.492122,-7.669866,-7.226066,-6.641125,-5.507454,-3.972486,-2.911952,-2.264069,-1.550955,-0.4534874,0.3463104,2.628549,4.317,4.142917,3.247314,3.578775,5.698623,7.432346,6.984427,6.827133,7.933461,8.295329,8.377455,7.855732,8.001516,9.060612,9.900659,10.25181,8.484791,6.991645,7.474436,9.825455,12.32158,13.95696,14.12221,13.99258,14.67604,16.20997,16.27497,16.17673,17.76329,20.20549,21.11885,19.87906,18.70525,19.33119,21.22073,21.85923,20.44042,18.70687,18.25322,18.50431,19.65863,19.31567,18.20796,16.4479,16.66958,15.85571,15.20981,13.40095,11.61633,11.61673,12.56691,12.4562,10.44032,8.181294,7.716534,8.796185,9.105981,7.413529,5.257157,4.662648,5.516603,5.878643,4.287572,2.220862,1.685356,2.959821,3.424484,1.86439,-0.4690154,-1.244024,-0.3273207,0.1351052,-1.25106,-3.576934,-4.570017,-3.827239,-3.450101,-5.101233,-7.618469,-8.931989,-8.533169,-8.275318,-10.07055,-12.93333,-14.56759,-14.28511,-13.79361,-15.45052,-18.19295,-19.69136,-19.6023,-19.27213,-20.61494,-23.21994,-25.31573,-25.04218,-24.15428,-24.83987,-27.25722,-29.33728,-29.01156,-27.62639,-27.91137,-30.16937,-32.29931,-32.01796,-30.56843,-30.50523,-32.31922,-33.53051,-34.40069,-34.60457,-34.47082,-34.6731,-35.27114,-35.97655,-36.34344,-36.0062,-37.45234,-39.83392,-39.73798,-38.43807,-37.30417,-38.28555,-40.13922,-40.19831,-38.66887,-35.66036,-33.44356,-32.2298,-30.98088,-29.14306,-27.93094,-27.12294,-25.87747,-23.53534,-20.7096,-17.32425,-15.15295,-14.78668,-14.19519,-11.54752,-7.649764,-5.062227,-4.561209,-4.250984,-1.887302,1.766783,4.404401,5.452387,7.184639,9.071373,11.22279,12.11551,13.20032,13.61105,16.39055,18.62063,20.01278,21.10163,21.91014,22.87216,24.09571,25.29116,26.36748,27.27786,27.98835,28.77452,29.55401,30.19253,30.82546,31.28382,30.43616,30.16194,30.87803,32.53265,32.80766,31.92767,32.18452,34.00926,33.99619,34.2646,33.86477,33.61066,34.00251,34.41665,33.28415,31.67509,29.34611,28.7289,29.52921,29.21468,27.11398,24.25165,23.44081,23.34949,21.97078,20.17406,18.93029,18.09223,17.46438,16.30333,14.3698,13.06938,13.5379,13.10245,11.82936,10.16363,9.504464,9.115515,9.464637,8.970604,7.176473,5.632692,6.670733,7.049051,7.12023,6.039831,3.484176,3.482129,4.533698,2.659342,0.7058147,-0.4171671,-0.8711914,-0.1013434,-0.05097527,-2.483599,-3.657628,-4.016002,-3.572182,-3.681936,-5.617466,-6.81971,-6.546462,-6.768555,-6.705496,-7.499094,-9.04776,-9.918269,-10.41592,-11.37082,-12.33996,-12.91282,-13.02767,-13.24572,-13.89002,-14.85054,-15.29314,-15.05497,-15.415,-14.56476,-14.59843,-16.34259,-17.36026,-15.67395,-14.86212,-15.81622,-16.60216,-15.86531,-14.03511,-13.45032,-14.51406,-15.4806,-15.52444,-14.47033,-12.61527,-11.35826,-11.62451,-12.43689,-12.29187,-10.84152,-9.258825,-9.228025,-9.71642,-9.868898,-8.299374,-8.229466,-9.477089,-9.637546,-7.890884,-7.39882,-7.044889,-6.893615,-5.053153,-3.6128,-2.376977,-1.713691,-1.414256,-1.561067,-0.9695575,0.4815886,0.5379032,1.250708,1.84479,1.462302,1.180741,1.507319,0.4583382,0.509744,0.9515517,1.233201,0.8881356,0.2441074,-0.2244029,-1.014105,-0.857202,0.4161004,0.06834987,-1.372198,-1.026436,-1.784822,-2.324547,-1.76956,-1.265261,-2.657159,-2.44433,-1.87619,-2.687777,-2.945751,-3.521513,-2.820436,-2.36517,-2.867301,-3.259773,-4.50964,-3.640582,-3.094092,-3.583203,-3.793095,-5.244261,-5.996039,-4.838133,-3.72558,-3.421114,-2.299878,-2.077599,-3.132517,-2.801935,-3.22891,-2.180607,-0.7955157,-0.7308851,-0.7335487,-0.8319233,-0.5698188,1.14349,1.038734,-0.4448096,-1.059971,-0.1707424,1.542233,2.733859,2.170585,1.050103,1.324709,2.941552,4.146595,3.666627,2.643945,2.669044,4.718015,4.058758,2.892532,3.794986,4.914062,3.765133,3.049501,4.175088,5.405085,4.924222,2.862035,3.389415,4.436762,3.675289,3.276733,4.562139,5.508266,3.530836,2.610337,3.925415,5.477978,5.032801,4.127836,2.435907,1.311169,2.803375,2.402336,1.843314,2.176961,2.880537,1.232769,1.935411,2.45494,3.565493,2.264771,1.099041,0.2611737,0.9647676,2.382187,2.682675,2.547965,2.770315,2.986203,2.823398,1.007598,1.138872,1.400311,0.4262493,0.003462796,1.541656,1.919159,0.3418564,-0.9893768,-0.5756765,-0.1544488,1.851379,2.568132,2.090105,1.149128,0.658784,-0.1907216,1.756199,3.872791,3.886639,2.0367,2.612413,2.385404,1.328151,3.214576,3.054775,3.34242,1.571305,0.3430368,1.192519,1.807243,3.208606,2.491707,0.5692942,0.1815234,1.706237,3.154829,1.824042,1.947466,2.90323,3.494551,2.109614,1.615758,1.984025,2.901406,2.82787,2.818159,2.012437,1.560863,1.896306,3.104527,3.010058,1.363139,0.1462483,0.4737709,1.730153,1.947725,0.5910397,-0.8295245,0.7646823,2.752622,1.395748,1.050813,0.8336071,1.72815,3.953287,3.864026,3.110014,2.962629,4.58404,4.209339,3.084485,4.385844,5.251592,4.724493,3.824271,4.246878,5.565268,4.166595,2.417451,3.118974,5.100456,5.237926,2.694537,2.474043,2.664316,2.282758,2.10638,1.254488,0.3718002,-0.1757422,-0.1660186,-0.7598243,-0.4692679,0.06899291,-0.6813257,-2.671213,-2.64996,-2.153598,-1.955778,-2.846471,-3.059466,-3.404404,-2.011204,-3.582636,-4.840204,-4.769804,-5.950354,-5.178123,-4.736505,-5.40287,-5.26824,-6.871724,-8.264231,-7.486648,-5.834634,-6.55078,-7.86112,-8.009113,-6.849669,-6.254731,-5.728763,-6.862324,-6.940225,-8.227635,-7.431537,-5.307286,-4.435936,-5.774693,-7.323166,-7.697266,-6.396691,-5.786551,-5.154933,-4.740489,-5.808134,-5.304963,-4.116001,-2.799697,-2.519678,-2.939607,-1.21123,-1.390493,-0.8414748,1.629719,3.414207,3.488439,2.326609,4.656546,6.205068,5.569077,4.408051,5.358958,5.453209,6.93612,6.784533,7.859276,7.504397,6.085342,5.57455,6.62136,5.204476,3.415884,3.399375,4.908603,4.740728,4.273317,3.786874,3.412829,3.58537,2.532325,1.905604,3.98498,3.434247,2.491071,2.257876,1.747158,2.637213,2.611518,3.383054,0.7960808,0.3094408,0.6324704,-0.3775673,0.3487403,0.6234569,0.6136921,0.2571504,-1.448871,-1.160689,0.9622109,1.733602,-0.2816931,-2.371469,-1.563035,0.6018002,0.3569462,-0.1239525,-0.3579599,-0.577282,-0.5908509,-0.5375893,0.2293868,-0.01333709,-0.967518,-0.5750058,-0.2641624,0.3826997,1.886992,2.779724,1.89744,0.6787042,-0.2741674,1.100169,0.2686965,0.7543149,1.342614,1.547272,3.346344,2.384036,1.331031,1.320157,2.352838,3.856236,3.390868,3.277878,1.910084,1.380565,1.296811,2.325998,2.956983,2.447701,1.516108,0.2619356,-1.118998,-0.1267736,0.1035248,-1.835121,-4.142384,-3.256763,-2.926655,-2.460401,-3.193053,-4.381562,-6.290657,-6.358386,-4.701741,-4.566731,-6.59552,-7.336805,-7.775784,-6.233405,-5.983774,-5.868631,-6.126409,-7.597491,-8.756237,-7.992693,-7.809313,-8.834962,-8.484226,-8.30982,-7.567358,-6.506198,-4.851464,-5.225833,-5.779219,-6.748136,-6.39314,-4.145956,-3.848422,-3.882437,-2.094661,-1.690557,-0.9175394,-0.6035675,0.9492377,0.7741839,0.4301179,-0.05818973,1.017709,2.877647,2.864748,0.9243241,0.01012951,1.750871,4.113532,4.226392,1.992746,0.6175516,0.5693854,3.121975,3.625189,2.989547,2.543668,2.572417,4.427747,5.21741,3.455695,3.062296,3.808691,3.649926,3.035487,2.596159,2.163533,2.559815,2.662409,3.3687,2.646161,0.6372964,1.706596,2.867419,4.043563,3.190592,2.531426,3.394356,3.957337,4.704699,4.660165,3.19279,1.944347,2.129099,3.16413,3.185749,1.8397,1.578126,2.751512,3.477157,3.377936,1.253875,0.9572364,2.83026,2.202632,0.5190487,0.3252942,2.379949,1.009011,0.4902738,-0.3655716,0.881548,2.378848,1.861668,-0.4826776,-2.062239,-0.0707826,0.07466029,-0.4652628,-0.5027735,-1.815167,-0.1489163,-1.244567,-2.053379,-2.560372,-1.361007,-2.366044,-1.421975,0.2758247,-0.5360461,-2.865171,-3.641002,-3.250613,-1.304258,-2.134861,-4.632424,-6.308974,-5.567761,-3.522665,-2.954102,-5.373078,-5.694768,-4.54167,-3.938739,-2.973991,-3.077655,-4.013563,-4.394991,-3.594406,-2.169397,-1.726845,-2.481773,-2.801562,-0.4115283,0.8356354,-0.5043592,-0.1589791,0.4722343,1.427617,1.814503,1.581686,0.1870868,0.8717748,2.483359,2.668938,1.95528,1.856794,3.106295,4.239896,4.060913,2.99616,3.03847,4.303404,5.420645,5.149596,3.857433,3.371479,4.132597,4.938368,4.422297,2.837471,2.047443,2.874502,3.462758,3.222538,1.72705,0.651256,1.526471,2.782289,2.727031,1.895558,1.363192,2.066784,3.100701,3.294167,2.241269,1.608828,2.261652,3.155135,2.983811,2.002549,1.272167,1.916756,3.057383,3.440423,2.092806,1.016657,1.499786,2.757619,3.143325,1.919622,0.449872,0.5688544,1.873593,1.953613,2.427798,1.82578,0.2958246,-0.3015445,1.411502,2.077897,1.702033,0.6967172,-0.241854,0.0428638,0.6468771,0.9066509,-0.9252576,0.1939907,1.774748,1.004757,0.7955907,-0.799744,-0.2403402,1.937569,2.52847,0.3250356,-0.04706174,0.2574534,0.41965,0.3274724,0.03942001,0.1264504,0.08707017,-0.1861585,-0.07118749,0.04309098,0.004777772,-0.2046595,-0.1301587,-0.3160512,-0.3374681,-0.5506054,-0.6443152,-0.677251,-0.7877469,-0.7781092,-1.067607,-1.135849,-1.296694,-1.389216,-1.514679,-1.533974,-1.838536,-1.845622,-1.964691,-1.963725,-2.215795,-2.433734,-2.4921,-2.61806,-2.664257,-2.806266,-2.887459,-2.815903,-2.75313,-2.753549,-2.918526,-2.893737,-2.855531,-2.921335,-3.032892,-3.242891,-3.362641,-3.498607,-3.481132,-3.465847,-3.677667,-3.818503,-3.752554,-3.657913,-3.515532,-3.425832,-3.467821,-3.377762,-3.360992,-3.208995,-3.029921,-2.893076,-2.75927,-2.634778,-2.41515,-2.245149,-2.053083,-1.918389,-1.742722,-1.80485,-1.706632,-1.657716,-1.530023,-1.314804,-1.0661,-1.064402,-1.133632,-1.19105,-1.163696,-0.8545575,-0.7216653,-0.7463908,-0.7563154,-0.777678,-0.6891449,-0.79909,-0.7974808,-0.7807928,-0.6181868,-0.6240205,-0.5244226,-0.4054128,-0.6185656,-0.6194288,-0.6090582,-0.5955862,-0.7283291,-0.7677523,-0.7782581,-0.7994965,-0.6485908,-0.6867995,-0.8559398,-1.143235,-1.426584,-1.55157,-1.661769,-1.70094,-1.99735,-2.239452,-2.096083,-2.352671,-2.682968,-2.946994,-3.037449,-2.992474,-3.298243,-3.651605,-3.564746,-3.519681,-3.692368,-4.013654,-4.004037,-4.163318,-4.011936,-4.098142,-4.160749,-4.271314,-4.171097,-4.108037,-4.080166,-3.991007,-3.952046,-3.94752,-3.999531,-4.0101,-3.871854,-3.563729,-3.610589,-3.494772,-3.298933,-3.180969,-3.03285,-3.06762,-2.789446,-2.73245,-2.353705,-2.2865,-2.427002,-2.242055,-1.989905,-1.8955,-1.87152,-2.09063,-2.018095,-1.852818,-1.852328,-2.063037,-2.157749,-2.248049,-2.136081,-2.047878,-1.940631,-1.630008,-1.115615,-0.6639151,-0.2503137,-0.0006005825,0.1301821,0.488816,0.9865412,1.249313,1.205412,1.160973,1.389399,1.4876,1.429601,1.291056,1.111138,0.864806,0.8654677,0.6108416,0.370337,0.1261211,-0.08020139,-0.3970892,-0.6460813,-0.7725749,-1.053577,-1.323795,-1.423722,-1.819334,-2.082429,-2.367705,-2.445574,-2.636041,-2.60598,-2.776622,-3.049633,-3.126431,-3.191927,-3.386226,-3.428803,-3.46672,-3.313485,-3.189364,-3.113839,-3.10847,-3.148555,-2.896093,-2.433623,-2.358634,-2.131924,-2.058073,-1.676398,-1.357041,-0.9637069,-0.6487626,-0.2935473,0.3708036,0.8630961,1.188159,1.581411,2.007895,2.753437,3.21589,3.738682,4.302892,4.875885,5.456846,5.845294,6.246387,6.983226,7.456023,8.011263,8.57364,9.170254,9.843434,10.35972,10.80356,11.55368,12.00669,12.56586,12.90048,13.5949,14.12452,14.59532,14.8883,15.19596,15.5514,15.77605,15.97688,16.2147,16.31727,16.52982,16.42981,16.31206,16.24562,16.28108,16.18055,16.06306,15.6849,15.33924,14.65702,14.46888,13.91601,13.43105,13.14173,12.94243,12.73645,12.68711,12.68164,12.77774,13.01259,13.01341,13.04894,13.32841,13.50225,13.72151,14.06341,14.09472,14.26926,14.39471,14.80369,15.18691,15.53765,15.94573,16.23174,16.71512,17.2182,17.50696,17.89073,18.03395,18.15645,18.23517,18.15652,18.0185,17.89813,17.66662,17.45323,16.99523,16.28694,14.59824,14.78627,15.69394,15.01117,12.51218,10.20878,10.01368,10.95501,9.991243,7.056206,4.465268,3.76902,3.965944,2.821656,-0.459929,-3.406886,-4.334376,-3.882547,-4.993814,-8.203557,-10.96893,-11.79344,-11.19199,-11.73961,-14.25943,-16.70493,-17.2215,-16.26222,-16.29608,-18.19767,-20.48389,-20.84164,-19.51584,-19.28171,-20.76552,-22.95658,-23.07157,-21.54045,-20.75519,-22.13686,-23.91794,-24.06692,-22.4453,-21.35719,-22.5093,-24.35018,-24.66299,-23.18387,-21.93308,-23.12343,-24.8854,-25.11424,-23.4416,-22.49143,-23.4811,-25.21343,-25.58398,-23.08643,-22.36226,-24.70315,-26.82572,-25.82916,-23.30667,-23.02802,-25.38981,-27.24261,-26.45019,-24.1027,-23.65155,-26.04463,-28.30852,-27.70683,-24.78296,-24.10173,-26.16522,-28.51962,-27.79451,-25.10976,-23.74504,-25.38351,-27.54328,-26.70215,-23.64403,-21.65435,-22.80391,-24.64976,-23.50886,-20.09121,-17.84638,-18.20565,-19.41324,-17.97123,-14.06435,-10.89172,-10.69313,-11.33944,-9.544629,-5.547212,-2.116074,-1.358182,-2.288178,-0.4449318,3.833394,7.601825,8.323868,7.738879,9.106929,13.09353,17.01139,17.83332,16.81114,19.16576,22.70033,24.80206,24.52326,24.48737,26.42163,29.21903,30.37326,29.62103,28.73518,29.62494,31.53764,32.3579,30.86639,29.33933,29.53657,30.86348,31.01812,29.32671,27.47135,26.97693,28.01259,28.05823,25.9542,23.53077,22.72579,23.62793,23.60355,21.32638,18.64835,17.68152,18.58405,18.57665,16.71445,14.16711,13.295,13.94721,14.2089,12.61608,10.18134,9.205892,10.02466,10.72501,9.203373,6.829987,5.940137,6.899001,7.813858,6.928427,4.914012,4.121012,5.120707,6.461792,5.722847,3.649808,2.689547,3.727665,3.543173,3.16441,3.178429,3.376776,3.45016,3.677148,4.01553,4.164512,4.479683,4.749742,4.800508,5.342943,5.593061,5.824542,6.080711,5.996551,6.149858,6.499583,6.812597,6.580061,6.400622,6.540965,6.574745,6.354483,6.086881,5.783637,5.560131,5.337909,5.007246,4.235358,3.525623,3.187525,2.683863,2.029854,1.297438,0.2366461,-0.4083286,-1.218952,-2.173797,-3.129591,-3.894871,-4.654868,-5.497652,-6.424639,-7.622408,-8.825713,-9.762106,-10.5575,-11.54852,-12.69348,-13.80938,-14.73054,-15.38926,-16.02991,-16.56905,-17.06296,-17.69783,-17.69703,-17.83802,-17.92678,-18.01131,-17.82651,-17.61212,-17.25824,-16.85022,-16.52411,-16.11202,-15.3645,-14.55642,-13.85511,-12.96338,-12.09554,-11.24634,-10.35037,-9.448224,-8.825607,-8.153,-7.366543,-6.564491,-5.921665,-5.693156,-5.083161,-4.480396,-4.015872,-3.708589,-3.761956,-3.607196,-3.525683,-3.657351,-4.032754,-4.325434,-4.438053,-5.105703,-5.597089,-6.303554,-7.093291,-8.010599,-8.971277,-9.878235,-11.0485,-12.01102,-13.08529,-14.3945,-15.54618,-16.97522,-18.20724,-19.90154,-21.35068,-22.17319,-23.29713,-24.33091,-25.15511,-25.95752,-26.55959,-27.31013,-28.05185,-28.95811,-29.54647,-29.76334,-30.36504,-30.919,-30.98707,-31.18476,-31.04834,-31.13001,-31.08315,-30.73448,-30.15153,-29.95473,-29.36302,-28.6036,-27.74076,-26.95941,-25.99155,-24.79548,-23.84387,-22.66905,-21.45772,-19.9111,-18.52293,-17.15672,-15.3971,-13.81551,-12.19384,-10.55917,-8.959236,-7.113886,-5.441613,-3.411186,-1.564066,-0.2798363,1.286218,2.692348,4.013403,5.455024,6.650544,7.806441,8.941276,9.9907,10.78677,11.75817,12.70693,13.60509,14.18571,14.96837,15.53456,15.8825,16.69624,17.31519,17.92054,18.31429,18.80232,19.23516,19.72591,20.32794,20.55472,20.83703,21.2881,21.84542,22.5336,22.8192,22.94286,23.30723,23.70434,24.01824,24.10431,24.07807,24.29966,24.62389,24.68163,24.90037,25.08545,25.02144,25.2196,25.10768,25.21079,24.95737,24.81485,24.47389,24.38945,24.39195,23.96006,23.4146,23.18349,22.83547,22.56595,22.1343,21.36768,21.20154,20.86139,20.66981,20.30785,19.8725,19.49404,19.39113,19.04262,18.70942,18.58473,18.37483,17.95361,17.85569,17.69542,17.52247,17.16464,16.87109,16.82446,16.41439,16.2028,16.12579,16.05204,16.0312,15.91005,15.64222,15.55174,15.33777,15.27336,15.18873,14.96839,14.64604,14.50078,14.2997,13.91217,13.57313,13.35113,12.87291,12.56338,12.25895,11.89011,11.52571,11.0997,10.87488,10.58493,10.07347,9.682597,9.543826,9.200748,8.808107,8.28958,7.815032,7.271852,6.62272,6.257054,5.556999,4.99957,4.597219,4.060751,3.394291,2.891681,2.444285,1.918952,1.429924,0.9352548,0.4019179,-0.3156715,-0.6474249,-1.156744,-1.521858,-1.951244,-2.274906,-2.64033,-3.098762,-3.340817,-3.659518,-3.991759,-4.152882,-4.586224,-4.680703,-4.821917,-4.870971,-4.889003,-5.17884,-5.306869,-5.40457,-5.700748,-5.684244,-5.924322,-5.843702,-5.877111,-6.197961,-6.160478,-6.054659,-6.177226,-6.121746,-6.418348,-6.612109,-6.436215,-6.950106,-7.093124,-7.362678,-7.339553,-7.561511,-8.001588,-8.0934,-8.4009,-8.655791,-8.808594,-9.093346,-9.461447,-9.645422,-9.799789,-9.860995,-10.06819,-10.38571,-10.56954,-10.56028,-10.91549,-11.12213,-11.42427,-11.76837,-11.9148,-11.87542,-11.84027,-11.69947,-11.30495,-10.95269,-10.66295,-10.44125,-9.825828,-9.551061,-9.216894,-8.937504,-8.378832,-7.960321,-7.715704,-7.279674,-6.836336,-6.327938,-6.031905,-6.004094,-5.800642,-5.466105,-5.310078,-5.175924,-4.984391,-5.161865,-4.771163,-4.793942,-4.786009,-4.692322,-4.48257,-4.373559,-4.534653,-4.417753,-4.297604,-4.24852,-4.317863,-4.305816,-4.433108,-4.540199,-4.603246,-4.762584,-4.903015,-4.921098,-4.942949,-5.118485,-5.448073,-5.624304,-5.691489,-5.912752,-6.27569,-6.713646,-6.835605,-7.091712,-7.372341,-7.858017,-8.224396,-8.5391,-8.609274,-8.618966,-8.840266,-9.1311,-9.114642,-9.222259,-9.341356,-9.371314,-9.411545,-9.252684,-9.151512,-9.077048,-8.884865,-9.154715,-9.066973,-8.928469,-8.648355,-8.422785,-8.374214,-8.154497,-8.016716,-7.785794,-7.175656,-6.846793,-6.645487,-6.288172,-6.103975,-5.654807,-5.400206,-5.441438,-5.002482,-4.742541,-4.333133,-4.328956,-4.101363,-3.771842,-3.461675,-3.27686,-3.180295,-3.190422,-3.070939,-2.760811,-2.594685,-2.870635,-2.946049,-2.565281,-2.645859,-2.739425,-3.116638,-3.214145,-3.141397,-2.918256,-2.917939,-2.641105,-2.3412,-1.820631,-1.605279,-1.886282,-1.611965,-1.162211,-0.8188482,-0.7315149,-0.367801,-0.05813418,0.4919965,0.5895268,0.8122938,1.395478,1.720215,1.869097,2.108397,2.544241,2.996056,3.101567,3.418996,3.623874,3.92111,3.864243,4.209222,4.218561,4.323954,4.455122,4.655516,4.728275,4.768582,5.191023,5.417836,5.293299,5.599902,5.734887,5.719284,5.864503,5.958186,6.027156,6.202565,6.425522,6.175114,6.117804,6.16589,6.106575,6.032992,6.036429,5.987447,5.791471,5.695052,5.627151,5.379227,5.237856,5.379651,5.278922,5.448248,5.401497,4.979121,4.845552,4.802617,4.687668,4.41385,4.310815,4.105477,3.91239,3.598753,3.449868,3.343923,3.045256,2.972075,2.866354,2.845774,2.338889,2.122475,2.211532,2.283425,2.161561,2.10515,2.137932,1.950388,1.871476,1.629761,1.715641,1.617509,1.483159,1.589665,1.553651,1.571668,1.384851,1.527726,1.44218,1.560698,1.307751,1.638649,1.53639,1.575285,1.733114,1.686966,1.661759,1.829459,1.990302,1.542146,1.519335,1.721069,1.710129,1.671324,1.563772,1.629299,1.886424,1.906291,1.953634,1.78585,1.935921,2.28045,2.590023,2.685815,2.762343,2.972738,3.006159,3.100687,3.197563,3.595469,3.827311,3.98385,4.236418,4.402889,4.596549,4.742989,4.999185,5.223776,5.204719,5.533801,5.378406,5.64808,5.860816,6.015782,6.011645,6.269737,6.148112,6.308144,6.340633,5.998136,6.098985,6.558889,6.332616,6.092241,6.224971,6.203429,6.08848,6.080702,5.968494,5.524428,5.366859,5.221348,4.952375,4.645233,4.138615,3.859605,3.505329,3.420495,3.000197,2.498544,2.273684,2.161879,1.80753,1.613395,1.070011,0.7048325,1.02397,0.6710962,0.2045328,-0.2589036,-0.3653003,-0.5198425,-0.6487303,-1.049108,-1.333912,-1.631557,-1.949283,-2.194349,-2.352361,-2.834369,-3.035,-2.964027,-2.828268,-3.195129,-3.513516,-3.641245,-3.781473,-3.833835,-3.88367,-4.145883,-5.246717,-4.537132,-2.677352,-2.455911,-4.201801,-5.311476,-4.412633,-2.679582,-2.303274,-3.889282,-5.233318,-4.259633,-2.65688,-2.023702,-3.284675,-4.77037,-4.218915,-2.262641,-1.50962,-3.205002,-4.470901,-3.908979,-2.327642,-1.701868,-3.069501,-4.465359,-4.054521,-2.077845,-0.9643392,-1.973263,-3.140546,-2.632674,-0.4984245,0.5168023,-0.5730859,-2.082842,-1.884859,1.52274,1.829269,-0.9104564,-2.295017,-0.5994061,1.87629,1.504327,-0.9464844,-2.299165,-0.6989266,1.463353,1.231644,-1.206964,-3.038493,-1.330857,0.9435274,0.7293814,-2.044538,-3.76776,-2.774957,-0.3781591,-0.3342345,-2.824392,-4.590801,-3.707245,-1.474385,-1.461125,-3.91842,-6.044019,-5.179846,-2.833216,-2.629011,-5.458346,-7.690382,-6.883565,-4.651072,-4.310761,-6.704715,-8.712511,-8.379663,-5.820759,-5.396411,-7.234208,-9.287898,-8.634665,-6.265446,-5.153261,-6.792087,-8.753373,-8.186867,-5.693063,-4.296678,-5.639158,-7.687028,-7.368746,-4.671171,-3.148504,-4.176376,-6.309494,-6.153004,-3.149486,-1.070905,-2.344571,-4.089177,-3.918218,-1.409218,0.6680788,-0.2898203,-2.46163,-2.447598,0.3373814,2.452761,1.398956,-0.4996028,1.009296,3.153036,3.587252,2.066552,1.208916,2.256671,4.16014,4.862914,3.288873,2.007015,3.162138,5.152483,5.665384,4.080873,2.479039,3.15084,4.855696,5.278253,3.528106,1.532483,1.852918,3.652696,4.051675,2.708893,1.042675,1.43429,3.213978,3.867528,2.589449,0.833416,0.8311718,2.557405,3.55651,2.284728,0.5583806,0.7214162,2.509674,1.670246,1.059436,0.9656807,1.352607,1.524114,1.352027,1.024521,1.171909,1.185649,1.163541,1.088087,1.186101,1.029664,1.517443,1.192194,1.275217,1.358858,1.403722,1.325908,1.499828,1.307095,1.269703,1.338295,1.329533,1.592793,1.404139,1.554562,1.680979,1.514173,1.336702,1.308652,1.155589,1.364464,1.375671,1.452414,2.27406,0.5019553,-0.2103458,1.159296,2.728907,2.095839,0.4524759,-0.184338,1.23708,2.662262,2.167228,0.430788,-0.2823326,1.249566,2.791296,2.164505,0.5073372,-0.5056198,0.80834,2.379139,1.958357,0.2733519,-0.6948616,0.6280022,2.290092,2.00742,-0.01259394,-0.6575285,0.3252445,1.934931,1.850115,0.1219262,-1.086705,-0.2180912,1.511101,1.495568,-0.4033265,-1.463359,-0.844598,0.6758609,0.9197495,-0.7537319,-2.068215,-1.369317,0.395691,0.886285,-0.8182636,-2.043707,-1.092201,0.5314658,0.8714602,-0.5495591,-1.988345,-1.553017,0.3836013,1.059097,-0.575004,-2.205969,-1.405122,0.4760359,0.8976561,-0.2012731,-1.852633,-1.816802,0.2674223,1.051243,-0.08827078,-1.898541,-1.499402,0.4565072,1.433441,0.1701616,-1.497515,-1.410249,0.3945229,1.613716,0.7208737,-1.048855,-1.021894,0.5566816,1.611734,0.5681367,-1.127173,-1.30636,0.5083728,1.506109,0.6660054,-1.000014,-1.129642,0.08969919,1.653133,0.7722453,-1.643646,-2.096688,-0.6422535,0.6848632,0.5585091,-1.49282,-2.305879,-0.8247728,0.376718,-0.3171849,-2.164121,-3.074672,-1.552537,-0.09192238,-0.4007105,-2.053826,-2.870943,-1.48388,-0.09029421,-1.270013,-1.471317,-1.027497,-0.7661658,-0.7704637,-0.776204,-0.8588597,-0.6240267,-0.4106955,-0.2630783,-0.1784604,-0.2481134,-0.03064665,0.1403328,0.3690144,0.3257947,-0.01390576,0.2332905,0.5282698,0.8467699,0.765762,0.8399524,0.8694829,0.9307338,1.326671,1.309063,1.542939,1.612988,1.714125,1.846564,2.15305,1.774178,1.649957,2.049362,2.262533,2.106289,2.003887,1.661691,2.049933,2.077817,2.122298,2.081309,1.847478,1.994174,2.153524,1.892569,1.624795,1.306966,1.378139,1.265758,1.279327,0.6902655,0.3608846,0.307126,-0.03115427,-0.2631492,-0.6154558,-0.8820657,-0.8864562,-0.7431272,-0.4627678,-0.7139885,-0.5190787,-0.0768701,0.3125582,0.7821807,0.7643354,1.047528,1.470138,1.779751,2.063309,2.065663,2.165858,2.506643,2.768138,2.66021,2.632721,2.338695,2.423986,2.601366,2.691022,2.420189,2.182084,2.198956,2.03303,2.07516,1.79234,1.264434,1.066569,0.7523276,0.2887131,-0.2838063,-0.5902402,-1.01304,-0.9430473,-1.379031,-2.239167,-2.768433,-3.045945,-3.164041,-3.526868,-3.857895,-4.486293,-4.573054,-4.907403,-4.948602,-5.347805,-5.779878,-5.814546,-5.776794,-5.592322,-6.200527,-6.376803,-6.387813,-6.448257,-6.293271,-6.540456,-6.472541,-6.42264,-6.106799,-5.78146,-5.711943,-5.481635,-5.242128,-4.870171,-4.458254,-4.203196,-4.181681,-3.684699,-3.174301,-2.892904,-2.476484,-2.171915,-1.813349,-1.077787,-0.3146102,0.05515385,0.1657991,0.5266179,1.347837,1.908648,1.979564,2.431452,2.957371,3.559041,4.010875,4.395789,4.379636,4.895796,5.253047,5.633829,5.492,5.209985,5.37392,5.377967,5.359819,5.235552,4.792287,4.582184,4.202372,3.94732,3.165896,2.63881,2.373944,1.792793,1.545309,1.201609,0.6012089,0.5231533,0.6344626,0.5403818,0.4930677,0.2071524,-0.1846482,0.1375834,0.07874803,-0.1881871,-0.1240417,-0.4067764,-0.5127505,-0.5099247,-0.4083537,-0.4867629,-0.8201791,-0.7714146,-0.6531207,-0.4272835,-0.7781089,-0.8511013,-0.603005,-0.2187121,-0.199785,-0.3075278,-0.03292801,0.06071892,0.1994236,0.3874436,0.2986322,0.2512005,0.2069791,0.4905712,0.5855564,0.3028449,0.6028469,0.5498202,0.642951,0.8925437,0.7752333,0.609978,0.6524766,0.5178574,0.6562337,0.5720591,0.2914924,0.1550856,0.4015724,0.5831804,0.4492664,0.3285804,0.1863317,0.1191007,0.1499142,0.2014592,-0.3069028,-0.6433776,-0.3311834,-0.2054698,-0.2772429,-0.2827554,-0.5411641,-0.3292632,-0.07881408,-0.2187509,-0.4295721,-0.5976745,-0.2339968,-0.5635726,-0.6755109,-0.5320459,-0.6130776,-0.7429536,-0.686773,-0.4784727,-0.7069816,-0.7136391,-0.7166171,-0.7148522,-0.600465,-0.6929805,-0.5942206,-0.8777627,-0.5952825,-0.29918,-0.4004908,-0.4004071,-0.2758612,-0.2574679,-0.4517637,-0.385142,-0.5582611,-0.5950022,-0.1892514,-0.3651216,-0.4287298,-0.390656,-0.1909081,0.04646853,-0.06677587,-0.02236011,0.04008275,0.1622269,0.3863961,0.6069553,0.4378098,0.06326976,0.4355326,0.5959078,0.6596729,1.043558,0.6071787,0.6059005,0.7473709,0.5692337,0.5891537,0.4699706,0.4312056,0.5882241,0.6629669,0.4717529,0.3883878,0.2677877,0.5003704,0.4771034,0.2002462,0.157174,0.1627592,0.2122828,0.1713786,0.2440223,0.3360303,0.3315223,0.02184381,0.1427162,0.2056427,0.004288967,-0.1164977,-0.02394794,0.0143315,0.1305962,-0.1021808,0.05609539,0.1614996,0.1818681,0.3138532,0.2157462,0.1616124,0.2343014,0.2903231,0.1637281,0.126447,0.03924033,0.2165581,0.285337,0.1803749,0.3501626,0.2323885,0.1519935,0.3640932,0.3911075,0.2894165,0.4044122,0.5877985,0.637741,0.5430699,0.5330304,0.8525183,0.8322914,0.9767125,1.207397,0.9438288,1.236243,1.530682,1.457294,1.326644,1.258037,1.197533,1.177736,1.336776,1.217447,1.189378,0.9865245,1.103163,1.395792,1.066707,0.7950144,0.5825354,0.7272446,0.6157576,0.5624452,0.4660974,0.2241204,0.3204383,0.4252012,0.1573818,-0.2204134,-0.2108932,-0.2677191,-0.2362231,-0.2060698,-0.4487747,-0.470561,-0.5147832,-0.6468425,-0.4376405,-0.430657,-0.5900518,-0.4777664,-0.5078075,-0.2311455,-0.1837256,-0.2960101,-0.03015974,0.113082,0.2494569,0.2913036,0.2473132,0.4217386,0.6213175,0.5654205,0.2506819,0.4112032,0.4061423,0.6917995,0.8866413,0.882897,0.9338711,1.024165,0.8002754,0.8892784,0.60864,0.572951,0.6299371,0.7848603,0.8924222,1.032671,1.134035,1.365839,1.820551,2.182217,2.170764,2.098148,2.352225,2.867999,2.946847,3.136857,2.833328,3.127654,3.350932,3.367335,3.077086,3.024843,2.649356,2.348469,2.319018,2.22846,1.473005,1.231157,1.077899,0.907463,0.5631909,-0.2528481,-0.5635202,-0.9118872,-1.33773,-1.856314,-2.334327,-2.652035,-2.73938,-3.154001,-3.457164,-3.660916,-4.151777,-4.511038,-4.611487,-4.956584,-4.885331,-5.708224,-5.479429,-5.568253,-5.763891,-5.903383,-6.287047,-6.604757,-6.604966,-6.414446,-6.676861,-6.684527,-6.616684,-6.328514,-6.154177,-6.331192,-6.268331,-6.300594,-6.192032,-5.870616,-5.694512,-5.388625,-5.31948,-4.680738,-4.562349,-4.322897,-4.374136,-3.801193,-3.49279,-2.809303,-2.58999,-2.43996,-2.175878,-1.696256,-1.207458,-0.8832007,-0.8803693,-0.3489648,0.08081368,0.4148819,0.524643,0.8467918,1.148926,1.86315,1.902171,1.972756,2.307169,2.18737,2.351982,2.695079,2.737346,2.65948,2.687058,2.694888,2.861717,2.907477,2.608498,2.487324,2.396074,2.172784,1.867672,1.529124,1.116177,1.18005,1.216383,1.244177,0.8720737,0.8961492,1.042779,1.191969,1.124208,1.092791,1.263861,1.186381,1.274657,1.50507,1.420398,1.196662,1.325132,1.513627,1.171633,1.542805,1.080391,1.314038,1.316488,1.434639,1.201957,1.37291,1.686957,1.827932,1.744381,1.853532,2.02351,1.958154,2.060212,2.017131,2.151866,1.767893,1.929611,2.217557,2.294254,2.076369,1.89284,2.075073,2.032803,2.151982,1.788115,1.666083,1.638234,1.686393,1.670517,1.142632,1.397492,1.125421,1.057014,0.9924447,0.4300952,0.4598113,0.4357748,0.3126186,0.1126034,0.03838724,-0.1789944,-0.4085324,-0.4036833,-0.6090025,-0.8303439,-1.172432,-1.034402,-1.033969,-1.258611,-1.374116,-1.726839,-1.729708,-2.030348,-2.018362,-2.272543,-2.289615,-2.173119,-2.093874,-2.469674,-2.299439,-2.209087,-2.241698,-2.254021,-2.221991,-2.296542,-2.195856,-2.235452,-2.305414,-1.973697,-1.89756,-1.990363,-1.877597,-2.190579,-1.858007,-1.469412,-1.546694,-1.399552,-1.082478,-0.9803015,-0.9335827,-0.8760049,-0.935458,-0.4947795,-0.3124924,-0.3227316,0.0008297226,0.3378106,0.4050348,0.8961043,1.323138,1.162263,1.220674,1.415705,1.697336,1.738313,1.834846,1.908171,2.17556,2.456379,2.462828,2.679755,2.42097,2.787066,2.860622,2.680917,2.477922,2.834195,2.732728,2.629124,2.913729,2.629969,3.034286,2.754564,3.015507,2.9915,3.127796,2.864165,2.705663,2.757118,3.06493,2.770749,2.504454,2.620517,2.357672,2.190302,2.097919,1.962482,1.654171,1.753655,1.774364,1.782797,1.358312,1.258428,1.432411,1.335934,1.295625,1.201351,1.263676,1.371508,1.452764,1.262902,1.278189,1.352432,1.424812,1.346844,1.328764,1.031098,1.138604,1.419101,1.358358,1.071319,1.146334,1.119956,0.9590728,1.105195,1.055311,0.9325658,0.7055621,0.5813033,0.7377215,0.5650762,0.2879288,0.2237483,0.1814707,0.5875835,0.5038872,0.3719888,0.08766202,0.3937074,0.4938633,0.3262507,-0.1264539,-0.212903,-0.2178305,-0.3997272,-0.4726819,-0.9269979,-1.045642,-1.038478,-1.001009,-1.045807,-1.338614,-1.50589,-1.402193,-1.185846,-1.505302,-1.950215,-1.972908,-2.142695,-2.133813,-2.35147,-2.132873,-2.237777,-2.412322,-2.542899,-2.381958,-2.498117,-2.620066,-2.499009,-2.349518,-2.639538,-2.106787,-1.957266,-1.446205,-1.105245,-0.881977,-0.7013208,-0.4309027,-0.1671295,0.003535699,0.2180009,0.1606363,0.4525406,0.4076817,0.5563699,0.7497339,0.9741717,0.584697,0.549551,0.6368184,0.9146312,0.7381578,0.1224788,0.2635548,0.2287981,0.3921987,0.0817596,-0.08130622,-0.1438819,-0.03512135,-0.3517652,-0.5054333,-1.01495,-1.184154,-1.187732,-1.274973,-1.64218,-1.906732,-1.870739,-1.996059,-2.200775,-2.610922,-2.558297,-2.737727,-2.578462,-2.791224,-2.918845,-2.996311,-3.162419,-3.347645,-3.162876,-2.89303,-3.248406,-3.363502,-3.216552,-3.301381,-3.215193,-3.20352,-3.114127,-3.303946,-3.050526,-2.907574,-3.106093,-3.103942,-2.558226,-2.519652,-2.312345,-2.423928,-2.10067,-1.343106,-0.09128704,-0.9419405,-2.363696,-1.872357,0.1318738,1.269243,-2.361986,-0.8325205,-0.7412481,-0.2920426,0.79435,0.3781617,-0.410564,-0.5966654,0.1997748,0.8979103,0.7280275,0.2514395,-1.091963,1.217997,2.372203,0.6114947,-1.592826,-0.8455153,1.241437,1.753449,0.001307945,-1.489942,0.1770044,0.9836512,0.4928428,0.01829727,-2.383167,-3.041704,-1.683292,-0.4711869,-1.250048,-3.404707,-3.88368,-1.970361,-0.8420659,-0.8065401,-2.834402,-3.099197,-1.200941,0.3120694,-0.01289343,-1.514266,-1.946709,-0.4572213,1.425216,1.603036,-0.10286,-0.8970655,1.006884,2.89846,2.515681,0.9935109,0.383003,3.176345,4.748644,2.775516,0.9880084,1.81127,4.423869,5.632099,4.033933,1.886753,2.333683,4.866778,6.020727,4.186551,2.137977,2.549725,4.723653,6.00217,4.643377,2.231025,2.248662,4.573445,5.861379,4.513963,2.225769,1.838751,4.038446,5.53767,4.274043,1.590659,1.106281,3.117619,4.64507,3.507326,0.7904603,0.12606,1.779261,3.298005,2.304966,-0.2732963,-0.8160094,0.7688336,2.547965,1.719764,-0.6366261,-1.457745,0.3284761,2.082972,1.539587,-1.028394,-1.739348,-0.4104515,1.073191,-0.9102332,-2.855515,-2.60351,-0.8644832,-0.2639408,-2.494331,-1.390308,-3.688195,-1.738922,0.3561734,-1.005196,-3.065111,-3.460109,-1.676209,0.1851898,-0.2994507,-2.513327,-3.419316,-0.1687874,0.3731294,-1.0534,-1.840749,-0.9149734,0.2374122,0.8725397,0.2034064,-0.5108506,-0.5115969,-1.238287,0.1761359,0.1015909,-1.836506,-1.984486,-0.5160611,0.8222891,-0.1858057,-1.993556,-2.092622,-0.5581939,0.542148,0.1803608,-1.892847,-2.040306,-0.406865,0.8001313,0.1300862,-1.466043,-1.631243,-0.2551752,1.330586,0.9169518,-0.9233223,-1.260655,0.3338007,1.79964,1.527084,0.1442637,-0.5462652,1.142156,1.121436,0.6616701,0.9102002,0.9012953,0.8656201,1.191697,0.9314575,0.830592,0.8904471,0.6283347,0.7490624,0.8904049,0.9540744,1.029593,0.9839405,1.300498,1.452132,1.170575,1.476224,1.638531,1.827465,1.698408,1.800245,1.837897,2.097892,2.039002,1.891414,1.798381,2.006833,1.884182,1.878211,2.029073,1.797786,1.591305,1.716731,1.894888,2.03571,1.846321,2.03365,1.96829,1.930225,2.101758,1.75709,1.679633,1.609222,1.848702,1.584952,1.547103,1.433069,1.235482,1.463722,1.429802,1.354031,1.046284,1.141314,1.192811,0.8573975,0.7876081,0.6086776,0.9349758,0.8430326,0.5909956,0.7640373,0.6590981,0.4724762,0.3108978,0.2622662,0.04076893,0.03329938,-0.2973258,-0.6816763,-0.9136858,-1.254293,-1.741361,-1.947489,-1.687026,-1.844299,-1.757727,-1.665396,-1.556537,-1.025232,-1.284698,-0.6895335,-0.6205106,-0.8055865,-0.3817959,-0.6206697,-0.4500618,-0.5877398,-0.5586155,-0.4581409,-0.4314085,-0.4581707,-0.386148,-0.6820662,-0.3988868,-0.6085581,-0.7067798,-0.5966525,-1.120133,-0.9222773,-0.8731279,-1.23773,-1.209977,-1.163223,-1.191639,-1.378329,-1.492665,-1.705382,-1.705421,-2.158209,-2.129681,-2.346835,-2.927872,-3.157881,-3.127566,-3.658624,-3.36641,-3.834418,-4.038996,-3.862536,-3.961205,-4.268502,-4.239554,-4.412829,-4.33235,-4.457363,-4.407562,-4.472985,-4.433226,-4.409008,-4.416647,-4.320549,-4.419389,-4.5877,-4.538786,-4.195662,-4.235267,-4.338494,-4.208862,-4.151073,-3.947011,-3.8407,-3.938804,-3.795492,-3.653296,-3.136254,-3.246925,-3.049449,-2.824384,-2.716598,-2.300589,-2.071834,-1.675525,-1.48975,-0.9927454,-0.7864719,-0.5651004,-0.373539,-0.1050182,0.1718111,0.5615725,0.8144738,0.7720979,1.147705,1.376469,1.469229,1.949232,2.069625,2.467908,2.090169,2.539901,2.493857,2.454706,2.069069,2.022473,1.991317,1.562043,1.352995,0.9095534,0.8560079,0.5826953,0.329377,0.3119249,0.4538283,0.6991909,0.5838131,0.8473209,0.7853421,0.6721564,0.7649468,0.8331929,0.9389875,0.8783857,0.4490673,0.8932948,0.6239746,0.868561,0.7867257,0.8262619,0.8352421,0.9506872,1.121505,1.04791,0.6370677,1.172694,0.9921668,1.108553,1.232798,1.153023,1.433932,1.576708,1.628926,1.788388,1.862584,1.78773,1.732742,1.928229,1.909993,1.722047,1.841968,2.009272,1.711896,1.748667,1.895096,1.803384,2.140044,1.815455,1.766465,1.939118,1.805161,1.914458,1.878072,1.862602,1.58007,1.840609,1.593285,1.741532,1.520028,1.503154,1.335525,1.426675,1.157008,1.06028,0.9767262,1.072091,0.9497277,0.8085999,0.7617441,0.7087594,0.5363569,0.5759889,0.4598298,0.2146869,0.4192861,0.1458417,0.3700507,0.1250517,-0.03139583,-0.07476347,-0.05357368,0.06120744,0.04157998,-0.1781833,-0.2512524,-0.2689564,-0.423375,-0.5777667,-0.7214503,-0.8090158,-0.8825299,-0.7957309,-1.01741,-0.9986962,-0.9131688,-0.9213433,-0.9984125,-0.6360735,-0.8110655,-0.963583,-1.029705,-0.7372299,-0.7447041,-0.6845665,-0.8565623,-0.2599167,-0.5709018,-0.1823585,-0.1350483,0.07929458,0.2481407,0.05367467,0.264843,0.5800379,0.7162553,0.6867388,0.6987641,0.8359891,0.9999739,0.866203,1.18337,1.2982,1.142102,1.465798,1.129436,1.478434,1.738752,1.670186,1.747766,1.763107,1.746746,1.897548,2.044258,3.244793,1.739524,0.6336868,0.9535857,2.610251,3.094572,1.490749,0.3341085,0.7983854,2.259505,2.828561,1.487487,-0.1216684,0.5009041,2.024618,2.608379,1.229625,-0.1522008,0.08532315,1.384623,2.509203,1.331427,-0.4054137,0.1160737,1.142699,2.607176,1.049647,-0.7035395,-0.4535868,0.8352549,1.897805,0.540482,-0.4954713,-0.980894,0.8670187,1.689718,0.8637238,-0.6251702,-0.8820019,0.4980346,1.634436,0.8368702,-0.771234,-1.15022,0.5233308,1.806348,1.171023,-0.4194101,-0.5404425,0.8222099,2.209901,2.113085,0.1756112,0.1031735,1.471043,2.830205,2.363457,1.198627,0.3589043,1.763263,3.168968,2.983283,1.132021,0.3484345,1.421579,2.721007,2.613023,0.908452,0.1419511,1.04924,2.678307,2.450528,0.6386306,-0.3561806,0.5815989,1.791777,1.680254,0.1192024,-1.049588,-0.1467345,1.09779,1.079707,-0.4882763,-2.315615,-1.372639,-0.2897723,-0.2241291,-1.764472,-3.228902,-2.403385,-0.6164768,-0.5237819,-1.916118,-3.087435,-2.38186,-0.6256143,-0.5956766,-1.435889,-3.085264,-2.540938,-1.020373,-0.5881939,-1.394815,-2.943188,-3.024861,-0.9541229,-0.4865516,-1.753338,-3.10262,-3.003179,-1.478152,-2.669067,-2.919386,-2.995324,-3.018729,-3.097588,-3.238167,-3.42198,-3.689816,-3.789481,-3.65814,-3.976439,-4.154787,-4.214719,-4.484578,-4.320444,-4.317182,-4.54086,-4.253527,-4.420907,-4.32872,-4.488336,-4.404497,-4.455359,-4.61916,-4.298646,-4.624066,-4.31413,-4.235809,-4.274934,-3.953225,-4.158366,-3.469688,-3.784487,-3.476546,-3.247615,-3.136104,-3.141823,-3.092561,-3.146194,-2.646226,-2.481081,-2.552927,-2.15169,-2.047579,-1.676529,-1.585796,-1.312343,-0.7069049,-0.7966474,-0.2382302,-0.05619524,-0.1172649,0.292353,0.411656,0.6030304,0.847214,1.087552,1.06246,1.49364,1.544647,1.892399,1.720107,2.027775,2.019959,2.088283,2.445009,2.494785,2.502754,2.528901,2.833872,2.505431,2.50553,2.572228,2.100359,2.281499,2.210902,1.901566,1.558149,1.448665,1.279933,1.175776,0.7633703,0.4612366,0.3899702,0.4736473,0.445145,0.5851864,0.5398546,0.192944,0.4279113,0.4475662,0.4745196,0.477354,0.5274323,0.301419,0.1005043,0.2088145,0.03182467,0.01336653,-0.1052013,0.07880377,0.2646446,0.0003637467,0.05902114,0.1743192,0.1744464,0.1744487,0.276985,0.1614133,0.4163502,0.443566,0.5565549,0.5369087,0.6930801,0.702293,0.8170964,0.4816642,0.6728305,0.7047345,0.9644862,0.8063001,0.8845569,0.9200851,0.992588,1.053193,1.263273,1.145437,1.207256,0.8774136,0.9731981,1.43624,1.167107,0.6163115,1.151452,1.138874,1.020869,1.239734,1.2619,1.084548,1.030619,1.152425,1.283773,1.214149,0.9520176,0.9553861,0.9910986,0.8782937,0.6755911,0.5212527,0.7901181,0.6205739,0.6286365,0.9169606,0.4621475,0.854843,0.8033864,1.044431,1.022603,0.7769013,1.018312,0.8752503,1.180317,1.073314,1.17449,1.057037,1.312241,1.019821,1.418308,1.276837,1.028055,1.474323,1.206055,1.184617,1.356149,1.272317,1.573868,1.58192,1.529189,1.262843,1.454199,1.276401,1.522525,1.263809,1.003982,1.197304,1.082563,1.164749,1.088914,1.248385,1.056494,0.9330299,1.134247,1.107803,0.9431627,1.052111,0.8394206,1.12913,0.9173014,0.7291334,0.94371,1.148148,1.078187,0.96338,0.8631443,0.5170795,0.7074579,0.7746008,0.8822897,0.5233196,0.4979085,0.5522883,0.5443419,0.247427,0.06148752,0.03572613,-0.3043146,-0.05663026,-0.4689722,-0.4992687,-0.5004941,-0.6139632,-0.9106571,-0.9274298,-1.175173,-1.266957,-1.309833,-1.367082,-1.425207,-1.395908,-1.747734,-1.850089,-1.818353,-1.790587,-2.0876,-2.312507,-2.497415,-2.322151,-2.31831,-2.513354,-2.407986,-2.316523,-2.673871,-2.508845,-2.003223,-2.574215,-2.421228,-2.269934,-2.07353,-2.23424,-2.269425,-2.086868,-2.064188,-1.736601,-1.900168,-1.56617,-1.452555,-1.556123,-1.345441,-0.978128,-1.030078,-0.7554132,-0.4962803,-0.5842576,-0.411286,-0.3234411,-0.2885242,-0.0955137,0.09695515,0.2151616,0.1621479,0.3043174,0.6346945,0.5309462,0.8141707,0.3614197,0.8464957,1.039887,1.428371,1.034809,1.192388,1.463711,1.393915,1.604679,1.701244,1.605035,1.867294,1.875347,1.906015,1.776146,1.701766,1.569349,1.266552,1.374868,1.099719,0.9767921,0.6570549,0.703394,0.8812215,1.05498,0.9780748,1.05055,1.503903,1.51034,1.766968,1.750206,2.03388,2.216507,2.301396,2.667172,2.722734,3.064568,2.948352,3.113518,3.144036,3.21728,3.153514,2.788006,2.786933,2.667071,2.513463,2.322369,2.168423,1.979502,1.760179,1.530236,0.9625624,1.102331,0.7711404,0.5988257,0.3270201,0.04763455,-0.3846187,-0.1579415,-0.5656644,-0.720837,-1.142988,-1.273206,-1.325758,-1.565361,-2.022732,-1.935081,-2.421875,-2.491537,-2.937821,-3.083706,-3.093023,-3.268538,-3.476146,-3.550176,-3.770063,-4.128275,-4.447446,-4.262065,-4.359714,-4.549946,-4.437913,-4.660952,-4.372239,-4.468178,-4.461666,-4.25558,-4.038067,-3.682492,-3.698221,-3.560877,-3.395114,-3.671097,-3.007068,-2.600719,-2.727259,-2.2979,-2.077821,-1.889997,-1.231223,-1.302609,-0.7887627,-0.525907,-0.2155919,0.3545734,0.5910456,0.8088874,1.464056,1.612839,2.218155,2.404561,2.895315,3.019607,3.026217,3.365294,3.468463,3.539713,3.670444,3.421721,3.930223,3.857265,3.719164,3.309233,3.094257,2.738141,2.576882,2.204222,1.712433,1.56711,1.196549,1.243146,0.7789623,0.8066441,1.027574,0.7490168,0.7140549,0.6146635,0.4818506,0.3104418,0.4729164,0.2137315,0.4536313,0.2289328,0.1985444,0.3220706,0.2571489,0.1517498,0.07557691,-0.1538378,-0.0332641,0.1522715,-0.1605781,-0.2883838,-0.0001043012,0.01577209,0.3555088,0.3622278,0.07398972,0.03164313,0.3065188,0.1463756,0.1816557,0.04247693,0.07997423,-0.02239816,0.3072156,0.1401933,0.05440578,-0.01904607,0.1499773,0.2856265,0.2771289,0.4250151,0.4925408,0.1841513,0.4065738,0.5556303,0.1324619,0.1583202,0.167713,0.4401249,0.4673038,0.3768309,0.3189759,0.6513491,0.4080435,0.3306696,0.3714057,0.338752,0.2554984,0.3072042,0.262563,-0.02120222,-0.03538626,-0.05293922,0.004655633,-0.06986116,-0.3456526,-0.8164877,-0.8950037,-0.7729324,-0.924011,-1.126192,-1.103311,-1.468801,-1.410324,-1.101384,-1.511759,-1.494787,-1.600886,-1.564748,-1.20954,-1.478212,-1.408314,-1.246024,-1.220159,-1.028818,-0.9147676,-1.307843,-1.144243,-1.130537,-0.9378216,-1.051268,-1.202577,-0.8123301,-1.071393,-0.6429268,-0.8786479,-0.9563188,-0.6496532,-0.7192269,-0.6591766,-0.8191994,-0.6763859,-0.6873802,-0.5460482,-0.5845289,-0.363471,-0.6344016,-0.5023676,-0.2607472,-0.4389687,-0.2862037,-0.5035359,-0.4855194,-0.5490397,-0.5703884,-0.6313323,-0.9253911,-0.8252373,-1.153866,-0.6936026,-1.21586,-1.328321,-1.337584,-1.393366,-1.262247,-1.236681,-1.291993,-1.116723,-1.204972,-0.8575914,-0.9477116,-0.7861616,-0.8327316,-0.6583489,-0.6203803,-0.5854893,-0.6258345,-0.7625465,-0.7329588,-0.117702,-0.3564011,0.06333226,-0.2757022,0.3057898,0.6463039,0.6936575,0.5262039,1.107532,1.275248,1.754233,2.068415,2.096305,2.521628,2.649094,3.090709,3.341471,3.607176,3.887772,4.298377,4.646443,4.824822,4.818119,5.050938,5.03649,5.39928,5.422862,5.603913,5.522307,5.553498,5.850562,5.523983,5.381497,5.378977,5.083204,5.401332,4.89731,4.712693,4.648516,4.661382,4.294971,4.261811,3.847359,3.466288,3.598563,3.475715,2.930474,2.987012,2.423508,2.470418,2.416083,2.092965,1.789986,1.426607,1.140365,0.876616,0.5513134,0.3144827,0.1168265,-0.3155234,-0.171367,-0.431586,-0.8535438,-0.8433725,-1.061056,-1.203038,-1.353378,-1.692428,-1.814296,-1.982424,-2.114163,-1.978831,-2.162914,-2.442422,-2.275366,-2.619062,-2.308345,-2.63789,-2.804401,-2.892068,-2.933724,-3.106028,-3.072151,-3.084468,-3.407631,-3.305656,-2.854865,-2.998281,-2.406851,-2.398721,-1.878372,-1.748442,-1.399314,-1.288947,-0.9644876,-0.7075762,-0.7308174,-0.3435189,-0.5659383,-0.3379581,-0.1315424,-0.2897299,-0.3028652,-0.540677,-0.6967033,-0.5436566,-0.8965321,-1.353856,-1.383585,-1.593932,-1.782615,-2.090922,-2.365622,-2.949995,-2.739715,-3.496457,-3.685528,-3.773386,-3.881951,-4.162068,-4.365379,-4.426198,-4.63724,-4.783248,-5.427893,-5.079168,-5.166464,-5.327351,-5.465973,-5.701893,-5.457857,-5.724999,-5.806969,-5.784404,-5.960207,-6.055735,-6.11519,-5.878123,-6.375907,-6.317686,-6.238962,-6.38823,-6.115142,-6.027691,-6.104474,-5.713583,-5.918895,-5.558408,-5.385427,-5.160401,-5.246999,-4.589221,-4.468109,-4.311272,-3.829083,-3.78217,-3.313378,-2.893377,-2.619333,-2.387677,-1.996263,-1.384222,-1.127997,-0.6997033,-0.4365477,0.1012274,0.6686529,1.099213,1.257223,1.760605,2.236622,2.328656,2.737998,3.411898,3.511251,3.193845,3.747046,4.11318,4.29616,4.062306,4.320141,4.407937,4.33574,4.305524,4.234378,4.02718,4.263484,3.987214,3.772021,3.566683,3.615908,3.199381,3.395933,2.978808,3.051314,3.012406,3.087232,3.125644,3.202736,2.933507,2.744771,2.69765,2.660823,2.546862,2.467467,1.973909,2.107328,2.28225,2.05404,1.982924,1.87292,1.699757,2.008616,1.927196,1.628424,1.68728,1.580271,1.544703,1.732811,1.311943,1.365054,1.597891,1.297698,1.41988,1.4673,1.201786,1.446543,1.291775,1.24146,1.319694,1.040514,1.21854,1.098759,1.361421,1.166691,1.207292,1.174444,1.354322,1.221291,1.091097,1.105083,0.768978,0.7424581,0.7312824,0.3139242,0.3845999,-0.07134939,0.1751161,0.04005138,0.1630828,-0.0857113,-0.134151,-0.3180172,-0.1553095,-0.1953715,-0.5815717,-0.5856121,-0.7938748,-0.5612453,-0.6316685,-0.9438628,-0.8117153,-0.7610247,-0.6806803,-0.9309538,-1.164314,-0.782265,-0.7319833,-0.7360636,-0.8212403,-0.3001593,-0.3894039,-0.3046525,0.1168439,-0.1210711,-0.02976879,0.04584242,-0.1497507,0.3160015,0.3449567,0.2857741,0.3556056,0.4322886,0.7820823,0.4276242,0.3987489,0.7821642,0.888758,0.6788236,1.075709,1.186937,1.074627,1.377113,1.568349,1.864008,1.998545,2.011024,2.301928,2.202285,2.524193,2.389716,2.282968,2.428224,2.712266,2.833629,2.763799,2.585043,2.851488,2.684715,2.777406,2.454789,2.449294,2.497938,2.449868,2.341692,2.131127,2.338651,2.083529,2.277035,2.186658,2.328348,2.060746,2.147011,1.948266,2.16151,2.259557,1.990697,1.778597,2.085363,1.871863,1.818079,1.805378,1.36725,1.661173,1.593193,1.282378,1.297869,0.8965396,0.9635924,1.188991,0.7928797,0.5677051,0.2160086,0.4746498,0.176,0.1098027,-0.3141373,-0.4752877,-0.5787482,-0.6350959,-0.8552684,-1.18176,-1.419139,-1.377588,-1.546561,-1.49543,-1.794523,-1.68129,-1.860851,-1.673533,-1.930577,-1.905634,-2.546625,-2.055322,-2.297256,-2.4025,-2.372084,-2.441299,-2.104725,-2.127036,-1.988545,-1.886904,-1.832597,-1.901776,-1.630445,-1.502235,-1.1323,-1.203131,-1.492621,-0.5795588,-0.3348677,-0.5543782,-0.2982133,-0.03679712,0.01485859,0.4081545,0.4230471,0.4663535,0.9498005,0.9960272,1.404704,1.267053,0.9295266,1.375672,1.131022,1.374418,1.342633,1.298117,1.362456,1.782059,1.67843,1.91328,2.223493,2.451446,2.924035,3.380704,3.270895,3.377396,3.373786,3.76305,3.611831,3.809332,3.520516,3.613258,3.338679,3.08,2.889747,2.192562,1.843509,1.845051,1.371881,0.8716571,0.4125252,-0.1247071,-0.6911457,-0.8892531,-1.666372,-2.340624,-2.675313,-3.107719,-3.356556,-4.249692,-4.636734,-5.103008,-5.545065,-5.792452,-6.416623,-6.950111,-7.162904,-7.593659,-7.717513,-7.814868,-8.196927,-8.214845,-8.27434,-8.399172,-8.492477,-8.819256,-8.663701,-8.429239,-8.713247,-8.613031,-8.655583,-8.484698,-8.331347,-8.074236,-7.962768,-7.63976,-7.25378,-6.999418,-6.476741,-6.106975,-5.792423,-5.574336,-5.129942,-4.39375,-4.216947,-4.212531,-3.734867,-3.374592,-2.868243,-2.554954,-2.443411,-1.791589,-1.411326,-0.6580162,-0.3125235,-0.2659235,0.4704974,0.7576033,1.237981,1.671427,1.97785,2.010669,2.639678,2.789725,3.050258,3.350926,3.288697,3.9094,3.8432,3.895067,4.070027,4.060733,3.86364,3.890887,3.965113,3.617901,3.255556,3.001608,2.657418,2.30794,1.707585,1.631156,1.099543,1.075741,0.9610846,0.753699,0.3701091,0.7424534,0.9012773,0.8402456,1.169262,1.080288,1.123484,1.531943,1.530903,1.613175,1.681889,1.830103,1.859328,2.426037,2.125589,2.18487,2.25122,2.09349,2.562339,2.410789,2.622375,2.750773,2.575941,2.956836,3.069537,2.630843,2.813346,3.010263,3.12713,3.304961,2.976736,3.380212,3.073178,2.947669,2.915459,2.828969,2.735495,2.886564,2.77113,2.581434,2.496252,2.464493,2.568803,2.561162,2.416393,2.185158,1.973943,2.054069,1.814059,1.805253,1.471891,1.252683,1.092625,1.09127,0.5803729,0.9071012,0.50616,0.6504538,0.801871,0.8798418,0.8324353,0.7579478,0.5905565,0.7319559,0.4620744,0.4476728,0.1304393,0.04204469,-0.1928028,-0.08928268,-0.1116668,-0.5983463,-0.03585562,-0.3215768,-0.2416686,-0.4158806,-0.2564089,-0.5619424,-0.4824873,-0.2435107,-0.127094,-0.4078048,-0.2049642,0.2933593,0.006876793,0.09120405,0.2411286,0.223988,0.4108863,0.8081208,0.8272442,0.5846189,0.748875,0.9111609,1.074896,0.8786118,0.6932283,0.918557,0.7184297,0.9865657,0.9460886,0.8183465,0.7611725,0.9805575,1.110088,1.104704,0.9911785,0.9630883,1.105017,1.250755,1.008493,1.140162,0.8621433,0.8691878,1.223704,0.7990969,1.020159,0.9216597,0.8540571,0.9058943,0.8004401,0.5633379,0.4666327,0.6415212,0.1199026,0.1297085,-0.2642079,-0.2708682,-0.006471874,-0.02728188,-0.4465515,-0.4612528,-0.7222834,-0.2970007,-0.6790936,-0.4825541,-0.5020879,-0.5634244,-0.5071164,-0.5675123,-0.6684537,-0.3317417,-1.02345,-0.5884004,-0.6128281,-0.1682524,-0.4622082,-0.5042847,-0.2769895,-0.3009476,-0.3817047,-0.2317632,-0.4904947,-0.3093984,-0.3737687,-0.2233615,-0.1892788,-0.1177649,-0.5097022,0.04201212,-0.1786262,-0.05634236,0.09218622,-0.07039788,0.2781872,0.4917363,0.3795255,0.6865077,0.5645024,0.8906791,0.6327518,0.7854037,0.4797499,0.5864603,0.9116603,0.6140808,0.467342,0.6186043,0.5135734,0.9583724,0.71874,0.7115903,0.7938385,0.3660108,0.676818,0.5864489,0.4330689,0.02456995,0.3755121,0.4901503,0.1789252,0.3779917,0.3042367,0.1199816,0.009008003,0.2979018,0.1113612,0.1356285,-0.04439111,-0.1066899,0.04004227,-0.2623654,-0.246628,-0.2598096,-0.3542842,-0.05982849,-0.4088128,-0.299655,-0.4433823,-0.03455769,-0.2050119,-0.2656605,-0.3337134,-0.1832177,-0.1232708,-0.2153234,-0.3471262,-0.361482,-0.3016233,-0.5745054,-0.5613003,-0.7155951,-0.8406995,-0.7518902,-0.9157472,-0.9136112,-0.6043989,-0.9985455,-0.6666278,-0.4734636,-0.0938228,0.0984767,0.127951,0.5494323,0.6171504,1.030005,1.038567,1.275345,1.168086,1.399724,1.250069,1.36323,1.179458,1.207935,1.178049,1.342163,0.7622876,0.9184822,0.5071893,0.5362863,0.3993422,-0.07389167,-0.3956154,-0.5393492,-1.038999,-0.5066368,-1.458897,-1.828689,-2.06438,-2.637894,-2.926978,-3.027504,-3.602203,-3.817775,-4.036608,-4.025218,-4.438831,-4.58701,-4.93067,-4.997212,-5.190495,-5.481713,-5.74344,-6.234283,-5.967002,-6.59817,-6.153767,-6.484373,-6.765189,-6.724671,-6.637546,-6.436736,-6.905724,-6.551963,-6.154625,-6.484406,-6.146422,-5.848575,-5.8687,-5.504656,-5.369643,-5.223718,-5.090275,-4.666498,-4.496242,-4.194611,-3.695499,-3.605562,-2.979878,-2.731122,-2.622439,-2.003156,-1.798605,-1.545663,-1.136263,-0.8974416,-0.3230926,-0.2662672,-0.1013051,0.3984554,0.8505593,1.338948,1.512135,1.59546,2.232964,2.491346,2.515021,2.972264,3.007478,3.1085,3.262981,3.485689,3.511454,3.442655,3.361389,3.449135,3.543411,3.219388,2.962781,2.70001,2.738849,2.266536,2.486801,2.264363,2.173793,2.334967,2.535378,2.624847,3.008771,2.69298,3.225257,3.303055,3.234506,3.563798,3.244138,3.583178,3.470869,3.902325,3.433399,3.486649,3.537476,3.420923,3.310096,3.428159,3.26822,2.920824,2.968164,3.012534,2.577198,2.668229,2.349574,2.393652,2.408292,2.432243,2.075687,2.277025,1.772087,2.081224,1.972639,1.584304,1.774377,1.689651,1.4393,1.886441,1.495424,1.200605,1.294903,1.466828,1.019916,1.1117,0.4112888,0.4987433,0.7519084,0.5419059,0.2996814,0.07955218,0.4840174,0.0481121,-0.09283856,-0.1299588,0.0388728,-0.2645307,0.07041988,-0.0007866088,-0.1227359,-0.225509,-0.2507111,0.4126524,0.01895226,0.1944602,0.4458859,0.2415535,0.6250778,0.6904683,0.6204982,0.5783676,0.6138019,0.4744189,0.9733437,0.555009,0.2960715,0.4451994,0.5754684,0.6300641,0.2924077,0.3300619,0.6125992,0.2022439,0.4746976,0.2794503,0.4549349,0.2783313,0.5102004,0.4320668,0.6562916,0.08924997,0.2916305,0.5140906,0.3679952,0.3116668,0.3005212,0.4852672,0.2618742,0.4525703,0.4537111,0.01776188,0.1921711,0.01753927,0.1915744,0.09940108,-0.07379899,0.1830165,0.2868213,0.1262118,0.19412,0.3339216,-0.008278883,0.3979306,0.2239112,0.04605945,0.3688655,0.08941163,-0.01096973,0.4568575,-0.1596283,0.03084897,-0.3614175,-0.2985569,-0.5918947,-0.5773768,-0.8853064,-1.037679,-1.01023,-0.8499032,-1.268575,-1.409746,-1.535153,-1.409305,-1.523414,-1.63687,-1.843931,-1.968797,-2.030401,-1.811428,-2.018532,-2.216165,-2.113634,-2.100122,-2.200437,-2.143875,-2.258198,-2.584785,-2.455322,-2.151231,-2.682482,-2.367003,-2.414146,-2.334165,-2.276538,-2.127391,-2.636385,-1.813887,-1.961326,-1.832659,-1.83118,-1.756961,-1.42228,-1.662235,-1.161484,-0.7987148,-0.6073043,-0.7813716,-0.2307853,-0.1483351,0.2265592,0.4898117,0.4428697,0.7893539,1.033697,0.8829409,1.043653,0.951589,1.136634,1.443882,0.9993851,1.350824,1.314928,1.389398,1.585237,1.436809,1.439535,1.740748,2.102086,2.080713,2.221568,2.192677,2.281286,1.868607,2.418622,2.218803,2.265582,1.869973,2.16263,2.165318,2.274756,1.804817,2.115632,1.905408,1.920487,1.883637,1.635376,1.62943,1.375332,1.639633,1.499784,1.379776,1.646238,1.167509,1.58795,1.619386,1.266236,1.257735,1.032272,1.333792,1.280475,1.322968,0.8958037,1.156119,1.090834,1.172144,0.8478764,0.7264329,0.6844916,1.05743,0.3806256,0.620348,-0.0741911,-0.08711916,0.01197232,-0.0893608,0.09641889,0.02887321,-0.05761271,0.3463695,0.5735074,0.5729713,0.6439356,0.6924384,0.9544937,0.9862442,1.142312,0.8786106,0.9833129,1.153211,1.105182,0.8967519,0.9261455,0.7662923,0.8591896,0.5529338,0.3917298,0.006742835,-0.1765515,-0.1850878,-0.3267311,-0.5615669,-0.9776208,-1.092524,-1.061593,-1.212312,-1.174569,-1.622948,-1.978389,-1.751772,-2.135762,-2.227428,-2.142486,-2.860787,-2.383743,-2.609366,-2.910438,-3.159124,-3.050099,-3.077052,-3.212569,-3.075438,-3.519914,-3.615273,-3.30696,-3.84024,-3.528216,-3.623972,-4.134897,-3.986114,-3.852284,-3.607977,-4.093389,-3.883298,-3.766383,-3.392268,-3.370317,-3.434737,-4.68206,-2.959941,-1.620265,-2.037309,-3.483483,-3.777407,-2.509986,-1.161074,-1.198225,-2.685557,-3.015932,-1.66467,-0.5823109,-0.6427913,-1.759318,-2.629292,-1.009047,0.1019496,0.2448168,-0.679091,-1.569311,-0.2161272,1.367493,1.295132,0.1398511,-0.5400932,0.525127,1.999225,2.056036,0.8936991,0.09969412,0.8897628,2.473595,2.407626,1.012729,-0.2229375,0.5202313,2.079249,2.0574,0.892516,-0.4690234,0.06411396,0.9459463,1.553397,-0.35471,-1.436209,-0.394088,0.7268867,1.45193,-0.04703324,-0.9523306,-0.4593497,1.199596,1.536721,0.6457477,-0.4152427,-0.1192085,1.273239,2.099609,0.8333341,-0.05263937,-0.0440574,1.218237,2.30839,1.405756,-0.2306949,-0.001781936,0.9991787,2.293825,0.9052603,-0.224312,-0.2671254,1.169133,1.935703,1.212329,-0.3189437,-0.09069942,0.8680949,1.98185,1.110495,-0.4131807,-0.3500641,0.6573553,1.98434,1.480147,-0.4006176,-0.5230609,0.8665959,2.158258,1.860344,0.3174744,0.01637931,1.426716,2.567518,2.316688,0.7748585,0.3646503,1.29329,2.941413,2.35642,0.5913412,0.4032713,1.639471,2.416671,2.484236,0.9924714,0.4124998,1.492911,2.77182,2.763609,1.52652,2.45561,2.462855,2.445968,2.356619,2.38612,2.267886,2.796287,2.426944,2.414205,2.49922,2.090821,2.333639,2.444821,1.980019,2.049744,2.189914,1.881499,2.216445,1.921342,1.824873,1.685489,1.93937,1.733638,1.987037,1.644049,1.280643,1.468338,1.152006,1.135597,0.9084185,0.6076934,0.6455148,0.2513615,0.3663676,0.01327215,-0.05054425,-0.02136175,0.02651934,-0.3716422,-0.42334,-0.717644,-0.6303075,-0.7781985,-0.9214639,-0.8609997,-0.5457969,-1.180627,-0.9038531,-1.193525,-0.9571669,-1.270406,-0.9541292,-0.9119854,-0.8922068,-0.9510491,-1.158568,-1.024411,-0.6049229,-0.8193404,-0.8035512,-0.9053425,-0.4897239,-0.2130196,-0.3939781,-0.6464971,-0.319557,-0.6323057,0.09181482,-0.09768444,0.05950936,-0.007103008,0.2988389,0.2430285,0.6105087,0.4387465,0.6998765,0.4502837,1.050059,1.064567,0.6084855,0.7500201,0.5654725,0.9738401,0.9216731,0.3302299,0.6193962,0.5835025,0.5015105,0.5522455,-0.09283831,0.1903908,0.007413225,-0.04755185,0.248737,-0.4595395,-0.5805172,-0.44726,-0.5884459,-0.6728318,-0.969594,-0.7520383,-1.401356,-1.188442,-1.278328,-1.357966,-1.630785,-1.675556,-1.748726,-1.867229,-2.143656,-2.077599,-2.080158,-2.130769,-2.094628,-2.093984,-1.931252,-2.20435,-2.015847,-1.694052,-1.925882,-2.183701,-1.820333,-2.055241,-1.59138,-1.417655,-1.713222,-1.454358,-1.296257,-1.235652,-0.9519906,-1.332619,-0.8726899,-0.8650277,-0.5752399,-0.7906049,-0.836229,-0.4481306,-0.5880121,0.05093001,-0.1320309,-0.05227274,-0.1064877,0.2664298,0.331323,0.455286,0.3854665,0.3740462,0.7243176,0.418487,0.8353629,0.5441822,0.7176149,0.9240879,1.282172,1.403147,1.681626,1.408484,1.920117,2.201743,2.499873,2.201033,2.773006,2.703219,2.999269,3.110489,3.20127,2.975507,3.293868,2.763374,2.951302,2.708832,2.118114,2.258418,1.733526,1.700002,1.121746,0.8249685,0.9386052,0.5677686,0.1900091,0.06091874,-0.3123771,-0.7235172,-0.6199226,-1.166491,-1.267273,-2.078634,-2.166411,-2.503224,-3.005336,-3.329734,-3.592983,-3.764066,-4.171242,-4.301814,-4.599034,-4.991518,-5.113044,-5.019955,-5.272489,-5.111769,-5.295912,-5.529666,-5.297308,-5.639716,-5.228452,-5.5207,-5.812583,-5.33053,-5.572605,-5.297139,-5.803063,-5.277188,-5.024859,-4.888065,-4.776524,-4.701634,-4.543556,-3.948011,-3.49464,-3.191164,-2.863883,-2.677996,-2.289716,-1.6109,-1.004879,-1.23724,-0.6041805,-0.3491501,0.2046325,0.5954292,0.7404591,0.9402098,1.560467,1.636648,2.110413,2.010745,2.289422,2.440292,2.969413,2.943174,3.051339,3.139278,3.136083,3.480541,3.497822,3.468582,3.167926,3.455955,3.50526,3.418805,3.148892,3.035889,2.519603,2.693306,2.232427,1.851984,1.403772,1.540043,1.218041,1.211682,1.076347,0.7589161,1.017433,1.166684,1.118666,0.9705078,0.8799589,0.9175029,1.136956,0.78568,1.090746,0.6594262,0.9304084,0.6739228,0.9448455,0.6987418,0.1471623,0.250034,0.5235566,0.3909391,0.2102574,0.3079738,-0.1500897,0.8352894,0.6325163,0.6936449,0.6454976,0.6366513,0.7582391,1.050754,0.779208,0.5576957,0.3848335,0.7000972,0.9188601,0.4761237,0.6813367,0.3022549,0.7767418,2.553064,-0.05387694,-0.4432029,0.5347584,1.716663,1.697493,0.6825143,-0.5035353,0.6891206,1.852031,2.241713,0.65293,-0.3815148,0.5631818,1.937683,2.058498,0.9068129,-0.2538268,0.756002,2.088798,2.637247,0.9282638,0.2780649,0.699821,2.048656,2.74319,1.356425,0.4127564,0.8779846,2.507492,3.054647,1.7685,0.1976913,0.9872521,2.504884,3.056526,1.338019,0.5976619,0.4659323,2.092126,2.637847,1.145762,0.02188709,0.03359113,1.54388,2.372135,0.8523648,-0.07525625,-0.2796424,1.26668,1.785498,1.054588,-0.4409846,-0.3907446,1.202599,1.816989,1.19581,-0.1101693,-0.2643079,1.61978,2.003051,1.701037,-0.1288983,-0.169468,1.582211,2.314678,1.679208,0.2178584,0.01650073,1.195988,2.540409,1.503633,0.0941787,-0.08328039,0.9198926,2.11234,1.530056,-0.3645808,-0.6317595,0.5984554,1.222444,1.076938,-0.7681899,-1.289794,-0.3886366,0.9221045,0.4436304,-1.432017,-1.644604,-0.6187637,0.5893649,0.4078557,-1.235339,-1.866736,-0.7769748,0.2558303,0.1570815,-1.619286,-2.44988,-1.513973,-0.0687754,-0.3671929,-1.831531,-2.892393,-1.479383,-0.5441452,-0.4802755,-1.748603,-2.960895,-1.869824,-0.5732232,-2.658923,-1.612818,-2.267132,-1.870037,-1.607073,-2.013143,-2.064616,-2.175804,-1.938999,-1.445915,-1.81722,-1.691818,-1.896955,-1.503091,-1.401399,-0.8985709,-1.650216,-1.222346,-1.144608,-0.8026384,-1.266001,-0.7995588,-1.39867,-0.5860793,-0.6329153,-0.4713619,-0.8301834,-0.4240651,-0.5189172,-0.3041942,-0.284676,-0.4556516,-0.3292576,-0.2749115,0.2865592,-0.05592155,0.3158597,-0.3990027,0.2744587,0.5811353,0.3576732,0.5719689,0.3595161,0.5490326,0.7102948,0.5890792,0.6923374,0.1913343,0.5591115,0.963241,1.030781,1.006823,0.9784942,1.208016,1.30896,1.753898,1.527965,1.350921,1.812777,1.738762,2.005853,1.807201,1.818222,1.615976,1.976364,1.98966,1.512065,1.531466,1.774794,1.456639,1.602406,1.633365,1.029968,1.179997,1.281171,0.9711162,0.8983812,0.9087182,0.6728436,0.2508895,0.8506715,0.4681558,0.3007265,0.201803,0.1594129,0.3404138,-0.1217871,-0.1709801,-0.4116375,-0.4682711,-0.4422935,-0.6117801,-0.970891,-1.049774,-0.9113297,-1.014053,-1.526091,-1.597787,-1.598577,-1.831743,-1.94231,-1.905382,-2.180794,-1.917518,-1.943766,-1.329396,-1.267296,-1.179873,-0.9556665,-0.4158194,-0.126575,0.07126972,-0.2278443,0.3616045,0.1742888,0.5307854,1.010133,0.1684932,0.8827977,0.9153088,0.9491749,0.9552032,0.5262433,0.6470748,0.6199504,0.7160833,0.3849228,0.09618619,0.04080063,-0.2367443,-0.4459317,-0.6529924,-1.334702,-1.083489,-1.902195,-1.568826,-2.342844,-2.334209,-3.435199,-2.818208,-3.450566,-3.715938,-4.229648,-4.037927,-4.30826,-4.587924,-4.766142,-5.425907,-5.165293,-5.596903,-5.714718,-5.338468,-6.002729,-5.915382,-6.219103,-5.941365,-5.827515,-6.161293,-5.571306,-5.604689,-5.330069,-5.206206,-5.196559,-5.009104,-4.87496,-4.671586,-4.146777,-4.335226,-3.886149,-3.743247,-3.321615,-2.836338,-2.78478,-2.618651,-1.768697,-1.797795,-1.210853,-0.9177543,-0.4500208,-0.3902995,0.3398222,0.6875738,0.7778003,1.426477,1.758267,2.254789,2.744966,2.874782,2.993837,3.539575,4.118396,4.259146,4.21103,4.426804,4.702091,5.18355,5.010617,5.353682,5.082222,5.304052,5.444134,5.548143,4.990727,4.965001,4.687853,4.516263,4.223018,2.762561,1.966674,4.093405,5.355089,4.453802,2.127707,2.814618,4.413905,6.039673,4.770155,2.791877,2.659138,4.604989,5.76884,4.377169,2.369128,2.023534,3.677332,4.879669,4.135781,1.564199,1.619042,2.766361,4.554788,3.261384,1.169316,0.6373983,2.133864,3.375724,2.579924,0.3471128,-0.2962022,0.7912006,2.228075,1.41431,-0.6392801,-1.881451,-0.5896769,1.284676,0.2752178,-1.42527,-2.942907,-1.01469,0.1024059,-0.1749783,-1.969752,-3.088295,-2.134678,-0.1606463,-0.6871584,-2.415284,-3.553012,-2.337516,-0.2811127,-0.3521078,-2.522809,-3.371854,-2.676387,-0.1628979,-0.1694234,-1.862065,-3.345202,-2.368817,-0.04203081,-0.1696731,-1.397899,-3.061627,-2.118767,0.5039759,0.9219051,-0.7500725,-1.714947,-1.113924,1.180592,2.012102,0.5298256,-1.214394,1.470824,2.3303,2.020866,0.4284372,0.5239829,1.337754,2.759109,2.3025,0.7427815,0.5730864,1.399526,2.739742,2.192446,0.7260246,0.2267704,1.603886,2.429775,2.365496,0.6413278,0.2564789,1.356074,2.07348,2.038914,0.5662464,-0.3233339,0.5779572,1.750783,1.400291,-0.2597287,-1.176433,-0.402605,0.8842258,0.5236391,-1.133228,-0.3075109,1.519941,1.155888,-0.4710823,-1.342956,0.2896301,0.8419004,1.002806,-0.7712415,-1.507694,-0.4656154,0.6998247,0.5945996,-0.9447025,-1.576073,-0.8166121,0.6011306,0.5884222,-0.6539968,-1.608301,-0.6281781,0.7480693,1.117103,-0.6495306,-1.404305,-0.5109905,0.7736404,0.742115,-0.2932827,-1.34623,-0.794037,0.4160807,0.8172658,-0.4359248,-1.671461,-1.259037,0.8213558,0.8842463,-0.3448366,-1.440977,-1.001747,0.6256997,0.6570016,-0.1955127,-1.553659,-1.208348,0.4501621,0.8784799,-0.05459442,-1.49009,-0.8658053,0.4086726,1.067075,0.1434965,-1.126832,-0.9580911,0.5273658,1.041351,0.5516577,-1.217218,-1.175212,0.8357233,1.501022,0.5958144,-0.2793724,-0.4501514,1.522339,2.568165,1.44609,0.7787024,0.4895501,2.111438,3.275759,2.70242,1.572717,1.239153,3.076767,2.100915,2.212591,1.805839,2.091117,1.918968,1.761389,1.842338,1.448844,1.692077,1.63228,1.758981,1.475034,1.242025,1.500567,1.603892,1.216458,1.318156,0.8302691,1.151876,0.9909865,0.880582,1.007948,0.09028265,0.6577323,0.1149996,0.4683176,0.1421743,-0.04385593,-0.1243179,-0.02747587,-0.3476683,-0.6311415,-0.7698252,-0.6617833,-1.209199,-0.7183721,-1.356195,-1.049117,-1.521779,-1.361925,-1.156945,-1.310299,-1.492713,-1.338157,-1.468684,-1.380831,-1.336722,-1.64725,-1.589177,-1.332119,-1.490433,-1.525481,-1.589208,-1.689415,-1.599394,-1.731388,-1.673026,-1.870373,-1.834077,-1.921186,-1.554402,-1.957164,-2.024559,-2.224872,-2.262538,-1.912321,-2.471192,-2.775329,-2.829743,-2.801184,-3.011412,-2.88712,-3.230919,-2.954175,-3.005718,-2.410588,-2.410041,-2.527491,-1.742708,-2.027017,-1.369701,-1.171974,-1.194215,-0.9171066,-0.8960573,-0.4608389,-0.6278087,-0.6885372,-0.5234619,-0.5295877,-0.215607,-0.2593365,-0.8297839,-0.4726336,-0.5088006,-0.6243227,-0.6342607,-1.003331,-0.8038138,-1.128586,-1.083427,-1.352377,-1.57432,-1.994231,-2.094354,-2.248738,-2.453122,-2.732094,-3.541408,-3.347378,-3.698985,-3.898391,-4.636302,-4.511229,-4.994988,-4.69391,-4.942449,-5.299902,-5.509567,-5.85647,-5.646512,-5.822644,-6.265657,-6.060291,-6.372354,-5.954848,-5.995255,-6.026844,-6.123069,-6.082768,-5.993434,-5.676299,-5.928794,-5.754721,-5.828682,-5.456264,-5.481979,-5.51955,-5.184389,-5.308071,-4.831956,-4.44102,-4.300616,-3.878843,-3.661093,-3.045909,-2.684437,-1.798748,-1.92047,-0.9760664,-0.6489386,-0.09716442,0.3774152,0.8367645,1.231871,2.172196,2.816281,3.067125,3.411803,3.939625,4.306482,5.03805,5.184926,5.5123,5.952134,6.226305,6.643123,7.006513,6.755127,7.187943,6.911169,6.757309,7.108647,6.555518,6.211925,6.527727,5.606277,5.725134,5.337483,5.190009,5.184766,5.19486,5.061121,5.034533,4.953038,4.874363,4.935591,4.957009,4.782428,4.454232,4.603758,4.643925,4.615384,4.286802,4.288196,4.198676,4.279662,4.336965,4.196721,4.151875,4.181901,4.074591,4.339495,4.254329,3.814267,3.962443,3.900608,4.520716,4.271154,3.814198,4.210242,3.770587,4.185917,3.631418,3.89043,3.546477,3.788198,3.525861,3.565409,3.201132,3.091235,3.202335,3.0817,3.172373,2.685477,2.769412,2.504909,2.523275,2.169986,1.91633,2.058724,1.735394,1.736653,1.787176,1.473022,1.665983,1.394624,1.460969,1.407765,1.108044,0.8204585,1.107373,0.5886262,0.7547233,0.4508658,0.115243,0.04065082,0.1816881,-0.15298,-0.7415689,-0.5560452,-1.028696,-0.8247845,-0.9921364,-1.759652,-1.678117,-1.692007,-1.638261,-2.174565,-2.373586,-2.493512,-2.42995,-2.511931,-2.322809,-2.821997,-2.715046,-2.910567,-2.790997,-2.803471,-2.672533,-3.089198,-2.654803,-2.448602,-2.322121,-2.559794,-2.316394,-2.455228,-2.037436,-2.145211,-1.891936,-2.293922,-1.745481,-1.498712,-1.671661,-1.502086,-1.510715,-1.697714,-0.9673349,-1.207923,-1.149187,-1.200022,-1.016626,-0.9149871,-1.014306,-0.6676502,-1.232942,-0.6169277,-1.268758,-0.8139286,-0.7980629,-1.064294,-0.8324553,-0.4908488,-0.8091567,-0.598163,-0.9316923,-0.6625325,-0.6177439,-0.5697619,-0.4702607,-0.883665,-0.6096491,-0.5937053,-0.6039516,-0.8297997,-0.8509811,-0.565431,-0.5717175,-0.6914627,-0.6877395,-0.9181827,-0.8556835,-0.3486344,-0.7874197,-0.640647,-0.7544983,-0.7977823,-0.8776286,-0.4446425,-1.000749,-0.7370759,-0.9729486,-0.802656,-0.9092891,-0.8348523,-0.8632334,-1.004813,-0.9595994,-0.8484202,-0.9322162,-0.7491071,-1.143027,-1.072605,-0.4288643,-0.8084086,-0.6085517,-0.6561715,-0.4243191,-0.05367857,-0.368886,-0.02347041,-0.1519367,0.1416974,0.2089966,0.06718908,0.08714871,0.04630097,0.5727036,-0.086885,0.7632745,0.312637,0.4877842,0.5418789,0.9794174,0.7397638,1.161772,0.8972315,1.01663,1.121522,1.235219,1.225889,0.7971344,1.102319,1.274101,1.094655,1.185013,1.089661,1.063997,1.335388,1.170154,0.8793642,1.271882,0.7105091,1.171609,0.7899636,1.210849,0.3852176,0.966866,0.9332552,1.007773,0.5098779,0.3651062,0.5074235,0.07849904,0.3200653,-0.05367795,-0.08453773,-0.1076069,0.07965786,0.6088942,0.2309305,0.4821756,0.5288937,0.9799775,1.014938,0.8734593,0.9712867,0.9625557,1.452529,1.362262,1.223125,1.170375,1.236928,1.026983,1.462344,0.7511965,0.96619,0.4707949,0.5741867,0.590972,0.1339272,-0.02578129,-0.4648054,-0.5862016,-0.9577204,-1.006748,-1.262715,-1.883336,-1.510118,-1.894953,-2.260523,-2.309762,-2.606878,-2.764168,-2.927115,-2.595303,-3.68158,-3.17647,-3.536587,-3.619212,-3.734181,-4.026135,-4.272943,-3.879249,-3.875098,-4.123862,-4.287985,-4.220616,-4.279481,-3.972929,-4.161149,-4.129429,-4.402936,-3.861353,-4.13762,-3.550669,-4.040026,-3.567529,-3.363715,-3.616206,-3.058354,-3.331755,-3.134199,-2.952108,-2.539373,-2.056235,-2.104199,-1.979158,-1.774917,-0.9790136,-0.9921854,-0.8508852,-0.4296736,-0.2145002,0.3877511,0.4093147,0.5819459,0.9008709,1.302265,1.891344,1.985381,2.058678,2.78419,2.844428,3.392282,3.470274,3.576662,3.261471,3.85237,3.768957,3.82986,3.872151,3.662614,3.90945,3.495973,3.964608,3.206766,3.531291,2.748398,3.332476,2.432953,2.582031,2.521342,1.948217,2.538676,2.406351,2.219086,2.155916,2.366291,2.218342,1.854987,2.039963,1.431359,1.775922,1.276258,1.813429,1.168215,1.314684,0.8429536,1.296975,1.226486,1.135341,1.159929,0.9378282,1.326595,0.8428924,1.337108,0.6700951,0.943549,0.8467578,0.9721919,0.670155,0.6195447,0.5300864,0.4812908,1.022895,0.6558019,0.757047,0.5366026,0.4941305,0.6493196,0.6887783,0.4839292,0.5442789,0.236626,0.5380764,0.1148277,0.3707038,-0.3660155,0.1411078,0.0088561,0.1738603,-0.05448472,0.3332918,0.1407685,0.1252497,0.2013003,0.3344318,-0.1587017,0.2425276,-0.08290689,0.2684344,-0.3522497,-0.027136,-0.06145155,-0.113451,0.00724554,0.1013451,-0.06724641,-0.2688976,0.009901204,0.3937992,-0.02306856,0.4000225,0.3117234,0.5705683,0.3727443,0.4382394,0.1856238,0.5467088,0.5198037,0.3640805,0.7189838,-0.05387716,0.6859034,0.007604618,0.9156059,0.3580918,0.3678457,0.4628694,0.5997858,0.4006254,0.4747932,0.2856444,0.1802602,0.306581,-0.007978231,0.0673651,0.06076044,-0.3216099,-0.206055,0.02834081,-0.2117138,-0.3197199,-0.3184402,-0.1231919,-0.2178413,0.0216912,-0.1959767,-0.14194,-0.1965187,-0.009591566,-0.09307868,-0.2784921,-0.1372376,-0.08796775,-0.308284,-0.05686944,-0.4454975,-0.5874491,-0.4745856,-0.4363053,-0.4387193,-0.5441962,-0.8667894,-0.6276613,-0.7978553,-0.7246462,-0.7704249,-0.7186357,-0.6376069,-0.702138,-0.6196866,-0.9137465,-0.6537179,-0.93905,-0.1477598,-0.7596926,-0.3929034,-0.4878226,-0.271255,-0.2918057,-0.3042056,-0.3556188,-0.06552344,-0.002557107,0.03495288,-0.1181364,-0.2052546,-0.093245,-0.3451903,-0.2135103,-0.09664057,-0.3152195,-0.3936779,-0.4227984,-0.07440376,-0.1236124,-0.3241838,0.2179112,0.1559264,0.1817425,0.02727788,0.003078647,-0.1462196,-0.6748425,0.002218002,-0.3274895,-0.474741,-0.2738777,-0.5742342,-0.1699715,-0.3796116,-0.3742668,-0.3364728,-0.3012237,0.05416318,-0.05194495,0.1227371,-0.09357742,0.1470485,0.7548763,0.2346563,0.9718993,0.382605,0.6392446,0.9109558,0.9205676,1.049013,1.29192,1.257139,1.476292,1.801743,1.409252,2.017852,1.559256,1.948279,1.674337,1.915246,1.685134,1.626054,1.298079,1.50845,1.54364,1.220196,1.25847,1.074765,1.261883,0.5515531,0.763286,-0.1126723,0.4108951,-0.4189854,-0.1468206,-0.4048084,-0.6737579,-0.2581126,-0.07783719,-0.2446461,-0.1005863,0.2947438,0.02417424,0.430897,0.4897691,0.2957072,0.2728722,0.3358335,0.3314752,-0.354817,-0.27748,-0.4485688,-0.7382198,-1.087936,-1.502357,-1.495083,-1.820769,-2.301702,-2.487689,-2.70895,-3.121687,-3.459211,-3.705967,-3.704069,-4.312366,-4.347837,-4.748471,-4.756192,-5.324049,-5.323571,-5.53044,-5.926362,-5.888998,-6.118221,-5.752437,-6.234627,-6.343283,-6.437496,-6.623964,-6.466858,-6.898341,-6.751642,-6.370184,-6.468453,-6.378417,-5.987509,-6.123918,-5.784262,-5.517109,-5.331837,-5.117394,-5.140731,-4.90573,-4.46143,-4.105077,-3.708695,-3.14526,-2.670425,-2.540116,-1.694678,-1.449891,-1.269719,-0.5457327,-0.1112613,0.4371063,0.9325651,1.376269,1.7639,2.145827,2.662249,3.131431,3.49755,4.125492,4.505332,4.872356,5.08297,5.849868,6.0843,6.535446,7.002659,7.431166,7.469063,7.771484,8.002799,7.937535,8.217202,7.664471,8.206271,7.951246,7.858725,7.921867,7.454028,7.664347,6.963941,7.164163,6.431973,6.199721,5.307211,5.042753,4.29075,4.026087,3.242397,3.09965,2.580077,2.674846,2.307198,2.188871,2.2055,2.164529,1.702456,2.012871,1.184945,1.350445,1.171298,1.085157,0.8301596,0.7375328,0.4056076,0.1858082,0.09198961,0.1440155,-0.02847784,-0.438269,-0.379252,-0.5128113,-0.2786679,-0.4708203,-1.289292,-0.3915855,-0.6846947,-0.4161181,-0.7255209,-0.5429327,-0.5836243,-0.5867531,-0.265141,-0.6361415,-0.3858391,-0.3517321,-0.2633266,-0.09105982,-0.3953727,-0.07062089,-0.5877698,0.03833979,-0.4806447,-0.3009891,-0.760515,-0.5121683,-0.4831727,-0.459086,-0.5569655,-0.6851528,-0.9297829,-0.7682493,-0.6476682,-0.8538862,-1.021961,-0.9107604,-1.043796,-1.11018,-0.7974129,-1.50911,-1.206186,-1.210071,-1.070919,-1.260871,-1.695025,-1.255972,-1.731089,-1.128298,-1.266928,-1.335964,-0.9347662,-1.258619,-0.6692591,-0.9632184,-1.148924,-1.201246,-0.7861408,-0.8296777,-0.7818295,-1.227108,-1.18897,-1.010486,-0.9128689,-0.8153518,-1.014021,-1.087676,-0.8496478,-0.7435183,-0.8443281,-0.6121043,-0.9373552,-0.3904322,-0.7444549,-0.1819349,-0.2331578,-0.1828601,-0.303454,0.1115794,-0.06373093,-0.01051404,-0.3470758,0.09006677,-0.4588877,0.04629022,-0.5758039,-0.2351553,-0.8042179,-0.2372925,-0.897322,-0.5359551,-0.7127005,-0.713525,-0.4843331,-0.2758583,-0.7071029,-0.8152128,-0.8271274,-0.3386278,-0.7460413,-0.5248723,-1.049734,-0.9266178,-1.140057,-1.201009,-1.406672,-1.299531,-1.532551,-1.427462,-1.32435,-1.532608,-1.172521,-1.536716,-0.618108,-1.248531,-1.085716,-0.5122284,-1.132823,-0.5506184,-0.6913234,-0.3411956,-0.4270594,-0.4711421,0.1107602,-0.223649,-0.04348692,0.06522077,-0.1353112,0.3867453,0.0006773934,0.355529,0.08750992,0.6283543,0.1642299,0.6827094,0.8465215,0.8424045,0.723841,1.029143,1.007745,1.134361,0.8646695,0.9883677,1.322797,1.310977,1.187468,1.022617,1.258974,1.176335,1.612702,0.8531017,1.487089,1.491682,1.374603,1.59567,1.317474,1.43196,1.073154,2.01014,1.557459,1.576332,2.09177,1.239604,1.77008,1.45965,1.152518,1.193497,1.137723,0.8785685,1.140806,0.7690707,0.7744817,0.7462356,0.2773686,0.6960197,0.5981439,0.2392146,0.4311488,0.372092,0.6145161,0.3768936,0.4345683,0.6526298,0.3871603,0.7564369,0.5326934,0.488806,-0.03553182,0.4977696,0.1237843,0.1182571,0.03337154,-0.4223182,-0.3600023,-0.2114784,-0.5400094,-0.5209954,-0.9944662,-0.4692819,-0.9137369,-0.2832519,-1.038218,-0.7312213,-1.22079,-1.179835,-1.543093,-1.623304,-1.477737,-1.644575,-1.983756,-1.694486,-1.603486,-1.280084,-1.444138,-0.6724356,-0.385024,-0.2738445,0.003597089,0.04429443,0.8270014,0.8341841,1.349202,0.7526923,1.48885,0.8444892,1.680698,1.398974,1.102302,1.711813,1.500839,1.705814,1.20768,1.339635,1.180507,0.8135296,0.8410949,0.8156051,0.2577209,0.3880118,-0.3725753,0.3039109,-0.2838485,-0.4748607,-1.034652,-0.7337333,-1.115082,-1.294635,-1.688276,-1.785742,-1.928102,-2.420736,-2.326002,-2.906995,-2.661245,-3.002671,-3.133718,-3.265879,-3.414374,-3.841163,-3.369059,-4.330485,-3.615111,-4.265836,-4.514977,-4.500245,-4.445991,-4.423878,-4.406515,-4.273372,-4.464192,-4.081564,-4.285445,-4.389083,-4.447479,-4.182214,-4.124574,-3.596649,-3.784513,-3.637226,-3.176269,-3.220558,-2.942768,-2.466471,-2.76463,-1.898821,-1.570918,-1.452905,-0.9840068,-0.6055793,-0.253032,0.0001775746,0.8616176,0.8012168,1.085925,1.519726,2.008619,2.143735,2.435243,2.599844,2.837323,3.32395,3.493782,3.497529,3.663291,3.828462,4.155946,4.109232,3.978806,3.985882,3.664832,3.925571,3.71686,3.442699,3.028524,3.103812,2.897219,3.286912,3.099702,3.108473,2.828698,3.598066,3.451814,3.72563,3.293982,4.009674,3.481333,3.801917,3.998482,3.317645,4.138373,3.337996,4.213469,3.534831,3.603342,3.483332,3.646758,3.663186,3.504893,3.661087,2.957033,3.348657,3.046515,3.156343,2.667223,2.817455,2.517142,2.511544,2.499127,2.033032,1.643614,2.32884,1.351246,1.648228,1.229441,1.094607,0.7173349,0.828602,0.5469013,0.4259783,-0.348472,3.203536e-05,-0.1901484,-0.3722564,-0.3810141,-0.9703604,-0.8412303,-0.7747523,-1.225686,-1.150829,-1.311132,-1.83257,-1.042337,-1.507175,-1.093202,-1.352481,-1.39258,-1.003013,-0.7353601,-1.085853,-1.159523,-0.7776635,-1.076766,-0.7095758,-0.6592452,-0.774064,-0.5813471,-0.6007534,-0.4696076,-0.4141867,-0.3792736,-0.7498156,-0.06033667,-0.3445788,-0.199244,-0.3416714,-0.04874642,-0.2619746,0.04593271,-0.1096398,-0.3777082,-0.1714187,0.3351184,-0.03793818,0.4940119,-0.2144201,0.02775522,-0.06205544,0.2191751,-0.1700169,-0.1766643,-0.4780427,-0.327514,-0.411071,-0.2987666,-0.6584427,-0.7983122,-0.7864065,-0.6274274,-1.025198,-0.8860363,-1.205394,-1.418776,-1.014483,-1.642469,-1.485886,-1.968978,-1.239938,-1.839442,-1.678103,-1.92805,-1.800141,-2.149073,-1.514117,-2.07115,-1.857819,-2.25578,-1.398325,-1.773269,-1.64028,-1.3646,-1.820531,-1.054392,-1.2836,-1.008559,-0.8618093,-0.7324797,-0.3874487,-0.1483722,0.1840403,-0.2437284,0.5790992,0.3900617,1.120671,1.256567,1.355163,1.397731,1.497397,2.276477,1.970581,2.067186,2.272608,1.831707,2.51303,2.085157,1.621936,1.875121,1.685544,2.017598,1.500188,1.297984,1.398999,0.7676324,1.412912,0.7783055,0.7993489,0.586795,0.3730789,0.1716667,0.5159502,0.04790682,-0.4013744,-0.002924895,-0.1934693,-0.3853683,-0.5495357,-1.300471,-0.6305405,-1.354253,-1.187166,-1.327111,-1.421141,-1.937318,-1.206219,-1.504651,-2.096626,-2.212267,-2.399045,-2.502744,-2.216257,-2.594077,-2.849284,-2.36173,-2.909243,-2.373789,-2.730257,-2.528827,-2.756248,-2.29032,-2.213521,-2.236396,-1.922298,-2.126526,-1.810705,-1.631577,-1.936278,-1.628646,-2.027522,-1.515202,-1.907234,-1.379868,-1.669734,-1.208136,-1.139832,-0.9987307,-0.8393861,-0.8817116,-1.042252,-0.6973829,-0.8791103,-0.5875963,-1.107089,-0.6345317,-0.6943033,-0.6026808,-0.1968938,-0.4392711,-0.008641009,0.009030552,0.8297703,0.9495158,0.9700514,1.236798,1.799339,2.058882,2.422397,2.372158,2.264014,2.353084,2.669614,2.476297,2.261939,2.335124,2.280885,2.624436,2.062654,2.702049,1.650184,2.189087,2.10684,1.757515,2.038729,1.272632,1.402408,1.106794,1.198073,0.5266602,0.5407308,0.4020547,-0.02362407,-0.04170821,-0.4168721,-0.8693877,-0.8946445,-1.313752,-1.403797,-1.5481,-2.487939,-2.20479,-2.621227,-2.783168,-2.845467,-3.234621,-3.23302,-3.403449,-3.171987,-3.585512,-3.999047,-3.954382,-4.047869,-3.731078,-4.452586,-4.042097,-4.502928,-4.262007,-3.943325,-4.235625,-4.046589,-4.141963,-3.525383,-3.545566,-3.410763,-3.674002,-3.465292,-3.217859,-3.093576,-2.92741,-2.659192,-2.431568,-1.74676,-1.710751,-1.072147,-1.131325,-1.062394,-0.1061959,0.07322023,0.5999856,0.7709788,0.9609376,1.770648,2.123763,2.312017,2.476238,3.078449,3.001592,4.050813,3.826977,3.958944,4.244692,4.3748,5.023682,4.813497,4.780895,4.642955,4.760279,5.126072,4.538325,4.294443,4.403261,4.102828,4.198924,4.18498,3.796966,3.603758,3.903313,4.08709,4.157958,3.825936,4.204144,3.794401,4.136364,4.149887,3.89082,3.628979,4.066548,3.646182,3.983262,3.387431,3.68747,3.486742,3.471245,3.452373,3.062353,3.017147,3.048535,2.678363,3.086479,2.149042,2.418237,2.020807,2.091153,1.949953,1.847928,1.552977,1.730076,1.794047,1.595538,1.675805,1.088809,1.093928,1.354994,0.7696782,0.8110914,0.4325165,0.2267912,0.4219625,0.06997032,-0.06172486,-0.1469623,-0.5358634,-0.4079938,-0.2885421,-0.5924265,-0.9996713,-0.8002218,-0.9660506,-0.9273518,-1.149224,-1.215891,-1.299485,-1.338797,-1.77977,-1.339028,-1.797409,-2.096674,-1.666461,-2.114994,-2.157833,-2.253324,-2.508251,-2.32559,-2.027245,-2.289088,-2.423791,-2.170068,-2.293603,-2.257099,-2.043217,-2.340888,-2.51036,-2.179728,-2.366613,-2.755378,-2.449817,-2.704731,-2.685646,-2.429523,-2.765357,-2.766348,-2.833204,-2.860102,-2.944469,-2.639992,-3.114546,-3.078344,-2.761503,-3.106325,-2.955022,-3.194601,-3.182454,-3.066804,-2.948313,-2.922514,-3.075252,-3.312629,-2.953212,-3.034178,-2.758163,-2.994071,-2.771031,-2.907207,-2.33837,-3.036147,-2.394731,-2.596411,-2.463685,-2.176804,-2.333535,-2.147121,-2.536585,-1.789112,-1.856138,-1.529359,-1.592488,-1.303134,-1.417951,-0.694965,-1.053354,-0.5206033,-1.009318,-0.8024885,-0.5189254,-0.3630288,-0.4145558,-0.5145894,-0.3184689,-0.1197824,0.1177008,0.1503617,0.1877665,0.5032439,0.6291848,1.070873,0.837486,0.9244665,0.7275908,1.160871,1.279458,1.347776,1.140889,1.479642,1.240299,1.719711,1.525703,1.385864,1.47239,1.417127,1.696419,1.430276,1.554955,1.106182,1.698089,1.381417,1.483431,1.327904,1.270383,1.262422,1.295457,0.9551812,1.102346,0.4281332,1.126755,0.9297524,1.117398,0.6787664,1.150208,0.6019613,1.791144,1.085918,1.620426,1.268236,1.789398,1.675709,1.975696,1.81082,2.009577,2.092874,2.384092,2.411367,2.36618,2.315547,2.338216,2.71449,2.750833,2.349109,2.510747,2.413085,2.710503,2.213829,2.550438,1.998337,2.158922,2.247067,2.157821,2.114959,2.119574,2.279078,2.197233,2.228656,2.156406,2.091695,2.140319,1.965223,2.076367,1.978657,1.79275,1.898645,1.795333,1.843383,1.844074,1.215695,1.409357,1.299928,1.626904,1.49695,1.432985,1.424681,1.607548,1.569166,1.469706,1.484945,1.32632,1.392819,1.353657,1.21137,1.17745,0.7838396,1.049552,1.075335,1.435207,1.100876,1.182407,1.648164,1.298084,1.686352,1.377413,1.34271,1.729404,1.670061,1.44619,1.253093,1.163762,1.212137,1.241375,0.4993286,0.7681553,0.6141319,0.4549248,0.2003445,0.1559522,-0.2126788,-0.6513217,-0.7465887,-0.8531836,-1.313876,-1.675553,-1.992015,-2.11481,-2.253132,-2.718725,-3.12483,-3.046685,-3.520772,-3.457536,-4.082382,-3.926883,-4.54468,-4.429186,-4.540999,-4.59157,-5.208345,-5.004723,-5.108494,-4.735493,-5.17306,-5.18745,-5.103134,-4.970999,-5.023906,-4.628388,-5.053911,-4.476983,-4.691426,-3.968939,-4.468263,-3.653475,-4.157232,-3.589626,-3.351793,-3.359122,-3.203753,-3.092545,-2.938713,-2.713985,-2.467744,-2.287927,-2.368512,-1.991467,-1.96035,-1.414495,-1.610486,-1.21506,-1.01863,-0.5835495,-0.2728369,0.02900673,-0.1144994,-0.01806365,0.5864718,0.7788008,1.057471,0.9318489,1.228218,1.596092,1.713316,1.732082,1.938972,1.86142,2.204297,2.311689,2.356518,2.256863,2.633998,2.471094,3.116102,2.750523,2.707579,2.678299,2.635114,2.895779,2.630838,2.43027,2.15744,2.758144,2.106958,2.327808,1.837767,2.262698,2.437623,2.801327,2.036887,2.729605,2.420332,2.361925,2.962755,2.707572,2.609823,2.807943,2.434492,2.838761,2.612875,2.658136,2.452056,2.550955,2.466861,2.801731,2.16344,2.423822,2.151311,2.468508,1.951364,2.133062,1.781773,1.929847,1.637379,1.822083,1.548603,1.304097,1.514465,1.228226,1.543937,0.6978685,0.8557835,0.5946559,0.9242812,0.7969265,0.2679289,0.1425174,0.1190811,-0.03174518,-0.06424261,-0.2246468,-0.3495876,-0.4809853,-0.5444731,-0.3836426,-0.1734637,-1.023066,-0.2763106,-0.9552872,-0.4863965,-1.025465,-1.025207,-0.9090542,-1.210488,-0.8832798,-1.365219,-1.145401,-1.344129,-1.134395,-1.008759,-1.181413,-1.306515,-0.9965883,-1.10104,-0.80471,-1.201042,-0.9353163,-1.066392,-0.8421553,-0.9539996,-0.9594547,-1.082888,-1.247919,-0.8266262,-1.066282,-1.172337,-0.9276094,-1.067861,-0.8344382,-0.6634547,-0.7479012,-1.096356,-0.8992475,-0.7838883,-0.6828348,-0.6644912,-0.6115275,-1.030235,-0.2338364,-0.7352412,-0.7747897,-0.523542,-0.9289118,-0.4217526,-0.4310542,-0.5038045,-0.708809,-0.6550805,-0.4124953,-0.8363444,-0.582955,-1.201998,-0.888689,-1.753029,-1.056603,-1.628058,-1.357742,-1.726751,-1.568924,-1.829175,-1.222956,-1.972198,-1.768182,-1.281149,-1.772505,-1.474398,-1.485287,-1.666149,-1.316048,-1.310486,-1.388399,-1.587154,-1.450847,-1.612425,-1.40442,-1.222918,-1.34381,-1.337782,-1.021327,-1.10208,-0.5588947,-1.115222,-0.7842222,-0.7961095,-0.4307982,-0.5495784,-0.2931362,-0.2747709,-0.1473178,0.006669805,0.3186513,0.1977683,0.3571386,0.2655999,0.6202066,0.6052229,0.4720687,0.7408209,0.6605458,1.144257,0.9700583,1.025894,1.060277,1.004036,1.301029,1.371843,1.0363,1.212083,1.110641,1.346433,1.303728,1.334985,1.329248,1.339646,1.322005,1.717549,1.256218,1.460986,1.134393,1.303745,1.508077,1.147674,1.144381,0.608611,1.2014,0.8894132,0.8743793,0.437504,0.3738597,0.406694,0.499734,0.3101338,0.09222964,0.221142,0.03696085,0.3401231,0.2612221,-0.1004081,0.07008937,-0.06386932,0.0567454,-0.3502771,0.113756,-0.179349,0.08103068,-0.05405541,-0.0467071,-0.1620282,-0.1577097,-0.3235343,0.1083893,0.1714649,-1.411615,-0.3248747,1.215824,1.490394,0.6505856,-0.4432526,0.4247089,1.400557,1.740659,0.3485522,-0.6952778,-0.4414497,0.8847657,1.478579,0.1508352,-0.8157105,-0.3582946,1.290367,1.863578,0.9751386,0.2137583,0.6816809,1.851046,3.164767,1.898761,0.955813,0.7904152,2.440005,2.75194,2.200001,0.7937035,0.6459253,2.016413,2.873691,1.725558,0.6950332,0.01009725,1.398406,2.046161,1.018079,-0.277907,-1.010412,0.1801553,1.042946,0.208741,-1.531784,-1.919162,-1.322622,-0.240417,-1.463886,-2.759667,-3.335965,-2.364986,-2.031452,-2.343284,-4.086024,-4.810253,-3.851145,-3.180749,-3.561871,-5.309005,-5.924005,-4.813372,-4.024613,-4.302646,-5.735015,-6.35309,-5.50796,-4.169133,-4.651535,-5.522976,-6.397543,-5.488627,-3.777777,-3.973444,-4.904842,-5.670613,-4.516536,-2.867458,-2.969843,-3.876126,-4.328534,-3.210229,-1.702382,-1.473028,-1.86343,-2.634214,-1.344797,-0.1332281,0.9075577,-0.4029939,-0.6421298,0.1125119,2.078047,2.432795,1.810603,1.050975,2.089241,3.534103,4.222148,3.498507,2.620905,3.193694,4.812117,5.567819,4.643043,3.693701,4.238758,5.654343,6.034382,5.304902,5.920571,5.800102,5.963775,5.565047,5.405327,5.017908,4.866637,4.306158,4.718699,4.011877,4.085456,3.561282,4.014956,3.496102,3.620205,3.499424,3.319748,3.184912,3.471241,3.037597,2.78258,2.846506,2.509924,2.093503,1.933368,1.823064,1.57013,1.16025,1.355703,0.7260288,0.7654924,0.5081558,0.7520098,0.5747253,0.2375883,0.1796518,0.09532315,0.2526454,0.003483659,-0.02017121,-0.1022264,0.08976465,0.2888936,-0.02474528,0.3117587,-0.1179906,-0.05020223,0.2837788,-0.1361365,-0.007290843,-0.293433,-0.2926672,-0.1919827,0.02008221,-0.5049529,-0.2561757,-0.4695332,-0.2197716,-0.3171542,-0.4784723,-0.5012562,-0.6680232,-0.6090913,-0.3406283,-0.4417466,-0.695479,-0.5325728,-0.3767702,-0.4521113,-0.2306154,-0.5751194,-0.329875,-0.3564777,-0.3831121,-0.4171684,-0.4711865,-0.8355171,-0.5661381,-0.7987209,-0.8751473,-0.9833798,-1.188703,-1.075784,-1.345112,-0.94597,-1.781881,-1.405217,-1.893731,-1.420473,-1.550759,-1.759414,-1.693154,-1.625532,-1.926047,-1.328768,-1.883687,-1.767408,-1.803209,-1.885453,-1.653691,-2.144174,-2.143138,-2.027029,-1.904369,-2.167314,-1.925162,-2.808471,-2.116585,-2.56102,-1.996995,-2.509125,-2.650803,-2.587847,-2.735948,-2.23812,-2.712405,-2.425054,-2.55913,-2.226418,-2.433052,-2.107263,-2.72585,-2.00003,-2.330019,-2.203758,-2.107359,-2.59765,-1.696248,-2.337629,-1.762717,-2.136259,-1.824517,-2.036863,-1.40147,-1.721702,-1.110487,-1.835894,-0.9652009,-0.9769132,-0.7187264,-0.5990569,-0.5792872,-0.2489157,0.1908135,0.02926706,0.6980921,0.6011891,0.7713505,1.111445,1.49004,1.298922,1.498825,1.381588,1.63059,1.95616,1.525818,1.659018,1.6409,1.554389,2.022764,1.555926,1.628555,1.678708,1.513951,1.700408,1.630904,1.730422,1.483939,1.684152,1.607565,1.883442,1.550068,1.749605,1.826021,1.966735,1.660818,1.853363,1.484858,1.722876,1.844829,1.626842,1.621496,1.507061,1.498233,1.749349,1.24759,1.308148,1.31044,1.155354,1.569362,1.253204,1.181047,1.016379,1.255732,1.753618,1.282692,1.707229,1.293529,1.736066,1.907152,1.534088,1.839912,1.606831,1.770307,2.079451,1.682816,1.803642,1.69469,1.72224,1.924135,1.662553,1.909014,1.756882,1.827841,1.546903,1.496914,1.014672,1.217119,0.6469601,1.090697,1.23507,0.8905279,0.9313889,1.43279,1.686215,1.895732,2.049744,1.856519,1.72695,2.629091,2.166016,1.924878,2.17802,1.838129,1.908707,2.100085,1.791486,1.602893,1.341103,1.56195,1.433781,1.197869,-1.273673,0.9588406,1.122984,1.346107,-1.068743,-1.029682,-0.7101776,0.7251314,-0.2582928,-1.511404,-2.519958,-1.369102,-0.8050179,-0.6219213,-2.641718,-3.695778,-2.348906,-2.033165,-1.695398,-3.402688,-4.569868,-3.286181,-2.5947,-2.486751,-4.291852,-5.037194,-4.490095,-3.423806,-3.641798,-4.943853,-5.498306,-5.475023,-3.64215,-3.684377,-4.80706,-6.104951,-5.019809,-3.834013,-3.508463,-4.772159,-5.575975,-5.06381,-3.524675,-2.977022,-4.028109,-5.251991,-4.125218,-2.954952,-2.233786,-2.860534,-4.169493,-3.389601,-1.608525,-1.093211,-1.13568,-2.534035,-1.446518,0.1028865,1.24427,0.2839519,-0.09120532,0.354799,2.428197,2.971883,2.757228,1.477613,2.205415,3.878233,4.762158,4.474865,3.011605,3.516753,4.746204,6.095133,5.103833,4.204273,3.822288,5.217213,5.943029,5.02803,3.493967,3.091711,3.746104,4.948168,3.959113,2.389994,2.078129,3.481303,4.471929,3.225147,2.421913,1.845271,3.01953,3.789645,3.092324,1.381051,0.8071333,2.118075,2.422917,2.016582,0.4647468,-0.4135137,0.2401497,1.728021,0.3371243,-0.736732,-1.723118,-0.988283,-0.112183,-0.5218922,-2.098577,-0.6309371,-1.654558,-1.214141,-1.845379,-1.784609,-2.050418,-2.027066,-2.2471,-2.10475,-2.671596,-2.4096,-2.547595,-2.00089,-2.684704,-2.224376,-2.364204,-2.016696,-1.698013,-2.278279,-1.960588,-1.727444,-1.64807,-1.33944,-1.651648,-1.061702,-1.509867,-1.059003,-0.6320894,-0.5797831,-0.5404444,-0.4159514,-0.1330236,0.2181174,0.05653317,-0.003914274,0.241609,0.348643,0.6925308,0.8165584,0.6399431,0.550311,0.8307586,1.485791,0.695979,1.057888,0.9082522,1.180602,1.267616,1.528765,0.9444854,1.597695,1.36797,1.621474,1.814692,1.356882,1.698563,1.519511,2.019193,1.398,2.075847,1.059333,1.806002,1.119038,1.511221,1.02038,1.180031,0.8301264,1.238301,0.6314383,0.8208805,0.2320697,0.2811048,0.3718823,0.263798,0.1322697,-0.3251219,-0.1472285,-0.4660192,-0.1294642,-0.876498,-0.5714197,-0.9349675,-0.6257257,-1.050448,-0.8073181,-1.385056,-1.498255,-1.296668,-1.545197,-1.604352,-2.063601,-1.764264,-2.319957,-1.71019,-2.469081,-1.861656,-2.358652,-1.986405,-2.323565,-1.777916,-2.680897,-2.129502,-2.16221,-2.083003,-1.741775,-2.218559,-2.11977,-1.871843,-1.765976,-2.0432,-1.997558,-1.830374,-1.808576,-1.453529,-1.586896,-1.554632,-1.557202,-0.9657586,-1.125356,-0.8556229,-0.6797146,-0.3403037,-0.03964247,0.2967949,0.2481068,0.2531866,0.436188,0.4590358,0.9752822,0.9273744,1.074158,1.272399,1.035471,1.39155,1.7202,0.9063715,1.554855,1.155901,1.566668,1.362043,1.212276,0.9315599,1.087981,0.7430993,0.8760074,0.5273285,0.7803916,0.2105477,0.4824342,0.1135814,0.08105327,-0.1176715,0.08306238,-0.7309572,0.3646642,-0.6440004,-0.2288742,-0.669148,-0.1726931,-0.560872,-0.6447739,-0.8757097,-0.6353252,-0.5104952,-0.5302282,-0.2879307,-0.5128099,-0.1936575,-0.1700348,-0.07203641,-0.3941406,0.08416999,-0.3401235,0.3009849,0.08486344,0.07744431,0.2289505,0.3531296,0.2428646,0.8514511,0.07701164,0.4164742,0.4872542,0.4704288,0.5389442,0.7141876,0.384119,0.7772025,0.7049825,1.361275,1.619718,1.419073,1.740297,2.587347,2.37587,2.803118,2.779315,3.333078,3.166077,3.464004,3.727452,3.676614,3.416664,4.001165,3.843436,3.989896,3.364567,3.578391,3.251024,3.482545,2.678921,2.879597,2.517355,2.003918,2.050048,1.247681,1.061897,0.3536813,0.1250261,-0.1265334,-0.3266899,-1.200789,-1.436166,-1.270758,-2.102943,-1.878059,-2.567154,-2.685619,-3.087995,-2.801646,-3.127952,-3.311955,-3.699087,-3.669771,-4.209732,-3.762829,-4.638574,-3.993413,-4.151132,-4.023621,-4.027936,-4.000376,-4.318307,-3.812167,-3.847806,-3.783928,-3.700172,-3.369503,-3.614745,-3.426072,-3.234606,-2.953587,-3.186778,-2.802576,-2.181046,-2.177856,-1.741785,-1.998517,-1.242635,-1.017947,-0.5302158,-0.7123465,0.2102593,-0.1695733,1.230119,0.2683334,1.495044,0.9944093,1.647924,1.830014,1.844658,2.530855,2.550171,2.692819,3.131219,3.50299,3.250572,3.38662,3.498856,3.346164,3.807695,3.529137,3.21171,3.284195,3.215274,2.940967,3.222953,2.100698,2.372114,1.823061,1.602379,1.010191,0.928849,0.2406986,0.3503459,-0.05506593,-0.1769898,-0.316004,-0.4691627,-0.02399302,-0.5675368,-0.05255208,-0.5434151,-0.09862129,-0.6855571,0.2050714,-0.5092594,-0.4855545,-0.338281,-0.4158698,0.006658393,-0.499673,-0.1336148,-0.3054656,0.194478,-0.2558176,0.2133683,-0.1132421,0.07536377,0.135943,0.4088573,0.2789942,0.3337387,-0.1056415,0.5898571,0.1871996,0.4127946,0.3082785,0.4523917,0.2391434,0.6616608,0.329755,0.509825,0.4512035,0.02743468,0.6586812,-0.2439122,0.5943352,-0.4797518,0.3496642,-0.04812845,-0.05484771,-0.215808,-0.1648675,-0.5668824,0.04084136,-0.5943,0.1144369,-0.6427229,-0.2664481,-0.6774389,-0.1220028,-0.4638885,-0.5248184,-0.5826365,0.07021931,-0.2002706,-0.2854829,-0.5986431,-0.1669161,0.2364989,0.1646088,0.1343176,0.5321803,0.4376185,0.510692,0.9964519,0.6407335,1.133597,1.151206,1.392909,1.498992,1.76521,1.457169,1.90946,1.796012,2.001598,1.859143,1.926523,1.653036,2.031247,1.93765,2.042974,1.859901,1.848584,2.353885,2.091509,2.159377,2.218631,1.915029,2.466154,1.915626,2.159305,1.771758,1.606691,1.805897,1.652875,0.8916181,1.010953,0.27824,0.2277495,0.1985812,-0.06418997,-0.4673117,-0.9204012,-0.5545839,-0.8464626,-0.9132883,-1.33195,-1.193528,-1.194139,-1.150857,-1.757646,-1.653244,-2.027525,-1.658853,-1.783324,-2.069468,-1.613523,-2.283483,-1.770947,-2.058676,-1.674581,-2.168111,-1.995749,-2.17457,-1.738321,-1.806364,-1.830509,-1.774856,-1.567698,-1.5126,-1.471763,-1.181491,-1.536137,-0.8436032,-1.100749,-0.6861792,-1.03805,-0.8895128,-0.7014419,-0.5525958,-0.4774315,-0.5708256,-0.5122256,-0.3680003,-0.6297814,-0.1430074,-0.8475708,-0.1362968,-0.8415432,-0.7198661,-0.3022617,-1.191773,-1.052512,-1.227403,-1.144502,-1.141628,-1.614741,-1.38448,-1.659725,-1.271836,-1.848923,-1.700194,-2.094945,-1.786526,-2.267276,-1.906805,-2.25592,-2.255967,-2.342534,-2.627988,-2.686012,-2.816597,-3.211987,-2.77016,-2.892534,-3.061144,-2.700723,-3.147619,-2.834583,-2.629521,-2.901445,-2.523352,-2.815037,-2.648017,-2.602981,-2.358011,-2.414802,-2.480672,-1.878145,-1.149734,-0.08140886,-1.818384,-2.106909,-1.084201,0.3725836,0.3782295,-0.4755337,-1.374969,-0.06842934,1.167961,1.539834,0.4464178,-0.1305498,0.7658375,2.109034,2.328694,1.510575,0.7656666,1.44207,3.452399,3.579527,2.831241,1.833465,2.75049,3.888221,4.924667,3.491749,2.750101,3.095979,4.600828,5.173038,1.942062,5.01351,5.518059,6.401755,5.053351,4.283682,4.736271,6.203213,6.514681,5.441634,4.256181,4.547961,6.377224,6.132408,4.991047,3.729176,3.896229,4.943299,5.26385,3.541224,2.656881,1.708882,3.884361,2.879393,2.612182,0.05660288,0.3632258,0.9141888,1.330173,-0.4960805,-2.043675,-2.704811,-1.732529,-1.561269,-2.789595,-4.431957,-4.846684,-4.185576,-3.583897,-4.42207,-6.769082,-6.264725,-5.861435,-4.609789,-5.927385,-7.233692,-7.639618,-6.57622,-5.598632,-6.323952,-7.545159,-8.128565,-6.806868,-5.518061,-6.11109,-8.20975,-7.555834,-7.137487,-5.335305,-5.72541,-6.607097,-6.809499,-5.127366,-3.942957,-3.682541,-4.757962,-4.542385,-3.320948,-1.461131,-1.81052,-1.807594,-2.816817,-0.7324733,0.6735868,1.070988,0.4050916,0.1701615,1.698266,3.68205,2.823337,1.329239,2.016706,4.372855,5.414659,4.413214,3.152897,3.612634,5.795861,6.758343,5.761477,4.624119,4.496491,6.472698,7.816565,6.289862,4.942967,4.594656,5.922315,7.530741,6.069234,3.866759,3.56833,4.640842,5.965639,4.708319,2.471985,2.042822,3.279639,4.730676,3.670525,1.464647,4.025027,1.985251,2.81781,1.974587,1.856747,2.141242,1.798131,1.756589,1.732274,1.359726,1.350026,1.314576,0.7952759,1.028701,1.098274,0.8854742,0.7116134,1.120308,0.3118272,1.362539,0.1703843,1.211041,0.1479623,1.026733,-0.1403078,0.6135737,-0.1443778,0.3894446,-0.1734554,0.1355023,-0.04092604,0.2911153,-0.09946402,0.1570307,-0.1611591,0.05040991,-0.2306544,0.1837894,-0.2241922,-0.0007708129,-0.04396467,-0.1043576,-0.246459,0.03016845,-0.4112905,-0.1908057,-0.2011795,-0.1679139,-0.4836972,-0.5652725,-0.7129667,-0.3818948,-0.6054112,-1.192577,-0.817619,-0.8165873,-1.0533,-0.8650042,-1.083441,-1.083593,-1.355636,-1.24091,-1.38354,-1.382119,-1.617624,-1.286574,-1.693925,-1.383819,-1.61067,-1.527623,-1.726695,-1.41127,-1.472162,-1.396466,-1.81152,-1.312851,-1.465753,-0.8629863,-1.235963,-0.9873817,-1.009545,-0.900158,-0.9149377,-0.316762,-0.9938659,-0.3882039,-0.5200212,-0.2999624,-0.1857474,0.1421654,-0.2699096,0.2118036,0.1990955,0.04834729,0.3761637,-0.1235813,0.6770914,0.4077884,0.6543771,0.03494712,0.9429215,0.2621275,0.8765365,0.3540131,0.9856427,0.1104413,0.4881889,0.8680309,0.2473096,0.5669116,0.4321915,0.3783813,0.6442267,0.3012477,0.5727514,0.574117,0.3077045,0.3899904,0.2114528,0.08948975,-0.1488899,-0.2076397,0.08740349,0.1267947,-0.1731849,-0.5193024,-0.2890797,-0.1772138,-0.5712304,-0.3198892,-0.9330633,-0.8498852,-0.6008013,-0.9365911,-1.185849,-1.208227,-0.9776248,-1.217648,-0.8560807,-1.143928,-1.120981,-0.9736937,-1.31134,-0.7079913,-1.407302,-1.027835,-1.154743,-0.8540957,-1.100683,-0.759002,-1.20497,-1.04147,-0.8139276,-0.6472666,-1.015739,-0.5986619,-0.9854031,-0.2480762,-0.4148235,-0.2652292,-0.3840864,-0.1924467,-0.6826159,-0.03917924,-0.1259389,-0.781017,-0.04372802,-0.5773258,0.02741011,-0.3405155,-0.3815465,-0.2843951,-0.028277,-0.3156317,-0.1865305,-0.283977,-0.2769919,-0.2038513,-0.1851344,-0.3849988,-0.2574207,-0.5641086,0.007370949,-0.7972656,-0.04385515,-0.3218083,-0.3438724,-0.3282998,-0.1880152,-0.8014048,-0.4615484,-1.011568,-0.4795613,-0.6572611,-1.002308,-0.3866023,-0.8422825,-0.4013986,-0.4320224,-0.08570424,-0.4651335,-0.2577478,-0.0527315,-0.2724534,0.1510286,-0.2425118,0.3609336,-0.2866109,0.2311573,-0.2559649,0.3191098,-0.3211963,0.03936261,0.2027202,0.4308177,-0.03320724,0.5753982,0.5123763,0.4594228,1.052632,0.5324649,0.6954222,0.6317108,1.062914,0.9630345,1.070305,0.7346911,1.281082,1.060793,1.86104,1.226086,2.568778,2.410267,3.086174,2.996366,3.584898,3.828026,3.580935,4.391183,4.0193,4.642835,4.129406,4.672993,4.417485,4.549989,4.265738,4.133133,4.080297,4.204322,3.817076,3.264792,3.470818,2.645844,2.711553,2.181437,1.724156,1.7141,0.7898206,0.8973883,0.2426488,-0.2878602,-0.6584509,-1.069993,-1.228797,-1.534019,-1.837763,-2.497266,-1.917113,-3.134618,-2.806961,-3.453646,-3.861641,-3.825848,-4.148138,-4.334314,-4.51076,-4.63308,-4.676813,-4.913572,-5.076351,-5.149148,-5.119641,-5.240663,-5.083049,-5.125861,-4.994967,-5.202194,-5.187156,-4.672509,-4.872553,-4.641624,-4.651923,-4.397287,-4.319967,-3.86594,-3.853185,-3.845084,-3.263429,-3.076117,-2.96561,-2.25425,-2.235164,-1.577271,-1.335302,-0.664154,-0.4678977,-0.2392504,0.3665678,0.6295094,2.684017,0.8086658,0.4523612,0.9761878,2.155107,3.341475,2.130437,1.436669,1.442047,2.8167,3.797309,2.820112,1.976382,1.739468,3.579033,3.695067,2.94734,1.450413,1.778129,2.431574,3.323786,2.018558,0.8603524,0.5540722,1.694984,2.329955,1.720788,0.2681567,0.1300806,1.365763,2.583653,1.944887,1.215423,0.3918406,2.12302,2.682558,2.691358,1.359926,0.6364873,2.472648,2.837393,3.076114,1.114157,0.9347955,2.277529,2.923305,3.043702,1.748663,1.325196,1.943521,3.297798,2.496006,1.850361,0.3525655,1.593161,2.148275,2.364491,0.5832991,-0.3530798,0.4693208,1.429948,1.149851,0.2300233,-1.182994,0.09377317,0.7408886,0.7842646,-0.4682307,-1.623049,-1.358783,0.2079327,0.01524425,-1.370694,-2.194094,-2.165203,-0.3655346,-0.6654626,-1.657502,-2.73178,-2.76882,-1.297767,-1.054835,-2.27997,-3.573744,-3.146913,-2.27467,-1.871718,-2.844337,-3.96661,-3.541177,-2.637817,-2.072513,-2.931541,-4.018251,-3.664621,-2.394026,-1.77358,-2.54159,-3.467514,-3.286468,-1.920763,-1.194174,-1.912887,-3.030904,-2.87733,-1.440646,-0.2967874,-1.055136,-1.81229,-2.053801,-0.3080977,-1.525517,-0.567981,-0.7889547,-0.6045456,-0.3302877,-0.593636,-0.3673948,-0.2478943,-0.3867995,0.04618685,-0.2688287,0.06263453,-0.2826653,0.09960714,-0.09744161,0.3098094,0.2764869,0.728926,0.2983097,0.7668552,0.6360409,0.7125396,0.6673044,0.4829718,1.138958,0.6523259,0.837764,0.7734153,1.074317,0.5901349,0.9539922,0.597008,0.8586835,0.9233511,0.7756484,1.048983,0.8019098,0.6297605,1.216638,0.8618476,1.426264,0.8444394,1.470051,1.268467,1.443441,1.497459,1.563273,1.43289,1.279119,1.536815,1.240474,1.49394,1.22338,1.351472,1.237236,1.637049,0.8323917,1.684488,1.089811,1.701794,1.047239,1.572996,0.8548304,1.479956,1.047022,1.162874,1.016127,0.8387083,1.144143,0.617165,1.165655,0.4358761,0.877459,0.7883846,0.6008976,0.9397393,0.6206863,0.6561551,0.2152366,0.7860816,0.49919,0.5145472,0.4981036,0.7150178,0.5397145,1.059771,0.930447,0.6544172,1.112902,0.8656147,1.185439,1.258503,1.560278,1.297787,1.473709,1.519952,1.735251,1.571825,1.558308,1.064176,1.772128,1.246338,1.408656,1.273115,1.64328,1.645671,1.181232,1.722459,1.236539,1.930711,1.257558,1.930643,1.401447,1.286467,1.528544,1.124952,1.543894,1.643802,1.003417,1.509977,1.282203,1.411742,1.348402,1.383184,1.017583,1.503749,1.138844,1.611937,1.164742,1.210104,1.12313,0.9959342,1.152677,0.5297141,1.165982,0.4610914,0.8701321,0.8811781,0.5908511,0.7217964,1.139754,1.113415,1.553475,1.581666,1.484738,1.850814,1.887158,1.968077,1.917336,1.723957,1.881982,1.671683,1.866725,1.575751,1.036505,1.368282,1.045775,0.7458807,0.1547559,0.3103402,-0.157581,-0.2047233,-0.4769141,-0.7693954,-1.166115,-1.151783,-1.364387,-1.403834,-2.192928,-1.99882,-2.609542,-2.365654,-2.973379,-3.005682,-3.637567,-3.760544,-4.140904,-4.535202,-4.929895,-5.461743,-5.176249,-5.941246,-5.663585,-6.368427,-6.708524,-6.650061,-6.877995,-6.830198,-7.360936,-7.09006,-7.29537,-7.188947,-6.871543,-7.234945,-7.292833,-6.943715,-7.319038,-6.765767,-6.475026,-6.868542,-6.243379,-5.990557,-5.69872,-5.757362,-5.51731,-5.09741,-4.816117,-4.485686,-4.255718,-4.159633,-3.215581,-3.473278,-2.319327,-2.219459,-1.834849,-1.232346,-0.8189025,-0.04856897,0.06178265,0.6335031,0.7578075,1.548602,1.379877,2.444782,2.430861,2.426141,3.538872,3.52718,3.425773,4.102891,4.122224,4.394821,4.510781,4.55876,4.664346,5.157865,4.983152,5.403147,5.131536,5.010087,4.762295,4.945279,4.924112,4.710998,5.139994,4.268957,5.557341,4.98731,5.136273,5.251309,4.997625,5.723293,4.882003,5.634515,4.876471,5.118664,5.14213,5.090343,5.093386,4.568548,4.824506,4.426575,4.3939,4.049207,3.864255,3.77366,3.623533,3.408879,3.096247,3.287341,2.466743,2.857258,2.430451,2.593683,2.304535,2.226009,1.840415,2.015041,1.55941,1.87451,1.266792,1.167449,1.364707,1.244972,0.5776795,0.7817592,0.3265373,0.3816735,0.2352919,-0.08871744,-0.3455455,-0.3826767,-0.5160334,-1.012264,-1.117389,-1.33788,-1.26525,-1.638326,-1.577325,-2.102285,-1.977626,-2.393275,-2.02464,-2.823708,-2.357102,-3.017642,-2.789157,-3.140234,-2.836787,-3.536107,-3.079801,-3.558413,-3.404448,-3.365386,-3.693456,-3.360303,-3.816106,-3.501834,-3.126973,-3.687734,-3.303229,-3.824729,-3.114563,-3.542796,-3.241644,-3.471678,-3.739953,-3.243089,-3.565505,-3.14677,-3.575439,-3.449971,-3.404624,-3.272945,-3.503001,-3.645391,-3.313869,-3.560177,-3.312137,-2.982407,-3.257599,-3.210007,-3.009251,-2.645391,-2.468383,-2.596397,-2.423848,-2.137907,-2.028645,-1.845528,-2.327779,-1.497982,-1.896605,-1.462203,-0.8903576,-1.957723,-0.7621123,-1.770789,-0.7231009,-1.324887,-1.071685,-0.8749675,-1.219791,-0.09428061,-0.7452097,0.1746398,-0.5678904,0.2069457,-0.008444758,0.06395942,0.6537957,-1.460214e-07,0.784946,0.6501669,0.8705932,0.6427552,0.8561348,0.8722848,0.7868273,1.205483,0.6873696,1.167493,1.029057,1.583572,1.561425,1.662031,1.527215,2.017212,2.129003,2.691341,2.258959,2.751109,2.839171,3.094985,3.170208,3.641799,3.080206,3.724196,3.450788,3.906907,3.717378,3.870538,3.407606,3.765618,3.621153,3.811667,3.275584,3.499808,3.420391,3.272401,3.440004,3.145408,3.281462,2.866439,3.387171,2.874232,2.940223,2.290732,3.336324,2.482197,2.905683,2.13766,2.840186,2.37585,2.577646,2.867934,1.888844,2.793366,2.377134,2.572584,2.494643,2.3487,2.567064,2.405088,2.662503,2.060023,2.466349,2.372501,2.399633,2.577575,2.175545,2.040253,1.809295,1.813416,2.011771,1.380817,1.852728,1.30092,1.149622,1.52895,0.9750058,0.931241,0.7064942,0.6859538,0.7197668,0.2835993,0.06292055,0.07137889,-0.5763859,-0.2249881,-1.046809,-0.5913576,-1.91325,-1.137908,-1.767898,-2.472713,-1.876251,-2.827427,-2.103535,-3.111598,-1.710151,-2.54012,-1.916011,-1.889913,-1.54542,-1.18156,-1.62903,-0.9561059,-1.295389,-0.6003178,-0.7535929,-0.6474602,-0.7872579,-0.7984829,-0.6737223,-0.5575042,-1.014897,-0.7223656,-1.412548,-0.6962421,-1.168554,-1.079632,-0.8710172,-1.316019,-1.160161,-1.104246,-1.759878,-1.312094,-1.958155,-1.472458,-1.914579,-1.920569,-2.080374,-1.975046,-1.876719,-1.868679,-2.090042,-1.918266,-2.407329,-1.826179,-2.236656,-2.421405,-2.708797,-2.520156,-2.719954,-2.608921,-2.82445,-3.077502,-3.129414,-3.342353,-2.891415,-3.29436,-3.233621,-3.625188,-2.905693,-3.376871,-2.882401,-3.422551,-2.806035,-3.616742,-2.293519,-3.252862,-2.383432,-2.787691,-2.445102,-2.066082,-2.431545,-1.460156,-1.996812,-1.235213,-1.096053,-1.048848,-0.7632897,-0.5416912,-0.3575413,0.141692,0.7335239,0.5834108,0.9884439,1.183265,1.809188,1.876016,2.095186,2.515505,2.654781,3.083491,3.305775,3.246642,3.267032,3.940244,3.672458,4.162493,3.871874,4.12185,3.76109,3.999434,3.87,3.814258,2.82641,3.533774,2.335689,2.915551,1.751425,1.983462,1.141993,1.592052,1.090743,1.095402,0.7269913,0.4698759,1.34688,0.6760688,1.248487,0.7327659,0.7262146,0.6678017,0.8336431,0.4618069,0.3364479,0.3383673,0.3216501,0.7387117,-0.01898322,0.4046594,-0.3116274,0.2260706,-0.08754145,0.12032,-0.445089,-0.1381971,-0.2615101,-0.1912152,-0.061238,-0.8864268,-0.5503196,-0.8370568,-0.4565943,-0.7594445,-0.9714682,-0.9374658,-0.8673289,-0.5948073,-0.4874641,-0.7780404,-0.3440503,-0.5652812,-0.1007372,-0.1815389,-0.2345142,-0.08931151,-0.3066861,0.2588683,0.1438287,0.175024,0.2561879,0.1031998,0.8982818,0.1869151,0.8804925,0.04332205,0.9253183,0.4177796,0.9085393,0.3765915,0.5505563,0.404601,0.6733632,0.2319443,0.1270438,-0.1091231,0.4038388,-0.08924056,0.3283884,-0.04963108,-0.4345,0.03539473,-0.2228268,0.2087373,-0.5183603,-0.2560096,-0.3552773,-0.06233372,-0.3809361,-0.2574922,-0.4923418,-0.1320301,-0.2636063,-0.2621677,-0.1439419,-0.4733215,-0.3612142,-0.4734231,-0.4155762,-0.5127653,-1.169657,-0.9282522,-0.6972963,-0.9544081,-1.099511,-1.22645,-1.012043,-1.114987,-0.8186048,-1.423998,-1.563373,-1.362472,-1.387241,-1.498912,-1.655326,-1.937777,-2.099043,-1.408355,-2.186067,-1.467239,-2.195429,-1.81891,-1.9968,-1.457811,-1.836783,-1.591719,-1.557744,-1.326901,-1.137562,-1.440823,-1.419866,-1.558356,-0.5001201,-1.111583,-0.4716149,-0.7817182,-0.3908841,-0.387414,-0.2005532,-0.3901752,-0.4986214,0.0748275,-0.05458069,0.01535798,-0.01108502,-0.3685983,-0.1396948,-0.4197021,0.2537108,-0.4609802,0.002154008,-0.6092531,0.2573206,-0.3810307,-0.02945112,-0.01214607,0.06373895,0.1996838,0.2639441,0.4075295,0.1085158,0.5270888,0.2913809,1.003936,0.5567987,0.7749724,0.5650683,1.330468,1.148288,1.739199,1.242867,1.597367,1.732054,1.435014,1.701415,1.162358,1.620637,1.334031,1.653508,1.28755,1.459825,1.027496,1.383844,1.191773,1.379101,1.274174,1.402721,1.151894,1.262427,1.540806,1.07987,1.313368,1.084961,1.608452,1.285348,1.476866,1.207983,1.746891,1.09304,1.957664,1.356878,1.638993,1.291862,1.792021,1.885745,1.443213,1.664486,1.115985,1.549033,1.459878,1.378307,1.068611,1.766462,0.7873371,1.815405,1.080916,1.617801,0.6552116,1.607307,0.7365655,1.44262,0.9082128,0.8611756,1.212016,1.112159,0.7672939,0.9613628,0.4135881,0.6339834,0.670052,0.3126302,0.4138361,0.3200503,0.6663145,1.184753,0.7120088,1.107272,1.337439,1.54991,1.672499,2.185012,1.748583,2.414099,2.003576,2.582248,2.391148,2.405955,2.058248,2.350979,2.224676,2.498757,1.74014,1.519141,1.268627,1.38138,0.8069926,0.6190981,0.08784437,0.3516944,-0.4318578,-0.08217502,-1.328091,-0.8851126,-1.359633,-1.812171,-1.601675,-2.775967,-2.728041,-2.960685,-3.128311,-3.4893,-3.611605,-4.344462,-3.86738,-4.415891,-4.40247,-4.584713,-4.911285,-4.623511,-4.649637,-4.798844,-4.943411,-5.43793,-5.313357,-4.872157,-5.175397,-5.015273,-5.081496,-5.02414,-4.509308,-4.490247,-4.458523,-4.301255,-4.136549,-3.313653,-3.958498,-3.062228,-3.585807,-2.966918,-2.780358,-2.559935,-2.517041,-2.328184,-2.019979,-1.854794,-1.489513,-1.238102,-1.048454,-0.780356,-0.180579,0.1872777,0.5719191,0.5708197,1.142683,1.155258,1.53484,1.378713,1.494789,1.77091,2.141102,2.303943,2.154853,2.612768,2.0871,2.810783,2.451775,2.565712,2.057825,2.554697,2.217731,2.515678,2.059795,1.512696,2.379544,0.993258,1.754369,0.9085402,0.8855821,0.6143337,0.7374329,1.213002,0.6291674,0.8231162,0.9234678,0.8924554,1.213429,1.178775,1.009567,1.015284,1.313749,1.42187,1.01349,1.657992,0.8813792,1.653146,1.736433,1.366573,1.593329,1.410634,1.783522,1.819904,1.402157,1.738698,1.353847,1.689316,1.414512,1.506471,1.458313,1.147805,1.514854,1.508873,1.106939,1.530343,0.7565425,1.126071,1.12798,1.142278,0.8031732,0.8198601,0.6608397,0.4026798,0.6994905,0.1529437,0.2286029,0.2181664,0.3058047,0.4215166,-0.05010213,0.4130622,-0.03796476,0.1606972,-0.06003284,-0.09953708,-0.1539742,-0.1911563,-0.561277,-0.2032447,-0.5707639,-0.5404383,-0.7624021,-0.6759273,-0.7561748,-1.129083,-1.101959,-1.651701,-1.446679,-1.602424,-2.07859,-2.011913,-2.20294,-2.323823,-2.213773,-2.254049,-2.735955,-2.48107,-2.400841,-2.220655,-2.427778,-2.387649,-2.562999,-2.386437,-2.36696,-2.821316,-2.890707,-2.951513,-2.66365,-2.932258,-2.757137,-3.070393,-2.713941,-2.877889,-2.682256,-2.43716,-3.10172,-2.527917,-2.618918,-2.254792,-2.224126,-2.125518,-2.105057,-1.771306,-1.860309,-1.37269,-1.165931,-1.654684,-0.6539981,-0.8990074,-0.3077439,-0.2053367,0.04469903,0.3046735,0.3086277,0.7521924,0.6664877,0.8804548,1.509529,1.083819,1.717234,1.623376,1.550681,1.724677,2.153706,2.011533,2.188001,2.18548,2.553732,2.15729,2.565686,2.305506,2.356774,2.21771,2.040249,2.210444,1.720265,1.771225,1.569581,1.863498,1.303812,1.629321,1.051405,1.173947,0.8976988,1.190292,0.4037499,0.6102498,0.08443871,0.350929,-0.376224,-0.03315895,-0.642014,-0.6095038,-0.193417,-1.029341,0.0008540987,-0.7331807,-0.3600023,-0.3315241,-0.1247243,-0.5133374,-0.07867064,-0.5895924,-0.3819224,-0.1972211,-0.4150485,-0.2306685,-0.4661308,0.07673436,0.01520069,0.1697205,-0.2930123,0.4730464,0.2010949,0.5765478,1.1478,0.7083928,1.766417,1.149865,2.398105,2.268092,2.475325,2.864497,3.296263,3.534324,3.631825,4.065299,4.009837,4.709445,4.469746,5.107385,4.654822,5.15688,5.20128,5.448042,5.75756,5.502454,5.497485,