ConstAcc,0.5,0.52326,65.73564,64.15532,62.64321,61.19107,59.79111,58.43594,57.11864,55.83266,54.5719,53.33061,52.10346,50.88548,49.67207,48.45898,47.24234,46.01857,44.78444,43.53706,42.27381,40.99239,39.6908,38.3673,37.02043,35.64898,34.25202,32.82883,31.37894,29.9021,28.39827,26.8676,25.31048,23.72742,22.11916,20.48657,18.83069,17.1527,15.45393,13.73583,11.99994,10.24796,8.481634,6.702833,4.91349,3.11561,1.311255,-0.497458,-2.308376,-4.119315,-5.928067,-7.732416,-9.530142,-11.31903,-13.0969,-14.86156,-16.6109,-18.34283,-19.70868,-21.49983,-22.69881,-23.63737,-25.20152,-27.03454,-27.99413,-28.30329,-28.15688,-27.83049,-28.24254,-29.48373,-31.30091,-33.7363,-36.56488,-39.58029,-42.45495,-45.05111,-47.40743,-49.63823,-51.78625,-53.80962,-55.51651,-56.99696,-58.30929,-59.46112,-60.51527,-61.43439,-62.17722,-62.81708,-63.37016,-63.81795,-64.25865,-64.64964,-64.97599,-65.29968,-65.47733,-65.78118,-66.24697,-66.75128,-67.27577,-67.83886,-68.43982,-69.06718,-69.62124,-70.03637,-70.48237,-71.04441,-71.69788,-72.41267,-73.0762,-73.74916,-74.48002,-75.2859,-75.99182,-76.5664,-77.05422,-77.54888,-78.06479,-78.56066,-79.02627,-79.4852,-80.05587,-80.72076,-81.4026,-81.99087,-82.5417,-83.19469,-83.97592,-84.75302,-85.4808,-86.18865,-87.00085,-87.89952,-88.79624,-89.67689,-90.43446,-91.24717,-92.07439,-92.83899,-93.53297,-94.21645,-94.94004,-95.63705,-96.31454,-96.97959,-97.58291,-98.21668,-98.96095,-99.68346,-100.3039,-100.9085,-101.5739,-102.4102,-103.2622,-104.0493,-104.7242,-105.401,-106.1082,-106.7711,-107.2813,-107.6744,-108.0889,-108.6069,-109.0266,-109.2765,-109.3425,-109.3305,-109.33,-109.2614,-108.9488,-108.4369,-107.8072,-107.1158,-106.381,-105.4874,-104.401,-103.5429,-103.0222,-102.922,-103.1206,-103.3641,-103.7168,-104.1565,-104.4604,-104.4434,-104.092,-103.48,-102.6808,-101.6851,-100.4485,-99.10379,-97.91662,-96.84906,-95.83318,-94.72925,-93.55728,-92.41031,-91.43883,-90.71441,-90.05332,-89.51342,-89.10817,-88.81529,-88.55116,-88.32,-88.05117,-87.95814,-87.9941,-88.17594,-88.4841,-88.73123,-89.26079,-89.63676,-89.92,-90.26645,-90.81536,-91.63818,-92.77862,-94.08213,-95.47354,-97.03421,-98.35825,-99.64643,-100.9382,-102.2926,-103.6435,-105.1483,-106.8176,-108.653,-110.6198,-112.5097,-114.2278,-116.0122,-117.4592,-118.5093,-119.3254,-120.2331,-121.3639,-122.4984,-123.7768,-125.0001,-126.1298,-127.2775,-128.3887,-129.2591,-129.763,-130.0178,-130.1302,-129.873,-129.1347,-127.7567,-125.8704,-123.8478,-122.1888,-120.9234,-119.9873,-119.4181,-119.2153,-119.1159,-119.0454,-118.6381,-117.9746,-117.0623,-115.7882,-114.1614,-112.1813,-109.9742,-107.5633,-105.1408,-102.0779,-98.39304,-94.14465,-89.52868,-84.77805,-80.21147,-75.86117,-71.8697,-68.54728,-65.51494,-62.71594,-60.06397,-57.41108,-54.79899,-52.34189,-50.07836,-47.56494,-44.93104,-42.04744,-39.08592,-35.84472,-32.40337,-28.86376,-25.17121,-21.26854,-17.25698,-13.16558,-9.404785,-6.100404,-3.490498,-0.9858425,1.997894,5.597187,9.770341,14.58133,20.25418,26.82837,34.20171,41.90042,49.73038,57.65443,65.7322,74.15948,82.38436,90.38364,98.08992,105.4498,112.7954,120.1924,127.3147,134.3953,141.7805,149.3293,157.3194,164.7452,171.4653,177.0845,181.5415,184.7131,186.3765,186.7418,186.3018,185.4426,183.825,181.5512,178.7807,175.7872,172.4988,168.928,164.8179,160.0136,154.8665,149.6413,144.2873,138.8715,133.0007,126.9018,120.6623,114.2413,107.8771,101.3794,95.07251,89.12046,83.39272,77.88664,72.51754,67.84963,64.00269,60.43722,57.27264,53.91759,50.32044,46.29781,41.78757,36.69306,31.24691,25.90516,21.40086,17.70583,14.34773,11.4518,9.236339,7.645609,6.479772,5.656922,5.506002,6.457982,8.156875,10.24394,12.59789,15.9377,20.18127,25.07215,29.90413,34.38282,38.55142,42.70947,46.67087,49.87996,52.76142,55.87525,59.68757,63.87786,67.97825,71.78805,75.638,80.24197,84.78293,88.82573,92.32689,95.65424,99.01972,101.6106,102.8825,103.0915,102.7076,102.2709,101.4354,100.1044,98.44241,96.95866,96.25373,95.8839,95.31385,94.89882,94.77518,94.97923,95.70688,95.96542,95.80162,95.40943,95.24226,95.26179,95.09098,94.94064,95.0636,95.57905,97.03332,98.84245,100.2457,102.2466,105.0845,108.0784,110.4111,111.1687,111.0807,110.191,109.1058,107.4403,105.0915,102.8186,101.3141,100.4537,99.68726,98.58975,97.16094,95.89957,94.82459,93.62458,91.78387,89.51861,87.53744,86.46191,85.63433,84.53671,83.38754,82.63448,82.35528,82.24324,81.96478,81.403,81.20786,81.54623,82.04197,82.38301,82.65545,83.34213,84.2548,84.93839,85.24328,84.93093,84.8706,85.41533,86.29307,86.99659,87.62394,88.65667,90.15712,91.16762,91.32808,91.31264,91.62902,92.67417,94.15288,95.50669,96.79437,98.24025,99.91306,101.4674,102.9739,104.7055,106.803,108.8326,110.6435,111.9182,112.3168,112.6972,112.8807,112.8485,112.9947,113.3669,113.82,114.0848,114.4266,114.4466,114.763,114.7671,114.8598,115.4688,115.5284,115.5279,115.1705,114.0881,113.2549,112.9569,112.6145,111.7195,110.1156,108.1135,106.2919,104.7163,103.7035,103.0772,102.9137,103.1338,103.1088,103.1495,103.5554,103.8817,104.269,104.49,105.0151,105.965,107.2688,108.4242,109.0186,109.0931,109.3599,109.5952,109.617,109.5745,108.7675,107.3461,105.8003,103.8546,101.7268,99.61003,97.7531,96.29307,94.94774,93.86425,92.99036,92.39072,91.92996,91.69377,91.28187,90.70986,90.27644,90.05654,89.55101,88.79504,87.80049,87.47541,87.86693,88.40645,88.37745,87.82943,86.8385,85.63943,83.53646,80.34222,76.56315,72.08475,67.50134,62.54514,57.06483,51.30049,45.40186,39.45781,33.53334,27.15812,20.38453,13.31232,6.188191,-1.384019,-9.259302,-18.1579,-27.19315,-35.82308,-43.98228,-51.68799,-59.15952,-66.40787,-73.14373,-79.94031,-86.56532,-93.09929,-98.90392,-104.2207,-109.1003,-113.6695,-118.0303,-122.2189,-125.7911,-128.9803,-131.7701,-134.1885,-136.4974,-138.2426,-139.4255,-139.8926,-139.7905,-139.6481,-139.3997,-138.9878,-138.3817,-138.1544,-137.0813,-135.6514,-134.3262,-132.5489,-131.095,-129.6667,-127.9323,-125.8666,-123.8992,-121.9759,-119.7318,-116.663,-112.8669,-108.9391,-104.989,-100.9781,-96.59801,-92.26394,-88.10778,-83.71244,-78.85699,-73.60488,-68.00796,-62.51042,-57.23934,-52.57535,-48.37464,-44.96539,-42.1545,-39.26976,-36.46314,-33.92901,-31.74148,-30.15962,-29.20774,-28.59424,-28.0884,-27.74895,-27.40402,-27.03594,-26.86443,-26.57852,-26.37294,-25.86543,-25.63019,-25.36864,-25.0709,-24.51659,-24.17866,-23.79375,-23.67151,-22.66394,-20.31936,-16.64569,-12.49821,-8.156361,-4.532445,-2.439197,-1.935025,-2.059742,-2.540693,-2.940622,-3.718217,-4.589704,-5.489145,-6.301555,-6.874567,-7.706425,-8.30312,-9.049187,-10.0925,-11.0019,-11.71854,-12.87237,-14.63879,-16.76123,-18.59974,-20.50113,-21.44307,-22.38262,-22.48533,-21.98567,-21.43677,-20.65543,-19.9933,-18.98792,-17.66243,-16.35928,-14.58454,-12.71445,-10.47421,-8.075546,-5.814705,-3.203652,-0.595833,2.125428,4.933765,8.186981,11.83842,15.05204,18.84907,23.09956,27.42735,31.41605,35.12473,38.36274,41.57502,45.14948,48.60628,51.80402,54.94115,57.78817,60.78283,63.45908,65.782,67.98624,70.00716,72.32062,74.19311,75.46129,76.32276,77.17434,77.91737,78.5636,78.93083,78.80935,78.39549,78.11832,77.79428,77.29731,76.54042,75.42073,74.58728,73.33952,71.6648,69.529,67.30844,65.23348,63.49885,62.18941,60.66263,58.5899,56.50795,54.43828,52.34824,50.28368,47.82884,45.62246,43.45294,41.04907,38.43619,36.13908,34.37565,33.32286,32.37802,31.68576,31.23429,31.39767,31.89672,32.96607,34.28907,36.74902,39.67894,41.8802,42.41303,42.37418,42.06111,42.10984,42.59783,43.2677,44.16736,44.81254,45.59321,46.3675,46.89545,47.40314,47.25804,46.95006,47.07786,46.90904,45.97036,44.70187,43.26771,42.00358,40.8684,39.85553,39.28259,38.54137,38.42812,37.78669,36.9527,36.0288,34.66071,33.57566,32.33434,31.17585,29.49024,28.21648,27.18979,25.87011,24.4882,23.04909,21.25267,19.85926,18.38121,16.70163,14.62172,13.458,13.11389,12.64176,12.30791,11.2741,9.648615,7.813849,6.492963,4.641782,2.446247,-0.03108908,-2.244409,-4.174823,-5.979422,-8.156795,-10.57664,-12.7469,-14.43536,-16.08183,-18.07073,-19.88599,-21.32172,-22.37723,-23.29826,-24.23426,-25.43076,-26.19864,-26.86794,-27.25743,-27.36682,-27.23243,-27.25911,-27.26118,-27.24001,-26.80979,-25.47689,-24.23142,-22.76985,-21.39583,-19.7184,-17.84496,-15.64992,-12.96165,-10.44564,-8.452151,-5.992865,-3.101509,-0.1998131,2.452535,4.717843,7.349105,9.821878,12.49276,14.81799,17.7182,20.95668,24.51659,27.98769,30.78576,32.88095,34.94145,37.04814,39.57011,42.01677,43.7955,45.55774,47.25485,48.89652,50.94244,52.32684,53.56254,54.37734,55.17238,56.12258,57.15442,58.44076,59.90493,61.51781,62.66629,63.30427,63.72754,64.62556,65.20537,65.34322,65.67155,66.10519,67.24432,68.10372,68.43442,68.29132,67.58678,67.29834,67.16033,66.45601,65.54646,64.39523,63.34793,62.11522,61.44052,60.28648,58.89769,57.78695,56.99463,56.77879,56.21622,54.76445,53.5585,52.41177,51.34453,50.47803,49.70327,48.73705,46.69958,44.88891,42.2996,39.23301,36.3938,33.9233,31.56342,28.89758,26.96775,26.61846,26.23863,25.47614,22.87522,19.05088,16.14352,14.17718,12.15657,9.465769,6.139906,3.531898,1.687705,-0.1847262,-2.572401,-5.326865,-7.654458,-9.566655,-11.34784,-12.52042,-13.68697,-14.78516,-15.72766,-14.81862,-13.97529,-13.51636,-13.78493,-13.22281,-12.32907,-11.25375,-10.42909,-8.810417,-6.553905,-4.959298,-3.165315,-2.151456,-0.9968794,1.121948,4.10474,7.281923,10.23531,12.68381,15.62417,20.2533,24.88167,28.88161,32.79867,35.68136,38.17804,40.82741,43.6028,46.33522,49.3362,51.82799,53.36407,54.08165,55.07422,56.26851,56.97712,56.98009,57.27563,56.67128,56.62613,56.78524,57.3695,57.3934,57.19611,56.39071,55.89486,55.64126,54.71773,53.63333,52.58201,51.47976,50.70752,49.81149,48.1626,46.29213,44.24145,42.38076,40.51986,38.76915,36.86862,34.57111,32.52427,30.9682,29.45304,27.66127,26.26947,24.78495,23.02282,21.16543,18.89608,16.56907,13.77081,10.21993,7.277928,4.291973,1.079108,-1.263082,-4.429799,-7.502471,-10.57553,-12.64515,-14.89612,-16.84965,-19.35978,-21.65258,-22.78881,-23.41713,-23.73647,-24.50181,-26.39058,-28.56505,-31.15533,-33.19015,-34.0214,-34.50458,-35.63611,-36.92899,-38.09508,-38.55089,-38.90154,-39.75625,-40.47248,-40.86468,-41.29277,-41.06264,-40.73856,-39.65728,-39.42888,-39.1952,-38.54063,-37.37549,-37.38755,-37.43105,-37.55051,-37.4363,-36.89917,-36.81352,-36.18264,-35.68614,-36.3501,-37.21699,-37.6557,-38.03957,-38.04728,-37.75611,-36.94149,-35.95334,-35.43576,-34.77649,-33.82682,-31.91864,-31.10284,-31.19349,-30.30384,-29.87211,-29.01663,-28.12613,-27.71472,-27.62916,-27.79454,-27.78982,-27.92649,-28.23013,-28.58081,-29.73113,-31.05836,-32.00956,-32.67801,-34.34401,-35.30586,-36.1423,-36.78723,-38.08491,-39.47095,-40.99994,-41.58902,-42.40129,-43.09926,-44.48885,-45.8729,-47.20274,-47.67631,-48.2819,-49.50528,-50.15094,-50.76445,-50.67114,-50.6633,-50.94427,-51.28715,-51.42996,-51.20881,-50.47672,-50.38181,-51.10642,-51.27597,-50.9692,-51.22279,-51.29757,-51.10084,-50.49969,-49.95444,-49.6631,-48.96,-48.69136,-48.29444,-47.0796,-46.91145,-46.55842,-46.32505,-45.68337,-44.76373,-44.4261,-44.54634,-44.22854,-43.46722,-42.9533,-42.49525,-41.65497,-40.91156,-40.35497,-39.91912,-39.53392,-39.12943,-38.88225,-38.87548,-39.31182,-40.2075,-40.27317,-41.28934,-47.00646,-45.86873,-40.98949,-37.45038,-37.56652,-37.11778,-35.33097,-36.9275,-37.2134,-36.46128,-36.05923,-35.65725,-36.64106,-37.04406,-37.62978,-38.19895,-39.37773,-40.28832,-41.90341,-44.64635,-46.92204,-48.70034,-50.1607,-51.58345,-53.5409,-55.61672,-56.86161,-58.27203,-59.69804,-61.23787,-61.97994,-62.68189,-63.64122,-63.55588,-64.50547,-65.49569,-66.32385,-66.83435,-67.18988,-67.63212,-68.10618,-68.54091,-68.83291,-69.11879,-68.89471,-68.4971,-67.85556,-67.17532,-66.59715,-65.726,-65.24053,-64.59279,-63.2255,-61.35094,-59.76979,-58.31515,-57.35284,-56.10961,-54.62789,-52.59637,-50.52476,-48.23091,-45.84075,-43.56391,-41.38505,-39.50113,-37.03301,-34.07798,-31.77148,-29.79292,-28.27724,-26.35267,-24.20694,-22.09081,-20.64253,-19.16593,-17.85115,-15.79659,-13.73895,-12.2015,-10.93804,-9.791596,-8.164666,-6.47957,-5.31487,-4.730866,-3.813773,-2.62637,-1.80004,-1.382511,-1.138375,-0.7453528,-0.6169812,-0.4261083,-0.5144421,-0.7306509,-1.201674,-1.311035,-1.692603,-2.771573,-4.316184,-5.831214,-7.40154,-9.152493,-11.01014,-13.37285,-15.87005,-17.62841,-18.3872,-20.09087,-20.74853,-14.57725,-12.60814,-14.88918,-17.91128,-17.78097,-18.32801,-20.11145,-18.13604,-16.46677,-16.47093,-17.1902,-17.96285,-17.17303,-17.13668,-17.46387,-17.69962,-17.50487,-17.02556,-16.98906,-16.50505,-15.85146,-15.23665,-14.52261,-14.78933,-14.6865,-13.49423,-12.95585,-12.12825,-11.18454,-10.61747,-10.38057,-10.04998,-9.268743,-8.620269,-8.260308,-8.057385,-7.597465,-7.080796,-6.839635,-6.661213,-6.564236,-5.936307,-5.163255,-4.854244,-4.791105,-4.771906,-4.676947,-4.514044,-4.476071,-4.676747,-4.715451,-4.427759,-4.40673,-4.85176,-5.745611,-6.223597,-6.120186,-5.240541,-5.409604,-5.688879,-5.807449,-5.78171,-5.21661,-4.963383,-4.920611,-4.716364,-4.478343,-4.606312,-4.356688,-4.573702,-4.630162,-4.898874,-4.865615,-4.888801,-5.675472,-5.627504,-4.782041,-4.164293,-3.305831,-3.129928,-3.497855,-3.834582,-3.891481,-4.010941,-4.472075,-4.952359,-5.426091,-6.045028,-6.183313,-6.255482,-6.711401,-7.013491,-7.187173,-7.453811,-8.616356,-9.608527,-10.00156,-10.23457,-10.55755,-10.98313,-11.40233,-11.54954,-10.81997,-10.24574,-9.999395,-9.69681,-9.205011,-8.036022,-7.354795,-6.600382,-5.767838,-4.714887,-3.552246,-2.120592,-0.8206383,0.1612229,1.363399,3.009778,4.535358,5.590526,6.002706,6.80921,8.201567,9.792979,11.14128,12.20668,13.33188,14.61244,15.66258,16.50607,17.19779,17.91422,18.47466,19.47306,20.00013,20.38221,20.53521,21.17764,21.52261,21.67517,21.62153,21.59089,21.57595,21.71811,21.77522,21.4326,20.80444,20.60195,20.26,19.98529,19.4583,19.01381,18.21972,17.56001,17.15136,16.16468,15.25238,14.22793,13.7999,13.21748,12.0567,10.75534,9.766082,8.830203,8.018501,7.034354,5.61865,4.800199,3.925902,3.310623,2.292156,1.393357,1.238042,0.8447617,0.597812,0.2627242,1.325989e-05,0.2538799,0.5858184,1.007051,1.486267,1.887853,2.793543,4.014812,5.172076,6.97419,8.286784,9.656493,10.98935,11.81047,12.59081,13.5551,14.44953,15.6521,16.7389,17.4097,17.97026,18.53314,19.51341,19.5083,18.58922,18.37005,18.36915,18.26624,18.20148,18.48135,17.83902,16.85758,16.72111,17.01122,17.56679,17.70061,17.4827,17.34847,17.77619,17.98965,17.65979,17.2744,16.98349,16.99506,17.03453,16.39615,15.96776,15.53547,14.96778,14.50503,13.62968,12.51634,11.94393,11.11563,10.12932,8.869432,7.776116,7.001876,5.971699,4.637853,2.903279,1.315989,0.2418021,-1.054352,-2.412286,-3.952706,-5.60608,-6.773931,-8.28332,-9.833299,-11.59889,-13.4719,-15.20472,-16.49475,-17.72976,-19.67132,-21.85526,-23.24977,-24.36049,-25.84567,-27.87228,-29.5172,-31.13691,-32.22628,-33.66227,-35.48479,-37.16984,-38.5371,-39.67895,-41.05856,-42.48352,-43.88744,-44.74699,-45.79534,-47.20302,-48.55714,-49.7139,-50.81938,-51.76449,-52.89991,-54.44055,-55.75339,-56.77403,-57.51587,-58.39308,-59.32556,-60.46466,-61.46736,-62.04444,-62.63871,-63.28086,-63.89695,-64.56441,-64.67305,-65.00756,-65.39223,-66.05237,-66.16554,-65.9986,-66.30795,-66.52021,-66.74001,-67.12664,-67.32454,-67.53882,-67.93295,-68.62216,-69.2804,-69.40693,-70.08367,-70.88272,-72.0873,-72.94056,-74.25051,-74.85261,-75.01214,-75.86867,-77.08226,-77.77483,-78.57613,-79.70815,-80.60744,-80.67986,-80.90494,-81.13167,-81.89568,-82.63061,-83.06773,-83.1103,-83.67538,-84.27941,-84.76286,-85.13023,-85.48877,-85.33781,-85.74951,-85.95469,-86.41806,-86.50618,-86.24384,-86.6176,-87.13776,-87.60559,-86.74979,-85.24001,-84.73925,-85.05932,-85.15473,-85.06582,-84.9323,-85.06752,-85.03137,-85.47229,-85.83239,-85.63868,-86.09936,-86.48214,-87.31969,-87.85335,-88.16816,-88.63715,-89.4189,-90.0537,-90.33551,-90.52251,-91.3522,-92.01546,-92.45206,-92.71373,-92.88497,-93.47518,-93.49078,-93.75263,-93.8447,-93.5581,-93.49109,-93.4844,-93.46285,-93.10823,-92.55598,-92.20962,-91.7497,-91.40796,-90.91137,-89.81132,-89.09586,-88.46231,-87.78396,-87.12506,-86.20809,-85.4498,-84.5946,-83.66712,-82.54101,-81.673,-80.88019,-79.71603,-78.95903,-78.17293,-76.77731,-75.56801,-74.65926,-73.81131,-72.47937,-71.46954,-70.15654,-69.14292,-67.87801,-66.95242,-66.03368,-64.76425,-63.80357,-63.16149,-62.32815,-61.27686,-60.27681,-59.44664,-59.26499,-58.54376,-57.94664,-57.2739,-57.18131,-56.69334,-56.4819,-56.06189,-55.71311,-55.46876,-55.31927,-55.48304,-55.4048,-55.72006,-56.41542,-56.8778,-57.60882,-58.00137,-58.72237,-59.84455,-61.05889,-62.08886,-63.18607,-63.9869,-65.41444,-67.18331,-68.21234,-68.92998,-69.5465,-70.42199,-71.54779,-72.56535,-72.59876,-72.0972,-71.43541,-70.49517,-68.79673,-68.0291,-67.13514,-66.37563,-64.7011,-62.8969,-60.84608,-58.31386,-55.85821,-53.33259,-50.39797,-46.96276,-44.0875,-41.60007,-39.16034,-35.85357,-32.25631,-28.63673,-25.89197,-23.04004,-19.79713,-16.74946,-13.77841,-11.00689,-8.524508,-6.072109,-3.493535,-1.037027,1.659436,3.923308,6.297839,9.502591,12.53718,15.97468,18.52116,21.07002,23.66416,26.49115,28.91745,31.41644,33.94281,36.25329,38.36909,40.66494,42.53032,44.0322,46.19237,48.41333,50.44392,52.42502,54.2094,55.96495,58.39697,60.6442,62.30746,63.82539,65.97795,68.05445,70.14896,71.81269,73.84501,76.01183,78.63551,80.3899,82.49755,85.02156,87.8821,91.00576,94.1272,97.19638,100.3582,103.8072,107.54,111.5037,115.6007,120.1918,124.2312,128.5237,133.2225,138.4411,143.2314,147.479,152.3048,156.9773,161.0674,165.1999,169.5936,173.726,177.9315,181.7976,185.0699,188.3824,191.7146,194.9948,197.7839,199.8178,201.6489,203.7402,205.6696,207.2883,208.5273,209.1134,210.1692,210.508,211.0321,210.982,211.4468,211.5559,211.3949,211.3585,211.1031,211.0592,211.6409,211.2787,211.1075,210.6091,209.7321,209.5109,208.9982,208.0668,206.5729,205.525,204.1743,203.0618,202.6478,201.6751,200.1877,198.9873,197.7323,196.4047,194.954,193.3844,191.7994,190.6683,189.5582,188.0514,186.5584,185.7711,185.4341,185.1492,184.9198,184.4014,183.6641,183.3611,182.4617,181.4823,180.561,180.0572,179.3679,178.7911,177.459,176.1066,175.2907,174.2781,173.4153,172.1774,171.4538,170.4106,169.6638,169.1839,168.0766,166.6259,164.9011,163.2186,161.8923,159.5212,157.5024,155.4738,153.3271,151.1018,148.7261,146.097,143.1297,140.5621,139.0052,136.8997,134.1203,131.6125,129.2824,127.2879,124.9354,122.614,120.6335,119.1279,117.5224,115.1338,112.4508,110.7372,109.0603,107.486,104.5889,102.0062,100.5869,98.89684,97.22781,95.27,93.28867,91.55149,90.3835,89.37817,87.92454,86.91769,85.94511,85.05871,84.45357,83.47851,82.22523,81.69896,81.39881,80.91553,80.34129,79.97748,79.44807,79.16164,79.72001,79.26908,79.30149,79.37337,79.83952,80.07848,79.66102,78.71977,77.80947,76.61304,75.52373,74.06219,72.08475,70.11294,67.96264,66.10973,64.31091,62.11677,59.71314,57.27824,55.09573,52.86111,50.38131,47.95628,45.50307,43.17887,40.78148,38.15865,35.24976,33.11786,30.3879,27.76469,25.24139,22.81695,20.39398,18.15915,15.72834,12.58624,10.30193,8.042685,5.869865,3.666633,1.476981,-0.5968668,-2.206151,-3.541075,-4.962912,-6.098963,-7.112641,-7.928736,-8.450488,-8.885003,-9.165378,-9.601452,-10.01103,-10.14788,-10.49504,-10.70576,-10.97084,-10.96832,-11.22135,-11.47709,-11.5896,-11.84249,-12.41809,-12.45077,-12.6438,-13.35421,-13.80694,-14.07008,-14.966,-15.54699,-16.33795,-17.16393,-18.1135,-19.25714,-20.47544,-21.66235,-23.23713,-25.00182,-26.89067,-28.54958,-30.43055,-32.69162,-35.16456,-37.21723,-39.42708,-41.41326,-44.44733,-47.3806,-49.91217,-52.55115,-54.71816,-57.34123,-60.23425,-63.05333,-65.56571,-68.03,-71.46884,-74.33847,-76.98956,-79.51417,-81.89499,-83.83006,-86.04146,-87.79715,-89.27935,-90.5695,-92.35286,-93.49685,-94.30036,-95.46903,-96.19087,-97.49803,-98.59704,-99.70808,-100.5835,-101.5443,-102.8527,-103.8216,-105.0125,-105.9453,-106.883,-108.221,-109.1985,-110.219,-111.2755,-112.2347,-113.1667,-114.2666,-115.2503,-115.7502,-116.6915,-117.8756,-119.2671,-119.9546,-120.949,-121.5033,-122.7425,-123.982,-125.2184,-125.9327,-126.6503,-127.7949,-129.2234,-130.0046,-131.0047,-131.9906,-132.6163,-133.791,-134.5529,-134.9573,-135.5998,-135.7529,-135.9801,-136.4836,-136.6203,-135.9198,-135.8756,-135.9618,-135.8328,-135.2858,-134.4934,-134.0076,-133.4197,-132.3377,-130.8767,-129.7402,-128.9441,-128.3389,-127.2915,-125.6571,-124.1633,-122.8358,-121.6986,-120.3489,-118.9271,-117.3628,-115.7923,-114.3602,-113.4358,-111.0177,-109.297,-107.655,-106.4773,-105.0003,-103.1746,-101.3152,-99.68453,-98.45401,-96.92648,-95.10871,-93.35745,-91.94677,-90.7639,-89.43163,-87.95344,-86.81516,-85.68089,-84.39901,-83.53843,-82.44451,-81.05607,-80.48671,-79.76543,-78.97916,-77.94562,-77.07247,-76.38112,-75.26904,-74.49052,-73.02916,-71.85697,-70.65705,-69.74905,-68.81052,-67.42973,-66.10336,-64.88609,-63.64727,-62.19807,-60.62262,-59.169,-57.82691,-56.21438,-55.0817,-53.60934,-51.93988,-50.50634,-49.17195,-48.02404,-46.5214,-44.89255,-43.29541,-42.06901,-40.81692,-39.25221,-37.43758,-36.04571,-34.96283,-33.50915,-31.74032,-30.31725,-28.698,-27.36571,-25.54868,-24.06308,-22.45685,-21.03412,-19.8266,-18.31012,-16.73984,-14.65529,-13.33592,-12.24264,-10.46532,-9.048153,-7.694506,-5.865664,-4.503237,-3.202059,-1.671926,0.02919593,2.10628,3.116484,4.291016,6.047655,7.895363,9.429837,10.77606,11.8219,13.73829,15.7514,17.34932,19.13483,20.31559,21.77557,23.43529,24.93879,25.48802,26.75152,28.22882,29.75008,31.74878,33.09027,34.36263,36.13449,38.16699,39.93303,41.67634,42.63621,44.74969,46.17558,48.18646,49.09135,50.43387,51.47714,52.86661,53.98904,54.73261,55.09483,55.60789,56.05927,56.60161,56.79314,56.23437,56.09639,56.09301,56.08674,55.24167,54.54459,53.76798,53.30317,52.51253,51.60509,49.79536,48.6992,47.68653,46.62593,45.0155,43.05059,41.54797,39.87236,38.47812,36.57533,34.57084,33.05016,31.12585,29.60081,27.82999,25.77247,23.46369,22.1057,20.80036,19.01188,17.13789,15.15814,13.52678,11.84484,10.27027,8.535458,6.7492,5.445467,4.445704,3.104146,1.704787,-0.01373985,-1.004133,-1.59514,-2.649722,-3.364216,-4.312442,-5.105005,-5.24484,-5.78796,-6.563363,-7.46155,-7.911623,-8.086046,-8.615616,-8.86024,-9.454845,-9.470259,-9.862422,-9.723897,-9.561481,-10.10793,-9.216566,-7.593132,-7.358147,-7.813262,-8.136477,-7.841254,-7.919035,-8.550631,-9.259628,-10.05852,-10.66286,-11.47994,-12.39166,-13.50185,-14.22428,-15.51045,-16.41239,-17.09005,-18.27477,-19.41054,-20.43426,-21.42742,-21.88829,-22.20644,-22.83254,-23.14939,-22.88113,-22.96723,-23.11383,-23.20547,-23.13345,-22.86871,-22.36705,-21.80638,-21.13676,-20.80689,-19.90399,-19.1537,-17.91458,-17.23292,-16.43565,-15.38656,-14.01516,-12.99842,-11.69586,-10.62953,-9.029564,-7.627747,-6.52181,-5.117117,-3.772267,-2.703695,-1.185822,0.4011736,1.477192,2.828748,3.958799,5.25005,6.419957,7.630608,8.712675,9.812967,10.87273,11.93186,12.73271,13.22561,14.28245,15.23636,15.57764,16.08738,16.45259,16.89706,17.80012,17.81404,17.82523,18.15154,17.54259,17.84901,17.72192,17.00598,16.64748,16.42169,16.37032,15.88534,15.50995,14.74428,14.18742,13.68303,12.77881,11.80205,11.38286,10.71397,9.7738,9.343962,8.447972,7.185439,6.503419,5.9152,5.261823,4.37533,3.923199,3.483174,3.455549,3.353513,3.145531,3.067426,3.365646,4.112249,4.593841,5.238105,6.142599,5.871027,5.567625,5.577233,5.538086,5.259963,4.891853,4.433984,4.204148,3.647409,3.110693,2.123955,2.338241,1.968064,1.449705,0.7974215,0.7325513,0.3823246,0.03649383,-0.505287,-1.371447,-2.086983,-2.534331,-3.227258,-3.637538,-4.203152,-5.081087,-5.455763,-6.123933,-6.560503,-7.278276,-7.545246,-7.519582,-7.722107,-8.287237,-8.792741,-9.155148,-9.016889,-9.520142,-9.848124,-10.09942,-10.30306,-10.17334,-10.46997,-10.43713,-11.21211,-11.17019,-11.18953,-11.52575,-11.58203,-11.54162,-11.77947,-11.51752,-11.53615,-11.3558,-11.36391,-11.45326,-11.09713,-10.96609,-10.74522,-10.52006,-10.56502,-10.23102,-9.869713,-9.896544,-9.598578,-9.30591,-8.992528,-8.725169,-7.986248,-7.905747,-7.727019,-7.258055,-7.100534,-6.382229,-6.009265,-5.725585,-4.753794,-4.63105,-3.896184,-3.210457,-2.978293,-2.459604,-1.934822,-1.62651,-1.482284,-1.211358,-0.5507393,-0.282347,0.2922981,0.6392653,0.5797995,1.154862,1.66827,1.89976,2.085041,2.490603,2.846029,3.102147,3.619495,3.881799,3.98399,4.225812,4.653677,4.98723,5.197234,5.633064,5.673284,6.19224,6.817801,6.943155,6.859952,6.998914,7.454289,7.705883,7.802636,7.757881,7.793505,8.072578,8.067032,8.11897,8.008263,8.390707,8.009962,8.268858,8.079251,7.839436,7.610719,7.921805,7.722129,7.547053,7.356694,7.237865,7.4392,7.888212,7.613238,7.047447,7.346763,7.481544,7.737686,7.842517,7.993571,7.98929,8.311069,8.610386,8.997195,8.729377,8.916676,9.256713,10.20638,10.27614,10.08351,9.832655,10.32068,10.81981,10.87272,11.47736,11.76076,11.92293,12.62247,12.9071,13.08751,13.28143,13.65577,14.31639,14.72442,14.75806,15.17028,15.64297,15.82482,15.63317,15.4901,15.77623,16.4531,16.97714,17.78192,18.12108,18.57593,19.34287,20.31064,20.88629,21.44485,22.04938,22.97827,24.09904,24.42384,24.83433,25.37975,25.76525,26.49962,27.13544,26.8018,27.24498,27.69472,27.8475,28.08608,27.90851,27.89532,27.60738,27.53601,27.01095,26.51047,25.86522,25.03503,24.73634,23.93407,22.92225,21.51997,20.51126,19.37697,18.34785,16.93974,15.32904,14.38557,13.047,11.86587,10.42726,8.671491,7.03762,5.540603,3.931634,2.082944,0.1959985,-1.1649,-2.939697,-4.461006,-6.027259,-7.792647,-9.664316,-11.19418,-12.45357,-13.88208,-15.62427,-17.09786,-17.82699,-19.03278,-19.89137,-21.07362,-22.24582,-23.09178,-23.42863,-24.27446,-25.43397,-26.17703,-26.80524,-27.29071,-27.6006,-28.05526,-28.72049,-28.81389,-28.43886,-28.44301,-28.73133,-28.66104,-28.40173,-27.93981,-28.08189,-27.66553,-27.44246,-27.14882,-26.79007,-25.83445,-25.13324,-23.63583,-22.96654,-22.27753,-21.73208,-21.82693,-21.97109,-21.99144,-22.1514,-22.16578,-23.09882,-24.01355,-24.44154,-24.77922,-26.09729,-27.20607,-28.55638,-29.90985,-30.66747,-31.13085,-31.86444,-32.62662,-33.54348,-34.22069,-34.4909,-35.52145,-35.69664,-36.19627,-36.49943,-36.89612,-37.14971,-37.14231,-37.2771,-37.25914,-36.50133,-36.55133,-36.56117,-35.87162,-35.00723,-34.32564,-33.45812,-32.67023,-32.11422,-30.7892,-29.25922,-28.57923,-27.56739,-26.30982,-24.74308,-22.87174,-21.80787,-20.33948,-18.81872,-17.11838,-15.51764,-14.06711,-12.34606,-10.83005,-8.765187,-7.076141,-5.666633,-4.003404,-2.721771,-1.341377,0.3477775,1.392819,1.938335,3.395442,4.436315,5.480997,6.26359,7.32724,8.024029,8.822405,9.379595,9.898813,10.17393,10.53265,11.02304,11.46007,11.43081,11.55256,11.64226,11.61524,11.37066,10.84366,10.27892,9.906301,9.637834,9.032179,8.14833,7.360736,6.451741,6.107174,5.54865,3.994988,3.312649,2.540842,1.876965,1.504394,0.6268247,-0.1118024,-0.395199,-0.7222013,-0.6912865,-0.6219613,-0.743754,-0.6688322,-0.194519,0.8001314,1.153877,1.39397,1.071197,1.091516,1.327718,1.712286,1.83211,1.189844,1.565963,1.874555,1.891827,1.73571,2.173526,2.266775,2.58958,3.140553,3.257616,3.503176,3.354415,4.027898,4.342503,4.517836,4.565065,5.097046,5.949194,6.122908,6.626164,6.509484,6.79885,7.334145,7.947292,7.983889,7.869128,8.15946,8.704113,8.520052,8.987928,9.143583,9.127255,9.402518,9.252866,9.664059,9.569388,9.54446,9.985401,9.888649,10.49119,10.41065,10.35815,10.93158,11.02078,11.54108,11.473,11.9764,12.10573,12.68668,12.8754,13.25291,13.62931,13.84955,14.09659,14.285,14.44912,14.46792,14.84266,15.03796,14.99642,15.61288,15.43296,15.7611,16.66103,16.42923,16.2636,16.43321,16.7951,17.18036,17.18539,17.62566,17.80134,17.99939,18.54253,18.50027,18.78427,19.16572,19.26462,19.66559,19.77726,20.161,20.53698,20.58181,20.61633,20.89351,20.77902,21.07704,21.32147,21.04172,21.78684,21.4235,21.48895,22.09303,22.33912,22.41429,22.58929,22.36037,22.74728,23.19313,23.09241,23.03902,23.41286,23.81849,23.93683,24.20072,24.04588,24.11919,23.89585,24.62345,24.68501,24.123,24.81252,24.75632,25.10084,25.08605,25.3301,25.25331,25.43044,24.7919,24.31652,24.23845,24.34468,24.87997,25.48711,26.26493,26.78737,27.32443,27.97669,28.92156,29.58322,29.86469,30.80296,31.31939,31.93157,32.63319,33.01293,33.21591,33.84327,34.19403,34.78202,34.23348,34.21441,34.10422,34.02936,34.26524,33.69483,32.72385,32.37675,31.93851,31.56759,30.27252,29.57129,28.74171,28.08904,27.24493,25.84251,24.77635,23.34697,22.38094,21.09199,19.54221,17.65033,15.70925,14.45854,12.851,10.90753,8.891356,7.307771,5.901268,4.123359,2.326165,0.3407027,-1.426369,-3.012494,-4.899305,-6.323594,-8.062772,-9.945989,-11.30335,-12.40543,-14.14234,-15.86228,-17.26018,-18.1811,-19.5699,-20.45116,-21.69389,-23.07818,-24.00384,-24.91203,-25.68903,-26.69876,-27.73749,-28.16907,-28.87415,-29.67399,-30.3011,-30.92659,-31.3895,-31.60038,-31.90389,-32.10097,-32.35585,-32.81788,-32.35119,-32.50523,-32.70535,-32.69222,-32.49461,-32.62479,-32.24799,-32.4323,-32.53241,-32.39322,-31.94503,-32.2282,-32.32361,-32.72209,-31.93484,-32.12491,-32.67355,-32.62401,-33.44344,-33.84588,-34.17513,-34.84731,-35.7414,-37.13637,-37.68742,-37.57763,-37.96816,-38.00338,-38.61245,-38.58264,-39.52823,-38.06316,-37.68508,-37.59298,-37.01218,-37.24465,-37.18219,-37.01128,-37.55682,-37.93448,-37.92118,-38.3958,-39.33256,-39.8527,-40.371,-40.97854,-41.7994,-42.08107,-42.82508,-43.19637,-43.84615,-43.94499,-44.41477,-44.41078,-44.18658,-44.15241,-43.97755,-43.60142,-43.36573,-43.04096,-42.83133,-42.34109,-41.44383,-41.07163,-40.33161,-39.53897,-38.25545,-37.46934,-36.14212,-35.02587,-33.61199,-32.4579,-30.6616,-29.36829,-28.12995,-26.53803,-24.89418,-23.08108,-21.65049,-20.13273,-18.16354,-16.71404,-14.74367,-13.54966,-11.65152,-10.06067,-8.351276,-6.595874,-5.249904,-3.658656,-2.242744,-0.4612473,1.052158,2.009124,3.210761,4.426028,6.201004,7.239055,8.052488,9.030993,9.726878,10.97854,11.48531,12.08578,12.41933,12.98243,13.98469,14.07983,14.32384,14.40569,14.94875,14.2213,14.52245,14.38631,14.07845,13.9295,13.62882,13.25048,12.96802,12.00455,11.95595,11.19625,10.77522,10.35974,9.516342,8.828388,8.239401,7.814974,7.125908,6.050227,5.573286,4.753579,4.539434,3.451261,3.287037,2.772847,2.468733,3.24462,3.322824,3.352141,4.104208,6.365888,5.567433,5.81439,5.942246,5.522904,6.095108,5.737636,6.128783,5.487181,5.506485,5.11174,4.858574,5.266999,4.911368,4.576986,4.569285,4.585121,4.341037,4.332161,3.912588,4.647263,4.533732,4.565035,4.194505,4.234416,4.200303,4.087737,4.273562,3.533228,3.489369,3.78692,3.887162,3.603726,3.775798,3.715426,3.642741,3.565559,3.873804,3.343321,3.407472,3.338127,3.45269,3.291565,3.266578,3.43525,3.565703,3.88526,3.829797,3.653019,3.801201,3.870551,4.464881,4.108479,4.399813,4.033401,4.654889,4.621956,5.267453,5.24825,5.124569,5.491515,6.002405,5.947326,6.052089,6.313553,6.517388,6.768885,7.244665,7.104454,7.307089,7.73576,7.874187,8.384027,8.290347,8.639245,8.782854,8.886436,9.448717,9.156054,9.013142,9.324224,10.16519,10.23442,10.28945,10.54713,10.52887,11.0895,11.79791,11.67044,12.06168,11.74568,12.34051,12.55296,12.35327,12.42165,12.19256,12.39879,12.44963,12.22313,11.96964,11.68086,12.21707,11.88526,11.72609,11.68436,11.42294,11.77279,11.54072,10.9621,11.1168,10.90806,10.57596,10.46005,10.0056,9.598626,9.643421,9.142542,9.573773,8.542496,8.992981,8.666003,8.642818,8.71451,8.477454,8.47907,8.510393,8.664049,9.225592,9.275707,9.30384,9.78096,9.828201,10.41577,10.53159,10.57397,10.54686,11.18336,11.75116,11.45035,11.80651,12.17406,12.66392,13.20129,13.43503,13.29538,13.44979,14.0202,14.66196,14.91143,15.04611,15.25809,15.55659,16.41352,16.55598,16.99599,17.2151,17.43207,18.17853,18.28214,18.42172,18.49755,18.82675,19.21482,19.3585,19.68142,19.76263,20.06616,21.11824,20.79918,21.39799,21.35342,21.77434,21.9205,22.22932,22.60055,22.60226,22.82315,23.02559,22.46836,22.26164,21.64845,21.75022,22.34004,22.33138,22.7748,23.25423,23.82651,24.5788,24.94281,25.50773,26.23781,27.20074,27.53154,28.38643,28.72133,29.23579,29.87384,30.57461,30.55437,30.4139,30.74688,31.07586,30.97046,31.04157,30.54039,30.04032,29.96693,29.56391,29.44036,28.43646,27.7029,27.40617,26.30945,25.34018,24.4343,22.96777,21.944,20.77631,19.49536,18.17515,16.38543,14.74716,13.34449,12.08374,10.32942,8.619662,6.825333,5.493714,4.21398,2.614412,0.4387521,-1.006135,-2.606179,-3.832135,-5.47618,-7.441115,-8.829748,-10.08283,-11.67276,-12.76511,-14.51704,-16.07514,-16.93041,-18.30435,-19.64866,-20.45346,-21.67697,-22.59088,-23.46161,-23.92974,-24.99219,-25.56534,-26.74348,-26.99706,-27.47017,-27.94847,-28.24988,-28.44973,-28.84669,-29.14163,-29.24082,-29.55201,-29.29441,-29.55719,-29.17616,-29.5174,-29.4088,-29.02645,-29.26166,-28.79252,-29.00262,-28.41879,-28.20732,-27.89805,-27.26896,-27.22782,-26.90415,-26.64625,-26.80068,-26.50635,-27.03213,-27.39416,-27.49134,-27.85732,-28.29945,-29.09501,-30.21734,-30.70333,-31.64301,-32.03404,-32.36405,-32.54529,-32.7043,-33.29497,-33.21547,-33.55447,-34.56781,-34.47016,-34.91533,-34.88564,-34.13751,-33.71308,-33.89528,-33.70474,-33.69944,-33.9481,-34.356,-34.49344,-34.82449,-35.39436,-35.6119,-36.35225,-36.9172,-37.60152,-38.25454,-38.81387,-39.33003,-39.97,-39.86708,-40.6335,-40.90451,-40.98696,-41.61564,-41.59413,-41.7938,-41.81665,-41.83901,-41.7339,-41.28756,-40.80181,-40.18865,-39.70308,-39.17612,-37.89289,-37.37167,-36.22036,-35.07724,-34.19488,-32.7433,-31.56615,-30.23789,-29.23466,-28.23871,-26.37064,-24.91594,-23.62106,-22.03928,-20.78547,-19.10679,-17.57637,-15.78228,-14.58291,-12.83622,-11.30077,-9.760557,-7.999793,-6.7518,-5.059411,-3.550269,-1.868718,-0.7256277,0.7183529,1.800577,3.780652,5.022774,6.346792,7.600781,8.228981,9.442604,10.57337,11.85485,12.63257,13.37126,14.19155,15.42844,16.09096,16.74752,17.16529,17.51572,18.07622,18.70617,18.87528,18.83723,19.13393,19.11187,18.96919,18.6809,18.59817,18.50663,18.24416,17.89322,17.66744,17.33267,17.02416,16.56247,16.48318,15.94474,15.46442,15.11991,14.93327,14.6939,14.46624,13.9665,13.48975,14.06282,13.7044,14.03875,14.45148,14.77958,16.06634,16.8445,16.5832,16.72408,16.90561,17.39461,17.65284,17.86632,17.80659,17.86482,17.98906,18.29044,18.15807,18.1789,18.04831,18.05152,18.23305,17.97657,18.34531,18.00368,17.89401,17.78407,17.41372,17.30331,16.72692,16.51429,16.43955,16.31002,16.37651,15.7737,15.53901,15.44022,14.96989,14.50958,14.35715,13.48763,13.68404,13.34852,12.64747,12.5103,12.09434,11.66427,11.37003,10.75405,10.46267,10.36793,9.713234,9.574397,9.129097,8.561428,8.41726,8.420691,7.706968,7.893892,7.137174,7.04577,6.944903,6.864572,6.722101,6.309295,6.534005,6.33024,6.199293,6.50903,6.414285,6.096288,6.3401,6.340097,5.796713,6.206755,6.167129,6.151988,6.324217,6.286806,6.34144,6.33841,6.41754,6.578754,6.411731,6.056848,6.310012,6.568777,6.032317,6.760134,6.562291,6.438158,6.418941,7.03244,6.804636,6.935919,7.00758,6.847317,7.338828,7.126974,7.596245,7.759706,7.864151,8.154817,8.224812,8.405434,8.352007,8.356381,8.697947,8.26865,8.604415,8.814323,8.376694,9.06167,8.3502,8.338568,8.475357,8.057696,8.399699,8.497921,8.073021,7.998159,8.11634,8.017378,7.849891,8.1671,8.1601,8.548498,8.708329,8.835325,8.816523,8.880245,9.442538,9.570324,10.17669,9.712273,10.54564,10.33581,10.88161,11.01341,10.49533,10.95665,11.17043,11.31575,10.99865,10.40575,10.36526,9.856996,9.075447,9.369264,8.68316,8.492342,8.60749,8.43709,8.227855,8.167029,8.104407,8.106362,8.13326,8.10807,8.205199,8.479456,8.231657,8.616029,8.650127,8.380504,9.066573,8.979773,9.135028,9.315218,8.792229,9.00005,9.206532,8.983723,9.176507,8.687638,8.839726,8.552926,8.389469,8.603773,7.832699,7.4934,7.675773,6.94269,6.641515,5.953563,5.641211,5.255751,5.112899,4.433107,3.691473,3.09694,2.343724,1.920477,1.045974,0.285284,-0.5255842,-1.202664,-2.077864,-2.437969,-3.843023,-4.862746,-5.819883,-6.606277,-8.271062,-8.606269,-9.424691,-10.43702,-11.02911,-11.07644,-12.2666,-13.26424,-14.53686,-15.32124,-16.25534,-17.71026,-18.42147,-19.54781,-20.46843,-21.78564,-22.34879,-23.41019,-24.30104,-25.23108,-25.99073,-26.64936,-27.72592,-28.49837,-28.347,-29.18271,-29.21102,-29.35944,-29.15613,-29.24438,-28.61987,-28.63503,-28.00673,-27.43186,-26.89192,-26.38538,-25.164,-24.31288,-23.5353,-22.442,-21.21336,-20.60632,-19.23003,-18.54531,-17.38063,-16.76894,-15.8371,-14.80931,-14.12856,-13.85802,-13.4281,-12.81865,-12.65575,-11.56358,-10.76611,-9.556172,-9.60922,-8.391265,-7.551085,-7.586404,-6.335294,-5.824158,-4.976873,-4.683822,-3.925741,-3.628819,-3.45503,-2.625203,-2.196512,-1.584954,-0.5925737,-0.5311592,0.416485,0.344988,0.8429709,1.218243,1.400873,2.17194,2.506509,2.277003,3.24959,2.963398,3.319115,3.165243,3.213538,3.223925,2.969761,3.151792,2.884903,2.751494,2.797468,2.055364,3.80643,3.386189,2.827731,2.838369,2.474234,2.146304,1.580295,1.121625,0.4126852,-0.3466662,-0.7856253,-1.452408,-2.307345,-2.73467,-3.370657,-3.921424,-4.538501,-4.811456,-5.088738,-4.595472,-5.156099,-5.476734,-5.514777,-5.308228,-6.346337,-6.15113,-6.617274,-6.654636,-6.946522,-7.724745,-7.949601,-8.001481,-7.805835,-7.783102,-7.338743,-7.082033,-7.021987,-6.606046,-5.609199,-5.455784,-5.195984,-3.504731,-2.666113,-1.630592,-0.9044014,0.6070039,1.319016,2.398197,3.752397,4.560094,6.107428,7.277102,8.429155,9.540238,10.82911,12.09798,13.25137,14.54659,15.27535,16.48926,17.54481,18.81793,19.01103,19.85912,20.79586,21.37433,22.0621,22.3016,23.01431,23.20818,24.16483,24.4946,24.35004,24.37905,24.20284,24.30247,23.65319,23.02102,22.99421,21.98337,21.6471,20.38529,19.65942,18.21581,17.8239,17.46872,16.1257,15.13697,14.35027,12.86585,12.43866,11.0827,10.40909,9.446233,8.695935,8.073448,6.795755,6.039289,5.679248,4.01311,3.645156,2.046287,3.754278,2.33539,2.150272,2.06224,1.650635,1.511234,0.5327903,0.5220671,0.9297582,-0.7298802,-0.9890213,-1.824495,-2.385806,-3.0689,-3.874916,-4.710156,-5.237355,-6.063568,-6.435012,-7.282857,-7.454441,-8.168201,-8.607669,-9.193402,-9.650016,-10.07542,-10.46918,-10.72997,-11.16994,-11.20138,-11.63799,-11.94043,-12.26179,-12.30986,-13.06241,-13.47068,-14.05815,-14.24257,-14.01737,-13.2181,-13.82009,-13.4042,-12.83178,-12.79114,-12.18957,-11.49599,-11.10318,-10.53146,-10.32631,-8.730863,-8.52733,-7.784888,-7.267681,-5.63233,-5.706358,-4.474464,-3.733338,-2.870064,-2.155736,-1.140258,-0.7165992,0.354218,1.228089,1.854616,2.617669,2.986594,3.741293,4.406885,4.916473,5.529581,5.448742,6.329081,6.515054,6.679834,7.102733,7.129078,7.279261,7.005944,7.737201,6.895228,6.743948,6.65382,6.037532,5.626359,5.143824,4.44693,4.101323,3.275059,2.560076,1.765648,0.6699077,-0.1566865,-0.927394,-2.044612,-2.931003,-3.946694,-4.544021,-5.585275,-6.25639,-7.169738,-7.935099,-8.35556,-8.975475,-9.477296,-9.82177,-10.26201,-10.12632,-10.65523,-9.901956,-10.30713,-8.547328,-10.42758,-9.955754,-9.708816,-10.01031,-10.02291,-9.928182,-9.496707,-9.414054,-8.976669,-8.594885,-8.565142,-7.72131,-7.4216,-7.025071,-6.462374,-5.861918,-5.415647,-4.872492,-4.434213,-3.949354,-3.525817,-2.774006,-2.174823,-1.626172,-1.250609,-0.6243392,-0.1299686,0.2982262,0.7547122,1.089023,1.608945,1.974721,2.142628,2.440774,2.62523,3.026309,2.895485,3.364334,3.397377,3.054021,4.052563,3.712102,3.582977,4.409886,3.853728,4.115473,4.214976,4.17403,4.555907,4.175292,4.387826,4.503465,4.505714,4.525368,4.698074,4.845569,4.474725,4.519706,4.417879,4.803691,4.747735,4.679962,4.709445,4.927437,5.235908,5.113884,4.890787,5.25304,4.926849,5.418874,5.207443,5.137949,5.593221,5.859283,5.650334,5.865549,6.145575,5.961845,6.132757,6.569851,6.3751,6.912184,7.057127,7.447276,7.581359,7.828276,8.106348,8.338844,8.135761,8.400071,8.5937,8.486553,8.937912,9.129394,8.905862,8.938149,9.4488,9.269497,9.462744,9.262495,9.66869,9.570328,9.807958,9.651337,9.678734,10.16542,9.761063,9.849635,9.569746,9.905928,9.522572,9.342499,9.268083,8.339238,8.422177,8.2303,7.855105,8.264892,8.117146,8.426182,8.029821,8.550154,8.675172,9.023398,9.168725,9.511824,9.605209,9.989803,10.07994,10.74607,10.89422,11.5242,11.02219,11.81694,11.5023,12.16528,12.13937,11.88842,12.16948,12.45397,12.40511,12.17043,12.21016,12.06262,11.94864,11.67733,10.99142,11.4169,10.74299,10.9153,10.65736,9.961981,10.05521,9.998611,9.066548,9.270536,8.411695,8.393783,7.679828,7.222397,7.220491,6.697517,6.417004,6.359559,5.458454,5.145643,4.634161,4.669766,3.591515,3.729678,2.861528,2.620365,2.053853,1.273746,1.125257,-0.14807,-0.1946261,-0.825083,-1.663429,-1.844827,-2.915384,-3.501252,-3.972041,-4.679687,-5.32399,-5.730157,-6.65253,-7.296943,-7.850166,-8.19537,-9.075393,-9.106594,-10.43361,-10.92778,-11.33383,-11.82214,-12.14806,-13.27652,-13.7377,-13.85533,-14.21762,-15.0093,-15.25103,-15.80819,-16.20588,-16.69872,-16.9568,-17.60461,-17.65742,-17.15945,-17.82723,-17.86832,-18.24117,-18.764,-19.33859,-19.75402,-20.97929,-21.19348,-21.93596,-23.02842,-24.21752,-24.31368,-26.11459,-26.42076,-26.37412,-27.28547,-27.17312,-27.95469,-27.9722,-28.02691,-28.10764,-27.47106,-27.69581,-27.01304,-27.07903,-26.68125,-26.47918,-25.76916,-25.58757,-24.68043,-24.35515,-23.57133,-23.1931,-21.94477,-22.002,-20.42957,-20.34299,-18.81753,-18.1028,-17.31304,-16.43206,-15.84344,-14.69687,-13.97163,-12.92251,-12.34689,-11.33971,-10.10476,-9.280053,-8.260042,-7.748736,-6.365589,-5.60988,-4.633523,-3.893753,-2.793627,-2.044579,-0.8275673,-0.3097186,0.6661309,1.847727,2.419019,2.84382,4.078778,4.581884,5.734388,6.073353,6.883168,6.847683,8.160253,8.148173,8.898882,9.049057,9.507167,9.962327,10.29346,10.56181,10.60669,10.65964,10.81297,10.88741,10.65038,10.73276,10.86138,10.33179,10.09871,9.664838,9.699697,9.058274,9.191901,8.064841,7.925233,7.205676,7.149887,6.464131,6.131321,5.282332,5.275947,4.856729,4.755151,4.41667,3.835205,3.599626,3.553461,3.427129,2.946118,2.833259,3.231859,2.615031,2.877023,1.763341,1.82349,1.13647,0.5343729,0.296987,0.06556822,-0.8080555,-0.8348352,-1.694498,-2.184299,-2.108032,-2.26911,-3.301539,-2.802831,-3.359504,-3.480374,-3.234111,-4.123811,-3.189998,-3.801451,-3.260144,-3.62359,-3.43286,-3.395668,-3.588189,-3.377267,-3.31015,-3.124755,-3.2629,-2.856179,-2.675099,-2.721591,-2.329177,-2.43931,-1.729057,-1.160946,-1.139908,-0.7678964,-0.8825145,-0.1051735,0.3776387,0.5420567,1.054237,1.307451,1.55175,2.147059,2.421987,2.614617,3.27946,3.293817,3.632653,4.261548,4.271885,4.743301,4.52422,4.986105,5.177975,4.905959,5.271862,4.996736,5.37993,5.61429,5.559707,6.242679,5.785812,6.285396,5.995067,6.173603,5.864109,6.184376,6.151179,6.356788,6.044192,6.415408,6.952113,6.759029,6.661692,6.895438,7.200519,6.970802,7.702095,7.062089,7.381246,7.285311,6.914239,7.753303,7.481693,7.486316,7.242394,7.372182,7.282687,7.598251,7.103774,7.748909,7.085957,7.992304,8.022333,7.771018,7.916455,8.337074,8.258951,8.935491,8.691435,8.927041,8.998459,9.098282,9.223437,9.447034,9.613456,9.896253,10.03276,10.24891,10.48277,10.64399,11.04495,10.90917,11.08175,11.53781,11.43797,11.71529,11.81322,11.89403,12.13366,12.07079,12.33755,12.62098,12.45118,12.66101,12.68311,12.95156,12.85685,12.98413,13.38018,12.72177,13.03447,12.05524,11.795,12.41023,12.12703,12.38814,12.5888,13.04912,13.78015,13.92425,14.78275,15.36039,15.32946,16.26083,16.89899,17.27262,17.63448,17.89823,18.27261,18.40561,18.64242,19.185,19.54337,19.51148,19.27763,19.17837,18.95421,19.55666,18.96947,18.55549,18.17951,17.64639,17.35971,16.98059,16.59753,15.74204,15.51234,14.62339,13.97524,13.08336,11.9625,11.69635,10.16359,9.600789,8.672521,7.704518,6.852847,5.804421,5.144415,4.160035,3.379319,2.034814,1.589606,0.957789,0.1061292,-1.175489,-1.679466,-2.804144,-3.415394,-4.350526,-5.052358,-5.622427,-6.984304,-7.227297,-8.203649,-8.681265,-9.395147,-10.06005,-10.8449,-11.27362,-12.36035,-12.41589,-13.18819,-13.93375,-13.72854,-14.10497,-14.85173,-14.58892,-15.07794,-15.46351,-15.76365,-15.91682,-15.96189,-15.79449,-16.24166,-16.32281,-16.55785,-16.32887,-16.41719,-16.31849,-16.58973,-16.6378,-16.52564,-16.469,-16.66714,-16.59643,-16.83711,-16.95577,-17.02528,-17.53368,-16.17959,-16.72115,-16.34973,-16.60627,-16.62542,-16.92219,-17.7665,-18.40508,-18.90186,-20.32026,-20.74979,-21.48565,-21.96389,-21.48256,-22.35047,-22.7096,-22.96305,-23.35317,-23.84636,-24.05047,-24.51376,-24.77515,-25.32347,-24.96272,-25.48247,-25.78582,-26.11716,-26.21972,-25.8817,-25.90018,-25.72185,-25.59837,-25.11382,-25.59901,-24.98406,-24.26627,-24.01073,-23.13458,-23.15607,-22.20655,-22.02909,-21.50153,-20.56724,-19.53751,-19.19799,-17.98529,-17.78285,-16.87278,-15.92496,-14.87954,-14.16828,-12.71044,-12.17996,-11.03938,-10.10012,-9.137659,-8.263382,-7.643995,-6.418074,-5.763841,-4.479684,-3.88867,-2.826752,-2.184666,-1.045249,-0.3919198,0.4353201,0.7809422,1.179226,2.141893,2.777714,3.281421,3.819215,4.323596,4.613921,5.354267,5.636926,5.634983,5.944027,6.58113,6.623619,6.981476,6.64376,6.913406,6.834898,6.982544,6.433472,6.62119,5.910325,5.51777,5.578495,5.160808,4.866749,4.357999,3.84796,3.700651,2.974397,2.79008,2.303877,1.755931,1.418378,1.547183,0.8825625,0.8470676,1.096944,0.9218061,1.284647,1.024655,1.928452,2.106028,3.282487,2.467015,2.918257,2.668684,3.30828,3.0466,3.312967,3.028213,3.663086,3.722025,3.998329,4.213908,3.66009,4.64228,3.945578,4.237265,4.174117,4.125907,4.222767,4.377509,4.218422,4.605692,4.152284,4.515439,4.637595,4.806603,4.845114,4.983834,5.240467,4.922159,5.552692,5.384909,5.563147,5.209611,5.687944,5.470632,5.486411,5.42697,5.359423,5.128484,5.351678,5.317715,5.196941,5.249232,5.391206,5.335824,5.191152,5.685858,5.959383,6.160569,5.99405,6.121829,5.549037,5.871158,5.80744,5.888675,5.796555,5.617503,5.727253,5.76989,5.485338,5.377037,5.697139,5.109749,5.4295,4.987084,5.273972,4.733288,5.226512,5.197821,5.277306,4.991462,5.218298,4.910129,5.50072,5.344079,5.69032,5.890752,5.722602,6.118005,5.749647,6.049804,5.74171,5.951226,5.655658,5.955466,5.704241,5.266555,5.308527,5.344965,5.464847,4.913659,5.407418,4.456975,4.53107,4.028886,4.173771,3.941576,3.665684,3.533402,3.723004,3.599873,3.852284,4.210353,4.115262,4.589084,4.463624,5.100496,5.445645,5.244039,6.073036,6.171161,6.736892,7.094136,7.285279,7.770002,8.289074,8.627692,8.699576,9.191269,9.456522,10.0438,10.00354,10.3301,10.07518,10.8118,10.80135,11.66655,11.71422,11.79745,11.94446,12.64031,12.62737,13.36999,13.25854,13.69903,13.52854,13.88547,12.81138,12.90925,13.19119,13.03025,13.51497,13.72053,13.54746,13.79049,14.57035,14.74275,15.25537,15.21991,16.16599,15.92358,16.99614,17.15467,18.05291,17.87431,18.45165,19.31116,18.71931,19.00413,18.68802,18.74363,19.3022,18.76157,18.61066,18.45893,18.38844,17.99127,17.15108,17.23162,16.35968,16.24348,15.56542,14.7101,14.44523,13.43722,13.12517,11.97422,11.44812,10.21357,9.610752,8.482517,8.601019,6.773022,6.552487,5.152589,4.559557,3.712016,2.395563,1.380009,0.377417,-0.7995832,-1.371941,-2.636833,-3.372017,-4.580667,-5.989039,-6.630234,-7.368161,-8.774566,-9.893948,-11.06584,-11.92126,-13.28489,-13.92845,-15.71586,-15.94136,-17.0949,-17.84362,-18.5265,-19.25245,-20.44798,-20.00402,-21.17282,-21.57367,-21.45295,-22.30875,-21.37358,-22.19066,-21.93448,-22.29312,-22.23095,-21.66438,-21.71591,-21.57171,-21.42741,-20.77621,-20.83928,-19.95833,-19.89635,-19.63978,-19.33055,-18.78028,-18.13381,-17.76512,-17.13349,-16.91456,-16.52802,-15.74695,-15.50761,-14.85082,-14.56264,-14.58129,-14.14961,-15.00153,-15.1412,-16.09176,-16.68841,-17.63702,-17.29907,-17.9682,-18.25988,-18.81428,-19.30456,-19.8871,-20.12947,-20.28841,-20.81793,-20.7904,-21.33353,-21.18884,-21.30695,-21.45106,-21.82305,-21.40924,-22.18038,-21.65218,-21.59617,-21.82488,-21.09857,-21.38852,-20.65341,-20.59316,-20.13339,-19.6129,-19.23133,-18.37574,-18.32824,-16.95765,-16.31743,-15.35532,-14.9765,-13.62455,-12.45941,-12.15225,-11.48823,-10.50596,-10.06414,-8.872432,-8.098558,-7.485243,-6.663624,-5.531882,-5.206521,-3.856489,-3.326414,-2.156097,-1.464782,-0.187194,0.3527748,1.856338,2.533769,4.451978,4.887109,6.270925,6.725751,7.800222,8.744509,9.514576,10.03141,10.8076,11.45053,11.89836,12.37414,12.64266,12.82075,13.72157,13.60902,14.17086,14.12438,14.13356,13.81734,14.60198,13.99699,14.24312,14.20381,13.77685,14.013,13.63542,13.41357,13.05078,12.95184,12.41105,12.10751,11.78175,11.47125,11.17514,10.16049,10.98945,9.475233,9.970813,9.819548,9.280824,9.225321,8.873139,8.745747,8.561878,8.695997,9.439559,8.851336,8.933241,8.218735,8.095785,7.594138,7.08366,6.857389,6.251225,5.612679,5.222196,5.232362,4.683089,4.230909,3.823738,3.522378,2.766841,2.822035,2.057289,1.638485,1.298769,0.819221,0.6091865,0.1114158,-0.6610059,-0.8462969,-1.181041,-1.82297,-1.627072,-2.688732,-2.187649,-3.0079,-2.977152,-3.510149,-3.906964,-3.659494,-3.974805,-3.498651,-3.674175,-3.592637,-3.114571,-3.758095,-2.799062,-3.765347,-3.31574,-3.667795,-4.060308,-3.443944,-3.615526,-3.62223,-3.505807,-3.688078,-3.606649,-3.256583,-3.362705,-3.286925,-3.219562,-2.702862,-2.755383,-2.482564,-1.841166,-1.589826,-0.986458,-0.4926332,-0.05398461,-0.2574596,-0.007583892,-0.03255707,0.334202,0.0889061,0.1330823,0.3080359,0.3919369,0.4927802,-0.02015024,0.7609027,0.3756081,0.6727809,1.149584,1.126141,1.438252,1.205318,2.098097,1.81327,2.660244,2.785317,3.194264,3.714581,3.876473,4.300471,4.709714,5.089578,5.514347,5.767248,6.253615,6.76487,7.070135,7.58241,7.635592,7.974497,8.96922,8.474162,9.0676,9.173984,9.137422,9.547461,9.859439,10.04526,10.53699,10.37436,10.94143,10.84872,11.33128,11.27353,11.45394,11.3781,11.97256,12.23595,12.54798,12.4382,12.51968,13.02584,12.36444,13.20771,12.66305,12.69516,12.48835,13.2017,12.70929,12.18045,11.52231,11.71818,12.03448,11.63641,11.44477,11.64604,11.62533,12.20436,11.94285,12.49113,12.05959,12.70685,13.03344,13.00996,13.30792,13.48528,14.08527,13.96749,14.00028,13.95959,13.97134,14.03229,14.54181,13.93454,14.39613,13.74815,14.24358,13.80139,13.92779,13.73697,13.59645,13.48917,13.54302,12.79343,12.8369,12.08641,11.86943,11.94665,11.35908,11.16929,10.97345,10.39396,9.66296,9.373331,7.958878,6.867344,6.241673,5.098039,4.48999,2.889395,2.08872,1.139143,-0.151962,-0.776243,-2.35941,-2.722269,-4.501943,-4.838122,-5.888208,-7.291184,-8.14174,-9.146079,-9.610624,-11.15223,-11.65905,-12.69482,-13.68186,-14.31153,-15.64815,-15.99071,-16.79948,-17.47193,-18.35053,-18.80286,-19.53187,-20.00886,-20.90501,-20.8694,-22.1584,-21.59353,-22.32404,-22.49121,-23.00199,-22.46531,-22.70005,-22.33937,-22.46149,-22.71359,-22.22024,-22.26521,-21.29414,-21.61959,-20.98517,-20.7483,-20.22624,-19.81255,-19.52068,-18.12221,-17.91639,-17.38821,-17.3484,-16.98379,-16.84749,-16.67891,-17.56877,-17.32019,-18.20017,-18.419,-19.4831,-20.18495,-20.14276,-19.97152,-20.67795,-21.15448,-20.71252,-20.89613,-21.07953,-21.01652,-21.41568,-20.77998,-21.32763,-20.22592,-20.94578,-20.28012,-20.29923,-19.60546,-19.10963,-19.21562,-18.60721,-17.66774,-17.31456,-16.62344,-16.22051,-15.82967,-14.7867,-14.22022,-12.73038,-12.60911,-10.95119,-10.22465,-9.341698,-8.247135,-7.467766,-6.619035,-5.318373,-4.40665,-3.194908,-2.030716,-1.460049,-0.08251614,1.248022,2.356307,3.731252,4.700696,5.606902,6.868247,7.9719,8.554048,9.223751,10.67185,11.08607,12.23549,12.99213,13.99146,14.55298,15.72147,15.8694,16.63587,16.75058,17.46662,17.97577,18.71611,18.74748,19.23977,19.74846,20.11715,20.0617,20.36798,20.1563,20.70056,20.47211,20.47229,20.38221,20.00346,20.01201,19.85345,19.72784,19.73551,19.11601,19.77022,18.61745,19.19028,18.70519,18.7165,18.55994,18.27199,18.05807,18.32295,18.0509,18.02795,18.4942,17.81362,18.25043,18.40328,18.29662,19.14601,19.13165,20.3902,19.42989,19.6031,19.70963,19.75186,19.81788,19.28395,19.05824,19.35561,18.99752,18.79876,18.21468,18.40121,17.44512,17.57675,17.00851,16.49124,16.03414,15.40996,14.74176,14.38173,13.53503,13.23492,12.79968,12.01962,11.79041,10.95673,10.13417,10.08265,8.834604,8.617727,7.767932,7.319709,6.606892,6.296061,5.734956,4.752733,4.41632,4.096834,3.35498,3.222895,2.662353,2.117838,1.502258,1.690331,0.7176287,0.3508583,-0.0614401,0.0444478,-0.5488116,-0.6480632,-0.968185,-0.8406127,-0.9037092,-0.9206345,-1.442658,-1.584763,-1.773602,-2.132857,-2.383034,-2.583535,-2.973395,-2.486797,-3.575842,-2.765567,-3.172888,-3.589721,-3.824454,-3.570386,-4.432502,-4.065164,-4.246804,-4.092226,-4.162579,-3.916439,-4.163936,-3.893155,-4.082965,-4.083741,-3.603058,-3.954903,-3.60152,-3.834732,-3.638201,-3.409967,-3.679595,-3.871264,-3.371385,-3.534776,-3.399023,-3.488673,-3.770729,-3.632536,-3.516752,-3.21917,-3.284762,-3.506115,-2.927006,-3.825981,-3.405511,-3.41347,-4.172559,-3.918807,-3.672108,-4.690502,-4.042569,-4.52301,-4.582394,-4.674474,-4.656732,-4.843828,-4.861357,-5.06127,-5.59015,-5.689288,-5.705457,-5.879687,-5.979358,-6.202015,-6.446627,-7.417241,-7.428278,-7.795689,-8.533172,-8.652119,-9.711823,-9.798085,-10.60165,-10.83191,-11.52771,-11.53004,-12.49911,-12.84237,-13.06917,-14.21433,-14.71301,-15.72896,-15.60367,-16.40881,-16.88711,-16.38103,-16.87269,-16.73297,-16.86841,-16.67402,-16.4251,-16.58219,-15.80629,-16.01314,-15.49526,-15.43667,-15.4022,-15.28334,-15.14102,-15.20457,-13.26483,-12.65949,-12.21319,-12.02721,-11.704,-11.94001,-12.15605,-12.47953,-12.91406,-13.43216,-13.91118,-13.71009,-15.2938,-16.07648,-16.36751,-17.55532,-17.84417,-19.25502,-21.04537,-22.22295,-23.70029,-25.70081,-27.00941,-28.55126,-30.55285,-31.83348,-33.90725,-35.55772,-37.25823,-38.91439,-39.43691,-40.7977,-41.05357,-41.25368,-41.57087,-41.53665,-39.95494,-39.97051,-38.19228,-37.94721,-36.45594,-35.04883,-33.7661,-32.49603,-30.74175,-28.93237,-26.68784,-24.68565,-22.35418,-20.76374,-17.49699,-15.44194,-12.41336,-10.4491,-6.528569,-3.92635,-1.463878,1.995215,4.806113,7.099676,10.85915,12.94737,16.08093,18.22223,21.44593,23.30113,26.0745,27.79191,30.16879,32.24196,34.54838,35.97042,37.40307,38.66921,40.01936,40.93692,41.63984,42.96819,42.47807,43.35036,43.13588,42.88716,42.43513,41.89716,41.53814,39.78954,39.14599,37.09424,35.6914,33.45067,31.94343,30.16986,28.48689,26.2827,24.38952,22.57825,20.53099,18.58178,16.39735,15.07457,12.81872,11.92767,9.506673,7.319689,7.030681,5.03426,4.658591,3.788764,2.606238,3.852113,3.316821,2.540816,1.618603,1.538,1.180123,1.67434,0.5408892,1.680401,1.958916,1.667071,3.847188,2.889115,3.954973,4.045959,5.622436,5.019915,5.820436,5.153393,4.96678,5.432539,4.595441,4.625945,4.03683,4.060039,3.004225,2.570449,1.818944,1.794995,0.9580905,0.989607,0.5738918,0.311317,0.5255106,0.1915428,-0.2418004,0.8517922,0.6374572,0.0766,-0.07683767,-0.7062336,-0.9057126,-1.112378,-1.718282,-1.220181,-2.559358,-1.290682,-3.493315,-2.547665,-2.547261,-2.932286,-1.933094,-2.058048,-1.510199,-1.486383,-0.5808729,-0.9447189,-0.4482975,0.4071741,0.3292128,1.137768,1.587209,1.768968,2.452175,2.853506,3.046222,3.52267,3.806823,3.729324,4.15268,3.870271,4.340407,3.589017,4.632848,4.343044,3.749822,3.716218,3.283886,3.261237,2.101586,1.864923,0.5866473,0.06172594,-0.491425,-1.306353,-1.569006,-3.57535,-3.325709,-5.693733,-5.799862,-7.512425,-8.742581,-9.826959,-10.74919,-11.71883,-13.61875,-13.91135,-15.18577,-15.96703,-16.7725,-17.7025,-18.40411,-18.87687,-20.55187,-20.25602,-20.47166,-21.61744,-21.66711,-21.61313,-21.98693,-21.20121,-22.30037,-20.74005,-21.29645,-20.7533,-19.79238,-19.45104,-19.86871,-17.12136,-17.30258,-16.2971,-14.68542,-14.54363,-12.28222,-11.56404,-9.737774,-8.963553,-7.472112,-5.679473,-4.219729,-2.611439,-1.050477,0.7058018,2.124292,4.11037,5.136003,6.984355,7.813859,9.742707,10.74635,12.26558,13.13713,15.29395,15.55145,17.15506,18.05148,19.51251,19.46276,19.71494,20.02436,20.8818,20.53402,21.39014,21.02438,21.98788,21.30368,22.42909,20.86281,22.91557,22.14315,21.98095,22.18312,21.88755,21.439,21.30904,21.55018,21.02045,20.74217,20.83505,20.57351,20.58065,20.08477,19.69128,19.36272,19.243,18.43534,18.48563,17.63047,16.95762,16.89703,16.24077,15.73591,15.45511,15.00423,13.80242,13.78849,12.55463,12.64197,11.49035,10.91934,10.33515,10.2598,9.347584,8.769269,8.517517,7.804099,6.107739,5.6496,4.039592,3.422606,2.134197,1.456658,0.4455035,-0.4820583,-1.436313,-2.65904,-3.040472,-4.156436,-5.005363,-5.737789,-6.619201,-6.518577,-7.689549,-8.232952,-8.435332,-9.310718,-9.335482,-9.622266,-9.841902,-10.28518,-10.31948,-10.16949,-10.28293,-10.50041,-10.14349,-9.924892,-9.935321,-9.330981,-8.863158,-8.707224,-8.263305,-7.413419,-6.832569,-6.510062,-5.406198,-5.277122,-4.037138,-3.963663,-2.724577,-2.394152,-1.367344,-0.7838107,-0.4475834,0.4969698,1.241822,1.613616,2.732933,3.001001,4.143351,4.248627,5.282566,5.718133,6.110257,5.99696,6.828955,6.787062,6.71777,6.275861,6.833279,7.164616,7.147357,7.061456,7.184479,6.850146,7.031295,6.331636,5.994605,5.573571,4.927139,4.657101,3.574707,3.551447,2.06883,1.892819,0.8702152,0.7135021,-0.3022939,-0.5864869,-1.159826,-1.692445,-2.647555,-2.203388,-3.097162,-3.157945,-3.500699,-3.881337,-3.585515,-3.998131,-4.010414,-4.011464,-3.757209,-3.92436,-3.293027,-3.808256,-2.861816,-2.902459,-2.791337,-1.910636,-2.364561,-1.70053,-1.506334,-1.310227,-1.600176,-1.496743,-1.78604,-1.341761,-2.138687,-1.767024,-2.046998,-2.297368,-1.928062,-2.482565,-2.63726,-2.593012,-2.884911,-2.527584,-2.980957,-2.532779,-3.286905,-2.781532,-2.911465,-3.041097,-3.708955,-3.297807,-4.032224,-3.34712,-4.161406,-3.450594,-4.447737,-3.737933,-4.46988,-4.203392,-5.016637,-4.924622,-5.481518,-6.259651,-5.787311,-7.134868,-6.863965,-7.543097,-8.137613,-7.927839,-9.197247,-9.095853,-10.33757,-10.28005,-10.9655,-12.02037,-11.86036,-12.64564,-13.32939,-13.77809,-13.92532,-14.66338,-14.49151,-15.36721,-14.84701,-15.59633,-15.27129,-15.77464,-15.73496,-15.50188,-15.673,-15.72476,-15.36799,-15.94981,-15.40576,-15.38979,-14.86019,-15.73192,-15.60626,-15.4666,-16.32992,-14.69177,-15.18128,-15.38113,-15.39433,-15.76814,-16.12707,-16.40775,-17.37142,-17.53207,-19.5365,-17.94931,-19.97091,-19.50664,-20.81365,-20.71185,-21.91053,-22.13243,-22.37224,-22.71514,-23.45936,-23.85278,-23.70424,-23.99425,-24.07101,-24.14407,-24.40857,-24.19812,-23.91124,-24.32641,-23.59248,-23.59122,-22.72198,-22.55632,-21.84743,-21.39845,-20.56358,-19.76339,-19.11885,-18.29228,-17.03984,-16.77068,-15.15183,-13.85309,-13.38858,-11.73745,-10.54813,-9.708676,-8.075683,-7.027406,-5.828431,-4.23625,-3.177461,-1.786754,-0.6534155,0.5617295,1.73286,2.995277,4.207521,5.52513,6.871729,8.587806,9.410965,11.52134,11.56623,14.00557,14.09292,16.14634,16.20357,18.18394,17.78162,20.19183,19.71676,21.39991,22.04823,22.72442,23.87022,24.06433,24.96395,25.67333,25.51894,26.4981,26.50553,27.21882,26.77372,27.32343,27.86044,27.37666,27.22007,27.17499,27.40085,27.00089,27.50619,27.13194,26.98026,26.64519,26.84168,26.29514,26.17719,26.12816,25.34328,24.8087,23.92103,23.37165,23.03788,22.76638,22.91084,22.24571,22.54789,22.82355,22.7393,24.10574,22.60857,23.41447,23.25686,23.57349,23.79609,23.92186,23.76154,24.46147,23.85657,25.63687,24.05182,25.32009,24.43111,25.10955,24.68276,24.94205,24.62845,24.10881,24.30658,23.88441,23.84499,22.75422,23.12877,22.14569,21.92023,21.45088,20.74528,20.20584,20.04195,19.76094,19.21264,18.28696,17.3456,16.84217,15.88703,15.31501,14.22472,13.21035,12.90461,11.59415,11.28665,10.22435,9.212944,8.598434,7.689806,6.583035,6.563403,5.410044,4.350521,4.212233,3.190681,3.031829,1.896206,1.098592,0.7054793,-0.1365489,-0.2055326,-0.9071621,-1.436088,-1.920854,-2.348516,-2.969949,-3.676127,-3.75758,-4.223608,-4.657398,-5.324109,-5.081922,-6.202445,-4.932025,-6.287631,-5.391596,-5.719587,-5.655239,-5.405275,-4.972938,-4.793391,-4.547737,-4.43455,-3.751712,-3.159474,-3.561991,-2.314618,-2.603611,-1.565762,-1.956295,-0.7827015,-0.6655797,0.3410749,0.5776338,1.107106,1.324183,1.196474,1.837761,2.200478,1.771567,1.8236,1.185638,1.208157,0.6054379,0.6770124,0.7089523,0.6708843,0.8866398,0.4983922,0.3974994,0.3977124,0.283452,-0.140731,0.1317874,-0.3777827,0.1875832,-0.4850825,-0.2467347,-0.7073805,-0.5423447,-0.7690857,-0.6896737,-1.324309,-1.177541,-1.417883,-1.763773,-1.838534,-2.271937,-2.148426,-2.681471,-2.724007,-3.316116,-3.019312,-3.608237,-3.70651,-4.03695,-3.393609,-4.501235,-4.003036,-4.668327,-4.617862,-4.757953,-4.934265,-5.549562,-6.020534,-6.886003,-7.086938,-7.618951,-8.017639,-8.700052,-9.151209,-9.483325,-10.02207,-10.5174,-11.28144,-11.27716,-11.75986,-12.4294,-12.11756,-13.24155,-12.5939,-13.56991,-13.22785,-13.58508,-13.93286,-13.65707,-14.33901,-13.92385,-14.36269,-13.96262,-14.06083,-14.0151,-14.46246,-14.5807,-14.34447,-14.88945,-14.73015,-14.70773,-15.26734,-15.20818,-15.61593,-15.26538,-15.81602,-15.58344,-15.80798,-15.7593,-15.75523,-15.95333,-15.54479,-16.27839,-15.60771,-15.65748,-15.6752,-15.45137,-15.40618,-15.68731,-14.82381,-15.75516,-14.75978,-15.81784,-14.78163,-16.09747,-15.2589,-15.51745,-15.932,-15.81227,-16.16075,-15.86596,-15.97125,-16.66653,-16.19124,-16.93593,-15.98622,-16.61446,-16.22279,-16.66549,-16.47124,-16.69486,-16.59157,-16.83836,-17.10208,-16.7965,-17.57522,-16.94083,-17.65433,-17.02487,-18.15148,-17.09211,-16.91253,-16.88191,-17.15376,-17.23302,-17.52671,-17.75879,-17.853,-18.5819,-18.92669,-18.60622,-18.9159,-19.4146,-19.75923,-19.84884,-20.09856,-20.28658,-20.61284,-20.93134,-21.25169,-21.37806,-21.75065,-21.36215,-22.03868,-22.046,-22.11551,-22.22953,-21.84125,-21.99297,-21.45071,-21.50017,-20.6856,-20.67835,-20.28914,-19.53505,-19.36356,-18.60548,-18.02102,-17.48315,-16.45888,-16.41037,-14.79645,-14.55907,-13.06369,-12.52087,-11.10436,-10.30558,-9.068167,-7.839696,-6.975276,-5.497107,-4.446204,-3.106729,-1.59824,-0.7625003,0.9635573,2.126401,3.805367,4.510228,6.222232,7.201973,8.807455,9.738777,10.91317,12.20955,13.27145,14.63251,15.88737,16.62708,18.29513,18.75895,20.3991,21.04172,22.85491,23.23606,24.16077,25.11091,25.7917,26.58617,27.40758,27.92855,28.68056,29.11786,29.5779,29.89948,30.50284,30.6445,30.79655,30.99454,30.77007,31.50073,30.80866,30.981,31.06975,30.88859,31.19701,30.41863,31.03438,30.13985,30.41127,29.9303,28.97241,28.45885,28.60343,28.44833,28.00385,28.71047,28.13638,28.65803,29.2022,30.23819,30.3704,30.35419,30.71934,30.63229,31.07671,31.01438,31.48035,31.59024,31.9369,32.67918,32.16467,32.17486,32.34208,32.32558,31.89481,31.83219,31.55849,31.23008,31.17861,30.98432,30.85519,30.87453,29.93756,29.73485,28.61621,27.57776,26.60719,25.38093,24.20874,23.23878,21.91541,20.7396,19.98334,18.81812,17.83527,16.72272,16.38267,14.60952,14.50187,12.95918,12.78886,11.46048,10.71187,9.799831,8.936017,8.353647,7.028737,6.576027,5.758791,5.108741,4.367152,3.738481,3.466211,2.347795,2.233459,1.116413,0.900337,0.1448205,-0.5122896,-0.9084642,-1.74417,-2.498649,-2.463828,-2.939441,-3.387859,-3.507599,-4.051385,-4.363941,-4.423618,-4.70992,-4.200972,-5.012673,-4.354808,-4.676527,-4.331827,-4.311177,-3.993089,-3.731288,-3.685813,-3.51043,-3.603156,-3.415107,-3.212676,-3.073253,-2.970807,-2.867381,-2.433119,-2.746863,-2.347764,-1.965425,-2.740629,-1.934432,-2.534198,-2.41659,-3.009731,-3.279802,-3.412231,-4.493377,-4.407282,-5.640069,-5.867973,-6.267321,-6.501418,-6.860183,-7.419051,-7.487458,-7.846216,-7.86065,-7.582795,-8.402028,-8.280852,-8.988798,-8.990996,-9.250334,-9.264231,-9.505658,-9.388101,-9.651391,-9.340754,-9.745222,-9.324862,-9.917241,-9.265945,-9.722955,-9.063774,-9.303578,-8.442775,-9.039794,-8.179905,-8.308141,-7.681871,-8.1565,-8.80225,-8.935248,-9.779729,-9.949237,-10.00162,-10.63889,-10.98433,-11.16617,-11.64142,-11.55842,-11.9869,-12.63006,-12.41546,-13.2712,-13.01945,-14.18536,-13.65274,-14.36963,-14.51281,-15.02629,-15.31494,-15.89095,-15.61076,-16.32885,-16.29055,-16.66705,-16.85748,-16.81017,-16.98331,-17.04094,-16.89414,-17.37715,-17.07531,-17.54247,-17.29031,-17.73596,-17.57857,-17.42799,-18.16752,-17.19524,-17.54565,-17.17536,-17.95995,-17.28503,-17.74429,-17.35403,-17.28788,-17.28119,-17.38657,-17.4843,-16.61763,-17.32146,-16.67324,-17.29665,-16.8164,-17.14624,-17.24619,-16.94974,-17.66665,-16.75119,-17.21633,-17.17425,-16.91414,-17.35486,-16.18948,-17.07293,-16.34358,-16.7799,-16.63112,-16.31954,-16.47332,-16.18273,-15.91199,-16.07487,-15.02622,-15.56503,-14.78498,-14.80525,-14.62497,-13.99447,-13.80111,-12.92297,-12.90017,-12.10314,-11.72314,-11.49173,-10.82854,-10.82039,-10.0835,-9.592217,-9.45313,-8.800725,-8.742733,-8.080503,-7.760094,-7.32207,-7.24109,-7.224328,-7.596747,-5.188923,-6.074878,-5.104515,-5.004435,-4.694601,-4.497068,-4.19268,-4.100323,-2.717823,-3.85892,-2.949097,-3.850354,-2.80736,-3.569764,-3.442523,-3.586715,-3.895026,-3.962329,-4.384114,-4.174724,-4.593337,-4.639052,-4.9774,-5.070057,-4.922683,-5.312124,-5.473814,-5.575793,-5.12435,-5.645503,-4.900212,-5.465115,-5.032173,-4.509654,-5.014768,-3.551424,-4.123929,-3.217021,-2.691141,-2.120347,-1.684299,-0.7819331,-0.4063872,0.8521966,0.8553584,2.214179,2.635483,3.923347,4.672652,5.782505,6.770611,7.411261,8.438426,9.246783,10.5572,11.23664,12.34053,13.43379,14.38559,15.58691,16.32609,17.76918,17.834,19.5111,19.72724,21.09029,21.23255,22.59291,22.91797,23.69182,24.57303,24.78695,25.58999,26.08108,26.17748,27.24367,26.59706,27.35794,27.09942,27.37844,27.22209,27.4653,27.01753,27.31726,26.11132,27.00285,25.30446,26.24288,24.8532,24.98443,24.44634,23.93075,23.80812,22.6954,22.2747,20.44557,19.8543,19.26591,18.15425,17.83146,17.61464,17.14378,17.99,17.03879,17.32731,16.9914,17.59012,16.7942,17.76875,17.92481,19.50002,17.53975,18.95814,18.62452,19.25463,19.33294,20.01535,19.65989,20.45685,18.6959,20.07079,18.60892,19.33649,18.15595,18.13675,17.20675,16.84098,16.22072,15.2296,14.95367,13.7642,13.54019,11.97511,11.64036,11.14634,9.892824,10.13855,9.701457,9.568589,7.950336,6.987239,5.296573,4.145161,4.028771,1.805877,1.049643,-0.9634634,-2.030535,-3.512556,-4.720638,-6.421742,-7.002663,-8.396095,-9.351289,-10.91288,-10.93354,-11.89734,-12.48018,-13.02827,-13.67933,-14.31825,-14.20662,-14.39302,-14.84398,-14.70748,-14.77891,-14.82349,-13.7656,-14.4598,-13.6743,-13.75387,-12.42837,-12.35682,-11.11123,-10.50375,-9.546476,-8.721166,-7.508991,-6.785096,-5.598737,-5.112686,-3.671987,-2.776442,-1.288291,-0.580718,0.7893569,1.450352,3.162094,3.642504,4.89455,5.978741,6.640367,7.706019,8.4086,8.784573,9.671933,9.458234,10.44186,9.964654,10.6732,10.32417,10.40928,9.724906,9.074622,8.672918,7.852912,8.081346,7.884262,7.246659,7.464787,7.200684,6.303725,6.087601,4.687995,4.759471,3.598169,3.397265,2.103822,2.501482,1.225865,0.551208,-0.1614017,-0.981597,-1.158557,-1.988384,-2.82375,-3.862985,-4.817177,-5.105818,-6.573778,-6.976604,-8.148033,-8.645969,-9.385474,-10.03182,-10.80843,-11.26529,-11.5359,-12.13453,-11.80569,-12.18005,-11.84291,-12.17984,-10.78208,-10.82418,-10.04412,-9.633969,-9.556283,-9.229779,-9.966319,-9.400614,-9.315513,-9.064174,-8.16074,-9.353908,-8.716003,-8.520129,-8.299051,-8.142718,-7.352713,-7.930409,-7.539265,-7.42146,-7.155051,-6.841082,-6.289107,-6.762112,-6.384572,-6.079144,-6.109585,-5.882471,-5.928076,-6.04972,-5.733815,-5.694499,-5.807151,-5.834406,-5.614158,-6.113076,-5.341904,-5.600667,-5.203292,-5.557,-5.547956,-5.558589,-5.864431,-6.113729,-6.458819,-6.588802,-6.702614,-7.140944,-7.512435,-7.706017,-8.055403,-8.51323,-8.862619,-9.408863,-9.358201,-10.18323,-9.980521,-10.82709,-11.29255,-11.47979,-12.48039,-12.53596,-13.57441,-13.67653,-14.3908,-14.57182,-14.82427,-14.91344,-15.93234,-15.89642,-16.19223,-16.19252,-16.46834,-16.93576,-16.67454,-17.18726,-17.06328,-16.98912,-17.74242,-16.97805,-17.32982,-16.99821,-17.33562,-17.11729,-17.05147,-16.99196,-16.47619,-16.14791,-16.75943,-16.19958,-16.30152,-16.19469,-16.32268,-16.51305,-16.79943,-16.28932,-17.3301,-16.72911,-17.55839,-17.6003,-18.10952,-18.14827,-18.71327,-18.56718,-19.23704,-19.16363,-19.65765,-19.53917,-20.06138,-20.2811,-20.32956,-20.62029,-19.95497,-20.52554,-20.22693,-20.06867,-20.12217,-19.03715,-19.2206,-18.51467,-17.76965,-17.8114,-16.439,-16.21769,-15.34609,-14.96754,-14.28271,-13.47097,-12.41232,-11.32915,-10.76272,-9.942187,-8.911581,-7.860206,-6.927048,-6.034901,-5.066414,-3.877221,-3.069284,-2.160985,-0.9358177,-0.2116412,0.9709267,2.39569,3.286773,4.460162,5.632139,6.935081,7.951751,8.889674,10.1018,10.75478,12.15708,13.06827,13.69537,14.57217,15.48854,15.77912,16.8752,17.16832,18.16745,18.18036,19.33505,19.57881,20.51324,20.36841,21.11452,21.13335,22.25819,22.20035,22.47164,22.83676,22.86146,23.59889,23.31516,23.80609,23.79214,24.02368,24.01349,24.67475,24.46757,24.77016,24.47741,25.02825,25.18268,25.26255,25.47489,25.32348,24.93454,25.21187,25.34737,24.77366,25.67472,25.76129,26.8127,26.7752,28.05159,27.3378,28.37643,28.78907,28.78327,29.53577,29.53345,29.85981,30.53919,30.69731,30.10702,30.9756,30.84313,31.03321,30.8208,31.12753,30.53439,31.36394,30.84143,31.11006,29.74335,30.6349,29.48309,29.26394,28.90887,28.17562,27.56832,27.40245,26.73363,26.39435,25.69279,25.28436,24.87519,24.09372,23.6732,22.12745,22.2593,20.98169,21.25746,19.74112,19.3484,18.56114,17.81072,17.31797,16.24175,15.70284,15.38432,14.89922,13.92525,13.8386,13.09628,12.40405,12.38395,11.81164,11.91134,10.95747,11.21402,11.16977,10.75494,10.86215,10.90596,10.48973,10.42515,10.41952,10.27168,9.809206,10.08293,9.852404,9.618695,10.02489,9.479693,8.965195,9.045055,8.935601,9.084624,8.38051,9.113437,8.423894,9.056939,8.322739,9.268355,8.468353,9.290471,9.064711,8.818614,9.133266,8.540956,9.114055,8.592501,9.117388,8.43329,8.64767,8.398604,8.107777,7.980578,7.53702,7.030444,6.843651,6.379917,5.901059,4.779298,3.969959,3.881411,3.181054,3.449756,2.145117,2.377117,1.357801,1.480537,0.2945362,0.6703014,-0.7592908,-0.6672092,-1.655759,-1.769761,-2.947763,-3.783748,-4.080546,-4.09485,-5.277665,-6.363537,-6.135384,-6.861359,-7.18165,-7.684763,-8.197933,-9.134769,-9.181433,-9.853506,-10.73276,-11.3187,-11.27919,-12.71368,-12.15705,-13.06154,-13.56309,-14.04048,-14.21807,-14.7535,-15.4481,-15.52692,-16.33346,-16.70648,-17.10918,-17.82002,-18.25725,-18.36552,-19.65168,-18.96862,-21.32213,-20.39529,-21.93219,-21.7826,-22.56305,-22.83656,-23.34573,-23.71567,-24.54162,-24.52574,-25.19493,-25.46908,-26.39709,-26.29368,-27.19389,-27.45405,-28.29292,-28.53466,-29.4143,-29.89451,-30.33066,-30.6496,-32.011,-32.03623,-32.78434,-33.38115,-34.13183,-34.94487,-35.81703,-36.30283,-37.15168,-37.98429,-39.26041,-39.61267,-40.69439,-41.19176,-42.19616,-42.98689,-43.94329,-44.82943,-45.5579,-46.16479,-47.49139,-48.04848,-48.83657,-50.01233,-50.31001,-51.94481,-52.03023,-53.696,-53.60564,-55.0811,-55.35863,-56.67048,-57.28905,-57.36867,-58.05568,-58.89228,-58.99021,-58.60614,-58.81234,-58.63932,-59.00078,-59.26909,-59.58544,-59.81338,-60.52354,-60.72241,-61.58556,-61.29637,-62.54986,-62.09749,-63.51518,-63.76498,-63.51385,-64.7064,-64.89994,-65.00206,-65.41478,-65.87636,-66.7344,-66.34943,-65.93093,-66.32078,-67.74643,-67.33142,-66.97101,-67.43934,-65.74901,-67.68209,-64.67137,-64.57534,-62.72684,-62.78187,-61.81716,-62.27384,-62.23167,-61.97508,-62.39756,-63.80488,-62.49391,-64.40026,-63.84745,-65.75559,-66.24596,-67.74189,-68.3465,-69.92856,-71.9158,-72.08729,-76.06143,-75.94804,-77.0758,-81.3561,-80.78894,-83.76031,-83.2292,-84.42135,-84.22487,-84.50297,-84.1004,-82.19612,-80.48746,-77.73779,-74.61046,-70.66155,-64.74359,-59.64786,-52.98181,-46.60903,-39.09976,-30.9922,-22.98618,-14.01607,-4.660133,4.942807,15.70396,26.38524,37.41197,48.6143,59.32603,69.89198,80.76121,90.95794,102.0547,112.2271,122.7137,132.3588,142.5663,151.405,161.1533,169.7295,178.2291,186.504,193.8446,201.1645,207.7874,213.096,219.015,223.6419,228.1665,232.0067,234.9619,237.8756,239.9232,241.6797,242.713,243.1729,243.7088,242.355,240.2951,238.3318,234.7312,231.0099,226.0924,219.9707,214.8844,207.7154,200.9093,193.6369,185.0748,177.4119,168.6813,160.2382,151.2307,141.3797,132.7809,123.1848,113.9346,104.8974,95.82195,87.38024,78.78773,70.57853,62.88889,57.17268,49.99257,44.96613,39.33546,33.52481,30.57186,24.82518,21.35479,16.84677,13.89725,10.58114,8.146417,6.192128,4.708563,3.24058,3.970602,0.774984,2.178968,-0.2640791,0.5440184,-0.8521631,-1.526353,-2.313727,-3.696546,-4.20004,-6.748731,-6.663598,-7.900154,-11.12308,-9.620711,-13.34098,-12.96898,-15.72038,-16.67912,-18.70237,-19.55344,-21.00634,-21.55649,-23.60648,-24.08256,-25.10088,-25.95545,-27.94873,-28.71227,-30.16788,-31.56215,-32.50437,-33.92164,-34.84509,-35.69511,-37.0129,-37.61534,-39.46896,-40.84669,-42.41738,-44.6262,-46.57873,-47.41052,-50.0535,-50.37863,-53.0663,-54.20654,-56.34011,-57.28888,-59.30865,-60.47586,-62.54232,-63.76561,-64.64398,-65.42273,-66.37911,-67.8691,-69.60654,-69.63221,-71.82254,-72.76787,-74.74071,-76.14492,-76.7095,-78.49369,-78.82305,-80.68559,-81.03326,-82.26289,-82.88802,-84.23896,-84.681,-85.97625,-86.83336,-86.94441,-87.74552,-87.31564,-87.84152,-86.998,-86.65725,-85.98983,-85.01682,-84.0393,-82.43789,-80.69738,-79.06715,-77.12595,-75.35646,-72.84449,-70.16182,-67.88732,-64.6875,-62.14032,-58.58333,-55.93006,-52.99515,-50.14482,-46.82621,-44.86659,-41.50015,-39.19095,-35.66605,-33.27092,-29.5861,-27.2637,-24.04072,-21.56332,-18.5797,-15.29421,-13.20283,-10.46222,-8.487932,-6.066585,-3.462129,-1.701149,0.7250226,2.605027,4.985666,7.065439,9.748166,11.46538,13.82016,15.42631,16.96574,18.97215,20.23004,22.11816,22.10013,22.62078,23.30522,24.94026,25.20944,26.29984,27.03005,28.59347,29.84666,30.0141,31.20187,32.31618,32.9063,33.67383,34.29242,34.95172,35.30903,36.02475,36.51345,36.78443,36.7543,37.27647,37.82585,37.18342,37.72842,37.29051,37.36031,37.45086,37.40085,37.28969,37.47489,37.01066,37.72417,37.78227,37.93613,39.22741,39.16036,39.4119,38.19109,37.8753,36.53513,35.84769,33.93125,33.92984,31.57566,31.25304,29.55986,28.68012,27.53901,25.56889,24.9203,22.98699,21.86897,20.06599,19.11947,17.29996,16.05836,15.19788,13.00755,12.35077,10.7053,9.678747,8.537094,7.792607,6.172943,5.241166,4.661629,3.243414,2.727571,1.532313,1.166214,-0.2981699,-0.1451307,-1.425392,-1.188175,-2.845172,-1.805061,-4.044479,-2.482909,-3.744294,-3.729409,-3.575993,-4.030859,-3.337351,-3.780648,-3.063961,-2.89924,-2.786175,-1.397783,-1.893275,-0.5758747,-0.3544497,0.4609572,1.34906,2.14971,2.673437,4.007659,3.848951,5.832446,5.447051,7.222244,7.011209,7.77399,7.698619,7.969817,7.555808,7.425304,6.884157,6.10005,5.063244,3.291674,3.47026,3.17105,3.124936,1.807544,2.145629,1.30423,1.229427,0.4209729,0.09878108,-0.4951984,-0.4636359,-1.583679,-1.249231,-2.28523,-2.08409,-3.47194,-3.318498,-4.222054,-4.193151,-5.181541,-5.236767,-6.344276,-6.364262,-6.767746,-7.391863,-7.520608,-8.349411,-7.960451,-8.812404,-8.665163,-9.331699,-9.150922,-9.769802,-9.923415,-10.3134,-11.6934,-12.05754,-12.88581,-13.39895,-14.21148,-15.17557,-15.40565,-15.78978,-16.81082,-16.76924,-17.66079,-17.88193,-18.46137,-18.75063,-19.24172,-19.74436,-20.24617,-20.30824,-20.92488,-20.66163,-21.41747,-21.36,-21.89264,-21.60256,-22.04697,-21.93043,-22.10692,-22.40688,-22.7321,-22.47385,-22.80669,-22.91393,-22.88632,-23.47145,-22.93268,-24.00833,-22.92116,-24.40267,-23.5676,-24.09804,-23.57252,-24.72883,-24.15991,-25.05797,-24.62757,-24.75922,-25.28658,-25.25736,-26.16956,-25.28843,-26.05304,-26.03936,-26.02532,-26.86407,-25.9684,-26.61443,-26.39381,-26.79119,-26.62597,-26.54374,-26.24123,-26.68344,-26.31901,-26.77,-26.07549,-27.89876,-25.48205,-26.54422,-24.81604,-26.13412,-26.09025,-26.44452,-26.71583,-28.05161,-27.91274,-29.13048,-30.18503,-31.01111,-32.4182,-32.58883,-34.45662,-34.71117,-36.24142,-36.84359,-37.27287,-38.73522,-38.9292,-39.92061,-40.89509,-40.74926,-42.11715,-41.44547,-42.41707,-41.70786,-42.38945,-41.65088,-41.82139,-40.8545,-40.97168,-39.66091,-39.30099,-38.0525,-37.01608,-35.89143,-34.58465,-33.18025,-31.84227,-30.30671,-28.72147,-27.0057,-24.85731,-23.42932,-21.31507,-18.94814,-17.26285,-14.45051,-12.26743,-9.684164,-7.292143,-4.884334,-2.219034,0.305361,3.048346,5.297342,8.208693,10.61983,13.62477,15.81611,18.34373,21.06097,22.88456,25.85251,27.76958,29.69386,32.16165,34.20842,36.13577,37.72805,39.57728,41.20093,43.22847,44.28792,45.59422,46.57331,47.75477,48.51813,50.02264,49.74694,51.04367,51.14149,51.5006,51.57523,51.42139,51.78332,51.25217,51.43599,50.72517,50.44299,49.02001,49.57532,47.90664,48.16379,47.29266,46.69574,46.94113,45.65147,45.21345,43.72677,44.21377,44.0331,43.77985,44.56331,44.38767,46.17693,46.72474,48.33447,50.77678,50.68225,52.66784,51.76124,54.10571,54.7456,55.58915,56.23747,57.18786,57.47683,58.13644,58.64016,58.49378,59.5302,58.82928,60.15179,59.21267,59.46429,58.82317,58.14326,57.57565,56.27201,55.19632,54.61828,52.96831,51.90749,50.02039,49.08447,46.58377,45.93993,43.60649,42.11667,40.12076,38.0696,35.93007,34.08346,31.68899,29.83023,27.03226,25.16937,22.48369,20.81979,18.06602,16.18334,13.8685,11.66276,9.67505,7.618251,4.785765,3.496628,1.101746,-0.2582959,-2.627363,-3.962773,-5.697931,-6.756181,-8.550043,-9.523402,-10.6742,-12.02698,-12.37489,-14.23266,-14.22721,-15.34647,-15.63076,-16.22761,-16.43314,-17.03603,-16.38003,-16.72168,-16.27002,-16.29322,-15.67557,-14.85672,-14.52014,-14.0689,-13.2811,-12.77686,-11.52282,-10.55757,-9.369644,-9.120466,-7.583483,-6.918671,-5.554644,-4.769823,-3.830969,-3.267281,-2.545909,-1.988411,-1.529741,-1.613727,-1.918387,-1.17873,-1.971769,-1.229421,-2.491575,-2.799943,-3.650961,-4.823927,-5.364286,-5.899997,-5.98982,-6.679401,-7.481314,-7.22285,-8.02035,-8.248693,-9.036044,-9.234942,-9.533967,-9.691707,-10.51461,-10.83204,-10.78479,-11.20988,-11.50534,-11.97753,-12.45532,-12.29266,-13.12507,-12.65192,-13.44591,-12.90524,-13.71045,-12.56922,-14.64275,-13.60826,-15.35902,-14.47147,-16.19319,-14.95245,-16.70812,-16.12504,-17.20767,-17.66373,-17.34289,-18.46606,-18.24472,-18.80686,-19.25694,-19.43776,-20.13027,-20.30866,-20.90519,-21.01968,-21.45845,-21.72875,-22.77231,-22.82692,-23.22433,-23.07122,-24.27063,-23.89858,-24.87635,-25.12211,-25.385,-25.85272,-26.44691,-26.47525,-26.53775,-26.67737,-27.10083,-27.17944,-27.41264,-27.45103,-27.42887,-27.57513,-28.06022,-27.90236,-28.17779,-28.49113,-27.99638,-29.19657,-27.97893,-29.02253,-27.70352,-28.51424,-28.09648,-28.38515,-28.11533,-27.75902,-27.79877,-27.5884,-27.90165,-27.57925,-27.49606,-27.24895,-27.23935,-27.12899,-26.72186,-27.03787,-26.30959,-26.86618,-26.21019,-26.08052,-25.9809,-25.46189,-25.96476,-25.74126,-25.48291,-26.04793,-25.50042,-25.80758,-25.61774,-25.74591,-25.5777,-25.65777,-25.50163,-25.53599,-25.37623,-25.30304,-25.78403,-25.63418,-26.00986,-25.61821,-25.97727,-26.1501,-26.48834,-24.75252,-24.66239,-23.88737,-24.30488,-23.63049,-24.17635,-24.02326,-24.63473,-24.92779,-25.45053,-26.28263,-26.94655,-27.67016,-28.50756,-28.97116,-30.11068,-30.71486,-32.3315,-32.0793,-33.53231,-33.66069,-34.62731,-34.77571,-35.87995,-35.67622,-36.0879,-35.86516,-35.52639,-35.49418,-34.19299,-34.46829,-33.02963,-32.58693,-31.35908,-29.90152,-28.92839,-27.22211,-26.01699,-24.50278,-22.25759,-20.78583,-18.31822,-16.35038,-14.4407,-11.86711,-9.8226,-7.380067,-4.524214,-2.793148,0.04303049,2.17961,4.720156,7.071583,9.042233,11.85537,13.83631,16.52555,18.77277,20.61838,23.4561,25.8612,27.80835,30.52996,32.19172,34.60943,37.44948,38.01923,41.0514,41.58062,43.97221,45.10849,46.74339,47.93677,49.48914,50.07105,51.23826,51.90552,53.10523,53.14602,54.34331,54.2893,54.69689,54.62939,55.26525,54.65326,55.17817,54.67285,54.16091,54.21845,52.93786,53.02997,51.7398,50.44997,49.39428,47.11808,46.20175,44.14295,44.69685,42.33274,43.53112,42.13255,42.4426,42.32983,42.34457,43.27867,43.64937,44.28557,45.11163,46.49473,48.19983,50.49165,50.49274,51.70678,52.15404,53.53164,53.81012,54.29635,54.54278,55.24895,54.89138,54.99758,54.81098,54.24016,54.52977,53.27165,53.04639,51.31486,50.82516,49.69596,48.98721,47.69466,46.21966,44.52262,43.16583,41.46309,39.635,37.98761,35.76746,34.45177,32.37547,30.39951,28.51344,26.47061,24.49387,23.07922,20.88577,18.75805,16.96893,14.7559,14.02068,11.29129,10.47672,7.778779,6.96426,4.303421,3.648008,1.079091,-0.1677342,-2.374824,-3.486045,-4.941759,-6.753728,-8.072591,-9.743508,-10.29447,-11.74633,-12.22617,-13.48985,-13.62533,-14.16966,-14.73934,-15.36874,-15.43089,-16.33653,-16.18496,-16.1665,-16.17329,-16.21263,-15.7876,-15.09073,-16.43571,-13.82647,-14.72553,-12.65051,-13.94871,-11.04581,-12.00074,-9.72778,-10.65501,-8.141369,-8.99213,-6.994218,-7.0154,-6.38122,-5.430285,-5.200365,-4.009137,-4.590184,-4.114349,-4.429817,-5.087292,-5.593893,-6.496201,-7.451004,-7.486219,-7.95739,-7.697452,-7.447728,-8.587439,-7.618599,-8.932879,-8.596967,-9.618696,-10.24162,-10.15043,-10.8765,-10.75533,-11.87629,-11.33317,-12.33443,-11.70898,-12.74624,-12.24601,-13.24155,-13.40836,-13.93907,-14.04852,-14.48409,-15.2729,-15.38377,-15.51963,-16.38416,-15.42552,-16.71578,-17.14035,-17.12745,-17.01924,-17.65456,-17.03146,-17.77925,-17.83663,-18.47259,-17.77347,-19.35654,-18.39062,-19.47042,-18.21212,-18.96194,-18.50426,-18.45874,-18.731,-18.09048,-18.57411,-18.04954,-18.09845,-17.96687,-18.1426,-16.98127,-18.01826,-16.88613,-18.2192,-16.55573,-17.97433,-17.13029,-18.39246,-16.89057,-18.07517,-17.50145,-17.99654,-17.80265,-18.43079,-17.84073,-18.47984,-17.7454,-18.71686,-18.10877,-18.53487,-17.70519,-18.97968,-18.54141,-19.43551,-18.59106,-19.18222,-19.61664,-19.62663,-19.58328,-20.0019,-20.33479,-20.19678,-21.32948,-21.33214,-19.74513,-21.66078,-20.76781,-21.97991,-21.29277,-22.25511,-21.26215,-23.1178,-21.96572,-23.24689,-22.33775,-23.14064,-22.89971,-22.76505,-23.10741,-22.87499,-24.0569,-23.73527,-24.26041,-25.0421,-23.91449,-24.65449,-24.36359,-24.40288,-24.71471,-23.49123,-24.05926,-23.22188,-24.27075,-23.73966,-23.58524,-23.26888,-23.18048,-22.96604,-23.23566,-21.77439,-21.70674,-19.50044,-20.56819,-19.29015,-20.34027,-19.4156,-21.21007,-20.79882,-22.14045,-22.05098,-23.668,-24.25476,-24.94772,-26.57544,-27.72745,-27.77974,-30.48544,-30.68208,-32.20437,-32.9837,-33.92271,-34.35123,-35.57673,-36.57543,-36.37241,-37.07207,-37.43525,-37.44738,-38.29071,-37.03787,-37.97277,-36.83667,-37.1478,-37.21278,-35.43657,-35.88563,-34.16288,-33.97098,-33.00926,-31.63605,-30.42411,-29.52879,-27.76558,-26.6612,-24.34984,-23.46315,-21.31924,-19.93962,-17.46587,-16.08045,-13.531,-11.52447,-9.347348,-7.43923,-4.172438,-2.694178,0.6192257,1.809449,4.891157,6.780926,9.410495,11.53828,13.92259,16.20026,18.82116,20.65529,23.05041,25.13555,26.87242,29.32685,31.32974,33.1258,35.02232,37.16364,38.12409,39.97292,41.09453,42.72774,43.20417,44.90236,45.53645,46.53349,47.8068,47.70677,48.1055,48.53631,48.85114,48.93485,48.53478,47.69434,47.46924,47.59861,45.98006,44.83898,44.46613,43.37417,43.51394,42.9517,42.98474,42.72414,42.86904,43.30378,43.03699,44.39682,44.5598,45.4854,46.18475,47.95356,48.93902,51.07003,51.12412,52.62827,52.51425,53.37226,53.49774,53.54463,54.09901,54.19062,53.73004,53.51908,53.17869,52.7302,52.61593,51.77017,50.40882,50.287,48.79643,48.81131,46.5098,46.1617,45.08965,43.2521,42.76204,40.67351,40.43158,38.0338,37.46292,35.47356,34.39616,32.57088,30.9436,29.9742,27.58741,26.73835,24.86854,22.59609,21.89615,19.86166,18.68602,17.10925,15.29646,13.90808,12.68459,11.26004,9.56963,8.350279,6.475616,6.184096,4.495234,3.357289,1.931927,0.9973696,0.2377906,-0.5758422,-1.486467,-2.569884,-3.135408,-3.824952,-4.2992,-4.881483,-5.652894,-5.88816,-6.034678,-6.135509,-6.336957,-6.73572,-6.541762,-6.445101,-6.847349,-6.35272,-6.848811,-6.483952,-6.093999,-5.913517,-5.880098,-5.128968,-5.352431,-3.986815,-4.268194,-3.114939,-3.545178,-2.601874,-2.449367,-2.511719,-1.93413,-1.93286,-1.504882,-1.943442,-2.009775,-2.525117,-3.164038,-4.108129,-5.156064,-4.464677,-4.602897,-4.845139,-4.712897,-5.052438,-4.784102,-4.857399,-5.208113,-5.207025,-5.418631,-4.994742,-5.78097,-5.471891,-6.134211,-6.099681,-6.540954,-6.836948,-7.268983,-7.279449,-7.229701,-7.814664,-7.476258,-8.3031,-7.665085,-8.673315,-8.389018,-8.717933,-8.882847,-9.455487,-9.175381,-9.782779,-10.00486,-9.810239,-10.30346,-10.43371,-10.28003,-10.49692,-10.63366,-10.54759,-10.73868,-10.37733,-10.30039,-10.42228,-10.58734,-10.34603,-10.35493,-9.960328,-9.635597,-9.900896,-9.475293,-8.962167,-8.601953,-8.240597,-7.645929,-7.740013,-6.628179,-6.794627,-5.779961,-5.981689,-4.449613,-5.623007,-4.182499,-3.792807,-4.080817,-3.285794,-3.268256,-2.903198,-2.34015,-2.711645,-1.468917,-2.056088,-0.481771,-1.53125,-0.2980335,-0.5615266,-0.3571781,-0.04473261,-0.3261841,-0.3467302,0.3878624,-0.6594721,0.2049593,-0.9649949,-0.6358445,-1.133904,-1.719798,-1.20374,-2.154311,-1.846268,-2.332679,-2.830832,-2.740364,-3.463165,-3.993085,-3.667373,-4.918499,-4.404899,-5.652137,-5.502159,-6.200965,-6.316971,-6.463882,-6.809491,-7.370338,-8.143395,-7.947771,-8.35319,-8.828186,-9.261323,-8.816583,-9.7836,-9.538364,-10.43424,-10.29085,-11.08551,-10.64692,-11.38037,-11.53241,-11.78787,-11.83261,-12.51991,-12.44343,-13.24412,-13.17561,-14.04417,-13.21839,-14.42267,-13.27926,-14.67904,-13.7483,-14.48221,-13.72501,-14.533,-13.77863,-14.96803,-14.1484,-14.99879,-14.46706,-14.79839,-14.95924,-14.74581,-15.11513,-14.85986,-15.18836,-15.27521,-14.56871,-15.88443,-14.52061,-15.57255,-15.16071,-15.03342,-15.23193,-14.92964,-15.12641,-15.19152,-14.58827,-15.03695,-14.30104,-14.66314,-14.09675,-14.34362,-13.9067,-14.21563,-13.50661,-14.0858,-13.47915,-13.38315,-12.9789,-13.44112,-12.81779,-13.63228,-12.11902,-12.60658,-12.63219,-11.99517,-12.3758,-11.95523,-11.23144,-11.27926,-9.8844,-10.9211,-9.817368,-10.60602,-9.434405,-10.5089,-10.37354,-10.12772,-10.94793,-11.10175,-9.8557,-9.938154,-8.844654,-9.600315,-8.782834,-9.905291,-9.938102,-10.73611,-11.20009,-12.37434,-13.18206,-14.59124,-14.78233,-16.73518,-16.77248,-18.88757,-19.77637,-20.79723,-22.04185,-22.78562,-24.24585,-24.69605,-25.77343,-26.42969,-27.38969,-27.7947,-27.98196,-28.44529,-28.76122,-28.64303,-28.5106,-29.20548,-27.63187,-28.38289,-26.81656,-26.70009,-25.55573,-24.91958,-23.79848,-22.29623,-21.63506,-19.91934,-18.67668,-17.0695,-15.24169,-13.6079,-11.54245,-10.25532,-7.411197,-5.914872,-3.197914,-1.661566,0.9321691,2.898436,5.442788,7.369977,9.973389,12.30003,14.39781,16.95162,18.76172,21.4429,23.15488,25.56202,28.08572,29.78554,32.40877,33.05029,36.06917,36.64823,39.24578,39.59429,41.26626,42.25308,43.33566,43.91379,44.80227,45.10097,45.7685,46.24514,45.86443,46.1172,45.68638,45.57951,45.52395,44.47615,44.42102,43.67785,42.90316,42.16883,41.22611,38.75628,37.76736,36.03568,35.41196,33.62789,33.09936,32.3583,32.29533,31.11152,30.65424,29.42566,30.28738,29.64692,30.04352,29.72624,30.52904,31.62015,31.50539,33.49898,34.62268,35.19792,35.10256,35.08998,36.02836,34.89982,36.35561,34.549,35.90299,34.38485,35.19323,34.24866,33.91703,33.13903,33.17651,31.78916,31.4933,30.42035,29.62926,28.08395,27.03055,25.9998,24.33914,22.87243,21.46526,20.00025,18.16406,16.40896,14.78578,12.94236,11.14776,9.182008,7.804358,5.239029,3.948378,1.65076,-0.4061177,-2.181212,-4.199154,-5.940451,-8.236265,-9.55392,-12.28005,-12.96604,-15.77378,-16.07785,-18.79155,-19.7506,-21.31147,-22.94407,-24.07304,-25.69228,-26.36578,-28.01958,-28.5263,-29.91752,-30.36283,-31.6926,-32.21464,-32.65684,-33.29719,-33.58958,-33.93612,-34.24255,-33.84032,-34.74048,-33.97815,-34.96543,-33.75351,-34.3976,-33.54248,-33.58632,-32.95121,-32.28681,-32.22336,-31.38222,-30.83343,-30.2948,-29.53067,-29.08329,-28.86508,-27.79782,-27.92409,-26.76061,-26.79623,-26.31842,-26.16012,-26.31912,-26.64761,-27.2063,-28.11937,-28.7741,-28.75741,-28.59719,-28.8915,-29.1652,-29.23193,-29.45364,-29.93976,-30.17704,-30.29765,-30.56006,-30.2183,-31.34939,-30.77488,-31.55459,-31.42977,-31.82677,-32.82737,-32.44912,-33.87266,-33.02209,-34.86226,-34.11177,-34.94629,-35.37303,-34.94987,-36.47364,-35.63819,-36.70476,-36.31533,-36.95644,-37.28778,-37.21265,-37.54893,-38.03426,-37.9552,-38.30155,-38.66529,-38.98228,-39.10937,-39.50971,-39.64767,-40.09349,-39.77299,-40.75149,-40.38318,-41.02535,-40.99077,-41.59091,-41.44479,-41.88127,-41.86131,-42.20553,-42.14342,-42.48502,-42.49658,-42.2899,-42.70717,-42.40589,-42.57695,-42.35945,-42.40998,-42.10417,-42.32664,-41.66299,-42.00776,-41.54468,-41.47276,-41.36637,-41.15394,-40.94072,-40.53644,-40.27326,-39.48635,-39.81465,-38.46075,-39.06612,-37.57575,-38.23981,-36.93306,-37.24921,-35.77894,-36.27486,-35.0755,-34.9792,-34.15993,-34.12068,-33.06077,-33.47613,-32.62658,-32.46289,-32.05739,-31.66404,-31.7107,-31.16382,-30.9887,-30.87858,-30.06524,-30.5651,-29.38318,-29.55073,-28.89192,-28.44815,-28.67202,-27.87028,-28.11133,-27.34701,-27.80808,-27.46971,-26.9371,-27.15102,-26.37887,-26.33469,-26.94352,-26.08105,-27.08484,-25.79818,-27.27554,-25.89472,-27.21669,-26.31019,-27.11592,-26.5605,-27.18531,-27.15741,-27.49971,-27.09014,-27.43224,-27.64726,-28.52083,-28.43374,-28.42024,-28.25399,-28.9537,-28.10261,-29.07797,-27.90983,-28.25105,-27.98217,-29.31774,-28.85958,-29.27695,-28.62029,-28.16435,-28.02428,-26.83389,-26.55551,-25.03358,-25.08707,-24.19412,-23.74078,-22.37945,-22.42942,-21.27318,-21.99418,-20.57126,-20.25562,-19.93927,-19.4942,-19.81512,-19.666,-18.87172,-19.81435,-19.51762,-20.76139,-20.47399,-21.92304,-21.84129,-23.25555,-24.31448,-25.13185,-27.04591,-27.43447,-30.63077,-28.79541,-32.61965,-32.83815,-35.26734,-36.60595,-38.74952,-40.45485,-42.06499,-44.23054,-46.17252,-48.00469,-50.35511,-51.80466,-54.15973,-56.13129,-57.76785,-60.09349,-61.45154,-63.2581,-65.20376,-66.9599,-69.36071,-68.98468,-71.39176,-72.66566,-73.53692,-75.01834,-76.10552,-76.88459,-77.80288,-78.94277,-78.3549,-79.79637,-78.60941,-80.23587,-78.44216,-80.38156,-78.35541,-79.52543,-78.70014,-76.75726,-77.03123,-74.24283,-74.87058,-71.834,-71.47915,-70.29712,-68.88034,-67.97746,-66.67936,-65.12862,-64.31315,-62.73011,-61.6076,-58.45145,-57.42323,-54.47833,-54.09622,-50.74844,-50.48959,-47.90467,-47.41264,-44.9655,-44.37889,-42.8162,-42.00835,-39.95752,-37.92275,-36.83006,-35.62556,-33.02713,-32.48591,-29.75045,-29.10052,-26.64033,-25.10177,-22.28986,-20.13229,-17.2071,-14.09183,-12.0062,-9.222354,-6.191602,-3.804091,-0.6843076,1.489086,4.720115,7.979887,10.45449,14.15077,17.04125,19.87184,23.8833,26.06142,29.18137,31.5037,34.47286,38.72477,40.70611,45.14828,47.82235,51.92862,54.99559,58.92471,62.57828,65.58932,70.22723,72.67663,75.76073,78.56093,83.34575,82.42122,88.64102,89.23831,92.77316,95.44743,97.20712,100.1092,102.6326,105.6769,106.6498,109.103,111.4009,112.7301,113.3696,115.3899,113.5093,117.4436,113.6259,115.961,113.6598,116.2592,112.1595,114.3599,109.9176,111.1833,106.5913,108.1164,103.0235,104.5849,99.89878,100.8834,95.86993,95.50639,93.41271,90.20834,88.02928,85.70066,81.52406,81.04839,77.9124,75.02015,71.80022,70.25729,67.1142,65.33305,62.15662,60.95714,59.51682,57.71383,54.42061,55.57878,51.4218,53.07935,51.02865,50.42632,49.24076,44.89669,47.72475,42.44738,45.56845,39.93317,42.21681,41.64459,39.75946,42.38311,43.42541,39.53233,47.00477,40.77223,46.68801,43.06016,45.2377,43.62367,44.99489,43.67795,43.48231,44.40297,43.85208,44.19282,42.31882,45.12123,42.47888,46.31451,44.16239,46.74992,45.78309,49.3289,48.06063,51.45372,49.13695,53.39908,53.06238,55.93512,54.45852,59.70172,59.92876,65.16902,64.41572,68.30682,68.79146,70.22002,72.16089,73.35646,77.83018,78.73314,84.87938,84.34692,91.28245,94.13217,99.76479,105.9058,109.5026,116.4105,120.1614,128.5707,131.4656,139.4765,144.3483,149.5025,154.382,160.8455,163.3042,168.5435,170.2133,175.5782,176.2466,183.518,181.2891,189.868,188.6175,195.8865,192.5746,201.1032,195.3791,202.2605,199.2785,202.7649,199.5021,202.3749,196.8493,198.7695,192.87,192.5165,186.9813,181.7109,177.8498,171.8882,165.8216,160.9052,153.2983,148.3558,140.4143,134.8896,125.1343,119.6893,112.0879,105.4713,97.39179,89.03922,81.8304,76.55027,65.26923,61.47707,50.01841,45.08342,35.50842,29.62072,23.05956,15.97483,9.847898,3.856303,1.235589,-4.814476,-11.02673,-12.55549,-20.5134,-25.00729,-25.8439,-37.76292,-36.48221,-44.63559,-46.19556,-52.60845,-54.18296,-59.50988,-59.91748,-63.45222,-66.23409,-68.55271,-70.00254,-69.78353,-73.70371,-70.54396,-76.50641,-72.04813,-76.60596,-72.50259,-76.65466,-74.16977,-77.38386,-72.94834,-76.27318,-75.14483,-77.43019,-75.53763,-78.39754,-77.68529,-81.07412,-81.83442,-84.46692,-83.07284,-83.2197,-82.14073,-80.03285,-79.97749,-77.4154,-76.80554,-74.95899,-76.42592,-73.57666,-73.27531,-73.47794,-70.9795,-73.35451,-70.85064,-73.73063,-70.24939,-72.73173,-70.23108,-71.79745,-69.97379,-72.63648,-69.05911,-72.00486,-69.09934,-69.16889,-66.73577,-66.8462,-64.23217,-64.43373,-61.73252,-61.68348,-58.95761,-59.33881,-56.86348,-56.20327,-53.93608,-53.22949,-52.10712,-51.40726,-49.32051,-48.72893,-47.14558,-46.53738,-45.25593,-43.69941,-41.44436,-40.86883,-38.44662,-37.32011,-35.02454,-33.67979,-32.10164,-28.29381,-27.26637,-23.26478,-22.31846,-18.4257,-17.35605,-13.7565,-12.91258,-9.413449,-7.084777,-5.347391,-2.249304,0.3155674,2.969683,3.868063,8.898712,8.490426,13.65577,13.13319,16.39075,17.77086,17.67938,21.32022,20.90547,23.73316,22.19101,26.12973,24.44205,27.25844,26.25013,29.22344,28.32684,32.71589,28.0766,34.36236,29.41424,33.23777,30.03835,32.24929,30.85407,31.20232,30.80441,29.60679,30.53343,29.54095,29.29663,28.25693,28.1186,27.79728,26.39854,26.64149,26.02132,25.43142,24.91009,24.83896,24.18033,25.55636,26.69458,25.18111,27.89938,27.73135,27.44642,26.19551,27.35411,25.07655,27.58843,25.3221,26.7392,23.88479,25.36802,24.45565,23.97528,26.91822,24.00457,23.77814,27.01699,23.92581,27.67901,23.83736,31.0006,23.42796,29.52552,26.04957,28.9854,26.0382,29.4369,25.61222,28.16909,25.85527,26.15435,23.93089,23.75208,21.75871,22.50695,19.20237,19.61497,16.77071,16.5854,14.95493,13.91333,10.47412,13.9847,8.988886,11.17396,9.602318,9.493156,9.537788,8.517183,9.043226,8.472791,9.453237,7.478828,9.00582,7.758577,8.569791,7.800173,9.052315,7.956848,9.555769,7.743615,9.889134,8.658014,10.51553,9.641426,10.67388,11.98159,10.78329,11.57354,11.53841,11.60881,11.42518,10.4431,12.14302,8.99179,11.47892,8.544683,11.22581,7.138379,10.342,6.614427,9.288307,6.543505,7.17855,2.707601,6.014646,0.1400074,3.348439,-1.3563,0.6861184,-3.45861,-1.44784,-4.500479,-3.882422,-5.804106,-5.932126,-6.941663,-7.436276,-8.201405,-9.178232,-10.13632,-10.39973,-10.46369,-12.40435,-11.80268,-13.17776,-12.83966,-13.46875,-13.66038,-15.20087,-14.20124,-15.45721,-16.22829,-16.11143,-15.94622,-17.04138,-16.70698,-18.26306,-16.90558,-19.2135,-16.58469,-18.22455,-16.78842,-16.05552,-18.78283,-14.28362,-13.06405,-12.75597,-10.2947,-11.0432,-7.686035,-10.64229,-4.47699,-6.372828,-3.747949,-5.209618,-0.7471794,-4.234707,0.4967408,-2.654736,-0.4217012,-1.590432,0.6951449,-0.3804731,1.223993,-1.496069,0.8984921,-0.6888828,1.007245,-0.5517522,-0.2056329,-0.529266,3.700404,-1.445647,3.613028,0.3088001,2.616463,2.198995,2.233542,2.474526,2.063425,2.340204,2.905479,3.068479,3.25442,3.34595,3.750327,4.038272,4.201715,4.470849,4.579659,5.595904,5.851482,6.572459,7.088869,6.121663,7.5771,6.725486,8.210998,7.028732,8.226146,6.814027,8.243536,7.7598,8.303441,8.137766,8.032721,7.889672,8.418704,8.424937,8.258239,8.350321,8.503314,8.239698,9.049442,8.709973,9.574578,8.955318,10.15313,9.913033,9.712744,10.89341,10.1964,11.04869,11.22556,11.28715,11.38351,11.32989,11.76503,11.87247,11.75262,11.63061,11.46136,11.96737,11.28951,11.12188,10.36746,10.4879,10.55192,10.28165,10.7084,10.60591,10.27843,11.44487,11.10419,11.86376,11.39743,11.78485,13.24066,12.14924,14.02381,13.59963,14.67573,15.91467,15.83006,16.35052,16.7566,16.91659,16.59323,16.95754,17.54316,17.19913,16.98831,16.57116,16.27709,15.19603,15.02109,13.40745,13.49037,11.6335,11.30383,9.470172,8.489426,6.872921,5.502444,4.437029,2.955114,1.89529,0.05241352,-1.260396,-2.430709,-4.531754,-6.39187,-8.108053,-9.464776,-10.42931,-12.12922,-12.88249,-14.75152,-13.80527,-16.32981,-15.42289,-17.41067,-16.59787,-17.78836,-17.17594,-18.32109,-17.97741,-18.71865,-18.07357,-18.69782,-18.01592,-18.4821,-18.91236,-18.07875,-18.418,-18.06206,-18.40052,-16.95871,-17.76682,-17.20929,-17.96416,-16.68089,-16.26022,-15.89513,-15.16464,-14.96545,-14.73325,-13.61317,-13.45541,-12.5062,-12.25354,-10.30011,-11.23794,-9.165478,-10.00702,-9.299605,-9.798744,-9.879466,-9.854866,-9.527486,-9.717263,-11.35067,-11.40799,-12.55808,-14.10383,-15.77534,-17.40201,-19.69454,-21.55745,-24.56267,-25.3508,-28.51032,-31.022,-33.59303,-35.81182,-39.2782,-40.8326,-43.86077,-45.59881,-47.23159,-49.51748,-52.44959,-53.44555,-55.73485,-56.91646,-59.21312,-59.39545,-61.05964,-61.43232,-61.95897,-62.76082,-63.36403,-63.0162,-65.19059,-62.57162,-64.89363,-62.72697,-63.30706,-60.2555,-60.21851,-57.86405,-58.01098,-54.58178,-54.43101,-51.00219,-50.44374,-47.09012,-45.59646,-42.22013,-38.96319,-36.47145,-32.94261,-29.90822,-26.72684,-23.224,-20.10495,-17.85631,-14.98746,-11.82383,-9.791673,-7.952567,-5.061449,-2.999648,-0.4436305,0.9854858,3.735198,4.783069,6.37759,9.125992,8.383165,11.58494,10.42015,12.75175,11.43538,12.67568,11.68114,11.6042,10.34653,10.15051,8.583164,8.226954,6.04983,4.825001,3.323459,1.465289,-0.6744742,-2.940988,-4.942748,-7.492248,-8.423796,-10.7446,-11.96422,-14.0905,-16.40143,-17.71211,-19.44643,-21.47444,-22.8458,-24.07901,-25.53511,-26.10535,-27.77266,-29.04036,-30.44249,-31.34625,-32.21602,-32.6577,-34.17571,-33.56261,-34.98266,-34.97177,-36.87358,-35.78901,-37.65677,-36.53169,-37.53215,-36.12829,-37.16725,-35.69217,-35.71187,-33.68922,-34.59148,-33.24835,-32.39829,-31.63996,-30.97792,-29.24219,-28.74552,-27.07316,-26.06357,-25.6177,-24.38327,-23.18178,-22.12908,-21.50402,-19.85332,-19.74745,-18.7814,-18.55921,-18.63412,-17.97011,-17.52117,-18.34483,-17.75438,-17.88341,-18.33454,-16.91448,-18.54335,-17.10138,-19.42348,-16.88275,-20.48079,-17.62773,-21.20394,-18.50016,-21.03014,-18.46174,-20.01441,-19.20516,-18.64336,-19.71,-17.88934,-18.79222,-18.14806,-18.25754,-17.74694,-18.1496,-16.88888,-17.706,-17.42498,-16.78644,-16.86045,-16.00107,-16.27027,-15.80885,-14.62503,-15.13037,-13.21649,-14.26909,-13.45128,-13.01377,-12.8335,-12.3499,-12.73093,-12.15127,-11.66886,-12.0019,-11.29342,-11.74374,-11.07011,-10.98337,-10.67756,-10.93933,-11.11831,-10.66354,-10.95927,-10.37473,-9.605635,-9.997079,-9.593464,-9.488719,-9.23343,-8.999819,-9.115305,-8.811713,-8.423923,-8.32177,-7.644902,-7.701238,-8.000652,-6.972243,-7.425371,-6.603242,-7.413253,-6.388178,-7.025685,-6.034554,-7.254529,-4.831286,-7.332339,-4.202836,-6.797232,-3.700712,-5.761551,-3.419786,-5.720805,-2.876133,-5.168133,-3.174973,-4.877226,-3.417769,-4.706719,-3.126752,-4.766517,-4.009424,-5.425905,-3.921712,-5.95925,-3.689393,-6.5163,-4.294717,-6.112492,-4.598787,-5.511124,-5.165303,-5.393409,-5.593898,-5.054772,-5.362276,-5.499584,-5.446272,-5.542913,-5.727857,-5.344131,-5.995572,-4.924529,-4.774812,-4.010097,-3.99592,-4.114829,-3.880842,-3.775481,-3.839374,-3.58632,-3.903631,-3.535545,-3.630003,-3.29463,-3.440531,-2.327139,-3.790904,-1.481257,-3.421728,-1.888033,-2.597517,-1.779135,-2.161692,-1.4577,-1.41629,-1.349605,-0.5960284,-0.8477414,0.2608444,0.01865589,0.8353752,1.071989,1.675692,1.958476,1.914619,2.963058,2.479586,3.29944,3.482675,3.721671,4.377486,3.977002,5.030357,4.670563,6.158405,5.457196,6.255081,5.659553,6.741998,6.585422,7.115581,6.578213,7.292364,7.511887,6.877607,8.438378,7.049315,7.846161,7.6693,7.559924,7.984765,7.470823,7.573864,7.4997,6.975237,7.406837,6.803784,6.560435,7.192845,6.482825,6.831275,6.57754,6.196489,6.905099,7.323428,6.019471,7.537338,5.734528,7.722999,6.003363,7.234311,5.892036,6.93207,5.436597,6.813457,5.45297,6.004771,5.003488,5.960152,4.59069,5.344801,4.521943,4.71716,4.424933,4.809243,3.819806,4.977861,3.726888,4.948745,3.989102,5.082326,4.287293,5.058991,4.581043,5.684491,5.087689,6.359734,5.787947,7.320569,7.371912,9.013426,9.17941,9.814312,9.945684,10.50521,11.00234,10.88118,12.36353,11.10443,13.71882,12.91754,14.55274,13.91031,15.547,15.12827,16.87521,15.74338,17.5056,16.54951,18.47513,17.85542,18.58997,18.21982,19.03924,18.86933,19.6952,19.26268,19.5556,19.23346,20.14201,18.8652,19.91102,18.8698,19.09427,18.87654,18.90592,18.72448,18.29111,17.63944,17.59722,17.10971,17.15139,16.46295,15.91566,15.61938,14.71093,15.28532,13.49009,14.46318,13.08038,13.21352,12.52066,12.69364,11.39081,11.41831,11.54499,10.37138,10.65265,9.552518,9.903072,9.095779,9.152994,8.077583,8.365648,7.104186,7.756521,6.747768,6.956245,6.264717,5.899129,6.398065,5.580067,5.555453,5.585106,4.36888,5.116733,4.473653,4.596544,4.107121,4.038992,3.963468,3.679362,3.208156,3.327536,3.020266,3.081502,2.555028,3.348136,1.772937,3.072454,1.488934,2.957605,1.594018,2.674312,0.9258591,3.093391,1.137956,2.508555,0.7885731,2.631596,1.000822,2.234609,0.8518062,1.785505,0.7912888,1.846169,0.7572432,1.309747,0.373642,1.012058,-0.2483224,1.243895,-1.180276,0.5953819,-1.765512,-0.1853691,-1.842533,-0.7287646,-2.171313,-1.266153,-2.469632,-1.28294,-2.964167,-1.722902,-3.624915,-1.510308,-3.850055,-1.824556,-3.9926,-2.713612,-4.01474,-2.761853,-4.042085,-3.229385,-4.450121,-3.788578,-3.974318,-3.854173,-4.474962,-4.228348,-4.829749,-4.058487,-4.817805,-4.667125,-5.286683,-5.280933,-5.722559,-5.604208,-6.324469,-6.152919,-6.632673,-6.242006,-7.420767,-6.393816,-7.962239,-6.451576,-7.382138,-6.999001,-7.090687,-7.030403,-7.357361,-6.550102,-6.856049,-6.831645,-6.491614,-6.962415,-6.231337,-6.43366,-5.960032,-6.626098,-6.673398,-5.592224,-7.046252,-4.56168,-7.379956,-5.193358,-6.821175,-5.195254,-6.434192,-5.393904,-6.102049,-5.78387,-5.99667,-5.45452,-6.557078,-5.550327,-5.758646,-6.024327,-5.460118,-6.733936,-5.828701,-6.659717,-5.626751,-6.676366,-5.903864,-7.02187,-6.094578,-5.920585,-6.733054,-5.346297,-6.900436,-4.650585,-6.01344,-4.429243,-5.441099,-4.066539,-5.150593,-3.121062,-4.553543,-2.606524,-4.891981,-2.425339,-3.752338,-2.131517,-3.191825,-2.024226,-2.879867,-1.611714,-1.219953,-0.8868667,-1.257175,-0.6745339,-1.552653,-0.3258468,-1.626035,-0.5539001,-1.139626,-0.5473675,-0.4175169,-0.6490334,-0.495032,-0.2952455,-0.2246115,0.6470236,0.3908918,0.8788503,0.514465,1.607701,1.415142,1.960834,1.887959,2.162293,2.597102,2.564277,3.185383,3.444746,3.799798,4.045017,4.440851,4.868,4.560336,5.032108,5.266529,5.333783,5.559779,5.469767,5.555552,6.551232,5.595897,6.481793,6.037339,6.399845,5.973365,7.005768,6.137238,6.960281,5.968287,7.213531,6.318731,7.458209,5.940885,6.988915,6.065653,6.639108,5.824584,6.207694,5.447122,5.491576,4.818774,4.819307,3.657735,4.180835,2.15936,4.07273,0.3703917,2.771101,-0.3651934,1.828034,-0.707133,0.8282983,-1.473789,-0.4287351,-2.139843,-1.368503,-3.344653,-2.449478,-4.228965,-4.267093,-5.143653,-5.258367,-6.130319,-6.291842,-6.947271,-6.908495,-7.282784,-7.746609,-7.499347,-8.302473,-7.780642,-8.08666,-8.226248,-7.883456,-8.305702,-7.303286,-7.823083,-6.681733,-7.253711,-6.652417,-6.339019,-5.830054,-5.565324,-4.661753,-4.620865,-3.925035,-3.065188,-2.599483,-1.852381,-1.411744,-0.118043,-0.9567476,0.3793474,-0.07553113,1.12442,0.9164573,2.090681,2.034398,3.25105,2.640748,3.965268,3.570813,4.859909,4.10597,5.776203,4.896507,5.865935,5.438013,6.197556,6.109112,6.655417,6.423934,6.997028,6.146816,7.218944,6.422104,7.922377,6.907835,7.230124,7.535051,6.535218,7.011656,6.296348,6.641832,5.487483,6.209262,5.582637,5.588628,4.978956,5.202298,3.970191,4.943326,3.393192,3.825011,2.946199,3.160804,3.212829,2.315668,2.646157,2.359083,1.923767,2.205581,1.53741,1.78571,1.232178,1.296858,1.500872,1.217232,0.7145184,0.7765617,0.3517813,0.802096,0.5198867,0.6893305,0.5237398,0.7858272,0.5605197,1.611468,0.7402525,2.043333,0.7034963,2.559967,1.480912,2.933104,1.184876,3.214569,1.757511,3.442571,2.131352,3.30395,1.636933,3.834696,2.318877,4.842747,2.466594,4.927607,3.734675,5.733429,4.531118,5.852809,5.583629,5.912854,6.629736,6.622367,6.731241,7.279944,6.721492,7.559728,6.502242,7.244741,6.67037,6.242925,6.789882,5.610469,6.402767,5.266342,5.722159,5.021365,5.06966,4.473201,4.263086,3.468403,4.020513,2.784674,3.109867,2.09021,1.710213,1.216859,1.416277,0.07434154,0.1614321,-0.5792056,-0.6030049,-1.491389,-1.173482,-1.894978,-2.086321,-2.016901,-2.375641,-2.287864,-3.031405,-3.102094,-3.422548,-3.560437,-3.404887,-3.678211,-4.260707,-4.183522,-4.837003,-4.768262,-5.959535,-5.206016,-5.831606,-5.752734,-6.284377,-6.135669,-6.976793,-6.831679,-6.91471,-7.946628,-7.524238,-8.388783,-8.12796,-7.787078,-8.565177,-8.552956,-8.048709,-9.319166,-7.534493,-8.995562,-8.290254,-8.469494,-8.311931,-7.80914,-7.874932,-7.714398,-7.476967,-7.585305,-6.530079,-6.827065,-6.186287,-6.080072,-6.115487,-5.530089,-5.524031,-4.601256,-4.982199,-4.053327,-4.299238,-3.240194,-3.992783,-2.959248,-3.941125,-2.576639,-3.974644,-2.389576,-4.207164,-2.697848,-3.65798,-2.818059,-3.4305,-2.689895,-2.914059,-1.807931,-2.468604,-1.19945,-1.589375,-1.112878,-0.9443838,-0.3305302,-0.546397,-0.1585873,-0.1651803,0.04452234,0.2653993,-0.07647819,-0.2743582,-0.3003846,-0.07989701,-0.07718465,-0.4458562,-0.3734998,-0.5767956,-0.6213671,0.2227049,-0.8255444,-0.02482798,-0.7166384,-0.3697206,-0.4556528,-0.7471216,-0.6785032,-1.158876,-0.7483263,-0.9137899,-1.095531,-1.53868,-1.34242,-1.434933,-1.550201,-1.541344,-1.774687,-1.686321,-1.777407,-0.9517959,-1.614472,-1.297334,-1.449152,-0.674751,-0.553497,-0.4019068,-0.3020358,-0.2986787,0.3329706,0.583583,0.2956046,1.774055,1.357221,1.893349,1.070402,2.376853,2.811712,2.686281,3.086648,2.303417,3.339779,3.546261,3.834632,3.197109,2.636201,4.072997,3.410615,4.685675,3.065944,3.168092,3.423945,4.129781,3.302281,4.219362,2.333494,4.11855,3.404271,4.196308,3.323795,3.245716,3.237896,3.868698,3.895691,3.726691,2.898991,3.583208,3.697477,3.796639,4.07532,2.883475,3.877374,2.818734,3.929592,2.940703,2.327327,2.078836,2.265181,1.853875,2.075411,-0.1878721,1.582003,-0.03698916,1.296269,-0.5791391,0.4509705,-1.510213,0.1525204,-0.2920774,-0.2697558,-1.35375,-1.715581,-1.284669,-0.8169939,-1.795188,-2.144079,-2.653306,-1.812992,-2.477689,-1.458319,-3.482514,-2.527684,-3.213272,-1.776609,-2.375167,-2.401804,-2.944158,-2.1467,-1.504328,-1.239585,-1.546961,-1.403067,-0.8557075,-0.3423687,-0.08720219,-0.3255818,-0.536877,0.5979154,0.5891377,1.550543,0.5553567,0.9180416,0.9006638,1.997341,1.752189,1.676175,1.167619,1.694733,2.697867,2.249767,2.969226,1.338778,3.490356,2.765165,4.162385,3.305142,2.742953,3.666024,3.762232,4.308236,4.077479,3.43987,4.40526,3.23852,3.997436,3.039553,4.100438,2.961922,3.39051,2.757707,2.768846,2.684093,1.885526,1.852154,1.435373,1.323506,1.099198,0.3968348,0.1394538,-0.7980129,-0.292754,-1.282741,-1.234427,-2.021084,-1.361649,-2.838408,-1.534246,-3.448736,-1.850488,-3.911324,-2.432579,-3.957546,-2.846557,-3.939493,-3.444003,-3.755701,-3.414828,-3.867435,-3.46474,-4.028047,-3.917323,-3.710042,-4.265406,-3.449247,-4.234048,-3.259418,-3.536042,-3.312276,-3.150105,-2.994057,-2.609044,-2.050064,-2.682034,-1.599893,-2.049917,-0.1057746,-2.502765,0.7563027,-1.951185,0.7557638,-1.111162,0.8124571,-0.1597116,1.411888,-0.4312653,1.481013,0.840108,2.013704,0.9981303,2.018688,1.055243,2.270054,1.855018,2.132836,2.223183,2.013183,2.61529,2.40159,2.697413,2.185675,2.588415,2.796371,2.298495,2.494328,2.044576,2.096221,2.283702,2.046429,1.734207,1.307781,2.021886,1.411304,1.878883,1.465153,1.397147,1.134057,1.719278,1.152686,1.833752,0.2420547,2.001739,0.4527048,2.353649,0.8802828,2.162166,1.202082,2.025259,1.863227,2.265991,1.428139,2.115369,1.799428,2.321904,2.515999,2.264814,2.417797,2.580799,2.60021,3.155609,2.443245,3.601826,2.888196,3.752933,3.344651,3.623403,2.741059,3.254023,2.619014,3.266306,2.303097,3.199371,1.878892,3.485256,2.258627,3.073412,1.938241,2.871802,2.043577,2.778429,0.3691895,3.142094,0.2043397,3.071911,0.4823475,2.247689,0.4403667,1.530291,-0.29875,0.825084,-1.173285,-0.3811065,-2.005282,-1.285124,-2.468325,-2.54642,-3.056618,-3.431431,-3.732568,-4.050166,-4.751646,-4.495039,-5.732236,-4.857393,-6.108727,-5.315268,-6.679975,-6.495537,-6.321737,-6.938503,-6.361716,-7.330661,-6.550749,-6.93466,-6.429904,-6.989124,-6.460562,-6.30102,-6.126294,-5.981625,-4.908883,-5.420572,-4.707491,-5.416579,-4.577222,-4.552446,-4.766542,-4.104743,-4.665562,-3.679423,-4.126519,-3.254361,-4.100597,-3.244922,-3.47062,-2.953733,-3.519008,-2.66692,-3.738352,-2.010604,-3.37585,-1.987783,-3.13899,-2.504184,-2.467221,-2.254008,-2.543928,-1.949044,-2.589693,-1.759172,-1.88659,-1.306672,-1.646192,-0.7642499,-1.31743,-0.2447872,-1.001905,-0.2012149,-0.9813811,0.2040847,-0.7711154,0.05074805,-0.2298078,-0.3347518,-0.1416813,-0.5210662,-0.3208847,-0.4375444,0.04925554,-0.7223931,0.1102402,-0.6961493,-0.3844165,-0.7297261,-1.048922,-0.8193996,-1.453313,-1.458971,-1.460907,-1.43152,-1.407753,-1.766836,-1.324233,-1.836515,-1.803478,-1.29882,-1.689706,-1.842716,-1.703237,-1.783285,-1.063782,-0.5547751,-1.249732,-0.139851,-0.8726043,0.05240578,-0.2922567,-0.2857409,-0.3639623,0.653811,-0.1339936,0.4882936,-0.1396656,1.047891,0.2147039,1.743514,0.596529,2.142962,0.9363759,2.147891,1.596789,2.347515,1.70544,2.353555,1.824014,2.894393,2.01561,2.805383,2.253095,3.075445,3.068343,3.200482,3.364384,3.296811,3.971478,3.858955,4.354122,4.699556,4.539979,4.674418,5.316682,4.101463,5.135386,3.868957,5.420559,4.18871,5.340392,4.713664,5.219633,4.879274,5.597663,5.119629,5.345,4.987416,5.015194,4.581176,5.243972,4.439862,4.247573,4.228074,4.078872,4.317444,4.161171,3.501091,4.225238,4.072491,4.048355,4.010413,4.015306,4.115401,4.268676,4.388841,4.247314,4.560349,3.913496,5.239769,3.9939,4.623486,3.589179,4.33558,3.543364,4.233124,3.631578,3.746996,3.59358,3.72959,4.034563,3.315718,3.833383,2.358373,3.830612,2.520816,3.598038,2.220099,2.825596,2.315632,2.508949,2.073969,2.108075,1.606802,1.499664,1.326267,1.442072,-0.07312986,0.5372463,-0.2981408,-0.3572983,-1.514864,-0.6714579,-1.988307,-1.81184,-2.281398,-1.752012,-3.240005,-1.884316,-3.298106,-2.279048,-3.2315,-2.503859,-3.330509,-3.206054,-3.228391,-2.358342,-3.425765,-2.264165,-3.644343,-1.68931,-3.465538,-1.9475,-3.288702,-1.884175,-2.986885,-1.3716,-2.775652,-1.723716,-2.569365,-1.425749,-2.625924,-1.118488,-2.485051,-1.035436,-2.051159,-0.5894575,-1.864027,-0.3456618,-2.083969,-0.2307516,-1.271365,-0.8443589,-1.079548,-0.3108476,-0.4771856,-0.02219806,-0.1962417,-0.2196894,0.1138187,0.1509108,0.3796445,0.1335783,-0.05276355,0.4570182,-0.2020587,0.5150991,-0.5586335,0.1334747,-1.102663,0.0827152,-1.385025,-0.4084857,-1.007565,-0.7663426,-1.351065,-1.264421,-1.224551,-2.081759,-1.515933,-2.316852,-1.887065,-2.504721,-2.806787,-2.910625,-2.848705,-3.165055,-2.877893,-3.742993,-2.859142,-3.956499,-2.72779,-3.532735,-3.140866,-3.081763,-3.031708,-2.72666,-2.680418,-2.729092,-2.654927,-2.432367,-2.455091,-2.047046,-2.359116,-1.974293,-1.866916,-1.751248,-1.297644,-1.499225,-1.635586,-1.671597,-0.5564535,-1.459409,-0.3163114,-1.625745,-0.08105633,-2.017274,-0.4597113,-2.303811,-1.004876,-2.670363,-1.690273,-2.524535,-2.350738,-3.103773,-2.089764,-3.384281,-2.576634,-2.806568,-3.255105,-3.032266,-2.860247,-3.029751,-2.920684,-3.109129,-2.511526,-2.304149,-2.671045,-1.967904,-2.303177,-1.183257,-2.38747,-0.6753585,-2.350055,-1.081095,-2.676588,-1.511835,-2.332928,-1.606085,-1.964431,-1.681908,-1.647522,-0.8217341,-1.29221,-0.4664138,-1.492334,-0.3348425,-0.7397103,0.5441126,-0.56908,1.363764,0.755203,2.282255,2.656388,3.209112,3.331382,4.265539,4.760906,5.124142,5.825182,6.068181,7.005029,7.179188,7.80614,7.804237,7.993619,8.649353,8.422076,8.724691,8.214306,8.632068,8.839758,8.332603,9.132368,7.482028,8.794945,7.137207,8.78975,6.12704,8.289905,5.547056,7.15317,5.420913,6.090581,5.430399,4.972506,4.682925,4.770907,4.163155,4.008377,3.028714,3.085726,2.398365,2.114977,2.081479,0.9079578,1.277526,0.4832296,0.4410869,-0.1118934,-0.4802156,-0.8885935,-1.232868,-1.545004,-2.339203,-2.303369,-2.932173,-2.782906,-3.614253,-3.012632,-4.052412,-3.18753,-5.017189,-3.358001,-5.699369,-4.090623,-7.115074,-4.703073,-7.528133,-5.510466,-8.174499,-6.589991,-8.548952,-6.872746,-9.082175,-7.59922,-9.362621,-7.986013,-8.759796,-8.343397,-8.438872,-8.692282,-8.086813,-8.334268,-7.309922,-7.801479,-7.138888,-7.503444,-6.45354,-5.960135,-6.871107,-5.935965,-6.795933,-5.958108,-5.699084,-5.795949,-5.277805,-4.684293,-5.128582,-3.969849,-4.958058,-3.764578,-4.269921,-3.664324,-3.637876,-3.673143,-3.057378,-2.711687,-1.945007,-2.232869,-0.6275744,-2.129521,0.3507068,-1.152825,1.215746,-0.1559792,2.634107,0.6951862,3.781659,2.208778,4.441446,2.962868,4.910348,3.985212,5.386187,4.519543,6.036622,4.627961,6.519377,5.479872,6.819771,5.954944,6.412435,7.009436,6.378465,7.439396,6.392707,7.130351,6.150922,7.465306,6.213877,7.214697,5.40581,6.673715,5.806449,6.153721,5.391734,5.265514,4.842524,5.0017,4.460551,4.684602,4.074346,4.03497,3.911819,4.024969,3.606246,3.730651,3.217392,3.628189,3.539357,3.130319,3.408601,3.106508,3.671407,3.653348,3.972536,3.545366,3.724405,4.103164,2.943358,4.124538,2.984284,3.951413,3.461577,4.008764,3.366938,4.154976,3.53251,3.888614,4.073109,4.027748,4.160642,4.330368,4.589377,4.910731,4.540478,4.958961,4.867468,5.128142,4.860775,4.768544,5.654111,4.433393,5.681543,4.67487,5.067923,4.359985,4.907713,4.610542,4.417995,4.711774,3.851347,4.57775,4.317455,4.288546,4.274492,3.790682,3.573219,3.537286,3.103398,3.010056,2.063396,1.653855,2.004538,1.196195,1.200909,0.5358053,0.01519929,-0.4627002,-0.5616279,-1.505353,-1.061319,-2.935631,-1.399552,-3.813261,-2.234495,-4.487485,-3.249256,-5.54109,-3.974366,-5.725155,-4.746713,-6.770476,-5.179364,-6.683258,-5.375525,-7.167513,-6.238058,-7.415715,-6.744062,-7.488653,-6.913378,-8.16861,-7.603047,-7.598546,-7.812231,-7.809516,-8.113473,-7.80097,-8.128724,-8.087408,-8.542894,-8.050048,-8.87174,-7.843675,-8.874842,-7.646729,-8.238793,-7.777194,-7.486182,-7.083913,-7.681165,-6.645443,-7.593718,-6.109507,-7.150295,-6.045263,-6.920886,-6.180752,-5.866899,-5.643467,-5.092367,-5.400484,-4.603376,-5.103265,-4.221815,-4.423366,-4.159415,-4.224489,-4.147493,-3.19271,-3.670544,-3.194004,-2.974421,-3.278224,-2.343147,-2.697288,-1.896091,-2.493742,-1.202532,-1.597281,-0.6711867,-1.429816,-0.4250102,-1.539382,0.2233929,-1.101209,-0.1196684,-0.9805897,-0.3241657,-0.07269199,-0.05092345,-0.3762248,-0.1855969,-0.3722244,0.105571,-0.00492227,0.03350579,0.08199782,-0.09972054,0.6528958,0.3893267,0.9789376,0.6174544,1.441376,1.688329,1.378511,1.332732,1.410017,0.7563561,1.187662,0.4846379,1.162515,0.4675519,0.6088627,0.3829199,0.2769211,0.1197524,-0.08198531,-0.4522237,0.1006038,-0.1354495,-0.4655305,0.06369077,-0.7162968,0.6372426,0.1548945,0.5786068,0.4767274,1.039588,1.402952,1.791399,1.918842,2.438238,2.125789,2.948581,3.232535,3.582492,3.682097,3.56794,4.565599,4.536005,4.990772,4.847546,5.569428,5.215523,6.410171,5.544645,6.76976,5.716664,6.943536,6.02017,6.461274,5.714618,6.230025,5.148531,6.170794,4.286147,4.964112,3.619273,3.7596,2.678221,3.075126,1.221829,1.903294,0.621051,1.310489,0.0108527,0.1349113,-0.5802762,-0.6349902,-0.7436655,-1.793783,-2.072584,-2.546511,-2.960028,-2.296789,-3.578071,-2.907366,-3.646558,-3.683409,-3.884972,-4.572525,-3.739552,-4.803769,-3.905719,-4.503455,-4.013015,-5.013825,-4.288614,-4.986212,-4.20919,-4.827955,-4.153765,-5.204407,-4.449961,-5.513195,-3.978376,-5.147862,-4.290263,-4.730982,-4.205683,-3.682226,-4.22838,-3.65443,-3.261539,-3.307725,-2.096633,-2.618944,-1.767553,-1.059935,-0.6959177,0.173734,0.2356508,0.5425296,1.453585,0.5182837,2.136987,1.301144,1.532733,1.667652,1.421542,2.211158,1.407935,1.786818,0.8112227,0.9469142,1.194253,0.84816,0.6398278,0.5161656,0.3051294,-0.246094,0.1233643,-0.9027675,-0.7030617,-1.571428,-1.140609,-2.083243,-1.652582,-3.062016,-2.318087,-3.063292,-2.690866,-3.142231,-3.172333,-3.135949,-3.054264,-3.045088,-2.951434,-2.456198,-2.275368,-1.882456,-1.889341,-0.5635888,-1.32575,0.3128359,-0.4660769,0.8211702,0.1977909,0.9933314,0.2712785,1.404605,0.9440951,0.9834465,0.8842221,1.323152,0.8918003,1.769932,1.417443,1.680464,1.715056,2.282066,2.201902,2.652248,2.249036,2.83659,2.144409,2.930466,2.073993,2.455163,2.075895,1.781421,2.445042,2.390524,2.154608,2.931213,2.09687,2.693889,1.801686,2.283322,1.373641,2.186511,2.487708,2.141008,2.300325,2.242709,2.269597,2.275849,2.022791,1.46822,2.271898,1.639517,1.425254,1.697786,0.8522881,1.459151,0.7732955,1.505185,0.2003401,1.734916,-0.3576813,1.698723,-0.6381734,1.43392,-0.6050553,0.819083,-0.6283153,0.5861222,-0.3952633,0.1859133,-1.257284,0.0003583846,-0.9255386,-0.1510078,-1.234859,-0.7982941,-1.220782,-0.5082957,-1.405725,-0.7891516,-1.864138,-0.2638668,-2.111349,0.2807784,-2.538079,0.573598,-2.135497,0.6724884,-1.812924,0.07835233,-1.8625,-0.6095829,-1.603504,-0.9281015,-2.194799,-1.453853,-2.478453,-1.78497,-2.230304,-2.512882,-1.969555,-2.202668,-2.146673,-2.046102,-1.905019,-1.955552,-1.601705,-1.800919,-0.5992216,-1.161071,-0.7344726,-1.038268,-0.3324304,-0.2800856,-0.1103856,-0.3082804,-0.1076266,0.2559648,0.8694178,0.4231293,0.9541351,-0.007365518,0.8981917,0.627354,1.429146,1.060291,1.917816,1.545747,2.802507,2.681013,3.124547,2.779939,4.168026,3.230827,4.538665,3.949275,4.915797,4.260587,5.93947,5.851368,6.239126,5.890248,5.471934,6.116077,4.979174,5.340654,4.080622,4.389138,3.913755,4.484139,2.758497,4.591358,2.940577,4.632624,3.625261,3.648333,2.839402,3.214726,1.839801,3.116777,2.087328,1.948068,1.371531,2.078694,1.201273,1.4059,1.290248,1.450724,0.8821385,2.141327,0.3670229,1.926771,0.198455,2.172466,0.6338164,2.483806,0.642656,2.513306,1.254849,3.273196,1.899165,3.908297,2.510944,4.215148,3.877397,5.302016,4.534918,5.883048,5.209627,7.197906,6.289791,7.825394,6.613075,8.568356,7.31785,9.628738,7.259916,10.45242,7.541292,10.34308,7.929904,10.27729,8.149638,9.532909,8.9105,9.639055,8.342645,9.449967,7.761157,9.755339,7.594669,9.086837,6.688404,8.287776,6.753171,7.174449,6.180196,5.408733,5.350246,4.331123,3.97731,3.195527,2.309652,1.88665,1.362491,0.4527222,-0.1518282,-0.6855827,-1.212391,-1.674472,-2.165823,-3.320539,-3.490013,-4.128608,-4.518752,-4.63341,-5.585509,-6.038385,-6.111938,-6.430599,-6.571901,-7.212362,-6.25771,-8.056183,-5.673401,-7.385492,-5.254805,-7.698297,-5.162323,-7.486113,-6.139185,-7.974466,-7.633186,-7.877247,-8.561078,-7.712884,-8.546448,-7.947331,-7.972558,-7.167395,-6.719453,-6.225785,-6.552799,-5.912723,-5.974493,-6.295263,-5.562368,-6.396798,-5.882876,-5.609835,-5.388818,-5.365845,-5.297325,-5.009961,-4.706319,-4.483979,-4.046646,-4.430756,-4.284913,-4.093234,-3.858172,-4.08213,-3.832181,-3.535444,-3.956758,-2.348041,-3.635403,-2.025281,-3.112116,-1.646184,-2.641113,-0.8502483,-2.289214,-0.6979612,-1.780916,-0.4306772,-0.6344994,-0.5572041,-0.2754213,-0.109312,0.05789253,0.6578881,0.6506855,0.7114449,1.396595,1.304311,2.007165,1.701715,1.55896,2.027854,2.370548,2.574151,2.463657,2.148171,2.99694,1.953033,2.773491,2.401556,2.176886,2.521472,1.736829,2.692307,0.803627,2.409511,0.4190943,1.913403,0.4692677,0.7788489,0.08859803,0.3400697,-0.9096759,0.1600926,-1.206829,-0.6268168,-1.848347,-1.349062,-1.685751,-1.722887,-2.306203,-2.644665,-3.75164,-3.000487,-4.550441,-3.490627,-4.98107,-4.273007,-5.221635,-4.311783,-5.356507,-4.473602,-4.856615,-4.73376,-3.808227,-4.436834,-3.439498,-4.568057,-3.223334,-4.601839,-3.50875,-4.706491,-4.517392,-4.670553,-4.380093,-4.838752,-4.232012,-4.573253,-3.616285,-4.271757,-2.94114,-4.479699,-2.43153,-3.87898,-2.261246,-3.117215,-1.98322,-3.055522,-0.951286,-2.291786,-0.5100645,-2.078441,-0.006694755,-1.135168,0.6453123,-0.5648327,0.8725863,-0.1021055,0.9484317,0.6552819,1.018446,0.8628914,1.115359,1.284155,1.458578,1.900959,0.7934558,2.372813,0.6259043,2.698051,0.8142032,2.528463,0.9663357,2.744625,0.9698572,2.49051,0.961503,2.634545,1.307715,2.513818,1.863923,2.594442,1.946564,3.232907,2.308734,3.31199,2.550594,3.380944,3.01594,3.61081,3.75504,3.262971,3.996089,3.407196,4.268801,3.329944,4.056308,3.359483,3.994122,3.566872,3.782312,3.072695,3.961453,2.584599,3.865605,3.574197,3.122268,3.514153,3.041108,3.323672,3.339895,3.007242,2.790383,3.375656,2.519753,3.038101,2.051353,2.573426,2.041689,1.709792,1.819262,1.328031,0.8441657,1.77555,0.2806424,1.648147,0.1962367,0.9946047,0.445996,1.183317,0.435857,0.9447916,0.2955766,0.7517239,0.7972826,0.5281858,-0.2069529,-0.3723622,-0.6308503,-0.7620571,-1.428655,-1.522176,-2.110341,-1.777731,-2.553613,-2.493835,-2.9862,-3.718821,-2.788211,-4.394187,-3.052172,-4.404775,-3.100001,-4.412998,-3.449075,-3.447889,-3.720733,-3.742128,-3.584617,-3.401546,-3.391065,-3.132548,-3.490793,-3.125557,-3.003819,-2.793483,-2.29707,-3.208369,-2.280753,-2.298373,-1.951359,-1.992419,-1.547868,-1.684422,-1.834058,-0.7400257,-1.791628,-0.8939239,-1.409303,-0.9282587,-1.071247,-1.075899,-0.7636833,-1.357708,-0.5865769,-1.066598,-0.496385,-0.5826911,-0.5745365,0.01599882,-0.5597471,0.3429632,0.104331,0.8776711,0.1477476,1.278227,0.9483101,2.034355,1.177065,2.269352,1.60829,2.416551,1.586756,1.947681,1.808607,1.527425,2.072162,1.74236,1.267261,1.864011,1.193632,1.319744,2.120447,0.6803855,2.356036,1.153805,2.010778,1.458781,1.121114,1.899863,0.6164161,2.215943,0.7045319,1.767846,0.2716969,1.569303,0.01676609,1.429611,-0.1212352,0.6297217,-0.2720781,0.9786464,-0.4189173,1.150166,-0.6417879,1.055962,0.08712387,1.130376,-0.1851549,0.9189169,0.1159703,1.290351,0.3693731,1.249794,0.08732107,1.399864,0.3885502,1.375562,0.3498354,1.113165,0.3450673,1.770515,0.7192901,1.394141,1.088682,1.156864,1.632768,1.542369,1.73021,1.392031,1.745707,2.239808,2.079071,2.562028,2.30433,2.529312,2.463676,3.34262,3.006136,3.352312,2.851539,3.871133,3.040321,4.166007,3.529015,3.590023,3.561736,4.043561,3.776718,3.870266,3.322753,3.871695,3.96794,2.909347,3.328381,3.151211,2.702882,3.198575,2.626652,2.455433,2.386336,2.102633,2.3356,1.273869,1.879193,-0.005887003,1.854385,-0.0757992,0.7261261,-0.2998658,-0.7703079,-0.7119928,-0.5958674,-0.8431012,