ConstAcc,0.5,0.52326,-0.79098193,-1.620506,-2.3301632,-2.9283234,-3.4230265,-3.8219882,-4.1326055,-4.3619629,-4.516838,-4.6037077,-4.6287537,-4.5978684,-4.516661,-4.390463,-4.2243342,-4.0230689,-3.7912009,-3.5330103,-3.2525286,-2.953545,-2.6396121,-2.3140518,-1.9799609,-1.6402173,-1.2974857,-0.95422343,-0.61268622,-0.27493422,0.057162274,0.38191691,0.69782147,1.00354,1.297903,1.5799016,1.8486815,2.1035373,2.3439069,2.5693651,2.7796182,2.9744978,3.1539554,3.3180561,3.4669731,3.6009816,3.7204531,3.8258494,3.917717,3.9966812,4.0634398,4.1187579,4.1634618,4.198433,4.2246024,4.2429448,4.2544724,4.2602297,4.2859244,5.2944314,4.8777406,3.2559736,2.4246505,3.3859159,3.8891954,3.7514978,3.5832622,3.8356012,4.4512518,4.8348019,4.8573007,4.7478048,4.8470358,5.2434263,5.7058386,5.9431294,6.0563085,6.2024197,6.4427175,6.6682754,6.7785194,6.8411862,6.9361559,7.1475018,7.3717471,7.4957268,7.5038729,7.5027641,7.54119,7.599565,7.5995577,7.6047863,7.6045321,7.6331132,7.6910073,7.7426923,7.7865732,7.8029135,7.8094385,7.8279999,7.8716562,7.9890009,8.1363422,8.2332516,8.3180997,8.4599813,8.6265869,8.7422302,8.8277348,8.8894467,8.9955154,9.1424677,9.2685276,9.3342616,9.3718015,9.4136436,9.4863554,9.5791961,9.6177139,9.6230467,9.6603092,9.7560237,9.8576688,9.8665316,9.8050906,9.785416,9.8440732,9.9224356,9.9675268,9.9558893,9.9848659,10.093481,10.199654,10.21875,10.19236,10.215882,10.354996,10.517701,10.605598,10.636446,10.660153,10.724545,10.807176,10.810782,10.766189,10.74222,10.804558,10.932016,11.016232,11.003885,11.017204,11.080315,11.185444,11.208133,11.163058,11.095075,11.089983,11.091417,11.068779,10.992653,10.917063,10.921958,10.932078,10.886517,10.726784,10.559159,10.442685,10.384978,10.299716,10.162953,10.073167,10.005956,10.007618,10.001498,9.9622234,9.9548966,9.9975776,10.061594,10.128717,10.148037,10.150323,10.213095,10.349446,10.502059,10.56257,10.61046,10.727319,10.923187,11.131219,11.306452,11.470721,11.679675,11.893471,12.07344,12.179153,12.218227,12.321734,12.527216,12.759574,12.9431,13.097436,13.284254,13.487355,13.630018,13.689692,13.699707,13.774098,13.936558,14.088198,14.17355,14.224078,14.320228,14.487987,14.647705,14.745812,14.805363,14.871035,14.984987,15.11178,15.185927,15.190224,15.199626,15.267852,15.324767,15.290512,15.210701,15.167964,15.20894,15.262648,15.268726,15.205049,15.146089,15.166397,15.280508,15.312872,15.274836,15.282682,15.39501,15.510887,15.560453,15.520556,15.469133,15.505884,15.580256,15.631421,15.59494,15.55686,15.514941,15.489669,15.376296,15.131828,14.900969,14.730358,14.586682,14.355965,14.01411,13.713734,13.536932,13.446227,13.336723,13.199263,13.049134,12.963243,12.902038,12.810449,12.625313,12.39765,12.233574,12.131199,11.97565,11.696976,11.351687,11.093632,10.903585,10.640571,10.332812,10.057286,9.821293,9.6999504,9.5698748,9.3477379,9.0648697,8.8977205,8.8146154,8.7403976,8.639991,8.4978498,8.4604363,8.5708476,8.6384125,8.6033999,8.5438177,8.5821516,8.6625952,8.7116045,8.7333572,8.7227236,8.7829271,8.8702791,8.9424259,8.9928143,9.0415763,9.0712654,9.2308631,9.4673505,9.6413362,9.8069506,10.010212,10.291056,10.529361,10.633372,10.628043,10.621622,10.637343,10.688295,10.688263,10.60161,10.521987,10.484798,10.476875,10.44227,10.359472,10.334276,10.43345,10.511028,10.498264,10.40581,10.370497,10.376247,10.389539,10.304954,10.160428,9.9704145,9.8385128,9.7104436,9.5102125,9.2613727,9.0633641,8.9327464,8.8493376,8.728336,8.523884,8.365464,8.2989326,8.25521,8.2125723,8.167436,8.1334383,8.1643439,8.3196685,8.4102555,8.4316371,8.4385108,8.5046917,8.6071933,8.6899116,8.6610436,8.6033607,8.5953707,8.5812609,8.5366237,8.4839943,8.4215286,8.4100474,8.4760588,8.6277369,8.8495709,9.0989409,9.383667,9.6787251,9.9241321,10.052881,10.125589,10.205838,10.328682,10.450634,10.474639,10.503127,10.565096,10.655593,10.726806,10.770241,10.806177,10.802176,10.836181,10.853764,10.817911,10.734483,10.713645,10.644783,10.575344,10.463324,10.381967,10.379238,10.467209,10.540512,10.530318,10.509045,10.504258,10.493663,10.487522,10.396105,10.29708,10.204924,10.178685,10.166041,10.057791,9.8928974,9.7527196,9.7679814,9.8643439,9.86729,9.826997,9.905797,9.9575474,9.9409483,9.8614284,9.7228294,9.5938697,9.4800227,9.4176214,9.2547337,9.0498442,8.866755,8.7530502,8.6658182,8.4828038,8.2335082,7.9913258,7.798022,7.6667684,7.5467971,7.4020376,7.2393481,7.1050574,7.1184589,7.0902104,7.0215968,6.9204662,6.9011648,6.8692749,6.7536251,6.5376402,6.401425,6.3404342,6.2815545,6.2540801,6.1741403,6.0212017,5.9238678,5.8643026,5.7459472,5.5699338,5.4126174,5.3493465,5.2595966,5.180266,5.0489616,4.9548658,4.9404796,4.8982209,4.8221423,4.7089474,4.6288743,4.6532,4.7528364,4.7872253,4.7963034,4.7657405,4.8263593,5.0111776,5.2336262,5.344785,5.4123207,5.5508517,5.7403835,5.9024569,5.9468965,5.9168681,5.8981087,5.9386508,5.9815233,6.0107908,6.0015694,6.0742599,6.2069602,6.3039892,6.3340302,6.3360391,6.3135188,6.3478744,6.3855064,6.3575217,6.2846336,6.3057367,6.4022476,6.58163,6.7350855,6.7779492,6.872364,7.0706959,7.2266075,7.3034499,7.3576609,7.3743225,7.4029917,7.4595718,7.5021863,7.5370807,7.5310147,7.5923828,7.6837054,7.7574188,7.6762313,7.6120433,7.6440469,7.6998685,7.6884685,7.5817222,7.5014106,7.5135305,7.5773553,7.5466237,7.436829,7.2262883,7.1431854,7.11816,7.0074816,6.8403172,6.7250069,6.6976412,6.6362517,6.5316112,6.2801402,6.0373568,5.8884082,5.7505146,5.5997997,5.3629441,5.1694745,5.1259484,5.1817445,5.1259975,4.9674975,4.8738731,4.8603933,4.7847104,4.7148859,4.5673923,4.3984926,4.2952566,4.2777056,4.2651268,4.142128,3.9507061,3.8472692,3.8461792,3.8248247,3.704263,3.5558312,3.4953908,3.4303839,3.2514273,3.0226491,2.8147568,2.6960509,2.6155819,2.4572513,2.33739,2.1900789,2.0374694,1.9874116,1.9937043,1.8946922,1.7496313,1.6286938,1.538891,1.4521224,1.3732707,1.2929182,1.2772163,1.3301814,1.2939188,1.1341558,0.97370724,0.82919998,0.78958757,0.78962392,0.67853951,0.50128844,0.41004323,0.47146132,0.4521656,0.33207149,0.13505401,-0.026621378,-0.085863821,-0.12390308,-0.27247806,-0.55174023,-0.72028563,-0.78453068,-0.86269865,-1.0189345,-1.1388847,-1.2189799,-1.2375633,-1.2843248,-1.4186372,-1.6078348,-1.7803051,-1.8150205,-1.7895018,-1.8562833,-2.0489079,-2.1926702,-2.2032564,-2.2217064,-2.2661704,-2.3974069,-2.4423359,-2.4275658,-2.3097068,-2.312829,-2.3229271,-2.4457352,-2.5761312,-2.6792641,-2.8790625,-3.0035156,-3.0800683,-3.1768693,-3.2091662,-3.2719076,-3.5018724,-3.6778545,-3.7232639,-3.7024083,-3.7349021,-3.8650866,-4.0113896,-4.1553508,-4.3563764,-4.6530578,-4.9384716,-5.1286662,-5.2870412,-5.4292378,-5.6192272,-5.8753683,-6.0763281,-6.3105481,-6.5624964,-6.8170929,-7.1050721,-7.3803553,-7.5592691,-7.5941452,-7.6528504,-7.8343164,-7.9754644,-8.0592815,-8.0930367,-8.2164091,-8.4015546,-8.5463957,-8.5943164,-8.5840784,-8.5886115,-8.7178136,-8.8550533,-8.9288699,-8.9513938,-8.8982019,-8.917036,-9.0338413,-9.1575892,-9.1438818,-9.0522384,-9.1129516,-9.2192428,-9.2353939,-9.1134202,-9.1039365,-9.1723035,-9.2088812,-9.0819606,-8.7921697,-8.6177595,-8.6975913,-8.7452893,-8.6772934,-8.4929189,-8.348955,-8.2078626,-8.1865384,-8.0758509,-7.9669122,-7.8896487,-7.8668242,-7.8394426,-7.751679,-7.6146249,-7.4003512,-7.3096537,-7.2121963,-7.1136323,-6.9431028,-6.8074592,-6.7083325,-6.7020211,-6.6676347,-6.5998332,-6.4610853,-6.4246158,-6.4744421,-6.3720921,-6.1719696,-5.9947148,-5.9343788,-6.0134425,-6.0165767,-6.0516335,-6.0905782,-6.185356,-6.3653358,-6.4336991,-6.4091965,-6.3718506,-6.4638977,-6.6908977,-6.7676023,-6.7052624,-6.7154922,-6.8879836,-7.1820301,-7.3600959,-7.3789962,-7.3367596,-7.2646276,-7.3638194,-7.4534806,-7.3483602,-7.335174,-7.3413068,-7.4075146,-7.3514377,-7.3110983,-7.458506,-7.6695701,-8.0057517,-8.3309197,-8.5690513,-8.6271159,-8.7477076,-8.9969265,-9.4007169,-9.764564,-9.9293302,-10.10225,-10.311374,-10.642797,-10.801745,-10.804623,-10.845901,-10.938935,-11.070319,-11.136219,-11.24871,-11.486226,-11.643522,-11.795001,-11.806519,-11.846611,-11.884773,-11.917003,-12.04338,-12.106257,-12.000389,-11.912812,-11.951402,-11.995991,-12.05298,-11.942561,-11.973858,-12.10447,-12.234234,-12.18388,-12.034538,-12.000795,-12.114487,-12.161797,-12.112282,-11.994465,-11.88238,-11.736766,-11.650471,-11.593952,-11.552132,-11.364219,-11.229265,-11.364867,-11.51146,-11.6555,-11.766975,-12.02551,-12.29949,-12.622614,-12.720754,-12.857312,-13.055113,-13.335908,-13.572474,-13.810072,-13.933563,-14.09263,-14.318225,-14.464734,-14.478164,-14.516944,-14.609065,-14.617662,-14.553782,-14.336321,-14.265511,-14.274799,-14.338483,-14.490626,-14.644737,-14.881753,-15.249028,-15.677937,-16.290803,-16.777428,-17.354345,-18.04021,-18.847854,-19.733362,-20.614392,-21.523098,-22.446628,-23.431064,-24.516514,-25.567829,-26.627945,-27.678871,-28.82193,-29.94552,-30.823802,-31.684721,-32.684906,-33.673399,-34.553625,-35.454245,-36.262238,-37.271635,-38.416031,-39.580489,-40.597308,-41.301258,-42.004883,-42.646716,-43.227853,-43.581565,-43.907019,-44.16319,-44.373722,-44.353282,-44.020035,-43.629564,-43.292364,-43.046928,-42.921725,-42.769551,-42.698768,-42.715279,-42.981212,-43.317424,-43.633219,-43.887114,-44.167986,-44.675421,-45.368958,-46.103532,-46.693518,-47.29031,-47.988172,-48.671518,-49.259275,-49.83416,-50.43681,-51.154826,-51.941582,-52.465575,-52.968887,-53.296325,-53.667836,-53.959684,-54.274435,-54.523067,-54.658458,-54.614277,-54.542163,-54.260031,-53.695356,-53.092657,-52.557196,-51.910278,-51.094457,-50.087094,-48.94564,-47.707348,-46.060101,-44.117141,-41.820805,-39.311362,-36.612324,-33.726292,-30.328346,-26.624836,-22.611568,-18.336944,-13.736783,-8.7080566,-3.1825349,2.5343323,8.4886021,14.702643,21.284035,28.27747,35.59587,43.118611,50.715791,58.51697,66.450006,74.539114,82.61888,90.648466,98.718982,107.01766,115.36602,123.37241,131.12162,138.90376,146.69636,154.32961,161.70557,168.78436,175.63427,182.3098,188.8287,194.89159,200.49537,205.83214,210.87089,215.55483,219.71844,223.31797,226.61147,229.42082,231.80574,233.63494,234.83609,235.37158,235.61656,235.44117,234.84837,233.74024,232.26463,230.53153,228.60181,226.33615,223.63995,220.63704,217.44042,214.22264,210.60461,206.61875,202.2466,197.65005,192.81492,187.55314,181.79945,175.9011,169.94825,164.05024,157.91868,151.38444,144.65464,137.97325,131.24502,124.39762,117.47005,110.72199,104.12718,97.602929,90.987888,84.356962,77.885615,71.55512,65.472098,59.418235,53.355261,47.391206,41.619235,36.087898,30.531435,24.97567,19.327743,13.892959,8.8424177,3.9732394,-0.9178613,-5.8255182,-10.500857,-15.000592,-19.238387,-23.394574,-27.511713,-31.519663,-35.095155,-38.556447,-41.936888,-45.197051,-48.207423,-50.973404,-53.55735,-56.175107,-58.680025,-60.919087,-62.749455,-64.512546,-66.321524,-68.235374,-69.990133,-71.369712,-72.504541,-73.644776,-74.831779,-75.679016,-76.242225,-76.745518,-77.339176,-77.961674,-78.647487,-79.047191,-79.219813,-79.426695,-79.643078,-79.699168,-79.570845,-79.354189,-79.04622,-78.799701,-78.424396,-77.77871,-76.923361,-76.12124,-75.460181,-74.774143,-73.893951,-72.906282,-71.999633,-71.19888,-70.509379,-69.518765,-68.328288,-67.142356,-65.860645,-64.691254,-63.241436,-61.601717,-60.030516,-58.637169,-57.345375,-56.076812,-54.877291,-53.854596,-52.883432,-51.927173,-50.843169,-49.927401,-49.316104,-48.878493,-48.461217,-48.030573,-47.825033,-47.83537,-48.298249,-49.034293,-49.821023,-50.768534,-51.910416,-53.335564,-54.885947,-56.428946,-58.129492,-60.058385,-62.153135,-64.38948,-66.805291,-69.131362,-71.428832,-73.834216,-76.225426,-78.4857,-80.521894,-82.357305,-84.257821,-86.123512,-87.753204,-89.149202,-90.452766,-91.844126,-93.279681,-94.462388,-95.187439,-95.812099,-96.531149,-97.312484,-97.766744,-98.043797,-98.096291,-98.183616,-98.210349,-97.958559,-97.454099,-96.939602,-96.503253,-96.217686,-95.592013,-94.632755,-93.614605,-92.578196,-91.734813,-90.792815,-89.637967,-88.323433,-87.113004,-86.100831,-85.109555,-84.15369,-83.078749,-82.345841,-81.832596,-81.117559,-80.218434,-79.4829,-79.10023,-78.819988,-78.730701,-78.681728,-78.573046,-78.763278,-79.171898,-79.547665,-79.787463,-79.993155,-80.244929,-80.680686,-81.097866,-81.367789,-81.614795,-82.092364,-82.498144,-82.863207,-83.076758,-83.301229,-83.63412,-84.08591,-84.468962,-84.623276,-84.708054,-84.709928,-84.670294,-84.410801,-83.882408,-83.168911,-82.489801,-82.099742,-81.441933,-80.572259,-79.570704,-78.557329,-77.873125,-77.15823,-76.160888,-74.959235,-73.602944,-72.34322,-71.118636,-69.758509,-68.231792,-66.708303,-65.392513,-64.424721,-63.402879,-62.313487,-61.400213,-60.607879,-59.947989,-59.168284,-58.212651,-57.280321,-56.413703,-55.674368,-54.56809,-53.179515,-51.969405,-51.090155,-50.212883,-49.035835,-47.596757,-46.34663,-45.535991,-45.211,-45.057259,-44.92626,-45.116715,-45.654279,-46.558259,-47.478304,-48.213747,-49.185278,-50.116512,-51.106292,-52.193345,-53.10525,-53.93194,-54.97851,-55.899614,-56.551651,-56.796519,-57.091042,-57.57667,-58.255498,-58.9678,-59.53657,-60.168418,-61.058656,-62.134719,-63.176101,-64.120364,-65.002576,-66.117939,-67.266125,-68.173923,-68.680262,-69.197481,-69.913102,-70.697831,-71.364384,-71.614357,-71.654449,-71.450809,-71.094436,-70.608291,-69.914225,-69.004071,-68.002451,-67.180492,-66.206118,-65.070096,-63.890657,-62.805208,-61.796834,-60.604015,-59.235245,-57.637053,-56.165865,-54.80622,-53.309494,-51.828917,-50.460455,-49.096221,-47.990614,-46.923193,-45.766128,-44.529827,-43.503317,-42.851775,-42.31045,-41.669148,-41.004648,-40.802879,-41.257085,-42.033404,-43.119372,-44.262885,-45.778989,-47.66024,-50.032523,-52.567997,-55.195253,-58.141273,-61.556886,-65.313572,-69.280195,-73.381424,-78.383675,-84.284704,-90.598429,-97.094364,-103.66748,-110.66949,-118.30655,-125.76021,-132.21627,-137.30959,-141.03814,-143.33744,-143.53163,-141.69043,-138.27655,-133.68392,-128.46189,-122.43852,-116.02135,-109.3503,-102.49028,-95.612483,-89.024313,-82.473636,-76.194719,-70.507191,-65.685461,-61.631194,-57.899626,-54.723728,-52.247069,-50.718447,-49.918015,-49.623464,-49.975327,-51.061169,-53.634498,-57.384085,-61.871192,-67.364634,-74.353384,-83.073276,-93.470502,-105.35647,-118.61731,-133.17361,-149.52763,-167.50706,-186.81162,-207.30236,-229.06087,-252.61664,-277.58881,-303.66911,-330.65403,-358.44029,-387.28499,-417.13873,-447.64138,-478.61417,-510.35919,-542.68631,-575.59933,-608.42696,-641.09096,-673.54198,-705.88227,-737.7696,-768.92795,-799.11421,-828.10075,-856.14441,-883.00517,-908.085,-930.74607,-951.62705,-970.95637,-988.804,-1004.8128,-1018.472,-1029.8002,-1038.9464,-1045.9695,-1050.702,-1052.4869,-1051.265,-1047.5558,-1041.4981,-1032.7989,-1021.3516,-1007.1165,-990.46599,-971.09071,-948.66517,-922.81259,-894.30681,-865.51843,-837.6335,-809.5138,-779.26144,-746.99393,-713.23679,-678.58485,-642.85461,-606.12313,-568.70686,-531.12702,-493.31292,-455.05906,-416.2811,-376.92606,-337.27375,-297.99542,-260.33116,-225.1006,-192.0295,-160.2387,-128.49773,-95.962313,-62.965292,-30.015017,2.3722534,33.436224,62.954235,91.362018,118.87226,144.82709,169.14831,192.19445,214.61685,236.26022,256.71985,275.30185,292.49995,308.36084,322.98081,336.3975,348.90608,360.65211,371.57851,381.78333,390.7859,398.3881,404.68656,410.2249,415.29423,419.44602,422.50831,424.82089,426.8976,428.73619,430.35415,431.60381,432.31261,432.67734,432.93058,432.61617,431.65528,430.35091,429.0085,427.65287,426.31779,424.81135,423.19668,421.90446,421.10911,420.28157,419.52877,418.6438,417.82348,417.36296,417.5903,417.99841,418.84126,420.34842,422.89431,426.16919,429.88329,433.96113,438.66334,444.4839,451.23897,458.47784,465.93595,472.97927,479.42147,485.82523,492.22026,498.69922,505.54905,512.86628,520.37646,527.65055,534.76635,542.07238,549.54764,557.0805,564.30287,571.28671,578.10535,584.98053,591.60182,597.38276,601.81519,604.46026,604.86087,602.53526,599.20733,596.63193,595.2698,594.51771,594.25583,594.06418,593.81557,593.88348,594.95879,597.24001,600.20705,603.39619,606.53022,609.62662,611.78831,612.19351,610.40401,607.3533,605.03725,603.82214,603.12774,602.14072,600.35557,598.22326,595.84622,593.09185,590.15845,587.13966,584.0468,580.9157,577.72556,574.31459,570.56499,566.4996,562.41419,558.11627,553.61889,548.75787,544.13852,540.12186,536.2286,531.62827,526.45502,521.13815,515.98019,510.96307,505.81707,500.71525,495.97822,491.43216,487.02128,482.71003,478.29282,473.73786,469.22115,464.1387,458.29552,451.81377,445.21775,438.66642,431.83057,424.57599,416.78452,408.80853,401.06945,393.04546,384.54695,375.66789,366.74924,357.86301,349.31106,340.19439,330.83129,321.65749,312.99164,304.43482,295.69887,286.86209,278.23663,269.95889,262.04543,254.08785,246.08616,238.43222,231.26033,223.97065,216.37068,208.32242,200.65778,194.0816,188.22676,182.62025,176.9488,171.66553,167.18352,163.25215,159.56777,155.94311,152.48673,149.66666,147.27801,144.74652,141.65746,138.33325,135.04907,131.92271,128.56303,124.8531,121.06999,117.43926,114.28409,111.37843,108.67491,106.35337,104.34063,102.33634,100.04978,97.874734,96.026367,94.810147,93.695709,92.662395,91.550623,90.531238,90.436993,90.489696,89.42705,87.69559,86.960292,87.585755,88.161254,87.331762,85.129989,83.44247,82.875484,82.09871,79.331909,74.649167,69.548343,65.184583,61.12181,56.503017,52.164509,50.206593,51.707276,55.529212,59.80738,64.227189,69.355822,75.437865,81.282351,85.458118,88.162706,90.819023,94.501411,97.973687,99.254951,98.473047,97.311596,96.745235,96.167238,93.656035,89.08239,84.061771,79.991905,75.693055,69.774795,61.798757,53.31833,45.796757,38.520184,29.672658,18.813809,7.7425789,-2.0384391,-11.34462,-21.944735,-34.308393,-46.83998,-58.090024,-68.426638,-79.991158,-93.047302,-106.0444,-117.49953,-127.92996,-139.16921,-151.70749,-164.31656,-175.34405,-185.00953,-195.21216,-206.64343,-218.0567,-227.78347,-236.08397,-244.53097,-254.181,-263.68424,-271.23286,-277.39979,-283.51059,-290.89095,-297.99767,-303.055,-306.39984,-309.58417,-313.85466,-318.10003,-320.34444,-320.72284,-320.91439,-322.07772,-323.26809,-322.47058,-319.77466,-317.09875,-315.11719,-313.48548,-310.02609,-304.6441,-298.88868,-294.30463,-290.03677,-284.39619,-276.8564,-268.94445,-262.29742,-256.27644,-249.19326,-240.44804,-231.54219,-224.36763,-218.41402,-211.68877,-204.59561,-198.1911,-193.11827,-188.902,-185.13837,-182.15548,-180.70785,-180.90554,-182.26525,-184.45814,-187.50092,-191.71459,-196.60526,-201.28525,-204.31497,-205.17491,-204.56908,-202.62691,-199.4055,-195.13038,-190.08825,-185.31027,-181.81914,-179.43109,-177.01033,-173.97053,-170.77193,-167.86573,-165.18215,-162.30202,-159.29753,-156.71146,-154.44649,-152.24722,-149.86317,-146.96277,-144.33904,-142.03095,-140.00932,-137.69373,-135.44532,-133.06009,-131.01711,-129.18375,-127.20836,-125.06911,-123.0657,-121.23915,-119.51026,-117.47395,-115.41542,-113.58724,-112.02358,-110.6723,-108.94329,-106.70345,-104.64248,-102.9899,-101.44313,-99.820596,-97.983216,-96.409437,-94.902107,-93.743462,-92.178244,-90.415148,-88.735643,-87.325268,-86.314272,-85.229673,-83.605598,-81.856619,-80.485002,-79.448065,-78.397622,-77.059076,-75.439303,-74.213666,-73.146846,-71.897489,-70.517989,-68.858127,-67.798212,-67.087018,-66.046836,-64.634592,-63.112916,-62.160393,-61.331068,-60.269398,-59.045132,-57.639949,-56.489523,-55.911765,-55.019133,-53.745556,-52.104635,-50.913171,-50.032536,-49.214029,-48.123184,-46.792046,-45.708487,-44.719953,-43.784257,-42.640002,-41.457836,-40.549331,-39.794972,-38.865244,-37.781517,-36.542506,-35.643342,-34.779335,-33.930118,-32.945772,-31.904625,-30.913114,-30.328396,-29.863853,-29.077209,-28.019029,-27.090821,-26.584838,-26.094049,-25.378048,-24.701731,-23.753487,-23.296283,-22.963339,-22.356301,-21.642969,-20.992679,-20.561566,-20.356462,-19.873357,-19.120943,-18.453004,-18.252263,-18.069132,-17.781523,-17.315279,-16.822304,-16.537249,-16.687313,-16.291677,-15.717484,-15.241738,-15.072834,-15.008478,-14.918379,-14.252654,-13.725024,-13.491158,-13.618414,-13.366049,-12.6193,-12.039997,-11.870146,-11.923792,-11.917387,-11.445773,-10.775718,-10.493281,-10.203687,-10.008259,-9.6397906,-9.0423613,-8.7666423,-8.9087938,-8.7791742,-8.1880214,-7.382906,-7.0113007,-6.9918257,-6.9877001,-6.5326909,-6.0645642,-5.9078873,-5.8400433,-5.6165376,-5.1345959,-4.6782337,-4.3468791,-4.2653985,-4.0989139,-3.6428924,-3.1113298,-2.8660456,-2.8125372,-2.6834013,-2.2231874,-1.9445191,-1.7450756,-1.5711927,-1.5956185,-1.3546663,-1.0025509,-0.55908021,-0.64197422,-0.81934153,-0.60584705,-0.27417486,-0.13426601,-0.09307138,-0.059280324,0.25479965,0.55921762,0.77525591,0.6584524,0.52914521,0.75044994,1.4095548,1.6888089,1.5449026,1.3299433,1.6104655,2.1508882,2.4856995,2.4087593,2.2814655,2.5053788,2.8936925,3.3522909,3.4646947,3.4509385,3.5384499,3.9178448,4.2782073,4.2302457,4.3991509,4.7312647,5.1044251,5.4418193,5.5368147,5.4280525,5.6499247,6.3988135,6.8450496,6.8828361,6.9680162,7.3098029,7.9868747,8.583323,8.8353721,8.8878778,9.251131,9.7940529,10.241826,10.594681,10.777826,11.150097,11.692716,12.169822,12.432724,12.783952,12.95887,13.362694,13.979401,14.340501,14.394854,14.486986,14.815651,15.282627,15.459585,15.515395,15.597437,15.779519,16.239117,16.291341,16.212906,16.128873,16.295161,16.581171,16.588671,16.39458,16.408535,16.626545,16.675814,16.507697,16.178542,15.911886,15.979926,16.070841,15.801897,15.478376,15.040923,14.991472,15.113818,14.928733,14.329319,14.018409,14.037102,14.277589,14.004819,13.48052,13.079816,12.954457,12.765685,12.401488,11.948338,11.409,11.258514,11.216646,10.990602,10.571513,10.236067,10.309284,10.667019,10.606873,10.382331,10.357206,10.49151,11.028987,11.618982,11.809679,12.095235,12.714874,13.571193,14.116954,14.376477,14.748097,15.531213,16.215216,16.772497,17.192126,17.428298,18.058067,18.871372,19.351709,19.391958,19.398517,19.667168,20.069941,20.241775,19.833943,19.08476,18.776853,18.23947,17.751413,16.823205,15.475994,14.111152,13.118405,11.836856,10.175353,8.3165738,6.5774746,4.9283133,2.8763898,0.71656619,-1.8871196,-4.2225166,-6.5067324,-8.9645399,-11.690295,-14.474183,-17.313535,-19.720182,-22.141162,-25.053856,-28.055314,-30.759074,-33.145809,-35.517949,-37.991711,-40.610195,-42.667253,-44.381261,-46.145584,-48.135291,-50.258223,-51.712085,-52.506802,-53.130077,-53.938402,-54.926583,-55.449684,-55.451671,-55.263608,-55.019931,-54.851035,-54.142438,-52.822209,-51.355952,-49.944024,-48.606038,-47.031201,-44.957506,-42.595902,-40.054284,-37.545592,-34.822195,-31.729824,-28.430592,-25.198949,-22.260414,-18.846195,-15.287917,-11.58408,-7.9920835,-4.5357104,-1.256841,2.1803816,5.5060758,8.5043624,11.270021,14.136543,16.851171,19.822327,22.60593,24.850526,26.991378,28.993697,31.297089,33.064416,34.219493,35.434591,36.713935,37.857812,38.633219,39.159697,39.373919,39.708161,39.902548,40.041807,39.935868,39.494557,39.04831,38.47779,37.849156,36.752944,35.686757,34.651269,33.849652,33.091552,31.803119,30.608622,29.492641,28.384469,27.244539,26.021571,24.813955,23.530464,22.466462,21.229827,19.963485,18.687594,17.640565,17.221132,16.336682,15.222592,14.237429,13.651732,13.153694,12.67332,11.79014,11.030713,10.400337,10.044323,9.8365483,9.2903447,8.6509723,8.2429377,8.1793036,8.2990594,8.0189482,7.6166383,7.7175999,7.9494316,8.1235725,8.3012064,8.3099725,8.3721726,8.8955073,9.6488663,10.187367,10.458689,10.713477,11.161688,11.916654,12.465871,12.792686,13.14876,13.779469,14.355557,14.526733,14.587197,14.698281,15.176784,15.563259,15.763092,15.789476,15.73764,15.876203,16.07449,15.869108,15.483697,15.410037,15.414603,15.656645,15.525628,15.273778,14.923069,14.619174,14.563908,14.183799,13.84072,13.295511,12.914883,12.676223,12.061577,11.254401,10.446378,9.985552,9.7612004,9.4772585,8.7782661,7.9776242,7.6474327,7.2890273,6.6925152,5.7611374,4.9009274,4.5284355,3.8991972,3.4623082,2.6234897,1.8389026,1.1622428,0.72041509,-0.36315424,-1.8881384,-3.0831003,-3.7909812,-4.1058357,-4.6261938,-5.3710869,-5.5101383,-5.216284,-4.7828018,-4.5712819,-4.5883832,-4.5298603,-4.2220651,-3.7957793,-3.7528592,-3.6111025,-3.5568043,-3.5254888,-3.3505576,-3.2094193,-3.3193904,-3.7686086,-3.9469733,-4.0770751,-4.050029,-4.5596012,-5.0505451,-5.4949281,-5.7276714,-6.0442487,-6.5624464,-7.4231363,-8.0820668,-8.7091773,-9.382335,-10.190806,-11.297129,-12.178212,-12.866035,-13.561428,-14.472926,-15.531677,-16.41293,-16.918067,-17.543805,-18.461018,-19.287139,-20.106807,-20.468441,-20.896662,-21.452334,-22.170958,-22.749348,-22.938763,-23.211452,-23.709039,-24.111509,-24.613489,-24.622345,-24.633457,-25.110394,-25.31425,-25.376487,-25.302775,-24.978182,-24.787632,-24.758133,-24.565134,-24.157609,-23.606206,-23.235827,-23.053977,-22.564954,-21.816891,-21.024032,-19.958482,-19.085175,-18.40571,-17.400646,-16.545175,-15.561246,-14.807251,-13.875402,-12.819745,-11.708025,-10.676629,-10.085929,-9.3238808,-8.3239329,-7.3657487,-6.3951503,-5.4856737,-4.5731215,-3.6718704,-2.7766602,-1.8220219,-1.1146729,-0.7947878,-0.50011813,0.010333788,0.41600009,0.59192192,0.49416964,0.25333383,0.28114871,-0.11713485,-0.71493634,-1.5298273,-2.3137509,-3.2607211,-3.7869319,-3.9874343,-4.2293805,-4.1368807,-3.7015792,-3.1536596,-2.8453008,-2.9205225,-2.955278,-2.8613495,-2.7124931,-2.5700782,-2.6378507,-2.6208973,-2.3118255,-1.724553,-1.5984731,-1.8230588,-1.8204563,-1.4798413,-1.0704647,-0.90647057,-0.84004154,-0.69947031,-0.27542478,0.1275111,0.52998309,0.81696574,1.2954374,1.6822627,2.1338995,2.6424932,3.0821548,3.4191809,4.0228962,4.577131,5.127077,5.722855,6.2382975,6.8064348,7.5025787,8.1594213,8.7168903,9.2963702,9.9668397,10.664127,11.200907,11.662932,12.248582,12.696145,13.362115,13.788919,13.886627,14.241894,14.64203,15.164461,15.571311,15.524918,15.799349,16.227558,16.569402,16.940676,16.996791,17.04474,17.310606,17.637951,17.768077,17.705202,17.678511,17.806846,17.917779,18.007132,18.082012,17.912165,17.881339,17.997904,17.846364,17.444805,17.087754,16.864425,17.009879,16.914657,16.473474,15.892773,15.459099,15.369284,15.107882,14.832093,14.319129,14.11866,14.121918,14.006285,13.735245,13.21807,12.976433,12.833725,12.499284,11.86843,11.219855,10.835052,10.704545,10.608056,10.185064,9.6154322,9.2616866,9.0663642,8.8515971,8.4818129,7.8924062,7.4311501,7.3650165,7.3751489,6.5330832,5.717657,5.158145,4.8904791,4.6609458,4.5815931,4.6563838,4.9177893,5.6072253,6.0960859,6.4034057,6.5382233,7.073592,7.344185,7.5454848,7.7230055,7.7959161,7.7322995,7.7427716,7.6545139,7.4809448,7.0375745,6.4800283,6.3324212,5.9541527,5.4572596,4.6119419,3.7605437,3.2609533,2.887554,1.9803298,0.82197556,-0.047708138,-0.89818037,-1.6251363,-2.6444604,-3.9391973,-5.1156614,-5.7492516,-6.6175198,-7.7046195,-8.8278094,-9.8444666,-10.647649,-11.393289,-12.118183,-13.034755,-14.032655,-14.722722,-15.285835,-15.802952,-16.539742,-17.168542,-17.615094,-17.964133,-18.397374,-18.893518,-19.142561,-19.364211,-19.463007,-19.522955,-19.666624,-19.616718,-19.530528,-19.246147,-18.99948,-18.808577,-18.556345,-18.148871,-17.482656,-17.031363,-16.657605,-15.986189,-15.378662,-14.695021,-13.963125,-13.160537,-12.345605,-11.469577,-10.368574,-9.3811897,-8.3944843,-7.5117879,-6.1114374,-5.0898535,-3.9122892,-3.0003988,-2.0742087,-1.0545414,0.031019629,1.1227361,1.7185476,2.2718148,2.9584558,3.8763156,4.6833356,5.1781647,5.494088,5.9781666,6.5562487,6.601769,6.4336523,6.2938351,6.2440854,6.0186637,5.6265788,5.1003218,4.2610476,3.614643,2.7571492,1.780949,1.4777801,1.0621629,0.76032589,0.7982571,1.0030885,1.2765851,1.1274083,1.0969012,0.85467175,0.89254686,0.80134038,0.87064883,0.57014149,0.66882511,0.74027591,0.39572546,0.11918208,0.19948374,0.23144851,0.34606916,0.25686745,-0.074052744,-0.10254409,-0.2381708,-0.17690843,-0.35936759,-0.6963107,-0.71668084,-0.70197491,-0.9220259,-0.95205754,-1.2337574,-1.5751323,-1.7273153,-1.8422128,-1.8812517,-2.0198891,-2.1007156,-2.4426434,-2.3675618,-2.2901835,-2.3469924,-2.5722285,-2.4915259,-2.387618,-2.3860062,-2.597417,-2.7709119,-2.865228,-2.8176517,-3.0179712,-3.1727346,-3.228952,-3.4231239,-3.2933832,-3.1118219,-2.9454008,-3.1360793,-3.2648301,-3.378151,-3.4783426,-4.2049978,-4.6995675,-3.4793141,-2.2877058,-2.6356225,-3.9150882,-4.74896,-3.8921189,-2.602865,-2.7436335,-4.2720167,-5.1391271,-4.0840266,-2.4763512,-2.2741664,-3.6614383,-4.672648,-3.6787176,-2.1109421,-1.974048,-3.5179937,-4.314678,-3.7639201,-2.2021244,-2.1000995,-3.5367026,-4.7459631,-4.2337372,-2.6921297,-2.3782189,-3.7294436,-4.7173157,-4.0386843,-2.5856942,-2.5179346,-3.9710885,-5.1495883,-4.7768348,-3.5741589,-3.2218994,-4.2274393,-5.4062742,-5.0376714,-3.6719429,-3.1988171,-4.503935,-5.6016372,-5.3527963,-3.8688973,-3.2075554,-4.3474361,-5.4798475,-5.0424345,-3.473186,-2.732318,-3.7203546,-4.8911282,-4.7673777,-3.1786314,-2.1748878,-2.6741253,-3.9944621,-3.8950743,-2.3102554,-1.1589118,-1.7155241,-2.9461207,-2.932891,-1.137624,-0.033492456,-0.68134226,-1.9562689,-1.9829483,-0.26963118,1.1188364,0.66511181,-0.26035281,-0.45618922,0.9433963,2.4215819,2.0762404,0.88393003,0.74975136,2.3746754,3.8648341,3.4870158,2.1879042,1.8114391,3.2317549,4.665668,4.3995998,2.9072069,2.5032499,3.5575793,4.806477,4.5229088,3.0312421,2.5301477,3.7353969,4.9503407,4.8082754,3.5349671,2.6213711,4.0182095,5.5954324,5.5643137,4.2369083,3.3613519,4.3882708,5.9270961,6.1658621,5.7707848,5.7197655,6.018725,6.3073037,6.7677661,6.6512258,6.9282871,7.4294264,7.6991438,7.9141376,8.2422659,8.4672369,8.6418155,8.7401909,8.8396968,8.8310447,8.9767741,9.3886158,9.586846,9.3139458,9.4421101,9.4233122,9.6078415,9.5366825,9.6079523,9.7180536,10.047103,10.327191,10.238283,9.9849516,10.145497,10.124933,10.042481,9.7966807,9.656117,9.7512466,9.5445215,9.5201959,9.2566995,9.1401268,8.823765,8.3768081,8.1652826,8.1444679,7.9326686,7.5624113,7.2841051,7.1329907,6.7295416,6.4991621,6.337433,5.932375,5.1075898,4.2535976,3.7974988,3.4011566,2.7760883,2.4638782,2.3916956,2.3663719,2.2340708,2.4137348,2.5856758,3.1822011,3.4541388,3.9479964,4.3914197,4.6642151,4.8719885,5.1750312,5.4939549,5.7038988,5.8963586,5.8226579,5.7630253,5.6369426,5.4248822,5.2273448,5.0849435,4.6162943,3.9814618,3.6796369,3.1659805,2.6093555,1.8947637,1.2656813,0.5352137,-0.12605633,-0.79924212,-1.741702,-2.7251533,-3.4295528,-4.2877505,-5.0988248,-5.9757581,-6.7850741,-7.440177,-8.2931462,-9.144164,-9.930122,-10.625639,-11.323897,-11.872869,-12.495015,-13.173895,-13.600078,-14.016623,-14.560434,-15.014448,-15.253516,-15.614364,-15.879703,-15.75444,-15.796465,-15.664053,-15.874016,-15.7084,-15.424324,-15.461521,-15.449646,-15.20048,-14.961799,-14.708624,-14.31452,-13.871719,-13.562656,-12.886686,-12.119748,-11.81191,-11.380754,-10.526713,-9.7938094,-8.8229233,-7.9647585,-6.8833478,-5.9473417,-4.9519226,-4.0502667,-3.098392,-2.2564034,-1.0332345,-0.3300396,0.65533794,1.4882071,2.3566514,3.258447,3.8700377,4.6157658,5.1640042,5.9127791,6.5935732,7.3153604,8.0415006,8.2867849,8.5559961,8.7113391,8.9371748,8.7001917,8.2610381,8.1438701,7.7371277,6.8229631,6.1111077,5.9224497,5.9621421,5.6116216,5.2338174,5.3847803,5.2786984,5.3617184,5.2337907,5.448981,5.4932409,5.71424,5.5216775,5.5180633,5.3587327,5.1211797,5.2204757,5.1947121,4.8960353,4.9469413,4.6296374,4.4710717,4.342407,4.0261669,3.8428761,3.6917361,3.4673978,3.0593457,2.8829236,3.0041736,2.5715771,2.2726568,1.8972929,1.8339901,1.6476188,1.2159771,0.85209872,0.46782004,0.31012907,0.24679493,-0.21553486,-0.53379626,-0.65797797,-0.8647734,-1.092009,-1.4866188,-2.0827064,-2.476879,-2.5499414,-2.8161023,-3.1871836,-3.3985339,-3.6959795,-3.7335515,-3.9673192,-4.3241495,-4.3168761,-4.4498347,-4.7388551,-4.759349,-4.7169974,-4.9263074,-4.9539918,-5.20537,-5.2964962,-5.341164,-5.5588818,-5.7859923,-5.6531866,-5.6855505,-5.7079817,-5.7411888,-5.8914475,-5.7838297,-5.6745993,-5.8026275,-5.9811678,-5.6848824,-5.6277048,-5.5397451,-5.4181477,-5.3690114,-5.1671255,-5.262768,-5.3402693,-5.4917025,-5.4367348,-5.5720029,-5.4408061,-5.5307949,-5.5745248,-5.7523801,-5.8324045,-5.7005821,-5.6593342,-5.7798018,-5.893469,-6.1014381,-6.0707607,-6.1339199,-6.3496201,-6.4742817,-6.2695839,-6.3883562,-6.3639978,-6.4998195,-6.3592914,-6.3332222,-6.3110018,-6.40737,-6.2337526,-6.2249268,-6.2150408,-6.0999731,-5.9887122,-6.0153637,-6.1941076,-6.0935854,-6.1599455,-6.0622593,-6.0522551,-6.0676831,-6.0975107,-5.9874928,-5.8309748,-5.6770244,-5.497663,-5.512731,-5.3082138,-4.8846832,-5.0560691,-4.7596638,-4.5791069,-4.2109598,-3.9697649,-3.7543953,-3.663682,-3.4018212,-3.0370867,-2.7380736,-2.5931169,-2.1582564,-1.735005,-1.3921455,-1.1349564,-0.93515289,-0.40578134,0.012984877,0.51807846,0.85034501,0.92985297,1.5004909,2.0491018,2.2481513,2.6221176,2.9392748,3.3676067,3.9359944,4.2824743,4.3638179,4.643904,5.0463579,5.5059009,5.8216865,6.2890402,6.537194,7.0029527,6.9762611,6.9644495,7.494714,7.8059591,7.9533103,8.163475,8.3857615,8.6807646,8.9155317,9.2153632,9.4945407,9.6590224,9.9205918,10.152758,10.439394,10.432373,10.693952,11.012991,11.287153,11.654672,11.909066,12.005203,12.290059,12.305316,12.640379,12.869836,12.672392,12.685207,12.857709,12.782458,12.716927,12.7929,12.625396,12.511711,12.34811,12.182741,12.35853,12.213318,11.927703,11.829027,11.762913,11.66217,11.495716,11.54658,11.467374,11.329725,11.030684,10.955784,10.496907,10.250247,9.937915,9.6756414,9.5665655,9.3190919,9.0798945,8.813157,8.5445929,8.1645989,7.6385891,7.630754,7.2794331,7.0226078,6.4400561,6.1281799,5.2616191,4.5190283,4.0847555,3.5944834,3.0898512,2.6243163,2.7201173,2.9945204,2.9393148,3.4883895,3.5497872,3.8093967,4.157141,4.3668683,4.5961612,4.6921713,4.6975889,4.8344604,4.7148855,4.780452,4.6609966,4.5739497,4.2783717,3.983176,3.4668237,3.1710411,2.7893005,2.3400694,1.6835073,1.040137,0.671042,0.10230473,-0.57945923,-1.1546988,-1.8273221,-2.7161562,-3.6026143,-4.2537157,-5.0343825,-5.8661341,-6.683846,-7.3798617,-8.0300639,-8.6948683,-9.6244646,-10.401639,-11.172536,-11.927375,-12.374688,-13.029533,-13.781448,-14.385785,-14.828466,-15.302136,-15.649685,-16.013749,-16.322636,-16.570849,-16.535645,-16.797377,-16.787376,-16.775798,-16.434992,-16.175168,-16.067162,-15.832585,-15.508877,-15.006686,-14.646191,-14.23813,-13.624397,-13.273032,-13.043538,-12.443344,-11.670757,-11.19824,-10.248641,-9.6807589,-9.1426941,-8.318067,-7.4052454,-6.3778376,-5.4697587,-4.7467417,-3.747446,-2.9318321,-2.0638902,-1.1657886,-0.22622719,0.7070345,1.3307223,2.0759566,2.8221753,3.7464008,4.3628877,5.0020699,5.7610653,6.1376985,6.7263498,6.9847458,7.2507175,7.3611644,7.592949,7.4879022,7.2163976,7.3027968,6.6321755,6.225106,5.5637241,4.9015007,4.2331918,3.714904,3.305958,2.9606975,2.7388331,2.9064159,3.142779,2.9026255,2.9292049,3.2056687,2.697116,2.7950644,2.8774775,2.7821887,2.4590087,2.4426587,2.3614682,2.3578099,2.1617363,2.2992375,2.1269732,2.0679181,1.8108326,1.6592151,1.5548766,1.7264739,1.4696748,1.3066079,1.2982674,1.1979215,1.0884,0.99361993,0.81138495,0.60291455,0.50321094,0.21488831,0.32383198,0.24989275,-0.024585761,-0.25595802,-0.041992608,-0.14587471,-0.18750182,-0.48428318,-0.50668796,-0.67024547,-0.73722358,-1.0575471,-1.0792178,-1.2307633,-1.3575447,-1.3762295,-1.4506615,-1.5300205,-1.6243859,-1.7166105,-1.6230895,-1.6520392,-2.0897992,-2.2701463,-2.1219532,-2.243393,-2.5132142,-2.7540515,-2.7001145,-2.7556331,-2.8479933,-3.0659633,-3.1094647,-3.2560802,-3.4059711,-3.3331158,-3.4011212,-3.3769893,-3.5853867,-3.6475275,-3.6574956,-3.8481013,-3.8992639,-4.0588842,-4.1596581,-4.1103348,-4.3109265,-4.4466021,-4.7667126,-4.8229229,-4.8581987,-5.1117785,-5.3153796,-5.3952077,-5.4165253,-5.4622736,-5.4345257,-5.4114732,-5.4821112,-5.4717629,-5.304937,-5.461995,-5.4555578,-5.3483612,-5.4103077,-5.2512151,-5.3122963,-5.4040108,-5.0172612,-4.9495017,-5.1721944,-4.8848878,-4.8029604,-4.8777202,-4.937736,-4.8834085,-4.7062622,-4.5215434,-4.4243259,-4.2282085,-4.1414933,-4.0603748,-3.8253626,-3.5101662,-3.5226269,-3.1073905,-2.9013567,-2.6605691,-2.5723834,-2.1961652,-1.8996337,-1.6399924,-1.4026758,-1.0996824,-0.70825408,-0.38842989,-0.24141102,-0.17350106,0.20856579,0.72543725,0.69695473,1.1070253,1.2931796,1.2264662,1.4345585,1.6997715,1.9835199,2.0315086,2.1441812,2.3126434,2.5260457,2.7710618,2.9244702,3.0131202,3.4026633,3.4536688,3.7340181,3.928745,4.2898255,4.3599948,4.5399389,4.8396222,4.7141767,4.7502594,5.1147866,5.0972425,5.1185149,5.1563666,5.129384,5.2097663,5.3577865,5.113371,4.8776999,4.8369975,5.1767423,5.019424,4.9866152,5.2192551,5.1714871,5.0007719,5.1352884,5.4045343,5.3496602,5.4064014,5.6250803,5.8039663,5.7609304,5.8207729,5.8691791,6.0761982,6.1192654,6.2585004,6.1856257,6.0533937,6.3899885,6.3985517,6.1015062,6.1839833,6.0608111,6.1337146,5.8885142,6.0118959,6.1880536,6.1692254,6.2034726,6.1942905,6.26317,6.2212695,6.008615,6.2004168,5.989673,5.7589168,5.7304676,5.687042,5.5591317,5.4885592,5.3515958,5.2194216,5.2074204,4.8889503,4.6791933,4.695191,4.2548262,3.8435367,3.583352,3.4234804,3.0957627,2.8579873,2.4890151,2.0928184,1.9443022,1.6129965,1.3488047,1.2384501,0.9452837,0.78571203,0.50239184,0.50659718,0.36088174,0.1818857,0.059787599,-0.097782447,-0.10112369,-0.13742595,-0.30446843,-0.47331865,-0.46728568,-1.0774946,-1.1139911,-1.1263429,-1.7825967,-1.7940217,-1.777609,-1.8744558,-1.8354631,-1.5062828,-1.2876058,-0.68106039,-0.054597878,0.25696028,0.78479244,1.537077,1.9211832,2.379935,2.8670529,2.9797104,3.2859093,3.5724841,3.793306,3.9377916,3.8246632,3.7655067,3.6693715,3.6970788,3.6426259,3.1243122,2.7043995,2.3742086,2.1388542,1.7363194,1.062765,0.51579742,0.33955559,-0.28426296,-0.68422164,-1.3347394,-1.8469066,-2.2773707,-2.9998716,-3.4966511,-4.0101037,-4.6384622,-5.2771145,-5.6734117,-6.3525558,-6.9282166,-7.4059412,-7.8426173,-8.0693724,-8.6789411,-9.235276,-9.746381,-10.013291,-10.295178,-10.61387,-11.025043,-11.004466,-11.159516,-11.570621,-11.478076,-11.516154,-11.416764,-11.347629,-11.047288,-10.948568,-10.932806,-10.716984,-10.390041,-9.8787591,-9.1899773,-9.0758308,-8.5661279,-7.7728286,-7.2430765,-6.4426831,-5.5255483,-4.9483161,-4.1092813,-3.4377939,-2.834879,-2.1051941,-1.4479868,-0.68989264,0.17337563,1.0301706,1.5504411,2.2231851,2.9814031,3.7016186,4.3055976,5.0978541,5.6814362,6.0617775,6.8265882,7.29521,7.3986346,7.9576403,8.271843,8.4506871,8.5921244,8.6356092,8.4404325,8.2203719,8.1791938,7.6923519,7.2530977,6.4020729,5.5428891,5.5652996,5.456611,4.6106667,4.2597138,4.1781267,3.8879638,3.7687988,3.5823087,3.6989296,3.8512758,3.4907607,3.3162581,3.3429743,3.189283,2.9035209,2.7134684,2.2786885,2.2416787,1.8943743,1.8307813,1.7141677,1.4089525,1.2229172,0.89742977,0.62632519,0.40908048,0.097232808,-0.10944375,-0.52939459,-0.86064939,-0.76839713,-1.033457,-1.3770704,-1.2133013,-1.5942887,-1.600034,-1.737375,-1.4847485,-1.8603994,-1.816344,-1.9681852,-1.7663444,-1.8376706,-1.9930163,-2.025138,-1.9940845,-1.9232208,-2.0017326,-1.9659142,-2.069668,-2.2386733,-2.3270939,-2.0645118,-2.4376654,-2.2415592,-2.5128078,-2.5069503,-2.4389463,-2.6197018,-2.7714672,-2.6466674,-2.5844549,-2.891812,-2.8268728,-3.0647885,-2.9510414,-3.0101626,-3.277801,-3.2822392,-3.4710881,-3.3611506,-3.3080898,-3.7000016,-3.8155621,-3.9793463,-3.9887137,-3.6052465,-3.8984859,-4.4871094,-4.8160338,-5.0203187,-4.8723088,-5.2174669,-5.426931,-5.7519914,-5.9391445,-5.8853844,-5.9831171,-6.3442407,-6.5368497,-6.8384183,-6.9397516,-7.1477957,-7.391761,-7.6861645,-7.7066892,-7.9055841,-7.8959836,-7.9729562,-8.4546385,-8.4365524,-8.3715632,-8.5161944,-8.9650974,-9.0300266,-8.905646,-9.0631999,-9.0051723,-8.8931768,-8.744275,-8.6414977,-8.6441046,-8.698447,-8.4301474,-8.0930857,-8.1239675,-7.6162094,-7.2628604,-6.677256,-6.7052221,-6.4540303,-5.8670645,-5.3871159,-5.1383441,-4.8192506,-4.7104688,-3.885429,-3.2724626,-3.147856,-2.60232,-2.4243197,-1.5918925,-1.177523,-0.99713887,-0.52575143,-0.080080748,0.26309471,1.0833782,1.1874166,1.6867292,2.1349919,2.667591,2.9576213,3.5778679,3.6811718,4.0048767,4.3520287,4.9901238,5.0006814,5.3520875,5.5399276,5.869594,5.940142,6.3558859,6.4915048,6.4455078,6.6331926,6.8370437,6.8833863,6.6793622,6.7489363,7.0478456,6.9508941,6.6844637,7.0244377,6.7757113,6.8255002,7.0531034,7.180711,7.1500508,7.351568,7.3194865,7.7546413,8.0673998,8.051698,8.3794323,8.5904949,8.7589751,9.1840844,9.3894672,9.39094,9.6676007,9.7817111,10.415133,10.519328,10.680855,10.930288,10.8414,11.015422,11.356059,11.629925,11.411451,11.671723,12.027054,11.687501,11.856751,11.966397,12.123135,11.855907,11.849857,11.782377,11.926942,11.971295,12.094041,11.773248,11.468448,11.648954,11.703117,11.457732,11.205288,11.011546,10.954412,10.907666,10.445152,10.485997,10.043207,9.1586792,8.7534141,8.4917575,7.8930973,7.1242496,6.7586273,6.9744019,6.700222,6.6095689,6.7856541,6.8020436,6.9052844,6.9276477,6.9739653,6.8783211,6.9112208,6.9191175,6.9047856,6.7253582,6.3722826,6.5937692,5.9754571,5.7059895,5.2412284,4.7974386,4.6226454,3.987018,3.5347364,3.1414694,2.2346307,1.7296415,1.3714102,0.48709921,-0.089081844,-1.0051482,-1.4607017,-2.4306048,-2.9057828,-3.6669142,-4.3918676,-4.7551228,-5.6016011,-6.193477,-6.8812657,-7.4865083,-8.419139,-8.8870972,-9.2192355,-10.12139,-10.74949,-11.203535,-11.82885,-12.290663,-12.620281,-13.142945,-13.900326,-14.079963,-14.406896,-14.715227,-15.25035,-15.424711,-15.42788,-15.693262,-15.559055,-15.552537,-15.858978,-15.352912,-15.184543,-14.970048,-14.72772,-14.393686,-14.012624,-13.549943,-12.94366,-12.76623,-11.918068,-11.265988,-10.581403,-10.068696,-9.6042262,-8.6626078,-8.1246465,-7.3642911,-6.3484302,-5.7789058,-5.1842697,-4.1933341,-3.673026,-2.8325144,-2.0402304,-1.3968137,-0.56551582,0.16280058,0.90387293,1.5747382,2.1523554,2.7090179,3.2290687,3.73611,4.2257359,4.414145,4.3750012,4.6462154,4.964392,4.7607472,4.5588699,4.2706177,4.2125902,3.8615372,3.1823076,2.7855234,2.5997928,2.3739442,2.1843223,1.9500935,2.1034329,2.2021994,2.2019051,2.6468834,2.309768,2.0729911,2.2330975,2.0622322,2.0828853,2.1691879,1.8329848,1.8223931,1.8669689,1.667011,1.7028959,1.546875,1.1716008,1.0686278,1.3619834,1.3578526,0.864543,0.76220363,0.54944425,1.0104052,0.51235224,0.51152167,0.2930945,0.31697506,0.29043813,0.26241165,0.18086345,-0.14143657,0.086141695,-0.12135471,-0.1230286,-0.26942928,-0.71869242,-0.84186244,-0.95425523,-0.93218563,-1.334088,-1.277032,-1.4050944,-1.4408859,-1.5669472,-1.6188858,-1.7128315,-1.7567479,-1.8575573,-1.7161755,-1.8345271,-1.9425369,-2.1954723,-2.0516991,-2.1608986,-2.3661768,-2.5497408,-2.6060929,-2.4736356,-2.5965448,-2.5156961,-2.6167798,-2.7565803,-2.7256503,-2.6274509,-2.6713445,-2.8004931,-2.7653841,-2.5246405,-2.5380525,-2.2726924,-2.6086573,-2.509832,-2.057674,-1.6264588,-1.4988629,-1.6512583,-1.2540211,-0.70442408,-0.66138576,-0.47205027,-0.46540554,-0.19834574,0.41691481,0.63410653,0.68282436,0.97164587,1.2630532,1.4221491,1.7764522,1.8917387,2.0508394,2.263155,2.6301111,2.6539043,2.8374575,2.8269954,3.1003064,3.1744081,3.4309538,3.8269747,4.0338669,4.1211747,4.0610473,4.5295425,4.609056,4.3850069,4.5226709,4.6188632,4.5649178,4.7007486,4.3551607,4.0013661,4.0109156,3.7436254,3.9000468,3.578774,3.0263084,3.1448036,3.0079897,2.3699993,2.2742218,1.7039474,1.4763488,1.2533456,0.89796222,0.3730881,0.087922653,-0.20931052,-0.52813116,-0.77153227,-0.71056891,-1.1154912,-1.2251154,-1.5319106,-1.4144245,-1.7039236,-2.0421841,-2.2829914,-1.9400109,-2.2248515,-2.684045,-2.8196035,-3.2478884,-2.9359974,-3.0315345,-3.1957181,-3.5622316,-3.6686752,-3.554377,-3.6025894,-3.5635633,-3.7931364,-3.7688716,-3.5655335,-3.1231033,-3.1919983,-3.225738,-2.8722428,-2.4464932,-2.5818705,-2.4724493,-2.3886842,-2.3868928,-1.8951119,-1.8588142,-1.6853048,-1.9453287,-1.6446641,-1.5198085,-1.2083289,-1.3469044,-1.0035908,-1.1636471,-0.9975999,-0.44803157,-0.59693942,-0.72756764,-0.58247966,-0.35620992,-0.15276995,-0.30919627,-0.086754655,-0.13586738,-0.0014400708,-0.24608394,-0.056831809,-0.019183557,-0.040957151,-0.030611959,0.3092183,0.20839282,0.25100412,0.25430563,0.13896032,0.4847503,0.48852484,0.430394,0.23661893,0.39940037,0.54630729,0.56232752,0.42747565,0.24982495,0.27736969,0.48917504,0.62913316,0.85034049,0.68574486,1.1027333,1.2944817,1.3828238,1.4478378,1.5516768,1.8137251,2.0545845,2.1806076,2.1398146,2.2079541,2.4476461,3.0835878,3.0533635,3.4498333,3.6547461,3.7490281,4.3224318,4.5418469,4.4670122,4.4957476,4.4375453,4.6362039,4.5152844,4.0704472,3.5593658,3.1780622,3.1736197,2.8802116,2.5085309,2.348502,2.5741859,2.7940008,3.0983073,2.767974,2.9057968,2.9159642,2.959593,2.8264105,2.5027607,2.3489692,2.0169602,1.4149012,1.314114,0.73065446,0.024842756,-0.31894963,-0.99661902,-1.6853617,-2.4934531,-3.1283154,-3.9009831,-4.2565248,-4.6132649,-5.378143,-6.2463232,-6.4683727,-7.004634,-7.5007702,-8.1245861,-8.8282924,-9.5099669,-10.032277,-10.299077,-10.810237,-11.31325,-11.520083,-11.798951,-11.919101,-12.24547,-12.357369,-12.738651,-12.460848,-12.513825,-12.46458,-12.714959,-12.520846,-12.141182,-11.959445,-11.516489,-11.129531,-10.928438,-10.630948,-9.8068832,-9.097444,-8.7280486,-8.0759488,-7.4358602,-6.3391593,-5.4408618,-4.947926,-4.1700443,-3.1082913,-2.1600834,-1.2375709,-0.66759008,-0.056645922,0.96933405,1.4282431,2.4107328,3.234073,3.5605708,4.2695967,5.0279903,5.803632,6.1975253,6.8581063,7.308832,8.0278865,8.6294111,8.6675411,9.1731239,9.3449761,9.8921035,10.119094,10.170337,10.139634,10.551199,10.562709,10.574999,10.631952,10.341158,10.349488,10.314926,10.17456,9.7189481,9.4453136,9.2717347,8.7486009,8.4093208,7.6782256,7.2279432,6.3668911,5.6590921,5.0276221,4.3382977,3.8861853,3.5105631,3.1435221,3.3284496,3.35601,2.9491738,3.0311716,3.0968971,2.9358957,2.9888621,2.2806477,2.3884663,2.4808264,2.4935878,2.358519,2.197874,2.1613205,2.6035713,2.3623383,2.2102264,2.3521739,2.2363922,2.6284756,2.9781448,2.9772813,3.2527944,3.4069842,3.8647221,3.978191,4.064624,4.3678258,4.0184286,4.3390357,4.4287007,4.5646864,4.4801162,4.4237121,4.5788474,5.0932624,4.9026164,4.85183,4.645787,4.6192823,4.7843618,4.7063949,4.3821434,4.2238901,4.0039024,4.3588623,3.968334,3.7113071,3.5707491,3.4928883,3.682464,3.534601,3.0808883,2.7595989,2.9956157,2.8531853,2.3748175,2.2370447,1.864939,2.0554006,1.7972744,1.6047145,1.4667288,1.1061506,0.87185421,0.83172595,0.60056253,0.40451505,0.25377338,0.029953232,0.31071974,0.51041853,-0.12355229,-0.16225092,-0.065744738,0.17063888,0.21575483,0.26785679,-0.0028206242,0.06664408,0.58062848,0.72603721,0.45090317,0.34408567,0.55419517,0.64852935,0.76333204,0.47246251,0.40015915,0.24513759,0.24177058,0.38071675,-0.10790174,0.004129483,-0.35541341,-0.2163928,0.43213227,0.13876497,-0.18567241,-0.56465126,-0.1129988,-0.068553149,-0.16748926,-0.72828463,-0.90470256,-0.72473896,-0.68343867,-1.1323452,-1.289144,-1.6068097,-1.5121409,-1.7035233,-2.1194971,-2.3292202,-2.7315192,-2.6407766,-2.5256056,-2.767967,-2.6890927,-2.8856314,-2.9338653,-2.9150108,-2.8481266,-3.2243109,-3.1996581,-3.2974318,-3.0020922,-2.799785,-3.066236,-3.1951953,-3.1395218,-2.6727187,-2.7525296,-3.1898175,-3.131362,-3.1649089,-2.6383954,-2.8677136,-3.1691172,-2.9885385,-2.9637088,-2.6555669,-2.6801716,-2.746737,-2.8329123,-2.5940549,-2.6839694,-2.3132682,-2.5516797,-2.7080893,-2.5308177,-2.3834086,-2.1391298,-2.4115982,-2.595221,-2.3352212,-2.3062057,-1.8491379,-2.4716377,-2.4726227,-2.2231892,-2.3492223,-2.2219893,-2.4157889,-2.585971,-2.5146538,-2.1839284,-1.9718619,-2.4402489,-2.6067432,-2.9017875,-2.5704938,-2.6725669,-3.082826,-3.4639505,-3.4969414,-3.2633185,-3.4470329,-3.6829293,-4.1467865,-4.2959912,-3.9267309,-4.1777552,-4.4746092,-4.8486028,-5.1020199,-4.9002818,-5.1044156,-5.6944823,-5.9745606,-5.9749681,-5.9445483,-6.1564113,-6.2420205,-6.7890607,-6.7512746,-6.92051,-6.9053706,-7.0046028,-7.176365,-7.467324,-7.1049615,-6.8920982,-6.7757181,-7.2752585,-6.9944137,-6.260229,-6.4658854,-6.2991761,-6.5070418,-6.2421117,-5.7347923,-5.32783,-5.4762858,-5.5202199,-5.0461181,-4.8112769,-4.5666648,-3.9896305,-4.1778492,-3.8622934,-3.353643,-2.983381,-2.4365004,-2.8998919,-2.7575761,-2.2914244,-1.6785569,-1.446745,-1.2817616,-0.99961178,0.25804865,1.4664476,2.2764847,2.9554568,3.4333784,4.4701308,5.3252523,6.0184216,6.1806947,6.5845483,7.4821896,7.9596122,8.409102,8.4113209,8.4552137,9.0044804,9.3549228,9.4432548,9.1987886,8.6081055,8.7461482,8.8980385,8.5771165,7.724221,7.2710631,7.1056919,6.9845083,6.2606641,5.6302646,5.0556181,4.3845817,4.1537063,3.5452144,2.9499656,1.9601158,1.4794496,1.1184614,0.38961075,-0.24868245,-1.3031209,-1.5296654,-1.7285376,-2.1120485,-2.7412724,-3.4768834,-3.9544797,-4.3518167,-4.5954451,-5.0422108,-5.79427,-5.7449855,-5.7620446,-5.8635781,-6.3597014,-6.451145,-6.6167013,-6.5036349,-6.1291445,-6.4058436,-6.7862071,-6.2337244,-6.2611882,-6.0814811,-5.9947948,-6.0503096,-5.8966547,-5.5063707,-4.792276,-4.5459677,-4.4920049,-3.9758173,-3.2761538,-2.7599495,-2.3336017,-2.2594147,-1.9975956,-0.88448368,-0.34568977,0.28112097,0.51404117,0.82310165,1.8622049,2.4865136,2.8113798,3.0981096,3.6214977,4.3793499,5.0421392,5.2362829,5.5860019,6.0745893,6.3871447,6.8209192,7.0586656,6.9478011,6.917076,7.1053597,7.7205958,6.9555216,6.6328369,5.9217549,5.8569077,5.571687,4.8786712,4.5867978,4.4146637,4.4982815,4.4190289,4.477798,4.2498243,4.5797166,4.5085174,4.69012,4.7834358,4.289248,4.0667583,4.1538046,4.5038958,4.4016331,4.1827277,3.9646689,4.1872979,4.2915151,4.3153483,3.9605796,3.932225,3.8924521,3.7273844,3.7192365,3.4429238,3.3566454,3.2686135,3.4208491,3.1957497,3.0975711,2.8088864,2.447083,2.880219,3.0070571,2.4531804,2.2532588,2.5221442,2.842149,2.7629072,2.3544505,2.2867044,2.3637349,2.6583951,2.5755881,2.558764,2.5708004,2.391054,2.8727833,2.7465789,2.5666205,2.2255578,2.5043795,2.6824533,3.0955064,2.6855389,2.6966159,2.4051515,2.7434166,2.878889,2.9657797,2.4779845,2.6369449,3.023879,2.9011046,2.7369341,2.6118321,2.3832252,2.656807,2.8754814,2.4394842,2.3109925,2.3967303,2.4596119,2.3024021,2.2495328,1.8181151,1.6263537,1.6098225,1.5438942,1.0835326,0.7633053,0.70332272,0.46048049,0.83789258,0.24552466,-0.25186179,-0.028241989,-0.19171294,-0.034379582,-0.19696382,-0.38039775,-0.40629609,-0.56170929,-0.15051028,-0.44976673,-0.84307672,-0.87468017,-0.61540197,-0.58884921,-0.6125723,-0.77352759,-1.2018091,-0.90323247,-0.95447635,-0.8585577,-1.3737272,-1.4134682,-1.4764887,-1.1379785,-1.1770718,-1.5907549,-1.9399448,-1.7106007,-1.4523997,-1.7577832,-1.673269,-2.0206736,-1.7788992,-1.348119,-1.8970491,-2.0020331,-1.6775879,-1.5803474,-1.3470446,-1.3549771,-1.6024985,-1.3483366,-1.4813051,-1.1812056,-1.1651989,-1.3284513,-1.5692155,-1.4933783,-1.1942627,-0.91343192,-1.2164397,-1.3630425,-1.2931794,-1.2100079,-1.0365956,-1.3831264,-1.8524897,-1.3125049,-1.377496,-1.3515655,-1.5383482,-1.9853052,-1.8140773,-1.8921624,-1.5583767,-1.9549679,-2.3890468,-2.1833525,-2.2003627,-2.0504411,-2.5783176,-3.1254939,-3.0937543,-2.834305,-2.8110092,-3.3465444,-3.5952427,-3.5307803,-3.333945,-3.5753094,-3.8348693,-4.276267,-4.2629861,-4.0167019,-4.1956786,-4.350906,-4.8458815,-4.894068,-4.8895377,-4.5935583,-5.1625115,-5.2589823,-5.4151701,-5.2081966,-5.0658766,-5.0969268,-5.8055963,-5.8353447,-5.4995725,-5.4834764,-5.7842947,-6.2713063,-6.172486,-6.0937496,-5.9031714,-6.081573,-6.1585137,-6.256183,-5.8671527,-5.6587799,-5.4416584,-5.6201905,-5.4938062,-5.1593649,-4.5874259,-4.2173755,-4.4826063,-4.3282872,-3.8794817,-3.7657982,-3.3187688,-3.3484826,-3.3433516,-3.0416122,-2.3615747,-2.3160434,-2.0989294,-2.2282341,-1.7341614,-1.3566891,-1.2478463,-1.5244949,-1.3177858,-1.0229737,-0.66371161,-0.49563783,-0.63531223,-0.34135012,-0.4414763,0.061360998,0.50628108,0.25229131,0.28021569,0.69928571,1.1729067,1.5311047,1.3334728,1.2288039,1.691142,2.2074858,2.5448133,2.2711955,2.0083093,1.7776896,2.1455887,2.1079514,1.7722103,1.8208159,2.2636694,2.6472128,3.0875497,3.4520272,3.8094967,4.4330928,5.2039473,5.6418033,5.8633509,6.0649123,6.1154405,6.8339234,7.121713,7.2198108,7.074317,7.1900997,7.6062266,7.6332468,7.398283,7.021664,6.7272254,6.8589516,6.5396425,6.1791507,5.9150394,5.5471886,5.328455,5.2646368,4.7944758,4.2443707,3.6674576,3.5151072,3.0125978,2.2854042,1.6154283,0.8870199,0.4488315,0.27293103,-0.59193001,-1.1054817,-1.5796094,-1.8213125,-2.3648674,-2.7713578,-3.3326643,-3.8562247,-3.9612475,-4.080769,-4.580821,-4.9170796,-5.2451112,-5.4916451,-5.352751,-5.5273825,-5.7490173,-6.3123061,-5.6723031,-5.7673985,-5.6933245,-6.0894103,-5.9065789,-5.3492826,-4.9020799,-4.8593284,-4.5849138,-4.3773801,-3.552251,-3.3308984,-2.9958194,-2.7238364,-2.4926254,-1.6424231,-0.7965751,-0.6980153,-0.39933985,0.082233878,0.99022551,1.4014657,1.9537059,1.8106963,2.5068629,3.083018,3.7144901,4.0116113,4.3416079,4.7544932,5.3484771,5.9355395,6.2410667,6.3973643,6.5732462,7.2225135,7.6630619,7.8956201,7.6036363,7.728929,7.8478209,8.0372191,7.9413115,7.6496829,6.9684136,6.816094,6.497009,5.9300498,5.0350439,4.046238,4.1927847,3.9657281,3.7464578,3.3886738,3.2183134,3.0500607,3.5247344,3.5698127,3.2875949,2.8108755,2.7342617,2.8480511,2.9177718,2.3006411,1.9128568,2.0214988,1.9940822,1.8570727,1.3492189,1.2460335,0.88098356,1.0761175,0.82172889,0.35243857,-0.04607011,-0.40824755,-0.3019005,-0.41215953,-1.0543854,-1.5597591,-1.6396729,-1.6823802,-1.8904185,-2.4462287,-3.1993392,-3.332539,-3.7671659,-3.7674668,-4.0664907,-4.5697184,-4.6825452,-4.6828925,-4.557434,-4.6906561,-5.0636575,-5.2013599,-5.1194854,-4.7751765,-4.9452701,-5.2021904,-5.2410967,-4.6102824,-4.4276935,-4.655143,-4.5757954,-4.8113025,-4.3662094,-4.0410301,-4.1299927,-4.2584958,-4.1273079,-4.3234692,-3.7137341,-3.6064885,-3.6692034,-3.519041,-3.2532802,-2.9851604,-2.8753337,-2.9885574,-2.9772668,-2.7940595,-1.9054766,-2.118012,-2.3113091,-2.1689392,-2.1368382,-1.8677942,-1.5841229,-1.5811888,-1.7697156,-1.6309586,-1.0345573,-1.1053265,-1.3083551,-1.5062708,-1.4747103,-1.1222541,-1.1821528,-1.2101426,-1.9265148,-1.4543887,-1.4348705,-1.5400786,-1.7167441,-2.3540128,-2.3160355,-2.2839714,-2.4114479,-2.6493475,-2.9953819,-2.9090295,-3.1202937,-2.892819,-3.3262756,-3.4164703,-3.5051422,-3.5168103,-3.6224343,-3.7897029,-3.8590457,-3.7694864,-3.7482174,-3.577347,-3.5846065,-4.0217561,-3.714515,-3.3087464,-3.2167368,-3.4171313,-3.3243514,-3.1974302,-2.9433839,-2.944149,-2.8634639,-2.6551013,-2.5749227,-2.0340891,-1.566821,-1.7408943,-1.8040691,-1.5039956,-1.11078,-0.97743128,-1.1621053,-1.2977429,-0.92145423,-0.83352265,-0.87430987,-0.80760706,-1.1570077,-0.77882711,-0.48673247,-0.37010626,-0.22832638,0.013919971,-0.24610506,0.52159422,0.87748814,1.1998693,1.2324811,1.2614458,2.0379075,2.1522234,2.4389879,2.3082625,2.5603236,3.2132224,3.461046,3.9474683,3.5956267,4.0262359,4.1622796,4.5449119,4.9723891,4.5501648,4.9470867,5.0918216,5.6695582,5.5056997,5.3941249,5.4874272,6.0234622,6.3687244,6.095738,6.0832698,6.0976358,6.2066577,6.7071711,6.9664969,6.6121495,6.7881012,6.9884553,7.1974289,7.5449843,7.279087,7.4532138,7.7596461,8.1158257,8.2377957,7.9191666,7.8112649,8.0069262,8.1410621,7.8442238,7.8672814,7.6761894,7.6144454,7.8135746,7.8225465,7.0923127,7.2485626,6.7021431,6.8255855,6.7462259,5.9423,6.0090377,5.6352169,5.507589,4.9395005,4.2709304,4.0432949,3.6783101,3.8845474,3.3985289,3.6554819,3.4816273,3.8742881,4.2182593,4.582805,4.7892638,4.7481687,4.8888882,5.2216387,5.6578941,5.6227248,5.493565,5.4315598,5.6001792,5.623576,5.3651039,4.7336448,4.8971838,4.75055,4.6587439,4.0838045,3.6069021,3.4436228,3.2076383,2.6737336,2.3221104,1.7416757,1.03211,0.69768428,-0.11531873,-0.69155364,-1.3831179,-2.3332093,-2.728125,-3.0866835,-3.9828601,-4.3898475,-5.2936469,-5.4818873,-5.6024722,-6.6286664,-7.249416,-7.5564802,-7.6467724,-8.1612728,-8.5758967,-9.3054896,-9.3648798,-9.6554514,-9.5471402,-9.733789,-10.026677,-10.268039,-10.349509,-10.104977,-10.455552,-10.401739,-10.505842,-10.110684,-9.849123,-10.11426,-9.9001641,-9.9200349,-9.0964532,-9.0919366,-8.6483246,-8.6608315,-8.2317711,-7.9657916,-7.5342627,-6.8953934,-6.5415084,-6.2056049,-5.3251753,-4.7196477,-4.3482163,-3.7745624,-3.2283211,-2.3319724,-1.5712382,-1.27647,-0.55530412,-0.21845437,0.62410051,1.3294107,1.762163,2.0848365,2.5635194,3.1310192,3.5899906,4.2806148,4.2604259,4.5928743,4.9077116,5.2101214,5.1427719,5.053269,4.8589443,4.6877714,4.8393698,4.3812392,4.1280978,3.1066,2.9712636,2.5162989,2.3263946,2.1233621,1.8522099,1.7734359,1.7454721,2.224306,1.8066543,1.7728181,1.5545412,1.9389851,1.9635927,1.8094038,1.5359479,1.4502281,2.0761051,1.6368832,1.3387076,1.3262208,1.0908137,1.4107981,1.1396898,1.100217,1.1199159,0.79349146,1.0238195,1.055363,1.1606612,0.89378902,0.76944221,0.71036743,0.87026537,0.5947104,0.19781614,0.046207576,0.1227713,0.25466888,0.14216283,-0.32840533,-0.39131703,-0.41279426,-0.59754804,-0.45823043,-1.0494065,-0.84653792,-0.98006919,-1.0337486,-0.95843522,-1.2184009,-1.3422602,-1.4537665,-1.0823102,-1.405032,-1.6180259,-1.806061,-1.749499,-1.4387385,-2.0488081,-2.2607659,-2.352811,-2.279957,-2.6115184,-2.5966528,-2.8930925,-3.0428561,-3.1467998,-3.1647026,-3.1197087,-3.6478865,-3.9124947,-4.0603039,-4.0589236,-4.3524381,-4.6818298,-4.9313239,-4.932694,-4.7454452,-4.8528868,-5.0997501,-5.3629298,-5.4826891,-5.3123715,-5.4192284,-5.4423196,-5.7489753,-5.8956878,-5.752764,-5.6016363,-5.8247251,-6.1718744,-6.1957268,-5.9868313,-6.0947084,-6.4080079,-6.5396925,-6.7254235,-6.4485999,-6.3397531,-6.704143,-6.8438395,-6.7634464,-6.8570841,-6.3434206,-6.4741843,-7.0116777,-6.3501498,-6.2219887,-6.2689398,-6.190838,-6.5095403,-6.4844528,-6.0875049,-6.0627717,-5.7768854,-6.268942,-5.8545961,-5.3739061,-5.2703196,-5.2221315,-5.2850016,-4.8608584,-4.4375257,-4.0336169,-4.144906,-3.8808673,-3.6600409,-3.4159378,-2.7508491,-2.4635575,-2.6696275,-1.9686347,-1.9719386,-1.0457544,-0.95692197,-0.89757358,-0.67744905,-0.29672954,0.25850087,0.42053578,0.18856439,0.59842114,1.326535,1.7776996,2.1068164,2.1354484,2.7184761,3.0679479,3.5173355,3.86938,4.1047519,4.4424351,5.0103398,5.4068573,5.6377492,6.0408982,5.7666163,6.5405018,6.8097757,6.8557354,7.0182255,7.0467419,7.3635652,7.6763767,7.8184793,7.8578459,7.5716759,7.9794605,7.9980375,8.2276699,7.9143648,7.9423994,7.9481424,8.440026,8.4912067,8.1979044,8.0494574,8.0958362,8.3533867,8.2536318,8.2532597,8.0749001,8.2180637,8.6415055,8.644434,8.5184304,8.2845927,8.6113572,8.5329729,8.696697,8.5011829,8.276299,8.6362474,8.8516206,9.0865984,8.6078979,8.5041261,8.9172528,8.856501,8.9973126,8.725243,8.7447901,8.4988754,8.8653694,8.8433673,8.5587604,8.4604263,8.6041247,8.6876708,8.5091052,8.7245339,8.4475809,8.4298347,8.7022574,8.4749464,8.1180164,8.0408409,7.3293487,7.1746429,7.0295453,6.4615921,6.4449026,6.0790572,6.0967261,6.6017743,6.4911294,6.6001367,6.9073349,7.1613606,7.612743,7.4509176,7.4171754,7.4730167,7.6164184,7.4892057,7.5091566,7.1003043,7.1554257,6.993209,7.0728097,6.4109061,6.0164479,5.2647082,5.150602,4.7029488,4.1075407,3.2115305,2.7973199,2.2125646,1.8894668,1.1914648,0.53520639,-0.01046081,-0.3233887,-0.70136632,-1.3083536,-1.886046,-2.49999,-2.8048102,-2.935375,-3.7229679,-4.3620335,-5.02821,-5.6647627,-5.8523755,-6.5018718,-7.2272136,-7.5152829,-8.3625085,-8.5826548,-8.7860892,-9.4211674,-9.8787226,-10.249482,-10.304349,-10.714341,-11.331513,-11.340641,-11.440251,-11.506992,-11.682767,-11.69776,-11.933292,-11.728456,-11.733801,-11.528284,-11.464377,-11.183149,-11.17272,-10.496938,-10.173144,-10.132371,-9.6703038,-9.2993866,-8.8332655,-8.6269768,-8.0450535,-7.5989157,-7.2838125,-6.2764743,-5.8880563,-5.5026788,-4.7708364,-4.1995489,-3.7840828,-3.2257537,-2.4363059,-2.3465688,-1.8127033,-0.93404248,-0.49459073,-0.23723342,0.022567859,0.72974598,0.67645884,0.94744552,1.3446903,1.1481474,1.3430545,1.4411699,1.7238745,1.0833758,0.6672903,0.47183368,0.21442226,-0.33592215,-0.79837375,-1.5701031,-1.8403124,-1.7481551,-1.8396083,-1.8872509,-2.3083572,-1.9514835,-1.8551845,-1.7536227,-1.6495229,-1.5137224,-2.0512096,-1.5898031,-1.8778615,-1.615079,-1.7991515,-1.7829502,-1.8631158,-1.5617498,-1.8033181,-1.7123049,-2.0660818,-2.0661569,-2.1073858,-2.2521012,-2.2522163,-2.4016707,-2.2247596,-2.2589703,-2.6500778,-2.5755626,-2.8658817,-2.3388074,-2.3923183,-2.3707598,-2.0903555,-2.083945,-1.9464747,-1.6583643,-1.6179595,-1.521583,-1.6558068,-1.8150447,-1.5775271,-1.4176536,-1.6165805,-1.447409,-1.2910198,-0.89931767,-0.81412636,-0.77516313,-0.85230501,-0.22204936,-0.11182365,-0.061879651,0.062725051,0.057732552,0.39424912,0.44635271,0.68372999,0.49585029,0.54288304,0.30942005,0.55169784,0.62685782,0.59528526,0.58059848,0.67370043,0.99096251,1.0714648,0.90589026,0.72843869,1.0111101,1.0661383,0.8907172,0.99226132,0.99864818,0.79469195,0.83020984,1.1126199,0.96133319,0.68020597,0.67326311,0.62761633,1.1168833,0.91325658,0.69166415,0.60988434,0.9711776,0.97890412,0.75170299,0.99599422,0.76683795,0.70766389,0.8871617,0.68616887,0.47444668,0.36759213,0.14572443,0.20947415,-0.027852163,-0.16374684,-0.17147145,-0.43378441,-0.39707801,-0.37451729,-0.40979516,-0.70126847,-0.55782147,-0.52789144,-0.28659796,-0.37913998,-0.11765424,-0.29467193,-0.12429929,-0.067113468,0.16354223,-0.045520128,0.35129021,0.78771498,0.59739409,0.39132011,0.86611502,0.76775979,1.1258582,1.0768146,1.1454193,0.89641423,0.8790967,1.1820876,1.169137,1.0544191,0.79940446,0.96597943,1.2121276,1.2586417,0.89830675,1.0378051,0.80610648,0.86850318,1.1684485,1.1842228,0.83545835,0.87481145,0.998668,1.122437,0.66490353,0.87038908,0.60191625,0.42172605,0.53416727,-0.018967533,-0.16661925,0.2859002,0.32185852,0.35774,0.44384248,0.37331009,0.63067938,0.37782701,0.82561852,0.7166109,0.69966056,0.50190735,0.9239745,0.88544287,0.90269476,0.61745956,0.63294231,0.94778127,1.031315,1.0258993,0.7903873,1.0430389,1.2854468,1.4713287,1.3145341,1.2357917,1.389901,1.1786563,1.0985817,1.1714318,0.91948234,0.88783463,0.68733703,0.9651175,0.65381925,0.18740513,0.34213066,0.2842619,0.1314302,-0.12368132,-0.17919107,-0.10239542,-0.17795927,-0.6434507,-0.50404862,-0.65259363,-0.70940353,-0.57373939,-0.59603381,-0.59442856,-0.85421943,-0.65764339,-0.91545708,-0.92039355,-1.0664847,-1.4393523,-1.6826646,-1.4246617,-1.2674046,-1.2914265,-1.2396647,-1.2938035,-1.0310115,-0.97892971,-0.59077124,-1.1220119,-0.48611352,-0.43064252,-0.17151688,-0.30197577,0.114347,0.020804788,0.15465327,0.49223797,0.073946354,-0.042493655,-0.080392605,0.025032633,0.14623302,0.30764401,0.71704809,0.84361249,1.6357691,2.3570631,2.6462237,3.1034679,3.4732424,4.1842876,4.8713936,5.25279,5.3594759,5.8633807,6.4937245,6.4354523,6.9367485,6.9196237,6.7385434,6.9683849,7.0780318,7.1801211,6.322933,6.5969289,6.4632789,6.0937029,5.4094451,5.347388,4.5535681,3.9350573,3.834392,3.3211096,2.730953,2.2317812,1.6212881,0.93753365,0.56339718,-0.032117652,-0.75340244,-1.2657446,-1.5189797,-2.2986096,-2.9183246,-3.4577702,-3.7418008,-4.5039167,-4.4349216,-5.1283179,-5.5119275,-5.8167134,-6.1308132,-6.3347022,-6.8495609,-7.1386899,-7.299454,-7.3530226,-7.4942181,-7.8264857,-8.0488507,-8.3467894,-7.9977934,-7.9308452,-7.8903032,-8.21462,-8.0328174,-7.8122819,-7.6752365,-7.5706373,-7.3886187,-7.601446,-7.3861779,-6.8926535,-6.5275545,-6.3800483,-6.1623596,-5.4609889,-4.4766613,-4.5743614,-4.0722552,-3.4217471,-2.9091921,-2.2788773,-1.7420654,-1.3938145,-1.255812,-0.046362238,0.021403605,0.46893647,1.0665406,1.651812,1.9587451,3.0797691,3.0795227,3.5906269,3.6737331,4.2166256,4.7785168,4.6887144,5.3056433,4.8151734,4.9727812,5.096813,4.8941128,4.2502447,3.851542,3.7413188,3.2345679,3.0516625,2.9466592,2.4551515,2.5020724,2.8003405,2.9057446,2.8566008,2.9454671,3.0650405,2.8153044,3.2577805,2.7487823,2.7109736,3.1575253,2.7369431,3.1027317,2.8389295,2.9727045,2.8043444,3.1400252,3.167904,2.9810311,3.0610806,3.0207818,3.3904804,3.3353339,3.6057478,3.4952371,3.0805842,3.3777582,3.6440429,3.2264532,3.1386387,3.4690136,3.2418858,3.1273896,2.9872329,2.8123995,2.5618471,2.8686424,2.722511,2.5739385,2.263246,2.2479529,2.2034542,2.2200635,1.7588621,1.5473205,1.2286372,1.303679,1.0414205,0.68437158,0.66123194,0.23268914,0.27272644,-0.012008806,-0.051395444,-0.44963855,-0.76168452,-0.87775176,-1.0390146,-1.026969,-1.5897546,-1.7431349,-1.6650846,-1.8119979,-2.2288702,-2.2064589,-2.7516648,-2.7702854,-2.8829617,-3.026375,-3.5464045,-3.7862388,-3.5870665,-3.8394725,-4.0271043,-4.4622414,-4.6630208,-4.8059038,-4.9426302,-4.7236383,-5.0670258,-5.5494724,-5.559869,-5.6862738,-6.0535018,-6.473249,-6.7436493,-7.2599519,-7.2241833,-7.2710143,-7.4508284,-8.0063031,-7.5896882,-7.9567721,-7.7432951,-8.051939,-8.1362138,-7.7315181,-7.9169959,-7.7437615,-8.1322646,-8.0161479,-7.782072,-7.6598605,-7.7312538,-7.4555484,-7.6217151,-7.7569519,-7.2966419,-7.1149166,-7.2792386,-7.1706336,-6.8309905,-6.7033363,-6.2925885,-6.3156306,-6.0551408,-6.0201528,-5.3257809,-5.2499294,-4.8009407,-4.6190207,-4.2519065,-3.6032886,-3.4853093,-2.9677535,-2.848881,-2.4085864,-1.8985343,-1.5284832,-1.0154095,-0.59569353,0.081662652,0.35420743,0.72828059,1.2041702,1.2715261,1.8165378,2.1853312,2.7804074,3.2311534,3.3813443,3.7522921,4.2591417,4.701175,5.1242135,5.3464923,5.4781235,6.0628954,6.4031796,6.4898731,6.7468587,6.6680362,6.9026819,7.0004087,7.2776762,7.0801118,6.9991183,7.2542674,7.2894256,7.3807669,6.8295474,7.0119227,6.738464,6.9936132,6.7819911,6.4325089,6.4734129,6.3818661,6.6351347,6.3448721,6.329128,6.4655097,6.1097144,6.3007963,6.0967441,5.979245,6.1673077,6.2263204,6.0415915,6.1040117,6.0938952,6.3037254,5.9038046,6.6352345,6.4197454,6.6916687,6.7376912,7.310088,6.8566636,7.0656214,7.0843977,7.1882777,6.9215328,7.446904,7.1505349,7.1931728,7.0571205,7.139607,7.1834235,7.3732164,7.1053475,7.1631281,7.0527684,6.1596625,6.2485099,5.9242794,5.6727203,5.442816,6.2765703,6.4077482,6.662186,6.8413817,6.9430439,7.5497716,7.5375422,7.9638585,7.7804728,8.1583182,8.1252297,8.3393646,7.8830837,8.2282116,7.8412471,8.0121021,7.7409098,7.5579313,7.2259193,6.7957061,6.7576335,6.3434184,5.9205875,5.4445115,4.9547315,4.3801753,4.2919038,3.2665422,2.684074,2.2509262,1.725569,0.88850002,0.53069818,-0.42374273,-1.026519,-1.5584878,-2.1153464,-2.6921284,-3.5237505,-3.9073479,-4.467451,-5.0057272,-5.5670044,-6.2068628,-6.6628569,-6.8378675,-7.4906986,-7.9201166,-8.3088141,-8.6167597,-9.1545582,-9.1620341,-9.4869157,-9.6116222,-10.086097,-10.102281,-10.108604,-10.163326,-10.54094,-10.629039,-10.52195,-10.317817,-10.651764,-10.502041,-10.327938,-10.07265,-9.8390849,-9.726158,-9.3369193,-9.247401,-8.9030917,-8.783687,-8.2591214,-8.0254454,-7.6605703,-7.2819715,-6.8350761,-5.9782756,-5.8454983,-5.3699511,-5.0097005,-3.9834223,-3.6343568,-3.2927838,-2.8267091,-2.0946953,-1.781097,-1.2903747,-0.79560742,-0.41558743,-0.25286161,0.37004219,0.73898045,0.9390171,1.0395796,1.2330331,1.113611,1.5618909,1.2138501,1.0990761,0.81963212,0.75251456,0.56894136,-0.23869718,-0.80451008,-1.2956256,-0.79508152,-0.89322414,-0.88141571,-0.54749513,-0.24388125,-0.41313383,-0.25704797,-0.079916879,-0.055760014,0.13921295,0.13918678,0.42360677,0.13177464,0.31945232,0.083109758,0.14718265,-0.0081182597,0.37202001,-0.11290173,0.27003692,-0.09553283,0.22982489,-0.061793269,0.079107123,-0.17421341,-0.090047972,0.19427249,0.097430381,-0.043460721,-0.25200985,0.18585508,-0.17232093,0.15307325,-0.094394319,-0.1051222,-0.0098926253,0.28101032,0.16176537,0.22914194,-0.049208851,0.098529838,0.26338559,-0.12494422,0.11321278,-0.29541098,-0.16524712,-0.3205986,-0.35242918,-0.68637228,-0.8987992,-1.1564046,-1.2565955,-1.1738321,-2.0412819,-1.8118868,-1.9457384,-2.0390788,-1.8180507,-2.5837132,-2.4035459,-2.5366396,-2.6074338,-2.7467615,-2.8039179,-2.8233189,-3.0916586,-3.0561528,-2.8248024,-3.1050002,-3.2132773,-3.0494985,-3.3550236,-3.2909024,-3.2753229,-3.4909318,-3.3667875,-3.1957132,-3.157118,-2.9906602,-3.2744551,-2.9658241,-2.6631676,-2.9154626,-2.7851748,-2.7707397,-2.8110576,-2.5781323,-2.3860462,-2.3989859,-2.8028062,-2.4564601,-2.5069722,-2.2876873,-2.3610375,-2.4301108,-2.6447435,-2.3003812,-2.4172866,-2.4938196,-2.7118086,-2.5814563,-2.4460605,-2.6739473,-2.6375966,-2.9557644,-2.9132368,-2.6766057,-3.1950573,-2.6432128,-2.9524006,-3.0191165,-2.7842166,-2.8045254,-2.7563459,-2.6640056,-2.7816301,-2.2755937,-1.9925599,-2.2558425,-1.774956,-1.7961982,-1.8021526,-1.290924,-1.3476864,-1.2954641,-1.3126945,-1.1647303,-0.79678148,-0.88027736,-0.92399248,-1.2442529,-0.8627592,-0.9838345,-0.73760332,-0.9725346,-0.5605371,-0.47673093,-0.32505437,-0.24568526,0.018699896,0.19387513,0.42618391,0.81233053,0.93843308,1.4086416,1.5264382,1.9800514,2.4308964,2.6623419,2.8272283,2.927888,3.4646911,3.4024646,4.1058857,3.5832266,4.0109843,3.9442312,4.1310203,4.4600208,4.0386416,4.2234357,4.1631599,4.5738418,4.3914104,4.7570549,4.4689636,4.8383713,4.9182632,4.8370507,5.0799478,4.8284181,4.9238578,4.8717729,5.1538212,4.9449578,4.7252655,5.0492999,4.8570366,5.0304746,5.1316269,4.8289889,5.0607012,5.0986121,5.4817464,5.1987882,5.2734878,5.1684585,5.6348179,5.6480842,5.5480911,5.2500244,5.518916,5.2885834,5.8005875,5.6265562,5.2930124,5.8232295,5.5024087,5.6225724,5.6559523,5.6150575,5.2634635,5.5331004,5.7712657,5.5015716,5.1083342,5.4022895,5.4446373,5.6122107,5.2253758,5.140826,4.9249435,5.0244882,4.722999,4.7493336,4.4278091,4.324809,4.3957907,4.2309414,3.5054346,3.4279015,3.1231185,2.807354,3.0639679,2.9472287,2.8107352,3.1434889,3.2703331,3.8212929,4.8296429,4.3426036,5.1029084,5.4579511,6.2338481,5.9988111,6.7600572,6.3268419,6.9637993,7.0442865,6.8266807,6.9543035,6.7725555,6.7051716,6.5706128,6.6405131,6.089396,5.739183,5.4069396,5.1125872,4.8180975,4.3301674,3.7954749,2.9797618,2.6528739,2.1291192,1.1821291,0.6529534,-0.1977811,-0.7425367,-1.3944804,-2.5902148,-3.0643874,-4.1351929,-4.3368449,-5.222537,-5.690877,-6.7915827,-7.3428969,-7.6593974,-8.3815858,-8.8778783,-9.5593897,-10.102585,-10.496186,-10.950088,-11.362656,-12.012078,-12.487833,-12.711318,-13.10335,-13.30732,-13.745337,-14.123865,-13.603879,-14.003848,-14.071572,-13.931806,-14.258162,-13.526846,-13.454044,-13.226203,-13.003964,-12.727188,-11.937934,-11.686457,-11.252091,-10.884406,-10.161456,-9.6651352,-8.8989223,-8.1910441,-7.5832317,-6.6977712,-5.9564394,-5.0390647,-4.186864,-3.5801879,-2.7425419,-1.6265319,-0.88356262,-0.27194141,0.70700861,1.2862286,2.1622509,3.2582142,3.3833496,4.3209279,4.7743377,5.2051616,5.6568428,5.9696693,6.1087665,6.264381,5.7857813,6.4313011,6.0135134,5.6484273,5.2448779,4.7565502,4.3921718,4.1427581,3.6971237,3.4530327,3.2033997,3.3589461,3.1025541,3.2231541,3.2919427,3.2305935,3.409395,3.0174583,3.4288054,2.9795298,3.047719,2.8950454,3.4761211,2.4528954,3.1364508,2.9154937,2.8489754,2.9377439,2.457259,2.7577593,2.4723814,2.7328596,2.7152469,2.3145436,2.4403815,2.2944051,2.1952263,2.2531223,1.8510667,1.5783015,1.5543482,1.4838857,1.6324884,1.4472491,1.0334028,1.2488034,1.0458159,0.77880167,1.1177604,0.62096187,0.96085921,1.139842,1.0156103,0.73752682,0.67272608,0.87143343,0.70982535,0.53972338,0.62331798,0.48922032,0.345906,0.43227781,0.71132187,0.17848479,0.088019058,0.18452228,0.094626027,0.49237165,-0.042912624,0.033330575,0.16909667,-0.14941685,-0.059303351,0.057569275,-0.15048754,-0.10425585,-0.20110701,-0.16421642,-0.21595593,-0.31112543,-0.60815266,-0.4323836,-0.26114144,-0.3436025,-0.19388251,-0.49513082,-0.069376512,0.17881614,-0.010333126,0.09881044,-0.39755086,0.16520831,0.112586,-0.11064749,0.1361519,-0.29582711,-0.26589028,0.27630622,0.1021908,-0.20437325,0.25152403,0.26176135,0.023503411,0.42535298,0.17633376,-0.18838954,-0.1415546,-0.12022365,-0.12311124,-0.51826474,-0.8531772,-0.38927363,-0.58412277,-0.74707062,-0.71071076,-1.2791119,-1.1025859,-0.8290748,-0.77575599,-1.055474,-1.4408901,-0.91875861,-1.3150676,-0.87259909,-1.4378045,-1.4168785,-1.5926335,-1.7465875,-1.658323,-1.8401342,-2.1538173,-2.0963863,-2.1531912,-1.9196855,-2.2821014,-2.3225312,-2.5577623,-2.2452231,-2.2348161,-2.2914743,-2.8119973,-2.576158,-2.3878336,-2.9215419,-2.5079345,-3.1950033,-3.1311982,-2.8828015,-2.9334082,-2.9979384,-3.1369687,-2.9436158,-3.0138439,-2.737389,-2.9863699,-2.8279982,-3.4017591,-2.7504948,-2.7900811,-2.7741264,-2.7312027,-2.7987661,-2.8809962,-2.5138387,-2.2757601,-2.4938636,-2.3225564,-1.916925,-1.7909934,-1.4811643,-1.9807425,-1.4019266,-1.4281863,-1.326813,-1.2437736,-0.92062612,-1.1387332,-0.68177381,-0.72361471,-0.4815808,-0.79481495,-0.60401579,-0.38793319,-0.43206058,-0.27553893,-0.5830832,-0.43493615,-0.25680263,-0.17961626,0.0017173195,-0.098454136,0.24871299,0.21871225,0.37639907,0.4639099,0.30927421,0.63933402,0.61920698,0.68930209,0.76725281,0.57212905,0.71490096,0.68200575,0.95546042,0.97030693,0.85347178,1.0545499,1.2092291,1.2866733,1.5031292,1.6046361,1.4203374,1.3876576,1.637698,1.5837764,1.5046091,1.4999972,1.537856,1.7993248,1.6683948,1.5734194,1.8602681,1.9981613,1.9963738,2.3162471,2.2524275,2.6929678,2.7453986,2.858306,2.9465643,2.8348135,3.1257916,2.8226408,3.5038501,3.1751137,2.8333988,2.4372661,2.5101236,2.7501292,2.6796917,2.3417313,2.6524983,2.8547146,3.6431887,3.901449,4.7031606,4.9501093,5.3409198,5.6873133,6.2026159,6.5790697,6.7516691,6.8427088,7.0974833,7.6347891,7.3894055,7.5696168,7.7729562,7.7059469,7.6933422,7.43466,7.0122445,6.4475641,6.1040485,5.7163835,5.1262982,4.55712,4.1923836,3.4302614,3.290706,2.199047,1.8656592,1.2218503,0.7490943,0.040015331,-0.56948488,-1.1669772,-1.9804416,-2.3187909,-2.8975414,-3.5419862,-3.9708392,-4.6769817,-4.8417375,-5.5174076,-5.4307055,-6.3210584,-6.4815982,-6.849802,-7.0795323,-7.2515512,-7.6007047,-8.254806,-8.094034,-7.8261511,-8.2278714,-8.1945973,-8.1828248,-8.3355595,-7.9056452,-8.051678,-8.018842,-8.1499185,-7.6471735,-7.4338666,-6.9957159,-6.9826007,-6.5645053,-6.3422302,-6.1434743,-5.373239,-5.1852494,-4.9063645,-4.0656047,-3.9947948,-3.0121946,-2.6759687,-2.3050001,-1.5663077,-1.1715518,-0.49890906,-0.42627336,-0.33057983,0.62589975,0.93569699,1.3802628,1.8271261,1.9419943,2.7816564,2.987771,3.6283378,4.0169884,4.2287493,4.1655357,5.0660676,5.1181599,5.3373357,5.1784317,4.796239,5.2010037,4.8901809,4.8646236,4.1479104,4.2492626,3.174172,3.1321849,2.9897328,2.2153728,2.0179472,1.9728388,2.127187,2.1610604,1.9044567,2.0309895,2.0513288,2.0644722,1.9402664,1.8188085,1.8870095,1.9041122,2.0079847,1.8485031,1.801668,1.8387508,2.0463222,2.2697074,2.0569764,2.0721008,1.8966856,2.0475707,1.9780568,2.0222702,1.9533345,2.0132819,2.1014425,2.0451027,2.283314,1.7148029,1.680214,1.6260008,1.4478881,1.7041293,1.2633209,0.75857075,1.1614669,0.93018097,0.67219523,0.73015482,0.56831559,0.0049657226,0.39365565,0.049624114,-0.15044651,-0.43178786,-0.39386424,-0.35564714,-0.84556338,-0.9434911,-1.4062751,-1.6361946,-1.428679,-1.9782473,-2.0339439,-2.0648332,-2.4871094,-2.5079579,-2.6601636,-3.153441,-3.4849868,-3.5408575,-3.5844531,-3.6250103,-3.9419875,-3.9424955,-3.9798638,-3.9880718,-4.0468409,-4.0345782,-4.3124588,-4.2089273,-3.6098518,-4.0859305,-3.8117404,-3.6717126,-4.2501325,-3.4558392,-3.7647708,-3.8973253,-4.116439,-4.1014005,-4.0713725,-4.1893529,-4.1936344,-4.1346454,-4.4533272,-4.382834,-4.3245197,-4.5733271,-4.7606693,-5.0489822,-4.7740849,-5.1869738,-5.0925027,-5.4648476,-5.3236012,-5.3982555,-5.4372572,-5.5692139,-5.6238733,-5.3435163,-5.6174671,-5.248307,-5.3383701,-5.3521519,-5.6095584,-5.3649524,-5.3238163,-5.3583247,-5.5025304,-5.4597237,-5.2982643,-5.4654051,-5.4040212,-5.6545887,-5.5035443,-5.5170031,-5.291217,-5.1381976,-5.3675581,-5.5884469,-5.0060021,-5.1444925,-4.9095483,-5.0339872,-4.6709958,-4.577763,-4.0299277,-3.7260904,-3.6266934,-3.2232329,-2.9773797,-2.4930514,-2.1225565,-2.2407655,-2.0360895,-1.5071667,-1.1999911,-0.92131941,-0.54255403,-0.22917192,0.33823502,0.69664375,1.1845528,1.4010351,2.1377621,2.2934053,2.5978902,3.3975149,3.1672077,3.4238984,4.097755,4.1801576,4.6203265,4.6930535,5.0725299,4.9632535,5.4602909,5.6019885,5.577248,5.6884225,6.0821509,6.130262,6.444112,6.3513022,6.2266294,6.4999414,6.8423392,6.7662014,6.9536996,6.8239057,7.0689514,7.0585451,7.3921892,7.3925799,7.5430035,7.4312044,7.7633325,8.0952592,8.2279724,8.3874124,8.5252606,8.6784867,9.1071098,9.0548078,8.911241,9.2213546,9.2578276,9.4957126,9.4848604,9.7145628,9.5617708,9.6486995,9.4560008,9.4560944,9.0597924,9.0429579,8.9715019,8.8593132,8.5098714,8.4618982,8.2293363,7.8781205,8.3354417,7.7160252,7.2890258,7.4410614,7.1073873,7.1068959,6.9936316,6.3094525,6.3776932,5.9482019,6.0681619,5.5173997,5.3178542,4.9122167,5.1649512,4.7884827,4.5518579,4.4993881,3.5196877,3.382954,2.7080103,2.5490169,2.2039366,1.6882046,2.0564035,1.8419973,2.0775812,2.2295336,2.440628,2.7730942,3.4344058,3.5593219,3.7431533,3.8579002,4.5915894,4.6008769,4.693115,4.5241532,4.3723429,4.4749738,4.7253396,4.4607782,4.2881764,4.0586008,4.1112576,4.110804,3.7688061,3.4893659,3.041229,2.627183,2.6840637,2.1061879,1.8108105,0.99974704,0.14975271,0.33127385,-0.39195088,-0.92990783,-1.6654432,-2.3254773,-2.7537196,-3.5028445,-4.1477383,-5.2516547,-5.7144541,-6.602002,-7.0811652,-7.8588719,-8.6030153,-9.1736919,-9.6615238,-10.258983,-10.75,-11.213525,-11.641328,-12.278721,-12.243758,-12.914895,-13.21245,-13.181771,-13.424846,-13.60629,-13.387902,-13.977679,-13.497676,-12.996742,-12.710576,-12.897056,-12.672931,-12.049018,-12.15526,-11.150809,-11.123189,-10.574899,-9.9729327,-9.3819801,-8.6685811,-8.1162394,-7.8340485,-7.2419928,-6.5771649,-5.4813585,-4.8568888,-4.1508124,-3.8688504,-2.8650745,-2.0620073,-1.3012856,-0.93461448,-0.084474553,0.53895814,1.2353726,1.842676,2.4906306,2.7536605,3.2963175,3.963187,3.9430093,4.4412003,4.181148,4.8137316,4.7964046,4.5604392,4.4402811,3.9065776,4.084323,3.3688961,3.1040526,1.9120679,2.249086,1.5338767,1.9432649,1.3429956,1.2958726,1.3861075,1.1895767,1.6134254,1.3928694,1.3393988,1.0857227,1.1048591,1.0650343,1.0145796,1.0178312,1.0533419,0.80041533,0.77255377,0.58117124,0.74392365,0.76737081,0.74763054,0.54423418,0.87520765,0.7098506,0.51891743,0.76774038,0.4331777,0.94300755,0.81784936,0.55216616,0.74225017,1.0288201,0.88931278,1.0701358,0.82105467,1.5037874,1.3791712,1.5433853,1.3167593,1.753306,1.5787459,1.7395816,1.7297213,1.8241724,1.4826807,1.2700991,1.6349279,1.5312014,1.5592244,1.4122291,1.4436177,1.3715129,1.7996764,1.4756358,1.3400726,1.3434828,1.4752648,1.271647,1.4032516,1.5638161,0.6582709,1.3928737,0.99549025,0.6848473,1.2626769,0.79539789,0.49511536,0.56684949,0.62745819,0.23631092,-0.18911409,0.33654283,-0.43512323,-0.030389022,-0.62859991,-0.50070651,-0.93080672,-0.70019564,-0.93881385,-0.94081207,-1.1937672,-0.97153346,-1.1929293,-1.296308,-1.3439838,-1.1823173,-1.2626615,-1.2180954,-1.3128852,-1.0177552,-1.2264239,-0.80473125,-1.036433,-0.89658723,-0.84528192,-0.97519574,-0.96050529,-0.73115671,-0.62466687,-0.94001366,-0.94182294,-0.65200528,-1.0596237,-0.59141466,-0.50929867,-0.32317182,-0.67624913,0.043698628,-0.22332664,-0.23730352,-0.29742794,-0.27530884,-0.31297269,0.26934776,-0.29034597,-0.25238068,-0.41950962,-0.40291311,-0.19111546,-0.56017789,-0.28164321,-0.44709201,-0.24379933,-0.31664971,-0.42227867,-0.46423227,-0.66862662,-0.60024813,-0.30206502,-0.5745997,-0.83942107,-0.84233813,-0.57658994,-0.68216826,-0.76334138,-0.46488548,-0.8408069,-0.14471027,-0.48987747,-0.63516636,-0.39328865,-0.43134989,-0.37108506,0.07547307,-0.35060401,-0.17821544,-0.48539114,-0.19581441,-0.49544035,-0.10235914,-0.78015145,-0.58744056,-0.96597879,-0.72936582,-1.1222826,-1.071226,-0.89852014,-1.1277884,-0.52720938,-0.83957531,-0.5487688,-0.82582533,-0.44523184,-0.48418214,-0.29104048,-0.49815328,-0.43707225,-0.70440814,-0.08314631,-0.5268552,-0.63316884,-0.28278417,-0.6621135,-0.19547152,-0.39101188,-0.70046167,-0.71863301,-0.66285362,-0.68700347,-1.0963121,-0.74474299,-1.0382096,-1.0424803,-1.1203129,-1.126263,-1.3589944,-1.4832078,-1.1985293,-1.2187289,-1.3881362,-1.4448888,-1.5574621,-1.3778045,-1.4163189,-1.4273609,-1.5341602,-1.5881259,-1.6528523,-1.3786746,-1.2481817,-1.4564837,-1.3563706,-1.6956261,-1.0186074,-1.1610177,-1.2653368,-1.2173747,-1.0979309,-0.81044661,-0.8581432,-0.59883586,-0.45446729,-0.57308993,0.0096077946,0.37436383,0.14858381,0.39568846,0.82448963,0.69238333,0.63445615,0.80481899,0.67986377,0.87802907,1.1526661,0.67276322,1.0740265,1.3537845,1.8093993,2.4068216,3.1487461,3.4910819,4.1918445,4.758199,5.0493488,5.8532362,6.1929921,6.3997696,7.0290739,7.2114602,7.5907601,7.7705105,7.796661,7.9539232,8.25125,8.2458789,8.0346309,7.9175079,7.6256414,7.3464676,6.9780542,6.4860559,6.3127666,5.7287597,5.015536,4.7207517,3.9111112,3.278248,2.7607274,1.8832093,1.612182,0.69219272,-0.27237903,-0.66175179,-1.4707819,-1.9943202,-2.4531045,-3.4273432,-3.7746516,-4.1540909,-5.0459561,-5.214258,-6.1136964,-6.5510203,-6.9063858,-7.2120262,-7.7918792,-7.9876485,-8.3629569,-7.9907172,-8.7629896,-8.4139749,-9.0445683,-8.8105829,-9.1436827,-9.2415049,-8.693518,-8.8506544,-8.5838786,-8.6641782,-7.9850754,-7.6689714,-7.6594075,-7.4504033,-6.8288419,-6.2626999,-6.0496883,-5.4191952,-5.1932469,-4.5931083,-4.3245489,-3.3750145,-3.3724876,-2.542376,-2.0490539,-1.5705757,-0.68385668,-0.52141145,0.19344682,0.74176345,1.4872535,1.6401255,2.4248083,2.6703908,3.3383231,3.6790247,4.1179515,4.3379946,4.6032107,4.9555292,5.0308293,5.3540896,5.6864338,5.4710145,5.5164234,5.417656,5.248028,4.8259905,4.6899232,3.7761359,3.7293129,3.4776131,3.3161318,2.8895616,2.7507247,2.6180405,3.1581994,3.3140989,3.382737,3.5388509,3.8133097,3.7229493,3.8083989,4.0505435,3.6802402,4.2202821,3.7686065,4.1021197,4.2251142,3.9720771,4.0580923,4.0982557,3.8671197,4.168027,3.708943,3.9299595,3.4198343,3.9216858,3.0965073,3.3683221,3.0700107,3.1841836,3.2859373,2.7065065,2.8825316,2.9628976,2.5847686,2.7981767,2.3015035,2.3129954,2.0899061,1.9891764,1.8947729,1.8377547,1.1142384,1.6627568,1.2138747,0.84621545,0.66326039,0.58910776,-0.033364226,0.32802834,-0.35866383,-0.52852922,-0.63738215,-0.88358533,-1.1703793,-1.1527888,-1.5110911,-1.7555715,-2.3341955,-2.0883786,-2.5861545,-2.7935606,-3.1776217,-3.2954807,-3.1607775,-3.3334499,-3.6085893,-3.7108763,-3.3918233,-3.960732,-3.6433248,-3.7909528,-4.0809281,-4.0040522,-4.2659676,-4.2140966,-4.5742718,-4.5568281,-4.5358706,-4.6304239,-4.639391,-4.7221578,-4.7803309,-5.2674502,-4.7556764,-5.2319255,-5.1424935,-5.4250884,-5.5450524,-5.8775901,-5.7343889,-5.9537707,-6.2912429,-6.151511,-6.3970353,-6.6439762,-6.6371225,-6.6502352,-6.656126,-6.809891,-7.0283097,-7.0213123,-7.3236938,-7.7108894,-7.4335027,-7.530455,-7.5512095,-7.6023205,-7.454736,-7.6221374,-7.2377445,-7.5838782,-7.1125837,-7.290492,-6.8007877,-6.903867,-6.4844153,-6.6701798,-6.3919123,-5.7856782,-5.7620974,-5.1699392,-5.6922776,-4.9358947,-4.8927017,-4.2867211,-4.0245601,-4.1502475,-3.7410556,-3.4139,-3.2606106,-2.724196,-3.0279726,-2.2718304,-2.1837913,-1.7511976,-1.6431791,-1.18169,-0.89085561,-0.56294364,-0.077852705,0.7706252,1.1028724,1.3031298,1.8127145,2.3364562,2.4868662,3.2749975,3.2097838,3.8081777,4.2861066,4.6496021,4.9231862,5.4342085,5.4862303,6.0366277,6.0515331,6.6828698,6.6433592,7.1432342,6.8378567,7.3319841,7.2334427,7.6138257,7.4751466,7.7917469,7.5544423,7.8643688,7.6795581,7.7012179,7.6717385,7.9194736,7.6395621,7.6242743,7.7492523,8.093299,7.9067347,8.1256396,8.0011098,8.0574375,8.2810615,8.0980479,7.9369935,8.2937763,7.6286156,8.1094434,8.0439449,8.1531941,7.8523356,8.2808595,8.1002568,8.0596726,8.6089522,8.0712387,8.2797121,8.3550989,8.1696777,8.3101887,8.170656,7.9997219,8.1988055,8.158683,8.0790576,8.2962765,7.9675595,7.9225262,8.195944,7.9065087,7.5422819,7.4829301,7.0223614,7.4939891,6.3024544,6.4313843,6.1714551,5.4918138,4.8828893,4.5596589,3.822014,3.5503099,3.503056,3.1037147,3.305725,3.2699961,3.8512963,3.7701714,4.2961585,4.3304004,4.9066629,4.8889571,4.8053695,4.9262595,5.1046095,4.9863961,4.9351387,4.8352603,4.8620671,4.5788658,4.7162336,3.9689648,3.8859411,3.5870992,3.0700222,3.002675,2.5617014,2.0932294,1.8509557,1.5170717,1.3974124,0.65927294,0.40578671,0.19148777,-0.74928041,-0.9835963,-1.9246034,-2.2845815,-2.9025832,-2.9585192,-4.2780875,-4.1093601,-4.8227559,-5.1422798,-5.4958992,-5.7740129,-6.2353279,-6.6468285,-6.9041607,-7.0587362,-7.2598697,-7.8386778,-7.9568518,-7.8485771,-8.1865518,-8.1584962,-8.4792184,-8.4628415,-8.5591293,-8.3715108,-8.4768731,-8.7195769,-8.1816686,-8.6572197,-8.4270036,-7.8499333,-8.1238049,-7.5815633,-7.752253,-7.0732102,-6.9919452,-6.5496282,-6.1124959,-6.0000124,-5.4570692,-4.9592238,-4.5095383,-4.3172527,-3.4998732,-3.2696251,-2.5036003,-2.0301815,-1.8634829,-1.1985899,-0.37812234,-0.41419261,0.40314733,1.0125769,0.93459465,2.1189026,2.5097392,2.59839,3.3882142,3.7397041,4.2323,4.6496816,4.3487974,4.8678893,4.6913802,4.7590667,4.7892136,4.3457578,4.0645438,3.8202324,2.6788163,2.8090485,1.3700804,1.0071658,0.26880387,0.17633554,-0.10220646,-0.47181603,-0.58229451,-0.92459579,-0.78794541,-0.60522143,-1.0747976,-1.5366069,-1.380642,-1.6724081,-1.8184478,-2.137078,-2.3730146,-2.4534991,-2.4885693,-2.8378079,-2.7729255,-3.0333292,-3.1068889,-3.2469668,-3.2164936,-3.706899,-3.6303619,-3.7498489,-3.6655117,-3.4429663,-3.7572192,-3.68735,-3.9272521,-3.6241467,-3.9149526,-3.9928844,-4.0931471,-4.3686274,-4.3354441,-4.2196098,-4.5985202,-4.6065517,-4.6489417,-4.858584,-4.8749767,-4.3992981,-4.9181454,-4.4552208,-4.5274495,-4.3038842,-4.5992198,-4.6274941,-4.6355887,-4.6325655,-4.3950357,-4.8193133,-5.1531557,-4.937859,-5.1925783,-5.0411339,-5.4402065,-5.4574649,-5.6458986,-6.0264655,-5.7502742,-6.3663995,-6.0734266,-6.9182438,-6.4522039,-6.6917238,-6.8424907,-6.8673864,-7.1794032,-6.8746755,-7.0796731,-6.7519866,-7.2495446,-7.5746502,-7.3564503,-7.4776002,-7.5025815,-8.2202395,-7.5420406,-8.3220159,-7.7453745,-8.3542906,-8.0733587,-8.6552674,-8.2484699,-8.6534777,-8.7037926,-8.9792597,-9.5575048,-9.4294038,-9.9759142,-10.415187,-10.799888,-11.782304,-12.540492,-12.874978,-13.673662,-14.032743,-14.884349,-15.20166,-15.620211,-15.990281,-16.324243,-16.480704,-16.638102,-16.095229,-16.16072,-15.473414,-15.318266,-14.473473,-13.872272,-13.037574,-12.265976,-11.496788,-10.295767,-9.1856525,-7.8372912,-6.7784954,-5.3822795,-3.9530073,-2.6599775,-0.46115079,0.50595333,2.3995694,3.5385428,5.9017014,7.3442498,9.1932529,10.737566,12.322114,13.971263,15.639686,17.021535,18.582156,19.778444,21.415513,22.773283,24.052618,24.939078,26.696995,27.232166,28.765712,29.298268,30.005476,30.98845,31.489152,31.891303,32.441049,32.718083,32.779703,33.331065,33.391935,33.021264,32.729049,32.376638,31.86761,31.134611,31.014636,29.689459,29.149372,27.92367,26.984492,25.992517,24.961776,23.371279,22.135661,20.929351,19.535576,17.762158,16.007011,14.914869,13.09856,11.63957,9.9165967,8.263714,6.8677862,5.6955088,3.959765,2.9886854,1.5495714,0.25961191,-0.54002005,-1.4726903,-2.6002403,-3.0830684,-3.9012285,-4.1043533,-4.6027502,-4.6488997,-5.3343821,-4.8854034,-5.3225538,-4.820301,-5.4935343,-4.951977,-5.3632167,-4.9754764,-4.8507763,-5.1186008,-5.1686947,-5.3231707,-5.2504087,-5.6416909,-5.7298985,-5.9575474,-5.8996617,-6.0539729,-6.0407423,-6.4133658,-6.4329223,-6.5520017,-6.488054,-6.5370583,-6.3954872,-6.9517882,-6.3776957,-6.9666881,-7.1423218,-7.5202689,-8.0098246,-8.1777724,-8.0979098,-8.030076,-7.6641673,-7.752596,-7.1095476,-6.9018801,-6.4287146,-6.1354113,-5.7973629,-5.5672913,-4.9940956,-4.8246206,-4.375949,-4.3567838,-3.8267231,-3.9402334,-3.4697847,-3.6466607,-3.4168035,-3.5754831,-3.4035879,-3.1902612,-3.166931,-3.5416083,-3.2630151,-3.7243493,-3.2186958,-3.466852,-3.592781,-4.1149568,-4.0453174,-4.2890844,-4.6183333,-4.7672281,-5.3899421,-5.6608764,-5.9518298,-6.2370586,-7.0796803,-7.746043,-7.8914782,-8.7903981,-8.9892199,-9.4443225,-10.365612,-10.396516,-10.825081,-11.097428,-11.359474,-11.959877,-12.128744,-12.070777,-12.41827,-12.739476,-12.631947,-12.818073,-12.761412,-12.662884,-12.803659,-12.875334,-12.484746,-12.402686,-12.168136,-11.987581,-11.531548,-11.558389,-10.989745,-10.483559,-10.16261,-9.6835484,-8.9613707,-8.2799155,-8.0547056,-7.1335654,-6.9459431,-6.027426,-5.5916483,-4.9697184,-4.4761619,-4.099143,-3.8806266,-3.2766803,-3.0606573,-2.4858936,-2.371091,-2.2337601,-1.6195832,-1.6773827,-1.4938317,-1.3306178,-1.2257274,-0.95784965,-0.75874667,-1.1067666,-0.73275331,-1.1657106,-0.73150437,-1.1245886,-0.85508675,-1.0930442,-1.1551862,-1.1697447,-1.0834617,-1.2633207,-1.6740676,-1.9994718,-1.7060046,-1.7483563,-1.4096225,-0.94050173,-0.66050392,-0.075267626,0.68673833,0.81440578,1.6161827,1.8677128,2.6339751,3.0680412,3.5897266,4.0855921,4.8099407,5.5242224,6.1409153,6.8465635,7.8051821,8.4577306,9.4036595,10.408119,11.354387,12.01312,13.018857,14.128654,14.948476,16.035355,16.959134,17.831576,19.209856,19.876526,20.762905,21.627617,22.201513,23.064169,23.494024,24.397128,24.281825,24.651405,25.371629,25.32993,25.214197,25.168887,25.616607,24.902051,25.214688,24.987531,24.045736,24.048676,23.357988,23.171559,21.92271,21.608486,20.440489,20.232197,19.101589,18.518708,17.767165,16.509815,15.967544,14.683541,13.734628,12.554117,11.832039,10.533052,9.8387293,8.9752438,7.7294242,6.8994852,6.4980582,5.6651351,5.185719,4.328317,3.7807136,3.1592262,2.3945523,2.3273322,1.339834,0.97759482,0.43235919,0.067810195,-0.56438218,-0.94181497,-1.6669409,-1.9419741,-2.4615946,-2.7565249,-3.2047595,-3.8657528,-4.0114614,-4.7320698,-4.8316728,-5.2187461,-6.0907246,-6.155707,-7.0549869,-6.9909684,-7.428075,-7.7980175,-7.856453,-8.286267,-8.0466266,-8.4099505,-8.5030696,-8.3104604,-8.5692985,-8.6406172,-8.4863867,-8.3777354,-8.5599719,-8.420349,-8.0086223,-8.109246,-8.184283,-7.9470273,-7.6988437,-7.9704262,-7.2604939,-7.5300833,-7.56029,-7.265142,-5.6010115,-6.7625736,-6.9837204,-7.1005142,-5.7915623,-4.6163105,-5.0864111,-6.0084771,-5.496551,-4.2033831,-3.3346162,-3.181973,-3.9866788,-3.7873606,-2.2535803,-1.1865859,-1.4492924,-1.9504362,-1.81589,-0.64736716,0.46718541,0.19754742,-0.67876058,-0.59510318,0.22453181,1.5949782,1.0918092,0.15304266,0.1544912,0.61262094,1.9338328,1.5581787,0.84610667,-0.36795277,1.1905846,1.232322,0.95741061,-0.20268726,-0.95057315,-0.5615487,0.28736368,-0.20632709,-1.6621099,-2.0790899,-2.3915488,-1.2875051,-2.2138458,-3.4816219,-4.4071269,-4.8337826,-3.917126,-4.6292655,-5.8770497,-7.1640538,-7.1425426,-6.6568901,-6.9999321,-8.6445657,-9.8055737,-10.004715,-9.7942957,-9.8214345,-11.67054,-13.08451,-13.032347,-12.643467,-13.191057,-14.259965,-15.679759,-15.896713,-15.149554,-15.218311,-16.52767,-17.692281,-17.48418,-16.627436,-16.610156,-17.555192,-18.877622,-18.579217,-17.728933,-17.41814,-18.330648,-18.956732,-18.910884,-17.44963,-17.402022,-17.555711,-18.581526,-18.122154,-16.855248,-15.978192,-16.482135,-17.245268,-16.946317,-15.265919,-14.362535,-14.463408,-15.782555,-15.003802,-13.999519,-12.989855,-12.996826,-13.311407,-12.756939,-10.627374,-8.8128936,-8.6511278,-8.516464,-7.4696836,-5.5783647,-5.6697992,-3.677324,-3.5975398,-2.1375022,-1.0821863,-0.4635064,0.50667276,1.3688878,2.1513042,2.9108226,3.8791935,4.1283569,4.8431626,5.5648886,6.3063022,6.6068896,7.3834917,7.7423483,7.8367334,8.6326962,8.552232,8.7860529,8.9985916,8.8102335,9.0854829,9.0524609,8.7216928,8.7598499,8.5443329,8.6993569,8.3953176,8.2495578,7.7147877,8.0880343,7.1047634,7.6648046,7.2450318,6.997068,6.3365677,6.7788196,6.1561418,6.1033915,5.3443115,5.3846575,5.445739,4.9262391,5.2899466,4.6692142,4.2415556,4.6462295,4.1729017,4.2155729,3.7547516,3.8045798,3.8028164,3.6988551,3.3969172,3.3764573,3.2239101,3.1618663,3.5605721,3.1764752,3.0665432,3.2730878,3.1398215,3.5412316,3.7044262,3.5000257,3.6182562,3.9314373,4.2514323,4.6300597,4.422521,5.0374208,4.9385185,5.6758939,5.8626179,5.8480671,6.321295,6.685055,7.0791769,7.3516511,7.5290767,7.4254357,7.6986199,7.8635106,8.4474327,7.9573313,8.164743,8.0966201,8.115644,7.6815375,7.616144,6.932081,6.5923963,6.1432162,5.8171477,4.6843006,4.8066968,4.4887167,4.3964378,4.3959883,4.3755143,4.1342998,4.4510836,3.9285636,3.7657493,3.8325569,3.2529543,3.7640945,3.2797504,3.6947266,3.2165724,3.2856771,3.1414881,3.3076502,2.9044612,2.7955739,2.6375327,2.362719,2.3759398,1.9277146,1.9729067,1.4311171,1.0467737,0.90054084,0.93176387,0.34629374,-0.1087508,-0.50764083,-0.63988599,-0.93569518,-1.0164133,-1.5568083,-1.604101,-1.6228123,-1.7978497,-1.8847176,-1.947851,-1.6933364,-1.8958026,-1.3120377,-1.3885017,-1.3055261,-0.9608356,-0.20741839,-0.19863499,0.096108599,-0.03796426,1.2702145,0.63025234,1.7341272,1.8366589,2.6073291,3.0263591,3.2919078,4.1733828,4.2844212,4.6600825,5.1749982,5.5477825,6.6220709,6.5499241,7.4156845,7.4434882,8.2373841,8.6533015,9.0325925,9.7936258,9.6731181,10.537683,10.666222,11.001843,11.486943,11.302272,11.843072,11.918325,12.025704,11.945889,12.467188,12.217037,12.343182,12.320082,12.134458,12.093581,12.158768,11.991434,11.853224,11.594234,11.445616,10.890977,11.111652,10.402763,10.200121,9.5064442,9.0537653,8.7009369,8.0186339,7.4571384,6.7591733,5.9713825,5.8083342,4.9547041,4.388937,3.7242312,3.2634164,2.5138411,2.0407646,1.5829877,0.94426864,0.23080581,0.087289895,-0.36304436,-1.0313126,-1.382532,-2.2361091,-1.7838231,-2.4045086,-2.5665273,-2.6342975,-3.3408644,-2.8242096,-3.3037781,-3.4318245,-3.3683415,-3.9531635,-3.9044795,-4.1428829,-4.033102,-4.5606881,-4.7848801,-4.9255773,-4.9264085,-5.4903533,-5.6920948,-6.057748,-6.2828006,-6.2210901,-6.8724019,-7.0573619,-7.0660711,-7.4782114,-7.6002282,-8.1107562,-8.3835166,-8.6870151,-8.7038141,-8.8918653,-9.083641,-9.0328945,-9.8368393,-9.2869509,-9.5461448,-9.8345732,-9.8018214,-9.9567004,-10.231933,-10.094047,-10.635984,-10.283911,-11.063336,-10.434158,-10.670167,-10.914117,-10.909929,-11.677578,-11.150107,-11.754543,-11.441949,-12.018525,-11.864684,-11.889656,-12.237538,-11.839915,-12.467681,-11.883937,-12.41133,-11.934458,-11.76913,-12.342769,-12.094364,-12.258899,-12.356721,-11.998937,-12.805068,-12.387402,-12.688505,-12.407535,-12.515095,-12.428768,-12.58768,-12.418909,-12.394823,-12.237941,-11.954179,-12.009284,-11.818672,-11.784455,-11.828132,-11.22771,-11.578018,-11.117962,-11.285091,-10.627409,-11.101887,-10.897775,-10.454481,-10.087827,-10.037771,-9.5149432,-9.2634731,-8.850828,-8.4438446,-8.0467932,-7.6980848,-7.4718529,-7.0539979,-6.5460787,-6.0845,-5.7037159,-5.1711588,-4.8424094,-4.5633281,-3.8832759,-3.9807221,-4.1459922,-3.5015131,-3.543999,-2.2603579,-2.4116199,-1.4498286,-0.64716597,-0.006848691,0.96760001,1.8206682,2.4851216,3.0960646,4.0122396,5.0060943,5.7335042,5.5922291,6.6122855,6.8765386,7.4300502,7.7132925,7.8010854,8.3283553,8.5738709,8.6442118,9.0285098,8.7460496,8.8418269,8.5896493,8.6204707,8.7659022,8.5615287,8.3154475,8.1976859,7.8908229,7.8174112,7.2803498,7.3048419,6.6456791,6.4601003,6.2607923,5.9945974,5.3439695,5.0792313,5.0476328,4.6878728,4.2637103,4.0296523,3.5312267,3.1904924,3.307172,2.8205904,2.571142,2.4865555,2.5098005,2.3605915,2.3639745,1.7737808,2.0196359,1.6712737,1.9819038,1.8856964,1.4342808,1.8250417,1.623519,1.6718684,1.5954338,1.4853714,1.5772191,1.9768353,1.8156535,2.2831997,2.0845264,2.2315659,2.9082238,2.5879274,3.2797987,2.6814223,3.3376682,3.7781474,3.7017487,4.0806243,3.9882362,4.3888326,4.6223094,5.4366952,4.963136,5.5957016,5.5580478,6.2975912,5.9990719,6.513985,6.7173441,6.8724689,6.9487264,7.5409562,7.6096689,7.3320224,7.7836004,7.4460629,8.0100811,7.4326994,7.6307006,7.1388861,7.3317,6.9565725,6.6971666,5.6377191,5.4761245,4.7378535,4.0470549,3.8227343,3.6722279,3.3272132,3.4300477,2.8366246,3.514598,2.626767,2.4633003,2.3132397,2.1502236,2.1061105,1.5768143,1.7788918,1.3753435,1.8108749,0.8225862,1.4560823,0.97332657,1.1020732,0.75384603,0.8854898,0.6110766,0.52828555,0.58003614,0.32573978,-0.0083857889,-0.12730894,-0.41297957,-0.18910564,-0.2004425,-0.47349331,-0.4248646,-0.74717675,-0.57407052,-0.59732219,-0.51547079,-0.94968454,-0.81543182,-0.47813915,-0.61711758,-0.71735182,-0.5901836,-0.75862354,-0.62471252,-0.60309024,-0.39537167,-0.50173628,-0.51981305,-0.32118203,-0.066775404,0.069343725,-0.085922862,0.25476889,0.033673418,0.534774,-0.077099071,0.36664356,0.015238786,-0.090854489,0.31277061,-0.040067728,-0.17901971,-0.072334989,-0.3247206,-0.33596886,-0.45483727,-0.81219428,-0.75446912,-1.2292264,-1.127269,-1.7012266,-1.8388548,-1.5997039,-2.1422197,-2.5765515,-2.2198197,-2.8396747,-2.7033051,-3.1332446,-3.388377,-3.1860806,-3.6817459,-3.5405885,-4.1748719,-3.7296504,-4.3668182,-4.2852388,-4.9625119,-4.7892748,-5.2390271,-4.876062,-5.5407801,-5.0844567,-5.7141932,-5.2289435,-6.0536869,-5.6688644,-5.572402,-5.7185452,-5.2611756,-5.6255966,-5.5360577,-5.221159,-5.5012646,-5.2518129,-5.0225986,-5.1796066,-4.763544,-5.0065638,-4.4976826,-4.4650491,-4.5594316,-4.2366515,-3.9697996,-3.9844795,-3.4077221,-3.8017136,-3.3538173,-3.650068,-3.1831822,-2.6212773,-2.9145341,-2.5752536,-2.3521052,-2.0967269,-2.1427441,-1.8280103,-1.7805619,-1.9852469,-1.6528325,-1.5075024,-1.4696743,-1.4543282,-1.3928343,-1.2818136,-1.2147443,-0.89891006,-0.94872272,-0.86330496,-0.583747,-0.65091835,-0.077273367,-0.90515332,0.033121934,-0.54639678,-0.076804279,-0.2676581,0.16598371,0.069606604,-0.22692603,0.0552291,0.50023071,0.072498442,0.40396071,0.5599119,0.52310187,0.76450031,1.0348004,0.94560406,1.384348,1.3119058,1.3550179,1.7312815,1.5117209,1.7395223,1.8314278,2.1407598,1.6403047,2.3647987,2.1907748,2.4065467,2.3958002,2.7362063,2.2520877,2.9813788,2.8586614,2.8162258,3.0990414,2.9917006,3.4022452,3.3833427,3.9626113,4.1317218,3.6911675,4.4918064,4.5215009,5.081545,5.101356,5.3217631,5.1648149,5.9086122,5.6881894,5.9746787,5.8802803,6.1390613,5.8551039,6.2118914,6.1072166,6.4900386,6.178801,6.5961952,6.3620883,6.753951,6.1089251,6.7504411,5.9985564,6.7790462,6.6551645,6.326624,6.6030627,6.3352064,6.5967848,6.5261601,6.2210423,6.498765,6.3832059,6.1296653,5.9813592,5.9310596,5.6301565,5.8443258,5.366623,5.6852419,5.1690381,4.4088886,4.5701527,3.7017078,3.7300372,3.4952651,3.6110774,3.4230833,3.3448906,3.7246338,3.700577,3.8883343,3.9549398,4.0282268,4.2603083,4.1347721,4.5401285,4.3352102,4.5943851,4.3969858,4.4688646,4.1300834,3.9543092,3.7775506,3.5989225,3.5836679,3.4007474,2.7969043,3.1302995,2.1239415,2.7314328,1.653178,2.0429831,1.3823317,1.5783229,0.81854094,0.63943136,0.4361198,0.047483999,-0.27150916,-0.69987595,-0.89868821,-1.3924277,-1.439184,-2.099955,-2.1660874,-2.8947001,-3.0683695,-3.5322338,-3.604885,-4.2004313,-4.4219065,-4.5692698,-5.0999215,-5.443406,-5.3657819,-5.8704129,-5.9450539,-6.1607024,-6.3045532,-6.3287021,-6.0191219,-6.9604885,-6.267178,-6.39393,-6.2691847,-6.1882316,-6.1769302,-5.9102423,-5.6134598,-5.6689959,-5.2110233,-5.1621397,-4.9760364,-4.7948542,-4.7619878,-4.4435015,-3.7685438,-4.0029389,-3.3723904,-3.3474817,-2.9172767,-2.4621684,-1.856918,-1.858739,-1.0649867,-1.0342652,-0.30095793,-0.2315505,0.1116683,0.67752615,0.73699837,0.79911182,1.3809815,1.7718214,1.5912763,2.256501,2.0289685,2.6967816,2.2973128,2.8210979,2.3211863,2.5730849,2.2941151,2.2140097,1.8079514,1.6715346,1.1892403,0.39643442,-0.12830865,-0.50570815,-1.1193505,-1.1563772,-1.8726668,-1.4730624,-2.0449656,-1.8411206,-2.2739889,-2.1414384,-2.3015868,-2.5839347,-2.4688199,-3.1575102,-2.6658173,-3.4072878,-3.1477299,-3.4264983,-3.4546934,-3.8279686,-3.8948489,-3.8770778,-4.1605801,-3.9903406,-4.2489357,-3.7443484,-4.2047996,-3.9887759,-4.1065756,-4.0233641,-4.0990322,-4.0825638,-4.1430016,-3.9452963,-4.2342179,-4.0794787,-4.2492902,-3.9509881,-4.2468791,-4.0162952,-3.790518,-4.0161585,-3.7422463,-3.8899267,-3.442131,-3.9986504,-3.296775,-3.6248328,-3.3084712,-3.3747858,-3.1644981,-3.5186631,-3.1750011,-3.0564342,-3.2048508,-3.165713,-2.7806624,-3.0903063,-2.6342393,-2.7062687,-2.3408052,-2.2014691,-2.2564793,-2.1299624,-1.697561,-1.8473193,-1.9601624,-1.6064487,-1.9191127,-1.6156316,-1.6582869,-2.1171486,-1.6846538,-1.9420186,-1.8605453,-1.8532869,-1.6375523,-1.8203364,-1.8219935,-1.8767636,-1.7796428,-2.1963407,-1.7149501,-2.0480261,-2.0768099,-2.0527203,-2.178289,-2.1621655,-2.1896277,-2.2022899,-2.6274913,-2.5283137,-2.6089528,-2.8138758,-2.6945405,-2.8102992,-3.0678945,-2.8749795,-3.0372412,-2.8549273,-3.446082,-3.0316454,-3.6536,-3.2981137,-3.7254543,-3.9339181,-3.918366,-4.0197149,-4.2578682,-4.2543276,-4.2843159,-4.1598857,-4.3042895,-4.6317112,-4.5219576,-4.4395408,-4.7066876,-4.4413544,-4.8883116,-4.7580729,-4.6020492,-4.5910897,-4.4244248,-4.5014093,-3.8616103,-4.3280173,-3.6390621,-3.5279511,-3.2993145,-2.8535653,-2.5990753,-2.1656269,-1.9694845,-1.4515162,-1.3365373,-0.83728832,-1.2328264,-0.3259325,-0.48868801,-0.18255794,0.17476871,0.033914107,0.45947494,0.79613398,0.87234203,1.4111606,1.4636015,1.7832695,2.0097282,2.4809306,2.5271908,2.784324,2.7234401,3.2003283,3.025588,3.0208722,3.6102701,3.625559,3.3219217,3.8829567,3.68647,3.6921061,4.1646835,3.996384,4.0050791,4.1229294,4.2964306,4.4668193,4.5712772,4.6520478,4.8858788,4.9887068,5.0570049,5.3549932,5.1782515,5.625623,5.5375478,6.0053331,5.8671985,6.2203109,6.517438,6.5807811,6.8160531,7.0751134,7.0503823,7.528693,7.7938789,7.6142533,8.0921582,8.3608383,8.257179,8.5866578,8.7874833,9.0689391,8.9336545,9.451841,9.1508168,9.8584723,9.4399094,9.7704335,9.6381321,10.054362,10.14627,10.295462,10.288188,10.332137,10.608033,10.466005,10.472456,10.476367,10.576167,10.5408,10.127563,10.508342,10.001802,10.364664,9.9362416,9.947365,9.7667001,9.40317,9.2712837,8.7731991,8.9449024,8.0034468,8.1470922,7.6921872,7.3116163,6.8089983,6.5156467,6.1800452,5.9328128,5.6954103,5.1073302,5.1182901,4.6882529,4.559376,4.1722224,4.3463475,3.6093285,3.496596,2.3581219,2.2635975,1.3451601,1.2391202,0.50706503,0.40129082,0.25390085,0.76786121,0.46920939,0.44131882,0.78778783,0.70108228,1.3079432,1.2532361,1.3486718,1.7507682,1.5402607,2.1155095,1.8047533,1.9565894,1.7406708,1.807118,1.5564197,1.4515728,1.3496521,1.2834561,1.2371326,1.0534221,0.18811004,0.74063652,-0.42617148,-0.21949323,-0.78405153,-0.98220811,-1.6560723,-1.712146,-2.1625875,-2.3874388,-2.9454345,-2.9909069,-3.6082161,-3.9308975,-4.2730811,-4.635231,-4.8953676,-5.0930811,-5.545765,-6.1325696,-6.2170931,-6.4182805,-7.0594945,-7.3068355,-7.5722646,-7.5563602,-8.3343683,-7.9631887,-8.5829965,-8.6014465,-8.691266,-8.7373039,-9.0387625,-9.1073938,-9.3599775,-9.1281917,-9.2485396,-8.8413923,-9.0957292,-8.7422388,-8.8449518,-8.2758544,-8.4342438,-8.1131008,-7.999178,-7.7003423,-8.0806585,-6.8439445,-7.3137839,-7.0284848,-6.5687424,-6.1806178,-5.8333237,-5.801004,-5.0645467,-4.5212661,-4.3262861,-3.5537003,-3.3320001,-3.0533742,-2.3889689,-2.518584,-1.4604589,-1.5137607,-0.97265831,-1.0176554,-0.28423583,-0.10869299,0.16702437,0.45854298,0.91575939,0.95299488,1.3321382,1.6639927,1.1136601,1.5414298,1.2891454,1.3639321,0.61565736,0.60237472,-0.46507987,-0.67396666,-0.98953147,-1.0521895,-1.4583925,-0.86906234,-1.464828,-0.77948646,-0.85414027,-0.7251944,-0.87872867,-0.99990945,-0.50456292,-0.93265114,-0.37117067,-1.1763928,-0.31028542,-0.50228307,-0.53678139,-0.70895183,-0.58219301,-0.79909906,-0.6825442,-0.68430742,-0.71363225,-1.1502949,-0.57009432,-0.90358427,-0.84391328,-0.93242731,-1.2942445,-0.59672537,-1.0790278,-0.39095761,-0.81884101,-0.3977149,-0.53386265,0.085548427,-0.20175144,-0.11113137,-0.12749493,0.13696546,-0.049819236,0.37590907,0.049947328,0.23255098,0.25365835,0.13748686,0.22242827,-0.14998296,-0.065536049,-0.24039129,-0.4428887,-0.038283242,-0.75298937,-0.78315907,-1.1034135,-0.71762696,-1.0909867,-0.85974373,-1.2678808,-0.93601375,-1.2232405,-1.0963567,-1.0755075,-1.1944799,-1.053922,-1.0621388,-1.3339458,-1.136349,-1.3963494,-1.4224453,-1.5133143,-1.5262084,-1.5507572,-1.6288586,-1.6192622,-1.1315275,-1.7393453,-1.6399179,-1.3016563,-1.6079996,-1.3788229,-1.4249824,-1.4258333,-1.6736064,-1.3598771,-1.470042,-1.0667445,-1.3772264,-0.9756458,-1.2524739,-0.60056181,-0.84973514,-0.67926889,-0.43212868,-0.43397388,-0.17737765,-0.15129002,0.2116479,-0.15232608,0.35196616,0.095730264,0.46562218,0.12400626,0.67085727,0.51441547,0.68739658,0.60004699,0.96566479,0.87738162,1.034386,1.3865034,1.4077137,1.4020776,1.6407365,1.241688,1.5479578,1.3933255,1.3054871,1.5522381,0.9453383,1.066905,1.1016913,0.99123277,0.84344452,0.9117721,0.61878462,0.68631074,0.21381491,0.49786223,-0.023707718,0.070365685,0.19119894,-0.33320116,-0.57840852,-0.4928909,-0.73242128,-0.78675645,-0.68244915,-1.2625713,-0.65208952,-1.3116983,-1.0248273,-1.4669372,-1.138081,-1.5456602,-1.285547,-1.593462,-1.3574302,-1.5889435,-1.5822592,-1.9080818,-1.3170692,-1.9591087,-1.3663459,-1.8541801,-1.8137069,-1.7029388,-2.0532502,-1.7813351,-2.2579438,-1.8185972,-2.1725202,-2.2185497,-1.9957523,-2.2162294,-1.7872798,-2.0349591,-1.4506827,-1.9964491,-1.328144,-1.6296657,-1.1806325,-1.2960041,-1.2411994,-0.72374137,-1.1078037,-0.48449664,-0.54276728,-0.43698603,-0.36900039,-0.10692878,-0.16861941,0.35237683,0.19934747,0.37902979,0.49445253,0.47053695,0.49087032,0.99151151,0.22144795,1.0458609,0.76626573,1.0667091,1.2450289,1.4258533,1.2566937,1.8230742,1.563614,1.9125921,1.8272346,1.755337,2.013404,1.9526893,2.4092481,1.6854991,2.3657402,2.1797637,2.3790376,2.0817563,2.5855949,1.9629734,3.0194888,2.5224316,2.894491,3.1130094,2.8989313,3.4412263,3.7784541,3.6983828,3.9823209,3.9660724,4.2505272,4.1662696,4.3324604,4.1622838,4.6073077,4.6057334,4.8670963,5.0096331,4.6396628,5.208848,5.2405121,5.3423393,5.7516413,5.4034775,5.7937909,5.3546998,5.540082,5.3924227,5.2845624,5.1767142,5.5383134,5.7007207,6.5332949,6.3445851,7.0466672,7.1071248,7.4989642,7.6957411,8.0616399,7.8734013,8.6273019,8.489182,9.0741079,8.4981071,8.8213854,8.495991,8.7725568,8.3062415,8.1875125,7.8031885,7.8405751,7.214821,7.1992697,6.4113416,6.0036451,5.6419004,5.0195593,4.3931619,3.8591894,3.438515,2.3096299,2.3299232,1.6093138,1.0749446,0.51319748,-0.58239407,-0.57905815,-1.5982827,-1.8288722,-2.8666794,-3.2272933,-3.8029602,-4.3659673,-4.9335685,-5.7069034,-6.0739466,-6.7698033,-7.3628315,-7.6325842,-8.6264208,-8.7120723,-9.1177088,-9.7058149,-10.234328,-10.587726,-10.707799,-11.05269,-11.160462,-11.204466,-11.193764,-11.504773,-11.572564,-11.120953,-11.317815,-11.301353,-11.200398,-10.855177,-10.808845,-10.715335,-10.690255,-10.102581,-9.8224189,-9.4253449,-9.3690804,-8.4187735,-8.5137642,-7.6858827,-7.3582465,-6.4368267,-6.3961715,-5.2101326,-5.0958474,-3.9544022,-3.2951643,-3.2803186,-2.1307884,-1.8448947,-1.2390441,-0.63055595,-0.47807126,0.40235282,0.27870314,1.5803324,1.5634631,2.3939313,1.8493105,3.0582452,2.4920354,3.4332208,3.3274306,3.1447318,3.6369619,3.0894234,3.2725698,2.9239179,2.6621491,2.8741712,2.8608101,3.3829116,3.4042111,3.7578348,3.8620264,3.9414474,3.8722268,3.937532,3.969119,3.8245127,4.2190283,3.5883565,4.2128342,3.4103618,3.739192,3.3188081,3.4214662,3.1937574,3.2063077,2.7553913,2.6028737,2.5832801,2.4643243,2.293482,2.2118942,1.9131665,1.8790709,1.8703642,1.179744,1.2335146,0.81353841,1.2408759,0.4979604,0.75967669,0.55484024,0.2116919,0.49339332,0.045478336,-0.037249156,0.0042800351,-0.07293823,-0.088469102,0.10267457,-0.19456143,-0.13821071,-0.093885874,0.32992335,0.21979565,-0.09534325,0.37032168,-0.008717869,0.68827437,0.011897514,0.5014692,0.0559624,0.084465946,0.11272231,0.37026288,0.16315704,-0.035054216,0.15020029,0.48996384,0.065006963,-0.0014525955,-0.15106551,0.096648452,-0.0032725027,0.032626382,0.077824727,0.18392651,-0.00022703934,0.32301337,0.29759108,0.5332993,0.42882106,0.32126826,1.0273814,1.0094212,1.0661595,1.1845903,1.0892539,1.9400976,1.4508338,2.0869755,1.7307665,2.0715348,2.3889963,2.095732,2.7552512,2.411032,2.7633338,2.6804169,3.03235,2.9225651,2.7666415,3.3718718,2.8699022,3.5555816,2.9412221,3.3378887,2.7894042,3.6722264,3.1540093,3.1513249,2.916654,3.1644003,3.2450574,3.456739,3.1892505,3.544207,3.2278192,3.3311415,3.4221302,3.2323312,3.1164595,2.8763372,2.9094572,2.7670303,2.6315192,2.1306393,1.9941385,1.7965052,1.6569428,1.1812549,1.1946845,0.26608339,0.81975511,0.29805508,0.21476853,-0.33278907,-0.2476491,-0.5891932,-0.5850297,-0.98381627,-1.2714924,-1.683249,-1.8096841,-1.9311912,-2.5396074,-2.3828241,-3.0221042,-3.0472264,-3.2482103,-3.5306573,-3.9083326,-4.0464549,-3.9890077,-4.3824111,-4.3034188,-4.6757015,-4.8470866,-4.7281546,-4.6655185,-4.7981893,-4.5358595,-4.5041238,-4.4574019,-4.4044022,-4.1531416,-4.2293213,-4.1891073,-4.0821131,-4.0074034,-3.623472,-4.1993883,-3.6073111,-4.0744295,-3.4338445,-3.8520728,-3.530756,-3.6243946,-3.4138529,-3.4768922,-3.1730654,-3.3711411,-3.102613,-3.1332884,-3.1887193,-2.7425085,-3.3583545,-3.0937822,-3.3631797,-3.2892613,-3.169755,-3.2333855,-3.6731315,-2.8664581,-3.56043,-3.0679233,-3.1494851,-3.5898366,-2.8122499,-3.2760485,-2.8520929,-3.0653828,-2.8769526,-3.0394947,-3.0354038,-2.6895129,-3.2965496,-3.10469,-3.4086028,-2.8651157,-3.5738071,-3.033215,-3.312761,-3.5149704,-3.4374984,-3.3204762,-3.6890534,-3.4052888,-3.3544439,-3.4100495,-2.9241679,-3.3165269,-2.5249792,-3.1509236,-2.3341974,-2.4477414,-1.99033,-2.3655138,-1.9543775,-1.7264974,-2.0721911,-1.750327,-2.2147218,-2.0526729,-1.4762905,-1.6569949,-1.1814795,-0.95953231,-0.12630357,0.23189401,1.209653,1.9043623,2.1796096,3.2020301,3.5162701,4.3529359,4.9209492,5.245232,5.4781412,6.1774716,6.3773444,6.7904477,6.7111248,7.0251039,7.0571432,7.470184,7.1571054,6.9713949,6.5509366,6.7891987,6.0399663,6.3014629,5.3022741,5.2672682,4.4577865,4.0825664,3.4175041,2.6930165,2.2277444,1.7328458,1.2755243,1.0028253,0.010524558,-0.17433341,-1.1356323,-1.0929082,-2.2038504,-2.411532,-3.4111853,-3.5860688,-4.0452297,-4.6421239,-5.0145743,-5.8914126,-5.8400319,-6.2327019,-6.496856,-6.5508772,-7.3042734,-7.3029982,-7.4218621,-7.5663136,-7.710011,-7.8699623,-7.6738947,-7.9224089,-7.8173926,-7.3425688,-8.0290605,-7.2151519,-7.053383,-6.5596811,-6.4052792,-5.8945006,-5.6725657,-4.6719631,-4.4663376,-3.9206404,-3.2925622,-2.9407893,-2.3716925,-1.4765593,-1.4012718,-0.51123264,-0.18553963,0.6412618,1.032665,1.8447106,1.9992483,2.6179402,3.1418048,3.8222051,4.2485877,4.3364569,5.0966577,5.5780811,5.8297463,6.5328598,6.4009488,6.6496347,7.1219264,7.0520605,7.7483583,6.9541628,7.3674383,7.079513,6.9621168,6.4948559,6.2491508,5.6255887,5.2236078,5.2834724,4.8736732,4.4497276,4.8071305,4.2457539,4.945715,5.0434985,5.0530365,4.706138,4.878976,5.1272649,4.887053,4.9110018,4.968523,5.1549597,5.4349329,4.9689181,5.3671177,4.839692,5.5061532,4.9202075,5.5076456,4.8459656,5.0627854,5.008159,4.8273813,5.035769,5.0592117,4.9272852,4.8446813,5.1710878,4.5447896,4.9771588,3.9556148,4.569135,4.5027431,4.5254183,4.4775614,4.3007319,4.324784,4.3320977,3.863674,4.2711322,3.3274026,3.80199,3.2896718,3.5782422,3.106019,2.9831054,2.8952218,2.5228343,2.5430643,2.246968,2.2002728,1.7506236,1.9116737,1.7730207,1.4394507,1.3708635,1.218862,1.2485461,0.95267895,0.93023993,0.23648839,0.2513232,0.29084634,0.037804134,-0.24446067,-0.2723968,-0.58861872,-0.30782253,-0.97202589,-0.94727291,-1.0229169,-1.3577274,-1.4182022,-1.2765673,-1.796754,-1.9288007,-2.3110427,-2.1668343,-2.4312686,-2.395948,-3.4869443,-3.3138681,-3.9577893,-3.7217633,-4.5883042,-4.7265098,-4.9488927,-5.4512292,-4.8806058,-6.0794652,-5.3816506,-6.2570741,-5.6901734,-6.0126228,-5.9387399,-6.0967193,-6.1022277,-6.1892249,-6.0023149,-6.227456,-6.2015798,-6.4085225,-6.4550823,-5.9114859,-6.0052561,-6.1152484,-5.8501898,-5.7563875,-5.36737,-5.6726252,-5.3102683,-5.5131592,-5.1757532,-5.1942187,-5.1266064,-5.3644624,-5.1398262,-4.9323062,-4.7880977,-4.826493,-4.2805475,-4.8905093,-4.3217624,-4.6816502,-3.8652591,-4.6883006,-4.1108766,-4.756271,-3.7575698,-4.4199171,-3.8307751,-4.2729438,-3.7894764,-3.5464607,-3.5910471,-3.6532183,-3.7776856,-3.3258894,-3.86532,-2.7879026,-3.6535201,-2.8476694,-3.4350572,-2.5749911,-2.7065822,-2.7094541,-2.4123187,-2.7697429,-1.9735032,-1.9260258,-2.0554102,-2.0687413,-1.4108123,-1.4921612,-1.0601392,-1.063507,-0.69628975,-0.88520511,-0.0053431107,-0.23097585,0.55254332,0.089398663,1.092768,0.91465039,1.6288061,1.5371398,1.9268439,2.0056027,2.1876625,2.8205066,3.0573445,3.2168364,3.8451514,3.7987641,4.5969326,4.6524551,4.9589317,5.2457928,5.3842105,6.3586529,6.0616045,6.4228048,6.4357142,6.8580319,6.7514344,6.9302178,6.8457857,6.8103594,6.9953065,6.757063,7.0270513,6.9717621,6.9094603,7.3188606,7.1449263,7.2016374,7.3930309,7.1593694,7.3593463,7.2453043,7.9250762,7.1347045,7.5554333,7.103363,7.4138446,7.1295849,6.853763,6.7239437,6.5319765,6.2447567,5.5638042,5.6306388,4.9125921,5.2506471,4.6364297,5.1742035,4.5228445,4.873036,4.7689778,4.8814973,4.8709641,4.9744236,4.9631365,5.2045734,5.4255185,5.082291,5.490688,4.9391174,5.1957566,4.8986122,5.1900101,4.1739264,4.7125816,3.567093,4.3112593,3.0483144,3.2944428,2.6727409,2.5182691,1.8112503,1.722727,1.0603335,0.54757171,-0.045422335,-0.66986196,-0.82196549,-1.9771665,-1.5002298,-3.2781016,-2.5067153,-3.8901416,-3.9052832,-4.7138307,-4.7054643,-5.6299778,-5.5037861,-6.4808366,-6.3842371,-7.1807214,-6.9698234,-7.7662285,-7.6431497,-7.8452817,-8.6195696,-8.2956207,-8.9720636,-8.7451767,-9.0997116,-9.2315291,-9.1507281,-9.3533705,-9.3086488,-9.4519102,-9.2892966,-9.4634043,-8.6934933,-9.1660863,-8.6344917,-8.5313079,-7.838055,-7.8064831,-7.3396376,-6.9868617,-7.0383832,-6.0484113,-5.9786048,-5.597374,-5.4141864,-4.9451417,-4.4827954,-4.4677308,-3.7271708,-3.597623,-3.2287854,-2.8413385,-1.9219007,-1.9185475,-1.2618568,-0.68701568,-0.40966123,0.57794237,0.63894633,1.0652289,1.7937597,1.6738514,2.2342287,3.0237754,2.4064221,3.2334638,3.0767427,3.4425549,3.4744748,3.551292,3.6136268,3.7771406,3.5842698,3.1708151,3.0663832,2.4584414,2.302725,2.1567999,2.5550828,1.6377387,1.9754586,1.9854724,2.3558721,1.8730861,2.1845415,1.9298338,1.9031593,2.0958044,2.308446,2.1175153,2.1653494,1.8937864,1.9830686,2.0757186,1.7626436,1.9963902,1.4737316,1.979707,1.6275218,1.6345151,1.2003479,1.792667,1.0895894,1.7717264,0.98798639,1.4361301,0.89475072,1.5510389,0.74157423,1.1825412,0.75111695,1.0082378,0.57431178,1.1562206,1.0313529,0.32447852,0.80374837,0.70401917,0.82226611,0.902377,0.8730592,0.97627141,1.004663,0.89825149,1.4574157,0.6272932,1.33321,0.76441771,1.2974605,1.0940474,0.83013558,1.1652509,0.91915159,1.588655,0.97228199,1.3837729,1.0952465,1.3695562,1.5224721,1.4861832,1.5091132,1.6073462,1.8550141,1.6680911,2.1369687,1.8274165,2.0916656,1.6787265,2.0005371,1.7761927,1.8523057,1.6506441,1.4241234,1.6851069,1.6384224,1.8032824,1.4821897,1.4740858,1.8622922,1.5301914,1.8821896,1.4204736,1.6569766,1.3797642,1.3908491,1.2897471,1.0318576,1.1374434,0.97626564,0.81749369,1.0022182,0.15704365,0.44409012,0.44946566,-0.22619351,0.4212669,-0.4019446,0.20848563,0.0027012291,0.078113221,-0.028877562,-0.061450202,-0.5740625,0.021680315,0.14451562,-0.1950984,-0.04793656,-0.017716391,0.15943655,-0.46585739,0.2419351,-0.016314229,-0.19372101,-0.25756657,0.11181113,0.06487299,-0.24322238,0.20147917,0.035058952,0.42295428,0.1080035,0.41726587,0.0086808238,0.48508698,0.15530277,0.43906246,0.2516488,0.18961069,0.46791011,0.099543493,0.61790655,-0.018852704,0.38300096,-0.18782959,0.35207349,0.021845473,-0.10788392,-0.048252488,-0.39886047,0.1658463,-0.34581002,-0.56811358,-0.72351428,-0.54533032,-0.73687065,-0.88028328,-0.60830043,-1.2306536,-1.1165836,-1.0905405,-1.2969537,-1.4871539,-1.9029885,-1.7298189,-1.9077097,-1.982845,-2.4610159,-2.1060184,-2.5911698,-2.3294534,-2.5609085,-2.7779857,-2.2555771,-2.8796641,-2.2957436,-2.4848086,-2.4487,-2.5530391,-2.5938116,-2.4718079,-2.5260319,-2.1437394,-2.906,-2.5262628,-2.6708068,-2.6466113,-2.8756297,-3.4187272,-3.1075029,-3.0463646,-3.2059596,-3.3960546,-3.7554797,-3.3056051,-3.6631469,-3.439879,-3.9571223,-3.8575725,-4.1163057,-4.0393429,-3.7571777,-4.3525971,-3.8964212,-4.3142066,-4.1413132,-3.900428,-4.171219,-4.2207814,-4.3033795,-4.2415419,-4.0196881,-4.2129994,-4.5409469,-4.1503585,-4.2816389,-3.8083836,-4.3531405,-3.7593338,-4.337602,-3.566509,-3.7624111,-3.3279051,-3.7073249,-2.6877932,-2.9726078,-2.385377,-2.3213621,-2.054302,-2.0977501,-1.7793877,-0.83981658,-1.5489657,-0.99826801,-1.2210106,-1.3926107,-1.1149677,-1.4212256,-1.1123579,-1.0388889,-0.64679125,-0.10772654,0.4147536,0.80156118,1.9143896,2.0847906,3.522096,3.6754407,4.1791273,4.8536565,5.1803766,5.7055275,5.9155812,6.3276643,6.1889248,7.1934369,6.8044254,7.5144689,7.0901094,7.1730567,7.2415892,7.0842306,6.8980908,6.7543046,6.2926833,6.3065262,5.6370871,5.6326813,4.478732,4.5701358,3.7888332,3.6208584,2.6418912,2.2158137,1.532497,1.0635085,0.80364897,-0.093284368,-0.39393091,-1.2211509,-1.6379314,-1.8041557,-2.4913441,-2.1785347,-3.6864533,-2.8532838,-4.0464613,-3.421048,-4.5456654,-4.4041989,-4.9270273,-4.6730496,-4.8186727,-5.4395311,-5.2383141,-5.2568571,-5.3397557,-5.299434,-5.6222969,-5.302561,-5.4411052,-5.4090949,-4.5881718,-5.0632058,-4.5825603,-4.7022076,-4.0058243,-4.2505231,-3.49596,-3.6960076,-3.0791141,-2.6808892,-2.4090871,-1.8891295,-1.8433511,-1.0256393,-1.0046279,-0.32271516,0.067420001,0.22654788,0.89602256,1.3480521,2.0648197,1.7953512,2.8375813,2.6273825,3.4957376,3.4878613,4.2721212,3.7700329,4.6799506,4.7545208,5.3946634,5.5023675,5.7528184,5.5523716,6.0055888,5.7185004,5.6570597,5.4118453,4.9548698,4.6501215,3.8383668,3.7045934,2.5097112,2.0833166,2.1187674,1.4474023,1.7197108,1.2362774,1.1546958,1.52186,1.3305161,1.6490278,1.3396794,1.340944,1.2155213,1.5296391,1.0934397,1.2927347,0.78643301,1.15264,1.2513944,1.3535598,1.2813632,1.4171497,0.98030583,1.9613734,1.3030354,1.9578917,1.3806654,1.779214,1.742634,2.1232051,1.9725406,1.957798,2.0116043,2.3469612,2.2440729,2.3976996,2.3006331,2.6132576,2.2409999,2.9070283,2.5450865,2.5399807,2.7171323,2.4926549,2.931781,2.8068252,2.4922862,3.1075703,2.830837,3.3457609,2.712452,3.0861849,2.7095756,3.3279821,3.0414393,3.0310951,3.0254865,2.7465502,3.0329752,2.8769831,2.5927011,2.4773975,2.0663834,2.3762487,1.8445567,2.0143776,1.2514509,1.5838975,1.3875298,0.86713026,0.73873984,0.43404234,0.051218614,-0.30468334,0.05560776,-0.6939003,-1.0473799,-1.1858018,-1.2696733,-1.4251686,-2.0782827,-2.4689856,-2.584978,-2.8397041,-3.0562657,-3.4086161,-3.5492592,-4.1801417,-3.9328977,-4.4072572,-4.5503929,-4.8772702,-4.9878069,-5.397897,-5.0203337,-5.5958627,-5.5992852,-5.7334949,-5.8805868,-5.7160305,-6.148367,-6.1253974,-6.4089595,-6.1910525,-6.6996026,-5.9873424,-6.9683215,-6.6517611,-6.9421277,-6.5272938,-6.8944005,-6.946276,-7.3011657,-6.9822377,-6.7534326,-6.9436514,-6.6019568,-6.9306231,-6.5180951,-6.4058456,-6.2908551,-6.1823755,-6.8755602,-5.6478291,-6.5548708,-5.3787606,-6.2810885,-5.2535974,-5.6978239,-5.1127626,-5.3307855,-4.8802398,-5.4894752,-4.363798,-5.1355661,-4.3010569,-5.0730206,-4.0598228,-4.6159944,-3.5724568,-4.3605119,-3.675696,-3.9995936,-3.3005964,-3.282368,-2.722198,-3.0966367,-2.6537673,-2.9251208,-1.6241469,-2.1167338,-1.5629012,-1.5544666,-1.2784879,-0.7594236,-0.51561562,-0.36818887,-0.24557852,0.039151058,0.49376874,0.85025769,1.0800066,1.0358517,1.5411343,1.8140566,1.9219786,2.225718,2.0343633,2.3940287,2.8294043,3.0034851,3.2975344,3.3315635,4.0081849,3.7044221,4.636211,4.1473788,5.1164675,4.7586791,5.5780205,5.7496326,6.167673,6.1279329,6.6040188,7.3364216,7.0614908,7.4656958,7.455721,7.8461308,7.7344138,8.0955451,8.105784,8.3281312,8.1210969,8.622969,8.8006194,8.9694084,8.6259407,9.3354356,9.2089498,9.2260948,9.7062184,9.2636305,9.4629061,9.6875624,9.3395503,9.5113606,9.4628055,9.3234582,9.2818688,9.1020948,9.2643962,8.7945406,9.0685826,8.4054292,8.9975686,8.1845878,8.1097344,7.7562979,6.9264106,7.2116803,6.2326313,6.1824563,5.784138,6.0117787,5.5817088,6.5171283,5.6740817,7.2637554,6.436456,7.80257,7.6471403,7.6976727,8.7378499,7.9783915,9.3364977,8.4876831,9.1038703,8.4040224,8.6739918,8.2906804,8.318022,7.6608436,7.3453122,6.9996376,6.5021227,6.2820123,5.4217329,4.9593592,4.4844529,3.6164802,3.5769389,2.3861419,2.0849519,0.86077035,0.82236022,-0.63692771,-0.41935307,-1.9596013,-1.9837162,-3.4321866,-3.4264879,-4.6049828,-5.1874262,-6.0367756,-6.3043794,-7.4697463,-7.6449021,-8.5057784,-8.6984728,-9.4376036,-9.6675244,-10.432198,-10.710287,-11.535116,-11.613952,-11.823087,-12.446677,-12.356288,-12.775996,-12.834539,-13.067253,-12.941592,-13.391373,-13.674077,-12.969839,-13.254725,-12.454017,-12.956579,-12.034613,-12.102523,-11.517441,-10.919902,-10.914397,-10.372406,-10.268398,-9.226541,-9.2531154,-8.3293731,-8.4662032,-7.3571479,-7.1203828,-5.8222496,-5.3996687,-4.7755683,-4.0629503,-3.0638019,-2.4735348,-1.3910415,-1.2700564,-0.55547801,0.20266782,0.6726912,1.2370894,1.6347364,2.0900622,2.8177524,3.1265491,3.3005565,3.3551514,3.873173,4.0155549,4.4066722,3.8580829,3.922058,3.2501455,3.5113615,2.9515155,2.1345597,1.7167807,1.9762519,0.99335485,1.684999,1.0014457,1.6327638,1.2771467,2.0138266,1.8956245,2.2374782,1.8401584,2.4422312,2.1673808,2.6912775,2.7327088,2.265375,2.8765705,2.4816512,2.7009622,2.4849566,2.5869405,2.1660278,2.8813748,2.4485469,2.485913,2.5593328,2.2101441,2.2414095,2.2922335,2.2268684,1.7855006,1.6360445,1.4677395,1.6068976,1.11134,0.9916567,0.83738433,0.58270734,1.067171,-0.0108743,0.39855438,-0.34172529,-0.042281566,-0.71200193,-0.21999023,-1.1267162,-0.5524487,-1.1594925,-0.67649646,-0.99595534,-1.0527857,-1.3215252,-1.4877296,-1.6630768,-1.7539192,-2.0706664,-1.8527034,-2.2886752,-2.0702429,-2.2765294,-2.727422,-2.4401701,-2.9202799,-2.286693,-2.6537942,-2.3106702,-2.7341297,-2.1866401,-2.1624973,-2.5628071,-2.1538605,-2.8381334,-2.5958705,-2.4779093,-3.1706288,-2.4687539,-3.3079129,-2.7703315,-3.2441791,-2.5489348,-3.2416445,-2.4947804,-3.1325702,-2.2648174,