ConstAcc,0.5,0.41356,-34.97641,-38.12879,-39.6316,-39.65879,-38.37585,-35.93998,-32.50028,-28.19787,-23.16613,-17.53082,-11.41026,-4.915522,1.849417,8.787501,15.80842,22.82845,29.77025,36.56275,43.14091,49.4456,55.42342,61.0265,66.21237,70.94375,75.18841,78.91898,82.1128,84.75172,86.82195,88.31387,89.22189,89.54426,89.28287,88.44314,87.03382,85.06678,82.55691,79.5219,75.98209,71.96027,67.48156,62.5732,57.26437,51.58607,45.57089,39.25287,32.66734,25.85071,18.84035,11.67436,4.391461,-2.969233,-10.36835,-17.76643,-25.12413,-32.40235,-37.30062,-40.231,-46.77752,-53.36222,-58.02554,-62.63276,-67.18649,-73.22196,-79.08174,-84.79645,-89.02622,-92.58365,-95.6814,-98.48784,-101.2436,-104.0097,-105.5358,-106.2535,-106.4161,-106.0485,-104.8468,-102.4521,-99.28753,-95.20111,-90.88959,-86.1865,-82.00442,-78.21142,-74.2317,-70.38818,-66.18533,-62.14021,-57.81061,-53.76655,-50.3139,-47.35725,-44.97973,-43.00975,-41.15701,-39.605,-38.59182,-37.96825,-38.35724,-39.2699,-40.51208,-41.74136,-43.00817,-43.8985,-44.4713,-44.73319,-44.52068,-44.84078,-45.17123,-45.36039,-45.57881,-45.62416,-45.45241,-45.12216,-44.45072,-43.46254,-42.51286,-41.64669,-40.64757,-39.28264,-38.05079,-36.53849,-35.25397,-34.14539,-32.57417,-30.83414,-29.25756,-27.82242,-25.90704,-23.9369,-21.90515,-20.02013,-18.54103,-17.05406,-15.45371,-13.63304,-11.57066,-9.60518,-7.766481,-5.978406,-4.027851,-1.842412,-0.1361685,1.52814,3.182754,4.914,6.138811,6.672091,7.61281,8.746866,9.934817,10.94361,11.68441,12.57816,14.34206,15.97245,17.5862,19.04463,20.45434,22.39508,24.67109,26.89394,28.7444,29.78106,31.27386,33.60689,35.71471,37.01675,37.8729,38.6548,39.83155,40.89498,41.6789,42.40638,42.81285,42.7425,42.26503,42.11084,41.9685,41.86595,42.59829,42.56961,41.83975,41.12796,40.33265,39.51287,38.75662,38.63427,38.00436,37.42085,36.96998,37.06907,36.7477,36.05383,37.06369,37.9712,38.49533,38.51777,37.83517,36.33746,35.89298,35.9292,35.96914,35.89968,36.1267,36.41475,36.72011,36.51843,36.62471,37.03643,38.0592,39.30642,39.93809,40.22687,40.58018,40.56047,40.51237,39.62708,38.41913,37.38314,36.66741,36.47122,36.19753,35.98278,35.78445,35.47549,35.50397,34.94526,34.50315,33.84594,32.9654,32.49855,31.81508,30.69454,29.75703,28.46022,27.15782,25.97649,24.84884,23.33957,22.14196,20.98926,19.54521,18.04915,16.60705,15.78629,15.07446,14.44055,13.79343,13.61814,14.24902,14.58936,14.45651,13.89056,12.7408,11.64717,10.80518,10.48576,10.3553,10.3575,10.76246,11.09794,11.79639,12.93541,13.67433,14.66785,15.37992,15.60078,16.56853,16.62963,16.77758,17.44932,17.68194,17.42558,18.18453,18.16042,17.18983,16.34724,14.51776,13.02131,11.70307,9.618747,7.851982,6.020759,4.600128,3.912118,3.758934,3.351847,1.359898,-1.358486,-5.006068,-9.391954,-13.72366,-17.66476,-22.24448,-26.46484,-30.64181,-33.42973,-38.0188,-41.47283,-44.13552,-46.26519,-48.24858,-51.2627,-53.54289,-57.69025,-62.20768,-66.63376,-70.79093,-74.08255,-76.26053,-78.40264,-79.70946,-80.71517,-81.66989,-82.65784,-83.06507,-83.24225,-83.42922,-83.36211,-82.81583,-81.76213,-80.44324,-78.70857,-76.91238,-74.72401,-71.90971,-68.26744,-64.35494,-60.45673,-55.95516,-51.22447,-45.83612,-40.46234,-35.01232,-28.75181,-21.38909,-14.67197,-7.499258,-0.3979759,6.5278,13.94892,20.67967,27.23743,33.98737,40.4921,47.96165,55.01505,61.45431,68.16104,74.91958,81.55825,88.52236,94.78889,101.1442,107.7407,113.3635,118.8223,122.8281,126.5837,130.0374,133.5192,136.814,139.8525,142.3073,145.8474,149.7365,153.2081,155.9215,158.6133,160.3922,162.2083,164.3514,165.7919,166.2496,167.0733,167.1186,166.7614,166.698,165.3373,164.7467,164.5887,163.6693,161.7517,159.5461,155.8825,152.5781,149.7078,146.2069,143.3142,139.9768,136.7679,134.5921,132.8084,130.7126,127.9247,124.6045,120.4532,115.9864,111.6331,106.4192,102.2153,98.07827,93.94606,89.36289,85.49059,82.61484,80.88124,78.60026,77.32916,75.48492,73.31555,70.77492,67.14321,63.87195,60.00591,57.62114,56.57444,55.29509,53.70883,52.95112,51.72666,51.13054,49.81139,47.35655,45.04482,43.02703,41.74644,40.36895,38.93231,37.21454,36.35588,35.83105,35.13553,34.5388,32.97726,31.07259,29.80394,28.08653,25.98773,24.48949,23.27252,23.35486,22.82331,22.36677,22.39768,22.57475,22.75054,22.58584,22.62014,21.17277,20.56123,20.74757,19.81801,18.39448,17.37415,17.2051,17.37226,18.64912,19.81591,20.50293,21.03492,21.7858,21.77275,21.61421,21.02545,19.08088,16.49309,14.15859,13.07091,12.62062,12.80684,13.27304,14.10057,14.26485,14.52907,14.1409,14.51343,15.10235,15.38514,15.27058,15.86549,16.35472,16.37063,15.74724,14.94205,13.79073,12.15238,11.04796,9.507884,7.191015,4.145244,1.157776,-2.782127,-6.986499,-10.16388,-13.36085,-17.20687,-22.24432,-28.58312,-35.81786,-42.84982,-49.24138,-55.23832,-61.88485,-68.92856,-76.25086,-84.05265,-91.43588,-99.18897,-107.691,-115.335,-123.1269,-130.308,-137.185,-144.1242,-150.5838,-155.8166,-159.6575,-163.7184,-167.371,-171.3847,-174.7162,-178.4847,-181.0314,-183.3049,-184.8735,-186.9263,-189.4222,-190.8197,-192.0171,-193.7414,-193.9245,-193.6589,-192.4423,-190.7133,-189.1507,-186.7352,-185.9736,-184.2565,-182.1822,-179.7113,-176.1405,-173.0441,-169.5919,-166.4953,-163.1985,-159.8717,-158.4009,-155.9557,-153.3295,-150.962,-149.0047,-147.1013,-144.339,-142.6144,-141.4052,-138.8881,-137.2817,-135.3425,-134.2128,-132.2237,-130.1349,-128.8632,-126.7626,-124.7084,-122.7149,-119.7407,-116.6104,-113.5141,-110.7643,-108.7155,-106.8265,-104.94,-103.4646,-102.4732,-102.4515,-101.514,-98.34606,-94.91711,-92.34223,-89.75875,-87.02462,-84.41066,-82.70809,-80.98975,-78.66004,-75.89494,-73.50393,-70.67968,-68.52803,-66.46068,-64.77941,-62.71669,-59.7541,-57.09373,-54.284,-51.68201,-48.94642,-45.87123,-43.2008,-40.56271,-38.10531,-35.5256,-32.54467,-29.11659,-25.90539,-24.24739,-23.26727,-21.53753,-19.10415,-15.87496,-14.0761,-12.1619,-10.68432,-7.879332,-5.124764,-3.312053,-2.371447,-1.983136,-2.528297,-2.579406,-3.646859,-3.477343,-2.25469,-1.852386,-1.629616,-1.31061,0.2414442,-0.3122694,-0.8530645,-3.535902,-4.367476,-4.787002,-3.305182,-3.211606,-4.029228,-6.640659,-7.880676,-7.630074,-7.982784,-8.415633,-7.901548,-6.010751,-4.546133,-4.197874,-6.029787,-7.318776,-7.46989,-5.364727,-4.207606,-2.754009,-1.733045,-1.682874,-1.623844,-1.848223,-4.946989,-7.917183,-11.80423,-13.83488,-15.72918,-18.82862,-21.08972,-22.36658,-23.37754,-26.53878,-29.26122,-31.0645,-32.43109,-32.55891,-32.81508,-34.75027,-36.27004,-36.97009,-37.95848,-37.80203,-38.43303,-38.3612,-37.33715,-36.79746,-36.15753,-35.69043,-36.8725,-38.17702,-37.773,-34.38785,-30.53523,-26.163,-23.45451,-20.74949,-19.67732,-17.04261,-15.77581,-13.45269,-11.90726,-8.786213,-7.354485,-5.860768,-4.726715,-2.669269,-0.3134558,0.685466,1.247712,1.94732,3.986004,5.004518,5.687139,3.88439,2.948,3.151142,3.440342,1.173484,0.7980471,0.9868411,2.446123,3.566375,3.495226,1.23318,0.6040661,0.7536012,1.158913,0.7211625,-1.425431,-1.285469,-0.6268263,0.7127167,-0.1038501,-2.731916,-5.41235,-6.081934,-7.965043,-9.729194,-11.48661,-10.73298,-10.90974,-11.98756,-13.85628,-15.71858,-15.87864,-16.58361,-16.64489,-17.75403,-16.62351,-15.74822,-14.72597,-16.00626,-17.07544,-18.75632,-18.54701,-16.77211,-14.16191,-12.77794,-9.849742,-9.345661,-8.105797,-5.719408,-5.216227,-3.634974,-1.421521,0.2238267,1.206231,2.657578,2.54082,2.773537,4.760084,6.329579,6.307424,5.359411,4.941771,5.47044,7.261964,8.177379,9.850103,9.940956,9.516782,9.578256,11.7681,13.26405,14.63514,14.6727,14.9912,14.70011,15.10433,15.62124,15.02303,15.16733,14.58535,13.88792,12.89664,11.71852,12.7524,12.54771,10.42542,11.07816,14.00983,16.98424,17.9229,18.00702,15.8452,15.64981,15.92489,17.72622,18.35842,18.57277,17.82711,18.97087,19.37232,19.71668,18.77934,19.51491,20.57551,20.01545,21.36766,21.71604,22.30635,22.598,22.68582,21.30413,22.83333,23.81995,25.23856,25.48299,27.56225,27.11074,27.23065,27.00631,27.223,28.60496,27.79886,27.99874,27.98403,28.01411,27.87947,27.69553,28.17778,28.73018,28.5872,27.26318,26.51935,26.10427,25.49954,26.27315,27.73913,28.64682,27.64289,27.12273,26.36078,26.21684,25.74847,24.66992,24.33351,24.67483,24.78616,22.36144,20.56396,19.47711,19.80414,19.87113,20.20565,20.90312,21.08902,19.92304,20.21985,18.84345,18.74368,18.80624,17.39486,17.61851,16.93222,15.78328,16.5481,17.25179,17.21618,16.93742,17.04438,16.39655,16.37079,15.60186,15.56531,14.39836,15.3701,16.93023,17.24323,16.63028,16.16962,16.83177,17.21019,17.35936,17.05601,16.42822,17.22651,17.16101,19.13142,19.27733,19.84946,18.83774,19.18717,19.8073,20.1211,19.86502,21.05502,20.58455,20.96093,20.81429,20.59139,20.58273,20.48832,20.82582,21.23012,21.52627,21.77553,21.72588,22.69743,21.66657,20.83992,21.01943,21.39326,21.07686,20.34405,20.2462,20.10306,21.60445,21.91694,19.90966,18.6,20.02572,21.54116,21.61532,22.50016,21.62289,21.13529,20.75237,21.58182,20.72652,20.19932,20.16482,19.97767,19.89357,18.42016,19.30067,18.63042,18.97831,18.75727,17.9301,17.98059,17.30306,17.32518,18.14553,19.07073,18.14196,17.88585,18.71337,19.27351,19.87833,18.11363,17.17136,18.07147,18.64508,18.17793,17.69457,18.17858,17.66647,16.8621,17.0356,17.48209,17.6977,18.28332,18.51226,17.82658,17.26503,16.63204,16.73994,17.47713,18.1651,17.09753,17.05036,17.52708,17.12569,16.38212,17.388,18.40679,17.56469,17.86532,18.03806,18.13954,18.44157,19.29082,19.92631,20.13426,19.4342,19.84848,19.95931,20.9801,21.2515,20.56408,20.36653,22.42547,22.5757,22.71039,22.57822,23.6277,25.35829,27.00531,26.46877,26.13073,25.67701,27.13224,27.92297,27.46884,27.51323,28.72705,28.28434,28.5583,28.07285,27.61457,26.97053,27.69381,29.82462,28.81753,26.66629,25.09391,25.62315,27.88387,27.06217,25.97839,26.24861,26.05385,26.71991,25.3955,25.55112,25.39614,25.69607,25.34445,25.95554,27.77351,27.69796,26.59076,26.09637,25.29874,24.00828,23.63629,24.33604,26.04107,26.61223,24.90922,23.64687,22.72827,21.6758,23.74247,22.29131,19.61855,17.89646,16.96072,17.33945,17.0824,16.8257,15.14676,15.07546,13.48601,11.98453,10.32433,9.831359,8.137495,7.161422,4.919676,4.000802,2.664328,1.324915,0.3277982,-0.6533162,-2.132508,-3.05414,-3.838309,-4.56138,-6.798806,-9.147473,-11.82779,-12.57075,-13.59414,-13.56739,-15.68225,-17.18875,-18.45651,-19.43095,-21.36588,-23.45285,-23.65836,-24.90071,-23.78485,-24.62576,-26.72586,-29.12573,-28.21391,-26.77763,-26.86796,-28.17581,-28.98057,-29.96026,-29.55311,-31.00309,-31.10704,-32.43581,-32.81215,-32.98662,-34.45517,-34.1771,-34.64544,-35.57063,-34.43027,-34.07863,-33.55173,-33.74048,-34.50123,-33.81405,-34.07128,-33.63105,-34.07019,-33.18531,-31.55027,-31.39789,-32.01099,-32.57134,-32.12436,-29.83766,-29.96663,-29.44453,-30.0367,-29.64753,-29.12067,-27.96586,-27.68875,-25.57523,-25.21,-25.68449,-23.93834,-23.16869,-24.44155,-22.93218,-21.99466,-19.08093,-18.82351,-17.83318,-16.234,-15.39486,-14.12016,-14.38389,-11.74137,-10.48565,-7.921866,-5.959415,-3.553731,-2.817177,-0.5056087,-0.2301836,-0.6150107,0.08462704,0.3135953,2.519482,5.326967,4.293675,5.525554,5.303534,6.591331,8.277001,8.429493,8.260069,7.29809,8.813986,9.277338,10.79411,10.23758,9.844207,9.191741,9.880688,10.52333,11.68187,9.850443,10.16072,10.47554,10.7453,9.077344,9.262806,7.579031,7.294589,6.648623,5.386424,3.89214,4.991688,4.576338,5.685905,2.695886,2.499652,1.932994,3.220027,3.43835,3.295277,3.435936,3.003036,4.444971,3.549728,3.857625,4.177648,5.439959,6.113558,7.440951,7.082367,6.367432,6.650729,7.748943,8.776997,9.30797,6.632272,7.675321,10.01946,9.387526,9.841789,8.572009,8.685527,10.23841,12.32166,11.9227,11.58658,10.66064,11.249,12.35501,13.63467,13.07253,12.46583,13.69366,14.34611,14.5781,14.18982,13.45327,14.70107,14.02174,14.06632,12.81226,13.06916,14.01159,12.55375,12.1592,10.57227,9.967057,9.523474,10.28072,8.55211,8.357283,8.526626,7.283736,6.625226,5.277816,4.614519,2.86451,3.634546,5.259577,5.730846,4.414374,1.76991,3.000785,1.581341,2.10387,-0.197104,-1.652382,-1.955749,-0.8047121,-1.424822,-2.128833,-2.039652,-3.175328,-2.178422,-1.513307,-3.796117,-3.969962,-3.934464,-3.399164,-3.29768,-3.504712,-3.111239,-2.774022,-2.665184,-2.958845,-3.467341,-4.605549,-2.541632,-1.78528,-0.5059227,-2.987167,-3.592754,-2.733219,-1.199511,-1.224961,-0.6390088,-2.081418,-1.377775,-1.07702,0.3221114,-0.07931534,1.10063,0.4449376,1.973846,1.273708,2.179508,1.245134,3.560531,3.492026,3.838382,3.046397,1.750103,2.615635,2.727914,4.208838,4.582543,4.065437,3.796727,5.536806,4.517794,4.23917,4.710182,4.202342,4.711091,4.454182,4.237164,5.392294,4.339715,3.283654,4.19961,6.106471,4.736967,6.449231,5.301019,4.954405,4.755318,4.076648,3.939664,5.799648,7.180606,5.493533,5.064996,6.384034,8.03364,7.798578,8.860926,7.852022,7.955658,8.353724,9.983998,10.59885,10.05048,8.892806,9.079003,9.010084,9.771376,10.47451,9.801251,10.58598,10.98063,12.92784,11.42437,10.09263,11.37518,12.77903,13.74496,12.69868,14.09999,13.91048,16.05133,15.42205,14.69749,15.4776,15.66424,17.19888,17.22876,17.06104,19.09972,18.5024,19.84998,19.09027,17.52899,18.24787,18.07133,18.99086,17.09741,17.46036,16.11951,14.52403,16.26089,16.07581,13.90754,12.71036,11.66134,12.67714,11.95001,10.39724,10.20598,7.856525,8.681321,7.176412,5.452895,4.051731,3.581737,2.104477,2.974699,0.1007816,-0.3740824,-1.532956,-0.842149,-2.657827,-4.845606,-7.468075,-7.246283,-8.074821,-8.47651,-8.314029,-9.057467,-12.02667,-13.40363,-13.25273,-14.73054,-14.47024,-16.04516,-15.75469,-16.44052,-17.73478,-19.877,-18.77995,-18.67158,-18.94203,-20.19504,-21.5041,-19.90373,-17.91554,-18.01588,-18.95624,-19.29072,-17.33392,-16.08985,-15.29966,-16.52532,-16.90536,-18.02909,-16.53947,-15.70732,-16.07387,-16.54328,-15.01238,-14.65375,-14.17758,-14.20688,-14.16071,-14.36097,-14.38444,-14.23204,-14.35777,-14.75526,-14.22785,-14.57328,-15.21731,-17.57867,-17.68613,-17.59319,-18.04743,-15.70121,-16.0006,-18.87982,-18.78915,-17.12602,-15.34722,-17.27744,-18.41393,-17.81111,-17.08982,-14.5068,-14.89616,-14.18243,-14.54251,-12.5557,-12.84315,-11.82451,-12.03925,-12.3173,-11.68069,-9.831132,-10.04318,-8.949846,-10.69085,-8.200053,-9.151487,-8.797469,-6.978722,-8.438668,-5.802085,-5.589352,-4.156004,-6.199293,-5.00772,-2.752296,-2.641516,-2.012447,-0.5275432,-0.754719,0.5905798,1.121925,2.146695,1.461218,1.671799,3.421445,4.482612,4.555248,2.95012,3.433676,5.006517,6.591874,5.391301,5.006395,3.673699,4.700757,4.494335,4.800027,4.468147,3.87678,3.26104,4.071641,5.885409,2.627278,0.5725022,2.409369,1.870739,0.4056848,-1.261776,-3.934922,-2.311851,-3.79283,-3.044611,-4.692891,-5.925103,-7.059587,-7.22882,-7.274356,-8.344102,-8.519751,-9.460901,-9.330677,-8.584026,-9.352926,-11.69587,-12.42466,-11.98532,-10.99052,-13.12601,-13.33375,-12.50097,-12.37762,-12.50199,-12.01037,-12.73229,-12.83707,-11.36823,-13.39631,-12.27772,-11.95218,-11.43421,-11.1261,-10.20208,-11.74701,-12.00848,-12.5903,-10.6994,-10.27907,-9.329347,-11.67429,-8.964239,-7.962675,-9.217671,-9.0875,-8.430634,-8.320679,-7.190355,-6.821155,-6.059952,-6.86188,-4.734234,-4.005251,-5.392751,-4.134954,-4.542514,-4.333126,-2.152499,-1.836145,-3.57588,-3.653767,-1.835146,-1.579678,0.7205795,-0.2567921,-2.039879,0.1545559,0.3424595,1.49725,1.507697,-0.4226117,1.287943,1.611088,1.981034,0.7823494,0.9740504,2.069309,3.304224,4.601939,2.473562,2.092593,1.382713,2.580821,4.137867,3.26848,3.712334,4.164485,4.013985,5.263939,4.894335,6.003067,7.550328,6.307552,7.488662,7.334097,7.727627,9.093563,9.790077,11.25678,12.23176,10.48053,10.98186,14.93557,16.17738,13.2821,13.25431,15.21977,13.47196,16.19275,16.49513,15.15094,17.71291,17.10046,18.2253,16.58693,16.2775,14.80036,15.05303,17.92077,16.47987,14.35062,13.82022,14.49319,15.74961,13.68698,12.77369,13.58659,15.14531,15.29881,14.70264,14.80834,13.84966,14.56494,15.77067,16.81144,14.75532,14.45061,14.94947,15.14257,17.6551,16.79613,15.31503,16.36707,17.61206,18.79044,19.24239,17.78613,19.45807,22.05542,21.76199,20.07167,21.78819,22.30926,22.88202,23.77936,23.20513,25.30623,24.28367,24.16611,25.99255,26.00919,23.86126,23.69423,26.38468,27.64828,25.19074,25.74804,26.37,28.28514,26.00303,25.9427,28.46398,26.90105,29.30561,26.71836,26.32515,26.16941,26.40118,26.19812,25.56197,25.89693,25.46289,26.38559,26.94829,27.53513,27.19996,26.20177,25.35853,26.21326,24.681,25.48856,24.18805,25.10332,24.91272,25.60345,24.93701,21.21433,20.86613,23.57847,21.55503,20.60311,18.51357,16.45769,18.62561,17.78369,16.9179,15.60477,13.57916,12.66051,13.96486,10.38032,10.95069,11.34699,8.363952,6.980707,7.594294,6.711592,4.239692,3.398137,1.338999,0.3892534,-0.9459306,-6.743683,-6.433121,-6.548587,-9.429477,-12.95358,-13.00949,-15.11325,-17.56626,-19.1217,-22.26813,-23.23051,-23.18505,-26.39026,-26.62004,-27.31241,-29.32718,-32.28957,-30.81961,-32.50439,-36.12049,-36.5264,-36.54795,-36.65114,-39.64865,-40.03887,-40.82462,-39.03812,-39.14566,-39.53786,-40.0648,-40.41227,-38.21921,-37.1921,-38.30722,-38.82484,-37.38405,-35.57841,-34.87147,-32.12712,-31.54232,-33.38713,-32.0539,-28.98917,-26.77358,-28.03821,-27.87378,-24.50735,-21.73886,-22.26297,-24.46297,-20.72528,-18.03968,-18.60097,-17.67996,-16.81316,-17.90647,-15.54134,-17.21154,-14.17647,-16.39281,-19.26694,-19.8857,-18.43762,-19.02693,-19.90045,-21.55284,-20.82332,-19.76801,-18.22479,-21.95768,-22.51703,-23.48836,-22.59878,-23.49017,-24.89152,-24.44249,-25.04944,-25.90878,-23.60194,-25.62555,-26.64995,-27.74267,-26.8978,-27.62788,-30.27817,-27.24225,-27.93494,-27.9021,-26.68367,-27.13081,-25.27101,-24.37565,-23.54012,-21.57179,-21.97057,-21.56571,-18.53147,-14.74136,-15.16461,-13.12374,-13.12912,-10.77141,-8.181348,-5.451212,-5.879526,-6.037725,-3.0499,-0.3924781,2.0861,0.2099199,0.4709636,3.239209,5.49699,5.514195,6.816676,5.345108,5.933637,10.65082,9.479919,9.241487,11.18663,11.72009,12.43163,14.68085,15.17866,11.47454,12.65689,16.05113,13.83377,13.47952,13.62853,13.07437,12.96793,13.03244,13.81045,11.03292,11.77403,10.8378,12.46558,10.16498,7.942153,7.163431,7.819373,8.410639,7.629331,5.474835,5.738897,7.670569,7.249849,5.13106,4.464849,5.964077,8.755514,8.176863,8.641793,8.350157,8.303522,10.50811,11.65666,12.51667,13.47787,15.07921,14.53121,16.73825,17.1572,17.39598,17.64528,18.53579,20.29766,19.56062,18.97922,18.14809,21.90326,21.72605,22.22315,21.30014,22.07712,22.25578,23.92037,20.75529,20.98635,22.09104,21.87847,22.22911,21.43198,21.6212,21.06725,20.597,21.84345,18.33656,17.7951,15.61146,16.15517,17.36648,15.36766,14.97926,11.42155,13.51767,13.75001,12.79609,10.39795,7.227647,7.650005,10.38343,7.45759,5.20159,3.934871,4.341865,4.358726,4.198799,2.615634,2.631326,0.3998349,2.718676,0.5472178,-1.096559,-1.605342,-2.367452,-1.825087,-3.812192,-4.276152,-6.928675,-4.480304,-6.025883,-5.94657,-7.026235,-6.24801,-5.503612,-6.920234,-5.507516,-6.257793,-6.603369,-6.320298,-5.508083,-5.02671,-6.891152,-6.352431,-5.497809,-5.509668,-4.331812,-5.487827,-7.157072,-4.685053,-4.743621,-6.021682,-7.450373,-7.84496,-6.407908,-6.725605,-6.734774,-8.437197,-7.564424,-6.069086,-7.29289,-7.730135,-6.966256,-7.660848,-6.33558,-6.850969,-6.341545,-7.984431,-7.648606,-6.503847,-5.936022,-6.234194,-8.613956,-8.198448,-7.426634,-7.077546,-5.903439,-7.914464,-7.812617,-9.322446,-7.143691,-6.737897,-8.067711,-7.33728,-8.43142,-6.23042,-8.208733,-10.49606,-9.076055,-8.258065,-9.239583,-7.761738,-8.212823,-9.598607,-10.00798,-7.577874,-9.499178,-8.464084,-9.603533,-10.50004,-8.324109,-7.865733,-8.245467,-9.340703,-10.80758,-9.26457,-7.940549,-8.123523,-9.955871,-9.141295,-7.937353,-9.252792,-8.657015,-10.66408,-8.790257,-8.689932,-9.150891,-9.794807,-9.739631,-10.05957,-6.423694,-8.187926,-9.273777,-9.571013,-9.202113,-7.75443,-9.049672,-8.842958,-11.34445,-12.89246,-11.2644,-12.294,-14.08886,-14.08635,-14.9142,-15.2755,-15.90565,-15.63487,-18.90631,-17.98571,-18.79078,-15.56844,-17.2098,-19.44578,-19.26066,-18.94889,-17.72489,-17.66583,-20.13409,-19.15372,-17.29205,-16.75327,-17.17058,-17.62186,-17.07238,-16.50916,-14.72879,-15.79393,-15.49929,-15.25012,-15.49651,-11.63979,-11.54213,-11.39157,-9.872874,-9.535494,-7.091037,-6.872163,-4.241702,-4.696142,-2.747258,0.35345,1.688088,2.150448,3.534323,4.414306,8.621869,9.210063,9.577415,10.20466,12.74161,14.14288,15.54464,17.43373,18.97299,19.48734,20.11284,21.81525,24.13875,22.93203,25.52431,27.13234,27.83551,28.4619,25.61691,28.87465,28.94742,29.75399,30.15394,30.52325,29.34378,32.06232,29.40799,28.95812,27.78643,30.43939,29.74397,30.03197,28.03385,28.15001,29.80462,30.13465,30.98746,30.16808,29.68096,28.80705,31.45991,30.12706,31.25215,28.62459,30.23003,29.73743,30.93892,28.63541,31.3615,29.74602,33.04886,30.6633,31.92468,30.09241,32.82583,31.20024,30.75292,30.2883,29.60977,30.40778,30.0559,28.49726,26.49605,26.31736,25.61901,26.18344,23.59842,23.3892,20.90083,20.15526,19.94158,18.44956,17.05648,14.16349,15.0037,14.64122,11.30416,10.20187,9.345121,6.89761,6.564375,7.614111,3.13521,3.692225,2.233846,0.8935308,-0.3162072,-0.8027062,-4.39845,-4.668467,-5.205062,-6.650691,-9.028113,-9.305904,-10.93439,-9.803372,-12.11744,-12.22312,-14.93279,-14.8165,-14.6455,-13.78784,-15.36919,-17.5398,-16.90601,-15.76483,-15.72124,-16.18849,-17.08094,-17.33584,-15.20362,-16.65757,-14.57243,-16.27272,-15.42806,-13.87845,-14.26318,-13.1539,-15.43414,-15.77983,-13.34746,-11.39841,-12.2879,-15.98714,-13.28577,-12.28441,-11.45378,-11.31769,-13.52049,-12.96737,-12.05644,-12.71888,-12.2477,-13.46365,-16.20043,-11.94454,-14.06938,-11.41566,-14.19739,-11.74195,-12.8363,-11.82379,-12.40969,-11.48336,-11.16547,-10.43951,-8.782086,-10.59293,-10.47159,-10.90926,-8.616953,-7.719916,-7.449882,-9.640608,-8.294363,-8.932888,-7.280687,-5.276021,-6.087101,-9.161754,-5.404701,-5.883957,-2.930672,-5.397934,-3.870095,-4.481232,-1.223785,-2.534106,0.2391887,-2.49131,-1.720614,-1.362286,-0.4903617,-1.766932,-1.863222,-0.4137174,-1.496958,-0.3947134,-2.406139,-1.561978,-1.549438,-1.609683,-0.8292338,-3.172999,-1.839536,-3.63032,-0.7072037,-2.555391,-1.837361,-4.252714,-3.252559,-1.640927,-4.001463,-3.335567,-5.073871,-3.97007,-4.352443,-4.951765,-4.773346,-6.425147,-7.111531,-4.749659,-6.135175,-4.586792,-8.375143,-6.819077,-4.764044,-5.583223,-7.224375,-6.130202,-6.261821,-5.020749,-6.887951,-4.85846,-6.200988,-5.214116,-5.168586,-3.877747,-4.228933,-6.333378,-4.537288,-4.874142,-3.522065,-5.606038,-4.107423,-3.049963,-3.424729,-4.282325,-3.106919,-4.416293,-2.798338,-2.981054,-3.239113,-2.860331,-1.609134,-1.267948,-0.6978714,-0.4251672,-1.404588,-0.7746443,1.348623,0.08408214,3.681824,2.242054,2.236072,3.797776,3.458547,6.632684,5.178594,5.90343,4.455674,7.875328,7.337881,8.79305,7.472091,8.587092,9.46611,11.38199,11.43633,10.90097,12.13277,13.73783,12.54783,12.22116,10.6498,11.48551,14.32814,13.82452,12.53164,13.40323,15.1598,14.59154,17.01224,16.64374,15.54463,17.59331,18.35554,17.60885,18.62793,14.13176,15.59501,16.63141,17.98985,17.66094,18.05585,17.40021,17.30726,19.55187,18.26443,18.59617,17.43562,18.30766,18.10186,18.64062,18.11805,16.24233,17.9734,16.88553,17.32274,17.26197,15.06181,16.67773,16.13165,15.28455,14.83711,13.56709,12.53692,13.04128,14.84205,9.403497,9.634722,9.209059,8.372621,9.203043,5.695704,5.634492,5.502399,3.580693,3.390188,3.553075,-0.6839111,1.101112,-1.12263,0.7320954,-4.482403,-2.723081,-5.768326,-5.473924,-6.24115,-9.638636,-9.889991,-9.37856,-10.27473,-12.75097,-12.7743,-15.75545,-17.30464,-17.14719,-16.51192,-19.85341,-21.1832,-21.89436,-22.14932,-22.34144,-23.18484,-25.50351,-24.34953,-25.46406,-24.4091,-26.41902,-25.53317,-27.87315,-22.34699,-24.34013,-22.83523,-23.92169,-22.28121,-22.79273,-21.62464,-23.00458,-22.80805,-23.76565,-22.60255,-21.57132,-22.34488,-21.94642,-21.92401,-20.6526,-20.70164,-22.23806,-21.80192,-23.67869,-23.55981,-22.52904,-20.80635,-23.08809,-22.04776,-23.50871,-19.92234,-22.33852,-20.9585,-22.16134,-17.54791,-20.12425,-19.41362,-19.48611,-22.12413,-18.49037,-17.69538,-19.58547,-18.57814,-18.12583,-14.06864,-15.28659,-13.01895,-14.87265,-14.33608,-10.86786,-11.51116,-9.881969,-9.268252,-8.783855,-8.599192,-4.544437,-6.346014,-4.809432,-2.156585,-0.8956382,0.03530698,3.415216,-0.5896492,4.409027,4.484351,5.802276,7.812503,8.23302,8.619375,9.900455,9.71157,10.93848,10.28488,11.48508,14.23947,13.75487,13.36798,13.50518,12.47992,15.52872,17.08802,15.97571,15.08883,17.61299,16.64336,19.55321,17.94895,17.45201,16.03138,19.51428,18.32924,18.76246,16.93922,18.08448,14.88255,17.96168,18.0509,13.21944,15.80842,15.17607,14.03858,14.03602,11.05198,10.51823,10.67598,9.630157,9.866844,6.482337,8.319072,6.758152,8.232072,5.978934,7.370183,4.698538,6.710494,7.15445,4.625137,3.378292,2.811044,2.931408,3.508284,2.546525,0.3795861,-0.3967307,1.804252,0.6470758,0.2045508,-1.609099,-1.772938,-0.1209612,-1.613052,-4.048017,-4.174517,-4.469981,-6.11685,-4.347218,-5.741246,-8.935351,-7.728618,-7.070248,-6.434041,-7.84041,-6.867036,-9.651759,-6.611715,-7.57563,-7.27284,-8.106101,-8.942094,-7.093475,-7.995908,-8.145211,-8.350474,-8.605466,-5.787764,-7.55228,-6.525606,-7.352722,-6.560038,-5.808868,-5.785553,-4.828072,-4.657718,-4.818424,-4.659229,-1.594009,-2.521446,0.5012741,-1.483283,-0.5998182,0.5560663,2.812678,2.407538,1.547247,2.503969,5.326945,5.057575,3.992896,3.016668,4.046745,5.778063,7.544664,3.873135,5.684178,4.234881,5.612658,5.116601,5.588758,4.567146,5.928654,5.565618,4.279758,5.095446,3.477433,3.36666,2.432215,3.378723,1.939707,3.477604,1.055631,1.973845,2.618628,2.13249,2.21196,0.272345,4.612547,2.856254,3.928354,4.905651,2.488828,3.86588,4.166726,6.480168,4.586515,6.598738,4.971968,6.947483,8.05161,9.21166,5.951975,7.84066,10.37837,8.85651,6.099262,11.11699,11.0702,9.693759,13.03487,11.20987,11.63058,13.27521,14.51803,14.41063,15.69803,13.85922,14.35664,15.36522,16.53961,16.64347,16.47206,15.44145,16.22149,16.04282,15.49945,13.86099,16.09731,17.04303,19.10796,17.77771,19.01757,21.37859,19.16274,21.45352,20.80343,21.54962,21.70432,21.95245,24.15032,22.26442,22.93281,22.5038,25.98354,24.23281,23.97177,26.54844,24.37116,24.84551,25.92518,23.82832,22.64633,24.50043,22.6047,24.97326,23.03131,20.99644,23.17132,21.02599,20.69612,19.22383,19.2492,17.90404,17.19101,19.12791,14.22434,17.25316,14.35619,13.92493,13.9405,11.89255,10.22947,9.311027,7.601253,8.067131,6.694282,4.367933,4.991825,3.601744,4.460781,0.2738013,-0.5952354,-2.616197,-3.34985,-4.621119,-5.884157,-8.250906,-10.15787,-8.656556,-12.63756,-14.266,-15.90158,-15.09951,-19.21723,-17.22055,-21.4349,-22.21975,-21.6117,-23.97386,-23.81105,-26.5186,-26.47077,-27.31603,-27.98223,-25.03604,-31.02055,-29.27464,-31.45392,-30.0463,-29.77197,-32.08825,-33.35132,-29.6489,-32.31521,-32.1587,-32.80324,-30.15466,-33.29872,-32.7417,-32.14825,-34.0265,-33.37677,-33.18,-34.70994,-34.76583,-36.82548,-36.10914,-37.61078,-37.15556,-37.45581,-38.24021,-40.14206,-38.97665,-40.90225,-38.92389,-39.40817,-40.4482,-38.81869,-38.01379,-39.02343,-39.12903,-37.74983,-37.30709,-39.95871,-35.74689,-35.4535,-35.45108,-34.66356,-31.21072,-31.0249,-29.36094,-31.12994,-27.17491,-24.94628,-24.8623,-23.4686,-19.30103,-23.6728,-18.02845,-18.31888,-16.22753,-16.76808,-12.82411,-15.73456,-9.428223,-12.06336,-10.31302,-8.778705,-9.810655,-5.766154,-5.222527,-4.983347,-4.317502,-3.431872,2.103073,-2.030458,1.509707,0.3847148,3.056751,2.710355,3.631795,4.043355,4.742652,6.248372,7.720372,7.491933,7.409369,8.273335,9.210124,8.380455,9.790071,10.26377,10.28639,9.811341,10.9136,12.35815,9.845091,9.726675,11.81398,10.58806,10.76668,12.05423,7.995082,7.971125,9.862787,8.090851,6.510449,7.854169,6.007049,6.42639,5.424734,5.515974,3.584499,4.084666,4.047046,3.625312,3.769186,2.797128,1.992543,3.093971,3.307421,4.855973,2.317998,3.366102,4.551665,2.405729,4.725898,3.527853,3.421512,3.150748,4.202776,4.509173,3.92344,3.280029,4.693697,5.075148,6.89735,2.682373,7.769733,5.431513,7.479964,7.844894,8.1872,6.315638,7.903731,9.450104,7.968041,9.601052,7.793383,9.169536,10.97808,10.78345,10.52241,10.35195,11.44863,14.59132,13.03359,13.02931,13.52451,13.15456,16.92338,15.4603,18.97148,16.19724,18.1395,15.85743,19.26693,16.12264,17.48268,14.88542,17.89079,17.06235,16.19186,13.18949,16.70937,15.46855,14.68178,15.57099,14.06616,13.6085,12.85777,14.79469,13.90098,11.85352,14.74131,13.28151,12.93891,14.07242,12.68528,12.73122,13.64621,12.34393,12.10973,9.474118,9.421616,10.70875,9.910858,9.590811,9.767652,9.043304,11.87256,10.11932,9.895276,8.475053,9.578373,10.19704,10.33144,11.26288,10.33879,9.875218,10.31919,11.47687,9.291092,12.78835,11.20155,13.37442,11.47591,12.93141,11.09879,12.17811,13.16505,12.60475,13.38397,10.88458,11.44048,13.90327,11.751,12.87077,11.60033,12.53689,12.04496,14.51288,11.77467,12.54832,12.14068,11.99003,14.64147,12.893,13.89287,10.92322,13.95,14.08264,13.4116,11.22537,13.68334,12.88811,15.27584,13.57591,12.93278,9.77293,12.73493,12.68459,10.98932,13.78635,11.79627,13.53986,13.65678,17.76672,14.93187,14.74847,17.94022,20.161,17.86334,18.42057,18.45179,21.8042,21.47495,20.65413,22.03336,24.37877,24.86076,25.70646,24.56901,21.85792,25.10662,23.5442,26.93388,23.96178,23.2334,24.09796,24.41921,23.38967,19.73838,21.22153,20.1427,19.20434,19.31776,17.85924,15.62505,15.30033,14.03518,14.51293,12.96029,10.41542,10.87602,7.88631,6.845051,8.358547,3.189638,2.776276,-0.9651574,0.06385678,-3.909413,-5.573026,-6.084516,-6.612874,-9.403387,-11.87309,-11.71249,-16.36502,-16.93584,-19.75647,-18.81724,-23.25577,-23.43185,-25.505,-25.24527,-27.9178,-30.51814,-32.05284,-32.41945,-32.54021,-34.51886,-34.0792,-39.25463,-37.66766,-40.98308,-39.16404,-40.97849,-43.68014,-40.58944,-45.07472,-42.6534,-44.44392,-44.48203,-42.5007,-43.8119,-41.71756,-43.89994,-42.86506,-44.50685,-41.401,-42.344,-45.19288,-42.41142,-45.86392,-41.69478,-46.7751,-43.94471,-48.95806,-45.6815,-48.42416,-47.7676,-50.5079,-47.64471,-53.08835,-48.36888,-54.24558,-53.01871,-54.71574,-53.54464,-53.83317,-50.80348,-52.06742,-53.46761,-50.30032,-49.15402,-47.92847,-50.77935,-47.46845,-44.50897,-43.77913,-44.46993,-40.1896,-38.77302,-36.79987,-33.66755,-32.99795,-28.15559,-27.35687,-26.44629,-22.89617,-19.10683,-17.04935,-14.72627,-10.9262,-10.98765,-6.624833,-4.964194,-1.951359,-1.399152,1.223778,5.010415,8.454376,8.697282,13.02626,14.39893,17.68439,19.32034,20.772,21.16497,25.0351,26.33034,26.48591,28.04136,29.11375,29.93813,33.89085,32.1198,33.95444,33.08182,37.7392,35.02103,38.61802,38.85265,37.05589,38.7613,38.08402,39.87417,36.47251,38.31716,38.75854,39.39164,36.83111,36.37043,34.86947,34.8156,35.25178,32.35185,30.86709,32.44716,30.27988,30.07344,29.6413,26.92946,26.66338,25.49886,26.51439,24.89789,24.26977,24.29885,21.58095,25.03637,25.04079,24.0082,24.42828,24.47223,24.73356,22.53203,26.97071,20.41941,24.91604,23.86061,21.3555,24.55975,21.67887,24.38411,21.14762,23.9766,21.11515,22.43732,19.227,21.99897,20.01915,20.59342,15.85891,20.88727,15.48243,18.27596,14.58738,16.90837,14.78175,16.50049,14.42495,14.05409,13.00523,13.6711,13.57604,12.01268,14.78337,11.47002,10.97646,11.52975,11.73738,9.793291,8.72707,7.714064,7.420552,8.052288,4.924456,6.38391,4.681524,4.510224,2.84542,1.593259,1.284433,-2.109348,1.469158,-1.759315,-1.057292,-3.790509,-4.389828,-2.664431,-2.547523,-4.95125,-3.22282,-5.356548,-6.681027,-8.496195,-6.950401,-10.03108,-10.93718,-10.6887,-11.80119,-13.09785,-14.02507,-14.81427,-13.86566,-16.17853,-12.3564,-16.38597,-17.23372,-17.10608,-16.10665,-19.14941,-21.85161,-19.80254,-20.39246,-22.1003,-21.68882,-22.22365,-22.53267,-23.74199,-22.68317,-24.44647,-23.44257,-24.71416,-24.13773,-27.25609,-25.09635,-25.04309,-27.50399,-25.71878,-26.86839,-27.47704,-27.6624,-27.10242,-26.83676,-25.42657,-27.04948,-26.3815,-27.35585,-27.03994,-25.97741,-26.92897,-23.66776,-28.028,-27.12363,-23.68193,-25.64498,-27.28032,-26.72909,-25.89799,-25.75262,-25.10977,-26.73887,-25.5163,-29.61446,-27.42174,-28.36565,-29.43284,-30.41818,-29.50434,-29.5368,-30.72104,-30.59703,-30.98765,-32.38673,-32.01033,-28.69514,-32.43016,-29.59045,-30.27218,-28.37606,-29.93946,-29.30451,-29.83784,-31.69719,-31.30727,-32.26533,-33.40408,-35.70677,-34.11104,-38.37602,-37.32986,-38.07736,-42.13632,-41.36097,-42.74312,-43.83368,-44.09093,-46.48786,-46.24794,-46.44786,-48.14049,-47.65413,-48.84526,-48.43241,-50.61522,-47.70362,-50.31525,-48.6055,-47.93387,-47.42511,-47.82199,-45.30212,-46.2675,-47.15286,-41.57228,-42.22414,-38.96092,-39.41795,-36.28651,-33.84548,-30.21947,-27.02085,-25.3577,-22.78799,-17.88954,-14.02529,-16.5678,-12.91508,-7.248274,-4.602844,-3.409777,2.141226,4.93973,7.933762,9.47854,16.26125,18.13072,22.01414,23.40915,27.26253,29.79386,33.2504,35.31847,36.96962,40.8703,44.28467,46.4109,48.91975,52.96193,54.54327,57.57344,61.01797,61.54976,62.27065,66.86331,66.53803,68.57412,65.76759,71.33934,69.81537,73.7733,73.59711,68.10943,75.03273,72.25583,69.66458,71.80946,69.3315,70.19587,65.11811,65.03551,61.75922,61.40977,56.20689,59.31185,57.71318,58.84682,57.42491,57.99102,59.35203,59.43092,61.68795,61.55613,62.3407,63.25324,66.70984,66.01358,69.18104,66.87752,69.31277,68.24429,69.43814,69.1424,67.78604,68.25293,69.31022,69.21999,65.08685,68.60732,63.99818,67.04841,64.77301,63.69801,63.96293,64.15587,61.7361,61.24308,59.49912,59.23683,55.46421,57.05725,53.21666,50.65387,49.71037,46.9474,45.5292,43.86533,40.84437,36.31007,36.00131,34.43611,31.74853,27.60344,26.5838,23.34371,23.50957,22.43087,16.82807,14.66938,16.60163,10.32044,9.377306,7.603243,4.030328,4.766616,-0.1307136,-1.335976,-4.297504,-4.150656,-8.734137,-9.66524,-10.4533,-11.87914,-15.49285,-15.49811,-16.41808,-18.46689,-20.38833,-21.56979,-23.60792,-22.56459,-23.36242,-22.5053,-25.78822,-23.53399,-22.68252,-23.39875,-19.55761,-20.99148,-21.0327,-20.15313,-17.86273,-16.5587,-18.36648,-13.76175,-17.04206,-15.45256,-13.72797,-11.48796,-13.91478,-10.51774,-11.62167,-12.25852,-12.18202,-15.0887,-11.39815,-14.79717,-13.05346,-16.52485,-18.946,-15.37052,-18.17262,-16.14083,-16.71382,-16.36852,-16.25084,-15.36883,-14.56836,-14.8308,-14.49459,-14.77503,-13.16364,-14.61484,-14.11782,-13.69019,-13.93944,-12.39045,-14.60293,-13.97852,-12.89357,-14.2433,-10.78709,-13.97338,-11.49206,-15.1093,-14.12381,-14.48164,-15.04501,-14.25141,-17.12009,-14.4679,-16.53161,-15.35034,-17.3123,-18.22234,-19.10827,-16.16653,-18.03823,-18.17927,-21.56522,-18.51308,-20.94241,-20.86096,-20.1052,-21.86198,-22.44778,-21.62381,-22.53034,-22.41919,-23.06326,-21.65016,-22.51606,-21.3431,-20.86307,-22.97272,-19.57089,-21.64776,-22.40954,-20.11175,-19.51957,-22.35603,-19.22797,-17.41739,-19.63919,-16.87764,-21.35343,-17.54188,-18.81765,-17.10443,-15.98668,-17.37717,-17.0394,-16.5034,-17.44681,-17.28628,-16.98582,-18.06503,-16.5343,-17.10497,-18.57165,-16.39536,-18.50697,-15.23416,-19.44503,-17.4439,-17.92302,-20.88163,-15.2271,-20.77138,-19.49857,-17.53015,-20.85633,-18.95458,-23.88589,-20.40181,-25.32784,-23.16244,-21.97737,-26.46701,-25.40447,-27.4772,-27.44236,-28.47833,-28.59444,-26.14698,-29.45888,-29.9316,-27.24422,-31.60711,-29.10479,-32.17786,-32.27614,-31.41157,-32.7278,-33.01919,-32.90647,-33.31922,-33.87101,-32.58959,-34.22759,-32.26217,-34.21155,-32.47056,-31.79062,-33.53712,-34.34225,-30.59168,-32.85409,-30.95866,-30.40293,-31.48057,-27.96836,-31.79522,-27.87731,-31.68688,-28.97977,-25.4225,-26.80093,-23.66565,-26.57805,-25.58539,-26.9555,-25.26358,-25.40792,-27.40695,-26.15865,-27.60131,-30.29264,-29.09749,-28.6083,-30.96435,-32.48392,-32.35243,-31.02842,-35.11147,-32.73927,-35.20524,-35.27763,-34.13099,-37.38923,-32.40514,-37.63531,-32.41077,-35.32335,-31.80553,-32.56287,-31.18704,-29.93182,-27.91664,-27.60987,-25.54773,-25.31643,-20.93698,-20.62443,-19.58863,-18.53108,-13.10842,-12.86651,-8.292325,-4.587258,-6.807904,0.7281731,0.4085801,7.179672,6.119095,12.42278,12.33911,15.67257,20.64047,21.86664,25.67082,26.19498,32.07786,30.45649,36.18321,37.06033,38.14347,44.40653,40.78741,46.27068,46.82398,45.0129,49.63456,50.09617,52.63945,52.83027,54.00937,56.28955,52.56705,57.89885,56.08413,58.0207,58.37138,59.71117,60.36564,56.23467,60.14691,57.89396,57.85153,59.20879,55.41031,56.93864,56.91856,55.7896,57.74551,52.34661,53.06579,51.64971,50.64644,48.83887,45.66502,44.08366,44.90678,43.59402,44.46857,43.58659,44.53623,44.32959,44.48514,49.37563,46.16411,49.53213,47.29682,51.90111,52.23735,54.85731,55.8089,55.72677,55.7683,57.29208,55.78896,57.60866,55.03763,57.76893,55.71153,56.74191,55.92918,54.49237,57.49098,53.17615,51.43255,51.53026,49.78503,49.50655,46.51232,46.85382,43.89138,39.81879,44.16356,36.53997,38.72352,33.94789,35.60097,29.1185,31.54958,26.21349,25.0053,21.86149,21.86201,18.70778,15.46994,13.03303,11.88307,8.524806,5.52396,6.347552,1.800326,-0.532383,0.3711636,-3.011305,-4.309169,-6.031922,-9.902981,-8.68329,-13.004,-10.7712,-16.11567,-15.03965,-14.76635,-18.6035,-17.27068,-21.45556,-18.73804,-21.63865,-19.62705,-24.6456,-20.86363,-23.22786,-25.83293,-21.17583,-23.96185,-23.44222,-22.75475,-23.74619,-21.59988,-22.67481,-25.01425,-19.95084,-24.40001,-18.09966,-20.47207,-19.1694,-21.193,-16.63999,-19.01415,-15.06528,-18.26752,-16.88881,-16.45,-17.56975,-14.49487,-17.54601,-15.76281,-17.62463,-14.86217,-20.39842,-18.63069,-20.01328,-20.48404,-19.39633,-21.57851,-18.65644,-17.89627,-19.31717,-15.77987,-18.65949,-16.5433,-15.72948,-17.71968,-12.27864,-18.27772,-12.35794,-16.80227,-12.194,-13.09624,-12.35758,-14.35047,-11.84784,-14.77062,-10.35064,-14.85674,-10.73705,-13.6422,-10.16503,-11.68957,-10.51458,-10.64314,-11.18257,-9.764027,-12.75345,-7.475498,-10.38688,-8.466027,-10.18177,-11.60055,-7.633816,-10.91263,-11.63348,-8.572678,-12.28337,-9.165153,-10.00332,-8.609779,-11.76756,-7.475694,-9.833913,-8.621135,-11.02974,-6.994376,-11.46859,-8.82927,-9.571883,-11.678,-8.442113,-10.87416,-10.5069,-10.55584,-9.742972,-9.165412,-10.80057,-9.385765,-9.944181,-13.3789,-12.26646,-10.64358,-11.46253,-11.89724,-11.8847,-10.90509,-13.35995,-10.59511,-13.27726,-10.76823,-13.18364,-12.14504,-13.02512,-10.63782,-13.20773,-13.19812,-10.60504,-13.06675,-11.95138,-14.14109,-10.47912,-12.51215,-13.20327,-10.77697,-11.07643,-13.88488,-11.03392,-13.08274,-10.22919,-14.56344,-9.488564,-13.88813,-11.96343,-14.19645,-12.49371,-13.95235,-12.39291,-11.93493,-12.92118,-13.12885,-12.59498,-11.69017,-16.68023,-9.923847,-15.16142,-13.04662,-13.6821,-14.61969,-12.88397,-14.72751,-16.42584,-13.77553,-15.57147,-13.87838,-14.56123,-15.27101,-14.59109,-14.71752,-14.7868,-16.4085,-14.4029,-17.48632,-14.82223,-16.25288,-14.19866,-15.47846,-15.33847,-14.38774,-15.04443,-15.60084,-15.52275,-16.2603,-14.664,-14.97612,-11.90153,-14.17563,-11.67022,-10.72373,-12.1486,-11.85985,-14.02813,-13.16576,-10.54763,-17.46283,-11.36369,-16.59002,-14.72964,-15.2399,-16.08748,-13.70964,-19.53929,-14.71836,-20.09311,-17.08255,-19.70296,-16.97513,-21.59795,-17.41466,-20.27642,-17.78622,-17.90621,-19.89299,-17.71159,-13.38955,-17.94222,-13.58087,-17.09619,-12.83777,-12.7926,-15.21372,-9.502184,-9.966021,-8.370338,-8.225394,-4.622551,-5.653004,-2.780127,-3.351616,-0.5491209,1.966154,1.74526,4.14704,5.690573,8.342752,9.576963,10.6164,10.79646,16.2638,13.99189,19.34891,19.05239,17.92037,23.76278,23.31779,25.07688,26.96657,26.32139,29.85762,30.69837,30.8644,33.15075,32.26187,33.83617,37.27848,33.87227,38.23506,37.58407,36.65363,40.73195,38.44843,40.39419,39.09982,38.91622,41.84218,38.40196,40.45652,38.842,37.8687,39.14148,34.3153,38.24521,32.43097,36.0795,32.86025,34.61828,31.83063,32.27763,34.34993,30.69417,32.82134,33.43509,29.62459,35.34914,29.65276,32.84714,31.39763,29.67337,33.81809,27.85693,33.09378,30.34016,30.70326,32.2268,31.26144,35.05481,30.57961,35.12988,30.93373,31.90701,32.3839,29.63264,30.91162,29.55266,25.81999,31.33731,23.59033,26.39612,24.03359,24.25252,23.78796,20.71775,19.50018,19.182,16.77138,13.74552,15.1973,11.41047,11.13268,7.894037,8.642507,6.090819,6.975865,1.976766,4.83919,-0.3468954,0.6418388,-3.62127,-0.9368721,-7.449109,-3.275017,-9.341297,-10.0482,-9.251147,-13.3878,-10.46677,-14.92906,-13.89003,-18.83087,-15.82958,-20.14526,-18.22156,-20.92663,-22.13832,-21.38278,-23.23176,-22.09358,-24.06338,-21.44504,-25.0199,-21.73363,-26.51187,-22.01789,-24.88092,-23.27408,-24.83861,-25.07366,-24.98544,-23.55126,-25.09743,-24.66696,-23.8364,-23.02518,-23.47282,-21.64428,-22.71069,-18.92346,-22.51626,-19.37915,-17.43797,-19.88273,-18.13849,-19.13533,-18.81046,-18.40772,-17.08527,-17.87135,-19.78636,-19.84633,-19.46888,-19.34451,-19.50549,-20.69852,-17.18057,-20.20042,-18.5486,-17.04832,-20.32231,-18.16864,-19.19754,-19.15102,-14.4523,-21.82474,-15.42854,-19.77708,-18.14192,-17.16688,-19.4188,-15.00072,-20.30625,-15.06583,-19.27086,-16.1402,-16.02545,-15.4395,-13.19191,-15.02909,-11.06295,-14.99759,-10.36072,-12.59742,-11.19486,-8.29555,-12.56535,-7.900409,-6.373408,-11.11803,-6.568031,-6.297935,-6.256313,-5.63661,-6.736292,-4.343082,-4.159248,-6.119023,-1.703835,-2.62644,-2.584086,-2.702371,1.114718,-0.8606595,0.7289189,2.435032,-1.6617,3.873466,0.5090896,2.636442,2.835554,5.063694,1.37256,6.569131,2.455334,7.232302,7.519847,5.931238,9.704155,6.758779,7.457794,10.74521,7.215704,10.69862,11.85486,8.991699,11.52122,11.34471,11.63653,12.66371,11.98156,12.44263,12.42666,9.447298,12.40286,12.65483,10.30017,10.86505,8.760821,10.41074,8.540322,10.37091,8.413952,7.489353,11.70351,8.560097,8.131324,10.93923,8.117112,8.972162,9.308653,9.408692,8.608752,8.817088,8.718269,10.11536,8.350037,9.048704,8.754614,10.25933,8.958657,12.31423,9.142346,11.68762,7.883451,13.75145,10.67306,10.77161,12.38558,11.67978,10.85074,15.37923,11.12161,15.55234,13.20198,12.2144,14.25549,12.90297,14.32998,13.2918,13.40344,18.09703,10.00715,16.463,14.30822,15.33421,14.42754,14.50175,15.58715,14.21618,17.36105,14.32112,13.94393,16.65277,15.67493,17.4687,15.02219,16.32461,14.03117,15.41643,15.55622,17.93638,12.8699,17.20782,17.91713,17.52344,20.30708,16.92298,21.03288,20.76595,20.82792,20.50189,25.29078,18.09008,23.15402,27.23122,20.60008,26.74884,27.46454,26.56588,30.28136,31.36537,27.60046,32.4083,32.1511,31.08651,32.21955,32.32448,32.93157,30.80425,31.23899,34.13598,28.43328,31.72868,29.25207,29.76525,29.13364,27.76966,27.83791,25.57328,26.40723,25.16991,21.96446,19.95613,23.7879,17.31202,18.94825,16.00658,11.3017,13.88351,9.748708,11.33991,4.582847,4.2604,4.768358,-1.873718,0.9200005,-5.771585,-8.847218,-8.338994,-11.78669,-16.82269,-17.6843,-20.68767,-23.23828,-25.28162,-28.10753,-28.54634,-31.14328,-33.53752,-34.80656,-38.59135,-38.38073,-38.93427,-43.21862,-40.77488,-44.37073,-45.38853,-46.72584,-45.8051,-46.90493,-49.66333,-45.48386,-50.09117,-53.30165,-47.91513,-51.59888,-50.21342,-47.45211,-50.59005,-43.63723,-45.12947,-47.61802,-44.50533,-46.34702,-46.08909,-45.46732,-45.3348,-47.03096,-48.02317,-48.57922,-48.01281,-51.3095,-47.26596,-55.54185,-51.69006,-56.88058,-55.62557,-56.88705,-56.66805,-60.40288,-56.40067,-60.81899,-55.49411,-59.77665,-57.20177,-54.92287,-55.04657,-56.45724,-53.44934,-56.68836,-50.664,-50.7018,-52.67784,-46.98927,-47.37025,-44.74774,-40.49229,-40.07215,-41.15891,-32.83066,-34.84073,-31.98995,-28.81294,-28.1463,-25.14609,-20.74607,-17.09475,-19.32099,-11.26315,-16.50999,-3.527998,-7.19618,-3.505568,-0.002830487,2.86883,5.750901,8.202027,9.896813,13.48288,16.29079,18.39013,20.6069,23.80438,27.8382,26.06949,31.64075,30.96347,31.73621,36.69811,34.60462,39.23029,36.43607,39.38774,39.75252,37.35821,43.21228,38.06988,43.70633,39.34245,41.63844,40.23566,40.65096,42.90579,37.62481,40.48557,38.13278,40.05874,35.33632,38.04714,34.75679,35.51639,34.01484,30.52539,30.00544,27.92596,28.31517,26.43292,25.96527,26.11053,20.48217,25.6617,23.28671,20.04345,22.0028,23.11673,24.36228,23.74558,27.13607,23.0578,26.67015,22.63738,27.04481,23.13021,25.27452,22.46884,24.33376,22.9734,22.56476,21.78263,20.8369,22.15173,16.90003,22.97003,15.24201,17.74637,18.62488,16.78861,20.50597,14.94115,17.08872,17.81177,15.43629,15.1219,15.0351,13.52676,14.65563,13.09986,9.489379,15.70192,7.799771,12.71927,6.020707,10.02971,8.859496,4.516066,10.452,2.916058,5.362324,1.740279,4.141092,1.730724,0.1752119,1.403202,-0.7507683,0.7610173,-3.115406,-1.028338,-3.383311,0.4123093,-9.362979,0.01685579,-6.179335,-6.13622,-1.759656,-6.066212,-5.377967,-3.654457,-3.778091,-4.279421,-8.189629,-1.292423,-7.874949,-4.459061,-4.173914,-9.143715,-2.174251,-8.880995,-5.246757,-5.230045,-8.200946,-8.043442,-7.843664,-6.345035,-8.443681,-9.452576,-4.503724,-5.568502,-7.911346,-7.000852,-5.702012,-10.79691,-3.050606,-9.252087,-9.390418,-8.823417,-8.776973,-9.618909,-10.42055,-8.958048,-13.52576,-9.973704,-14.39733,-12.05758,-11.03464,-15.94551,-12.13603,-14.59324,-16.31622,-14.22359,-18.52205,-17.42466,-18.02035,-18.74029,-19.82796,-20.55633,-20.85698,-22.84038,-18.87698,-25.5176,-22.92577,-26.60552,-22.7362,-28.79845,-25.92567,-29.0579,-28.99113,-29.85238,-29.11911,-31.89922,-28.76943,-33.06346,-30.40203,-29.52289,-33.48828,-32.05288,-30.1161,-33.88905,-30.04287,-34.55115,-32.03945,-34.93093,-32.80163,-32.4734,-31.17723,-33.96489,-30.88094,-33.16466,-30.25347,-30.33759,-34.33722,-29.04944,-32.23334,-27.54157,-29.87815,-34.39912,-29.69109,-33.90664,-32.04921,-33.72841,-33.05867,-35.44835,-37.04662,-34.22089,-35.66035,-36.24441,-36.16932,-34.36047,-36.93182,-36.55313,-40.02637,-37.49742,-39.30054,-36.81488,-38.5168,-39.53929,-40.26844,-35.73215,-39.28278,-38.19443,-38.2381,-37.18156,-40.51941,-35.03407,-35.18222,-37.04507,-31.26816,-36.99252,-27.12791,-29.52828,-31.593,-24.6809,-24.8285,-20.26794,-21.03179,-15.72624,-15.35437,-11.98066,-11.13295,-4.131907,-5.439639,-1.680536,5.253039,-0.302642,10.57504,8.068264,13.34154,14.25515,19.80641,21.58446,24.07932,26.74545,29.37456,33.68513,35.42427,36.08833,39.89469,42.44814,43.56774,48.51793,48.1335,52.25215,53.69449,57.20654,57.73649,59.83454,60.39979,62.88192,63.81356,63.05076,67.08827,64.46962,66.79236,63.50842,66.98291,62.42063,63.68666,64.78931,65.24881,66.61436,68.62611,67.69956,69.9703,71.08909,72.46381,72.14706,74.14119,71.93893,78.04616,74.28099,78.56783,75.2166,77.10297,77.22185,77.10009,76.35491,77.77383,76.91743,76.82756,78.24189,76.45594,74.1934,74.54356,69.75654,74.18876,66.09294,68.48471,66.66857,63.37576,63.40845,61.13015,58.82824,55.87403,56.52852,52.47386,51.46153,49.46297,40.97534,41.35705,41.847,32.73758,32.18824,29.17317,26.22456,25.07817,18.47486,17.77158,14.64246,8.377479,7.973293,3.661498,-0.2417956,-0.2047714,-5.474237,-5.036254,-9.020707,-11.97092,-12.24112,-16.67242,-17.72239,-19.89919,-22.06673,-22.82117,-24.83064,-25.10073,-27.45359,-27.41417,-27.58921,-27.43061,-28.87972,-28.43757,-28.45964,-28.17431,-32.34508,-26.87816,-28.35468,-31.56341,-23.95212,-32.50108,-25.26438,-27.88,-26.75784,-24.90443,-25.28758,-21.00308,-23.20187,-18.0378,-20.96572,-18.53736,-17.22773,-13.14183,-16.11022,-12.89111,-12.37066,-13.98884,-9.223936,-14.26094,-10.34957,-11.88355,-12.28545,-14.39586,-14.39337,-16.02567,-16.15467,-14.97799,-15.24239,-13.88041,-16.34841,-11.37516,-13.43988,-9.529957,-11.54373,-12.05953,-11.52843,-9.236803,-11.22456,-9.89324,-11.60385,-8.28602,-13.27008,-5.901421,-14.28094,-6.7733,-9.930489,-9.681636,-7.834738,-9.00397,-8.980287,-9.914483,-8.605897,-6.562968,-11.6885,-4.875024,-12.71215,-3.227149,-12.03461,-6.46839,-8.973848,-8.442614,-7.820637,-10.08782,-8.187336,-11.412,-9.022433,-10.93658,-9.401468,-11.00638,-12.95858,-10.40921,-10.09712,-15.07184,-7.877155,-14.84676,-13.24296,-10.28504,-17.14517,-9.715697,-14.76564,-14.18024,-10.85405,-11.62923,-12.38503,-9.438355,-13.91213,-8.043095,-12.44194,-8.556112,-12.40928,-11.22968,-8.636165,-11.13527,-10.90097,-7.142769,-12.52695,-6.961226,-6.176171,-7.792854,-5.189566,-4.883981,-7.085034,-1.922154,-5.813624,-4.952996,-3.579424,-5.053166,-1.941382,-8.271161,-1.624132,-9.387752,-0.380717,-6.466195,-1.606019,-6.145163,-4.791966,-4.354227,-8.042226,-2.762054,-10.17206,-4.59316,-8.427819,-4.60178,-8.855503,-5.898967,-11.19716,-7.691967,-9.316389,-7.525583,-11.9518,-8.095461,-14.38281,-8.064285,-12.16459,-11.35982,-13.77558,-13.20486,-11.08485,-15.46971,-12.7235,-12.94749,-17.83059,-10.99774,-19.50337,-13.5552,-19.43365,-15.48549,-19.04999,-16.86338,-19.07873,-18.09108,-21.26523,-16.99918,-17.24961,-20.20669,-20.33261,-18.49642,-20.21857,-18.11286,-18.93002,-19.82326,-16.82466,-17.88431,-19.62359,-18.86505,-20.99327,-16.32333,-21.78096,-16.12728,-18.30655,-19.55891,-18.52023,-21.65916,-16.10744,-24.14252,-18.42853,-22.7383,-20.6045,-17.30737,-21.55841,-18.02802,-20.00739,-19.00979,-18.9097,-20.97024,-20.6181,-19.95844,-21.58269,-19.00633,-21.24018,-21.93334,-19.3577,-22.0361,-19.21784,-22.4634,-21.07696,-22.31745,-22.81517,-18.04686,-26.03012,-18.904,-22.67056,-23.8282,-20.05164,-20.74734,-21.30862,-19.44361,-16.17732,-22.62925,-13.9447,-20.67111,-18.06336,-13.67196,-17.45691,-13.90592,-13.0231,-14.74763,-8.893099,-14.05841,-5.495357,-10.31099,-4.785862,-8.259427,-1.355645,-5.963874,2.542173,-3.020325,2.035736,4.473067,4.002812,7.818825,6.555628,9.217743,15.22868,11.50404,16.80735,14.84137,20.87486,18.91819,19.17448,25.71878,19.51204,28.41795,24.1313,28.67824,29.34187,29.19972,34.2131,28.2385,37.43471,29.93168,34.77544,35.55573,34.95391,38.67083,36.27603,38.53313,38.17578,40.27506,38.218,41.2034,38.45474,42.6454,39.85084,37.08954,40.69929,36.83526,36.64313,40.52409,38.17314,39.42032,40.35337,37.57632,41.10158,40.75476,42.19687,41.92774,41.59815,44.83219,41.62813,43.7429,43.06012,41.12785,45.81899,44.13032,45.09711,44.1399,45.02956,48.54194,45.18549,47.42998,42.08903,47.46852,41.98632,46.91488,40.46644,42.89589,41.91463,39.94898,41.1366,37.76475,38.61784,33.33486,38.49014,32.25798,35.08832,28.43322,30.38712,28.991,22.69481,27.40138,19.37649,21.30742,19.45608,16.75599,16.01544,11.5945,11.46153,9.400037,7.52528,5.395151,2.581235,1.270055,-2.272816,-2.956675,-3.968234,-6.776169,-7.272789,-10.81815,-12.24596,-10.04414,-17.05747,-15.04384,-17.86235,-18.64112,-17.72409,-24.74428,-21.54836,-24.26844,-21.97708,-23.38327,-25.60525,-24.17365,-24.16953,-27.31222,-22.87809,-29.87832,-21.24185,-31.63592,-20.48516,-26.40866,-23.99438,-27.05243,-23.42588,-24.8116,-22.5902,-25.04784,-21.29783,-22.88052,-18.65165,-21.82906,-19.24373,-16.98443,-18.47603,-16.40383,-15.12718,-18.81664,-15.87568,-17.76433,-14.61919,-17.95248,-17.8358,-19.38829,-22.22536,-19.19574,-21.92046,-21.85059,-20.44114,-19.53175,-21.64345,-18.41157,-20.86345,-21.20942,-18.2605,-20.2476,-17.06541,-19.97824,-16.33203,-20.10067,-17.00854,-16.33666,-17.00543,-17.40351,-14.86709,-17.4263,-16.3198,-16.55756,-17.10325,-15.54663,-16.14729,-15.16918,-16.61081,-11.97517,-17.68762,-10.72831,-14.7223,-13.21041,-13.5191,-12.04057,-11.89825,-12.65545,-11.95781,-11.63977,-10.55013,-11.98453,-8.700043,-10.41358,-11.0955,-8.798953,-10.65039,-5.387636,-10.95908,-5.147924,-11.39549,-5.061116,-5.606988,-8.611439,-3.940114,-4.868042,-7.537713,-1.685926,-6.56102,-3.247826,-2.181958,-2.736751,-1.39776,-0.5684689,-0.2072203,-1.373083,-1.067389,6.552669,-4.964013,5.988935,-3.041251,6.546947,-0.6225746,0.3384806,2.728638,0.6026384,2.376552,3.093389,-0.683284,3.161656,2.280031,2.408236,3.857324,3.852801,4.427832,2.026522,8.9484,1.910587,3.995312,5.997697,5.449032,4.490672,8.170438,8.956443,7.054249,9.159623,9.876369,12.27975,10.66023,14.66843,9.075995,15.68725,13.10969,14.84483,14.95465,12.84138,20.09525,9.621659,18.86318,11.13965,15.35187,13.97931,16.38895,14.62259,14.85507,13.29725,18.3772,16.94577,16.59293,17.99752,16.58969,16.49546,20.48614,16.83262,17.07979,16.0464,21.84163,16.94391,20.07209,17.47928,17.26013,17.9952,18.84036,17.27906,18.44704,18.28924,19.84025,16.56601,18.12147,21.80846,17.30512,19.53965,22.13545,18.90125,21.51645,19.43529,23.76664,20.8596,22.59354,23.27387,21.29804,24.3214,22.2795,26.65872,20.56466,24.70321,26.23535,22.76389,25.97216,25.1685,22.38828,27.29255,25.21358,26.56822,26.94985,26.2172,26.77944,28.92942,26.66747,28.65023,27.84016,28.31431,27.18007,33.46267,26.41866,29.71078,23.95867,29.4964,27.73383,25.4063,25.66683,24.8041,21.14163,24.55942,21.80046,18.13884,19.11769,20.65859,14.88072,15.3235,15.49847,6.830188,14.16858,6.212721,4.291093,4.955652,-1.358486,1.038264,-4.633083,1.590125,-14.3979,-5.941048,-11.34026,-10.76116,-16.7167,-15.53366,-15.74325,-22.29244,-19.0396,-21.88539,-28.14498,-23.07845,-28.92776,-25.63925,-32.01953,-31.65229,-32.47058,-38.74894,-32.50889,-39.58736,-38.17368,-42.15686,-38.24838,-42.10419,-42.15535,-40.90525,-41.07768,-42.86295,-41.95178,-41.28396,-46.7637,-43.83619,-45.6848,-47.09453,-49.96051,-47.90675,-51.50161,-52.11582,-54.11212,-52.83738,-59.34503,-53.78444,-61.63052,-57.58683,-61.30721,-62.58848,-61.90735,-67.50205,-59.14874,-60.77284,-67.45922,-62.13746,-61.91694,-63.18737,-58.98747,-63.44465,-53.02578,-66.3779,-53.52249,-59.39771,-54.51943,-57.92577,-51.27994,-53.17928,-51.75664,-50.11866,-47.46407,-48.67539,-42.81568,-42.64246,-40.33709,-37.01284,-37.15125,-31.07638,-31.86534,-26.88549,-25.99957,-22.64243,-20.32762,-17.27845,-12.90139,-13.00124,-10.02205,-4.381804,-3.040752,-1.088529,-0.01818374,8.033162,7.580693,9.467201,15.48553,14.20581,20.09279,19.40164,23.59726,24.35203,26.20074,26.78603,28.20237,29.2605,34.5008,27.44466,37.21617,32.96068,35.88422,41.34441,31.13953,41.96155,37.18919,40.13041,36.24906,38.38925,37.40493,39.01825,37.2097,39.84567,34.91911,37.17435,36.3662,31.39657,33.57649,30.86624,28.18364,33.69249,23.27508,28.82687,22.707,25.24718,25.04277,23.1128,24.5694,20.79755,24.51817,22.31957,21.72455,25.54391,18.92723,27.61474,19.12361,23.70145,18.32952,21.39062,19.12464,18.25257,22.73448,15.26869,19.62698,16.64387,17.40799,17.50946,14.57713,17.40061,10.69506,17.27817,13.95099,14.31758,13.86382,11.7751,16.09853,14.0878,8.942802,14.64276,8.521372,14.70244,7.702421,9.503124,7.834351,4.867396,7.534091,5.599667,5.331198,1.278634,5.129646,-2.004085,6.208423,0.1788329,1.655044,0.9728741,-0.2859307,2.921759,-1.845378,1.064462,-0.5998696,4.434181,-2.619929,3.975319,-1.502728,2.22008,-0.1941449,4.037463,1.590892,3.596542,1.669083,4.659478,3.358887,0.7780845,3.546176,4.905638,0.7680911,10.50544,0.09069922,6.070645,1.072691,3.996319,7.094409,1.06935,6.47742,-0.1182752,6.06963,2.856438,4.450766,3.217265,3.289699,5.343242,3.04631,6.775777,-1.664085,9.089967,1.465324,3.936653,5.798096,1.756995,4.784133,5.872538,0.6263873,5.630196,-1.435277,3.620203,-4.427717,1.09797,-1.503695,-3.052321,-4.884983,-2.247368,-8.430587,-4.477243,-8.123325,-10.79737,-9.563744,-10.22786,-13.51215,-16.52447,-12.76539,-19.94623,-14.89151,-18.78815,-20.69414,-17.18465,-25.71437,-19.86638,-25.18437,-22.34816,-23.56111,-28.5389,-19.29535,-32.70897,-20.62098,-26.98222,-26.22773,-25.7247,-24.48667,-27.30416,-24.75598,-24.15691,-25.39021,-24.24345,-24.99145,-23.55633,-27.65763,-22.9764,-26.60294,-22.01005,-25.41172,-23.64991,-25.13456,-23.36204,-24.91714,-25.8982,-27.75601,-25.93255,-30.06937,-25.27355,-33.9677,-28.15959,-31.70834,-30.94058,-33.83968,-34.92174,-33.04327,-35.41236,-34.07198,-35.62946,-31.5985,-40.55818,-31.97926,-38.16266,-32.88244,-36.33608,-35.81112,-31.52226,-36.76187,-29.32711,-38.56669,-30.90136,-33.74977,-29.07659,-28.48796,-28.06286,-25.43583,-24.41301,-21.90732,-20.18874,-17.94916,-16.05934,-13.61169,-14.11182,-8.827735,-10.85973,-5.635665,-6.594577,-0.290654,-0.6566651,-0.08927904,4.786281,5.82128,10.26703,10.18925,14.041,15.32804,20.16282,19.28303,24.68647,22.03589,31.6569,21.6422,37.49092,27.64484,36.63477,33.2101,38.82242,37.24198,41.99535,38.94665,44.82823,41.75628,45.37248,45.1,44.40004,47.46092,48.35516,46.88539,48.49283,48.21659,44.19115,50.25027,43.34674,47.69443,44.05837,45.13246,42.74077,46.28746,44.60343,44.67686,41.37705,46.67608,43.05192,46.15099,44.06425,39.94138,46.66072,40.01117,45.12482,42.67746,41.26216,42.66451,42.54583,42.28607,43.101,42.12246,43.98226,43.64496,44.13346,42.72514,41.88631,42.97943,42.02012,40.87081,41.65882,37.85092,39.21827,37.48534,41.31869,28.98449,38.92176,30.38882,32.5959,31.71821,25.76343,32.86311,22.89638,27.61589,23.18021,26.24594,14.15298,23.88714,13.80446,22.17175,7.711816,17.84675,6.099966,10.67898,8.021365,2.04752,5.735554,0.7356288,2.070962,-0.07240676,-1.901195,-2.724979,-7.166476,-2.35197,-9.045103,-5.209671,-12.57314,-9.443612,-11.95157,-13.83509,-12.94479,-15.68584,-17.9483,-13.24588,-19.09128,-14.16679,-17.44631,-14.9286,-18.61117,-14.13286,-18.56785,-14.60885,-18.37474,-15.64837,-12.82172,-16.84884,-10.39466,-19.81852,-8.466884,-14.87923,-9.922978,-11.52866,-11.11502,-8.418537,-9.984588,-7.057188,-9.41559,-6.587536,-6.822821,-4.941685,0.08420862,-8.071233,-0.08485321,-4.259715,-2.411269,-1.563583,-2.829869,-3.555115,-2.607901,-1.125676,-2.875229,-0.4002808,-6.774183,-0.8074597,-4.61948,-2.509782,-3.833669,-6.178497,-3.064259,-8.097344,-4.682823,-9.954307,-6.800555,-10.94135,-5.866206,-13.56056,-10.04103,-13.48151,-11.24847,-12.98679,-11.80402,-11.65655,-17.85704,-10.86324,-15.84353,-13.75257,-15.90254,-15.85242,-12.70823,-20.62977,-9.022058,-23.73107,-15.07932,-18.84016,-18.23658,-20.20258,-19.30865,-18.08743,-23.29707,-16.69573,-21.55939,-19.50613,-22.98884,-21.30283,-20.34314,-21.16492,-22.14424,-19.55888,-20.09314,-20.2942,-21.63384,-19.26597,-24.83996,-16.29026,-24.6529,-18.31028,-18.96904,-21.73568,-16.62305,-18.98847,-16.82396,-19.02558,-15.99547,-15.04882,-17.08665,-13.29633,-17.34006,-13.22822,-14.79386,-14.35694,-10.39861,-13.74242,-14.94622,-7.165218,-13.3014,-6.175515,-9.639174,-7.919535,-9.785601,-5.335476,-9.013801,-2.422668,-9.29737,-0.8017996,-6.681114,-1.352347,-4.761786,-4.30919,-2.905549,-4.244552,0.770867,-4.38785,-1.452178,0.1346,-2.198592,5.383079,-1.104315,6.035377,2.379268,6.990883,6.183942,3.206319,8.638316,7.471457,5.245114,10.35296,5.404168,7.73393,8.568971,7.592369,9.706853,6.241234,5.679238,8.775272,5.260164,9.602373,5.367118,4.626369,6.56378,6.099869,3.508075,6.724167,1.571661,5.548741,0.3245449,2.478944,1.951907,2.077975,-0.688252,4.223595,-0.275346,4.165985,-3.08641,3.927254,-2.39433,3.451568,-0.2627345,0.9946215,4.359697,-0.9695938,6.821378,0.8536026,3.033218,7.05342,0.3852752,8.991306,1.363689,8.715385,0.3936246,5.165511,2.93877,-0.3371532,0.3245448,2.19171,-2.315584,3.269775,1.891467,1.934774,1.15907,4.650584,2.063247,8.141784,3.2621,9.210153,6.803268,11.09928,14.2062,8.272782,16.80227,11.88135,17.15169,18.86512,21.21393,20.0872,20.21472,25.54403,21.50598,26.95492,24.64476,25.04124,26.20246,26.89815,29.91345,29.77543,28.6868,31.46025,31.37018,27.63285,35.12578,28.02517,34.44642,31.88046,29.57457,31.3136,29.29274,30.75774,24.26599,32.19154,20.62755,27.13066,24.49967,20.453,22.54585,19.5515,16.78327,20.1619,11.38042,17.95102,6.711864,10.70793,8.279688,7.323626,2.137252,3.414221,-2.056246,-1.209091,-2.158265,-8.106729,-7.105378,-11.52492,-12.75208,-15.15827,-17.32594,-20.44521,-18.85293,-23.56937,-25.05409,-25.55938,-29.17357,-27.31208,-33.14112,-28.05208,-37.81896,-32.2744,-40.89698,-35.84312,-39.91237,-40.94111,-42.5985,-39.2962,-47.29593,-39.84526,-47.9819,-42.94764,-45.83183,-41.40582,-44.45582,-42.84592,-41.62782,-45.42977,-39.62383,-40.17257,-43.24543,-36.75315,-44.77594,-35.13671,-41.28099,-38.27631,-40.81159,-41.09127,-37.17054,-39.80585,-34.31254,-35.47929,-37.33609,-28.59101,-30.68223,-28.85624,-28.14019,-25.21214,-23.9805,-17.88419,-26.28741,-13.96374,-20.3252,-12.55748,-11.65687,-12.4662,-5.972607,-8.999651,-1.529423,-2.762367,0.8097219,-1.215574,3.105461,3.177478,8.534482,6.897742,11.8897,8.971976,16.08299,15.78756,18.86058,16.59845,19.89954,21.69381,24.42541,23.14845,27.24751,22.64638,28.62655,26.37322,26.28771,26.57116,26.92599,27.70603,25.38801,32.15651,21.04458,32.07258,22.83181,27.69882,25.4332,25.8634,21.68877,24.36439,22.49935,24.76343,18.97448,22.14435,20.60386,20.81911,17.46565,19.59098,15.62452,17.19601,17.74745,13.19692,14.97497,10.72032,12.11106,13.7131,8.225982,13.21125,9.829762,7.076009,15.77527,5.516499,12.64796,10.5053,4.909984,14.31305,4.750365,13.09878,4.958144,6.706749,7.856203,5.884444,6.352101,5.885531,1.674741,6.288246,2.063972,3.869194,2.544081,2.131294,0.01614506,2.468184,0.5850021,1.564682,1.78783,0.2031233,1.532581,0.05055457,-0.6131252,0.3913697,-1.96851,0.9704884,-1.36768,-1.929362,0.7367909,-5.030622,1.285289,-5.147944,-2.497847,-2.36679,-5.684104,-2.675385,-6.874248,-2.946975,-8.262348,-5.17844,-7.809169,-4.214286,-7.58962,-5.474085,-7.319549,-4.869728,-8.731329,-7.522997,-7.482403,-8.299118,-5.455589,-7.787366,-7.470952,-6.409863,-4.875057,-5.411743,-3.338193,-6.844587,-4.340836,-3.923079,-2.557169,-4.256301,-2.914271,-3.173507,2.603392,-5.164379,2.556891,-1.471864,-2.298337,2.999128,4.271911,1.376536,4.942576,7.682054,0.9264479,9.441648,6.336953,6.568478,6.20614,7.97803,7.123408,8.134224,6.586573,8.933534,9.254008,8.346211,11.57725,6.758429,10.32346,8.901291,8.892477,10.5015,6.567579,11.60934,3.579517,9.114877,1.338443,10.96272,0.4483105,8.098241,-1.013394,6.008842,-0.1007823,1.056619,0.7722838,-2.370846,-0.1213265,-1.921678,-7.207368,0.8270123,-9.338466,-2.728909,-12.4314,-7.166537,-9.783451,-10.42679,-10.85914,-12.3744,-15.21596,-13.47586,-14.72199,-15.44224,-11.9328,-20.74282,-13.81641,-17.30805,-17.89487,-18.79721,-17.78302,-23.32585,-16.72752,-23.55933,-19.68198,-24.03564,-20.89546,-19.92657,-24.10646,-19.30531,-26.72,-21.80103,-22.60712,-23.1558,-23.32411,-23.8221,-23.18362,-22.69013,-22.79772,-24.15853,-25.62407,-22.80275,-22.3315,-25.72304,-21.39651,-27.68249,-21.26256,-28.02724,-20.18662,-28.92064,-22.12028,-26.8309,-25.01643,-25.50247,-24.92556,-25.28967,-26.63441,-21.39846,-27.38373,-23.01042,-25.14839,-23.51502,-27.06803,-20.21913,-25.77633,-21.84987,-21.97462,-25.31961,-16.8962,-23.0312,-19.5729,-15.69786,-17.64589,-15.16017,-13.56138,-13.0462,-13.82731,-9.555318,-7.14883,-9.785735,-5.16778,-5.240088,-3.488974,1.403648,-0.5858293,5.547907,3.143126,8.657495,6.302282,10.49923,8.37293,16.76898,10.32542,20.65161,12.62643,22.84136,12.86872,24.12109,19.67207,24.80626,21.16027,25.42023,24.49071,26.32483,29.04729,22.71435,33.96346,24.49845,30.79506,30.81979,26.42113,33.28182,28.21067,35.21345,30.09393,35.21548,28.05646,34.1185,32.48049,31.5913,34.69419,32.19654,36.12464,33.2005,40.397,28.83293,42.233,32.77631,37.77568,38.67879,36.8547,34.84942,43.22935,34.92142,43.11846,40.6182,39.42553,41.84509,39.55566,42.29695,40.80061,40.37871,41.81996,42.47866,40.8365,39.88808,42.15997,37.59855,43.09322,37.4837,39.27377,38.31634,38.8207,35.14383,39.8476,30.59772,37.55849,29.54208,36.76126,25.38139,34.33381,23.69107,28.51931,27.03473,26.29244,22.2201,24.58279,21.08156,19.80426,17.46701,17.93097,10.35366,14.3123,10.68136,8.258823,5.966291,4.445976,1.035161,1.90573,-4.329169,-3.588174,-3.109251,-10.66449,-3.155317,-12.97603,-7.429149,-12.22774,-10.94088,-12.91666,-14.60031,-10.30315,-17.0443,-13.25774,-13.48599,-15.65485,-12.82006,-16.86315,-13.56174,-15.46617,-11.04539,-13.56466,-11.67474,-14.71054,-9.277221,-9.95079,-9.354953,-10.60931,-7.916396,-4.520574,-8.553591,-2.600823,-9.463813,1.81496,-7.708341,3.152683,-6.232277,3.948387,-8.831794,1.678799,-6.735711,0.4849644,-5.410422,-2.529137,-0.1396531,-8.502054,-1.502978,-7.517695,-3.852027,-5.272929,-3.89601,-1.962264,-7.499217,-4.824054,-3.256272,-4.129336,-3.307995,-4.247067,-6.072161,-3.766035,-2.574332,-6.358551,-2.995394,-4.099664,-6.455816,-4.285203,-6.625405,-7.627738,-2.954605,-11.1985,-1.39132,-9.974426,-6.121822,-8.777379,-11.09784,-4.479654,-12.05869,-5.063626,-14.1404,-3.744282,-12.56671,-4.396553,-11.65494,-5.38702,-11.79342,-2.472094,-13.57527,-5.68215,-12.96759,-7.034683,-12.11885,-4.445023,-10.73739,-8.089596,-6.89972,-9.366931,-3.940959,-8.641001,-5.80335,-7.225885,-9.897156,-5.65289,-13.4499,-6.475793,-14.04902,-10.20311,-13.74365,-12.68681,-15.54337,-13.27213,-18.27143,-11.43119,-14.03464,-20.92909,-7.586592,-22.52135,-11.76449,-19.66802,-18.94294,-19.29794,-16.92413,-15.39092,-27.49786,-13.32717,-29.88824,-16.65272,-25.36465,-22.52148,-24.34667,-25.8657,-22.25699,-23.93693,-26.86724,-22.35176,-28.30869,-21.15537,-27.94107,-25.60843,-23.60878,-25.32085,-28.06691,-21.31817,-25.49793,-22.8749,-27.58717,-24.28038,-25.74481,-24.07175,-28.85828,-22.59809,-29.48347,-17.34229,-34.45934,-18.94431,-34.41842,-23.44297,-30.63186,-26.35172,-30.62884,-29.85693,-27.45017,-31.35375,-27.05272,-29.68876,-27.24993,-29.24826,-26.65387,-30.01408,-28.59735,-24.19194,-29.49192,-19.29463,-28.68044,-22.94131,-25.74851,-27.5321,-23.11937,-26.96117,-27.30953,-32.08007,-26.76731,-36.84114,-29.06381,-41.08548,-32.68114,-36.26629,-37.49349,-37.32153,-38.30637,-36.87695,-40.98213,-35.43047,-43.27606,-37.93732,-44.14567,-40.58298,-42.89712,-41.78391,-40.09619,-40.81905,-39.78664,-35.69474,-38.89342,-35.81744,-32.49199,-32.14281,-28.88182,-25.65472,-28.68897,-19.08267,-30.33561,-13.44028,-19.79529,-12.33827,-15.0235,-7.831094,-6.432426,1.166643,-3.501885,5.373147,3.64448,10.87881,11.61326,14.46773,17.45891,19.20912,23.0176,24.40114,31.51896,29.83767,34.9233,37.38529,35.09249,46.01603,39.03278,53.89347,43.87604,54.86506,53.95452,54.72776,60.21684,60.52472,59.67508,65.20899,61.35016,68.56547,69.06806,66.75702,76.03275,66.60218,75.99829,73.35471,75.74166,73.89411,75.29404,74.29793,74.55064,74.00509,66.71315,73.29085,60.64606,72.61379,56.91323,70.79305,56.36357,67.48878,58.29559,62.47881,64.44776,56.53941,67.22104,57.31356,64.87374,58.5952,61.95248,61.9042,61.01586,67.25248,61.80374,69.00614,62.87184,72.34673,59.13434,69.19093,62.25535,61.89815,63.14188,60.80815,58.73621,56.08019,57.30307,54.44513,53.06828,51.2233,47.91019,47.20778,45.42983,39.5209,43.26605,32.34868,35.55731,31.05974,28.69102,21.14713,26.47459,13.01719,20.83416,7.89677,14.84794,1.067178,6.619328,2.370877,-0.5974067,-3.153387,-2.066271,-11.6782,-8.076005,-11.62343,-18.43522,-12.49231,-30.34021,-12.38413,-30.54379,-22.97193,-30.58096,-28.97466,-29.96139,-33.10824,-38.54399,-34.55147,-43.61165,-38.63961,-43.20337,-40.01969,-49.75326,-38.84241,-50.65148,-41.17225,-46.74495,-49.27002,-45.27982,-46.22644,-47.72345,-41.69412,-47.1634,-42.51113,-47.29973,-41.08963,-41.32223,-39.85664,-42.01983,-34.52663,-40.75415,-31.08212,-39.47192,-30.08307,-37.63817,-26.31956,-34.37349,-27.60955,-28.88368,-28.72896,-24.08716,-29.97261,-23.60716,-30.99476,-24.85081,-29.4359,-25.05898,-28.09717,-24.47974,-24.50538,-23.51343,-22.17292,-21.8206,-23.16019,-20.34824,-21.11524,-18.6152,-26.77495,-16.34401,-25.78501,-18.08523,-19.72845,-18.29518,-21.37859,-16.76136,-15.69313,-20.07554,-14.53394,-15.1431,-16.64146,-12.92687,-14.40496,-9.756703,-14.34209,-13.09739,-7.740501,-10.10836,-9.092249,-11.29589,-10.92371,-9.285252,-10.12788,-8.718761,-9.519563,-10.23243,-8.487347,-7.294621,-6.971502,-8.754929,-3.921945,-10.42234,-6.765753,-2.23861,-10.78993,-0.1549443,-7.305731,-2.038423,-5.301217,-1.416223,-2.186161,-3.24767,3.507991,-2.859289,-2.790674,4.625938,-2.689805,3.873202,2.830312,-0.4275598,6.353604,1.92036,8.552686,3.753315,8.489244,9.07957,5.041575,12.01863,7.310767,9.702567,11.06036,10.56132,14.2769,8.59976,18.39509,8.175732,14.66087,14.71538,13.72675,13.89698,16.8076,12.85894,16.24512,14.42738,14.74488,12.10026,16.84452,11.82542,17.25901,12.00203,17.08889,10.32571,15.89829,8.78618,16.50518,8.602024,18.37231,7.373369,18.07092,9.419549,15.04895,15.88197,11.67254,15.9263,10.7532,16.83911,13.87794,14.31958,13.97229,16.15244,10.52329,15.36597,11.54147,12.48241,8.676141,14.44631,8.531524,12.61287,13.1811,13.6773,13.67811,14.50984,16.83144,15.97131,16.77426,22.48756,16.91393,23.20825,25.4979,24.76295,28.89574,28.66953,34.03178,30.32017,33.46649,33.54081,35.78016,35.27501,31.54221,38.05817,36.1361,37.77099,34.95885,42.99329,34.60038,39.89853,35.98802,37.68089,33.08173,35.60388,32.2407,29.78998,29.88005,31.85548,22.53959,27.11817,21.00008,21.53233,20.54298,17.60267,14.71619,13.00205,9.386559,6.338363,8.033285,2.543518,-3.485703,1.785089,-6.471878,-9.962207,-8.953574,-12.13832,-14.52815,-15.93425,-18.38231,-20.74506,-25.11952,-22.21135,-30.04458,-27.06028,-29.53876,-34.22941,-30.78897,-36.65749,-33.03517,-40.43781,-36.2829,-36.43687,-43.46618,-41.04929,-38.43016,-44.70008,-38.80162,-43.2507,-41.46717,-40.68916,-37.24218,-39.36593,-33.29671,-36.1355,-37.42303,-34.91335,-35.08366,-37.09147,-33.45554,-37.9953,-36.94796,-37.19,-39.56424,-33.69527,-42.18279,-37.83944,-43.13915,-40.97532,-40.99638,-43.85488,-45.00537,-48.51572,-43.87753,-53.01738,-46.18714,-54.21175,-50.72349,-53.99214,-52.26738,-54.48086,-54.23031,-53.40696,-54.37504,-51.55971,-54.32982,-51.15095,-52.99983,-53.1384,-47.02763,-51.7816,-47.51992,-45.2009,-41.18135,-43.87676,-36.02874,-41.45202,-30.41172,-40.90725,-22.26749,-35.66822,-18.75733,-28.35347,-12.93837,-18.90339,-10.9111,-11.23746,-6.53118,-0.1894244,-3.492907,3.599466,2.751942,8.073962,10.91322,15.5538,16.34167,18.28525,22.86754,24.09761,27.2152,32.35166,32.27751,32.96884,37.844,36.81093,39.8245,41.00449,41.03214,47.16748,40.5127,47.01989,42.16234,47.43247,41.855,47.4704,43.27302,47.89681,40.68934,49.27861,39.26826,46.65398,37.77324,47.24646,33.70904,43.84598,32.90573,37.55142,34.51613,33.13324,32.11381,30.14179,29.65928,25.28105,26.6015,26.74758,28.8048,19.06641,29.73778,18.66559,34.35981,19.58935,32.43686,21.00923,27.88573,27.91022,21.21642,25.3303,23.97716,22.40706,20.37303,23.93733,16.32978,24.342,13.6026,20.89858,9.515718,20.96237,9.47917,16.62537,9.203549,11.39389,7.170583,12.74293,2.955678,8.876286,4.472709,1.425092,4.945308,-1.327081,1.749656,-2.476977,-1.514047,-5.273849,-3.123428,-6.234784,-11.35808,-5.300067,-13.74606,-10.35474,-13.27797,-11.24622,-14.86133,-12.3446,-12.12716,-19.2638,-10.36378,-23.01933,-10.18749,-24.4514,-8.275491,-25.15706,-8.00568,-24.34602,-3.985944,-26.12432,-0.8860799,-23.12973,-2.253708,-20.51313,-5.50209,-15.11494,-9.029945,-11.96003,-6.268207,-12.94384,-1.746096,-15.86358,-1.425007,-12.12722,-1.492041,-9.457824,-1.238482,-12.18277,3.32159,-11.35134,5.193084,-12.69656,2.009889,-7.430859,-3.970046,-0.6296802,-4.57284,-2.303097,-0.9998637,-2.881646,-3.084378,-1.16245,-3.467954,-1.211829,-5.871151,1.137172,-4.877229,-1.010147,-8.04732,-0.3562846,-4.373818,-2.165053,-6.32605,-2.114087,-9.104116,-0.8535565,-11.0549,-5.743446,-6.079748,-7.854008,-8.890627,-8.470144,-7.929134,-10.73979,-7.172695,-12.71797,-4.75884,-14.7473,-6.156419,-12.36588,-11.50586,-7.082078,-13.27675,-11.54846,-11.12714,-12.09504,-15.91392,-11.30787,-20.16131,-10.19542,-18.17965,-11.87981,-20.25936,-13.72874,-20.68913,-13.67956,-16.76351,-16.91829,-19.21404,-16.8268,-16.96685,-18.75614,-14.30034,-20.98498,-11.51464,-24.03925,-11.5459,-19.82172,-18.51198,-16.45502,-19.52276,-13.39821,-24.65765,-19.31724,-21.65895,-20.06884,-25.80344,-20.30079,-31.67581,-22.37744,-31.24335,-24.33784,-29.31467,-27.59921,-29.18957,-28.0271,-28.27622,-28.20426,-28.95101,-30.11634,-25.8848,-35.24684,-20.18599,-39.06973,-20.02679,-33.14158,-21.96625,-27.37382,-24.13799,-24.95098,-20.89818,-23.41904,-19.75321,-20.54886,-17.67208,-17.21738,-11.45648,-18.74586,-7.928415,-13.83604,-5.584802,-10.64179,-2.59148,-6.619975,-0.03909262,-1.840248,2.779524,-1.623407,10.66846,-4.547087,11.26865,3.715767,9.95129,9.704852,11.72087,14.13235,14.64332,17.98225,17.8659,22.73433,21.38245,27.45471,25.89407,30.25258,30.02032,31.72602,30.90154,36.72995,35.9016,36.90298,38.47643,40.92611,40.55281,46.68375,39.85753,49.72354,42.25354,45.80041,48.65324,41.03884,52.2344,40.41879,48.65669,43.74709,46.4844,41.39996,48.18629,42.93772,45.31954,43.70267,44.66386,44.28265,43.67378,47.46347,42.86014,48.50426,42.52543,46.79715,45.92833,44.48031,48.74094,45.97829,52.20507,44.76791,49.04653,47.43065,51.93596,48.04028,48.82351,48.35811,46.43354,47.08192,44.08638,47.6469,40.50171,43.95386,41.08815,42.03898,40.01255,42.07254,33.4345,42.07659,30.53813,37.3039,25.46339,38.37377,19.93803,34.28062,22.58755,28.07076,18.58338,27.44645,16.64787,20.85265,15.66079,19.37887,11.33619,14.38554,8.37564,10.62103,4.779159,7.395264,2.869311,5.649514,-1.276722,3.66105,-2.79257,-2.480606,-3.396149,-3.83686,-7.327679,-7.19501,-10.46925,-7.185227,-16.50195,-9.895901,-13.49209,-14.47062,-13.14541,-24.57279,-13.34011,-22.94464,-18.53307,-18.68447,-21.68918,-17.53273,-22.41619,-15.58448,-22.25218,-13.68549,-21.83806,-11.7613,-19.5478,-11.85135,-15.28265,-17.54574,-8.777094,-11.84339,-9.462568,-8.48443,-9.457786,-8.899847,-4.666551,-6.179476,-12.14645,-0.6678505,-12.77059,-2.093733,-7.425716,-8.711323,-3.35978,-10.81734,-1.839644,-6.454492,-6.126164,-1.469308,-10.46779,1.297967,-9.925987,-2.009526,-6.38732,-6.129187,-3.173852,-4.182523,-8.367969,-3.052448,-9.458458,1.094401,-10.05978,-0.6976965,-9.792397,-2.115888,-7.778116,-3.967364,-6.587462,-1.644907,-10.31592,-1.326825,-9.304219,-5.543364,-4.849862,-8.573519,-4.971096,-7.407448,-10.39109,-1.929429,-13.82378,-2.835115,-10.80291,-8.837774,-9.368727,-11.01131,-7.657039,-13.78188,-7.23424,-12.932,-11.48631,-9.63036,-11.06123,-14.06976,-14.04078,-10.34045,-16.48366,-9.688608,-15.96826,-9.434227,-17.04445,-12.47912,-14.25063,-12.6736,-14.02126,-14.99146,-13.76856,-15.71731,-15.33154,-15.88118,-21.60331,-15.34229,-21.21018,-17.68156,-22.21639,-21.98706,-19.08764,-26.81328,-23.65292,-25.68513,-29.76574,-26.65549,-34.28183,-29.48711,-35.21325,-30.21418,-35.27948,-32.10429,-37.97642,-37.31242,-37.86779,-38.23432,-40.75266,-36.16584,-43.04073,-38.98866,-40.95081,-41.10078,-37.47698,-46.67469,-37.24421,-44.1195,-40.99068,-42.76923,-43.9983,-39.90571,-41.1461,-42.33182,-42.26178,-39.7525,-45.07468,-41.25957,-45.54325,-39.22803,-46.62218,-41.71328,-43.46971,-39.91188,-45.69044,-37.74416,-48.84034,-36.81223,-48.57001,-34.28707,-46.19993,-36.85257,-41.84716,-41.68683,-41.68243,-41.34228,-40.88581,-43.20103,-43.74545,-42.04151,-46.05337,-44.48566,-43.88779,-47.0276,-43.02499,-48.93806,-44.43994,-48.49078,-42.91235,-47.49986,-47.59773,-46.2344,-42.6323,-48.50693,-40.96013,-44.7719,-44.69835,-41.277,-41.13084,-37.85669,-39.35617,-36.93293,-31.49531,-37.30187,-25.63114,-29.88617,-22.44533,-27.3618,-16.51645,-21.48978,-12.81571,-10.93146,-6.613534,-5.820917,3.547749,3.669741,3.901113,10.12747,15.73214,14.59593,22.25065,20.24899,28.83939,27.68409,34.93227,32.26521,41.39782,42.82708,46.67425,49.02465,52.66475,56.0293,57.09657,58.59838,66.97373,61.66149,70.09369,68.20475,70.70738,76.54693,69.22618,81.43481,70.55349,80.05852,74.42018,80.58183,80.48704,74.25686,85.2612,75.92656,79.49928,76.51195,80.34339,73.11803,80.34359,68.88731,79.59768,67.961,74.75566,68.28881,70.63776,66.36698,62.42837,61.94824,58.03849,58.02413,51.62609,54.95165,53.77356,55.75913,48.58954,59.48363,50.84713,61.1457,53.84236,63.19206,57.09253,61.07651,62.45137,63.30278,63.22235,64.1579,61.67778,60.93748,65.58247,60.48351,68.3037,57.32137,67.34237,59.99801,63.28136,57.68358,66.09656,56.90495,60.69703,55.66862,58.53631,49.31229,55.98374,46.80784,46.02078,50.66584,37.33077,43.22906,37.61691,38.13468,33.57099,32.52893,31.69327,25.93379,26.21131,23.65714,20.27816,16.53419,18.28639,12.82336,8.557454,3.9922,5.968507,-1.426675,2.95455,-6.419334,-2.827811,-14.72633,-7.750829,-17.34609,-19.47016,-19.77065,-23.73051,-24.05833,-28.61816,-29.99299,-29.66271,-36.25518,-32.6356,-38.24145,-34.00109,-40.93987,-39.08712,-43.02875,-38.71337,-45.02381,-39.29951,-48.71109,-38.74716,-50.89584,-42.45047,-46.8081,-47.12812,-44.32221,-47.11828,-41.38364,-48.20203,-42.5451,-42.83559,-39.60563,-41.93926,-41.00432,-38.27433,-38.17719,-36.57168,-38.2997,-28.69229,-38.96057,-28.97057,-36.94914,-27.20731,-37.45325,-28.12186,-34.41518,-31.4479,-33.09704,-33.22723,-29.94078,-36.61695,-25.69357,-36.34404,-25.35159,-31.39918,-26.66034,-30.29621,-20.5825,-31.38599,-21.51671,-25.69736,-23.49961,-23.42223,-24.22261,-22.98083,-20.7243,-19.14254,-18.22915,-25.3042,-18.84394,-21.13096,-19.3084,-19.51966,-24.27902,-18.66369,-22.86186,-20.82499,-19.34454,-23.93933,-21.5634,-29.01621,-19.83239,-30.49359,-24.3662,-27.72199,-28.77276,-26.93263,-24.24328,-33.27603,-21.45799,-33.82274,-21.10247,-33.88296,-19.32178,-32.37241,-24.62776,-25.34755,-26.89696,-22.00651,-25.64966,-21.64235,-23.09382,-22.20061,-21.52909,-19.00636,-20.22067,-15.46781,-20.61671,-11.02208,-22.30638,-7.777703,-14.10163,-6.31512,-9.477047,-2.578934,-7.823772,-0.04470539,-2.22442,2.341113,-2.846038,6.745197,5.860231,4.028344,8.917381,7.934347,10.10589,15.97718,9.066497,18.4627,7.661608,18.98606,13.82393,16.18654,17.29769,16.20404,19.67312,19.03735,19.71123,20.07413,19.40627,23.2248,21.35686,22.66648,25.58683,24.30251,27.68498,23.45475,29.18516,26.19336,23.61568,27.15866,26.86529,30.90387,24.81894,33.39172,25.09881,33.2403,28.82006,30.72974,30.70691,25.44807,34.25313,29.37583,29.84295,38.45162,20.61588,39.80089,34.72888,28.0169,39.1719,29.14432,35.09152,33.28609,34.24246,36.29794,34.66814,37.50884,33.64641,30.99875,38.80165,29.04182,37.20535,33.75035,31.01158,37.08805,28.9958,34.71379,31.42645,31.00476,31.66387,26.95574,35.5276,25.54432,32.04661,25.63219,28.75992,27.83183,26.44287,21.41108,26.51089,18.40667,27.48282,20.91985,25.39571,20.70447,20.68651,24.93153,25.26471,23.24694,25.04978,23.07698,22.81252,24.25081,27.4458,22.8534,26.22786,27.62994,25.60542,29.57799,26.16423,32.75689,29.79024,33.83806,30.36388,32.43144,32.25045,34.21035,30.47088,37.57172,31.37344,34.21902,34.57807,27.38251,42.07812,30.01075,30.62216,35.17031,22.10707,34.95676,23.23905,24.35859,23.28951,18.11554,21.10542,13.77144,18.97533,8.531991,12.63596,7.860581,4.535088,1.930844,-0.9783323,1.298883,-2.840749,-8.152123,-11.08139,-14.79086,-15.96254,-22.7881,-18.77905,-25.50877,-26.96865,-27.91912,-32.10501,-33.09571,-36.88757,-37.33491,-41.57777,-40.15013,-41.3284,-50.62601,-41.93649,-52.68275,-49.37386,-50.4036,-61.94645,-43.98011,-63.8228,-57.16619,-56.76157,-66.77987,-54.74533,-68.35354,-54.00111,-67.9894,-57.5818,-62.75061,-59.62602,-62.08438,-56.41828,-64.56854,-57.4744,-64.56957,-60.99733,-58.14933,-67.61401,-57.86504,-62.98932,-62.12283,-64.79568,-62.75245,-64.93652,-68.86217,-63.95049,-70.16651,-65.14944,-73.67134,-67.83191,-76.24526,-66.99798,-77.84776,-67.4914,-77.1941,-66.75022,-73.69151,-73.44735,-67.49612,-71.08744,-71.19907,-65.6553,-73.15171,-64.07583,-68.73258,-58.59529,-69.50527,-50.39242,-66.8429,-51.27848,-56.10427,-47.69573,-50.15849,-44.36077,-44.62011,-36.81292,-38.16501,-29.04609,-34.40989,-24.5281,-24.61464,-14.65033,-21.88737,-7.621685,-11.61482,1.394439,-5.891649,4.811271,0.8679737,7.41965,13.26892,10.58127,12.65133,18.64506,22.0376,20.33133,28.31211,30.74154,21.99521,39.65571,24.77791,35.53647,31.82164,36.72583,35.60076,34.81656,33.22553,39.05757,30.79122,38.71602,38.27951,38.55406,38.10919,37.11914,35.55596,37.7629,34.60758,37.61237,31.63954,35.08552,30.91303,31.27637,27.21604,29.95393,23.81188,29.69499,23.88257,22.97948,23.54608,20.69027,19.26517,22.82733,14.47756,25.6729,11.38931,25.77171,14.81194,24.66205,13.7289,27.33457,12.56334,27.58787,10.8219,23.96116,14.21243,24.59706,17.09016,20.77789,20.89893,15.47895,19.86749,14.97837,21.07552,14.31649,17.51265,16.92823,14.61525,20.8503,10.93682,20.76697,10.77771,20.2836,9.972125,19.28518,10.02135,14.89554,14.15665,12.38785,13.31005,13.83144,14.09703,10.69481,16.52374,8.408411,14.38946,11.62602,13.29992,9.314199,9.958026,10.57021,10.52488,10.56984,12.2448,9.355085,10.30226,11.32692,7.582998,12.32476,8.766159,8.351428,13.12667,8.620841,7.90738,11.38926,9.230323,8.179728,10.05973,9.703651,4.799661,15.02015,4.737,12.36725,6.590816,13.78331,7.248865,8.023134,11.79125,8.086491,5.947991,8.703995,2.643504,8.910522,1.858697,7.507532,0.314288,4.294802,1.71874,5.708291,-1.906602,7.509541,-0.7103237,2.590609,3.469903,0.546757,1.664358,1.873266,5.794902,-2.071161,3.061155,-1.787286,1.95168,0.002298749,0.400852,1.158302,-1.982114,3.112819,-1.583341,-1.489858,0.2752989,-0.9337569,-6.048598,3.389933,-2.836953,0.6281918,-3.115515,2.288581,-0.7536315,1.123792,1.624823,2.705592,-0.6367351,6.451355,-2.040234,10.52631,-2.683284,8.421634,1.045827,4.728755,4.736419,0.2686423,9.857805,-1.27528,14.07955,-0.2614132,12.2235,4.239906,13.49551,7.916069,12.12148,7.691109,12.8566,10.02882,13.81263,10.54285,12.69493,11.75068,16.60732,5.391499,17.96464,5.515337,15.79966,0.8311472,17.03772,-4.32241,18.83471,-8.889055,15.9587,-10.4654,13.82232,-13.78161,10.00044,-13.48308,4.823413,-14.95228,-1.4103,-12.3062,-7.820916,-9.783701,-8.978996,-16.47792,-9.067491,-16.21932,-6.643706,-13.44266,-5.286629,-8.666588,-5.213184,1.494261,0.0412046,5.678722,7.705413,11.81754,14.177,18.84268,18.5075,23.30139,32.42565,22.95531,41.70972,28.80151,40.31611,39.05436,41.0284,46.33833,41.60099,50.65652,47.27467,52.09855,50.22713,55.24945,51.62334,58.97051,51.75076,60.64046,52.2498,54.93933,54.81337,48.71743,53.74718,48.875,47.93661,44.80248,46.62802,39.21083,42.25541,34.63312,32.51843,32.29257,23.36841,26.03977,15.43772,19.6117,8.419518,8.144655,4.733188,-5.226811,-3.739858,-11.39238,-13.79159,-19.42195,-25.336,-27.77864,-35.78793,-30.9998,-47.76652,-38.72659,-52.88782,-51.08607,-54.69436,-61.78161,-60.18901,-71.73379,-61.90682,-78.17843,-68.31538,-81.19209,-73.76096,-84.28375,-75.73256,-83.28986,-78.02331,-84.36086,-78.07275,-84.29775,-75.64902,-81.92442,-76.16208,-76.31956,-72.33847,-73.14136,-69.92166,-71.64847,-63.74386,-67.64687,-57.18444,-70.18757,-49.70241,-67.74243,-45.44089,-60.66553,-43.76433,-58.3045,-40.11681,-54.96006,-37.54747,-52.50334,-36.80837,-46.13055,-36.11882,-43.59378,-32.43452,-34.65444,-30.5379,-28.45507,-25.15231,-24.94073,-20.19593,-16.03704,-12.59469,-15.03037,-4.094746,-12.45526,-0.7631001,-3.013702,-0.8113793,2.284098,4.505503,3.238486,10.93497,4.079839,9.58076,12.87158,6.169444,16.18514,10.05402,16.6519,8.721011,19.84991,9.00254,18.90631,13.21332,16.79419,11.68776,20.65484,7.616,19.62755,9.215182,16.67793,10.91784,16.9761,7.939757,17.01877,8.006885,15.64631,13.0425,9.714491,13.45986,10.73439,10.0652,13.88732,9.155338,10.68314,10.98473,11.7029,10.72985,9.610636,13.65268,9.29981,14.57507,11.97411,15.45502,15.78909,16.06392,20.6995,17.40937,19.53239,19.65895,18.60922,22.84866,18.95487,23.08516,19.57283,21.88324,22.95979,20.62707,24.05858,19.19724,25.5052,21.59685,27.27089,21.62968,26.31649,21.81744,26.85515,23.87225,26.78621,24.2149,24.40525,26.36151,24.06472,24.74406,25.99498,22.908,29.38122,20.83807,27.97843,24.76778,21.44413,29.21426,16.97497,27.88916,15.23568,24.79381,15.9114,22.72374,17.02757,21.07106,13.92931,22.87426,11.29398,22.65952,9.558158,15.89685,9.697513,14.53862,8.909283,11.89219,10.60455,9.746521,8.103833,11.14892,3.698379,8.979552,4.180076,4.511616,8.655582,1.580525,7.356086,-2.076568,6.535649,-5.435398,5.671495,-7.918077,3.553029,-2.912047,0.5458177,-5.395844,0.7819708,-7.054957,-1.596402,-1.94046,-10.60903,-5.207047,-6.565453,-9.656492,-6.301835,-9.20898,-7.165317,-6.347354,-9.247286,-7.975244,-7.537372,-12.01024,-2.182744,-14.45273,-5.817578,-12.46186,-5.198373,-13.03266,-4.006576,-14.03143,-3.77154,-11.91187,-12.21346,-5.681606,-14.01684,-5.014165,-13.75743,-5.492872,-13.06177,-2.86492,-11.41545,-4.214085,-13.72215,-2.457446,-14.30987,-4.019458,-11.20339,-11.84153,-6.420111,-10.26369,-8.028266,-18.05139,-3.328515,-21.74477,-3.70766,-16.72087,-7.247991,-15.6714,-5.620815,-15.60698,-10.4241,-14.58892,-11.85968,-10.78693,-10.51687,-13.36285,-9.651667,-12.1026,-3.925024,-11.40297,-9.035379,-4.112911,-12.67793,-6.631688,-12.44319,-5.172927,-15.00771,-5.430859,-13.84431,-3.997343,-14.25084,-7.841981,-12.80977,-6.946136,-10.18763,-9.105944,-14.73674,-4.369383,-21.35433,-1.176763,-24.48089,-4.343184,-23.52691,-6.577624,-16.67956,-10.3276,-14.14513,-17.00584,-10.6967,-17.53349,-14.52785,-18.42959,-15.49236,-19.56494,-16.2319,-19.52252,-19.52796,-20.15566,-22.69927,-17.30026,-23.67002,-19.84224,-22.12369,-21.14879,-22.9931,-24.22123,-20.82179,-31.05383,-22.89901,-26.81824,-30.05211,-24.3315,-28.55641,-23.91349,-30.36618,-22.46743,-30.71612,-23.9392,-31.09004,-22.94768,-26.96013,-26.07263,-22.2277,-27.40806,-18.15942,-22.45947,-17.78902,-22.75492,-13.87839,-23.0229,-5.98923,-23.69586,-7.283377,-14.58541,-3.02976,-13.41514,-4.112436,-8.067813,-0.809719,-5.103921,2.742386,-7.030672,6.605176,-4.71902,8.973207,-2.874292,8.502896,-3.583213,13.9931,2.517462,12.42291,2.992086,20.53557,2.961696,24.30373,11.53198,17.23354,18.52271,19.07457,18.19759,22.34337,24.44673,24.49337,27.61838,30.24265,28.74592,36.88176,29.47869,44.21854,24.31608,43.99704,32.46879,36.0174,35.92254,38.51888,42.87057,37.21048,46.01204,43.53301,46.18433,49.99598,47.80717,51.49709,53.13939,52.19251,56.58084,51.87334,63.62671,50.51319,66.64717,50.51678,70.02478,48.61967,76.79405,49.90895,69.83983,54.59431,63.2549,56.8714,59.10937,56.01781,54.39006,57.02394,48.16082,54.78914,47.63532,49.0924,45.33548,42.98836,43.44479,37.24849,39.71517,33.46094,31.3009,33.17586,22.0441,28.59589,15.13769,21.81536,12.07358,14.8786,10.5718,5.695277,4.795905,-1.844543,5.180291,-9.214233,0.3835057,-12.32678,-6.428109,-12.87591,-12.90881,-13.38022,-19.34388,-14.62877,-22.54863,-13.56663,-27.24818,-14.92631,-25.33881,-16.39837,-25.96651,-18.65455,-26.15423,-17.7048,-30.3661,-13.98576,-27.9062,-16.08278,-25.28382,-13.00076,-26.93341,-11.66425,-26.27325,-11.42159,-23.20779,-9.290902,-17.21492,-7.360026,-12.20018,-6.606755,-7.679677,-4.977594,-8.606741,3.90166,-9.986102,2.965908,-3.931923,2.795046,-1.592858,6.866669,2.864879,2.430335,4.497322,3.818183,5.73905,6.400036,-1.278208,8.741542,-6.981697,7.756844,-3.067079,1.021117,-1.491174,3.776787,-1.61189,3.725199,-0.2552616,-0.2950202,3.054133,0.1472418,-0.2136674,-1.511692,-0.3080814,0.05204012,-1.679006,0.3088545,-3.833411,-4.316519,-5.616037,-4.922468,-2.097058,-13.22836,1.150533,-20.65428,0.5953895,-17.76602,-8.798377,-15.57088,-9.931557,-15.5128,-13.89465,-13.57483,-24.72567,-7.971935,-22.56076,-12.43446,-22.37591,-17.90744,-21.37274,-15.92998,-21.85807,-15.89505,-23.91368,-16.83678,-23.66395,-15.83847,-24.61422,-20.36279,-20.6902,-20.36007,-21.33605,-20.68227,-23.64876,-19.34317,-20.66249,-23.51367,-16.844,-25.53889,-17.68664,-23.42938,-16.78223,-22.40681,-16.07234,-20.78715,-15.07087,-13.92795,-22.56694,-7.592819,-26.19029,-5.60707,-24.2735,-9.189162,-22.81128,-9.548796,-19.0744,-13.81275,-17.98353,-13.64793,-20.58489,-11.9829,-22.17435,-12.11932,-19.31111,-18.90345,-13.67011,-19.26916,-11.77761,-20.34206,-11.27946,-18.93455,-11.32724,-19.19442,-16.71685,-15.45868,-24.25912,-9.03623,-18.85201,-13.77169,-16.96466,-8.37376,-18.08619,-9.083399,-11.10927,-10.67244,-7.887772,-9.823418,-7.626835,-6.411726,-10.13904,-1.883169,-5.587687,0.2008066,-0.72487,2.369694,0.005340621,6.154169,4.187629,6.096817,12.64305,5.02281,20.66367,6.651967,23.52019,11.57221,22.29573,17.35025,24.75031,20.76302,24.59782,26.34763,26.4075,28.1687,30.27239,27.48825,35.38204,29.94706,33.89115,36.31255,34.02422,37.29043,36.34273,38.35514,36.67165,41.95093,32.94847,44.35411,35.24503,42.01236,35.94945,40.16554,35.94142,40.45876,33.41114,39.83786,32.7182,38.84335,34.73593,37.36002,34.41623,34.33448,36.8497,34.34143,36.99072,33.57093,38.43461,32.59254,38.61862,35.44749,34.25223,36.15158,39.03481,32.3553,42.05092,29.78602,38.63368,33.13261,38.09276,33.60385,32.44467,32.45907,28.05269,33.56241,24.57326,31.87756,24.92177,25.6773,28.71418,22.37942,24.74875,22.90385,21.10195,24.09826,19.8084,15.75863,19.63021,14.83519,15.2359,12.08437,8.208741,6.36836,7.124487,1.132879,4.870668,-2.270752,1.141671,-1.499279,-5.797055,-3.933076,-10.18957,-7.00383,-19.31873,-6.484477,-21.12826,-17.40654,-22.68113,-20.18055,-26.15171,-23.1846,-30.43623,-28.03561,-30.93927,-29.98846,-37.84837,-29.1051,-44.98822,-31.44267,-43.36536,-34.85696,-41.05807,-37.52648,-40.28018,-38.34406,-37.42681,-38.57547,-38.71056,-38.44975,-39.32178,-38.41482,-42.69592,-34.58244,-47.60646,-33.06738,-48.02177,-37.24515,-46.66761,-41.49307,-44.08173,-40.23866,-47.78023,-37.02153,-52.08801,-38.17799,-50.05126,-43.87661,-49.34645,-43.02242,-54.3398,-46.90084,-52.94385,-48.13629,-50.516,-49.75722,-47.55237,-51.12606,-48.03326,-49.56515,-44.92484,-51.51025,-46.26758,-43.73155,-46.69488,-41.72756,-42.8623,-43.84049,-32.98846,-45.2939,-27.47287,-39.44299,-30.51553,-32.66888,-28.16176,-30.81155,-20.73396,-28.69198,-19.56862,-21.16234,-18.27621,-20.18062,-13.22129,-18.25503,-8.539547,-13.7293,-3.592878,-5.923162,-0.9491314,-7.586269,9.965171,-4.587167,10.91456,2.617522,8.774863,7.58234,10.76925,9.253568,12.82264,10.00432,14.02746,19.86126,7.595701,22.76809,10.28928,22.74939,13.82308,19.65905,15.47034,17.28167,16.38661,17.45334,10.26452,24.30764,2.883435,26.97311,1.381137,19.6257,2.381889,11.00393,7.263398,7.117847,3.813781,2.134091,9.17101,-3.375181,5.248946,-0.418097,-3.569474,4.092259,-3.581331,4.514239,-2.22862,2.681193,-1.63723,4.400442,1.853498,1.784445,-1.063478,4.070728,-2.578907,8.065112,-4.908362,10.70861,-7.85409,11.67074,-3.604732,8.885625,-0.3119002,6.620571,2.997744,7.534211,3.141338,10.27012,-2.760921,9.774433,0.3455361,6.002026,1.471721,6.604759,-3.671092,11.81226,-0.3045342,4.756552,-2.387219,5.363222,-0.9130973,4.383439,-2.985373,5.174799,-0.2058657,0.00403533,4.527717,0.4792129,0.9105031,1.026387,2.415658,1.171992,4.51519,-2.965267,9.005981,-7.466901,11.21542,-4.924382,8.410985,-1.651633,8.34864,1.434036,3.747146,7.108832,2.101739,9.445362,4.100117,7.505061,5.548422,5.524437,5.934617,7.492997,2.732022,10.26452,5.173066,5.229138,12.33673,1.228394,9.393831,5.708799,9.065621,7.596045,9.005472,9.086959,10.36852,13.09801,4.753038,17.78955,6.002054,15.2343,6.675042,15.43416,6.743262,15.12385,8.841859,14.03848,11.79877,18.46124,3.136405,23.77304,3.513789,22.90108,7.643309,19.6229,19.20126,9.986071,23.43747,8.149264,22.27764,4.689194,22.94315,7.964532,23.36999,7.610802,18.10721,10.22474,19.80007,8.53096,16.56922,15.66904,14.42907,12.1844,16.45228,13.51432,11.55131,21.70872,13.84705,22.94538,11.08193,24.99326,14.86504,23.4567,17.60003,25.61671,19.19545,22.78678,21.17465,24.34167,15.98735,27.66526,20.36278,26.38963,23.02223,32.04319,17.02856,38.18914,14.54316,34.23987,18.79409,36.02042,19.27625,37.08221,19.13339,37.90656,20.3579,33.52553,25.85297,32.5111,29.00691,27.82343,32.32867,25.10195,37.53213,21.88069,34.29172,26.62515,37.13151,25.74021,37.21995,30.96044,39.33149,37.41759,36.03841,38.31897,36.13385,38.46587,42.05533,38.62331,41.28183,38.54795,46.38377,42.89041,46.88761,44.44144,49.1512,45.98145,52.47718,43.70444,55.77071,46.19815,51.38403,53.86943,45.52935,53.56421,42.09806,50.83722,38.84469,45.82472,29.99056,45.56682,25.04165,37.59811,27.04785,31.9195,21.12388,22.42222,23.65426,20.57652,12.39532,20.3672,5.64583,15.75701,1.891075,7.873126,-2.622027,-2.213074,-6.15445,-10.94716,-10.81284,-16.71399,-16.3338,-22.77344,-18.72742,-32.27953,-26.57576,-36.03467,-28.85687,-45.38246,-35.03629,-47.994,-48.17919,-48.94931,-52.27428,-55.99167,-53.67511,-57.51832,-60.49237,-60.69066,-64.48994,-63.06199,-66.16331,-66.53467,-65.93718,-68.64484,-72.71505,-66.19454,-71.42322,-66.65778,-70.99984,-61.57844,-71.64572,-60.81038,-64.00312,-60.38624,-68.51513,-49.93135,-69.43135,-47.1506,-65.80614,-50.553,-63.21501,-50.51062,-63.99736,-53.52241,-63.76674,-57.07776,-62.60781,-60.13389,-64.17985,-63.75253,-70.26515,-63.19546,-73.08381,-68.66332,-70.94298,-71.37487,-74.18801,-71.03495,-72.27731,-76.16782,-71.49558,-79.51355,-74.16809,-74.87941,-74.70406,-72.84316,-70.87602,-73.01621,-69.70587,-67.11075,-69.73631,-62.99614,-64.78861,-57.79488,-54.28303,-59.25922,-44.38578,-46.43628,-45.80833,-38.15886,-41.40671,-29.12476,-39.76589,-19.20195,-36.24024,-16.41828,-22.25215,-17.26239,-15.62094,-6.223655,-18.12751,5.240207,-7.154805,7.680817,1.696626,9.070216,15.33029,13.68081,17.29172,21.99439,18.82107,30.83434,23.10091,35.05883,28.63062,41.30411,28.60949,50.32449,32.75816,52.60158,39.73684,50.71461,48.76576,48.5277,48.58506,51.73045,50.68015,46.76445,52.16013,44.60931,50.4909,45.08849,46.54975,41.01044,43.97565,36.37035,45.46045,30.31778,39.66941,28.96796,32.36433,25.97914,26.77702,24.12123,22.35486,24.93983,19.12753,24.24032,16.66311,23.84776,16.75644,22.00155,23.26991,19.36968,24.96869,20.07591,20.13528,24.6008,17.98924,22.02258,17.66378,18.50959,14.80949,24.82738,11.91519,21.82276,10.69471,20.37286,16.72807,18.93316,13.95763,19.83776,11.84809,23.02304,10.18431,18.59917,14.97732,13.44691,15.07786,15.15645,14.21565,15.14113,14.09326,14.72535,13.55768,16.22904,7.350277,18.53571,6.536296,15.98781,5.859074,13.37649,11.64257,16.3998,10.93775,16.12658,12.74542,19.88113,5.482321,25.58091,4.799619,19.43509,7.170019,17.10342,11.71723,12.28012,13.21727,7.951419,14.62888,9.915431,11.05398,13.37686,6.18573,12.00434,8.122476,4.333732,11.18688,-0.3801957,6.795779,4.968301,4.900718,6.030575,1.864586,5.852033,3.560521,2.541237,2.735004,5.918359,0.2322102,12.09549,-3.898582,14.16612,-0.836543,9.001311,4.385907,7.977617,4.354802,8.682584,5.685311,9.272767,2.73529,12.31559,-1.546064,15.28668,0.07936949,12.52876,1.457655,4.116159,7.993063,2.271198,4.270843,3.33678,5.919558,1.683019,8.052874,-0.3409991,3.710636,-0.2574927,1.588587,2.670514,-2.890826,2.593328,-1.048915,0.4320256,-0.05520951,-2.302331,-0.05671533,-4.037533,-3.737205,-5.512208,-4.341471,-6.111664,-6.449658,-2.418505,-14.22768,-0.1163943,-15.54346,2.160596,-11.33024,-3.394752,-10.54871,-6.645369,-8.626144,-4.719878,-12.23428,-3.476981,-13.56822,-7.280317,-10.47618,-5.89909,-11.27052,-10.85939,-12.59489,-10.98739,-12.41677,-16.65408,-14.81202,-17.24611,-16.65168,-18.74737,-12.53542,-22.55242,-7.633617,-24.88111,-10.53263,-19.56903,-15.99617,-14.75715,-19.79619,-11.90685,-19.79043,-11.97325,-18.6279,-10.1988,-14.5054,-12.85222,-11.74735,-10.97899,-15.38648,-5.420043,-15.20693,-7.105472,-15.29573,-5.426594,-13.25529,-9.379206,-11.91363,-11.00082,-10.25332,-6.202433,-14.25991,-7.767592,-14.67281,-9.780283,-10.0684,-12.62078,-4.709347,-16.87431,-6.369886,-5.461292,-15.40961,-0.2093206,-19.39553,-0.992796,-13.76918,-4.091463,-12.68375,-6.675931,-10.22297,-6.670522,-12.34417,-1.6801,-16.83525,3.122384,-18.06272,0.6942289,-12.21907,-2.971538,-9.488625,-5.0458,-5.789301,-5.880319,-7.097729,-7.893083,-4.80257,-10.19337,-3.111728,-11.90675,-7.018167,-8.439654,-4.776825,-8.341175,-7.264492,-7.20874,-9.503287,-3.06825,-12.1767,-4.753643,-3.831205,-9.540551,-1.607254,-9.588562,-2.151423,-5.42618,-3.591922,-2.052645,-0.707749,0.1845894,-0.8432998,1.946348,6.318754,1.211252,5.395979,5.052706,4.223441,8.216946,5.176075,8.426395,4.207151,12.64577,4.609172,4.849727,10.52361,0.3351219,11.63778,0.1982991,10.94087,2.950464,9.965406,0.6077832,15.55219,-1.784979,15.17578,-0.6605756,13.69645,5.133334,9.589532,8.568158,5.093002,9.433067,6.356361,9.769143,5.602852,7.102169,10.29699,3.872586,11.73913,2.701088,7.538459,10.05024,0.101113,12.36657,-1.629141,10.62808,-2.47882,9.822595,0.9367454,3.682769,6.82501,0.4647707,9.419764,-0.4809575,10.77089,-2.611144,12.29848,1.357314,12.33612,0.9035039,13.82217,7.722126,7.154127,15.81775,4.707806,15.85212,9.627214,22.11939,7.94033,28.85044,9.957553,28.12686,16.58788,30.63468,18.75842,32.86548,19.3292,34.93982,28.52315,31.14505,32.83937,36.29514,35.1073,38.00843,37.52124,41.43423,35.3983,44.13594,38.37466,42.30045,42.16622,44.89887,43.08174,46.52662,46.18587,48.01792,49.4296,53.01847,46.91921,57.30147,46.67625,50.22837,53.84562,51.26218,53.90957,50.92524,54.5471,55.6202,58.07886,53.43269,61.67992,54.393,63.1912,49.31768,66.16359,55.41299,56.58399,61.02618,58.93705,53.65571,63.68428,52.50959,61.56134,51.42104,59.31554,49.56179,55.23762,48.40533,61.14304,42.64114,54.37356,45.66463,52.46034,39.12584,52.4131,34.60506,43.83667,35.80423,34.57246,33.5348,27.31418,32.26525,18.82897,30.06314,12.01361,18.11542,11.88178,7.603007,10.3476,-0.7862955,2.060244,-3.083863,-10.99955,-1.929439,-21.39553,-9.895007,-26.06495,-17.29876,-28.71587,-26.65646,-32.56108,-38.16675,-32.27015,-47.33109,-36.19532,-53.94381,-39.7917,-55.89199,-46.49474,-60.05043,-53.09017,-60.52254,-61.23841,-59.05072,-68.26301,-58.55722,-68.561,-63.36884,-70.58949,-62.75493,-77.30351,-62.45262,-80.12251,-62.06068,-81.81859,-63.62189,-80.83084,-63.39216,-74.15149,-66.23963,-69.94489,-65.54891,-72.92289,-64.904,-71.97261,-70.60617,-74.12508,-71.41177,-73.89932,-73.4062,-75.99076,-74.28023,-80.01199,-74.05706,-82.43034,-80.18118,-80.60623,-84.07178,-79.21792,-90.39697,-82.4115,-91.67058,-84.44255,-90.32923,-82.54143,-91.75908,-80.67075,-89.99575,-79.10869,-86.34536,-79.3007,-82.96357,-79.43134,-77.12674,-71.30521,-78.18762,-70.40268,-66.50089,-68.97259,-63.09134,-56.60878,-66.71386,-48.55527,-59.95583,-44.13464,-52.5572,-37.83154,-41.2532,-29.64318,-37.99444,-19.53447,-31.00026,-15.9656,-24.34969,-6.866054,-18.98315,-3.327346,-7.507129,1.626821,1.562962,5.696136,5.788439,6.768162,18.00739,6.290691,24.1506,12.58162,24.09129,17.87707,29.45653,18.47343,33.63531,18.77523,37.15373,21.10429,38.04028,23.19103,36.14305,29.74497,31.58256,32.89829,30.91728,30.18365,32.48352,30.26211,33.44699,28.23836,31.36119,30.27682,25.89304,29.28337,23.09038,24.88565,22.81603,23.04323,19.78663,20.87767,15.37744,23.20761,12.65233,21.54994,13.49675,16.16054,18.00815,15.75135,20.11359,13.17924,23.93469,13.88662,23.95655,13.27523,21.91756,11.77614,23.61178,12.51297,18.88865,11.79143,18.00405,12.58477,20.52136,11.39856,19.71352,7.035579,22.28204,7.631362,19.41032,12.16973,12.97929,10.39387,12.08013,10.54219,10.1129,7.353723,13.26636,7.511211,8.803383,8.7481,6.612022,11.9566,4.843421,13.27081,3.762137,11.24837,6.316202,9.960002,7.935897,10.74557,8.375606,11.05173,10.78679,17.4263,3.099359,23.52352,3.347495,28.22309,3.127228,31.35868,2.747815,31.24272,8.483435,24.99351,12.62149,24.75843,12.58377,29.79279,16.23102,26.60053,21.82397,24.70685,24.53569,26.38202,22.50711,23.02634,23.91954,22.76939,30.04838,14.96519,32.32509,16.7453,28.5546,18.78985,28.51547,19.30381,28.96519,23.6694,27.68659,20.51212,29.76006,22.85919,25.82542,26.75634,24.24279,24.67273,30.84345,25.03625,33.61108,22.3742,35.26459,25.72573,30.09714,30.78976,28.46998,31.29275,32.20116,30.4343,31.16034,32.2857,31.36983,34.58295,30.13211,29.20311,31.2379,21.69133,29.91591,24.41168,26.98687,24.37377,19.8756,24.62601,21.06444,19.81613,25.87624,15.71897,22.77215,16.22899,16.8255,19.28865,16.79266,14.62634,23.78102,12.1949,18.89983,13.52495,17.22081,12.24448,17.34359,11.37432,14.26699,10.35744,16.9538,6.92852,12.35312,5.687543,14.14647,3.004793,19.88546,-0.9719323,23.19763,-0.1081162,16.93038,9.194519,10.67135,16.35685,6.411645,21.52936,11.18266,22.99039,13.95906,23.83735,19.10104,22.40513,21.10653,25.26389,21.15356,32.05364,16.96578,35.01093,18.76357,35.64511,17.09576,37.42201,19.52306,37.52887,20.96604,35.16791,24.34982,32.81431,22.35957,30.98629,24.44139,25.05497,22.36168,21.28904,20.59311,21.95222,14.33738,14.11692,11.84451,16.07953,0.9188631,15.00152,-1.880653,10.51712,-8.033541,3.670321,-10.18886,-4.674869,-15.72953,-6.614609,-23.98761,-14.20984,-26.4944,-14.61354,-28.72659,-23.22261,-28.95269,-29.2568,-31.52869,-31.4531,-38.06231,-33.85154,-39.76855,-39.46218,-41.38709,-46.95554,-43.97553,-48.24313,-47.15952,-54.61702,-52.31425,-54.86287,-53.66584,-57.76301,-54.81755,-57.19246,-57.28714,-61.17601,-57.47459,-53.14936,-61.41906,-53.77665,-55.32916,-61.03041,-54.01244,-58.58332,-56.84279,-55.67087,-61.64097,-55.5467,-57.8242,-62.48482,-58.67485,-57.44273,-65.3655,-56.73394,-61.2334,-61.27262,-60.48014,-62.89706,-63.0279,-59.23506,-62.42168,-57.7089,-59.77521,-61.0804,-53.0375,-61.62283,-48.36505,-62.98964,-46.44478,-54.18902,-48.83015,-40.82379,-55.08543,-28.79208,-51.50396,-28.04072,-45.67668,-27.05422,-37.24026,-30.00708,-26.07766,-31.81182,-18.98854,-26.26289,-19.38082,-15.71823,-14.48723,-17.40109,-7.946418,-9.292056,-9.435885,0.6844139,-10.18768,3.63404,-2.533676,4.362031,3.909161,8.05815,4.635931,16.39366,5.483459,17.09242,15.37303,13.73079,16.9083,21.20189,15.46562,29.17157,8.169239,36.97894,10.30254,34.56288,11.84981,32.66301,15.48708,34.24347,13.71122,35.59713,7.486694,38.55814,13.61787,38.4436,9.0456,34.97895,10.75387,29.38953,13.67409,25.31811,11.74209,23.88101,11.52646,14.99538,15.41757,11.46058,8.493934,13.92606,9.442827,10.74602,12.07515,10.89643,7.895295,14.78879,4.19083,18.42611,9.346793,15.35363,16.72447,15.22751,17.30944,19.74138,15.58277,23.11016,19.2193,23.42047,18.5498,25.28822,19.32124,27.44936,20.12401,27.25764,22.25929,31.29428,18.36996,31.34632,20.27403,30.70047,22.77103,32.14171,20.72227,34.75011,20.89111,28.32661,30.22532,21.02262,35.09883,18.01447,32.86858,19.07492,30.38393,19.38923,28.98272,22.56036,16.64622,30.51274,10.67985,30.27054,10.82877,24.45623,15.61515,13.21612,20.60952,9.303118,17.77375,11.77186,10.95859,15.01093,4.068375,15.07531,3.352014,10.75412,1.053689,12.24441,-1.105877,9.396541,-0.3396617,6.25167,2.341601,4.022244,4.259787,4.03194,-0.2885041,8.777771,2.224547,-0.1139287,9.186878,-3.337529,7.46926,7.074952,-3.80219,5.852491,-3.552775,5.348264,-3.262646,2.812817,2.933493,-1.627833,-3.619596,2.685896,-3.924303,1.735363,-4.759455,4.096013,-9.201909,3.193757,-10.64996,3.154914,-9.850802,2.496647,-11.77827,-1.136601,-12.65287,-4.132049,-3.085757,-11.4748,-7.568409,-5.40119,-8.980327,-8.093336,-1.999766,-14.79999,-5.488789,-11.00269,-6.811847,-6.136198,-11.95872,-4.792872,-12.12857,-2.18435,-11.61817,-9.261383,-8.595519,-3.690077,-17.5144,-2.549535,-15.22551,-8.194833,-17.8031,-6.243898,-19.97052,-3.664214,-25.32563,-4.162736,-27.1043,-5.393687,-22.70538,-7.630346,-27.60443,-3.298755,-30.2015,-6.594902,-25.0063,-15.53609,-17.73959,-24.2454,-14.35794,-28.33899,-12.6364,-29.68504,-13.34295,-28.55278,-17.40143,-27.3819,-19.61562,-20.84909,-25.13672,-20.77557,-25.6642,-21.77823,-25.04385,-27.46378,-23.18049,-29.80315,-22.60133,-26.74419,-28.60594,-27.47106,-27.17525,-28.58215,-31.92595,-25.73038,-34.78577,-23.86976,-34.96669,-24.36568,-32.36733,-26.37053,-31.31267,-27.09504,-25.51084,-26.24812,-24.35138,-25.37972,-22.81118,-27.27313,-23.47334,-29.30989,-22.00047,-32.67864,-24.89988,-29.07196,-23.02169,-33.60468,-21.03353,-32.91183,-22.4559,-39.22863,-16.15275,-43.79721,-18.88449,-41.6235,-21.63724,-37.85624,-28.33672,-33.78006,-29.285,-33.65741,-30.64987,-30.63742,-31.42205,-27.21716,-32.4403,-24.05131,-25.74713,-31.17126,-15.99542,-28.42408,-12.80866,-20.04006,-11.56276,-18.67837,-7.076422,-11.56755,-2.213318,-7.885754,3.166731,-1.807122,2.464505,10.58189,1.831357,15.21746,10.64517,15.46453,17.29264,23.50967,19.64643,24.85216,26.25843,31.21409,30.71301,34.92891,30.44329,40.09923,34.55228,42.94327,39.67421,44.29443,41.96701,53.02752,37.24588,55.09469,39.91936,52.68384,47.51207,51.57239,50.84406,51.65515,55.80257,53.57019,58.75992,55.55594,59.98204,59.69649,62.42059,61.97469,66.17248,61.9963,68.00442,60.72104,74.05732,58.88217,73.86833,59.21576,70.58345,58.06743,68.38222,56.07277,70.72573,48.72221,74.45878,49.32119,70.68297,49.4703,66.79436,49.92066,62.60346,52.19402,54.87144,57.26648,51.57879,53.67584,46.27657,49.72894,43.78548,46.03756,39.10651,44.69286,36.33323,38.78514,36.9293,33.24156,34.36265,26.05507,33.59641,19.9596,30.79044,18.82439,22.28291,11.1698,24.07313,6.858096,14.17113,8.268035,6.893898,5.597838,3.586714,-2.013963,2.072051,-4.835636,-2.045452,-9.550794,-7.64644,-6.465323,-14.63424,-8.531907,-11.03533,-15.71754,-10.73359,-16.37809,-13.18863,-16.27956,-13.03001,-17.35494,-10.0721,-18.54786,-6.118071,-22.63153,-5.280391,-17.70372,-9.417326,-13.27258,-9.146128,-11.12265,-7.340039,-11.91858,-6.442211,-7.296216,-10.11423,-1.69449,-10.5087,-2.361806,-4.522003,-6.536964,-2.739854,-2.762001,-2.800184,-3.740771,-2.284623,-5.037696,-5.957115,-2.146434,-6.277864,-0.5048712,-7.4852,-0.3773551,1.997488,-3.2352,0.6212164,0.3023361,2.746346,-1.756199,8.594781,-2.430774,8.376804,-0.4929323,9.745414,-3.277942,11.00839,-1.527344,10.88354,-3.115053,10.89284,-7.240688,8.299829,-4.973585,8.401306,-5.61027,9.27639,-7.097453,11.28825,-8.535739,10.48778,-8.070419,7.042798,-5.264192,7.923023,-0.8977097,-0.6758543,6.727753,-6.521247,8.758767,-8.960639,8.114916,-6.403277,4.427554,-3.085664,4.467855,-6.287548,1.747419,-4.841164,2.044275,-8.147389,2.420839,-9.187735,0.4426513,-8.76677,-4.677067,-12.29804,-3.999093,-9.076332,-15.91459,-6.480817,-13.72763,-11.98953,-13.46703,-13.99372,-16.08771,-12.43049,-21.48087,-16.28372,-23.63528,-17.46792,-21.19481,-25.69159,-15.8238,-26.08714,-16.30908,-27.1626,-14.29223,-25.95744,-20.15696,-18.97071,-25.12095,-18.2821,-24.86392,-21.39007,-26.15984,-15.56739,-27.20206,-18.69813,-27.63602,-17.96599,-28.99722,-19.60271,-30.26375,-21.63012,-28.06056,-25.17337,-27.55659,-28.67062,-24.34815,-29.61268,-25.57503,-32.24406,-25.0439,-34.20916,-22.24033,-31.60325,-28.40337,-28.68619,-26.74899,-31.23814,-27.38158,-31.79304,-23.55566,-28.82891,-32.58485,-23.18272,-31.87626,-26.52459,-30.92704,-23.87603,-34.63805,-24.78637,-33.01274,-29.07619,-32.39499,-30.73501,-33.02465,-32.76248,-34.86463,-34.34154,-36.81488,-34.46538,-39.13468,-31.3883,-41.3735,-32.24393,-41.23821,-32.53284,-39.21107,-37.2413,-36.50496,-39.50323,-33.78913,-38.15589,-35.53652,-41.13214,-31.97619,-43.81759,-32.83645,-41.29622,-32.63877,-43.73874,-29.96731,-44.44788,-30.59368,-45.30019,-27.40712,-41.37192,-25.07315,-38.30992,-31.02491,-36.40634,-32.75221,-41.63189,-31.38693,-42.84268,-32.44552,-42.05057,-44.62103,-32.9772,-50.39224,-36.38745,-51.66098,-37.81739,-52.81484,-37.39213,-60.30639,-36.95744,-58.05079,-39.32102,-57.50917,-41.36937,-52.58122,-44.81717,-49.73208,-45.45543,-42.19967,-46.66585,-37.63761,-42.76403,-38.30743,-31.97683,-36.56189,-28.59057,-27.36198,-25.03079,-23.70769,-22.41053,-14.4177,-18.93602,-5.782539,-15.84246,-0.2363379,-7.707639,1.29285,3.215433,4.212954,13.89248,10.2072,18.38614,16.45378,24.38957,25.88042,32.45591,32.31306,36.13875,39.43713,41.48583,47.87326,45.00936,57.0688,52.1298,62.46637,57.01748,66.75829,63.47023,70.34673,69.91073,74.38357,74.172,76.60139,81.75457,75.1476,86.19201,81.4312,85.18707,88.80479,83.11939,90.91047,79.23376,90.59157,77.95066,90.9125,80.44789,86.44526,83.8743,88.69686,84.22613,84.52995,85.96482,88.56375,84.95619,88.01616,92.17294,84.37306,96.39393,85.74607,94.86236,87.04052,94.80877,87.20386,95.75812,94.41375,92.39061,98.66565,92.83757,104.5928,94.45406,99.46624,91.07193,94.65672,95.42522,87.58958,91.28432,89.28764,85.35035,86.10652,79.84908,77.55337,80.98644,68.23439,74.71554,64.96774,66.01052,58.53051,60.30758,47.63999,56.16333,38.90681,44.90896,36.11363,34.63157,27.81243,26.14207,22.10889,14.91043,15.42266,6.41633,7.804089,-7.353439,1.829624,-11.70021,-13.33806,-13.66988,-26.97187,-16.878,-30.90104,-26.75132,-33.78449,-37.86208,-34.63112,-49.40732,-33.13991,-58.63308,-38.26209,-58.60684,-46.00771,-54.10529,-59.84539,-50.76469,-62.60387,-51.17431,-60.89826,-52.88146,-62.58746,-47.70669,-60.27121,-49.73274,-48.4556,-56.00108,-39.75734,-55.2302,-37.98466,-50.60881,-38.70918,-45.34214,-34.1977,-44.50166,-33.0096,-35.92369,-34.64754,-31.99397,-31.54381,-29.79196,-31.95736,-30.83314,-35.13537,-32.29354,-36.05922,-36.70587,-29.07275,-40.92477,-29.52241,-38.64573,-28.70799,-36.08535,-29.09602,-35.14908,-24.44641,-36.21336,-21.95791,-36.26504,-21.98754,-33.7117,-31.24416,-27.44937,-35.08823,-26.87101,-39.38614,-25.21699,-38.58481,-28.88888,-36.36746,-33.01033,-34.38156,-30.1082,-34.51258,-28.69837,-37.40551,-26.19211,-33.0573,-28.5372,-34.10402,-29.53847,-33.93219,-24.06281,-36.52284,-22.77217,-35.14104,-21.12406,-36.87197,-20.24039,-30.36321,-18.89868,-26.90976,-14.63186,-29.85766,-15.39873,-18.63538,-20.56604,-12.57292,-20.38785,-12.82115,-18.93407,-8.49721,-23.72331,-3.013803,-21.94366,-4.537758,-18.3083,-6.136254,-14.01792,-6.167641,-8.83422,-10.64738,1.64678,-18.96694,6.287932,-15.77543,2.257505,-12.37853,0.6917356,-2.220547,-11.18348,7.540681,-11.45405,6.584937,-0.3492099,-7.64899,11.26478,-4.84893,10.23935,1.433309,11.78359,4.070109,18.36405,1.382891,22.68382,6.485727,26.2967,7.376187,23.77856,12.56432,22.40608,17.80985,24.80587,18.77283,26.33311,25.98596,27.93152,23.00873,31.72429,28.09775,29.44499,28.93447,34.05738,25.99508,37.30497,27.61966,39.23725,29.54066,39.38899,36.69144,41.21355,38.80866,39.59709,44.40477,35.91644,47.87802,30.18598,48.7291,33.15917,44.35024,31.35192,44.49768,35.81646,32.44218,36.97212,35.83275,37.14053,27.1702,34.05777,31.9051,31.06725,30.28922,29.37641,25.75585,34.13154,23.35357,29.7547,26.72878,22.69817,27.55111,23.84738,33.54093,26.72339,27.36548,31.82529,28.18397,34.13388,29.48037,33.4683,35.03986,27.9746,36.74418,28.30413,28.50398,31.38247,34.91687,22.11503,38.11856,19.40868,41.2473,18.03953,39.98503,17.16047,41.13063,15.78238,39.37361,17.92432,32.74143,18.13061,31.41097,15.93637,24.17861,21.82197,12.46236,27.2649,8.253435,20.33503,12.26637,13.9541,10.11467,11.52278,8.734144,3.658417,3.241897,-0.05663372,-10.49906,5.376797,-15.46104,-4.070985,-15.19277,-10.98729,-20.49647,-17.96553,-26.34082,-18.14691,-28.95777,-17.82218,-44.44243,-18.23725,-50.48132,-20.45927,-51.39809,-27.24163,-50.6055,-35.22307,-49.10312,-37.52272,-54.03313,-41.02557,-55.00252,-49.32195,-57.85288,-51.47176,-66.88829,-56.5615,-62.37085,-65.48699,-62.26054,-66.74482,-65.43591,-75.23762,-63.79192,-79.54467,-63.11078,-87.73828,-55.57123,-93.17969,-59.20675,-83.36973,-69.2862,-81.28827,-68.77051,-78.7959,-73.80752,-72.01155,-73.27498,-70.7722,-76.6226,-67.36312,-71.95249,-70.00195,-62.81368,-70.06203,-54.09165,-66.3007,-57.18487,-56.19817,-50.97259,-55.14723,-41.98028,-48.47713,-33.51273,-45.75748,-27.89979,-37.92895,-23.76955,-30.55812,-18.59372,-25.45318,-13.75515,-22.66381,-4.834599,-19.51702,-1.716637,-7.487063,1.862451,-2.387303,9.73395,4.013212,13.47334,6.561654,21.02298,12.20522,21.98258,17.13859,28.6398,17.6486,29.20941,26.4806,29.56142,27.19638,30.86109,34.67399,26.87642,33.78289,26.14223,32.19467,27.76454,27.64451,28.52068,28.18531,17.66253,30.23835,13.04272,26.21806,13.65153,23.34386,13.8634,18.66921,9.570427,17.61045,9.056451,13.35987,13.08048,8.69669,11.1399,7.922838,6.219148,7.626701,7.101623,14.11693,1.620623,16.01963,5.353525,10.93457,12.49578,6.241921,9.536919,9.004818,5.928034,6.319266,9.017023,3.574402,10.71712,2.289503,11.71576,5.380543,10.92764,2.89016,13.11889,-0.9502051,15.8491,-1.594126,14.92289,2.302496,12.40243,-0.2746758,18.10789,4.431684,11.25392,5.06777,15.81596,1.62228,18.46253,-0.2456152,15.3558,5.668429,10.2917,8.80094,14.66214,6.819731,16.9828,1.55325,20.144,-3.870527,19.66609,0.9599679,12.89208,2.851016,12.29373,3.504765,10.25559,0.963314,9.008751,3.969357,7.348061,3.370649,8.331121,3.972138,6.075002,1.877876,9.211402,1.972656,5.964907,3.519721,3.416703,7.658026,4.551372,5.799251,7.050509,9.043217,5.241081,14.18898,6.19871,14.72097,11.2008,9.11516,17.13142,10.83622,12.7195,14.43575,10.33414,19.39729,11.95551,11.85368,20.75964,10.75107,23.13998,14.08631,21.72929,12.24906,25.33327,14.23054,22.23085,22.36402,17.74456,20.42603,22.86673,15.77422,26.93201,15.04266,22.60747,22.53365,16.59667,24.98534,13.68711,25.40431,15.55711,21.35141,18.96458,18.5356,12.29669,25.49371,9.82784,19.16271,12.22872,11.03869,15.69986,6.965783,11.92478,5.504476,10.90877,3.374989,7.422843,3.747672,2.658649,6.027577,-7.409022,12.29197,-7.777644,0.9167381,-0.6330597,-2.215479,-0.3130863,-4.324101,0.2926336,-7.206055,0.2306691,-7.277305,-5.022634,-7.651079,-4.185319,-12.77684,0.5454652,-17.73937,2.785327,-18.1705,1.818908,-18.32274,-0.8617185,-17.79168,-4.676027,-15.33887,-6.998643,-14.9539,-7.481324,-19.68291,-8.31454,-15.96818,-8.805294,-18.12528,-12.77313,-15.74836,-10.4982,-15.13712,-16.28754,-15.89192,-18.13658,-17.4077,-24.89632,-20.71611,-22.65304,-26.99957,-22.84617,-29.86446,-21.90791,-32.58968,-27.59225,-27.97525,-31.56808,-32.02836,-31.02703,-37.10009,-34.60563,-36.92246,-35.95896,-39.77631,-35.66514,-43.32989,-37.00121,-40.56996,-40.74248,-30.60689,-47.1527,-34.50366,-36.36491,-41.26916,-31.16895,-39.94436,-33.47485,-34.26538,-32.88799,-35.41597,-28.21183,-30.27572,-32.68762,-25.73369,-22.38253,-29.10703,-14.53316,-25.31794,-12.97255,-18.18604,-9.759002,-9.504485,-9.397011,-1.740314,-2.568415,-0.8850689,5.051875,3.826066,8.406411,16.65714,5.066944,23.52913,14.20666,22.51422,25.66044,23.30826,28.50633,33.02785,32.0517,32.80574,37.46473,39.94787,38.72343,44.43257,39.81805,52.31773,34.07501,57.51456,41.60415,50.40144,42.57838,53.62651,41.06769,41.71365,48.20916,45.70694,44.01758,47.54286,48.44892,43.12042,51.75375,44.14321,47.58387,42.6717,52.32669,39.7092,49.76392,43.71985,40.69608,46.99207,37.84847,48.52437,39.01782,44.4211,43.65602,45.60494,35.37994,43.80372,35.7526,39.95282,32.11208,34.28505,27.40192,34.82201,22.98342,29.95572,24.68667,24.12226,18.84613,23.74678,14.27273,16.69996,15.73958,10.69831,12.14698,9.592375,1.378423,8.52182,-2.448503,-1.366997,2.537707,-10.9853,1.441319,-15.31254,-7.448194,-19.28041,-7.810076,-19.223,-17.9166,-10.75561,-33.55593,-10.04144,-30.80156,-19.76829,-27.96314,-24.20698,-29.60583,-22.87222,-32.52491,-24.45392,-29.84444,-29.31533,-33.30406,-29.22263,-34.55499,-28.9184,-34.12721,-32.64399,-33.05432,-30.03653,-30.33951,-35.31471,-26.26776,-31.50758,-28.85467,-32.78802,-17.82979,-34.06004,-18.9807,-24.49053,-24.14743,-13.51653,-23.51572,-15.99984,-16.18542,-17.49594,-14.48646,-9.71651,-15.7299,-10.85622,-12.00174,-6.99409,-13.9306,-5.31449,-13.64972,-4.982948,-16.68223,-2.884149,-24.34387,-1.530594,-25.96479,-7.169058,-22.01412,-15.6376,-9.248785,-23.31094,-13.0195,-21.35594,-4.933366,-33.13915,4.72555,-41.21232,5.505382,-39.98721,-3.873624,-37.82326,-11.74817,-29.16874,-17.4566,-19.24022,-25.57258,-9.347587,-30.199,-9.860832,-30.13035,-11.84474,-29.11867,-11.29243,-22.02334,-12.93502,-19.58544,-7.348064,-14.96146,-1.619609,-16.47915,-2.107051,-9.53436,-7.380866,-0.5683041,-2.295279,-0.5746626,-2.162578,7.709902,0.6920852,9.806619,-1.877098,16.86974,1.111752,18.27126,1.786661,21.12767,3.670724,22.44219,12.07857,17.99917,13.7729,24.23784,12.89039,28.89024,17.29172,19.06219,26.56222,23.64716,23.66322,31.29803,20.29999,33.09707,18.7071,32.33637,14.21724,35.45783,10.92957,30.85864,17.45771,24.55303,23.29226,15.93262,24.05456,25.95987,15.79154,27.02069,17.39933,23.60487,19.50077,19.21712,21.61727,24.90537,9.281041,30.77674,11.61573,24.91512,13.10956,17.7764,15.031,18.72775,13.28697,19.1933,14.30514,17.74672,13.92498,18.06378,15.81104,14.48333,19.86243,12.17973,20.63159,11.99629,18.6837,15.53796,21.67893,8.688665,21.49885,10.8219,15.87864,20.36176,6.165149,27.45953,7.885172,29.53741,4.477639,41.3226,-3.145005,44.7235,-1.062207,44.33607,3.494893,44.06607,11.7118,40.78666,18.54445,43.54118,25.33882,32.77967,40.19829,27.34967,42.44556,29.26976,40.26159,38.12093,39.24361,33.91855,42.06501,34.03985,37.23812,30.98079,40.85791,23.39766,40.84119,20.91522,34.91841,21.32717,22.18578,27.75301,9.260146,27.60967,2.595464,27.01154,-4.246015,18.39233,-6.2038,15.80981,-11.35517,-0.8167733,-3.751218,-13.5574,-5.884361,-19.69515,-14.60761,-14.227,-26.79026,-16.63768,-28.5979,-22.24782,-36.66024,-26.44117,-42.91654,-33.0042,-45.41901,-35.3949,-49.36073,-34.55949,-53.09346,-36.27944,-54.32045,-46.61729,-48.98861,-56.74484,-47.80823,-60.3941,-57.03526,-58.96256,-61.93594,-62.48553,-62.62854,-63.8975,-63.63605,-66.95899,-64.83488,-66.47718,-66.82203,-68.17131,-69.32401,-65.78844,-70.73211,-60.25177,-72.37078,-53.48196,-73.46394,-49.8063,-67.05545,-52.50128,-57.98238,-52.02466,-53.35817,-44.59029,-53.27282,-39.71513,-53.44708,-33.93518,-55.61996,-31.11839,-53.85933,-29.19621,-45.81252,-31.6687,-36.43426,-30.93133,-32.54318,-17.2562,-32.07921,-9.435408,-33.39477,-5.046232,-23.01196,-7.226884,-9.512972,-5.294948,-0.2973834,-2.217087,7.832902,4.574394,5.726273,6.625316,16.69819,5.871544,21.72215,10.91058,25.55051,19.44491,23.41409,22.82801,28.36449,22.12419,30.63649,25.56312,31.11624,24.26925,38.13332,19.01891,45.02288,20.06922,39.48748,29.9402,32.3119,37.3052,24.48603,36.82918,25.47801,30.12412,28.00036,23.78078,22.2841,23.79797,25.47986,20.48294,20.42594,12.78004,29.11182,6.863312,23.30005,6.64831,20.87137,4.816386,19.28738,8.004789,17.74311,10.60325,20.8887,8.917233,21.19626,15.22774,18.37576,14.22537,11.98524,17.10831,16.5446,8.806603,19.26187,3.113478,18.2679,8.226962,12.99191,10.03711,8.451915,11.68466,5.835357,10.36001,5.730508,2.04956,8.634689,3.263768,4.709425,4.286893,0.4951603,10.93754,-1.318697,12.98532,-6.871261,16.29434,-1.455799,13.03142,1.84131,10.32918,5.34078,11.22208,2.878856,13.20691,1.748299,12.64484,4.52786,15.7554,1.907045,15.18119,8.435151,15.3946,11.81211,13.60346,11.17319,14.5064,8.337508,19.65366,-1.366781,29.00885,2.083701,24.35991,9.247486,12.04015,20.74351,4.675336,22.89939,8.02121,19.97098,6.220887,27.64692,0.3206894,21.63006,5.48831,19.95715,4.375939,12.68489,9.269512,7.95459,8.216504,13.62648,0.5224689,13.47495,3.046788,12.3377,2.090024,11.24081,0.9159549,9.231636,2.648741,5.023364,3.705767,4.242067,4.057798,5.295913,-1.711231,6.52586,-2.936099,4.067927,-3.143766,5.946786,-6.92492,1.932978,-8.059347,4.693239,-13.29373,3.287139,-13.55187,6.347101,-16.25554,6.024792,-19.73417,4.915389,-17.39987,-0.2973604,-13.18012,-8.584392,-8.236798,-12.29447,-6.476622,-18.75627,-6.491384,-20.9177,-10.28642,-19.0694,-14.12119,-22.37144,-8.217579,-29.63659,-8.360787,-29.63918,-7.651347,-35.36807,-8.506229,-35.56857,-9.989365,-35.05865,-11.95401,-40.84315,-16.00527,-34.66503,-20.65958,-36.7159,-20.68549,-38.30284,-20.13465,-39.96588,-23.44273,-39.55944,-24.55555,-39.73932,-25.13052,-41.17097,-28.49095,-32.07834,-35.18996,-31.69895,-33.41628,-37.45808,-28.20543,-35.23228,-37.8157,-30.49263,-41.91343,-31.02936,-38.32714,-30.36034,-43.54652,-29.6588,-36.2628,-38.8964,-37.69749,-42.29809,-40.44462,-44.07687,-45.21631,-44.8696,-48.3606,-50.72226,-46.60215,-55.04569,-51.89391,-52.93511,-56.65746,-51.66971,-64.44987,-50.24582,-62.80513,-54.56547,-64.23049,-55.30071,-68.14322,-53.31622,-63.63358,-54.77987,-64.5154,-53.93513,-56.70723,-59.30794,-48.96331,-56.86791,-44.48335,-51.85412,-43.14626,-44.57259,-40.65535,-36.3965,-35.43362,-27.80612,-29.55828,-19.07131,-23.50732,-12.52602,-11.12934,-10.92327,6.64723,-15.51225,25.51734,-14.61935,27.51999,-2.413927,30.38787,6.137202,34.21877,22.2033,36.4852,28.2778,51.51601,31.95406,62.9255,31.63951,72.40482,41.11587,79.09479,47.11447,83.10936,53.36584,89.7715,57.78916,92.43106,64.55083,94.36696,64.32302,100.223,69.75279,96.61156,74.04172,95.79988,73.23965,97.58541,74.99598,90.99639,76.05811,90.26101,69.57932,92.53501,68.93991,90.96593,74.46144,85.3654,76.32154,88.94558,76.35566,90.76774,84.83986,82.24602,96.73119,84.83346,94.31209,91.72326,92.96224,98.17966,97.05486,92.39689,106.1127,86.23068,105.248,89.47447,103.2472,85.52518,96.6819,85.43228,88.82471,83.7361,78.22182,90.1199,66.16688,88.5407,62.77043,78.63529,57.22334,72.70591,51.12248,59.4707,50.74814,44.39318,46.8919,41.8533,34.02629,34.59581,27.91663,26.47399,17.48786,16.45277,9.22182,5.122839,3.044426,-7.387951,-8.824031,-11.76028,-19.02237,-19.43069,-27.20389,-27.83606,-32.53369,-34.07908,-37.05529,-41.51656,-41.3121,-52.7008,-38.28675,-54.59598,-51.00322,-56.49227,-59.76921,-51.78575,-76.03642,-44.26649,-89.3704,-44.09353,-87.64989,-50.75272,-83.06868,-50.08542,-75.17066,-58.07173,-62.13913,-60.47636,-59.51147,-56.51076,-61.94557,-45.54518,-61.21126,-42.59029,-58.93658,-40.17452,-55.9812,-34.20693,-53.92153,-32.93384,-49.28826,-34.12014,-44.10539,-32.46153,-41.50837,-32.14187,-44.95621,-33.08924,-46.74185,-32.55042,-53.27206,-35.95299,-51.45784,-38.32614,-54.70132,-39.68133,-52.67824,-38.67031,-49.5766,-41.2973,-44.61588,-39.61431,-42.93219,-40.17459,-36.93096,-37.3924,-33.75358,-40.68668,-25.88929,-41.58774,-19.56925,-40.18702,-22.32214,-36.82018,-18.19137,-39.9297,-14.19985,-38.93929,-20.23445,-37.59945,-24.84264,-31.97091,-22.83287,-37.07445,-25.09506,-27.62807,-34.42167,-21.30175,-34.84715,-17.74163,-30.60568,-20.98443,-21.84755,-23.87518,-12.26095,-21.76414,-4.806721,-11.24168,-12.53919,1.647554,-14.81979,10.01228,-14.16061,5.571709,-0.03377044,0.7749596,8.844666,-2.339038,19.37019,-2.615744,23.62947,8.93161,20.25962,14.70876,25.62143,20.30089,27.88157,28.62213,27.0609,29.55063,34.94594,28.51442,35.73503,29.82219,40.93213,31.19447,37.89796,42.45382,32.05472,52.29598,33.52097,57.4166,41.19824,54.6007,49.0223,53.71635,56.12379,52.74181,55.40797,58.2622,59.10695,59.80118,57.27145,59.89462,59.09956,57.79177,59.36919,56.39002,56.79081,55.12747,54.58494,51.60981,56.53456,45.15461,48.95114,41.92114,40.61615,37.62434,33.84437,30.09371,26.52852,25.69928,22.40704,16.30807,13.18686,16.84411,7.083521,13.04406,0.9049826,6.663651,-3.641914,3.623725,-2.017443,-3.302983,2.529171,-9.91263,-0.8416253,-10.09966,0.06391517,-13.94028,-0.8379799,-16.96418,-1.427177,-15.533,-6.548462,-14.52946,-11.71248,-17.56282,-10.57085,-15.77819,-10.21632,-13.61664,-7.43138,-16.10914,-1.26629,-8.930495,1.290241,-2.171216,12.8591,-2.38347,20.70717,-0.3264707,25.79532,8.731961,32.54155,11.76754,38.4843,26.36357,37.98823,35.45518,38.94942,47.46549,32.56063,56.16334,44.18427,53.04348,47.2094,59.33046,52.47726,54.79754,60.8612,57.5609,55.56561,60.67495,60.76484,51.74729,60.51181,53.67299,55.24686,51.53121,58.48983,46.87488,50.8852,40.72962,48.87016,35.49969,42.50122,38.84401,29.73802,37.79862,23.63776,29.57576,18.84153,19.04322,19.23992,8.108808,14.9015,3.869874,5.868083,6.422258,-3.099342,-3.435074,-6.593663,-8.853347,-13.60603,-11.60097,-25.09874,-17.21577,-28.3226,-25.535,-37.1486,-27.97608,-44.11268,-34.85481,-48.16277,-44.51531,-50.57898,-51.26118,-50.05295,-60.49029,-46.37117,-64.19315,-46.05067,-66.35916,-51.75011,-64.13429,-59.25452,-64.30738,-66.10267,-66.65351,-66.36792,-73.69898,-69.65507,-76.10943,-75.557,-81.83903,