ConstAcc,0.5,0.41356,1.050365,-1.410795,-3.631133,-5.6183,-7.379914,-8.923559,-10.25678,-11.3871,-12.32197,-13.06883,-13.63505,-14.02797,-14.25488,-14.323,-14.23951,-14.01154,-13.64616,-13.15036,-12.5311,-11.79524,-10.94961,-10.00094,-8.955897,-7.821091,-6.603039,-5.308188,-3.942903,-2.513468,-1.026082,0.5131407,2.098175,3.723087,5.382035,7.06927,8.779144,10.5061,12.2447,13.98959,15.73554,17.4774,19.21016,20.9289,22.62884,24.30528,25.95368,27.56959,29.14869,30.68679,32.17983,33.62388,35.01512,36.3499,37.62467,38.83604,39.98077,41.05572,41.65607,41.62499,40.91429,44.40168,46.37486,48.8764,49.59566,48.71354,49.64723,49.08764,50.07636,50.08444,50.44765,50.76531,50.81177,51.20643,50.60391,49.65187,49.00735,48.26661,47.46987,46.02266,44.54513,42.41293,40.16702,38.04715,35.57263,32.71338,29.96352,26.894,24.20402,21.29684,18.38791,15.33302,12.41577,9.878676,7.2106,4.849362,2.522943,0.2723119,-1.913235,-3.707509,-5.591441,-7.668456,-9.601631,-11.49123,-13.25247,-15.02731,-16.8845,-18.76755,-20.60182,-22.51948,-24.3585,-26.31309,-28.60043,-30.78534,-32.9245,-34.88623,-37.06429,-39.20958,-41.17756,-42.86181,-44.57255,-45.83241,-47.40465,-48.67606,-49.88627,-50.94372,-51.6237,-51.94609,-51.82516,-51.5565,-51.2632,-51.26622,-51.71884,-52.64829,-53.46986,-54.18546,-55.02069,-55.7923,-56.3975,-56.64952,-56.70171,-56.777,-56.80841,-56.92734,-56.69052,-56.27124,-55.36685,-54.91751,-54.19897,-53.52151,-52.54284,-51.17942,-49.89353,-48.26707,-46.57291,-44.66702,-42.7165,-40.90195,-38.93514,-37.01688,-34.92234,-32.60545,-30.34318,-28.38758,-26.20471,-23.67351,-21.1905,-18.76493,-16.24601,-13.38948,-10.34322,-7.511548,-4.374578,-1.02543,2.446137,5.711329,9.021972,12.31214,15.39699,18.40336,21.36691,24.39929,27.43691,30.62223,34.09925,37.60203,41.09869,44.16985,47.06591,49.6108,52.0728,54.0363,55.97623,57.7301,59.50793,61.41027,63.05055,64.15526,65.04556,66.08338,67.04791,68.16401,68.77756,69.11795,69.43969,69.66671,70.55528,70.7725,70.746,70.35621,69.95276,69.50669,68.80489,67.85049,66.99936,66.12278,65.20065,64.22326,62.66856,61.08077,59.77599,58.10388,56.12706,54.05417,52.16489,50.83712,49.26834,47.96521,46.49623,45.145,44.09556,43.83038,43.26937,42.89404,42.19015,42.0574,42.45975,42.73436,42.66804,42.57698,42.43308,42.03301,41.7674,41.36715,41.07645,40.10125,39.35168,38.21598,36.39144,34.172,32.09702,30.69676,29.0726,27.76149,27.01336,27.05917,28.19146,29.49149,31.14906,32.88872,35.1657,37.38441,39.36431,40.87987,41.85937,43.41344,44.94234,46.60781,48.11319,49.34984,50.92668,52.60454,53.8395,54.87579,56.41901,57.71929,59.28354,60.73724,61.00909,60.53897,59.31794,57.81335,55.99233,53.65874,50.8146,47.83473,44.89091,41.82545,38.40227,35.01488,31.40975,28.14623,24.56942,20.28819,15.37824,10.43339,5.408461,0.2745712,-4.500149,-9.316714,-13.70899,-18.1739,-22.18695,-27.35015,-32.99827,-38.7247,-44.38603,-50.18231,-55.63952,-60.87555,-65.88869,-70.54289,-74.77229,-78.84825,-82.48431,-85.80875,-88.71574,-91.56905,-94.84556,-98.12326,-100.6101,-102.2609,-103.5521,-104.2335,-104.0161,-103.1948,-100.9793,-98.85775,-96.36504,-93.60536,-90.17053,-87.01324,-83.32342,-79.30383,-74.63068,-69.79578,-64.91186,-59.22732,-53.90802,-48.02812,-41.66167,-35.25652,-29.14533,-23.87825,-18.93674,-13.72613,-8.360851,-2.887572,1.910173,6.766972,11.45782,15.52285,19.42773,22.15113,23.99688,24.97526,26.3484,26.58907,26.82826,27.1679,27.78494,28.80678,29.7021,30.79718,31.89156,32.75766,33.73086,34.19576,33.93942,33.28783,32.92368,32.53858,32.19531,31.47224,30.78927,31.01299,31.05255,31.38425,30.7749,30.03738,29.66474,29.32966,29.44204,29.07255,28.59067,27.71411,27.12413,26.04879,23.74428,21.09037,18.80369,16.61581,14.56212,12.43954,10.33477,8.643746,7.529234,6.84317,6.077293,4.883271,3.807781,3.186485,3.146328,3.01652,2.767281,3.239364,4.112925,5.613495,6.878214,7.449229,7.712493,7.284861,7.049954,5.87206,4.65613,3.936599,3.690793,3.566607,3.715003,3.697684,3.829875,4.791843,5.879549,5.864935,5.397179,4.850016,4.311652,4.048266,2.714995,1.387759,0.05502021,-0.9446898,-1.565601,-2.175466,-2.695525,-3.5099,-4.05001,-4.489467,-5.002347,-6.713908,-8.043095,-9.207099,-9.25353,-8.860071,-9.31161,-10.29015,-11.99115,-13.90011,-16.62498,-19.69156,-23.09474,-26.57667,-29.80307,-33.78083,-37.9705,-41.8821,-44.92373,-47.65414,-50.63555,-53.45053,-56.15944,-59.07998,-61.5931,-63.86613,-66.47391,-69.32221,-71.62575,-73.97708,-75.57543,-78.34247,-81.46989,-83.41168,-84.67418,-85.09128,-85.72873,-86.39686,-86.16607,-84.96362,-83.75718,-82.42419,-80.42376,-78.04509,-75.25568,-73.01784,-71.09099,-68.65489,-65.90469,-62.70084,-59.29259,-55.4467,-51.31024,-46.77397,-41.79132,-36.91836,-32.67466,-28.38299,-24.64642,-20.87043,-17.64093,-14.58164,-11.74501,-9.038882,-5.623319,-2.61687,0.6644883,3.736946,5.708955,8.457906,10.77387,12.48269,13.85905,15.22179,16.14825,16.12437,15.47406,14.65981,13.50358,12.26162,10.33419,6.904022,2.5521,-1.708678,-5.347519,-8.25321,-11.57252,-15.11758,-18.52329,-21.36851,-24.51169,-28.15765,-31.60079,-34.82879,-38.17766,-42.16957,-46.11563,-50.07621,-54.77873,-59.82181,-64.74311,-70.20398,-74.99596,-78.56845,-80.69395,-82.93929,-84.5952,-86.26175,-87.57784,-88.04505,-88.32654,-88.52761,-88.05825,-87.46007,-86.37715,-85.86857,-86.45135,-86.65221,-87.85865,-87.66142,-86.88211,-85.6576,-84.25805,-82.32163,-80.0134,-77.27939,-74.72886,-71.58647,-67.39675,-63.62312,-59.40552,-55.15018,-51.24466,-47.7858,-43.20255,-38.25716,-34.14251,-30.9365,-27.45781,-23.77195,-19.44626,-16.1911,-11.99163,-7.278806,-2.17033,2.748,6.54135,9.972609,13.12534,16.55575,19.74509,22.57857,25.22421,27.61302,30.01209,32.36704,35.54232,38.33248,41.15156,43.5772,46.68152,48.87734,50.95316,53.16549,55.27794,57.98835,59.55707,60.63396,60.88491,61.75678,62.63298,63.43057,63.21703,62.97859,62.92744,63.33856,63.58715,63.21297,62.06825,61.42335,59.95168,57.87218,55.69167,53.92343,53.2798,53.93714,55.27562,56.54755,57.49894,58.47348,59.28136,59.37886,58.9817,58.63543,59.95853,62.13791,63.75482,65.74911,66.67048,68.50564,70.35436,72.01718,73.77994,74.65553,76.15394,76.36315,76.62963,76.39917,75.91436,75.45775,74.87291,73.69123,72.74765,70.89578,68.7895,66.16678,64.70444,62.60915,59.97917,57.91505,55.682,52.94935,50.15106,46.81362,43.93527,40.97472,37.62654,34.44616,29.48327,25.77265,22.46265,18.5192,14.39465,10.33372,6.129987,3.528432,1.050706,-1.294861,-4.433449,-8.154453,-11.59685,-15.44923,-20.33899,-25.09926,-29.37677,-33.00464,-36.64715,-40.47691,-43.9746,-47.00366,-49.62914,-51.91862,-54.12731,-57.0405,-59.10418,-60.70412,-61.3684,-62.06459,-62.73865,-63.09901,-64.2654,-65.34709,-64.75746,-63.92275,-61.25082,-58.00758,-54.12636,-50.16809,-46.29505,-42.5095,-37.68327,-32.5591,-27.05806,-22.10053,-17.97355,-12.98573,-8.673326,-4.319598,-0.9102225,2.92579,6.622719,9.79411,12.26946,14.49941,16.36845,19.3646,21.49864,23.49143,24.02793,23.95396,24.79937,26.68355,29.34262,31.16744,33.02192,34.51385,35.40926,36.14201,35.15625,34.49284,33.93803,32.80859,31.57901,31.27973,32.13845,32.33679,32.52264,32.20704,30.11136,28.9643,27.36185,26.04023,24.58657,22.33244,20.65307,18.66368,17.52537,16.76408,15.30252,11.77408,8.679613,4.841424,0.08637296,-3.927813,-7.649558,-9.889124,-11.19787,-13.78597,-16.48567,-19.37178,-22.34695,-23.56256,-25.74305,-28.89721,-31.17208,-33.60971,-34.82926,-35.34804,-36.9144,-37.98493,-38.61077,-38.07374,-37.98782,-38.39386,-38.62617,-36.75386,-36.0235,-35.45012,-36.14766,-36.44827,-36.46687,-35.06532,-33.48912,-31.88478,-29.83323,-27.55707,-26.00447,-25.05969,-26.22227,-25.91594,-25.29047,-23.33692,-21.58945,-20.49363,-18.83,-16.7639,-13.43744,-12.19064,-11.41333,-11.01493,-9.275207,-5.497135,-0.5036368,2.909501,7.047136,10.59381,14.21782,19.30742,23.32478,26.83034,30.11374,34.68888,38.33693,41.72975,45.41201,49.35773,54.08921,59.11653,61.44666,63.30068,64.70724,67.39107,70.9942,75.48783,79.0665,83.03434,87.45443,91.45705,94.64956,97.6956,101.1151,104.6894,107.3797,108.6266,109.865,111.5226,113.9495,116.5675,117.9091,119.8663,120.7035,121.4269,123.0906,123.6127,123.4457,123.9144,124.2226,123.9723,123.1524,120.6751,118.5165,117.0551,116.3403,115.1644,114.4049,114.3168,114.1128,112.9435,110.3758,106.3275,103.3868,99.15835,96.27701,94.14178,90.3807,86.15723,82.17094,78.17663,74.82163,70.6767,67.59702,65.90519,62.59882,59.83729,56.78192,53.78848,52.13858,50.36739,48.00381,45.09936,42.59502,41.23636,38.81265,37.19077,35.70711,34.06241,31.56123,30.77091,29.0643,28.60964,28.36366,29.03124,29.58056,29.28175,28.37443,25.5204,23.89789,23.05155,22.05026,21.93447,21.68006,22.03535,22.39872,22.44186,22.56981,22.72616,23.39496,23.10344,23.26564,22.14217,21.10481,20.451,19.37298,18.77085,18.03827,17.82935,18.46236,19.26776,18.22505,15.38799,12.93716,12.65788,11.92102,11.36405,10.8965,8.446684,6.96183,5.129659,1.734844,-1.019198,-4.184047,-4.813547,-6.115384,-7.338377,-10.26689,-13.08619,-15.12453,-17.44756,-19.33351,-22.01596,-25.25858,-27.22237,-28.80035,-30.75573,-32.48216,-34.33746,-35.37352,-37.02763,-37.42594,-37.53023,-38.14528,-38.89601,-38.50341,-40.37437,-41.72093,-43.19801,-45.57766,-47.82396,-49.76723,-52.28204,-53.17744,-53.54214,-51.9039,-51.91741,-52.16218,-52.40478,-53.43902,-53.63881,-55.06316,-56.9072,-58.23269,-59.67597,-59.25385,-57.23252,-55.27243,-53.12037,-49.10935,-44.46354,-38.67653,-35.05257,-31.03315,-27.49779,-23.97752,-18.46464,-14.46944,-10.36556,-6.505401,-1.390083,2.018101,5.370384,8.679716,12.54059,16.31203,20.48625,22.37698,23.68609,26.4269,30.6522,33.17737,36.09123,37.40303,38.44343,41.51191,42.52456,41.77939,40.9588,42.07183,42.81969,42.20468,42.07709,42.03008,40.89463,40.32976,40.51744,38.9482,36.97463,34.65995,30.87658,27.04081,23.06386,20.52565,17.80426,15.8191,14.24427,10.1896,4.954393,0.8122057,-2.308756,-6.168754,-9.615343,-14.48109,-17.99449,-20.81935,-23.43122,-27.52045,-33.59052,-39.13994,-41.14597,-42.94828,-46.38444,-52.59683,-55.93776,-58.23649,-59.97493,-62.84132,-67.27952,-69.59898,-70.28505,-70.43445,-71.33644,-73.13978,-74.0041,-73.82727,-72.79168,-70.31414,-69.08691,-67.67676,-65.83383,-62.66073,-60.7118,-60.8598,-60.96302,-59.10225,-57.46385,-55.84436,-54.67199,-54.50714,-53.79971,-50.79059,-49.37343,-49.02396,-49.10551,-48.44252,-48.60738,-49.2498,-50.1514,-52.34287,-54.35696,-56.46839,-57.67346,-59.55773,-59.29216,-57.62246,-56.02862,-53.93391,-53.82239,-55.1833,-56.83912,-55.06883,-55.75943,-54.79548,-55.05038,-55.10453,-53.86227,-54.50496,-55.45476,-55.44797,-54.99385,-55.32188,-54.56136,-53.11786,-52.66573,-51.76652,-51.28396,-51.54495,-51.07139,-50.78322,-50.72968,-51.32694,-51.12076,-50.8292,-51.44848,-51.25065,-50.76281,-49.99199,-47.94649,-47.12348,-47.9607,-46.3593,-45.01745,-45.29554,-44.6543,-44.72803,-43.38035,-42.81212,-43.79243,-44.93823,-44.61707,-43.1425,-42.38358,-40.5902,-39.83261,-38.02216,-37.03284,-37.57079,-38.90263,-38.25928,-37.83873,-39.15154,-37.33861,-38.92557,-39.21072,-40.28668,-41.72038,-43.30283,-43.34474,-43.49081,-42.84234,-44.08547,-45.2192,-46.59307,-45.5901,-45.26827,-46.6928,-47.12317,-47.94947,-48.06572,-48.05861,-47.38545,-47.42967,-48.28156,-49.37831,-48.84177,-47.31486,-45.17914,-44.49588,-43.05274,-42.14035,-39.36253,-36.55144,-34.48421,-31.24986,-27.55586,-25.37775,-22.35531,-19.59684,-15.73171,-11.8705,-8.898257,-7.434472,-3.284296,-1.216919,1.743128,4.456971,8.20905,10.46361,11.50873,12.64824,15.62024,16.71772,18.59268,20.89919,22.31319,23.05839,24.81419,24.44894,23.63559,25.44849,28.14312,26.85469,27.54056,25.80946,24.84501,24.95173,24.26583,23.50652,21.43624,19.14577,17.99741,16.61664,16.12411,13.48402,10.30003,7.513414,5.271697,3.325272,-0.5253932,-4.846141,-7.375926,-8.887724,-11.34841,-16.61009,-19.78663,-21.51685,-24.1561,-25.7024,-29.33803,-33.92789,-35.94143,-38.10276,-40.23951,-42.33918,-46.98265,-47.15416,-48.34435,-49.97341,-50.5554,-51.30176,-51.05678,-50.3101,-48.8412,-49.21656,-49.54651,-49.08176,-48.66648,-47.72008,-47.53645,-46.05155,-45.68031,-42.69211,-42.89091,-42.84342,-43.12266,-40.99732,-39.17216,-38.77937,-38.41932,-38.96552,-36.98252,-35.06132,-35.49875,-35.71171,-36.86809,-37.03257,-36.54493,-36.35251,-37.29966,-38.03823,-39.18997,-39.92749,-41.44476,-41.9746,-40.96977,-41.20528,-41.02855,-40.68248,-40.73478,-42.53054,-42.1458,-43.27338,-43.76746,-43.40059,-43.83152,-43.28544,-41.953,-42.31345,-42.0323,-45.09424,-48.02719,-46.27552,-44.28517,-45.55513,-46.05382,-46.09187,-44.98591,-45.42614,-44.95962,-45.08233,-45.15039,-45.54556,-44.42659,-45.83635,-44.33202,-43.83592,-43.36762,-41.77004,-41.47867,-39.89167,-41.58528,-41.28581,-39.42932,-39.66249,-39.92879,-38.09436,-37.65868,-34.81817,-34.79267,-34.95439,-34.43387,-32.71606,-30.78841,-30.1509,-31.28658,-30.36335,-29.08893,-27.49775,-27.55993,-27.0864,-27.73678,-27.65009,-26.90785,-27.60137,-27.22981,-25.68862,-24.24819,-24.14509,-24.68752,-25.16811,-24.72449,-23.92084,-23.44457,-23.13197,-24.34599,-23.59732,-24.96092,-22.16942,-21.71326,-22.06396,-20.15191,-20.82284,-21.25956,-20.58376,-19.77768,-19.56317,-20.29573,-19.41681,-19.31405,-18.0725,-17.85785,-16.36676,-16.09369,-15.95293,-16.59732,-16.49324,-17.6182,-17.14891,-14.71768,-14.38128,-13.37454,-12.94586,-12.74659,-11.65863,-11.01242,-10.86338,-10.44389,-8.768161,-7.652475,-7.657019,-7.930292,-6.797571,-5.361987,-3.508056,-2.777745,-3.194307,-3.247119,-2.87122,-2.903003,-4.827217,-4.877017,-4.956341,-2.82869,-1.299333,-2.396368,-3.243766,-5.073632,-5.127548,-5.242927,-8.767869,-9.0686,-8.197874,-7.640346,-7.985268,-8.532979,-8.363866,-7.519597,-7.081616,-5.072141,-5.620606,-5.71736,-4.446808,-4.284083,-3.207449,-0.9879217,-0.5879309,-1.806691,-1.315458,0.1374247,1.825329,0.2596543,2.491292,3.94041,5.301932,6.084935,7.27157,8.67799,13.22474,14.3893,15.76057,17.2503,18.1102,18.38826,19.43811,18.98206,18.87654,19.19031,19.86329,20.90786,18.86384,16.41488,17.9103,19.22031,19.8788,21.10823,20.31,19.03436,19.42539,21.26223,21.25702,21.12321,21.18174,22.54431,22.67818,22.13695,22.39443,23.16708,26.5989,27.27456,27.77776,27.85783,26.62925,28.00394,29.63101,30.88623,31.59554,31.1831,33.76099,33.60865,33.70192,32.68667,33.11737,37.40024,39.85377,42.21606,43.99627,46.01641,50.02132,54.71266,57.4449,59.48897,62.25621,66.1499,70.53613,74.26349,76.17777,80.0407,85.96119,90.13466,91.97189,94.14814,97.92103,102.0316,106.3201,110.2195,111.4349,111.5655,113.3843,116.3097,117.4965,118.5009,118.4064,118.6754,118.283,115.6078,112.0713,109.9481,109.1052,107.6307,106.639,107.4567,104.7327,105.7503,104.5158,102.6181,101.0209,99.21776,97.79307,96.41076,94.26883,91.83018,89.69222,87.68101,87.08059,86.45168,83.17681,78.44519,78.28505,77.8149,77.05528,73.27514,70.63196,67.74157,68.56434,67.63282,67.01684,67.62701,65.6573,63.95873,61.58514,58.72832,55.83244,54.01359,52.29544,50.15882,48.00063,47.04226,46.01197,43.78689,40.74985,38.94288,38.81259,37.77889,38.99198,36.25497,32.3471,31.3424,31.31768,31.04513,31.54028,29.49812,26.94469,25.86475,25.42392,24.98192,23.27379,20.22362,19.43521,18.4799,17.42455,14.59816,12.58795,11.37839,10.18087,8.58625,6.19773,1.850451,0.5821218,-2.404951,-3.521966,-5.53027,-4.296441,-4.315334,-6.64491,-6.010406,-8.163803,-10.07319,-12.0949,-9.850502,-10.14912,-12.27576,-10.89288,-11.03698,-11.18387,-10.5431,-10.20497,-9.098165,-8.918008,-8.626065,-7.209588,-7.160896,-7.326764,-6.225495,-3.817144,-3.17888,-4.441074,-5.074008,-5.749501,-6.179739,-7.116943,-8.291351,-10.8462,-13.04128,-13.82395,-14.39848,-15.87709,-15.15515,-15.23194,-15.60777,-14.96659,-16.45919,-18.00323,-17.93144,-18.93404,-20.48926,-19.94241,-21.47038,-22.67329,-20.72048,-19.56655,-20.43591,-19.70623,-20.09228,-21.15145,-20.87986,-20.8414,-22.13054,-21.54083,-22.21449,-21.64342,-23.55703,-24.095,-23.44572,-22.49538,-22.94714,-22.5197,-24.24603,-25.42763,-25.09431,-25.20488,-25.16146,-25.87092,-27.31222,-24.80565,-23.60017,-23.70632,-25.01617,-27.43435,-26.83479,-24.67769,-24.03918,-23.51689,-24.35629,-23.33947,-24.385,-22.93418,-21.74932,-22.51461,-22.41199,-21.38439,-21.06776,-22.59291,-21.55998,-21.15691,-20.36762,-21.63776,-22.488,-22.66543,-21.17625,-20.45532,-20.3561,-18.14604,-18.59018,-17.90038,-17.88008,-18.00137,-19.85975,-21.09201,-22.25959,-20.84058,-21.22451,-20.15938,-23.07113,-22.77127,-23.29957,-26.20988,-28.12668,-28.95845,-25.81931,-27.57044,-27.38744,-26.18638,-30.01235,-31.3406,-30.26521,-30.27678,-30.74294,-31.35562,-31.55363,-30.14885,-29.07452,-28.78685,-28.09134,-24.42027,-22.29554,-20.26848,-19.06777,-19.66731,-17.58818,-14.20834,-11.29936,-10.52641,-7.874975,-4.585009,-1.37576,0.9533113,3.480344,4.233268,5.809924,9.535241,13.03991,13.63198,14.83172,15.9253,17.22822,19.36444,21.43921,23.43376,26.22671,26.00315,26.5756,26.91171,24.95455,24.73699,26.67437,28.37579,24.15854,22.98326,19.90272,20.13975,20.14876,18.13142,14.58438,12.38236,11.08673,10.14743,6.207953,2.629287,-0.843141,-2.960285,-4.375565,-6.038003,-8.076696,-10.52838,-13.32716,-16.71707,-19.22113,-21.65539,-22.12884,-23.84459,-25.76137,-26.98013,-27.91679,-28.99703,-29.49565,-29.29609,-29.81671,-31.1364,-30.96746,-30.23617,-28.36703,-28.98894,-28.21987,-29.94993,-28.07055,-25.17135,-21.74258,-19.93398,-15.37664,-11.3132,-5.069508,-0.4837532,1.001984,5.261115,9.635139,15.07183,19.06271,21.7966,26.31048,31.08312,35.05242,39.04596,39.84694,42.56431,44.57109,48.77447,51.29375,52.65955,53.09677,54.21054,56.08711,58.36004,58.00215,59.76877,60.15695,59.87723,59.84917,57.65563,54.94833,55.81794,53.64508,50.66643,48.41389,46.89388,43.08015,40.262,38.19579,34.96873,31.42742,27.76282,24.67257,22.18168,19.23516,14.63096,12.34507,11.40041,6.961251,3.40589,-0.9476795,-4.849385,-6.920037,-10.18206,-10.99456,-12.74185,-12.41084,-10.52608,-7.883693,-8.66888,-8.824669,-7.579127,-6.800437,-4.130367,-3.12383,-1.629287,1.635168,4.133379,5.485115,8.580186,10.97044,16.08414,18.27778,19.96266,22.91259,26.14574,29.3156,32.20473,34.27234,36.06642,38.72602,40.80345,45.61265,49.70468,50.01437,50.09003,53.37688,54.32741,57.28477,58.04235,58.32448,59.07853,60.67603,62.63684,62.37919,61.84325,59.15473,58.24752,56.96574,54.65666,51.94438,49.78612,48.02708,44.56488,41.63004,37.90815,36.19678,34.79334,31.73785,27.78343,24.52019,21.64979,20.47106,18.27546,14.62617,10.87459,5.636619,3.779153,0.3806651,-2.131519,-5.530964,-9.560716,-12.80135,-14.58909,-18.42449,-19.72034,-19.58131,-21.46098,-24.3528,-24.89429,-24.90902,-24.66387,-23.08209,-21.58225,-23.1362,-25.26904,-27.53164,-26.41611,-25.19662,-25.61753,-24.46179,-23.6722,-23.73516,-20.85977,-20.51299,-20.9479,-19.37199,-18.4412,-16.91175,-17.65293,-19.26413,-19.20269,-17.93861,-17.20725,-18.95462,-20.48185,-20.83938,-22.46527,-23.69543,-22.6064,-25.75888,-27.47491,-26.13031,-24.40234,-24.93146,-26.2203,-26.92353,-26.44725,-26.41471,-28.03255,-28.83906,-28.39495,-29.95786,-29.13331,-30.71049,-30.18332,-29.06829,-30.03638,-30.30101,-30.76836,-31.66315,-31.90082,-31.39549,-29.9891,-28.95908,-31.01449,-32.73613,-31.80661,-29.33033,-28.87433,-29.49335,-29.72079,-27.90816,-27.33259,-26.78368,-26.76202,-27.07893,-26.91024,-24.87714,-23.88258,-24.93691,-25.98225,-23.60047,-22.11158,-20.64063,-21.6654,-24.30208,-22.16602,-20.49478,-19.46576,-19.1789,-19.43595,-17.56843,-16.50037,-13.96221,-15.29741,-15.82076,-15.0906,-13.35579,-11.7952,-10.7205,-10.58128,-9.206677,-9.661972,-8.878928,-9.709654,-11.4858,-8.516481,-7.46396,-6.652583,-7.470944,-7.986868,-6.96794,-5.426289,-5.153195,-3.09155,-4.837721,-6.917757,-5.954534,-5.822063,-6.405479,-6.835648,-6.43007,-5.540137,-5.475627,-5.78592,-4.531689,-5.025144,-4.056944,-3.966744,-2.4571,-3.616277,-4.253897,-4.069843,-4.748555,-4.987428,-5.694803,-6.02701,-6.760613,-6.787819,-6.903913,-8.076031,-6.2084,-6.241913,-6.423048,-5.425162,-7.098668,-6.758583,-3.773908,-4.033176,-4.695087,-6.752207,-7.618764,-5.927088,-5.501217,-6.693074,-7.537822,-7.840222,-7.318066,-6.959108,-6.470195,-6.05889,-7.161683,-5.689274,-4.664281,-3.124101,-4.245371,-4.88616,-3.390659,-2.250028,-1.460689,-0.964484,-0.3003375,-0.9718398,-0.09460163,-0.732579,0.3540281,2.417903,3.784422,4.394567,4.067599,4.181469,5.006854,5.1086,7.093439,6.049154,6.380183,6.934737,10.25488,10.70171,9.267647,9.173724,10.4581,10.1177,11.84571,10.03686,9.606637,9.743346,9.273087,10.90934,12.34373,9.972113,10.67348,11.17002,12.19319,11.46753,9.351768,8.956665,11.3834,11.2165,10.82166,8.127863,7.786124,7.847503,9.914143,7.271927,7.226363,7.782718,7.694969,7.801793,7.310895,6.503743,5.649262,5.695415,6.168843,6.117405,3.876826,2.094664,2.836115,3.470279,6.254955,5.865934,4.411458,5.520302,6.843008,6.266064,5.659633,3.105279,5.159552,7.143584,7.986871,5.7094,3.709584,4.099184,5.334657,6.181869,3.939667,3.475445,2.784182,4.542291,4.984878,3.792224,3.185,1.807513,2.591576,1.941553,0.7458721,-0.08330426,-0.6982008,0.5913083,0.6898345,-1.163139,-2.571493,0.4274268,0.04930777,-0.6396682,-0.4986036,-1.663055,-1.066281,0.3925004,2.488618,2.526673,1.972055,2.712464,2.201167,2.762461,2.946821,3.07288,3.845012,5.06855,6.986075,7.246789,8.428389,8.533943,9.967666,11.3497,12.45925,12.38279,14.01853,16.8243,18.14399,19.21481,19.05656,19.01213,21.55541,22.96339,24.25335,24.05378,24.81119,23.92506,24.3986,24.76545,25.44884,23.89585,24.99675,25.0968,24.64292,25.25249,26.60739,30.88901,29.15044,25.67134,24.33012,24.56731,24.29518,22.14487,17.16214,15.95467,14.45881,12.27496,11.37276,7.624679,4.018088,1.527817,-0.5735042,-1.580283,-1.655837,-6.126303,-8.514661,-10.19965,-12.14547,-14.01872,-14.95632,-13.73032,-16.51465,-17.28876,-18.98568,-19.69821,-18.41928,-19.92413,-19.67048,-19.81542,-20.0915,-21.17419,-18.37388,-16.36312,-16.48019,-14.358,-12.50471,-10.34414,-8.011148,-5.904721,-5.139428,-3.113418,-0.3579318,2.701205,5.318543,7.388597,9.621697,12.20633,16.34588,20.10299,24.0416,23.95907,26.22197,30.35184,35.92624,35.78956,38.17154,43.8273,45.78468,49.6696,49.63617,54.1443,53.89922,57.8822,59.83949,62.10969,62.31964,64.49494,67.32772,68.54194,69.17719,69.10246,68.98151,72.77726,74.64753,74.8549,74.33635,77.89047,79.25141,80.62438,80.46221,78.75685,79.3903,81.62478,82.7964,81.68569,82.02103,82.60859,81.86321,82.51559,81.02942,80.18282,77.63012,78.02142,77.53569,77.82274,75.48071,75.91689,75.55388,74.73069,74.39113,71.50721,73.88064,76.35573,75.8769,78.38387,75.95106,77.52816,73.03081,72.88426,73.52677,74.85249,72.67111,70.05025,70.44994,72.37924,68.57934,65.49988,65.10829,64.21641,62.64166,62.29101,62.90327,64.70274,63.90146,62.24233,63.44535,62.59496,63.61174,67.24489,67.76414,64.13763,62.19402,64.48445,66.61797,64.74473,61.10815,61.32412,62.36449,64.16019,61.40555,57.78428,59.30361,58.14926,57.20028,58.965,54.55397,52.63125,51.49969,51.20765,49.87381,47.49692,45.1073,45.08908,43.06237,40.18212,38.95762,36.53762,35.37997,33.61281,29.37364,25.1401,26.18103,25.37833,20.73674,17.17689,14.31719,11.2007,7.390525,5.584483,0.5721431,-1.790727,-8.556954,-9.840187,-11.65481,-17.06081,-21.50088,-24.81964,-27.81782,-30.54833,-35.30754,-40.00814,-42.92037,-42.88963,-46.17284,-48.94399,-51.84675,-52.97993,-57.18171,-55.83148,-58.92272,-63.00855,-63.68749,-65.20096,-64.5062,-66.46533,-67.81143,-71.10058,-67.67462,-67.70864,-70.09543,-69.88685,-71.60973,-69.89112,-69.70018,-67.8809,-70.41478,-70.25312,-70.6378,-68.95999,-66.49791,-67.95768,-67.66572,-64.60664,-64.78412,-62.21578,-64.39312,-63.75755,-65.33842,-63.59326,-61.8434,-61.74128,-63.0125,-64.65939,-63.97523,-64.28845,-67.67673,-67.66437,-65.1773,-66.81019,-64.40279,-64.47335,-64.67904,-64.00413,-63.00188,-63.89677,-62.05997,-64.62529,-64.81125,-61.4035,-63.71496,-63.15072,-61.79891,-62.16625,-62.39291,-64.54613,-64.13904,-63.90734,-65.79779,-63.65015,-65.00532,-66.04216,-65.89308,-65.80762,-63.85237,-65.66523,-66.06292,-67.47934,-66.90348,-65.01217,-65.71106,-67.29248,-67.1434,-67.56165,-67.9084,-64.80594,-66.35698,-68.99149,-69.04122,-68.51389,-66.9081,-66.51524,-67.08714,-69.62703,-69.36667,-66.76821,-68.8158,-70.04626,-70.55909,-69.6488,-70.09187,-70.0938,-72.96988,-71.87142,-70.84075,-72.51353,-71.06037,-73.77344,-73.79023,-73.40763,-73.69681,-73.22607,-72.77275,-72.94172,-74.48071,-71.1241,-71.27613,-73.57616,-73.24391,-69.31696,-72.58099,-73.13659,-70.94261,-71.54208,-70.81063,-68.89231,-71.52557,-71.15171,-67.86322,-71.65421,-70.33405,-68.01941,-70.44641,-70.84656,-68.76117,-67.37943,-69.40868,-70.10262,-68.38963,-67.29477,-66.04271,-67.69244,-67.45077,-67.75345,-69.72815,-68.86487,-67.87141,-67.83416,-65.79124,-66.09432,-64.30553,-65.12765,-66.17594,-69.30352,-67.46333,-66.85531,-66.87616,-68.82737,-69.56665,-70.239,-68.31212,-71.10132,-72.37463,-73.36627,-75.83308,-74.55668,-73.25748,-76.98205,-76.76753,-74.89183,-76.27517,-73.59208,-75.5813,-75.7398,-75.84024,-73.4283,-72.39674,-72.85739,-70.22053,-67.88455,-66.9775,-66.83534,-64.97011,-62.96008,-60.42664,-57.00914,-55.01763,-53.96034,-51.52837,-46.91144,-45.01907,-40.73129,-39.16084,-38.15819,-34.42835,-31.54731,-29.8249,-28.25401,-25.99498,-22.87164,-18.66826,-17.00801,-14.7261,-15.78794,-11.87453,-8.914733,-6.088319,-4.441919,-5.248133,-3.008642,-0.2754814,1.958452,1.897233,4.011178,5.777211,8.654181,8.841401,10.50313,9.839548,11.23978,15.07263,16.15433,16.77834,16.73758,16.77804,19.81564,19.73401,20.06081,20.37476,20.44427,18.31547,19.16561,21.21505,18.33467,18.71185,21.61036,18.22582,20.50066,18.54352,16.64027,21.12319,20.82296,19.51922,17.42784,16.1354,16.15742,17.32496,18.71954,20.14202,19.23267,19.34493,20.58075,20.64204,20.6023,22.35452,24.22452,26.79956,26.49413,24.97797,24.09094,25.16689,26.31854,27.25087,24.33844,26.55702,27.76037,28.3733,26.24508,27.23783,25.81227,26.71269,26.3696,26.55133,25.56123,25.02668,26.83924,28.44441,28.57785,27.99209,28.16481,27.59988,31.70503,29.73441,28.88293,29.68202,32.53706,32.03291,32.54241,32.88814,32.88984,32.89394,32.72496,34.22648,34.92235,35.20573,36.70406,36.65099,39.15441,39.57623,40.75005,41.07306,42.65767,42.06871,42.95956,42.83157,44.38618,44.7511,45.045,43.56719,43.82644,43.74096,44.92032,43.21206,41.15878,42.98811,41.45312,44.38671,41.54669,39.6695,38.02363,38.73676,37.8865,37.91282,37.16916,34.89337,34.29759,32.71459,35.36131,31.62663,32.3463,30.84598,29.02229,29.99321,27.88476,25.08449,25.23094,25.95912,27.09603,22.5879,20.73334,20.38686,21.45301,23.64853,21.3433,23.4078,21.82444,22.12555,22.51872,22.493,21.50116,24.21465,23.52121,22.69629,23.07471,22.41312,25.00945,27.19807,29.10175,30.65894,28.34376,28.43355,29.59401,30.71628,31.64074,29.12847,28.21008,31.14857,32.16789,29.38838,31.11076,31.0821,32.18451,33.4367,31.58007,33.82339,32.32627,32.08146,32.37302,30.92643,29.92704,29.50382,30.92925,31.3837,29.82471,28.63724,28.1777,29.84858,28.11692,27.05577,25.94349,23.67464,24.99305,23.1654,20.26669,20.36207,20.01593,19.14091,18.44026,17.75034,14.65715,11.46944,10.77821,11.70117,11.3145,9.803251,8.395671,8.243585,10.11462,8.283798,6.626717,5.680349,7.467632,8.856463,8.245285,6.921826,6.778857,7.91515,9.617412,7.984831,7.203262,6.533218,8.91531,8.660014,9.035134,10.37453,7.959185,12.64372,10.61336,10.51524,11.5442,12.01344,11.73209,12.91829,13.23657,12.95958,11.52812,12.68038,14.40075,12.59249,13.42854,10.36735,11.59163,14.25484,11.31586,10.93429,12.07983,14.22799,14.63217,11.3801,11.07827,11.92014,13.59803,15.47745,15.12071,14.55225,12.4777,13.19259,11.75919,13.78192,12.39531,12.33138,12.53187,13.41412,13.51217,14.56577,14.91275,13.99166,16.20949,15.10416,11.55258,11.28148,10.76252,12.1091,10.58945,9.027204,9.719986,9.399682,9.128003,9.244546,10.69196,8.726081,9.300102,10.54006,10.90197,10.26571,9.427726,9.809039,10.89683,10.65225,11.89407,11.35659,12.55929,13.53637,14.2722,13.0834,12.88317,15.27604,16.73746,17.39916,16.47115,15.25957,15.4068,18.20644,17.46472,19.99641,19.1719,19.92549,19.8667,22.52535,20.8799,19.75367,23.08089,24.30166,25.68376,25.5792,26.06856,27.65481,29.72467,29.76267,29.96426,29.89683,29.29915,29.41781,31.90407,31.74514,32.53913,33.93781,33.11712,35.08647,36.16796,38.31717,39.29001,40.32795,41.62814,43.01,42.92951,46.11332,44.74646,46.50828,46.87635,45.87459,46.72099,48.14709,48.09325,46.33012,44.31241,45.03944,43.29014,43.33632,42.02302,39.62378,38.63924,37.17136,35.03807,35.53581,31.92839,30.8967,27.42633,24.57743,22.64203,20.28179,17.969,15.29998,13.61262,9.841453,5.735706,0.7200225,2.117701,2.543826,2.169949,-1.421246,-4.895083,-8.586967,-10.90755,-10.6822,-18.20454,-21.7394,-23.9001,-29.23488,-33.22913,-36.59946,-40.81011,-42.88131,-45.19893,-49.20863,-51.95774,-55.9511,-54.21181,-56.68565,-61.4987,-66.09142,-66.01363,-67.69319,-66.94579,-68.71958,-67.64894,-69.72379,-68.58144,-67.11874,-65.44451,-64.31714,-63.93615,-62.06941,-62.04565,-57.53152,-55.05908,-52.8359,-51.74992,-48.99417,-45.74555,-43.01713,-41.96894,-36.81587,-36.15553,-32.77009,-30.84342,-25.13161,-21.85509,-17.27884,-13.18958,-13.05818,-10.86613,-13.23792,-10.1632,-8.634211,-9.437254,-12.23311,-11.79819,-14.32807,-15.87051,-16.58904,-19.49036,-18.55436,-19.08818,-20.89902,-21.26579,-23.55413,-26.07439,-23.4411,-25.63418,-26.79884,-28.38208,-28.30885,-29.84181,-29.18207,-30.60931,-30.89859,-32.49709,-31.18836,-32.17337,-28.81605,-32.68077,-32.65167,-33.03482,-31.53091,-31.09332,-31.9674,-33.30314,-31.62879,-30.43059,-30.95663,-29.64834,-30.20298,-27.14761,-28.00756,-28.46347,-26.29952,-27.0679,-25.34038,-20.74626,-20.55875,-19.40454,-16.32535,-13.61982,-11.61254,-7.881325,-5.80472,0.4491236,2.093663,3.931868,5.046503,5.635788,9.751143,13.16077,13.63043,13.84499,15.12544,19.0003,17.77628,18.03494,20.0255,21.29212,20.23404,18.91762,20.49339,19.2756,14.43956,15.97453,10.45386,9.368607,9.931475,10.19879,6.103239,4.150129,3.226489,2.958412,0.8873567,-1.666928,-3.550341,-5.429824,-6.514358,-7.559256,-10.8351,-9.851462,-9.439355,-11.4233,-14.0462,-16.0427,-14.18564,-14.70519,-15.69255,-15.48439,-13.82825,-13.88096,-10.50584,-6.80202,-5.613476,-4.841171,-5.54042,-3.457787,-5.225558,-5.876367,-6.101191,-3.72715,-3.205869,-3.291799,-1.878792,-1.807138,-3.538588,-0.6356151,0.1318046,-0.6562711,-1.741241,-0.4244188,-0.6479751,-0.5746122,-0.1813982,-0.4235433,0.01338108,-0.04419617,0.749717,1.392382,-0.7218925,-0.4169213,1.181497,-0.1826486,0.5618431,0.5587085,-0.2027829,2.093598,2.062146,-0.8158516,1.53345,-0.2314551,-0.1262595,-0.3319553,-0.6091927,-0.4026561,-0.06596,0.3180566,0.05174982,1.097168,-2.498775,-1.818551,-2.590864,-2.130446,-1.622005,-3.481935,-4.104567,-1.47735,-4.173538,-3.74838,-2.841075,-4.623421,-3.348726,-3.691976,-3.991029,-3.826998,-4.26096,-4.426391,-0.8011455,-2.862156,-2.459212,-4.568532,-4.528822,-0.6210821,-0.4430817,-1.410593,-2.717648,-1.853789,-0.9396076,-0.5942105,-3.116234,-4.440027,-2.075154,-4.405803,-3.837355,-2.029368,-4.486416,-2.779375,-2.613556,-0.6439711,-4.398755,-2.91284,-1.424213,-2.229617,-1.570308,-4.222991,-3.094363,-1.125406,-0.4528774,-1.750643,-3.673659,-3.0648,-3.631785,-4.558313,-5.702819,-6.279221,-3.544158,-5.886267,-4.043741,-3.161423,-5.679546,-5.008911,-5.125944,-3.604111,-4.57427,-2.322405,-4.607801,-2.232258,-3.998676,-3.745083,-1.611245,-0.7441139,-0.2878825,1.105149,2.460981,2.266117,1.878639,3.948283,5.479304,3.919513,3.572287,6.102218,5.221959,7.980772,9.648837,7.646642,7.773666,12.97591,15.79152,14.37368,10.92162,15.24221,17.08065,18.98084,19.02687,17.53391,18.54538,23.20713,22.01709,22.31213,19.77256,20.78686,25.597,27.84334,27.58679,25.48129,26.00168,30.13917,31.87664,30.19293,27.78957,28.8561,32.6403,32.40337,31.94672,29.58924,28.88278,34.02414,33.06552,31.86221,29.83055,28.62775,33.48656,34.40954,32.94725,32.61121,32.45431,33.77261,39.38259,37.42975,36.94806,37.86695,40.68065,43.85495,42.14215,39.29827,41.67144,42.55754,45.51546,46.47192,42.11833,43.04513,46.18666,48.15076,48.2451,47.73691,47.21803,48.49339,53.09108,53.03352,47.38133,48.85203,50.95647,54.02706,52.82365,50.36947,50.0026,52.46429,53.09806,52.28279,49.25905,47.09256,51.53322,51.90054,51.71838,48.08786,48.07506,48.05469,51.05504,49.9543,46.48065,46.46331,47.52863,49.43004,48.01872,42.13063,38.0434,40.7213,42.41377,41.82024,37.51641,37.23759,39.20734,41.18915,40.04779,39.1535,35.37504,38.49669,41.76619,39.39729,41.7638,38.47917,39.73244,43.60708,44.30455,40.265,42.01354,43.9372,44.54956,42.18119,40.91997,43.64248,40.79513,42.56271,40.35291,38.08376,38.09224,39.05622,37.53168,35.24928,34.20459,35.64099,35.30001,31.84686,28.45591,27.03719,26.36639,26.19897,21.08192,18.43154,15.036,13.79173,12.15546,7.390396,5.436077,2.226865,-3.892231,-2.97309,-9.130323,-13.61601,-15.03931,-19.24459,-21.41193,-23.21618,-29.08027,-30.71498,-35.4493,-35.88233,-37.09242,-40.79646,-46.0267,-48.68095,-51.62777,-53.2691,-54.56796,-59.31307,-61.88052,-60.03051,-63.57106,-66.73199,-68.36746,-69.73663,-70.43644,-70.38939,-71.4749,-74.19666,-74.45788,-73.82064,-73.23564,-75.83504,-75.58564,-75.50431,-71.71427,-71.23451,-71.30468,-70.24387,-71.2652,-68.87568,-70.55596,-71.34273,-73.18149,-70.53462,-70.78496,-72.02629,-72.9799,-74.29892,-75.05719,-75.70499,-75.58661,-76.94569,-80.2302,-80.29556,-81.30408,-84.98842,-85.32153,-87.70671,-87.21221,-86.74184,-86.9626,-88.11221,-86.39642,-86.29794,-87.19717,-86.96465,-85.95053,-84.52278,-84.54801,-80.32738,-78.13489,-79.09903,-76.46177,-77.36639,-71.7585,-70.25235,-68.87859,-68.1999,-66.03117,-62.56646,-58.8967,-57.97793,-54.82118,-52.67877,-49.9877,-45.45983,-43.76625,-42.39418,-39.0083,-34.71128,-31.07227,-29.33842,-25.96912,-23.91067,-22.03774,-19.14475,-16.66159,-12.76131,-10.87047,-7.308481,-7.409102,-2.525875,-1.574789,2.138887,3.692143,6.271411,6.70855,7.556368,7.450313,11.21178,11.23604,14.94058,15.09007,13.48351,13.54288,16.922,14.79619,15.88147,15.29169,14.77697,14.83587,13.12667,12.09355,11.79168,9.634385,10.00742,11.04183,4.892389,6.274394,6.500474,3.953159,3.971507,2.121173,-0.8671611,0.368014,-0.04827412,-0.3045937,-1.855098,0.4820622,-0.1152817,0.1443126,2.695747,3.225858,3.310723,6.133983,6.373066,6.935044,3.008254,4.636496,3.181805,4.428378,4.501127,4.573318,4.123636,1.507186,3.855722,4.915922,3.08302,2.804679,3.605158,5.741748,5.521818,5.834853,5.598501,7.083752,6.292495,8.138937,6.252296,6.225084,6.504438,8.161454,8.142086,7.249683,4.37372,6.968895,8.062319,8.382419,7.597713,8.657326,6.725705,7.635505,8.041922,8.658283,7.679268,6.935915,7.387397,7.320741,7.373767,7.16116,7.027531,6.641301,6.398486,8.625702,3.896734,4.708317,4.726054,4.518222,1.593722,2.540871,0.08493282,3.894447,0.266583,-0.3694316,-1.36113,-1.047489,1.637639,-0.01336121,-0.632373,-0.7973218,-2.263297,-3.494573,-0.01461106,-2.591202,-3.625042,-5.010907,-3.410992,-4.041735,-2.925362,-4.572535,-5.016246,-3.134495,-3.285617,-3.544755,-5.653218,-6.996785,-3.005877,-4.842964,-4.665924,-5.777618,-8.670445,-5.731653,-7.462696,-3.927166,-7.276083,-8.615078,-6.902884,-7.604096,-8.038327,-7.438669,-8.584007,-6.239252,-8.272078,-6.834568,-6.077397,-5.681877,-5.205732,-5.159544,-4.000811,-4.285447,-4.61367,-4.695571,-2.015909,-3.060225,-6.004609,-4.165924,-5.83492,-3.637172,-6.020408,-1.681536,-5.938382,-4.09567,-5.050301,-2.285251,-6.01939,-4.220448,-4.510866,-2.435778,-4.607835,-4.525675,-4.33164,-4.807842,-3.674217,-1.402077,-6.108336,-4.194188,-5.700319,-4.202291,-2.854772,-3.232917,-5.824341,-5.593383,-5.071928,-5.504226,-6.02835,-5.13055,-4.922393,-4.069117,-3.615188,-4.715014,-4.677653,-4.388298,-2.262458,-2.586818,-3.481796,-2.028024,-2.289164,-1.309435,-0.09492546,1.011455,-3.074191,-2.460859,-0.2509246,1.993285,-1.154569,-1.321713,0.2201418,-1.188476,-0.2707119,1.187751,-2.075787,3.174524,-0.1084808,4.318969,4.237432,4.743218,4.09166,4.097341,7.521999,6.983378,6.414363,6.884199,7.843847,9.301376,8.625357,10.36106,10.00675,8.325648,13.37506,11.21938,11.67046,11.90393,12.07241,14.31076,11.56443,14.30365,14.78413,14.73156,16.3597,15.93911,15.48822,16.81233,14.24492,19.36503,15.76145,16.04738,15.56823,14.9296,19.45287,17.05612,19.52128,18.1083,19.51767,20.99352,19.62871,19.59309,19.99424,19.74847,24.45202,23.56044,24.47099,22.16771,25.34631,25.2113,26.45546,28.77339,28.1278,31.31982,31.20559,33.06962,30.57255,31.15584,33.59164,35.2967,32.64137,34.31889,31.55774,33.00295,34.05233,32.13666,32.10513,31.02874,32.7728,32.8332,30.38758,31.38123,32.12662,30.31592,29.27338,29.2162,27.04393,23.46449,26.04413,26.53983,22.72172,22.84796,21.852,21.21135,18.72439,16.13369,17.05824,13.82319,13.31396,11.76211,13.18599,10.98979,8.122895,9.946464,8.669598,8.985644,5.10058,4.017007,7.046664,5.970878,2.223316,2.587812,3.010301,0.5358978,2.439544,1.204584,-0.3983063,1.897622,-2.194231,0.4636831,1.086206,-1.395847,-0.2448013,1.90749,2.326989,2.665019,3.284035,0.8959701,1.783795,4.228359,3.344111,3.866552,1.362222,3.455783,7.723847,4.438537,8.220541,6.511969,7.467802,10.33154,10.56876,13.74475,9.724722,10.55797,13.57533,13.55234,13.76552,10.37172,12.72458,15.73608,12.33623,12.29819,9.041814,11.50614,12.59868,12.07728,13.77412,10.28889,11.8082,11.55309,14.75931,12.87879,12.29234,12.36763,15.53649,13.96185,14.44766,11.79028,17.55705,17.88828,18.11567,18.37889,19.2095,16.24625,18.47587,20.90024,21.78768,19.99717,23.40189,23.3029,26.9437,27.10299,28.5066,28.56948,27.74761,25.69798,28.64419,30.94752,32.5009,37.26552,42.00614,41.18651,45.04296,45.09382,46.06536,46.9241,46.47143,45.27548,47.40923,46.12392,47.1935,45.0276,43.0414,40.15993,38.70723,41.31913,39.61801,38.93988,37.61875,40.73241,40.51281,36.5236,39.20794,40.05327,40.64033,43.18901,44.2512,45.06343,48.77718,50.38267,54.75525,59.27919,59.73684,63.5691,66.11161,65.96345,64.81452,64.19168,55.27219,56.86414,59.6006,59.77752,61.7396,59.98039,67.51639,73.41945,80.10653,84.09039,91.53248,95.91133,102.0056,104.2032,100.7329,99.49794,95.98596,87.92557,80.12889,71.0668,62.57387,57.58667,51.63628,42.41732,29.93249,20.96391,13.41634,0.576775,-8.618016,-23.18544,-35.34256,-46.90284,-62.37592,-73.87828,-85.69846,-97.09321,-110.7049,-118.9917,-128.3925,-143.4097,-152.3284,-163.7332,-171.3036,-183.4281,-189.9554,-199.5588,-205.6749,-212.5072,-217.3876,-222.2271,-222.5127,-227.8081,-231.4155,-229.3424,-229.6291,-230.6185,-225.3618,-222.9802,-219.3121,-214.7827,-208.3262,-203.8705,-192.9349,-189.3832,-180.6176,-174.8588,-163.9457,-149.0128,-134.7517,-121.283,-109.7983,-96.84377,-82.80317,-72.43472,-56.82887,-49.46928,-38.65442,-23.77841,-12.00284,-3.008809,7.431924,18.67895,24.05012,32.9207,42.53555,46.92513,57.14145,62.68577,67.00908,75.72487,74.13663,79.26807,82.15137,84.35906,90.31307,88.65012,88.73632,91.10073,91.08031,90.47013,88.45811,84.97611,82.45242,76.85792,71.17941,62.9656,52.26836,40.91525,34.28155,27.37901,19.56214,19.11165,18.95592,20.33691,19.02544,21.47849,28.79325,27.37652,33.13998,31.6755,32.00706,29.91814,31.73558,26.71032,19.90932,17.5378,13.81418,11.8165,14.28536,16.97061,15.34776,16.38729,15.86407,14.36975,16.57507,13.66656,13.97594,13.25624,13.73912,14.14359,10.54248,12.17968,8.403768,15.65884,11.03876,11.97748,8.810017,12.15786,9.76014,7.38705,10.6254,5.057292,6.721199,5.388141,9.312103,5.157698,7.550417,7.21207,10.44021,11.01076,10.98307,8.493446,9.370562,14.74322,14.26078,15.54102,12.97912,14.12477,19.08797,18.61128,18.16617,17.39144,21.22245,20.16997,22.9062,23.3609,23.53737,24.50337,25.08683,25.83713,26.08597,23.77552,26.33835,26.78188,29.42088,25.26681,27.19053,29.15114,25.63077,28.18704,24.59496,22.7713,19.98681,23.36337,19.57284,18.58393,18.59926,14.16903,14.78752,15.53865,11.34753,11.87044,10.22291,8.483113,9.826266,5.281405,2.291051,2.467219,0.1953888,0.6787961,-0.730612,-2.98551,-3.943407,-5.663752,-4.790034,-5.563215,-5.17043,-6.669335,-1.619579,-1.360602,-3.81033,-3.090736,-0.9986692,4.01803,0.2070671,-0.9266364,1.220819,-1.272162,2.410977,3.186494,0.6314229,2.611128,0.570673,-1.682071,0.348299,0.7404702,-1.150032,0.4486063,-0.3217837,1.23842,-1.564218,-4.135415,-2.880383,-0.01722604,-2.915324,-1.602657,-2.454812,-3.408303,-0.473036,-0.7539352,-3.330672,-1.826951,-4.925198,-2.297469,-5.028848,-2.509647,-8.573653,-5.57732,-7.939823,-7.659114,-5.13293,-12.22732,-12.80343,-10.41589,-11.05965,-14.88078,-14.16887,-16.99872,-17.07306,-17.59566,-19.5388,-21.48714,-19.70506,-18.52951,-19.79225,-19.5694,-23.32104,-20.7437,-21.62763,-21.9152,-19.62625,-23.1898,-20.46289,-19.98604,-20.89142,-17.45347,-21.05046,-21.08713,-19.56178,-18.66153,-20.8117,-20.28832,-20.0405,-16.14467,-17.01363,-21.00509,-16.78934,-18.71914,-18.89836,-18.21918,-22.09442,-18.85399,-21.38461,-19.40864,-19.68601,-18.87485,-20.44962,-20.04769,-19.6502,-17.46018,-18.92085,-19.98447,-20.60046,-19.15268,-20.37295,-20.31083,-21.63733,-21.50717,-20.75053,-17.79781,-16.55734,-22.14267,-21.58852,-18.93734,-13.93359,-14.71872,-15.13109,-14.47085,-8.734794,-9.3109,-10.56661,-5.643574,-7.15478,-6.2132,-5.642904,-1.670304,-1.372808,-3.107386,-2.610997,-1.388895,-1.587176,0.4680752,-3.206081,-0.8063923,1.670564,0.6065491,0.07185143,1.798686,2.676967,5.307637,5.313317,5.750932,6.860823,8.218506,6.340471,14.10497,10.29115,14.39817,15.47012,14.47846,19.55134,18.03297,18.87675,20.53041,22.30561,21.91063,22.91847,23.87552,24.2242,24.41829,27.1972,23.57855,23.76148,28.16912,25.97255,27.30856,27.06479,25.8132,26.05865,26.83063,29.40088,28.6619,27.66449,27.66893,27.54515,27.2462,27.35333,25.60253,26.30027,27.15572,25.38973,23.62553,24.88761,21.17038,21.21569,24.63709,19.04121,18.48346,20.76856,20.46421,18.30247,23.18721,18.88335,20.08182,19.24608,18.16124,23.15725,17.81883,19.00041,17.22391,18.57407,20.64501,18.18431,17.8481,17.54489,20.19951,17.91831,17.51423,15.25035,17.26716,15.09138,14.5065,16.21067,12.52543,10.76469,13.14962,10.38287,10.22639,8.636194,7.839237,11.49951,3.084075,8.208349,6.973918,4.232106,3.068697,6.474649,3.524723,2.000223,0.2223042,0.04129636,-0.3466927,-2.27849,-5.723729,-4.630439,-6.450458,-5.900636,-11.18204,-12.46082,-9.580191,-9.788673,-13.10498,-15.5362,-16.20697,-16.88008,-17.76561,-15.6921,-17.37846,-21.37728,-20.65596,-20.67561,-21.09831,-24.72855,-24.21354,-21.04456,-21.41262,-26.47577,-22.24585,-29.80865,-26.09935,-25.51615,-27.93471,-27.31286,-29.26793,-27.91245,-27.9875,-27.12069,-27.71345,-26.36839,-26.79709,-24.10182,-24.01967,-23.51481,-24.37165,-24.89401,-21.54799,-21.94836,-22.58455,-22.60929,-21.40301,-20.29472,-23.42026,-21.66328,-23.75777,-25.02689,-24.22589,-24.23143,-24.08028,-25.59696,-29.8848,-27.92146,-26.44492,-28.98265,-30.14217,-27.7374,-29.17058,-28.34198,-27.86686,-27.77405,-27.94388,-24.8432,-25.81431,-28.49659,-27.30456,-25.7992,-25.02036,-21.18295,-24.27995,-21.93847,-19.62929,-19.07513,-16.56875,-17.03334,-17.80348,-13.50439,-12.80032,-12.01734,-11.3404,-11.30612,-10.23748,-9.663046,-4.706822,-4.685516,-9.553586,-3.578943,-0.4327334,0.01584962,1.306784,0.03431335,2.461777,3.956093,2.730771,7.583166,5.322121,4.962019,9.547591,9.984611,8.82252,8.240079,12.22533,10.25068,10.88485,12.20491,10.19429,13.67427,15.37794,15.23565,14.71574,16.4983,16.71703,14.55534,15.56544,16.04543,15.29369,15.5919,14.79558,17.76744,14.31299,12.82657,14.51871,15.4585,16.21606,12.25647,15.80316,13.17838,9.036048,11.78327,13.74171,7.954081,10.12819,8.986699,9.310716,7.890476,8.372781,7.942488,9.558433,11.23729,12.5088,9.949013,7.858361,10.79611,10.56391,11.53301,7.172701,8.435406,9.725208,8.439721,9.101177,8.202615,6.756221,5.090797,8.362453,6.415987,2.729346,6.701988,4.471025,4.196552,7.64584,3.915712,1.249372,6.241227,3.078691,3.113824,2.102487,0.6634555,1.369346,2.87916,1.989986,-0.5473172,1.967619,0.1842378,-2.028264,1.365757,-1.717145,2.77923,0.5587006,4.322644,2.376017,-0.1227543,2.481489,-0.3389873,4.514697,2.266123,3.989572,2.174745,0.671607,2.64465,3.484238,0.1352972,0.8962695,-0.5043194,2.686482,1.473086,1.254123,0.2331878,3.002386,0.6306427,0.5792122,1.650614,-2.193596,-0.8856769,1.926785,-0.5250902,-0.4109795,-1.211427,-1.074387,-0.7450701,-1.805349,-3.467433,-1.631078,-5.355648,-1.593677,-3.899581,-2.538832,-3.21392,-3.530385,-4.492689,-1.499297,-6.782076,-4.950394,-5.989937,-6.31262,-6.492531,-6.784547,-9.009928,-11.06408,-8.390337,-10.53702,-9.952912,-12.5097,-10.69434,-10.45235,-11.59705,-9.830654,-13.81522,-12.68889,-10.15988,-11.32217,-9.49898,-11.51693,-8.772079,-10.0838,-8.603873,-5.922309,-8.748229,-4.9129,-6.546062,-4.988681,-5.919481,-6.20487,-2.387087,-3.243681,-1.199172,-4.262529,0.283212,0.07512629,-1.541064,0.8154093,2.887009,0.01845934,3.566559,4.148399,3.725091,7.230958,6.901084,4.341762,8.031121,9.905995,8.358642,7.686048,9.750163,7.603394,9.894154,10.70153,10.16808,12.12348,10.17061,11.73655,11.44037,11.56056,10.46266,12.44483,12.15853,12.55581,15.85372,10.53267,16.23253,13.17194,13.12235,18.19289,12.71419,16.91363,15.79831,16.13416,14.50581,15.23819,16.12057,17.23861,17.3202,17.41689,13.90782,18.30778,19.54433,16.00514,17.10767,18.96826,16.54226,17.11882,19.4563,15.97148,18.57521,16.75897,21.51022,18.91521,18.62047,18.43065,18.33408,20.59712,21.60605,21.45652,20.5321,23.20739,22.94684,25.47564,24.49999,24.57506,23.00919,27.00232,25.78182,25.55495,22.23682,24.97188,24.49416,20.93944,21.49677,19.30272,24.04447,22.0654,21.41106,21.7169,21.49244,22.89462,22.47946,24.51926,23.20689,24.52514,25.41639,26.08945,28.18586,25.21981,27.33154,23.89305,27.76485,28.08397,28.25496,26.64596,28.66353,27.46085,27.60055,25.86203,24.13802,24.52593,23.87566,21.42776,20.93565,19.03068,16.90018,18.07459,19.58864,12.78845,13.44548,10.37813,11.00784,9.706355,6.497957,3.362262,1.635481,4.023239,1.24089,-4.436414,-4.386015,-8.238511,-8.499813,-9.085564,-13.0974,-15.49421,-18.71361,-19.73491,-18.11946,-22.72375,-23.22089,-25.94831,-27.46238,-26.17197,-29.4393,-31.42634,-32.57999,-34.68551,-34.76336,-35.12533,-40.17232,-38.56038,-37.30404,-40.86185,-38.98694,-41.94339,-43.44553,-40.17658,-43.02576,-44.67975,-44.95176,-42.04947,-43.82301,-41.92175,-38.90097,-41.03684,-40.13323,-39.5434,-37.32103,-39.42556,-39.86529,-41.7516,-36.38911,-42.15115,-37.84616,-38.92401,-38.93463,-37.14502,-36.81371,-35.95031,-37.55867,-35.87228,-36.47936,-35.37375,-35.93252,-34.17895,-37.13357,-34.40212,-34.00868,-37.15402,-35.43125,-36.33157,-38.00518,-34.71651,-32.32111,-36.31733,-32.88985,-35.80828,-32.62041,-29.36863,-32.00586,-31.75345,-27.79991,-27.85768,-24.51161,-25.47064,-25.07192,-22.80056,-19.614,-19.40206,-18.42946,-19.361,-15.47442,-11.12418,-10.81869,-11.49432,-7.411231,-10.01972,-6.067319,-4.919922,-5.351822,-2.702691,-2.028759,-1.019461,2.691156,4.474583,2.02131,4.097297,9.15429,4.233595,10.07437,7.897867,10.44483,11.17132,12.66225,9.78524,14.98299,13.38789,12.02902,14.95107,16.58661,13.87605,16.64435,16.26996,17.58014,18.29243,16.09552,18.0427,22.12306,15.42141,17.24797,17.19252,14.28495,16.41527,13.05134,12.36503,10.80016,11.40999,10.98258,11.43563,9.502952,9.349973,8.370927,6.157803,8.562127,3.267233,7.325264,6.978723,1.488557,9.260765,4.833013,7.311092,5.643796,10.58799,8.314418,8.245306,5.940928,6.891312,6.310832,5.186229,7.447232,5.226125,8.291013,5.549027,9.401683,7.022175,6.351078,7.57269,8.069345,7.136229,8.023479,4.128261,6.03229,6.448761,9.121675,7.219024,5.516896,6.332813,7.771294,5.240317,8.04475,5.602187,6.027134,7.482642,7.886899,6.25653,6.319618,5.064358,8.437779,8.344194,6.75662,4.39628,8.232854,6.615416,7.956523,2.844876,5.110071,3.764642,2.487197,3.944814,2.26434,2.192087,2.21921,4.866024,2.232381,2.464388,1.899106,0.3934969,1.210118,1.766808,0.9586793,0.3896347,1.243617,-0.9230702,1.208095,0.4418194,-1.042476,-2.577733,0.2642114,-1.671788,0.9805208,-3.104405,-1.982357,-3.464588,-0.7243829,-1.384543,0.8073407,-4.20637,1.702508,1.218608,0.1820049,0.6116482,1.516412,1.233926,4.318371,4.729596,2.840303,6.622592,6.21735,6.597048,8.87586,8.669509,6.329623,7.545919,8.159206,8.087117,8.105368,7.823352,6.465268,10.61257,5.119569,8.147762,6.609746,6.223908,9.619237,7.287514,8.217465,4.227633,4.573198,9.34038,5.131755,6.904297,5.77484,6.152668,4.882488,6.093834,3.973,5.444846,4.851561,6.31363,6.505211,3.678504,4.096299,3.048021,4.254081,3.62728,6.393732,2.051632,2.020331,3.5967,2.956635,2.656574,1.796871,2.566424,4.68952,-0.2515013,3.439381,0.4678707,1.155055,3.294187,2.703479,2.701926,1.137447,4.081729,4.017438,3.783571,2.686605,5.223203,3.875612,3.862265,4.646878,1.971266,4.117019,1.870147,0.7679968,2.090366,3.761682,-0.4987121,-0.4379671,3.023825,-0.9380998,-0.2403125,-0.7901189,-1.060844,0.1087913,-2.448042,0.2955839,-2.652521,-3.629732,-0.9884137,-1.354624,-3.701316,-2.820861,-5.972582,-2.618763,-4.424972,-6.388335,-7.251842,-6.247184,-7.831497,-8.298344,-7.389576,-8.450983,-8.221434,-7.20593,-7.709451,-7.929672,-8.469977,-6.780008,-6.974983,-7.300283,-2.672373,-6.288977,-7.154819,-3.161697,-3.464001,-4.72591,-2.293057,-4.9317,-2.73706,-4.370859,-1.576628,-5.363059,-5.850916,-2.02121,-4.256208,-1.192884,-3.740075,-3.867172,0.2443871,-2.515307,1.349743,-0.4590335,-0.6120242,2.6387,-0.1526188,0.8233393,2.969903,-0.2249949,3.579393,3.416214,3.359282,1.932081,0.7307065,2.306076,3.799792,2.512431,1.99596,1.222477,2.184854,1.936351,1.879457,2.38545,1.494838,2.258362,4.509245,3.000844,-0.2483115,3.376376,3.09091,3.427367,1.780274,-0.3280762,4.113131,2.926093,0.8518065,5.520863,1.630324,0.2887532,5.335707,0.7263352,3.808912,0.790589,-0.09396097,1.590206,-0.153754,-2.368178,1.850059,-4.470752,-0.731826,-1.778771,-3.887163,-1.689564,-5.927444,-4.960912,-3.703195,-6.006925,-9.12633,-9.559514,-8.225474,-11.1154,-9.637833,-12.86308,-13.32778,-13.15329,-16.72908,-14.42229,-15.35291,-16.25069,-15.79366,-18.08553,-18.60652,-17.78923,-22.75793,-19.79098,-23.02859,-21.70737,-23.4727,-26.48553,-24.00718,-25.19976,-23.49967,-26.26267,-25.14617,-27.43796,-26.14895,-25.15183,-27.25361,-25.22769,-27.46514,-26.37499,-24.44125,-29.59273,-26.27149,-27.92772,-28.47526,-27.30135,-26.21685,-28.09186,-27.17475,-25.243,-24.04536,-23.80467,-22.35508,-20.14806,-20.50958,-16.45665,-17.24479,-14.69523,-12.84056,-12.08566,-9.560878,-7.738142,-6.986686,-5.343467,-3.391996,-2.364058,0.5706393,-0.1061092,2.051497,2.421954,5.069066,4.576184,8.078545,6.997594,10.44406,11.31315,12.71177,13.90855,13.34977,16.05766,16.93834,20.5257,19.14765,21.91239,21.75089,24.95779,26.14139,25.21957,27.10556,26.68696,28.4986,31.28641,31.29979,29.69522,33.76428,32.60349,31.31152,33.27277,34.75686,30.35437,30.69611,32.13254,30.94756,31.80771,27.74245,31.87396,32.3234,27.65068,30.8662,27.90633,29.20808,28.70686,25.20488,23.71941,24.35171,22.94347,21.59385,22.24878,19.66095,18.87046,18.29309,17.89771,17.05731,16.17585,15.42931,18.78234,17.62341,12.88288,12.7772,13.23353,13.79044,13.79426,10.43672,14.18395,8.851658,11.62852,11.17682,10.43726,11.39687,8.556869,11.21904,9.526365,12.16659,5.753433,11.19151,9.013463,10.30628,9.787536,5.268418,7.640823,8.035039,8.389191,7.501994,4.70641,6.995223,6.958115,7.01802,6.016478,6.725438,7.290416,7.902228,10.7403,7.577505,10.88547,8.372497,9.241959,11.94052,9.107805,11.16184,10.54305,12.36271,12.95814,14.97655,13.58388,13.26863,13.73372,17.50492,13.52,16.16571,15.24234,16.1652,14.97667,15.26071,15.34069,13.64488,14.55283,13.63037,14.33334,10.98427,13.11863,11.44682,13.67624,10.95862,11.05617,8.406815,10.93665,7.206689,9.464136,6.395987,5.423721,6.269299,5.704232,3.016335,4.719813,3.896244,-0.3611959,4.581395,2.061451,-1.191789,-1.95036,-1.745669,-1.032806,-2.917668,-6.660719,-7.793751,-7.522954,-8.990052,-9.737011,-11.25197,-14.07608,-13.00066,-14.87279,-14.51797,-17.69914,-15.49008,-19.32397,-17.5783,-19.154,-21.40294,-20.62238,-22.58874,-20.72289,-21.03825,-21.90903,-21.50398,-21.6265,-20.76971,-21.97552,-19.7956,-20.88813,-20.16413,-18.32192,-18.71461,-16.37473,-19.10405,-14.9013,-15.16087,-14.29781,-13.34621,-16.04496,-12.32739,-12.25129,-10.28017,-13.76326,-10.58649,-12.57939,-10.75736,-14.03818,-8.444778,-10.77754,-9.421908,-8.349479,-9.146086,-8.210543,-9.732463,-8.61354,-8.279964,-7.376909,-6.981852,-8.970177,-6.514617,-8.329606,-5.759534,-8.125591,-10.83258,-7.600616,-4.631221,-7.338244,-4.655823,-5.617883,-6.970044,-4.653032,-3.177473,-6.915903,-6.793729,-3.189212,-2.275228,-5.484194,-0.2060692,-4.86187,-5.487247,0.5077411,-3.472069,0.3015893,-5.720882,-2.4174,-3.768113,-2.501511,-4.521339,-2.981098,-4.104259,-4.475906,-4.173841,-5.254388,-5.18106,-4.506535,-3.70355,-1.499342,-4.611948,-5.112385,-5.680041,-3.88153,-4.191648,-3.688291,-7.482066,-4.065687,-8.105726,-6.321938,-11.9681,-9.931027,-15.37795,-13.83135,-12.93712,-19.52476,-19.01501,-21.1575,-19.13826,-21.88691,-21.20045,-24.56371,-23.37824,-23.76804,-23.86667,-26.28951,-25.09126,-28.48305,-24.33842,-26.06599,-25.25316,-25.45492,-22.92091,-22.92527,-19.52464,-19.60294,-19.20559,-16.27046,-14.85617,-13.70482,-10.32256,-10.00403,-6.348182,-4.419384,-2.842031,2.558385,3.116637,5.120862,7.979727,13.03589,14.38995,14.55454,23.57574,20.99519,26.28609,27.15728,29.58496,32.98318,33.44684,38.14103,42.25403,39.54013,41.38334,45.85464,45.86143,49.80113,47.32139,50.42105,50.71092,53.85478,53.31171,50.80142,52.94017,52.11105,56.51731,51.9861,55.66871,54.76149,55.99396,53.79625,54.70995,52.06946,48.84967,52.4703,53.72187,48.74973,50.4883,50.17639,46.37508,48.13833,50.51907,46.95055,44.9537,49.56637,42.42435,46.18763,43.16104,43.48009,43.5668,44.7606,45.31131,42.65621,42.28731,42.75943,43.70594,45.75621,41.804,42.46786,43.89185,43.99834,40.39745,40.80518,40.31305,39.91858,39.18004,38.35062,38.69789,34.58769,34.02727,35.31428,32.19662,30.71219,26.67007,29.606,25.54336,22.64211,21.39021,18.12536,17.08813,13.03225,13.88484,8.206086,5.806299,5.139683,1.484955,-1.160913,-3.041603,-8.459271,-8.349367,-11.48528,-14.69213,-14.93386,-17.21091,-22.66771,-21.89514,-25.09454,-29.36709,-28.3814,-35.72569,-32.81586,-35.35407,-37.57954,-38.55641,-43.63771,-39.6644,-42.07698,-43.50567,-46.44727,-45.21505,-44.30563,-48.1582,-45.65501,-46.1929,-50.26272,-48.52905,-47.60581,-48.78457,-48.61662,-52.37993,-45.79872,-50.88638,-46.57607,-48.61373,-44.67505,-47.52599,-44.44175,-47.51113,-46.94536,-46.40557,-48.04762,-49.47535,-48.32562,-48.90536,-49.95068,-49.29695,-49.90337,-51.43096,-53.52184,-52.12282,-57.63056,-53.82829,-57.30724,-58.68467,-57.1605,-59.01675,-62.02702,-58.09062,-62.88028,-62.69533,-60.21694,-59.81708,-62.03355,-60.14202,-60.47284,-59.6213,-59.76555,-57.25468,-60.3078,-59.6138,-56.55856,-58.20519,-57.0402,-56.85944,-56.95271,-57.61138,-53.53029,-58.51971,-50.61974,-54.55984,-52.90555,-52.18601,-50.49574,-49.61484,-49.73081,-45.08095,-45.6397,-44.05619,-44.07165,-41.51807,-40.67836,-40.01594,-39.78599,-36.43905,-37.2391,-38.63947,-36.20738,-36.93099,-35.84546,-36.98435,-37.58383,-33.4815,-34.0731,-36.1141,-30.75266,-34.91739,-32.73991,-31.14354,-34.48693,-31.07277,-32.69624,-31.21827,-31.6304,-31.85621,-33.31997,-34.66568,-35.07791,-31.33971,-34.68213,-36.28618,-32.73899,-35.36088,-34.59294,-35.10606,-36.31517,-34.99223,-35.05386,-32.80651,-33.87371,-32.07621,-32.17408,-30.35559,-28.245,-27.81798,-27.05257,-25.93864,-21.56542,-20.5727,-15.43817,-16.65186,-9.403104,-10.53738,-1.032028,-2.470468,1.145086,2.338227,7.528334,9.917576,13.18794,16.15328,16.19436,23.12089,25.72131,27.16119,30.41884,33.83706,36.53519,40.27838,43.09445,47.62853,47.24973,53.49831,54.68309,57.73971,60.91869,61.95786,65.71147,69.27725,69.01293,74.64192,75.72761,79.82248,78.78944,85.73601,80.08845,84.84393,86.78489,90.52034,87.0367,90.93447,91.34284,92.43814,92.34815,93.94291,93.61644,94.25199,97.39635,96.24302,99.7374,95.2141,99.16081,97.46406,98.61647,99.31788,97.96709,98.8783,97.06893,97.74404,99.47184,94.08797,97.26256,93.04998,96.26731,91.57857,90.00758,90.2969,88.74133,87.76319,87.29247,84.92295,84.7532,85.26129,86.19162,81.94661,85.08053,79.65614,79.88236,81.40862,75.91639,79.23317,71.8,76.42506,73.99717,75.60882,73.04389,71.85613,72.13613,75.88745,72.25021,73.93746,73.50996,72.771,75.29132,73.88469,75.29029,72.67355,74.81438,73.80805,74.8993,75.69916,73.51658,73.67524,69.98197,71.57615,68.55897,64.09347,62.97335,62.65605,58.30107,54.2973,52.1798,48.74958,45.99365,41.83505,39.62821,33.53847,32.52455,28.02001,25.71316,21.45748,16.40511,13.33267,10.07858,6.629264,3.544886,2.145186,-2.653214,-3.306202,-6.658511,-8.963585,-12.8142,-15.43907,-17.88277,-19.28496,-20.89067,-25.2883,-26.24606,-28.63381,-30.07109,-30.0532,-32.48618,-34.87404,-34.83229,-33.76724,-35.96192,-33.80421,-35.72132,-35.01521,-36.08714,-30.91086,-35.06147,-31.94103,-30.68217,-26.50423,-27.25556,-24.60679,-22.66107,-21.2164,-18.29771,-17.39421,-15.23225,-13.53238,-10.30336,-8.758442,-5.399526,-4.667464,-3.862977,0.6062327,3.069217,1.010075,5.977385,6.266233,6.314696,8.350713,9.381805,11.15959,7.084945,11.50237,8.48602,11.40021,8.174215,7.194346,5.907233,3.127184,2.922033,0.1414162,-5.328538,-4.433136,-9.093537,-6.94181,-9.921385,-12.36714,-13.62256,-16.02825,-16.27635,-20.70524,-23.06195,-21.48793,-25.01623,-25.66052,-29.23294,-28.74068,-29.89589,-32.50081,-31.14356,-32.83341,-32.31054,-34.3342,-32.28125,-31.75597,-38.51075,-39.95436,-40.50239,-40.67053,-44.30887,-46.26559,-47.07433,-46.08789,-50.34548,-49.16476,-52.13269,-50.82594,-53.43154,-54.17912,-54.68237,-56.01532,-55.8895,-58.61249,-55.46098,-57.0374,-58.54525,-57.69428,-59.10928,-59.72908,-55.67173,-59.28812,-59.74128,-59.35962,-60.91688,-60.05558,-60.17202,-63.75086,-63.9199,-61.07856,-64.87234,-64.48795,-65.71381,-67.34131,-65.1221,-63.6762,-66.10983,-68.15207,-65.62711,-66.33906,-65.01999,-67.64674,-66.19716,-65.11874,-65.37974,-68.34002,-67.61937,-65.29234,-68.89949,-69.33344,-66.84899,-68.60676,-68.75332,-68.74706,-70.64235,-69.3901,-69.36509,-69.445,-71.18908,-67.00286,-67.36163,-67.1863,-66.9838,-65.92676,-68.38893,-68.01213,-69.55265,-67.96038,-71.57993,-69.57622,-70.56372,-70.04791,-72.69907,-71.80968,-75.85675,-67.57474,-77.45448,-75.00415,-73.46793,-73.44893,-72.61,-73.07876,-74.76351,-70.84858,-71.79215,-69.40863,-69.40986,-70.1526,-67.24135,-66.49035,-64.89475,-65.63092,-63.17118,-62.47811,-58.54867,-58.96911,-57.11837,-52.85511,-54.77319,-50.49841,-48.6056,-43.87537,-47.15802,-42.50087,-41.04615,-38.77228,-37.88964,-35.7657,-32.45183,-31.97715,-29.672,-25.01964,-24.24278,-21.78976,-21.3709,-16.69912,-13.47511,-14.38074,-11.61292,-11.64177,-4.975845,-4.290907,-1.495916,-0.790199,1.843766,4.232908,2.794828,7.318578,5.218408,9.614295,9.100542,9.760084,12.00572,10.60745,10.17783,14.20645,13.8306,12.46792,13.38405,15.47691,14.98899,17.1288,14.38376,16.991,17.78349,16.90442,15.86713,15.72617,15.91668,15.0471,15.54903,13.13104,19.30462,9.422606,11.98362,8.465207,13.21536,7.282401,6.332487,8.050825,6.829307,4.963736,7.131197,3.056697,4.672941,6.563219,7.159347,6.383995,6.985175,10.89095,7.410625,8.552876,8.781441,6.684409,6.220682,7.580233,6.530608,8.555551,7.663346,7.357793,9.468188,9.627762,8.067987,11.16782,9.267002,15.04592,8.317528,15.58084,14.81432,12.9336,16.71667,15.41319,15.12736,18.60504,16.12249,20.61924,19.38748,22.83993,20.37322,24.70338,22.35951,24.6384,25.92931,26.85088,27.96512,25.38248,31.51359,31.07541,30.80454,34.65097,32.61959,36.26254,35.969,36.12045,35.98954,36.67697,39.26453,37.68102,39.57591,37.23174,37.81922,37.76078,36.82671,34.87443,37.84093,31.90766,32.63253,29.75739,31.54633,26.34275,27.62039,24.99345,22.86863,21.18871,17.57289,18.68895,13.38399,14.65718,9.867176,10.5983,5.917204,7.849234,4.118178,2.965096,1.246976,2.024683,-0.2935166,-2.331101,-0.1829127,-2.178641,-2.659964,-3.627764,-3.254406,-1.773689,-4.710533,-5.265768,-1.290214,-3.056494,-2.145285,0.5508392,-2.151383,1.759867,1.782228,-2.148039,4.378253,2.260936,5.416835,5.644949,9.577814,6.83445,8.764349,13.89362,13.27572,15.11705,18.36631,16.74271,21.08054,21.55982,24.36758,24.36651,25.6083,26.76127,28.63921,30.64616,29.6526,31.99404,32.66401,37.34661,36.66703,38.75386,37.92479,41.09369,40.36245,42.6881,38.2164,39.84458,41.32973,40.29752,41.24156,40.8536,41.23852,39.17237,41.06421,42.11464,38.94364,41.52859,41.49559,43.04391,39.20664,43.16275,39.89439,41.87067,43.33513,39.80347,43.24918,39.50133,46.3344,39.6736,43.91815,42.03354,39.62518,42.23751,41.62964,37.56602,42.17957,38.25985,44.32563,40.21873,38.86118,40.12917,37.35883,36.67928,36.19966,36.00983,33.3849,29.75128,33.41301,31.82432,31.59554,29.15145,27.95687,29.04718,26.29397,27.94394,21.57793,23.35814,19.91161,21.22115,18.88639,18.11754,14.60463,13.67556,12.11658,11.87473,8.335297,8.67354,5.957587,6.946129,5.657424,3.871079,3.168303,1.872734,1.935045,1.204988,0.01425727,-2.123959,1.147259,-2.667872,1.176377,-3.661419,-3.49084,-0.5313426,-4.458207,-0.9542716,-2.852288,-1.451206,-2.397656,-1.822913,-1.893791,-3.832969,-1.499581,0.05459046,-2.104355,1.544116,-1.995138,1.703109,-0.9223551,0.5763825,1.548298,1.29639,1.922336,2.378142,4.412003,4.546173,1.830493,5.594874,5.619942,6.477738,4.797235,5.13688,2.610822,2.989292,2.384671,1.288436,2.172717,1.344276,3.233682,2.166144,1.991498,1.240174,0.8087137,0.1748147,1.12322,1.230658,-0.2774122,-2.720507,1.224017,-2.060068,-0.6388699,0.2808329,-1.241167,-0.6906528,-1.205928,-0.1641897,1.876353,-2.284999,2.172206,-1.818966,3.478526,1.229569,-0.9789193,3.118361,2.023761,2.611103,4.786875,3.18168,5.697189,2.780958,4.915282,6.075906,3.329258,5.164358,6.395611,7.155546,6.945259,5.7936,7.443226,7.659459,6.388741,7.917937,6.628983,9.51657,6.860637,7.203165,6.292702,9.662263,6.793579,7.229619,6.404499,6.420224,4.582807,2.740371,6.787843,3.632147,2.605588,5.062666,0.8008111,1.79404,1.081039,0.4994801,0.2038453,-2.38114,-1.645994,-2.761921,-3.57582,-5.631882,-3.721665,-8.511113,-3.044275,-10.89236,-4.851989,-9.018476,-11.45396,-8.968888,-13.01431,-10.78821,-15.72981,-13.13627,-17.04419,-14.46508,-15.7924,-15.36763,-18.90833,-15.92926,-19.62309,-14.67444,-23.06407,-18.861,-18.51715,-19.19256,-19.32116,-20.3056,-21.40519,-21.97204,-18.33407,-20.48376,-20.85696,-20.05471,-20.6089,-20.28964,-18.97539,-22.98058,-19.12534,-21.60546,-20.67851,-21.58531,-19.36678,-23.17944,-23.57088,-20.73495,-23.56061,-22.64701,-25.08969,-21.70286,-27.20387,-23.79057,-25.06304,-28.05338,-24.35095,-27.8497,-25.79579,-26.62105,-28.0284,-25.85607,-28.21642,-28.61902,-26.00779,-27.8218,-29.90148,-29.06402,-28.45268,-28.17477,-30.47619,-28.257,-30.75576,-28.15831,-30.59752,-28.53209,-29.80022,-29.56654,-28.07715,-30.51286,-27.89261,-29.49988,-29.57685,-29.31316,-26.06149,-27.89392,-28.73553,-24.09793,-24.84935,-24.98747,-25.077,-23.11352,-21.55517,-21.33244,-24.67861,-21.72105,-21.6068,-22.06902,-20.94471,-23.53123,-22.55609,-23.34629,-24.46374,-22.01153,-24.05118,-23.84512,-23.56549,-25.19595,-23.85097,-26.79584,-23.52624,-25.00235,-24.4634,-21.36486,-23.73148,-21.04113,-19.33545,-20.4722,-18.82844,-19.23498,-17.69166,-19.73213,-18.48304,-16.25587,-20.87245,-19.62127,-18.94514,-17.70488,-19.20826,-17.31471,-21.37357,-17.02518,-20.70116,-15.72426,-23.21806,-16.17684,-20.42717,-19.97376,-18.85382,-21.10478,-17.48608,-19.77416,-16.48696,-17.95339,-15.39466,-14.89352,-15.33224,-11.2489,-11.84632,-11.80393,-7.150874,-10.56651,-6.590848,-3.698895,-2.98003,-4.312916,-0.3220505,2.274956,2.12615,6.058967,5.8404,10.70936,6.169381,14.10578,11.72557,16.57234,17.45434,16.8483,21.83294,22.47856,21.7831,23.82527,26.60931,26.14793,30.80188,27.68809,32.33498,32.39565,34.83648,33.28493,36.50581,35.64676,35.38257,39.95868,38.27929,41.22894,38.25715,42.02417,42.37121,44.27041,43.52212,43.8996,43.75544,44.35019,44.7615,43.75937,44.11493,44.03949,45.84282,43.71534,45.68661,43.50806,44.54109,42.04573,42.4525,42.24365,40.49915,36.87731,36.05535,35.03223,35.20642,34.37572,28.88738,34.29994,28.58684,30.02273,26.27197,30.90439,27.77513,30.42172,31.65498,28.95334,32.22066,32.4887,34.15519,35.55267,33.87069,36.15036,32.6164,38.99691,35.35901,33.39851,39.66161,32.61059,35.9946,36.87923,35.95481,35.61469,36.55527,33.97356,35.54977,32.85392,32.32203,33.13625,29.23916,31.70783,24.70907,29.73195,25.92732,24.20257,25.99115,20.05553,23.66129,20.63229,19.72575,18.994,17.33398,17.14318,12.45032,11.86729,11.06863,6.691044,8.093585,5.703254,3.267921,1.29214,1.682979,-0.5060886,-1.931216,-2.852891,-1.270311,-7.489095,-7.436754,-8.453083,-10.38049,-12.94403,-12.93534,-15.53107,-15.47592,-17.17644,-16.32739,-19.05391,-17.00058,-21.21949,-16.89707,-19.35178,-18.5344,-22.16973,-21.28391,-19.73628,-22.46342,-20.45474,-23.55751,-17.74963,-21.49375,-19.83101,-21.13746,-19.03228,-19.40006,-17.62036,-19.02313,-16.88711,-19.60562,-17.69827,-14.52373,-17.70905,-13.36303,-16.21361,-11.75344,-13.5117,-12.23354,-11.48889,-10.15906,-12.51618,-10.19201,-10.08693,-11.53293,-10.77321,-10.86961,-8.024022,-9.504446,-8.783829,-11.37402,-6.26606,-10.33529,-5.30873,-11.24772,-3.656638,-12.96574,-4.757939,-10.98591,-8.966023,-10.38174,-11.81672,-8.439362,-12.76796,-11.05275,-10.69692,-14.77854,-9.172446,-11.43425,-12.69682,-9.426231,-15.16478,-9.717141,-10.05878,-12.09048,-10.16044,-13.46393,-10.01965,-9.925013,-13.35098,-6.647976,-13.10818,-7.688817,-7.6917,-7.929616,-7.59277,-10.75063,-8.889956,-7.896452,-9.742493,-7.245321,-11.94104,-10.03343,-11.45521,-9.099817,-14.45474,-13.05862,-13.68305,-12.16283,-14.11932,-14.09546,-15.5781,-14.94102,-13.55974,-14.77909,-16.61523,-13.86684,-15.81579,-13.6167,-17.7585,-13.8412,-16.37529,-13.16067,-14.39607,-12.53707,-14.30358,-12.97338,-10.8138,-10.92803,-12.27784,-9.947076,-12.28293,-10.2404,-10.81194,-10.88641,-11.52013,-11.52,-8.20263,-11.07356,-7.170186,-11.96319,-5.800606,-10.43508,-5.676847,-6.948851,-3.520572,-4.206501,-4.40843,-2.401908,-2.695383,-0.990214,-0.9425057,0.03380285,0.7963877,4.874266,1.267023,4.030678,6.894472,4.318736,8.579391,7.852011,8.489344,10.38477,11.44591,12.26567,15.73006,13.70694,18.13111,15.68992,19.86888,19.43084,22.33731,17.77621,21.26961,17.45726,21.83324,15.87117,19.94828,15.78047,20.90958,18.79641,17.24458,20.49513,17.76203,19.72332,19.94079,17.9741,21.50461,20.37482,19.49079,23.19845,17.20074,21.93733,21.60122,19.96427,21.71123,19.30823,22.26737,19.15459,23.15817,21.15484,18.2695,22.62487,19.87403,19.68892,19.29245,16.96779,18.30625,18.49033,14.91796,15.32121,10.06659,13.73012,10.20355,10.88947,6.81138,7.680107,3.923125,5.66302,2.376088,2.417779,-1.928201,-0.8408082,-0.3511874,-6.247462,-0.8114668,-5.36029,-6.767028,-6.439422,-8.182967,-8.891341,-10.55987,-12.88258,-13.50415,-14.77257,-14.37155,-19.20562,-17.50063,-24.57843,-20.84517,-23.51007,-27.85151,-26.38136,-25.75365,-26.05404,-29.07078,-28.22453,-30.38385,-32.45827,-31.80848,-32.61578,-32.91412,-35.32149,-36.16079,-34.14962,-36.86625,-39.41713,-38.04787,-39.30331,-38.11622,-38.89266,-40.89205,-38.57681,-40.03618,-40.04008,-39.5476,-39.84519,-37.80398,-39.21868,-35.34749,-37.00408,-35.23902,-36.85911,-33.82013,-31.48183,-33.32392,-30.08273,-30.00445,-30.48013,-27.01258,-28.88831,-28.18187,-29.49669,-25.47037,-26.61485,-22.24113,-24.89864,-19.02796,-21.24528,-16.02818,-16.53367,-15.10671,-12.61681,-10.23807,-8.841352,-6.15875,-5.438584,-3.46725,0.4243852,2.526881,3.235147,6.158874,7.817689,8.915562,10.22969,13.55465,12.9679,17.10698,17.94688,21.25231,18.13523,25.83504,22.95209,28.70118,25.42485,28.45574,29.93528,29.00755,30.40782,29.35089,32.40809,32.7217,32.1615,33.35073,33.755,33.02888,34.87399,32.77692,34.89574,31.76787,33.02293,29.62139,33.1529,34.10472,28.06124,35.10656,28.60363,30.84859,29.91439,30.97579,29.35404,29.47792,27.09704,29.4242,27.57012,25.25457,27.45926,25.1293,25.407,28.85149,25.57767,28.77747,26.23019,28.14952,26.87914,24.45344,25.92398,25.43399,22.25486,25.06136,22.10062,21.93328,20.17498,18.44595,20.34373,17.08507,19.0493,17.41366,16.74858,17.4464,17.34595,14.72067,16.23618,12.61814,13.56876,15.50871,11.41576,14.30248,11.85344,10.40075,10.71525,10.03919,8.807543,11.38573,6.334126,5.994907,10.77721,4.049987,7.135257,4.263928,5.740351,4.918104,5.056308,3.043473,0.9258259,4.172862,0.5526904,2.18151,-1.767088,2.285125,-1.220275,2.134849,-4.923119,1.399636,-5.226303,-0.7913923,-4.440875,-1.679545,-4.139088,-3.280759,-6.45006,-4.158965,-6.1627,-3.963483,-6.682791,-4.636289,-4.966483,-5.11457,-3.770358,-6.97775,-4.795883,-2.896772,-6.788585,-5.190973,-7.853526,-4.31167,-0.7956099,-7.830098,-1.02412,-3.04277,-1.951742,-1.898413,-4.042118,0.0005373283,-5.544205,-2.817672,-4.014378,-5.109908,-4.425304,-4.762766,-3.129939,-3.319447,-1.891346,-2.165456,-5.20129,-2.049932,-3.387721,-2.936492,-3.133914,-4.266336,-7.607635,-4.578864,-8.215426,-6.499743,-9.061192,-7.928017,-6.440819,-9.544205,-6.242657,-8.229938,-8.277146,-6.399077,-8.76203,-2.8129,-7.962802,-5.37606,-4.405151,-5.10551,-3.089128,-4.65277,-3.718475,-1.763012,-3.128481,-2.150199,0.9349607,-0.1495942,0.7791057,2.58094,3.995013,1.350118,3.166153,3.769889,5.497373,4.686044,2.082217,6.616874,2.802142,6.650279,4.675756,5.819265,4.520095,6.672227,7.298757,5.717727,5.023454,5.943028,9.44584,6.392025,9.093965,6.440674,9.633925,6.510685,11.13977,2.957994,11.86505,5.818838,6.155423,8.794982,5.172485,8.053871,3.203069,5.957812,2.778136,4.594837,1.670006,3.103009,0.3238533,2.834509,-2.126406,1.397865,-2.702508,-0.131897,-1.738545,-0.4074683,-7.233394,-2.097289,-4.62388,-4.612493,-2.945395,-10.71262,-4.643998,-8.848519,-7.789794,-9.796036,-9.29833,-10.50708,-7.71084,-12.85065,-10.79319,-10.68785,-14.71835,-13.00425,-11.89393,-13.57752,-13.93709,-13.56853,-13.03396,-10.29378,-11.76903,-10.13625,-11.94231,-11.98578,-10.68862,-9.964579,-9.991701,-10.43568,-7.811704,-10.91445,-8.188152,-11.89087,-11.69462,-9.70794,-11.98921,-11.21616,-14.16649,-12.82212,-13.66911,-13.21836,-14.65509,-12.99852,-15.55134,-13.21784,-14.6874,-14.25824,-16.87063,-16.21092,-16.09147,-15.24091,-12.56343,-19.84943,-12.88707,-16.45686,-15.24942,-13.89701,-13.39566,-14.98602,-15.84462,-11.62432,-11.26071,-15.69635,-12.95495,-13.12714,-15.33317,-10.79055,-17.03783,-8.812564,-15.50383,-10.57948,-12.18378,-10.23599,-14.37694,-10.57141,-11.53597,-12.88148,-11.65753,-10.43251,-10.96247,-9.452854,-11.21807,-8.849611,-10.30395,-12.02855,-7.523089,-14.19661,-7.892532,-15.55807,-11.3431,-11.78661,-12.93265,-10.31632,-14.60869,-11.61139,-14.26866,-13.64018,-14.50206,-15.34393,-18.17925,-14.94171,-19.55095,-14.91621,-22.39214,-18.5262,-22.35028,-18.94154,-24.98154,-21.11969,-24.76498,-24.80844,-24.30185,-29.85462,-24.15653,-29.60134,-27.83112,-30.62922,-27.36986,-30.67605,-28.32579,-31.88225,-30.19366,-27.02545,-32.74179,-27.54917,-28.59028,-29.28611,-25.3209,-27.06316,-25.81271,-25.20553,-21.43898,-22.18867,-18.6558,-20.7664,-14.69244,-14.55807,-10.86531,-10.95705,-9.344453,-8.585381,-1.40327,-5.497708,0.4255699,0.5151857,3.054365,2.515433,6.891371,9.358876,6.717705,11.31923,12.79718,15.53438,13.98719,18.74142,16.76229,21.89012,21.23705,21.15361,26.01968,25.35394,27.25835,28.29556,30.7102,28.03986,31.08159,34.04152,32.9939,31.66953,33.08095,35.12423,35.86195,30.77675,37.02271,34.68291,36.06049,37.50505,35.37666,37.96481,32.28444,36.96752,34.44064,35.64472,31.43471,31.77808,32.25702,29.61419,31.30837,31.20101,26.90374,32.38269,29.79381,33.02416,28.97618,32.77821,31.11402,31.69933,35.35365,31.36045,35.52008,35.56858,37.41424,37.95377,37.43292,35.32109,37.76979,37.97858,38.04867,39.12779,37.49498,39.26789,36.0756,40.76644,32.68079,38.54736,34.48444,35.00663,33.72431,33.12033,30.97041,31.27443,29.32152,28.66928,28.60629,25.0736,25.25046,21.61137,24.40753,19.79033,19.16766,16.56752,18.28984,16.95996,11.65209,12.93988,8.900723,9.102205,7.958591,5.235904,3.881785,1.208799,1.979611,-0.6313144,-1.853211,-5.048745,-2.491929,-6.159516,-2.833426,-9.731755,-4.586174,-9.358384,-5.455808,-12.66172,-5.75097,-13.51699,-7.716536,-14.85668,-8.060258,-12.78857,-14.58285,-12.25594,-12.29312,-13.77751,-13.2052,-13.43848,-15.05312,-12.18756,-13.17267,-12.82542,-11.20463,-12.28265,-11.35594,-10.18937,-11.7863,-9.78339,-10.68027,-9.000881,-10.53663,-9.506458,-8.187858,-7.653986,-3.219194,-8.16342,-0.9498657,-6.824024,-4.95056,-3.47356,-4.425737,-5.835416,-4.320921,-4.927334,-4.598611,-6.113909,-8.455365,-6.447766,-5.946047,-10.0149,-5.686901,-9.016119,-5.847002,-8.66625,-7.336652,-6.1224,-9.798647,-4.731265,-10.50453,-4.745365,-8.360423,-7.445777,-3.535027,-11.02596,-5.909385,-9.410585,-9.003413,-9.361174,-7.166596,-7.751947,-7.871502,-6.362618,-9.146919,-7.752622,-6.239066,-7.580358,-5.557312,-5.706105,-5.487481,-6.467232,-1.888805,-4.984797,-2.824851,-2.532504,-5.047094,-0.08338494,-3.057947,-0.2738525,-1.905738,0.06239672,0.3789185,2.701234,-0.8396481,2.8837,1.769061,0.3284387,1.912993,3.046401,0.619521,3.536579,2.123899,5.78563,2.693607,0.2317913,7.736797,3.169401,6.005955,4.093577,5.176451,2.788805,5.737536,4.104045,6.483782,1.41774,4.720761,3.330315,7.6392,3.294776,7.050749,2.378295,5.122037,4.129692,2.157643,4.632789,5.34837,-0.3616026,6.939687,0.639876,2.647348,3.321753,0.880459,1.508262,0.6735819,1.012057,-0.8837943,-0.535574,-1.800334,-1.602538,-2.532142,-3.098466,-2.506915,-1.878585,-1.455142,-2.334487,-3.025526,-6.836641,-1.372154,-7.400319,-6.071945,-7.836859,-7.360458,-9.514736,-6.730898,-11.11503,-8.476241,-13.02184,-8.157176,-8.877501,-12.84277,-9.639153,-9.86885,-9.616936,-5.271153,-11.31638,-4.913078,-8.484007,-7.358112,-3.404635,-9.126629,-3.317587,-7.80052,-4.961442,-6.45028,-8.181102,-6.324714,-7.375826,-4.189073,-5.710526,-4.726256,-6.049884,-6.897492,-3.815804,-6.191577,-2.438798,-5.200187,-5.05329,-2.823412,-7.976127,-1.940365,-8.595598,-4.662863,-8.1808,-4.873275,-8.8697,-6.691863,-8.7654,-7.228881,-8.325049,-8.370375,-7.601941,-10.51514,-7.398059,-10.49279,-9.901203,-9.225926,-12.56268,-7.339918,-12.31854,-10.91762,-11.04821,-12.79189,-11.42554,-15.38166,-13.59026,-13.89767,-15.80998,-12.90093,-19.33472,-15.12488,-18.15791,-18.85875,-16.73215,-22.4125,-17.14291,-20.51086,-17.10049,-19.27414,-16.23045,-20.53278,-17.32555,-20.25996,-14.75654,-18.44678,-16.47347,-16.38642,-19.972,-14.64001,-18.51636,-14.90086,-15.96663,-14.84036,-15.86283,-12.65662,-12.82699,-12.30264,-14.90217,-10.36823,-11.30955,-10.19112,-12.83167,-8.347197,-11.01558,-9.574559,-11.55644,-11.29633,-11.93064,-12.30558,-14.22991,-13.34359,-12.80103,-12.65761,-14.91163,-9.435385,-15.59168,-14.16332,-15.92477,-13.72968,-18.68154,-13.80075,-17.98915,-15.37443,-20.23524,-16.04789,-20.16926,-18.47191,-23.6948,-18.88964,-24.36105,-22.69334,-23.72701,-25.34682,-25.43906,-23.88396,-24.83232,-25.29978,-22.23694,-25.4325,-21.94848,-22.16267,-25.81905,-20.47735,-23.19642,-22.03015,-18.6356,-21.74668,-20.12969,-18.87996,-19.00452,-14.58831,-17.03885,-11.31113,-11.28513,-11.01904,-6.783687,-6.095647,-6.786836,-1.052871,-5.430385,4.397819,-1.490548,4.80751,4.244476,7.337617,9.062283,10.53576,10.22862,13.95157,13.69267,14.99408,18.47264,16.45789,19.34253,19.6662,23.55188,24.41348,25.59352,23.58211,24.23262,29.0323,26.14595,28.05836,30.23198,29.41386,34.87365,32.97007,36.40886,35.68705,38.47513,38.86733,41.44684,40.90217,42.94824,41.74661,44.54862,44.81926,42.04425,46.99065,44.86619,47.26061,46.94152,47.53105,46.85,47.66618,47.58379,48.58903,44.90182,48.01403,46.11658,46.3547,45.62315,43.28092,43.89646,42.12736,40.40057,42.40563,39.08158,37.13125,42.01978,37.44571,41.27095,35.67568,40.19682,33.50669,36.63832,33.64998,35.90394,32.33516,32.80949,35.3824,28.45268,34.74641,22.00045,32.53074,23.13109,24.97758,21.05621,23.21203,15.82083,23.08484,14.13042,18.52142,14.19282,14.32712,14.70795,11.83254,12.83244,8.716905,11.71823,6.79908,8.100494,10.11682,4.633207,8.563004,8.246594,6.324384,8.190791,7.886368,7.535425,10.55544,10.1629,11.54963,10.28088,10.75494,15.66917,10.15118,13.86177,11.33215,9.936593,17.31697,10.05682,15.29463,13.10623,13.69984,16.20365,11.32823,18.35317,12.68171,14.92184,15.01374,17.18926,15.20335,16.89924,14.37892,18.52899,17.66431,14.16888,14.78626,16.88897,16.13193,13.78508,19.36478,12.31942,18.93028,16.52471,19.22261,18.19972,18.94969,16.42306,20.74836,15.95375,22.23473,15.02159,19.46886,16.51434,18.6871,14.74544,17.90783,14.56336,17.2645,16.25192,16.73311,15.70559,13.10718,16.54165,12.6126,15.28127,10.14654,13.84465,7.468101,12.14714,6.714467,9.369961,4.36324,6.809062,6.134784,1.993754,4.314518,1.348313,1.041246,3.188382,1.770617,0.003805725,-1.351941,2.318533,-1.472804,-0.4107659,-1.937135,-3.881826,-2.039044,-5.697864,-5.440371,-9.488516,-6.628976,-9.639192,-9.507588,-11.20046,-11.4104,-15.01162,-11.3914,-17.3482,-12.3753,-15.85098,-17.63363,-15.05701,-17.45913,-16.07352,-18.49247,-17.54142,-20.26393,-16.65928,-20.91613,-19.42953,-21.63024,-22.33482,-21.49679,-23.96022,-20.02273,-24.84117,-21.1083,-23.93642,-21.5748,-24.87428,-25.06884,-23.49634,-28.13437,-23.86164,-28.4668,-25.63492,-23.86512,-29.08339,-21.93234,-27.72168,-26.92629,-26.31178,-27.93971,-22.65308,-28.88391,-24.60023,-26.37722,-24.75069,-24.38887,-25.90053,-28.3982,-21.86453,-27.27614,-25.80188,-26.41122,-24.04103,-28.34455,-23.86268,-22.80487,-26.76362,-20.35551,-23.98418,-22.66443,-21.08227,-21.74747,-23.05537,-18.20533,-25.84798,-16.38272,-23.17915,-21.43453,-20.96328,-21.83455,-22.65089,-19.27436,-23.66502,-21.61693,-22.30293,-23.08864,-23.54203,-22.27886,-25.82461,-25.65348,-20.98145,-28.21698,-22.24678,-28.99442,-24.60665,-28.29721,-26.40309,-30.29131,-29.72014,-30.7378,-31.21468,-30.02208,-34.97284,-32.65178,-33.39451,-32.28248,-36.0358,-32.8671,-36.75015,-35.12821,-37.66551,-38.08666,-38.47573,-42.11909,-43.05733,-43.27137,-43.37811,-41.93437,-44.44361,-44.01105,-43.07098,-46.01139,-44.60102,-47.21263,-47.03312,-47.34266,-47.01572,-51.68386,-49.9392,-52.1658,-53.04873,-53.13713,-57.02754,-56.68933,-57.06391,-60.04328,-58.12322,-61.26693,-59.68687,-59.74698,-60.20109,-56.36054,-62.80354,-57.16373,-58.17603,-55.25968,-55.28707,-52.38642,-50.84737,-53.1119,-43.19977,-48.10798,-41.46,-42.17827,-40.87231,-32.75212,-36.96935,-28.68165,-29.2651,-22.75821,-22.75807,-17.05327,-13.05993,-12.88699,-6.149944,-7.170798,1.22735,-2.251019,6.651861,4.292437,10.20407,12.74272,14.39946,17.09663,19.4262,22.75758,25.74493,28.66978,29.88401,31.7968,39.31134,37.8539,44.49666,42.16377,44.66464,52.3466,48.87753,50.74801,54.04129,48.26785,56.23898,50.5992,53.99407,52.4866,53.12919,55.44565,54.78542,57.49699,52.48371,55.8379,59.10534,56.48593,57.6439,55.4975,55.84661,57.59154,54.09075,55.57033,54.428,55.64173,52.70742,54.99823,53.5065,53.72652,56.34459,54.78943,54.56891,55.91118,55.37601,53.70041,54.64052,57.67066,55.39583,54.28004,58.38345,57.43045,61.44726,59.438,57.45793,59.46196,56.1404,57.90515,56.77961,54.31793,55.12412,51.8745,51.90605,49.90895,47.42653,46.8722,43.63969,44.55833,39.66341,40.8951,36.55129,35.13633,35.1791,32.16749,29.01004,25.88881,24.36141,23.89557,18.12749,19.01294,15.64702,12.66608,11.39457,8.548559,5.198696,2.115959,2.29594,-4.396536,-1.353158,-9.134372,-5.942966,-12.59488,-11.66367,-16.08883,-14.65209,-20.81678,-19.15671,-18.43155,-22.78054,-23.75967,-27.37514,-28.4942,-27.267,-33.51154,-29.06142,-36.8548,-35.47165,-34.66255,-40.05337,-35.60057,-43.33799,-35.07436,-43.35274,-39.52738,-40.96998,-41.2783,-39.43984,-41.71854,-40.06175,-43.6698,-41.94816,-41.19166,-42.64838,-43.89973,-45.60345,-45.86037,-44.14693,-44.82377,-44.29587,-42.96424,-40.60567,-39.45876,-39.77795,-36.84469,-42.89396,-38.74744,-40.16643,-38.78382,-43.51986,-41.43883,-45.88201,-44.22503,-46.32842,-44.71482,-47.05305,-48.44388,-47.85526,-49.27889,-46.86263,-51.95895,-49.61243,-51.39801,-50.21984,-47.9903,-52.23677,-49.15273,-49.67163,-46.63807,-50.3853,-45.50302,-49.718,-46.1745,-45.43354,-45.60846,-42.13446,-43.27026,-40.94465,-36.96601,-38.43185,-31.94774,-34.83368,-32.45739,-27.28272,-26.263,-25.27555,-21.78782,-18.42094,-16.62321,-12.80838,-10.86982,-7.979163,-6.284914,-1.705461,0.595761,3.36734,6.835347,8.529759,14.18697,15.50954,20.82527,20.55544,24.6456,27.74179,30.89646,35.08022,33.33838,39.09717,37.9577,44.21305,41.25047,47.43357,41.90916,51.65649,46.52281,51.87849,47.12485,54.8647,53.29066,56.82368,57.56568,57.49752,61.65667,61.88465,64.01995,66.09003,63.32947,68.33347,67.30855,68.55715,69.74823,68.08722,71.09596,64.93156,71.90674,69.39536,69.83513,69.91792,67.90351,72.42039,66.88682,71.79392,67.81607,69.26381,68.10336,71.8752,65.74776,71.01234,65.99207,70.07188,71.30385,67.78774,67.15594,64.8005,66.63359,60.05647,64.07592,58.26394,59.47252,54.24144,56.09295,51.15521,49.54104,50.23062,43.61651,44.55755,40.12196,38.74085,32.78643,35.61348,25.89772,30.06006,22.53379,21.80033,19.92037,14.56345,12.72274,9.000039,5.712602,3.583691,0.2843964,-1.838535,-4.214141,-7.457619,-5.239372,-11.02448,-10.04816,-15.93797,-13.94138,-17.99929,-19.39268,-20.64845,-25.14253,-22.83215,-26.87976,-22.8748,-28.87031,-25.24997,-32.17891,-23.57264,-30.25383,-26.37616,-29.21068,-28.39542,-25.22933,-26.37564,-23.89468,-23.52563,-22.6587,-21.97126,-19.37304,-19.19867,-18.33261,-17.71914,-15.45814,-14.34284,-17.11414,-13.46785,-16.54652,-11.38129,-14.86405,-11.42721,-15.43599,-13.86777,-14.99265,-12.23073,-12.4781,-9.492728,-9.050759,-8.465915,-6.647903,-3.154196,-8.024176,-1.05015,-4.407048,0.08631231,-0.834728,0.1919233,0.1923866,3.480102,1.696764,5.116456,3.584526,5.593346,7.44521,8.607243,8.63826,8.636129,7.64696,12.84005,7.308114,16.27325,6.797356,12.17002,10.69493,10.79318,9.294913,11.20196,7.107997,10.31454,6.059862,9.957935,8.150602,4.447719,9.981726,3.563366,9.593038,1.946817,6.513337,0.2727707,5.241809,-0.6870283,2.894207,-2.397301,-0.895463,0.4906451,-2.299075,-4.09473,-3.764413,-3.717936,-4.789455,-3.632681,-6.734943,-7.866194,-7.460396,-11.17071,-9.304251,-11.71745,-13.17248,-12.20646,-11.81706,-16.68397,-12.17311,-18.6904,-12.25435,-18.68352,-14.23714,-19.13057,-16.91401,-20.66606,-18.26804,-17.88006,-22.11403,-18.1434,-21.92155,-18.61192,-22.487,-18.50312,-22.62455,-17.92425,-22.7165,-16.92404,-20.51385,-18.11523,-18.63461,-18.58061,-17.48865,-17.49737,-19.54009,-16.92012,-16.09891,-18.33132,-16.23921,-16.21364,-15.59489,-16.18362,-15.20519,-16.69755,-17.04712,-15.58809,-17.69728,-16.22281,-18.44208,-17.50705,-16.83805,-19.7885,-16.93446,-18.2013,-16.68239,-21.79426,-17.95697,-17.95268,-25.01656,-16.43612,-28.01549,-21.09379,-23.29182,-27.06763,-25.98885,-25.80733,-29.1345,-26.80076,-27.54753,-30.5848,-32.38598,-28.8063,-33.12166,-31.4644,-33.94413,-32.41986,-35.38342,-33.62282,-37.15654,-35.82973,-37.33977,-37.84396,-39.17806,-40.55979,-40.95649,-44.29493,-40.26166,-41.25441,-42.52579,-45.30291,-40.562,-45.96001,-40.09606,-41.79286,-40.60816,-45.07513,-37.40859,-45.64314,-36.84757,-47.2371,-37.71264,-46.56803,-40.1985,-44.9891,-41.98893,-46.55555,-43.45382,-46.1444,-43.38125,-48.26478,-47.63408,-47.61983,-47.19426,-49.56015,-46.58367,-50.76786,-46.59559,-50.4724,-45.02072,-47.59412,-45.97176,-46.7888,-46.06203,-42.54963,-45.0771,-42.47079,-39.35689,-40.90011,-36.69427,-35.06255,-35.29753,-29.52121,-28.59944,-26.62702,-23.84502,-23.03029,-18.45977,-16.13036,-13.69924,-11.2107,-11.71479,-4.164138,-5.527274,2.58722,0.2437747,5.197031,7.531188,10.00225,18.24945,13.51559,21.96342,19.28103,26.36307,25.49751,31.93627,31.2724,35.56901,39.59749,40.40225,43.87602,45.59042,44.89686,54.35664,51.85043,54.3996,53.83983,58.00186,59.61062,58.01829,65.39642,59.08715,65.03924,64.28748,65.69995,63.70099,66.97913,61.55648,68.15807,63.67461,63.77146,63.18167,66.38778,62.36198,63.67556,63.26773,60.08571,60.30939,58.38811,61.17316,53.53811,54.71552,53.88228,51.0636,54.06008,51.04429,51.31563,51.49587,53.15378,55.21457,55.82191,57.15874,59.68799,62.20124,63.46327,59.88639,64.02321,63.53308,65.73985,67.91264,64.03771,66.7512,63.68013,66.48244,64.29865,68.70207,62.50535,68.02043,63.8279,67.7785,61.60084,62.0311,63.6485,57.72881,60.93375,57.6334,53.07558,57.76036,47.8397,50.94062,48.38065,39.27129,46.76721,35.22113,42.83822,30.77241,35.55943,28.0164,27.38923,24.84812,21.98617,17.38779,16.15733,11.20326,10.86249,7.066725,3.282088,1.144842,-3.037048,-3.234142,-7.6316,-10.86579,-13.04848,-14.95965,-17.43171,-21.25442,-22.4203,-25.81669,-26.60393,-26.12899,-32.00797,-28.88392,-39.00466,-32.04228,-37.67426,-35.52556,-37.67494,-39.01667,-36.61545,-40.47994,-37.52865,-38.67251,-40.06299,-37.15393,-36.72076,-38.82842,-33.12696,-38.71057,-31.64633,-32.51817,-28.30513,-31.89591,-27.52333,-29.02184,-21.90811,-28.68114,-20.55701,-27.72377,-17.63563,-22.09073,-16.48908,-16.32468,-15.33827,-16.24669,-14.6813,-11.57576,-16.93886,-11.1782,-16.95459,-9.327303,-17.00237,-10.84143,-14.01597,-13.90133,-10.93848,-12.13981,-12.11739,-13.36346,-10.29217,-10.36485,-11.59721,-10.00322,-10.87614,-11.53213,-9.864705,-10.26479,-9.093074,-12.92825,-9.280735,-12.01423,-13.34204,-12.10252,-12.2416,-13.30543,-9.119628,-9.408796,-13.03231,-6.188069,-14.26704,-5.149343,-12.33134,-9.560358,-7.668167,-11.54297,-5.953495,-9.84394,-6.558786,-7.096063,-10.27642,-4.559535,-6.847115,-6.943685,-3.637692,-8.859406,0.05553729,-8.015668,0.3364948,-6.861607,-4.651259,-4.909505,-5.31035,-1.302733,-5.89028,-2.834048,-1.43914,-2.924604,0.2327059,-2.34047,0.0104291,2.18212,2.688692,2.308136,4.021637,4.549506,2.20607,9.958421,4.112699,7.960767,7.814666,9.197313,8.764036,9.993861,6.445316,11.75935,11.43541,9.613884,14.73739,7.007469,15.62718,7.7519,15.41344,11.49533,11.47931,11.11651,12.36251,11.94682,11.70951,11.2158,10.53379,8.720017,10.76064,9.102415,7.243213,5.191508,8.572482,2.731278,6.615758,2.490843,6.585854,3.280657,5.701807,3.758104,2.354281,1.605598,3.703325,1.95911,2.361034,1.831776,0.8373389,2.862792,-0.4152818,1.55075,0.2560064,-0.3847323,1.33435,-1.759182,1.827178,-4.909173,1.409256,-2.281487,-3.508809,2.255049,-4.734644,-1.591365,-2.714718,-1.771941,-1.670961,-2.229415,-2.918719,-1.175637,-4.723425,2.010944,-5.073944,-0.8009415,-0.6837586,-0.8740091,-1.767803,-0.6212083,-4.869583,0.1442704,-3.479674,-1.055315,-2.956969,-3.120024,-3.612656,-0.9321756,-3.448501,-4.197729,-3.050794,-5.200956,-4.714886,-4.490396,-6.445832,-6.708396,-8.487175,-9.061272,-10.15957,-12.98869,-15.08916,-13.90652,-14.97734,-14.15094,-17.14523,-17.44144,-15.90891,-22.32465,-15.32543,-22.00683,-20.81815,-19.66023,-23.16268,-20.7466,-23.9125,-24.05657,-24.91471,-23.5599,-26.25504,-25.24175,-23.97914,-25.91934,-25.69275,-24.65393,-28.26262,-21.52701,-26.30497,-25.79964,-21.60645,-25.84119,-21.68331,-24.98182,-20.60705,-22.82535,-21.86194,-22.34591,-20.73448,-21.14037,-19.75883,-19.81827,-21.93303,-19.60717,-17.65957,-19.94255,-20.09442,-18.11219,-19.51142,-17.25904,-18.46326,-16.68302,-18.44999,-17.03144,-19.33789,-13.1594,-14.42676,-14.5872,-14.24448,-13.91328,-15.66087,-12.86009,-18.88649,-15.02097,-22.03132,-14.96757,-23.52555,-23.87958,-24.949,-29.70271,-25.07072,-35.10068,-26.80455,-36.74318,-32.95733,-32.54949,-39.33272,-35.77732,-40.10568,-38.86954,-38.09958,-43.14082,-39.75006,-42.75401,-42.19566,-42.20336,-41.29846,-43.11012,-41.70198,-43.13495,-40.88665,-38.55856,-39.01065,-37.22071,-34.34952,-35.52681,-32.37061,-28.44726,-31.25321,-22.99905,-28.14025,-20.2529,-16.12733,-19.67152,-14.26063,-10.1339,-11.30401,-2.970956,-7.515358,-0.098081,-0.2595124,5.681375,7.012237,8.312443,15.00427,13.98331,23.8033,18.70233,26.79331,23.37656,34.66441,28.55491,37.81519,34.93348,36.57223,42.30516,39.86317,45.32696,43.47809,46.39653,49.83283,47.89654,53.09936,48.35298,52.86825,54.76317,54.70697,58.05973,53.8331,55.96016,57.97903,55.66347,57.67822,54.00325,55.8983,54.8144,54.06942,52.03649,50.08637,50.12047,49.6043,47.69873,47.84972,46.83366,44.69962,45.58718,46.98668,47.9492,44.37364,49.09547,46.04253,50.3877,48.5331,52.77728,50.61652,56.56779,53.36501,54.60956,53.91779,55.56902,55.28471,57.28286,54.1557,56.72312,51.90812,59.06023,50.82064,56.71774,52.72654,52.45793,54.58412,49.60476,54.91046,47.01893,49.03074,46.87198,45.58114,44.18515,42.77699,40.07649,39.78091,33.78611,37.66426,28.1449,29.31718,25.49836,25.16229,20.05341,19.54507,13.50145,15.97962,11.55617,10.75584,4.671424,5.909251,-2.938948,3.081853,-6.087162,-5.147481,-10.92753,-10.37283,-11.96687,-13.63657,-18.95805,-19.46006,-19.25976,-24.88521,-20.15905,-32.17673,-23.41746,-32.50428,-25.95478,-32.40533,-29.5572,-32.81416,-29.76186,-30.71989,-34.95228,-31.6217,-35.52397,-32.79503,-34.04059,-33.18628,-36.24316,-33.27342,-33.12077,-33.8572,-31.20771,-33.62614,-31.54402,-28.99739,-30.77726,-25.69181,-25.88056,-23.09752,-23.35745,-22.90349,-19.21039,-25.00048,-18.78978,-21.97325,-18.50035,-20.2985,-21.4491,-22.0862,-19.51286,-24.02316,-21.51823,-20.82857,-21.13349,-20.45929,-19.80109,-17.23308,-20.05522,-19.0149,-16.59463,-15.66393,-14.56739,-17.8832,-14.45058,-14.25135,-14.04943,-9.69968,-14.13848,-12.89409,-9.80487,-9.843685,-8.844376,-7.957868,-5.140908,-5.982758,-2.295472,-1.881293,-3.122881,2.205305,-2.1805,3.909898,0.8024942,-0.2243668,3.746768,0.4814433,3.179906,5.103526,1.405852,5.821171,1.275773,7.211846,1.904357,4.018612,3.153965,0.6576745,2.587334,3.906992,-0.07036061,0.06827884,3.549138,-3.849553,4.511987,-4.315801,-0.9684255,-1.693666,-1.769778,-1.227631,-5.348526,-2.645429,-9.824387,0.1548145,-12.25799,-2.181444,-14.20433,-4.903915,-9.448628,-7.30467,-9.248715,-9.715034,-6.707482,-9.539079,-3.525459,-9.438281,-2.415364,-7.211127,-2.260433,-0.6900263,-0.334688,-2.090776,0.5180847,-2.365609,1.275578,3.264028,0.3680091,2.798944,3.170276,4.273388,6.276053,4.90683,8.742869,5.585314,11.32576,8.259481,12.96775,9.499085,15.47697,13.34418,18.04306,12.47543,15.51313,14.89612,17.50548,13.82685,17.10353,11.54581,16.86462,10.5879,16.30821,10.43978,15.43637,7.576153,14.36929,9.696603,9.142458,8.522108,7.436781,8.45515,4.219322,6.441594,2.190883,2.382622,1.089079,0.07091353,-1.678337,-1.318057,-3.730503,-2.247027,-9.935127,-3.492098,-9.193581,-7.747365,-7.845876,-7.408464,-8.805635,-9.79867,-9.360278,-11.01112,-11.24968,-11.06902,-17.50567,-11.7672,-18.60103,-15.92543,-15.77559,-20.33948,-16.65258,-18.55955,-20.67283,-20.54952,-25.37835,-20.89868,-28.43252,-22.07965,-26.20699,-28.04705,-27.46464,-25.94004,-30.92394,-27.1579,-31.66857,-34.43325,-27.4791,-39.01134,-31.10364,-39.03608,-34.89038,-40.6435,-38.69828,-42.22679,-41.83985,-40.24833,-45.52695,-39.73461,-47.70116,-42.82905,-44.82567,-50.9267,-45.41077,-50.02723,-51.04479,-49.49486,-52.67327,-53.61833,-54.5125,-57.93649,-58.57695,-55.90849,-63.95619,-60.43953,-64.08791,-64.14392,-63.74637,-63.3649,-68.42531,-63.06927,-65.6848,-64.70428,-61.79567,-63.92664,-63.02611,-62.03707,-60.49806,-57.85044,-54.55831,-57.55186,-48.45311,-53.35511,-43.68422,-48.26897,-38.95375,-40.63672,-37.38235,-31.85453,-33.14581,-26.07739,-24.44735,-20.9359,-13.78183,-15.54605,-10.04997,-8.442804,-2.128053,-0.2998534,4.03314,7.319303,9.353558,14.75032,15.86155,19.85278,21.35698,23.97409,28.58157,30.51077,32.16031,38.40238,35.49093,41.3404,42.2999,48.93305,44.638,49.85486,50.96406,53.24354,55.03952,55.28734,56.48133,56.68839,60.21509,57.92213,61.43822,58.52226,60.96039,62.2017,63.43779,60.39636,62.83113,57.98294,61.55613,58.7865,60.46386,57.21344,58.40672,58.51576,57.86207,55.90194,55.21449,54.46425,49.89493,54.64683,48.23589,51.03587,51.37735,49.95776,57.16275,49.47276,60.18359,54.58718,63.7428,61.34114,69.49767,62.96023,68.72102,70.15349,70.77262,72.72564,70.28694,73.65369,75.87196,72.94245,78.20942,73.96256,74.60579,75.7639,76.71588,73.99107,73.89617,74.86718,71.45148,76.01706,69.06269,70.66691,68.15795,68.96302,65.35119,66.59566,58.61288,58.70093,58.51878,54.30037,51.13041,51.37929,43.92154,47.28659,40.39083,38.12682,40.18153,28.87854,36.19304,25.3474,29.33293,20.08807,21.17992,17.42391,15.96188,13.1305,9.483274,5.79131,4.66851,-0.6937239,0.2158249,-7.455947,-3.563912,-12.61144,-8.687291,-16.40419,-14.36517,-20.43661,-18.16789,-22.39408,-24.61045,-25.55418,-27.44828,-28.89022,-28.4938,-29.307,-36.05082,-30.14053,-34.18641,-33.99999,-35.13664,-35.9903,-32.93494,-36.75049,-33.61464,-36.35625,-32.72268,-35.55662,-29.36085,-34.7146,-26.87267,-34.54017,-27.13917,-27.84833,-29.87825,-24.81535,-28.50005,-26.81818,-24.66313,-25.96211,-24.48887,-24.87943,-25.53944,-22.0372,-25.67693,-24.12934,-25.73449,-25.34655,-25.64665,-20.56055,-26.79763,-23.02324,-23.43798,-20.46009,-23.0952,-20.4429,-19.476,-18.81707,-20.8317,-16.57537,-18.31289,-20.05228,-14.25745,-15.63443,-15.14616,-13.31527,-14.94957,-9.636041,-15.64059,-8.218878,-10.83994,-10.50454,-6.801124,-10.14159,-3.406048,-7.782066,-1.720217,-3.909829,-3.306634,2.139503,-4.421824,3.324564,-4.041138,3.05205,-1.953894,0.9421624,-0.4673289,-2.185994,2.080242,0.2434281,-0.8809516,1.644574,-2.383002,2.261693,-1.470697,4.382815,0.5926171,-0.4570521,3.246021,-1.306778,4.376749,-0.4101282,1.865206,-1.191665,3.280477,-0.1514425,1.233924,-1.912169,0.8767344,-0.1717771,1.161889,-3.310402,3.022791,-7.615899,3.207096,-6.776153,2.624727,-6.434107,-2.707635,-7.097368,-3.633199,-3.480042,-8.463429,-6.020956,-3.400147,-8.437864,-3.751615,-5.161387,-7.619718,-4.353151,-6.29645,-6.756458,-6.045479,-11.38875,-5.436811,-9.855068,-4.314237,-10.73851,-4.875474,-10.51716,-2.280203,-9.430301,-6.313562,-6.316736,-9.182183,-0.8571957,-10.67583,-5.02245,-5.402142,-5.361106,-3.541833,-2.298432,-6.313427,-0.5944986,-7.401094,0.6155861,-4.776378,-3.164619,-3.8688,-4.92415,-6.440559,-6.139182,-5.457405,-9.3488,-7.710564,-6.585718,-7.990744,-10.02406,-13.26002,-7.344709,-14.20386,-8.708953,-14.51549,-10.34379,-15.18588,-12.14657,-13.95457,-14.65175,-16.27131,-12.20817,-18.73036,-9.499537,-19.04778,-14.49772,-13.95275,-14.72332,-15.38673,-15.17802,-16.50272,-12.84643,-16.80233,-15.27534,-16.46618,-18.04785,-14.58468,-19.6697,-14.88041,-19.70785,-17.47043,-16.46799,-22.20231,-15.82343,-24.00984,-16.83503,-22.63855,-15.49062,-22.52105,-19.95804,-22.47565,-20.53095,-22.67793,-18.91231,-25.14069,-20.40797,-23.16801,-22.54476,-23.71559,-24.21344,-22.4383,-24.77633,-19.25151,-23.78965,-20.56389,-28.82642,-20.39242,-27.36907,-21.86364,-29.33193,-27.33334,-28.69979,-28.51737,-29.79829,-33.90869,-31.71472,-31.50686,-40.60556,-30.32275,-43.41607,-37.76103,-42.01334,-43.23309,-41.29943,-44.869,-46.72293,-39.07974,-49.19452,-37.60548,-48.07586,-39.27529,-43.75439,-38.31149,-42.50175,-36.04612,-39.0517,-37.7281,-32.04324,-34.12411,-30.28074,-26.27489,-30.00426,-19.79468,-22.81494,-19.02941,-14.36282,-15.56222,-4.70066,-9.198645,-3.36084,0.8763033,-2.162583,7.991044,4.734131,13.2246,12.134,16.84043,17.92231,24.21443,22.11854,26.88929,30.04822,30.69601,36.96159,35.52766,43.05254,39.19594,46.6009,48.00998,46.83656,50.62782,51.38037,51.63722,58.0647,51.2877,59.96389,55.03959,59.84357,58.10991,62.82211,55.28383,60.7852,54.61955,58.47471,61.85848,53.19277,64.32684,51.72831,62.81903,55.39615,58.02318,58.54739,54.79745,59.12745,56.45695,55.50253,55.89264,53.76791,53.35633,52.44869,55.0437,50.37373,54.50734,52.15456,50.45251,53.12373,50.51823,51.25746,54.06402,52.92439,53.40368,53.73422,52.5179,52.24347,49.92388,49.34074,53.47116,44.20545,50.57824,43.63302,45.75917,39.76209,41.83377,36.99928,36.88684,31.8157,32.59092,25.01902,29.15126,20.58877,23.00331,16.43701,16.23975,14.23888,12.40794,7.552469,8.263896,-0.4205701,5.660194,-1.886133,-1.654517,-7.039443,-6.933941,-10.73145,-9.358153,-19.41886,-12.61981,-19.83637,-18.21365,-23.87827,-20.46885,-28.00024,-23.64745,-28.20177,-27.49091,-31.00982,-28.31849,-32.02317,-32.72282,-30.56414,-32.62637,-33.11947,-32.62545,-32.97191,-29.50247,-31.72867,-33.40587,-30.13545,-30.07055,-31.33901,-28.58248,-26.58538,-29.47672,-24.8853,-24.43751,-21.90607,-25.38273,-23.3072,-20.69301,-23.83821,-17.09218,-21.21425,-18.59121,-18.28884,-19.67799,-17.25145,-19.12207,-16.40641,-18.94296,-17.06396,-20.98245,-15.0715,-21.70603,-10.64166,-19.75363,-17.71313,-16.40783,-20.36043,-16.89638,-18.05526,-18.12871,-20.50885,-20.52056,-22.0809,-18.93411,-25.03641,-16.63226,-24.73585,-16.04413,-22.4662,-15.80518,-22.32478,-15.11694,-21.51316,-13.01597,-18.56812,-11.86244,-17.7485,-7.227854,-15.96154,-5.962813,-12.725,-4.456895,-9.169824,-3.030981,-2.987008,-4.164833,-2.733379,0.1083119,0.4323641,1.76984,1.138662,3.268267,3.610825,5.438035,4.797987,6.627945,7.288045,9.191409,10.16911,8.290596,10.5728,10.6275,11.57427,11.3871,12.29742,13.22676,14.01577,14.9852,15.09044,17.51886,15.89588,17.69174,16.04456,19.12309,15.54908,22.65993,16.01373,20.35235,17.46998,21.14148,16.85394,19.53792,19.81301,15.43669,21.66959,17.35105,18.37944,16.81432,16.86387,17.38258,16.07162,13.27939,15.50337,13.03565,11.42377,9.268543,10.91591,8.099214,8.923154,8.694652,7.767849,6.83623,8.508376,5.30514,5.856733,5.735031,4.252862,8.451618,3.584052,9.540433,5.092081,7.452688,9.043529,6.760926,13.00025,10.07989,12.18423,12.71458,13.20995,13.6466,17.50387,11.82869,18.38634,12.19595,19.04664,14.87951,19.39674,15.82133,19.39524,18.9689,16.54847,17.60633,19.23352,17.33237,22.45609,16.91475,21.54945,17.22524,20.02508,21.12652,20.18142,22.20583,19.71377,23.35812,21.27541,23.37195,21.09977,25.18657,18.53683,25.83145,17.24478,26.11864,15.4366,24.98495,16.73243,23.97855,16.91365,21.32457,21.07697,16.71227,20.18822,18.50496,13.44674,20.74933,12.40756,18.00918,15.9233,11.56951,13.26846,11.10991,13.20245,8.504975,9.034054,8.698535,8.949325,8.630842,7.583268,5.96538,5.576194,7.668058,-0.02160869,6.798383,3.045723,2.492098,6.422009,6.911165,5.797176,1.278964,3.710846,5.364926,6.664602,4.349542,7.000945,4.743796,11.81539,8.563452,10.5771,7.593715,16.78092,11.74407,15.52973,11.89801,20.48171,12.58419,18.66461,18.55067,18.82145,18.01411,19.14367,18.89395,18.95242,19.5103,16.01366,16.71548,19.40815,17.13685,17.9452,20.71209,15.19708,23.58599,17.20416,19.6523,19.04924,13.83403,16.54335,10.31585,13.72511,7.075895,6.55286,4.47481,0.8468612,-2.126746,-9.164674,-7.512755,-18.3822,-16.43889,-23.70604,-25.15604,-31.81838,-35.21104,-37.9582,-41.98902,-46.41866,-53.07892,-50.89188,-62.09903,-60.71333,-68.41202,-68.59997,-68.77844,-74.83191,-72.82957,-76.45679,-80.4624,-79.3446,-82.80964,-81.44845,-82.82879,-85.47967,-84.16808,-84.44051,-81.23176,-85.88565,-79.16646,-77.95189,-77.14906,-74.89883,-71.85767,-71.00596,-67.32998,-62.34893,-61.94774,-59.09307,-51.14121,-55.41908,-42.98135,-42.06526,-36.89726,-34.17024,-23.25165,-22.06699,-12.12099,-8.221723,0.01681971,5.85987,11.27147,16.43802,23.83816,27.87327,33.1959,38.90701,50.92177,50.2442,61.24158,68.17441,71.5999,77.94729,82.14253,94.09938,98.30941,102.5555,109.9098,115.9056,118.8046,125.0393,126.556,129.9358,134.4816,135.6312,135.7679,138.8151,133.6203,141.1611,129.2226,134.2342,129.7834,123.3724,124.8198,115.2467,113.3511,110.9768,102.4399,100.4585,94.32054,87.0582,84.07596,80.52834,70.51911,64.98134,63.60894,48.07013,47.55651,35.52859,26.45069,20.3108,13.24162,4.578552,-5.097089,-13.11579,-25.45117,-29.52704,-39.26472,-50.74631,-55.82998,-67.88846,-70.52183,-80.65073,-86.54376,-98.00466,-104.0807,-106.5661,-118.5871,-124.3806,-129.1333,-132.4686,-142.9912,-141.7113,-140.6859,-150.7343,-142.4318,-157.3745,-148.8298,-158.288,-159.5849,-157.9448,-160.7047,-158.5231,-158.1857,-161.8768,-158.5283,-158.1103,-157.0005,-156.2702,-153.0977,-155.1772,-151.1654,-148.6968,-151.1375,-143.5388,-146.5695,-142.1443,-145.0344,-137.814,-140.0843,-135.0455,-131.4827,-131.3306,-127.1325,-128.5566,-118.8967,-126.0178,-115.5382,-120.9144,-112.1458,-117.9374,-108.387,-110.4096,-105.4262,-105.8597,-102.638,-99.87204,-93.55466,-96.53309,-88.198,-91.52143,-83.98955,-84.25869,-78.29788,-79.07597,-74.64641,-73.71332,-66.06574,-68.93383,-63.33413,-61.88873,-57.9818,-57.83789,-52.86043,-51.79958,-48.41577,-47.55864,-46.33662,-39.6758,-41.51094,-36.87961,-33.84792,-34.16112,-27.12444,-28.80851,-24.11477,-20.07601,-19.71342,-13.1675,-13.42424,-12.15817,-5.575244,-4.989123,-2.968356,1.080015,4.46279,1.49568,7.244955,8.259845,10.50726,11.77371,11.72388,17.36214,19.26619,17.41754,20.79658,22.54672,22.61988,21.74472,26.2632,20.37149,25.70491,22.96905,22.65217,23.04202,20.56717,24.20497,17.95013,22.44371,20.98237,20.92676,20.19852,21.53799,22.39663,18.28406,21.07379,17.13462,15.30184,18.68577,14.01698,17.57656,14.53186,15.36828,16.8887,14.07965,11.32212,12.25873,10.62689,11.81659,10.77359,13.35785,14.31846,14.19359,17.59403,19.87091,18.42004,22.99554,22.85158,28.73734,29.22434,31.73552,33.59973,36.06875,40.95899,41.1756,46.9561,45.01415,51.80936,51.70806,60.2402,53.15389,65.97107,55.75144,67.79803,61.62971,64.37587,65.13875,65.76351,65.22425,65.98091,64.60852,65.59761,61.3358,66.03865,61.11295,60.93124,57.00752,55.95052,50.76505,49.09737,47.34977,38.42154,39.31298,34.30504,31.38356,25.59971,20.95417,18.62654,13.29907,11.92051,8.698128,1.055042,1.558123,-5.219283,-6.745003,-13.32822,-17.08682,-21.01152,-26.75318,-30.42571,-36.39201,-35.94235,-42.6052,-44.50453,-45.76512,-51.21577,-51.86443,-56.42564,-50.61819,-59.54782,-56.09005,-57.87124,-55.87141,-57.22913,-57.92602,-53.9611,-55.4483,-51.32909,-53.55116,-45.94872,-50.62471,-39.46531,-46.60023,-36.4575,-38.08259,-30.99561,-31.61425,-24.61268,-22.3985,-20.57114,-18.64988,-14.85691,-13.12744,-7.467105,-3.248224,-3.057653,4.103496,0.8795166,13.31501,9.840044,17.40043,15.87401,20.98129,24.4908,24.72571,25.97697,29.96452,32.81677,34.25173,39.09761,38.0146,42.19758,44.52599,43.50275,49.66783,46.21026,50.05522,49.18345,47.67679,54.01516,45.77964,49.52628,47.77812,45.05873,47.2841,43.1792,37.33123,43.22645,33.05517,36.55162,27.22965,29.69862,19.36862,24.0055,17.57814,12.80832,12.76154,5.602367,3.710781,1.636697,-4.155697,-6.417657,-12.02041,-14.98091,-16.10275,-21.99366,-20.48738,-28.958,-25.446,-32.89525,-30.5559,-40.66299,-35.71571,-44.98486,-38.4308,-49.41739,-42.24894,-48.21726,-46.58748,-46.14285,-46.94858,-51.20788,-48.50744,-51.55593,-49.77618,-48.98985,-50.75203,-47.36909,-47.75694,-45.71577,-43.45868,-41.86552,-42.60417,-39.45746,-38.18421,-37.77978,-33.05889,-36.05674,-28.31776,-32.25931,-25.3882,-26.99079,-24.15903,-20.02549,-18.62215,-15.4619,-13.30297,-10.59034,-8.55974,-3.159823,-1.267518,0.9299375,2.482231,7.682153,7.419008,12.73147,10.45287,16.24967,12.26282,18.79503,16.46703,27.41077,19.19396,29.36447,29.96451,30.59917,34.8645,33.55995,36.26345,38.56859,37.03347,41.50358,44.02876,46.2341,45.80351,51.80832,51.06462,56.04217,58.04884,59.13175,63.52888,64.90664,64.20802,65.96307,72.55351,68.5545,75.96054,71.54549,75.44795,78.86593,72.83761,83.8084,77.82543,83.04393,81.57347,83.29715,82.57963,85.27714,77.76193,85.99299,79.66548,79.9804,81.94144,74.43016,80.92431,68.66878,81.20094,68.96496,73.16008,72.29378,64.30832,70.23676,58.75647,64.82009,60.87118,56.80957,54.64603,50.38076,47.62231,43.74654,42.56274,35.46936,34.13968,30.16507,24.4567,20.76839,19.57176,11.78598,10.90213,4.344485,6.327971,0.2920995,0.3479992,-3.070292,-7.3841,-4.993148,-12.98775,-8.614654,-16.36593,-14.97883,-18.21737,-16.82847,-20.90653,-21.02244,-24.73667,-19.38947,-25.25015,-21.98701,-25.51005,-22.91177,-24.5925,-22.73257,-22.79046,-20.53394,-19.23684,-18.74624,-11.8718,-13.47112,-7.67388,-4.878617,0.03462921,3.371351,7.981063,11.00962,18.5895,20.62828,27.96011,28.94956,37.00495,39.04668,45.71544,50.87226,52.56999,59.07122,61.35627,64.18783,67.67091,71.93554,71.41865,79.12379,76.7796,85.63384,83.78708,87.13542,85.81771,92.57196,90.73289,92.17048,93.30462,87.51233,94.0635,87.15629,91.17092,90.52008,88.90882,87.97301,89.91342,79.7508,88.70894,79.52007,80.80683,81.17554,78.22985,75.55426,73.45645,71.46134,70.75028,63.46029,68.41471,59.98253,59.35984,59.33156,56.22574,52.26105,56.72346,47.2685,57.51486,44.36094,48.2303,44.0388,41.51061,43.35475,37.48059,41.72186,34.85713,39.00366,32.76034,39.75968,30.05139,35.57527,30.74343,30.71062,30.09698,28.56392,25.68434,29.29648,27.11855,27.11386,28.23235,25.66734,28.91298,25.67878,29.50584,25.51527,25.02364,27.35649,24.14775,32.04623,20.35748,30.04293,22.05521,28.24828,23.29594,23.61716,24.0802,26.36067,18.49018,27.17895,19.3563,20.40996,19.02823,18.12082,23.06977,16.75641,19.9023,16.11237,19.21717,18.49727,17.49869,17.83069,16.94674,20.09229,13.35603,20.66053,15.23832,17.37059,17.58944,16.21286,21.48655,12.80204,22.31236,17.61289,20.40482,16.0175,21.74552,17.10124,22.84124,20.87357,17.6693,22.8234,19.99117,22.34737,22.1055,24.30243,23.02618,23.96839,25.68693,21.86935,24.34889,21.91047,27.64461,18.66377,27.84779,20.50543,22.45822,21.10369,23.36579,16.95603,26.46377,12.99869,20.45539,16.54297,17.55032,11.77054,15.69587,7.49045,13.77727,7.291851,9.222774,3.271774,8.870194,2.535825,3.469612,0.0892483,0.4889413,-4.161823,-2.011904,-6.144918,-5.125395,-8.050828,-8.705337,-8.697465,-10.94034,-14.22496,-12.43956,-15.94464,-17.01329,-13.67951,-22.5752,-16.09448,-23.54826,-17.3851,-26.17092,-18.38381,-25.0284,-24.09692,-22.70926,-28.52962,-26.34587,-28.30046,-27.80145,-30.19112,-22.3709,-30.35173,-27.12765,-22.28336,-28.63934,-19.9067,-28.76613,-21.35107,-25.42678,-20.6407,-23.12864,-19.0786,-19.6442,-20.23924,-18.85632,-14.01296,-18.91303,-12.4267,-14.69718,-10.39494,-10.12182,-12.26087,-7.187744,-11.44834,-4.048846,-7.509377,-3.878986,-4.291436,-4.795812,-1.564437,-4.386082,3.157824,-2.997229,-0.3984916,0.3832379,-1.631403,1.424072,-2.303558,0.6078085,-1.217128,-3.592201,0.3047815,-4.239473,1.451238,-6.871543,1.40262,-6.500784,-0.3520046,-5.670089,-4.788737,-4.442568,-3.59937,-7.508102,-7.259614,-7.009318,-8.888639,-8.25676,-6.60575,-9.697345,-10.94347,-7.458036,-11.76573,-9.862846,-13.60131,-9.697663,-18.05875,-9.638698,-20.00997,-11.22791,-20.42373,-14.55281,-18.65555,-17.31159,-19.75589,-18.20758,-19.33249,-21.92165,-17.8087,-20.92192,-23.49122,-18.37083,-22.73367,-17.46917,-21.88832,-20.21663,-20.20485,-20.13514,-17.46197,-20.24852,-19.34859,-17.97362,-20.95061,-14.21593,-20.72593,-17.3211,-13.00776,-18.31275,-15.41424,-18.01679,-10.20467,-21.15583,-5.108971,-21.61852,-16.15975,-14.14485,-22.7094,-13.68446,-19.59535,-19.03497,-13.88908,-18.175,-20.53772,-14.2345,-17.20896,-24.00457,-16.62304,-24.76302,-18.71051,-18.64276,-22.70724,-21.76352,-16.90359,-23.02283,-17.2338,-24.22909,-17.75137,-21.36627,-19.64255,-24.93618,-19.38012,-22.98718,-25.49472,-22.6882,-25.12237,-21.2641,-27.6771,-21.92406,-24.41611,-25.00864,-25.95163,-24.21571,-28.22982,-21.95165,-30.89788,-21.22656,-31.7061,-19.27678,-30.7392,-23.2691,-25.98888,-30.86943,-22.39849,-29.74433,-24.00434,-31.4435,-24.67559,-30.87073,-25.84759,-26.89161,-29.17962,-28.56649,-27.57072,-29.17566,-29.67384,-29.49214,-27.03885,-31.27662,-27.2385,-29.67901,-28.95681,-34.45094,-30.16718,-34.1797,-33.43581,-32.46448,-38.94911,-31.79245,-38.41159,-36.59147,-38.2037,-36.71364,-39.70162,-35.76836,-40.05801,-41.22748,-42.07792,-41.25858,-42.50814,-43.4371,-46.18545,-43.65295,-47.16853,-45.85972,-50.38553,-50.91809,-48.85265,-51.03802,-50.00252,-54.03235,-51.63047,-52.87727,-54.67779,-52.46827,-52.4793,-54.87347,-47.70158,-59.55269,-46.72619,-56.23202,-47.06604,-57.04807,-47.07364,-58.57487,-47.52523,-54.53261,-53.65708,-50.88594,-52.69983,-50.48753,-51.44341,-54.20395,-47.79891,-49.89836,-49.09254,-49.75062,-44.64473,-48.10526,-38.37232,-45.17474,-39.46243,-40.57247,-34.69943,-39.27849,-32.35175,-38.41851,-28.0854,-34.44489,-30.09591,-29.04038,-27.39199,-29.75147,-27.27708,-21.46138,-24.44029,-23.48367,-21.91673,-22.9036,-14.19875,-25.36761,-12.07278,-20.61162,-14.58431,-12.73113,-15.53213,-9.668884,-15.54263,-5.968898,-17.10358,-3.101548,-15.41229,-6.293866,-7.680262,-8.515861,-5.098538,-6.792929,-4.923304,-6.880429,-4.773358,-6.277399,-4.73485,-9.205795,-4.905414,-6.570769,-6.059327,-5.564411,-4.420638,-8.434292,-4.989662,-5.582312,-7.23676,-8.945543,-4.826285,-5.664839,-7.570255,-2.845296,-8.391634,-2.447463,-6.623963,-3.106706,-0.8346192,-5.537954,-1.930759,0.5188609,-4.406806,1.60917,-2.542725,2.709869,-0.2924014,2.172808,4.05106,4.875769,2.146457,7.742668,6.448184,6.399967,9.201255,8.698965,9.243546,13.34435,9.215632,16.87386,11.03302,16.96967,17.99285,14.81186,18.6991,17.61055,19.08717,17.7856,24.18665,19.59116,22.6247,19.66643,22.79993,20.02812,23.30933,20.34945,21.25721,21.92236,22.64117,22.86673,21.69843,22.46298,24.19149,20.93762,21.15996,20.27142,20.73881,21.02128,21.35785,18.01775,19.84758,17.69384,18.89997,17.36362,19.69148,14.54186,19.04198,15.97938,15.77459,12.60996,16.15302,12.85285,15.57379,10.71222,16.73881,9.841284,17.49552,9.567088,17.54658,10.34754,16.50665,12.81202,14.63075,16.09663,11.73057,18.57938,10.72535,18.19069,14.64505,16.02993,12.88172,17.46713,14.69387,17.76549,18.34311,17.34054,19.20051,18.14705,22.13474,16.12772,25.886,19.8202,25.60522,20.50385,28.06297,18.94737,28.01376,22.99189,28.08132,24.78854,28.96795,27.78138,27.79135,30.81849,25.52646,31.21641,25.1645,34.08222,25.50431,30.40104,26.83931,32.28887,24.0801,32.66505,23.46438,32.018,26.28819,28.19641,29.04741,28.34301,27.09088,27.53473,26.24012,25.67094,27.00429,25.54159,23.99455,24.41809,26.55568,22.86988,23.63794,21.6419,22.16915,19.14702,20.60163,23.39074,15.60766,21.51345,15.46245,20.44334,11.85794,15.33441,15.02327,15.00756,13.21437,12.6931,9.94873,14.79472,9.503804,9.853492,12.31208,5.047305,11.30352,6.095618,9.07359,4.733364,7.399411,7.31009,5.644755,5.488593,6.883698,2.94618,6.748712,5.516462,5.363845,3.569241,2.774776,0.857621,3.486881,2.064282,2.065163,2.686739,0.4359932,0.767994,4.850709,-0.9920831,2.520073,1.264849,2.918927,0.8993936,-2.972561,2.478558,-1.730912,-0.1979011,-4.106159,4.167721,-6.850813,-0.9303914,-2.822572,-2.445159,-2.058366,-3.055091,-2.400864,0.09841918,-4.581973,-2.742726,-5.046799,-3.695452,-2.33428,-3.411514,-3.499637,-5.661279,-2.738274,-6.417818,-4.326357,-7.39758,-4.950346,-7.611648,-4.442612,-6.187853,-8.043853,-8.563458,-7.136466,-12.04596,-6.174034,-12.10677,-13.39364,-6.97345,-19.36967,-8.07796,-17.39968,-12.31216,-18.8357,-10.60469,-17.03645,-14.43532,-14.44408,-16.96073,-12.21908,-15.14237,-14.17191,-16.62947,-13.52574,-16.64471,-13.22594,-14.31767,-17.69024,-13.15375,-13.72608,-19.08473,-11.31716,-20.26889,-13.1254,-17.12194,-14.57337,-14.64823,-20.151,-14.58282,-17.39537,-12.96826,-19.34604,-14.41604,-15.43801,-17.80249,-14.67082,-18.9761,-15.06938,-17.36005,-16.80901,-14.64028,-13.38023,-18.02807,-10.16784,-18.13916,-10.13825,-16.16897,-11.27055,-16.00986,-10.90226,-15.65377,-10.80227,-17.36104,-10.98088,-14.92824,-13.99535,-13.6197,-16.55476,-12.4765,-14.92155,-12.20087,-14.70086,-12.4318,-15.18727,-12.41215,-13.31672,-14.26958,-13.02104,-12.84459,-13.28785,-15.22721,-11.42831,-9.149745,-15.1206,-10.60004,-8.523093,-9.391328,-12.07194,-11.78398,-5.879145,-9.617528,-6.763491,-7.705258,-6.383017,-5.707108,-5.045727,-1.530596,-3.257126,-2.443834,1.620064,0.6625147,0.2479119,5.721679,-0.8339556,7.40397,1.533637,10.68739,2.205663,11.477,1.343219,11.48548,1.268453,14.07598,2.733665,11.32877,7.06347,7.069235,9.382931,8.695629,5.621239,13.98546,6.61706,12.79053,7.920406,10.78165,7.967632,11.87016,12.16734,5.435819,13.98161,5.032628,14.09487,3.774652,11.80956,3.130786,11.65846,2.562256,7.188429,4.925605,0.9501087,6.63923,-0.4972176,5.898958,-2.691212,6.990394,-5.384309,7.380371,-5.617491,4.756428,-4.56803,1.946255,-3.953028,-1.938536,-0.8395861,-5.345085,-1.330678,-3.588901,-0.04313377,-4.594032,-0.4255592,-1.750792,-2.2299,0.2293201,-3.552125,-3.017457,0.6754266,-4.06355,1.18262,-1.863678,-0.8990906,-0.5107267,1.794384,-1.098709,4.052274,-2.763396,3.035239,-0.2154164,2.29512,1.257416,1.029584,5.663742,-0.2937018,3.204661,1.468002,1.109235,1.228187,4.24948,2.183792,2.899411,2.854515,0.2775253,3.980114,1.968877,-1.380334,5.650505,-0.4146924,3.766038,0.02722817,0.2414814,3.3604,-3.496925,5.578113,-0.9454145,-0.6884333,3.319532,-1.908135,4.605764,-2.305167,4.293685,0.2305876,4.341785,0.8311398,7.574686,-1.835402,10.52032,-2.384634,9.854184,0.3308158,9.312377,0.8888059,8.60621,4.276812,11.49708,0.3127065,12.09356,1.086277,12.34141,9.912342,5.535991,11.13809,7.184579,9.046686,10.55329,3.657809,9.576242,6.206916,7.84304,6.73339,4.357115,8.96958,1.077545,12.41507,-0.9870984,12.33994,-5.299534,11.87917,-4.883445,9.087097,-2.50649,3.103541,-0.3710456,-0.2511145,2.638553,-4.800656,2.802752,-6.655165,2.773809,-6.609289,2.294868,-8.446628,-0.2699635,-6.355756,-1.26716,-4.79551,-6.849125,-4.576716,-6.1523,-3.827175,-10.02883,-3.616457,-9.392507,-7.341221,-4.445725,-10.94154,-6.303049,-8.613822,-7.250811,-7.326856,-6.267751,-9.197131,-5.101719,-6.183093,-6.830752,-4.084911,-10.13758,-4.542021,-5.960105,-3.929121,-6.354679,-5.359992,-2.29031,-9.883833,1.030084,-6.863866,-3.018711,-3.657089,0.6272892,-1.964027,0.1365536,1.248695,-2.37247,5.276584,-0.04971555,4.994048,3.261966,1.474925,5.590897,1.018456,4.08665,3.433621,-0.9208601,8.390273,-2.845194,3.687946,3.612144,-2.856858,6.787235,-1.414985,7.271554,-1.976676,2.608493,-0.5728641,3.602521,0.6076886,2.469656,-1.86237,6.110928,-1.006678,5.451709,-0.6645328,1.446643,4.848643,0.8479585,6.319284,0.7043485,7.121175,0.4030337,8.51301,-0.9958831,6.66527,1.008885,5.79034,2.26275,4.546947,3.890314,5.726393,3.695757,8.542902,2.211731,10.6733,0.2089785,12.35217,0.5473076,13.82979,-1.467625,12.08742,1.612797,10.6378,3.592386,7.546064,4.802933,7.59384,4.874688,8.235286,6.053326,6.774611,6.149204,5.554639,9.104114,1.310036,11.02099,3.419135,8.456558,7.128763,5.128953,6.73996,5.911377,10.00832,3.70338,15.1469,-0.1007197,13.57659,4.948948,10.101,3.087859,11.2463,3.140064,10.85136,7.113363,7.217129,5.047024,8.288244,3.866628,6.932625,0.582303,6.044246,2.302812,3.245585,3.597621,3.3905,5.253374,0.6981592,9.23468,-0.1783948,5.397727,6.588244,4.223768,4.71891,5.318213,7.540709,0.1632855,8.343173,0.2959564,6.839229,2.58793,0.2866493,4.590521,-2.018141,2.401387,0.3297402,-2.319777,4.968554,-7.46574,5.916567,-4.317887,-2.386401,-0.3374748,-5.723692,-1.616541,-8.522349,-3.099204,-9.077355,-8.402287,-6.818717,-9.981004,-8.324402,-10.18029,-12.56529,-10.85511,-12.29257,-14.10556,-12.78225,-15.72071,-11.0333,-20.47063,-11.15126,-22.52243,-9.27921,-23.72365,-13.22188,-18.20219,-15.67301,-17.32643,-14.04869,-14.38358,-17.78249,-16.03708,-16.4748,-16.87949,-13.08513,-20.34369,-12.86302,-20.40981,-12.54833,-19.73441,-12.30387,-20.52173,-14.16808,-17.58888,-15.56033,-18.89691,-17.44735,-18.56796,-16.52074,-18.20117,-16.81908,-19.22876,-16.48379,-13.88279,-19.63252,-13.14971,-19.12049,-13.39709,-13.45778,-15.84808,-12.19425,-12.76692,-9.321769,-12.6377,-4.545201,-15.434,-1.339758,-13.57416,-0.9751699,-11.5007,0.7557633,-10.50123,0.860593,-5.745148,1.300139,-4.649981,3.219838,-3.263487,3.315265,3.14465,5.253444,4.125569,6.3053,8.527502,9.704493,9.627589,9.956319,11.76183,11.41468,13.61477,16.07454,11.42083,16.7059,15.46082,17.36064,14.00505,17.29635,13.50761,18.1754,15.71957,16.72881,16.61047,15.80605,16.36754,21.80336,13.65598,21.22479,12.07321,19.94226,13.54036,17.56222,13.01132,11.87829,12.90061,8.819181,12.17327,5.071785,8.628318,10.32841,3.488958,6.729489,1.853761,1.651192,2.297885,2.933016,-3.64918,3.707378,-4.778532,0.1503527,-5.026502,-0.7193032,-6.887559,-3.211026,-7.044426,-0.9929323,-7.763121,-3.924071,-7.56942,-5.305292,-7.235955,-9.453247,-4.085306,-11.41892,-3.811242,-8.4307,-3.648756,-9.836805,-2.350714,-6.142794,-4.176725,-4.957326,-8.595688,0.2144266,-7.688979,0.8216638,-7.126413,3.187861,-5.893866,4.277991,-2.020253,4.157261,-3.054433,5.819997,-1.10059,2.875158,3.240587,4.655732,3.035493,5.455423,4.24218,6.145026,6.577381,3.285318,9.893421,4.770984,11.17542,4.274151,8.144507,7.458962,8.872616,8.107389,8.274247,10.00706,10.88042,11.32234,9.544234,10.74626,10.53785,8.606508,15.34316,5.495268,14.75371,4.49492,13.91712,7.267737,11.62302,7.611887,9.577701,8.591079,9.866286,8.699404,9.382108,4.73579,8.638548,5.86586,6.730774,5.226228,5.673916,5.852957,5.426913,6.750063,2.113613,9.838457,-0.5572506,12.63815,-3.160697,8.292738,-0.435163,2.751453,3.817821,0.837828,-0.5063692,-0.7104698,-0.2907421,0.5358559,0.7406969,-0.5338455,-1.454623,1.63156,-4.085486,2.895859,-3.133416,-1.322345,-1.309875,-0.5604756,-4.651623,3.575436,-9.978434,2.185203,-6.537226,-0.784782,-6.288989,-2.588972,-4.625588,-3.51055,-4.342434,-5.868179,-6.61224,-6.907932,-5.506602,-5.313187,-7.756818,-4.745595,-8.999781,-0.6138539,-10.35161,-2.267791,-8.942332,-5.747669,-7.404884,-3.957599,-7.945768,-3.169557,-10.65336,-2.763677,-9.766291,-1.711382,-12.51931,-3.929827,-12.29348,-3.877269,-12.17203,-3.541097,-12.92053,-6.019042,-8.566747,-5.778387,-11.69865,-6.57498,-9.946923,-7.459556,-8.090375,-9.080347,-5.485058,-14.32243,0.2836148,-14.40747,-3.274934,-8.885976,-6.633232,-5.208388,-8.352492,-2.24268,-8.701864,-1.527127,-8.13371,0.3052508,-6.511222,-2.44308,-1.070432,-4.07639,0.488388,-4.800735,2.878852,-3.826421,3.48705,-0.6386892,-0.03370696,2.48607,-1.320946,5.233204,-0.7174376,4.028925,0.5223648,4.90126,3.756224,6.88324,1.232195,11.20413,1.691747,10.98173,2.967717,6.441112,4.086818,4.123001,5.320239,3.821758,4.777674,3.03161,4.711573,4.376493,2.780301,5.864046,1.330099,5.585782,3.918261,5.265563,2.194103,5.162855,-0.2293232,6.587091,2.598541,3.066478,0.3592156,5.9819,-2.827163,8.146409,-5.69314,6.927519,-2.72544,0.9312542,1.361241,-0.3377079,0.2299803,-1.02718,-1.046272,-0.9574206,-0.1851692,0.7330243,-1.888697,2.48871,-0.3552906,6.22823,-1.331223,8.155617,-1.80337,10.35766,-2.185498,10.47268,0.9854692,9.325011,2.858601,9.440705,2.390382,9.222614,2.158952,10.38526,1.252675,6.041383,6.635459,5.189142,5.773407,7.45401,3.379774,8.802849,5.7,8.497497,5.386796,7.77807,6.760049,8.576787,7.335813,9.205814,5.860506,8.390199,9.958269,7.464434,8.068896,9.720294,5.127919,10.13713,5.898424,13.3832,5.394074,11.57585,4.361676,14.65484,0.6043401,13.48099,0.4433673,12.55855,2.525102,9.876881,5.027844,4.702327,6.112626,3.79987,7.216095,5.500548,0.9079526,9.472166,0.4459667,10.00542,1.432436,9.417717,1.548541,11.1093,1.102132,9.77784,1.813008,6.760522,1.511198,6.25663,5.713875,0.6231867,10.76085,0.1597644,10.03078,5.630916,4.480535,10.20282,4.212374,10.05146,6.887542,9.202618,9.265097,8.499236,11.96565,8.180744,10.69326,12.87758,9.947927,10.07659,9.345014,13.25781,2.874295,17.23195,2.979748,12.35152,4.936242,7.377839,7.225892,6.391702,6.568098,2.69471,7.539095,1.465371,7.401941,0.8092976,2.014221,2.78764,1.455887,3.524491,-2.016572,1.062512,-3.240379,-0.9788301,-2.374182,-5.294985,-6.545554,-5.650227,-6.714525,-9.021322,-11.31695,-11.57506,-12.22731,-13.58456,-12.87518,-17.19937,-13.49335,-18.67969,-16.85078,-17.55049,-22.38903,-20.50292,-25.73325,-21.911,-25.28535,-26.06047,-28.78745,-27.00135,-30.43032,-26.25706,-31.22141,-27.16663,-32.30443,-26.48505,-27.13431,-32.45088,-22.48495,-33.31058,-21.96993,-30.27749,-23.59259,-31.06868,-25.44961,-27.11796,-25.97355,-23.00093,-27.18195,-21.55825,-25.65391,-21.57967,-21.21774,-23.88083,-20.10374,-18.36993,-17.56753,-19.12557,-15.98758,-13.36907,-14.20383,-9.015738,-10.61919,-10.29523,-8.385957,-4.094317,-8.562054,-3.100335,-5.020332,-7.03543,-0.1704285,-3.942668,0.8222319,-3.6296,3.686222,-2.250945,6.065224,3.317663,1.837855,7.255821,2.866895,7.468817,7.342978,2.539325,10.73411,4.301401,12.90559,6.868016,10.34377,9.274548,8.492263,10.47709,8.926574,10.20535,5.368255,12.14093,7.022565,6.914589,9.793267,2.98452,10.02849,5.152817,7.600181,2.567629,6.799278,0.1792035,8.275266,-1.744424,6.234539,-2.732243,5.910617,-1.273778,3.762737,-2.537906,0.301043,1.190551,-1.352511,1.665689,-1.907472,3.495942,-1.859811,2.162802,-0.5133922,4.294941,-1.943192,4.942632,0.4676843,1.066076,1.999552,0.6263583,-2.180945,2.150403,-2.186375,1.927864,-3.063586,1.523936,-4.853047,3.200758,-7.298118,4.835353,-4.99615,5.72066,-4.276166,6.457848,-4.800186,9.287126,-1.907664,3.20207,4.508977,-3.704184,5.170408,-0.5137888,1.000717,0.3863198,-0.1220113,2.159589,1.720144,1.663173,3.104169,-2.355366,4.47924,0.1983157,3.867827,-2.163429,4.638078,0.2364247,3.048867,3.03643,2.522183,2.755223,3.779389,3.297239,2.268798,3.093148,2.222182,3.008395,1.391971,2.18959,2.621485,0.7760214,3.835229,-2.188586,5.9121,-1.539376,4.251117,-1.977893,4.425869,-2.607592,0.631735,-0.8229685,-4.408133,1.441263,-4.22757,0.004041403,-2.772374,-2.390954,-1.162414,-2.823156,-1.206409,-2.385368,-2.774791,-2.195453,-0.2250956,-3.826863,-2.056868,-1.447133,-3.11695,-2.927232,1.750883,-7.447892,1.778183,-5.872273,2.005258,-8.166944,3.759552,-9.656741,3.129941,-7.084577,0.2871091,-4.657755,-2.136339,-1.813497,-3.028674,-3.872308,0.8208587,-3.290144,-1.85331,0.4764438,-4.446423,5.171098,-7.504386,6.237835,-5.611644,6.21044,-3.410672,2.825645,-4.769314,5.25793,-2.766232,5.257821,-2.611517,5.904473,2.217897,3.435667,3.552667,2.877047,4.695108,6.493456,4.996669,8.305409,4.824649,9.720889,2.224261,14.51699,-0.8232432,12.84521,2.864154,9.383792,6.694059,7.243038,6.959093,7.763032,4.960754,11.83952,3.144556,11.96351,5.308355,12.57135,4.669779,9.668186,7.576819,6.741631,7.137999,7.54776,8.390776,8.11945,5.650405,11.69422,6.02687,12.47732,4.833398,12.59734,8.059976,11.50322,8.681613,12.42694,5.831339,14.49034,8.190224,8.974031,8.780546,6.778217,10.0526,8.492563,7.489774,5.731333,8.608399,4.090421,10.99835,2.682738,7.950293,6.841876,1.294659,9.45823,1.191524,4.833617,4.150293,4.531997,5.997531,2.348827,6.736914,4.878613,5.133176,5.835521,6.891614,5.438647,5.934544,9.962326,7.537088,7.46995,11.45742,8.742728,11.07365,10.74982,12.79068,7.632918,14.84565,10.2274,11.7378,14.42442,8.138511,18.00463,5.423656,16.37813,13.40134,9.771592,12.49033,12.49028,16.39414,13.56169,10.60923,17.04427,12.82654,16.83783,11.05303,13.36285,15.7496,14.38527,17.82979,14.66859,12.19244,16.03603,14.87742,14.60894,17.58434,11.92379,18.68626,13.58097,19.382,14.63034,14.88804,15.67919,12.29854,17.82415,11.72035,13.56695,11.61948,12.68849,11.1423,6.809394,9.484608,3.13578,8.732578,1.553442,7.325539,1.636809,-0.5701796,4.622891,-3.124511,2.301106,-5.087281,-1.444226,-5.374253,-3.256031,-6.059153,-8.567507,-7.096165,-6.078843,-13.62174,-5.56523,-16.45005,-8.52526,-17.32539,-9.078232,-16.49345,-11.20288,-20.05507,-9.307036,-20.52279,-11.74185,-18.9694,-13.5965,-15.79651,-13.9257,-16.64588,-13.31404,-15.23517,-17.70464,-13.17557,-15.29991,