ConstAcc,0.5,0.41356,40.75775,39.12509,37.6847,36.42376,35.32992,34.39132,33.59654,32.93463,32.39508,31.96784,31.64326,31.41213,31.26567,31.19547,31.19356,31.25232,31.36456,31.52343,31.72244,31.9555,32.21683,32.50102,32.80297,33.11793,33.44145,33.7694,34.09794,34.42355,34.74297,35.05324,35.35163,35.63573,35.90332,36.15249,36.38151,36.58892,36.77345,36.93407,37.06995,37.18044,37.26508,37.32362,37.35596,37.36215,37.34243,37.29717,37.22688,37.1322,37.01391,36.87289,36.71013,36.52673,36.32387,36.10282,35.86492,35.61158,35.52031,36.31611,35.87595,36.25406,34.24663,34.00448,33.04826,33.21648,33.141,32.75032,31.958,31.90229,32.0196,31.83585,31.57244,30.97548,30.2821,30.06296,30.05284,29.76809,29.56043,29.28265,29.13563,28.99699,28.63624,28.06706,27.67502,27.53829,27.46956,27.37402,27.54766,27.7157,27.99655,28.35559,28.53466,28.70557,28.70908,28.77218,29.06413,29.2552,29.46135,29.68038,29.7635,29.78153,29.91847,29.98071,30.15613,30.27469,30.42849,30.52254,30.69171,31.08031,31.41135,31.60451,31.78274,32.11798,32.37103,32.63086,32.86439,33.10096,33.52566,33.95487,34.41769,34.63361,34.90612,35.13561,35.28259,35.48894,35.42102,35.39217,35.41285,35.48678,35.56794,35.4431,35.34366,35.34724,35.44271,35.29245,34.87619,34.39997,34.00598,33.57578,33.05858,32.40815,31.57067,30.98975,30.59633,30.18509,29.65761,29.25565,28.78667,28.57377,28.25916,28.04745,27.74049,27.6628,27.64164,27.64243,27.57057,27.36223,27.16401,26.85189,26.76775,26.70947,26.61303,26.69309,27.02772,27.26587,27.25216,27.38703,27.46947,27.30308,26.99124,26.67598,26.19491,25.9134,25.78285,25.58271,25.39217,25.14098,24.98488,24.98674,25.06349,25.21766,25.2668,25.20457,25.30179,25.39635,24.82659,24.20942,23.43384,22.76286,22.07296,21.00449,20.17002,19.27402,18.79041,18.482,18.11462,17.68616,17.35666,16.96476,16.53105,16.22463,15.98081,15.55598,15.40052,15.35646,15.33442,14.99809,14.70842,14.56116,14.40067,14.51801,14.55434,14.46319,14.69095,15.08317,15.68318,16.29946,16.7418,17.43143,17.98815,18.69767,19.47419,20.19921,21.03298,22.08302,23.23218,23.96627,24.73402,25.64428,26.49309,27.02707,27.78547,28.22607,29.07678,29.93418,30.56028,31.31831,32.03918,32.93734,33.83015,34.79613,35.50074,36.15646,36.7067,37.0162,37.55903,37.87993,37.96073,37.44608,36.85499,35.70429,34.60882,33.61807,33.24466,33.38784,34.02237,35.01006,36.10091,37.34537,38.76079,40.0174,41.31013,42.33795,43.21938,44.03552,45.00772,45.57258,45.95289,46.15308,46.48806,46.54723,46.1158,45.52139,44.75694,44.32333,43.74422,43.08738,41.89231,40.50658,39.6008,38.75854,37.46627,36.33922,35.0176,33.50949,31.74176,29.96798,28.26483,26.64576,25.07886,23.09914,20.71186,18.1204,15.35599,12.59621,9.958594,7.717347,5.3158,2.909594,0.3388945,-2.428561,-5.20602,-8.451139,-11.7347,-14.97986,-17.65273,-20.50071,-22.91903,-25.47451,-27.87262,-30.35204,-33.02666,-35.71417,-38.01915,-40.16313,-42.0172,-43.96783,-45.70671,-47.45208,-48.81401,-50.05836,-50.88739,-51.49148,-51.8308,-51.82973,-51.81129,-51.72689,-51.86048,-51.85062,-51.87247,-51.48704,-51.19699,-50.88479,-50.11659,-49.38805,-48.29193,-47.56632,-46.54149,-45.60956,-44.46012,-43.06341,-41.53341,-40.38075,-38.88042,-37.65747,-36.14944,-34.50683,-33.29057,-31.98041,-30.79844,-29.56044,-29.03343,-28.87726,-29.16245,-29.4199,-29.91422,-31.26208,-32.79513,-34.48802,-35.67099,-36.76716,-37.05406,-37.23177,-36.80734,-36.19983,-35.68129,-34.93587,-34.5486,-34.4296,-34.43845,-34.28821,-33.9966,-33.99086,-34.2199,-34.46741,-34.70402,-35.41027,-36.38957,-37.27603,-37.87481,-38.32016,-38.89807,-38.94847,-39.06252,-39.0868,-39.52905,-39.80102,-40.54635,-40.95842,-41.0892,-40.92258,-40.96743,-40.65416,-40.80401,-40.8078,-40.61869,-39.81621,-39.06217,-38.70368,-38.34128,-37.7866,-37.03139,-36.31805,-35.50864,-34.80044,-34.34188,-34.27208,-34.46291,-34.75699,-35.10406,-35.11193,-34.78655,-34.55113,-34.69587,-34.44461,-34.00091,-33.98799,-33.7851,-34.52624,-35.2603,-36.31144,-37.45831,-38.47506,-40.00395,-41.4766,-42.49759,-43.5375,-44.36111,-45.15043,-45.08563,-44.61238,-43.27191,-41.92802,-40.44812,-38.97719,-37.98835,-36.81852,-36.27302,-35.8414,-35.46824,-34.79931,-34.03118,-33.06179,-32.44868,-32.29122,-32.15128,-31.28825,-30.57122,-30.57179,-30.03487,-29.64347,-29.27273,-28.48444,-27.58926,-26.61829,-25.70199,-24.98696,-24.39618,-23.97186,-23.60039,-23.71317,-23.7683,-23.8864,-23.79547,-24.17868,-24.14617,-23.97934,-23.739,-23.41961,-24.14411,-25.19384,-26.39505,-27.3249,-28.12621,-28.60501,-29.33387,-29.82232,-30.60664,-31.6497,-32.99894,-33.87022,-34.75858,-35.37026,-36.23291,-36.973,-38.33155,-39.41463,-40.31653,-41.11164,-42.18035,-43.36732,-44.21702,-44.53163,-45.56996,-46.90414,-47.9761,-48.70088,-49.55422,-49.80286,-50.34886,-50.20147,-50.10893,-49.89356,-50.13959,-49.52871,-49.4629,-48.83509,-48.32069,-47.8641,-47.46701,-47.30969,-46.8798,-45.85923,-45.07414,-44.64496,-43.84862,-42.43929,-40.27605,-37.98301,-35.98494,-34.18259,-32.76678,-31.56482,-30.61758,-29.17101,-27.935,-26.83083,-25.86638,-25.46608,-25.57708,-25.9838,-26.40953,-26.47431,-26.43163,-26.01604,-25.33448,-24.52807,-23.31607,-21.89658,-20.15109,-18.26946,-15.88393,-13.12416,-10.91018,-9.456467,-8.809345,-8.247442,-7.742488,-7.504022,-7.50869,-7.50925,-7.194638,-7.345161,-7.578285,-7.403338,-7.454352,-7.192158,-7.818711,-8.378701,-8.079632,-8.124464,-7.955932,-7.234311,-6.664008,-6.397751,-6.452874,-6.260479,-5.768768,-5.444662,-4.937211,-4.939199,-4.548803,-4.368564,-4.137553,-3.949533,-3.465881,-3.630367,-4.139182,-4.596307,-5.768245,-6.510768,-7.085998,-6.913104,-6.821923,-7.088809,-7.917312,-8.538609,-9.001119,-9.055268,-9.045652,-8.681419,-8.448214,-8.281007,-8.318518,-8.570544,-9.085537,-9.273462,-9.180193,-9.072866,-9.00185,-9.024036,-8.885444,-8.809207,-8.747462,-8.498712,-8.204609,-8.058502,-7.98914,-7.505711,-7.053925,-6.844153,-6.969963,-7.187738,-7.281484,-7.193054,-7.914885,-8.180807,-8.601556,-9.073775,-9.537128,-9.83787,-10.04176,-9.987675,-10.02811,-10.01273,-10.10915,-10.02792,-9.806989,-9.819794,-10.03546,-10.57405,-10.818,-10.89188,-10.78356,-10.25048,-10.56366,-10.7726,-10.46971,-10.81805,-11.14141,-11.66101,-12.19444,-12.21934,-11.68497,-11.26433,-11.18217,-11.34442,-11.4973,-11.12228,-10.57077,-9.744007,-9.322337,-9.39973,-9.965982,-10.91445,-11.97427,-13.12431,-14.14346,-15.36137,-16.23149,-17.23285,-18.29752,-19.59731,-20.26761,-21.18553,-22.56558,-23.69804,-25.00521,-26.33452,-27.4857,-29.03661,-30.42819,-31.4887,-32.12399,-33.38363,-34.4197,-35.05444,-36.09666,-36.71526,-36.76137,-37.39854,-38.19684,-39.33365,-39.83181,-40.29066,-40.59534,-40.53261,-41.42554,-42.32796,-43.86818,-44.30452,-45.85997,-46.07241,-46.90684,-48.17665,-48.68888,-49.32271,-50.12771,-49.47839,-49.29638,-49.80855,-50.03564,-50.19779,-51.53984,-52.28838,-51.66086,-52.75241,-54.81494,-55.51854,-56.34386,-56.17635,-56.37388,-56.93086,-56.35197,-57.30125,-57.37844,-58.07424,-58.71345,-59.03676,-59.75217,-60.58227,-61.74753,-62.90925,-64.12077,-65.55866,-67.25495,-69.62643,-70.96801,-72.42949,-73.58493,-74.51177,-75.41251,-76.29713,-77.1468,-77.77115,-79.17736,-79.31625,-80.74071,-81.7025,-82.8413,-84.87834,-86.12535,-86.69476,-87.89808,-87.64488,-87.38337,-87.97632,-88.60199,-89.02464,-89.13275,-89.07352,-89.20126,-88.79157,-88.00537,-88.07831,-86.85684,-86.01964,-84.99204,-83.48919,-82.2034,-80.68229,-79.36391,-77.5432,-75.97824,-74.71448,-73.18416,-71.83428,-70.77357,-69.36424,-67.98225,-66.51971,-64.69582,-63.16409,-61.84783,-61.25519,-59.92167,-58.0442,-57.2778,-56.5026,-56.34144,-56.34146,-55.74207,-54.88422,-54.04642,-53.44888,-52.24548,-50.92028,-49.89366,-49.14266,-48.4939,-48.63717,-48.56226,-48.65988,-48.16815,-47.71302,-47.09112,-47.01688,-47.91914,-48.1052,-48.41546,-47.91641,-49.04174,-48.47843,-48.9176,-48.33727,-46.86368,-46.81655,-46.46734,-45.87377,-45.62176,-45.42108,-44.74671,-44.39542,-44.63862,-43.80525,-42.70006,-43.26239,-43.14449,-40.5134,-39.51833,-37.6185,-36.25507,-34.93279,-33.29803,-32.07145,-28.6495,-26.28235,-24.78835,-23.23514,-21.97969,-20.60717,-18.99691,-16.78318,-14.69726,-12.97434,-10.66108,-8.574894,-6.200752,-4.155591,-1.981844,0.5382101,3.356267,5.079108,6.841926,9.449357,10.79971,12.80219,12.8278,13.66296,14.51905,15.20184,16.74646,17.30064,17.2317,18.62341,18.81686,18.5385,18.83136,19.15295,18.48915,18.56944,18.2775,18.5215,18.63128,18.96491,19.6295,19.54669,19.3387,18.68095,18.58847,19.26164,19.45265,19.5601,18.74545,18.12942,18.07221,17.79993,17.69658,18.28475,18.57466,19.39393,19.49513,18.78523,18.83352,19.1126,20.87117,21.37585,20.99762,20.25555,20.02234,20.42945,21.8527,22.61895,23.1544,23.78877,24.39733,24.81777,24.95446,25.27363,25.85875,25.41541,25.58499,26.29764,26.62941,26.91822,26.78735,27.04657,26.99393,26.93957,26.47375,26.12494,26.51531,27.49586,27.43711,27.51183,27.7139,27.2931,27.56568,27.20117,27.24422,27.08352,27.46525,27.16756,25.9093,25.45571,25.24183,24.66777,24.54582,23.64614,22.044,21.61589,22.16491,21.96785,21.34193,21.59196,21.0359,19.56371,17.94041,17.56339,17.26541,17.83846,19.17588,19.90261,19.79973,18.8706,18.71855,18.09965,18.44554,19.04022,19.2781,19.64723,20.64144,21.02662,21.57045,23.05862,24.03671,25.55801,25.28977,24.27772,24.67415,25.97067,27.46483,27.5159,27.47283,28.57371,30.17222,32.16977,31.89945,31.55682,31.47012,33.71365,35.19691,35.71429,35.17367,34.83183,35.88295,37.48188,36.81465,35.83341,36.50099,37.75472,38.61837,38.60559,36.92259,35.75855,36.93936,37.62797,37.40082,36.22382,35.00295,35.40927,35.34832,35.35807,34.76007,33.86071,34.00963,33.60659,33.1091,31.75003,31.75241,31.97264,33.44411,33.34886,31.88248,31.16518,31.54894,33.01056,33.343,32.43864,30.58264,29.30653,30.29752,30.1198,28.82678,27.65113,27.68209,28.76634,28.7185,26.71036,25.81753,26.68487,28.52375,29.05362,28.26271,28.11919,28.88343,29.7591,29.89704,28.89174,28.35041,28.53823,30.44078,30.34067,29.63755,28.67205,27.19869,28.18849,28.84293,27.39572,27.10894,26.83169,28.9032,29.19521,27.24312,25.21859,23.49823,24.06942,24.24427,24.2819,23.55169,23.48273,23.04407,22.65993,20.91403,19.22546,19.28313,20.06666,20.64718,20.78732,20.30137,20.59177,21.9341,22.78074,23.30645,22.75044,21.13199,20.39712,19.50514,19.9538,19.42545,19.14914,18.32574,17.79725,17.52759,17.35436,16.24982,15.61614,14.27557,13.61121,13.03637,12.59377,12.27347,12.52682,12.12623,11.35062,13.16194,13.21961,14.37961,14.80251,15.04165,15.64554,16.44069,17.02553,17.52014,18.41768,19.09262,19.14682,18.84973,19.24278,20.26921,21.97204,23.31329,25.96412,27.16296,28.81536,30.03399,31.69942,34.69395,37.83366,40.26785,42.46212,45.08012,46.9516,48.65808,51.0409,52.9246,55.10804,56.65116,57.72391,58.92593,59.95163,61.80366,63.49824,65.31172,65.42489,66.10244,66.718,66.99224,66.69923,68.06176,68.43146,69.15868,68.52768,67.9662,67.57289,65.74427,63.479,62.18965,61.28643,59.38301,58.15238,56.72233,54.36776,51.03618,48.02181,45.23726,44.13733,42.07503,39.65392,36.61039,32.61439,30.62454,27.56194,24.74714,22.42136,20.46815,18.5783,15.94672,14.05065,10.8929,7.976947,4.529238,3.328072,2.095079,1.356181,0.1197301,-0.4077937,-0.5540168,-0.4149886,-1.027698,-1.993532,-2.274137,-1.791138,-0.03316742,-0.2279476,-1.073666,-0.3882624,2.103394,2.919536,3.170811,3.505559,4.845075,5.905141,7.044581,8.129022,8.751844,9.6227,11.09301,12.44099,14.49374,15.93096,18.39195,19.90462,21.88361,23.35684,25.94306,26.23253,28.83168,29.72897,31.47191,32.50639,33.04908,33.90435,34.58254,35.03692,34.36509,34.22104,34.05123,36.16481,37.31559,38.29622,38.61809,39.80277,39.8757,41.01803,40.98659,42.22977,42.7543,42.9297,43.12119,43.5057,43.39471,43.44758,44.48184,44.15559,44.78417,44.82773,45.22681,44.84835,44.88981,44.22608,43.87701,43.67067,43.44501,43.2052,43.46419,42.15793,41.53306,40.31447,40.59796,40.76206,40.92298,38.95136,38.00354,36.7945,34.65122,34.48355,34.14466,33.34525,31.51774,31.26737,30.15437,28.91578,27.28455,27.28109,26.75502,26.43563,26.46553,26.75959,26.3748,26.12271,26.16739,26.5727,27.58275,27.59803,27.28964,26.22709,25.39296,25.49155,25.80684,25.47209,25.09511,26.2699,26.27821,26.68028,27.37081,27.88221,27.74542,28.66707,29.43503,29.76607,30.87035,31.60337,33.16279,33.37436,32.93014,33.95143,35.1055,34.8462,36.00319,35.47828,36.8582,37.71486,38.88255,39.22686,38.53502,38.70108,40.3097,41.34444,41.87816,42.1926,42.71294,41.92766,42.45691,41.40114,41.77822,41.74806,42.07496,41.58645,42.14768,40.76375,40.89972,39.89577,38.2775,37.57529,36.21832,36.82565,35.35902,34.13097,33.13314,33.469,33.66263,32.99984,30.90549,31.23753,30.06137,28.98077,27.47523,27.08417,27.62093,26.83964,26.23665,25.89872,26.22375,26.02837,27.27596,25.48033,24.40485,22.75572,23.27942,22.58668,21.68511,20.8434,20.366,19.95055,18.358,16.62481,16.51318,15.75374,16.1749,15.42482,14.71929,12.74629,11.76745,10.3908,9.102235,8.450718,6.548864,5.891916,5.785631,5.515511,4.977428,3.246503,2.726544,2.588142,2.387202,2.649676,2.013007,1.793699,1.268351,0.5612311,0.09871685,0.2998809,0.2697051,0.4565217,0.2284641,0.4299627,0.7768486,0.7202594,0.8877252,1.133634,1.347041,1.775321,1.692647,2.36779,3.819541,4.272135,4.401491,5.024315,5.114205,5.510145,6.394023,7.592409,8.747882,8.673843,8.864068,9.516916,9.433018,10.33996,11.78838,12.12877,13.82488,14.92281,14.76057,15.21187,16.03143,17.97059,18.73276,17.79088,17.91348,18.84044,18.97715,18.20083,18.90641,18.66967,19.34785,19.7232,19.21757,18.20683,17.53416,15.52568,15.75884,13.47919,11.41754,10.27937,9.254435,8.569815,4.42474,3.079915,2.793048,0.5987633,-2.245518,-6.200456,-9.138859,-11.47307,-15.41509,-15.30298,-18.31472,-22.08329,-24.87536,-28.10934,-30.58595,-32.94675,-35.87411,-39.20999,-42.5679,-46.25497,-49.42212,-52.76709,-56.15148,-59.50196,-62.52236,-65.99812,-68.50961,-71.81228,-75.08679,-77.47177,-79.7804,-83.71455,-87.1614,-89.79346,-91.65786,-94.7413,-97.43237,-100.6361,-102.1475,-102.7668,-104.7259,-105.7036,-107.1315,-107.5003,-108.3031,-110.1205,-110.8827,-111.4009,-111.0567,-111.3832,-111.7588,-111.5179,-111.703,-112.4758,-112.7968,-113.7258,-113.7995,-113.8954,-114.0816,-113.9277,-114.7957,-115.1162,-114.7073,-114.4108,-114.5434,-113.6888,-113.8248,-113.2836,-111.2053,-110.7539,-110.6521,-109.7819,-109.198,-107.9172,-105.59,-102.9006,-102.4261,-101.6728,-99.03309,-97.58576,-95.56935,-92.84611,-89.77373,-88.066,-85.07679,-82.33338,-80.31719,-77.78588,-74.93683,-71.21322,-68.70982,-65.58754,-61.58838,-58.09942,-55.16767,-51.66297,-47.91993,-45.39657,-42.01662,-38.18926,-34.74214,-31.79852,-28.30659,-24.55797,-20.96276,-18.62294,-15.60473,-12.27268,-8.650223,-6.155404,-3.499433,0.4869778,2.394384,3.936696,6.623419,9.509351,11.64664,13.61685,15.77638,18.63089,17.84851,19.06046,20.00813,21.66785,22.14674,23.35875,24.12282,24.46043,25.16428,24.99877,24.83603,25.18133,24.89981,25.64203,25.016,24.43681,24.27999,22.74082,22.24373,21.37515,21.06218,19.78608,19.05976,18.43059,17.63676,16.94348,16.46906,15.24118,15.34088,15.29644,15.11213,15.45557,15.28667,16.06376,15.211,16.2006,17.33637,17.85339,17.8975,17.97595,18.9158,19.42718,19.10177,18.26514,19.17783,19.23701,19.84264,19.7251,19.51726,19.92588,20.51075,21.12309,20.73565,20.41004,20.49256,22.04438,22.03605,22.49309,22.4451,21.73567,21.87949,21.95983,22.11271,22.06129,22.68689,23.2365,22.32052,22.30556,22.31172,21.47649,21.59676,21.89638,22.28688,21.11343,21.25972,21.62189,21.37585,21.0617,20.81593,20.97548,20.71589,20.86212,20.31656,19.69808,19.36872,19.44751,19.06523,19.17228,19.06624,19.19342,19.17267,18.78773,18.10212,18.17098,17.95485,18.30521,17.81831,16.99467,16.77679,17.00329,18.35402,18.30931,17.80163,18.05105,18.28123,18.71918,18.27938,18.18145,17.10408,17.40006,17.75772,17.26533,16.51531,16.8231,16.48677,17.54992,17.34024,17.03498,17.28843,16.68743,17.57492,18.19009,17.75607,18.40304,18.10356,18.48065,18.52602,17.63424,17.94525,19.72954,21.07971,19.0041,16.61755,16.76121,19.22143,20.84382,18.89269,16.57273,16.76714,18.52593,19.80868,17.90359,15.93944,15.46698,17.03154,17.90448,16.32386,12.99548,12.52129,14.51858,15.99659,14.86325,12.29476,11.69933,13.83246,14.23532,12.26878,9.720806,8.669954,10.81827,11.89969,10.36053,7.62898,7.311062,9.690938,11.65472,10.27171,7.905702,6.63565,8.35043,10.29347,9.695119,7.040325,5.691184,8.052494,9.428741,8.529319,6.229819,5.615728,7.503167,9.000986,8.684262,6.560756,5.339432,7.047477,9.319298,8.935858,6.643298,5.193864,6.810781,9.151442,9.115859,6.690139,5.00243,6.558558,8.74886,9.449093,7.090688,4.873915,5.982622,8.322331,8.351582,5.520489,4.025961,5.049456,7.227874,7.1641,4.827057,3.20399,4.64783,7.375768,7.715674,5.519676,3.266997,3.629174,5.699007,5.983707,3.963223,1.441108,1.73371,4.007762,4.460446,2.377221,0.2818319,0.3101328,2.244665,2.752434,1.899931,-1.294221,-1.689303,0.4542328,1.77436,-0.6174749,-2.801473,-4.157582,-2.29181,-1.428053,-3.276995,-4.12216,-4.682224,-4.24749,-5.001218,-5.566263,-5.6678,-5.78183,-5.40788,-6.251472,-6.35923,-6.305183,-6.785065,-7.225981,-7.683769,-7.81583,-8.931114,-9.239317,-9.508979,-9.782624,-10.74498,-10.35378,-10.60371,-10.63904,-10.36871,-10.6574,-10.74288,-11.18417,-11.57809,-11.42117,-10.95093,-10.49904,-10.24243,-9.885079,-9.708793,-9.210195,-8.915042,-8.995832,-8.550756,-7.97651,-7.869817,-8.328648,-7.99336,-7.759415,-8.164841,-8.304839,-7.938239,-7.023091,-7.049099,-6.831869,-6.524343,-6.471038,-7.098748,-7.453945,-6.265059,-5.706099,-5.796443,-7.085702,-7.429906,-7.387306,-7.599664,-8.202386,-8.261349,-8.947591,-9.036917,-9.578517,-10.23069,-10.12598,-10.76491,-10.78849,-11.76341,-12.22801,-13.25458,-14.59623,-15.93977,-16.68513,-17.62949,-18.71268,-20.02776,-21.68462,-23.05903,-23.67061,-24.38231,-25.97581,-27.22059,-28.32924,-29.24046,-30.11228,-30.51062,-31.33548,-31.82035,-32.53997,-32.80765,-32.93039,-33.37408,-33.42686,-33.10621,-32.46518,-32.0317,-31.54693,-31.16961,-31.03377,-29.41292,-28.42413,-27.65073,-26.48627,-24.49308,-23.66886,-21.56104,-19.03504,-16.84918,-14.20574,-12.67903,-10.31676,-7.720511,-4.332505,-1.381652,0.8055141,3.412868,5.856635,8.665662,11.39042,13.56855,16.10581,18.38753,20.48135,22.82893,25.93136,28.20789,30.50488,33.06455,35.95955,37.80118,40.10779,42.66949,44.4704,46.52501,48.02194,49.84586,50.97841,51.11443,52.0278,51.93875,53.05789,53.09676,52.85112,52.47669,52.80191,53.36566,52.98863,52.47694,51.1436,50.96045,50.04403,48.83443,48.38729,46.74117,45.66853,43.68617,42.09929,40.30794,38.66892,37.03049,35.38865,33.39472,30.85987,28.72417,26.19912,24.70356,23.09478,20.96501,19.08398,17.20582,15.41599,14.44249,13.01056,11.80134,10.24966,8.818792,7.840807,5.76317,4.142749,2.640326,1.041983,0.3661266,-0.6051411,-2.049535,-2.968774,-3.83343,-4.806396,-5.174215,-5.114303,-6.121651,-7.439461,-7.384521,-7.96451,-8.708495,-8.667287,-8.408273,-9.291994,-9.652772,-10.05435,-9.716167,-10.02022,-10.1612,-10.35701,-10.42806,-10.53524,-10.56632,-11.16404,-11.00744,-10.65167,-10.52697,-10.62463,-10.50381,-10.085,-9.836646,-10.38879,-9.862135,-9.893199,-9.5923,-10.1901,-10.31996,-9.981362,-9.485144,-9.928239,-10.57463,-11.0668,-10.78355,-10.29813,-10.22888,-10.58658,-10.53868,-11.02085,-10.77141,-10.62805,-10.43339,-10.77852,-11.20352,-10.42447,-10.19564,-10.48037,-10.86519,-10.35064,-10.6237,-10.78797,-11.21049,-12.11335,-13.52616,-14.53744,-14.41827,-14.27697,-14.81908,-14.88418,-15.91979,-16.03287,-15.67617,-15.54898,-15.71336,-15.91297,-16.2013,-16.23045,-16.04674,-16.41217,-16.97404,-17.17445,-16.96997,-16.79249,-17.50429,-17.92729,-18.04258,-17.31655,-18.16004,-18.64435,-19.34278,-19.10335,-19.49463,-20.16255,-20.42323,-19.99608,-20.43057,-21.03428,-21.1845,-21.3739,-21.3756,-21.65011,-21.73561,-22.10567,-21.9231,-22.3574,-22.79604,-22.48657,-22.18469,-22.39298,-22.13877,-21.95606,-21.64671,-20.98762,-20.78588,-21.04299,-21.26121,-21.21834,-21.66959,-21.16332,-20.42749,-20.69872,-20.6241,-20.34256,-20.15837,-20.42397,-20.2959,-19.79764,-19.77232,-19.787,-19.96935,-20.24816,-19.68025,-19.0686,-18.61316,-18.78866,-18.26335,-18.16084,-18.06605,-17.52895,-17.30635,-17.47483,-17.25921,-17.22133,-16.85658,-16.57816,-15.92552,-15.66274,-15.34199,-15.29102,-15.54317,-15.48329,-14.83514,-15.00674,-14.60211,-14.84911,-15.10979,-14.88505,-13.67462,-14.5199,-14.38436,-14.52942,-14.69473,-14.53526,-14.01476,-13.96478,-14.15232,-14.56811,-13.69653,-13.28561,-13.35862,-13.30425,-12.92962,-13.41347,-12.9185,-12.56098,-11.81215,-11.90376,-11.45663,-10.71778,-10.52882,-9.420218,-8.264056,-6.748207,-6.458535,-6.098788,-5.298697,-3.860843,-2.535564,-1.559506,-0.881508,-0.07517761,1.250235,1.828357,3.238253,3.882526,4.790688,5.608778,6.103547,7.26958,8.239914,9.504717,10.60097,11.58019,12.41264,13.17076,14.02219,15.30071,16.49447,17.48233,19.09266,20.2837,21.61814,22.94426,23.99414,25.39612,26.87133,28.52474,29.08776,29.73112,30.80054,30.92178,31.83031,31.71751,32.27013,32.78557,33.72702,35.10569,36.32182,37.29432,37.65921,37.95877,39.07551,40.55722,42.264,43.1425,43.03345,44.17069,45.26319,46.53282,47.23857,48.56646,49.85665,50.47596,51.23289,52.31689,53.23422,54.18028,55.53088,56.75191,57.53855,58.20246,58.91692,59.85495,60.46117,61.4967,62.05534,62.13231,61.60507,62.11221,61.96478,62.35265,62.16943,61.91918,62.20662,61.11885,60.68241,60.26678,59.58362,58.00102,57.37882,56.19129,54.07801,53.59364,52.55393,50.42491,48.91298,46.91037,45.23698,42.52183,39.73156,37.15697,35.279,32.62171,30.82254,28.37243,25.85376,22.86074,20.29137,18.49511,15.74505,13.88674,11.83741,9.225328,6.110173,3.70428,2.172888,-0.3744551,-2.667086,-4.774849,-7.15817,-9.110558,-10.32302,-12.59275,-14.17672,-16.35012,-17.08265,-18.29123,-19.35795,-20.17461,-20.97016,-22.30527,-22.87119,-24.29933,-24.41675,-23.77066,-23.66416,-23.98306,-23.71773,-23.11553,-22.16917,-22.01159,-21.34165,-20.71896,-21.08316,-20.44333,-19.99197,-19.36449,-19.81796,-19.76612,-19.52895,-19.86444,-18.9111,-18.86953,-17.98905,-17.78298,-17.74358,-17.16069,-16.91194,-16.93768,-17.2748,-16.59393,-15.76395,-15.78292,-15.94239,-16.45684,-16.6144,-16.09198,-16.25569,-16.70779,-16.51261,-16.71686,-17.20577,-17.51632,-17.26674,-16.90135,-17.16147,-18.00296,-18.44824,-19.2384,-19.47278,-20.10364,-20.90793,-21.3077,-21.34201,-21.09434,-22.09686,-22.96815,-23.36671,-22.92915,-23.21023,-22.94818,-23.53189,-23.80422,-24.21956,-24.43557,-24.12005,-24.03847,-23.76625,-24.18351,-24.23362,-23.86804,-24.35191,-23.45423,-23.86916,-24.2088,-24.11108,-24.3038,-23.87443,-23.64931,-23.49928,-22.69834,-22.00296,-21.47962,-21.29855,-21.3163,-21.16571,-20.62136,-19.99494,-18.84029,-18.99347,-18.42863,-18.28623,-18.07438,-17.50382,-17.60091,-17.01168,-17.24169,-16.75698,-16.0408,-16.06556,-15.87343,-15.75077,-16.17067,-16.02039,-16.23411,-16.22498,-16.54571,-16.54268,-17.01533,-17.46494,-18.12427,-18.38645,-18.74676,-19.13438,-19.33049,-20.68772,-21.00329,-21.09736,-21.34521,-21.85437,-23.26213,-24.1723,-24.45291,-24.39794,-24.3666,-24.77554,-25.55503,-27.04821,-27.52924,-27.96212,-28.60492,-28.8104,-29.29093,-30.01547,-30.40573,-31.12523,-31.73951,-31.6278,-31.13708,-30.78388,-30.79046,-31.40262,-31.83458,-32.26296,-32.31644,-32.6201,-32.94909,-33.22492,-33.6092,-33.87982,-34.85058,-34.88698,-35.35876,-35.68968,-36.16623,-36.78303,-37.88327,-37.90903,-38.13957,-37.69864,-37.34732,-37.81188,-37.2702,-36.98179,-36.59837,-36.61893,-36.10528,-35.2461,-34.39886,-34.1498,-33.63388,-33.38941,-32.39562,-31.00234,-29.99823,-29.4022,-28.40457,-27.12712,-26.26295,-24.47552,-22.3513,-20.47236,-18.29988,-16.81919,-15.74135,-14.44842,-12.28774,-10.17575,-9.885967,-8.770646,-7.398886,-6.2079,-4.922067,-4.092059,-2.860228,-1.291888,0.1417798,1.08039,2.096697,3.147727,4.572592,6.288577,8.699157,10.58069,11.35449,12.5367,13.57885,15.2759,16.94707,18.43304,19.64574,20.31321,21.68172,22.82829,24.35799,26.21498,27.61676,28.97645,30.3982,32.81997,33.90052,35.10411,36.27178,37.54333,39.25095,40.18773,42.00357,43.31849,43.76548,44.55804,45.5253,46.38586,46.78061,46.7669,46.50312,47.53279,48.65335,49.84344,52.13,54.35865,56.88605,60.42031,63.5641,66.8873,70.38801,74.4525,78.40521,82.94072,86.08298,89.53271,92.33112,96.04484,98.69019,101.2641,104.4608,106.6609,108.7542,110.6016,112.2041,113.5861,114.2702,115.6408,115.753,116.1894,115.9783,115.8753,114.9203,114.0876,112.6943,111.2183,109.1456,106.1205,103.9171,101.3165,98.61489,95.29972,91.49911,87.59468,83.88057,80.22215,76.12115,71.82563,67.53722,63.27945,58.75591,54.70439,50.35251,45.80533,41.30789,37.03459,32.5085,27.34354,21.95267,16.59901,11.43439,6.909706,2.245703,-3.4729,-8.962767,-13.51711,-18.50122,-22.91704,-27.0492,-32.02792,-36.17087,-40.36907,-44.7571,-48.29918,-51.75375,-55.09004,-57.86032,-60.83489,-62.87699,-65.81866,-68.73928,-71.02853,-72.82937,-74.21137,-75.337,-75.88427,-76.95525,-78.47682,-78.08337,-77.92971,-77.44881,-76.58486,-75.94181,-75.33542,-73.88732,-72.78675,-72.14783,-71.13665,-70.31936,-69.26043,-68.48287,-67.63879,-66.93956,-67.40733,-67.77654,-67.19252,-67.41599,-68.5916,-68.51687,-67.91143,-67.65735,-66.45671,-64.95586,-63.73737,-62.15966,-60.61482,-58.86902,-56.68134,-55.2343,-53.51276,-51.86768,-49.2698,-48.11367,-46.80185,-44.50843,-41.87325,-40.05061,-37.84762,-36.02554,-33.83351,-31.80239,-29.66666,-27.94116,-25.93047,-23.96851,-21.64211,-19.75142,-17.42947,-15.92637,-14.30968,-12.3813,-10.3624,-9.064347,-8.095518,-7.002468,-5.583354,-3.840514,-2.605901,-1.097487,0.1196885,1.578581,2.714086,3.886757,4.692465,5.765911,6.909098,8.122823,9.350771,10.24326,10.75729,11.78282,12.32333,12.6262,12.96369,13.2246,13.62496,14.81772,15.99735,16.30854,16.60446,17.74567,18.50067,19.05573,19.28713,19.39711,20.17573,20.6674,21.1039,21.03834,20.64579,21.13925,21.61491,21.82357,22.33413,21.60656,21.8298,22.70583,22.35268,23.20873,23.15639,22.90512,22.9634,23.33522,23.41854,23.86027,23.9418,23.88233,23.93586,24.98264,24.8532,25.12057,25.6147,26.49064,26.34158,26.93429,27.09987,27.34944,27.58585,27.57942,28.41717,29.06825,29.45854,29.47566,29.49225,29.4953,30.20876,30.36274,30.74823,31.33287,31.25519,30.63445,31.4058,32.19357,32.16596,32.06261,32.05269,32.30546,32.1731,31.82045,32.07358,32.42261,32.18777,32.06207,32.2878,32.32715,31.5075,31.10571,30.8039,30.40826,29.70308,28.92047,28.76406,28.89194,29.43215,29.66128,29.97793,29.77573,30.56353,30.85771,31.12943,31.10328,30.85374,31.37127,31.0187,31.4024,31.68397,31.54413,31.11967,30.62867,30.58243,30.81365,29.7986,28.98615,28.11186,27.5698,26.6513,26.28305,24.83918,23.85901,22.08473,21.47335,19.28208,17.92561,16.15999,14.48503,12.98878,11.77246,10.07942,7.661883,5.46439,3.638753,0.943182,-1.240182,-3.683366,-5.988858,-7.97283,-11.34258,-13.83191,-16.64043,-19.39835,-21.99647,-24.2037,-26.06272,-28.62457,-31.26436,-33.74047,-36.3558,-38.93462,-41.0841,-43.48831,-46.39764,-48.06868,-49.42688,-51.43831,-53.09193,-54.72538,-55.63338,-56.32145,-57.61864,-59.14841,-60.16187,-61.01246,-61.94111,-63.31056,-64.01642,-64.6377,-65.4976,-65.95599,-66.46194,-65.87765,-65.64074,-66.18211,-66.0616,-65.63213,-65.7631,-65.25968,-65.7131,-65.27293,-65.0049,-65.00447,-65.03866,-64.15971,-63.73285,-63.44364,-63.21824,-62.77147,-62.34438,-61.93472,-61.26198,-59.81571,-59.82756,-59.8036,-58.21047,-57.98975,-57.48306,-56.74101,-55.99485,-54.94939,-53.709,-52.60773,-51.48871,-49.23431,-47.53014,-45.65345,-43.69586,-42.1001,-40.03143,-37.72718,-35.99926,-33.94725,-32.07711,-29.43479,-27.05697,-25.25886,-22.3171,-20.40032,-17.64025,-15.05043,-12.22992,-8.901753,-6.655017,-4.640117,-2.095651,0.6227713,3.235814,5.606577,8.635793,10.91441,13.70073,15.31568,17.82397,19.3967,21.99398,24.04487,26.22235,27.74623,29.75272,30.39837,31.82221,33.43762,34.70317,34.99095,35.27668,36.07707,36.02422,36.02406,35.99523,35.77428,35.8763,36.63521,36.71113,36.26587,35.81084,35.13299,34.95202,34.14655,33.91974,33.4686,32.99461,33.14512,32.67847,32.31211,31.63145,30.27008,30.82726,30.58398,30.19476,29.36078,28.46856,27.58866,27.30518,27.22798,26.45325,26.24542,25.9783,26.06014,25.46703,25.30434,26.44406,27.12853,26.99402,25.75184,26.01371,26.0468,26.44761,26.44822,25.56869,25.72689,25.18973,25.1254,25.33837,25.29864,24.62422,24.33162,24.40343,24.58452,23.69363,23.01232,22.46424,22.7873,21.86505,21.23465,20.76977,19.4734,19.4963,18.7381,17.87585,17.43878,16.16234,15.70415,14.94962,14.40307,13.28322,12.15193,11.0841,10.80959,9.852744,8.272789,7.533393,6.87489,6.087619,5.221876,4.14935,3.611832,2.815168,1.919633,1.746657,0.4458776,-0.5941292,-0.9112151,-1.709779,-2.216555,-3.301955,-3.770139,-4.069706,-4.594751,-4.220827,-4.933452,-6.270321,-6.128835,-6.180865,-5.978236,-6.246707,-7.674856,-7.478931,-7.581289,-7.472673,-8.387917,-8.155868,-8.728408,-9.341686,-10.77424,-10.71899,-10.86668,-11.37752,-11.11912,-11.19299,-11.70831,-11.76343,-11.6789,-11.82845,-12.4776,-11.62543,-11.39812,-11.10142,-10.91342,-10.78963,-11.11701,-11.25936,-11.2482,-11.20214,-11.57388,-12.04488,-11.97094,-11.59501,-11.72258,-12.05549,-12.21681,-12.50731,-13.10856,-12.9044,-12.74539,-13.46479,-13.8032,-14.63969,-14.24189,-14.51906,-14.97846,-14.15169,-14.91775,-15.2718,-15.53037,-14.52958,-14.43395,-15.02009,-15.55491,-15.50553,-14.78462,-15.61929,-15.32196,-15.07702,-15.0134,-15.83911,-16.23111,-15.69104,-15.64698,-16.25932,-16.26863,-16.26638,-17.07288,-17.40694,-17.0801,-17.02736,-16.89911,-16.61114,-17.15232,-17.46332,-17.6597,-18.12756,-18.22132,-18.1861,-18.45441,-18.62855,-20.11259,-20.3126,-20.17369,-20.76223,-20.62057,-20.30231,-20.83649,-21.17348,-21.21935,-21.83318,-21.85313,-22.50256,-22.58647,-22.23498,-22.72382,-22.96209,-22.63361,-22.97867,-22.92077,-22.60782,-22.47264,-22.173,-22.45441,-22.01557,-22.43927,-22.69614,-21.59025,-21.82437,-21.81416,-22.03835,-22.22811,-20.49237,-19.74196,-19.32127,-18.97899,-18.92517,-18.89361,-18.64302,-18.45757,-16.87475,-17.35429,-16.66006,-16.48333,-16.00175,-15.96018,-16.38832,-15.14864,-14.66489,-13.84975,-11.85851,-12.27876,-11.82146,-11.30324,-11.10552,-9.732999,-9.028361,-8.528563,-8.6477,-7.96122,-7.032213,-6.09481,-5.541352,-5.472448,-5.100249,-3.726569,-3.154908,-2.790372,-2.202158,-1.095011,-0.1156774,1.186636,2.485525,4.158461,5.647952,7.325765,9.18913,9.88895,11.46104,13.44504,16.50584,17.91319,18.88351,20.54212,22.69594,24.78885,26.20984,28.53581,29.41052,30.60803,32.18419,34.00753,35.70721,37.0741,38.9515,41.4687,43.63366,45.58047,48.73046,51.38699,53.81562,56.60356,58.26544,60.57225,62.6023,64.68863,66.76269,69.04833,71.07379,72.20455,74.73274,75.80696,77.69539,79.92404,80.85631,82.25756,83.86383,84.39585,85.03033,85.86828,86.07548,87.07399,86.70024,86.60136,86.31961,85.95913,85.56705,84.32296,82.56168,81.48082,79.91976,77.99608,75.69674,72.57721,70.42269,68.17318,65.71706,63.37172,59.45811,55.85937,53.72754,50.13335,47.07073,42.642,38.48471,34.46961,30.25537,26.40576,22.80381,18.75407,15.5157,10.97476,7.297267,3.000532,-1.139018,-4.83742,-7.818629,-10.55876,-14.24043,-17.3385,-21.07262,-24.17979,-26.52964,-29.06503,-32.08058,-33.93939,-37.10985,-39.13063,-41.30692,-42.52034,-44.07738,-44.81744,-46.43018,-47.69349,-47.7629,-47.76693,-48.30081,-48.08246,-48.01635,-47.24538,-45.71032,-44.5084,-42.95087,-41.85652,-40.35561,-38.97865,-37.06033,-34.76861,-32.797,-31.24617,-28.38036,-26.94519,-25.33301,-23.14681,-21.26948,-19.68659,-18.41671,-17.0076,-16.16398,-14.63445,-13.56153,-12.05491,-10.61543,-9.107263,-7.497623,-5.996046,-5.126561,-3.842077,-3.011855,-2.747912,-1.735524,-1.366815,-1.524934,-1.244019,-1.455562,-1.132463,-0.8615397,-0.6709565,-1.394886,-2.012711,-1.911453,-2.84251,-3.154097,-3.137126,-3.943155,-3.807582,-4.217498,-5.295131,-5.808628,-6.461448,-6.96094,-7.802612,-8.501006,-8.765548,-9.44652,-10.05412,-11.346,-12.34412,-12.19873,-12.48401,-13.0945,-13.45031,-14.01407,-13.94859,-13.36197,-13.88964,-14.27902,-14.8532,-15.47264,-15.95545,-15.71329,-16.66781,-16.58519,-16.48537,-16.5399,-17.32574,-17.57786,-16.86044,-16.77613,-17.53496,-17.62071,-18.01327,-18.60877,-18.46328,-18.66755,-18.96912,-19.37103,-20.12169,-20.44274,-20.88713,-21.23981,-21.67802,-22.35857,-22.54032,-22.90574,-23.93912,-24.53902,-24.69662,-24.92258,-25.0578,-25.67299,-26.06879,-26.67127,-26.26512,-26.21052,-27.23852,-27.332,-26.99494,-27.40447,-27.27765,-27.28488,-27.41547,-27.71625,-27.39853,-27.69861,-27.81177,-28.03207,-27.75446,-27.87552,-26.81352,-26.37145,-26.7776,-27.06447,-26.23858,-25.94304,-26.16152,-26.36824,-25.81234,-25.85628,-25.70143,-25.31039,-25.2324,-25.03927,-24.41628,-23.53436,-23.18144,-23.49027,-23.25586,-22.79595,-21.98129,-21.18653,-21.84916,-21.04385,-20.67563,-20.23822,-20.45419,-20.27574,-20.82233,-19.49837,-19.53416,-19.03778,-19.4279,-18.7036,-18.72541,-18.58131,-18.83397,-19.22538,-19.499,-19.23091,-19.04454,-19.47869,-19.85532,-19.36648,-19.91306,-19.5963,-18.97622,-18.60865,-17.94785,-17.6114,-17.58756,-17.43486,-17.35949,-16.9918,-16.81892,-16.76584,-16.84763,-16.76095,-16.40288,-15.63849,-15.77282,-14.95778,-14.47554,-13.96703,-13.0745,-12.71508,-12.1816,-11.1602,-10.05988,-8.862786,-8.633782,-7.042237,-6.164966,-5.536375,-3.650128,-2.662091,-1.914522,-1.017619,0.4364678,1.787298,3.391818,4.385537,5.534481,7.43326,9.364695,11.13572,12.52906,14.25567,15.91963,17.52463,19.29742,20.33944,22.01075,23.73587,25.20116,26.58208,27.67794,30.07075,31.15006,31.90671,33.53302,34.35273,35.95478,36.67364,38.31112,39.25581,39.97925,40.37925,41.65628,42.27072,43.07955,42.62087,43.69101,44.839,46.1717,46.94433,47.27321,48.86268,49.85602,50.55736,52.0856,53.09322,53.56678,55.46875,56.27287,57.22752,58.46319,59.04239,60.29068,61.60469,62.71014,63.56405,64.47084,65.59994,65.82782,66.64651,67.87488,68.78994,68.95564,70.09644,69.41818,69.85627,70.41635,70.42346,69.79674,69.56751,68.52593,68.29158,67.31847,66.49596,65.55641,64.42838,63.23574,62.27647,61.18561,59.55243,58.18986,56.24457,53.96803,51.61691,49.6845,47.10713,44.36964,41.44817,39.00237,35.89985,33.09714,29.68171,27.06991,24.19755,20.53859,17.40947,14.78648,11.24857,8.390055,4.784363,1.829214,-1.158814,-4.474499,-7.65539,-11.65781,-13.81877,-17.11276,-20.14324,-22.95304,-25.75284,-28.04475,-30.17055,-31.71245,-34.50279,-35.82417,-37.34287,-38.30561,-38.98416,-39.97265,-40.74692,-41.79318,-42.35178,-42.54214,-43.36264,-43.1047,-42.72016,-42.28835,-42.37093,-41.59866,-41.51811,-40.67692,-40.58813,-39.7295,-39.3138,-38.53932,-38.26887,-36.9762,-36.5078,-35.74034,-35.6445,-36.10423,-35.48427,-34.7202,-33.97588,-33.49671,-32.26281,-31.70085,-30.40074,-29.58883,-29.50446,-29.13775,-28.36203,-28.15033,-27.40218,-26.62629,-26.34344,-26.25426,-25.66216,-25.62045,-25.03719,-24.80667,-24.72346,-24.21668,-23.78986,-23.44544,-23.42569,-22.63243,-21.94898,-21.49233,-21.02345,-20.35481,-20.10874,-19.6191,-18.43399,-17.37884,-16.71482,-15.9706,-15.88252,-14.84883,-14.51739,-13.6891,-12.84754,-12.99226,-11.92587,-11.94212,-11.20645,-11.02983,-9.904133,-10.11312,-10.27333,-8.458441,-8.169224,-7.77281,-7.172508,-6.473877,-5.940514,-5.479117,-4.338788,-3.825279,-2.95591,-2.596106,-0.7409188,0.04240513,0.9852984,1.443898,2.609609,3.781444,4.010556,5.486557,6.008635,7.804022,8.433679,9.309878,10.03921,10.8656,11.99017,12.90405,13.18172,13.91902,14.67541,15.81056,15.56864,15.89404,16.23748,17.28577,17.02156,16.98998,18.34793,17.7617,17.63473,17.17374,17.53136,16.95919,16.53762,17.06545,16.89033,15.8654,15.31183,14.73328,14.03388,14.0453,13.06032,13.28932,12.77537,12.17293,11.6385,10.70736,10.28545,9.393286,8.926783,8.312224,7.498758,7.628237,7.009152,6.724313,6.384396,5.127971,5.396027,3.805542,2.91234,3.00992,1.853188,1.971724,0.8036172,0.2617844,-1.090855,-1.965738,-2.78833,-2.872163,-3.871382,-5.313148,-5.697508,-7.435399,-7.147846,-8.148486,-8.511113,-9.497177,-10.42184,-10.82159,-11.50123,-11.85197,-12.76719,-12.35608,-12.23427,-12.91413,-13.26917,-13.1824,-13.7402,-13.99454,-13.93333,-13.57698,-14.65744,-14.35023,-14.70909,-14.96709,-14.29388,-14.61413,-14.27198,-15.17225,-14.72757,-14.32675,-14.00558,-13.80772,-13.35861,-12.94032,-12.70808,-12.13719,-11.41794,-11.02653,-9.96644,-9.844576,-8.903567,-8.70746,-8.430114,-7.247627,-5.94355,-5.146128,-4.217174,-2.678366,-1.699902,-0.02630679,0.502482,1.62247,2.224971,4.055911,4.751972,5.615386,5.412569,7.043133,8.306745,9.465328,9.730881,11.15025,12.42679,13.57485,14.30381,15.93193,17.30787,16.72197,17.55034,19.23207,19.92059,19.95345,20.96507,22.2097,22.21652,21.93962,22.41864,22.69615,23.29585,24.00022,23.95614,24.0053,24.11157,23.30894,23.31724,22.82606,22.68943,22.22108,21.91009,21.24621,20.85848,20.64214,18.37784,18.36544,17.91776,16.22068,15.29586,13.34511,13.39778,12.5644,11.49689,10.88677,8.697972,8.454276,7.008227,7.006695,4.888509,3.886646,1.866028,0.9624393,0.01274407,-2.009549,-2.412249,-4.357061,-5.112373,-6.855763,-7.835939,-9.601954,-10.52369,-11.92862,-12.99031,-13.89579,-15.67107,-17.24768,-18.65652,-19.81025,-21.66761,-22.66609,-23.72388,-24.88145,-26.52908,-27.37734,-28.99856,-29.77111,-30.36732,-31.91915,-33.16524,-34.49328,-35.03353,-35.50604,-36.22123,-37.71602,-38.47667,-38.61382,-38.83236,-39.57753,-39.72896,-39.94481,-40.53106,-40.91948,-40.44909,-39.43384,-39.73128,-37.98522,-37.07613,-37.10527,-36.74987,-35.47327,-34.73705,-33.30677,-32.45761,-30.8884,-30.40535,-28.89508,-27.43063,-26.16276,-24.2686,-21.78344,-20.74616,-18.62127,-16.90679,-14.35947,-12.28194,-10.03804,-7.617735,-4.414314,-2.109618,-0.5950789,2.022704,5.020861,7.129325,9.649518,12.40058,14.51072,16.91593,18.59536,22.37075,24.16112,26.1597,28.58016,29.42658,31.2401,32.56088,33.47382,34.79441,36.16942,37.08199,37.82905,37.75633,38.27065,38.84985,39.15062,38.96076,40.3135,39.63571,38.92548,39.12613,39.14344,39.37975,38.29794,38.08223,37.50606,36.46307,35.1478,34.42142,33.84562,32.0944,31.76538,29.98397,29.16125,27.89275,27.55056,25.96058,24.93518,23.72019,22.01646,20.43738,19.43354,18.87219,16.14413,15.3395,14.45158,12.90599,11.437,10.03351,8.979484,7.972289,7.27314,5.754018,4.910739,4.063438,2.740567,2.68684,1.551197,0.7208008,-0.6233927,-1.34392,-1.856645,-2.778832,-3.316254,-4.223154,-4.820194,-5.21341,-4.623697,-6.153224,-7.333398,-7.059641,-7.723678,-8.599527,-9.08845,-8.958388,-9.046644,-9.070548,-9.408288,-9.536939,-10.70633,-10.79807,-10.09979,-11.0459,-10.63903,-11.36045,-11.35013,-11.26127,-11.77012,-11.87113,-12.46452,-11.78289,-12.42072,-13.0905,-12.60224,-12.4167,-11.32043,-11.2716,-10.83317,-11.44743,-10.11534,-10.35797,-9.758128,-9.245048,-8.69424,-8.130203,-7.594415,-6.643767,-5.885773,-5.315215,-5.264192,-3.455281,-3.377815,-3.005483,-2.966504,-2.789581,-1.486502,-1.285149,-0.6549798,-0.2281276,0.0517299,-0.1272639,0.0502357,1.012636,1.350236,2.025012,2.169916,2.804958,2.926564,3.49423,4.681677,4.735586,4.409223,4.57336,4.380972,5.029026,5.122503,5.36403,5.043665,5.288689,5.478204,5.142432,5.315894,4.36212,4.445621,4.325508,3.844344,2.920475,2.1232,0.9572537,0.04368658,-0.6516024,-1.457162,-3.1017,-4.905774,-5.66884,-6.846627,-9.215721,-10.13831,-12.33212,-13.9911,-15.72944,-17.12593,-19.59701,-21.46075,-23.00249,-25.09946,-26.56736,-28.63873,-30.49303,-32.65378,-33.78524,-34.75395,-36.68146,-38.4827,-39.88497,-41.48134,-42.17549,-43.7537,-46.17619,-47.30724,-48.62105,-49.43873,-50.832,-51.49364,-51.95321,-51.87201,-52.19198,-52.9715,-53.62915,-55.22786,-55.7413,-56.23871,-57.46344,-58.32943,-60.26823,-60.81756,-61.70146,-63.01647,-63.80462,-64.68728,-65.08985,-65.99439,-65.45057,-65.88074,-66.26629,-65.975,-66.00223,-65.43181,-65.52661,-64.45439,-65.13026,-63.886,-63.75831,-63.04045,-61.86776,-61.31081,-60.03708,-58.41346,-58.12588,-57.31376,-55.50024,-54.3178,-52.80131,-50.89626,-48.89433,-46.81929,-45.9499,-43.28335,-41.44112,-39.15281,-36.88518,-33.67895,-30.86181,-28.73139,-25.22867,-22.74775,-18.30319,-15.71401,-10.90031,-8.625377,-5.294101,-1.472971,3.02273,6.17035,10.29596,13.53909,17.52697,20.0283,24.97485,28.46546,31.3956,35.17037,37.95189,41.93297,45.069,48.18318,51.09191,53.65194,57.13745,59.24168,61.06835,64.02011,66.12357,68.99941,71.22149,73.38687,75.27507,77.35128,78.87555,80.32918,81.20781,82.78732,83.97023,85.66678,86.5799,87.06059,88.5259,90.23432,91.51536,92.43852,93.43318,93.9992,95.47339,96.80698,97.86094,98.09035,99.60602,99.99415,101.9726,102.4835,103.2136,104.3474,106.1145,107.0265,107.613,107.6584,107.338,107.4461,106.4805,105.2895,104.3247,102.3608,101.1528,99.68545,97.38913,95.6919,93.64467,92.34141,89.74946,88.1623,85.79596,83.1344,81.25799,77.86499,75.71203,72.70646,69.32188,67.09476,63.28633,59.53063,55.90489,53.13966,49.67687,46.63131,42.87384,38.07398,34.55926,31.51798,27.00881,23.7201,19.6905,15.83737,13.23922,9.627178,5.440025,1.93879,-2.128329,-3.906479,-7.406672,-9.676548,-13.2815,-15.94121,-18.28101,-19.9045,-21.78163,-23.72658,-24.83813,-26.64251,-26.89311,-28.46242,-28.18842,-29.04739,-29.80079,-30.02524,-30.17833,-31.17117,-31.04413,-30.687,-29.11443,-30.42013,-29.55772,-29.02101,-28.46771,-27.07938,-26.65528,-26.15305,-26.48548,-25.05877,-24.41135,-24.16681,-23.19579,-22.49735,-22.26124,-21.13625,-20.71556,-20.63599,-21.01682,-20.2364,-20.55488,-20.03659,-20.04438,-20.19007,-19.5327,-19.64991,-20.03569,-19.83827,-19.88039,-20.26361,-19.70259,-19.91645,-20.14259,-20.52773,-20.29661,-19.88744,-20.3991,-20.21578,-20.38697,-20.58048,-19.83291,-19.55971,-19.94953,-20.59762,-19.7604,-20.46105,-20.45742,-21.10465,-22.01644,-21.74225,-21.75423,-22.76914,-23.02028,-23.69005,-23.57102,-23.18707,-24.0976,-24.06828,-24.53194,-24.65143,-24.83423,-24.68712,-26.0559,-26.16058,-26.57536,-26.75619,-26.11723,-26.87094,-26.6059,-26.57234,-26.88359,-26.29212,-26.11565,-25.95119,-25.73012,-25.67482,-25.82714,-25.25341,-24.78312,-24.98252,-24.77799,-24.14349,-23.86859,-23.31168,-23.09369,-23.04159,-23.01193,-21.87238,-22.45102,-21.83919,-20.97382,-20.44941,-21.01234,-19.93185,-19.65332,-18.53115,-18.62671,-17.58012,-17.84964,-17.32692,-16.96671,-15.57919,-15.35675,-15.94984,-16.05508,-15.53412,-15.40378,-15.51907,-14.51465,-13.88236,-13.75551,-13.75368,-12.58782,-12.22115,-13.1789,-12.2126,-11.6841,-11.89373,-12.5901,-12.21374,-12.87594,-12.67329,-12.29854,-12.83528,-13.08705,-13.21752,-12.87818,-12.58889,-12.48711,-12.68863,-13.01405,-11.73034,-12.32079,-12.15349,-12.03368,-12.74743,-12.09181,-12.17987,-12.67558,-12.25647,-12.22834,-11.87196,-11.66533,-11.82087,-11.50907,-9.914069,-9.632817,-8.872173,-8.745138,-8.679558,-7.005556,-5.568985,-5.310354,-5.074566,-4.556726,-3.87765,-3.387881,-1.986337,-2.274825,-0.6784082,0.040191,0.2066916,2.3449,3.212932,3.665596,4.549068,6.122736,7.287043,8.024614,8.916375,9.30991,9.287364,10.39114,11.88571,11.00828,12.2572,13.84658,14.47693,15.18075,15.1177,16.10924,16.74063,17.6912,17.96993,19.25312,19.40992,19.5409,20.72921,21.28326,22.24017,23.20382,24.0293,25.42471,25.61695,26.23152,27.25938,28.24223,30.25914,31.00829,31.84517,32.31606,33.03876,33.7423,34.52273,34.07575,34.53959,34.32556,34.81785,35.14533,34.16071,34.09398,35.18575,34.00954,34.34765,34.43618,34.31996,34.30441,34.05915,34.98149,33.26881,32.86212,32.07782,32.71873,31.3973,29.34308,29.06234,26.97539,25.95012,24.45972,22.68293,21.7771,19.62533,18.19156,15.93049,13.7412,11.42806,10.03983,7.576571,5.220248,3.111695,0.07991523,-1.750675,-5.035058,-6.725819,-9.786437,-12.85331,-14.30203,-17.73231,-18.93758,-20.93028,-23.44375,-25.12144,-27.00595,-28.84308,-29.88599,-31.43207,-33.88217,-35.38286,-35.70075,-37.08842,-37.8899,-39.7739,-40.31263,-41.43871,-41.14551,-41.50194,-41.24485,-41.19638,-40.97408,-39.31537,-40.1512,-39.95506,-38.7583,-39.407,-38.75564,-38.48528,-39.28374,-40.07526,-39.70049,-40.56012,-41.30336,-41.79099,-41.19613,-42.51259,-42.7888,-42.77098,-43.13734,-44.1349,-44.67772,-44.67988,-45.19654,-45.43671,-44.89692,-44.79646,-44.06251,-45.23504,-44.30789,-42.75154,-41.52906,-40.11699,-40.26977,-38.22798,-35.81769,-34.1019,-31.74826,-30.258,-28.48415,-25.59215,-22.38823,-21.03578,-18.76973,-15.51059,-13.67957,-10.08816,-7.720301,-4.60694,-2.056427,0.4036767,4.725165,6.843258,10.39351,13.59369,16.03199,20.66574,23.50451,26.63279,28.13059,31.72744,34.18195,36.18182,39.82893,41.55092,44.0307,44.75209,47.65667,48.54916,49.58819,51.5432,52.17551,53.70565,53.6724,53.82147,53.94004,54.67422,54.43965,53.08674,52.7023,51.58829,49.69427,49.66915,46.74411,44.99073,42.95408,41.29628,38.86222,37.02089,34.13501,30.94253,29.64624,26.067,22.98871,19.27467,16.52881,14.07894,11.40138,8.271044,5.686518,2.51114,0.3296244,-2.576151,-4.756403,-6.558765,-7.789292,-9.231628,-10.02545,-12.08545,-12.83419,-14.53552,-14.58128,-15.24613,-16.77902,-16.85919,-17.73996,-18.49564,-18.11376,-19.01979,-19.57055,-18.84101,-18.88547,-18.59,-19.10642,-19.39535,-18.99475,-19.62573,-17.74537,-18.88777,-18.10762,-18.99898,-18.09517,-18.3973,-18.00662,-18.28102,-18.11884,-17.94627,-17.9902,-17.90253,-17.33052,-18.11201,-16.94554,-17.24061,-16.57564,-15.40152,-16.39661,-16.20123,-15.73779,-15.66027,-14.78483,-14.35283,-13.95555,-13.95951,-12.91949,-11.72947,-11.83628,-11.04454,-10.45689,-9.452304,-9.183507,-8.683864,-7.59005,-6.894286,-5.795906,-4.620295,-4.343282,-2.570077,-2.591498,-0.7423933,-1.053773,0.5276576,0.2452806,2.038088,2.863427,2.999095,3.296169,4.217894,4.972624,5.042156,6.861806,7.287856,7.857042,8.549813,9.082897,10.31519,10.19394,11.91335,11.25594,12.0649,12.16866,12.86841,12.64658,14.36151,13.54332,14.1523,14.31837,13.92893,15.58406,16.14194,16.08225,15.82694,16.61592,16.11233,17.52313,17.40236,16.95193,17.85612,17.70323,18.73139,18.39927,17.07694,17.88212,17.92181,18.46437,18.45056,17.87884,17.84967,17.1584,17.01084,18.24584,17.98968,17.68271,17.19576,17.65425,17.61182,17.129,17.99589,17.75588,18.55505,18.56685,18.3055,18.76043,19.57066,19.56201,20.15964,20.99374,20.23247,21.67849,20.64351,21.40132,21.65274,21.46922,21.73246,22.26152,22.2478,22.76623,23.32787,22.6192,23.1916,23.08378,22.74558,23.27623,22.31492,22.4284,22.7181,21.49222,21.58054,21.68922,21.39238,21.42624,20.87896,21.07127,20.96259,21.49933,22.64888,22.12565,23.03735,23.03092,24.26965,24.64651,25.09838,25.65936,26.57216,27.08544,27.21035,27.34111,27.77255,27.53162,27.36391,28.35093,27.71155,26.16979,26.12017,26.08034,25.23355,24.55177,24.00945,22.89354,22.32614,21.72029,19.28953,18.44165,17.24552,15.80828,14.2198,12.26003,10.43752,6.923608,6.174151,2.439377,1.639575,-1.353957,-4.978816,-5.79659,-8.757409,-11.90315,-12.55207,-16.37165,-17.69801,-20.79025,-23.01649,-25.1046,-27.63077,-29.6394,-32.48567,-33.42974,-35.1937,-37.01363,-38.44554,-40.14832,-41.87596,-42.09027,-44.5398,-45.00533,-46.06825,-47.10867,-48.33491,-48.82372,-48.70142,-48.854,-49.54729,-50.1416,-49.75847,-49.58341,-48.16464,-47.43595,-45.81428,-45.19411,-44.97376,-43.36725,-42.3579,-41.45869,-40.9855,-40.07892,-39.72661,-38.56101,-38.61548,-38.15642,-38.25572,-37.4242,-36.66143,-36.9044,-35.92986,-36.22769,-35.58353,-36.10563,-35.95663,-36.83362,-35.87397,-35.97618,-36.79527,-36.36963,-37.37454,-37.56665,-36.46689,-37.33425,-37.8562,-36.62922,-37.53499,-36.79239,-35.58143,-35.13454,-34.75265,-33.51053,-31.96953,-31.43142,-30.37734,-30.09764,-28.18185,-27.20122,-25.20638,-24.28755,-22.55478,-20.64039,-19.55657,-17.56776,-15.4489,-13.0107,-12.18425,-8.607037,-8.709781,-6.384507,-4.131119,-2.060892,-0.8587896,1.389941,2.71124,4.086196,5.286153,7.525857,8.834439,10.38062,11.54409,11.4136,12.79493,12.59965,13.99993,13.75583,15.24793,13.91504,15.75065,14.09841,14.37124,15.33723,13.35316,13.91784,13.23682,11.21012,12.53614,9.918039,10.3148,8.381035,7.327065,6.775096,5.815329,5.322155,3.642478,3.238486,0.9248065,0.006276877,-1.296497,-2.599072,-4.60303,-5.037781,-6.428476,-8.352925,-9.32156,-9.27304,-10.33273,-10.50801,-10.71075,-12.03411,-11.32689,-11.92491,-10.05217,-11.82756,-10.11968,-10.71098,-12.16697,-10.68342,-11.15014,-10.94093,-10.50816,-10.56966,-10.73828,-10.74213,-9.84625,-10.36023,-9.316174,-9.802857,-8.555376,-8.528277,-8.281057,-8.111229,-8.151891,-7.190978,-6.467626,-5.955905,-5.254531,-5.234006,-4.420206,-3.827397,-2.901616,-2.134956,-1.253232,-0.9418642,-0.5801425,0.9640965,0.8438962,1.675369,2.79257,2.771067,3.318853,4.510003,4.747159,5.353469,5.845713,6.99318,7.91422,8.738368,9.994092,10.57335,12.18013,12.8732,14.25319,14.78692,16.80062,17.66259,17.99273,19.15814,20.28192,21.32808,21.13292,22.14025,23.11817,23.5806,24.56146,24.85554,25.71477,26.50305,26.57367,26.89938,27.3069,27.42042,28.07663,27.8533,29.10078,28.83699,29.07499,29.14315,29.70015,29.11582,30.56029,29.80412,29.96418,30.34028,30.07406,30.35442,31.03797,30.40044,31.70423,31.02951,31.70545,32.62105,31.74995,32.45732,32.6627,32.5503,32.15709,32.75322,32.50104,32.58514,32.88022,33.76567,32.44356,32.90098,33.65581,33.52199,33.81252,34.56301,33.13328,33.98721,34.24157,34.06953,34.74125,33.84494,35.4766,33.49795,33.42649,34.14072,33.3353,33.94636,33.47135,33.16438,32.48875,32.76863,32.43772,31.79339,32.15181,30.99946,31.78372,30.94565,30.96612,31.21109,30.37188,31.21704,30.7279,31.12523,30.75567,30.62798,30.15015,29.44501,29.27628,28.83569,28.93284,27.58891,28.21457,27.96493,28.4743,28.77126,28.26476,28.6091,28.3777,29.24385,29.84358,31.28493,30.19726,31.16812,32.5254,32.69132,33.6978,33.49985,34.57766,34.57106,34.78568,34.52014,35.43374,35.63952,35.68509,33.8892,35.20779,34.16624,33.24444,32.51648,32.70073,30.81992,30.16556,28.71512,27.53167,26.33667,24.53831,24.1824,21.81442,20.88334,18.08923,16.60218,15.01707,13.19526,10.0332,7.916747,5.948454,1.901973,-0.1775786,-2.305095,-5.801132,-9.046499,-12.14888,-14.4937,-18.08466,-20.95001,-23.54534,-27.98256,-30.05448,-32.88339,-37.29306,-39.56957,-42.53154,-46.08239,-49.03168,-51.82349,-54.56784,-56.38981,-58.38485,-61.12807,-64.36795,-65.31332,-67.38672,-68.47023,-70.3447,-71.35536,-73.72677,-74.42804,-75.59155,-76.12752,-77.26535,-78.25791,-78.20051,-80.23177,-79.16711,-79.17585,-79.31184,-78.06521,-79.12131,-76.899,-77.04433,-75.36723,-75.68407,-73.98064,-74.16431,-73.7041,-73.44049,-73.19773,-74.53399,-74.48717,-75.82657,-76.80333,-77.62598,-79.03377,-80.90979,-81.58841,-83.9092,-84.33374,-84.99955,-85.27401,-86.57337,-87.49145,-86.64963,-87.08448,-86.75119,-86.80007,-87.53358,-84.53411,-83.91884,-81.78562,-79.69929,-78.51921,-76.34286,-72.55037,-69.5337,-68.20879,-64.0132,-60.97243,-57.45498,-54.60609,-51.19946,-47.01276,-43.11015,-38.80162,-35.10209,-30.49995,-25.89736,-21.31273,-18.00178,-12.49865,-7.428619,-3.178538,1.212875,5.641106,9.94317,15.27763,19.24426,24.44805,28.21996,33.07965,36.93988,41.31909,44.49421,48.06062,50.80995,56.02819,58.3329,59.44152,64.3193,65.89207,67.33923,70.00769,70.99645,72.60901,72.72856,74.86123,74.22849,74.08889,75.05381,73.777,72.47807,73.28934,70.91739,69.65544,68.5352,67.95271,64.71998,63.24098,60.10683,56.92758,54.77196,51.74327,49.38193,46.49114,43.49092,41.79354,38.18749,35.93724,33.87685,31.83726,29.5125,28.7314,26.66394,25.57813,26.52132,24.70642,25.6885,24.03161,25.03689,26.15062,24.26537,25.95225,24.30715,25.60493,24.86871,25.51662,25.33845,25.06415,23.23125,23.84436,23.29774,22.56392,23.26936,22.12169,21.85345,21.54958,21.0947,22.01147,20.6726,19.57342,19.4826,17.67865,17.69142,15.98103,15.32069,14.5224,13.60887,14.04772,12.23342,12.29366,10.6226,9.42516,9.189014,7.307185,6.708853,4.627554,4.54953,2.141953,1.487623,0.06691645,-0.6917021,-2.246796,-2.352273,-3.981982,-4.271067,-5.46402,-6.65682,-6.958954,-9.182361,-8.750708,-10.34948,-10.83041,-12.38947,-12.38531,-13.45567,-13.0817,-14.00843,-14.00443,-14.53211,-14.78777,-15.41044,-15.80656,-15.47704,-15.20654,-15.33613,-14.94658,-14.97868,-14.72859,-13.56458,-14.93224,-13.66654,-13.15182,-13.27941,-12.83609,-11.57872,-11.91567,-10.52185,-10.29037,-9.122271,-9.097485,-8.110073,-7.306099,-7.103871,-6.183865,-5.555293,-5.602257,-6.021152,-5.437713,-5.341893,-4.76004,-4.839418,-4.206508,-4.056387,-3.290069,-3.840987,-2.654075,-4.199591,-3.544717,-3.468427,-3.547466,-3.695898,-3.054369,-3.94671,-2.654656,-3.625407,-4.053948,-3.095621,-4.817903,-2.67522,-3.784635,-4.626625,-2.902858,-4.291068,-2.742294,-3.639938,-3.051822,-3.212699,-3.690821,-4.197487,-3.647827,-3.374039,-3.824006,-3.291805,-3.94266,-4.043047,-4.137844,-3.281337,-3.835509,-4.457637,-5.409256,-5.378545,-6.590935,-5.582193,-6.706085,-6.556442,-6.728586,-7.732178,-8.097831,-8.282923,-9.694069,-11.21188,-11.01796,-11.63723,-12.78422,-12.61573,-14.21567,-14.41482,-15.19447,-15.45374,-16.87219,-17.57508,-18.17069,-18.17161,-19.63951,-19.8095,-21.31542,-21.84225,-23.11811,-23.65072,-23.74984,-24.38633,-25.10948,-25.60335,-26.65152,-26.81959,-26.23556,-28.29177,-28.63088,-28.38389,-28.81326,-29.25292,-29.32254,-27.96718,-29.85253,-29.12351,-29.97323,-29.3609,-31.10531,-30.5959,-32.01953,-30.41988,-31.48506,-30.99147,-31.44765,-30.90993,-31.11664,-30.07031,-30.44907,-29.63916,-29.01851,-29.21575,-27.74016,-27.35374,-26.52849,-25.84618,-25.19855,-24.2458,-23.9961,-21.97988,-20.8933,-20.10715,-17.98883,-17.40499,-15.6765,-14.57038,-12.6987,-12.98621,-10.53599,-9.407931,-7.509515,-5.456667,-4.755709,-3.651972,-1.39008,-1.126645,2.533986,3.13286,5.113144,7.079684,8.223132,10.35107,12.43686,14.68292,16.2997,17.80899,19.99311,20.83832,22.47402,24.03551,25.47541,27.61226,29.14164,30.07688,31.36685,32.42754,33.65575,34.82018,35.32026,36.51165,35.84983,38.07583,37.74341,38.85353,38.60545,38.60574,39.0737,38.68352,39.36983,40.33691,39.69688,41.57446,41.78932,43.46398,44.6614,44.61685,46.33041,46.87187,48.36534,50.07482,50.0291,51.8903,52.57191,53.46175,54.7132,56.04281,55.98728,57.61017,58.16153,59.32979,59.76624,60.59862,60.83443,61.01831,60.98231,63.05217,61.54568,60.92488,61.22766,62.0139,60.0312,60.22785,59.54897,58.29951,55.48876,55.09751,52.6471,51.56632,49.14163,48.2841,45.50297,44.37557,41.54122,39.41857,36.95633,35.05413,32.43191,29.46171,27.36858,24.88852,22.31966,18.44659,17.47484,13.7282,11.85937,7.904653,6.289959,2.525852,1.143343,-2.155362,-3.70612,-7.291884,-9.561084,-11.87292,-14.95433,-15.89941,-19.30404,-21.13834,-24.19053,-25.75575,-28.18327,-30.33473,-32.40697,-33.7554,-34.53871,-35.81676,-36.13819,-38.0636,-37.16203,-38.36594,-37.28009,-37.84818,-36.75414,-36.41029,-37.08276,-35.69689,-34.91221,-34.85355,-31.64551,-31.39843,-29.85302,-27.66334,-27.84559,-26.50673,-24.41351,-23.62798,-22.04578,-20.67188,-19.45775,-18.6169,-17.51485,-16.82203,-16.58952,-15.31568,-14.91177,-14.29608,-12.67316,-12.08236,-11.8067,-9.692501,-9.601048,-7.585664,-7.566624,-5.857805,-6.012947,-4.614287,-2.618222,-2.441287,-0.8271697,0.175031,0.5027094,2.548248,2.723975,3.665372,5.015264,4.753196,6.242747,6.777328,7.508429,7.156259,7.620894,8.712237,7.812516,7.135033,7.605322,6.79977,6.456657,6.189136,5.843469,5.65011,4.190801,4.184853,2.539356,1.56753,1.353391,0.6255827,-0.1902634,-1.231629,-2.253419,-3.159359,-3.353549,-4.351696,-5.355494,-6.510238,-6.163413,-7.819244,-8.237793,-9.034794,-8.709321,-10.16575,-11.18491,-10.82587,-11.14066,-11.64415,-11.7468,-13.33301,-12.40697,-13.33791,-13.30398,-13.17259,-12.6807,-13.32936,-12.60756,-12.24905,-12.42754,-11.04477,-13.17971,-12.4279,-13.38418,-12.0986,-11.94334,-11.89759,-11.47062,-12.15853,-11.66029,-10.36589,-10.77935,-10.28869,-9.938563,-10.55122,-8.623519,-9.806139,-7.753129,-10.20443,-9.215475,-9.376936,-9.02171,-9.173813,-8.800786,-9.960381,-9.692126,-10.02778,-10.34484,-9.783561,-10.07482,-11.08255,-10.80452,-11.61243,-12.3192,-12.37654,-12.3641,-14.68876,-13.4462,-14.32587,-15.08188,-15.70423,-16.28786,-18.05449,-18.16429,-18.3322,-18.92766,-19.34092,-20.38048,-20.88572,-21.03779,-20.7916,-20.98452,-21.03244,-21.02084,-21.50075,-21.44762,-20.78775,-21.52993,-21.2385,-20.42844,-20.88099,-19.49812,-19.5385,-19.39419,-19.1603,-18.37795,-18.39271,-17.95185,-16.517,-16.22639,-15.10912,-12.95921,-13.78594,-11.90563,-11.25803,-10.84409,-10.16823,-8.670048,-7.551775,-6.502247,-5.595048,-4.460181,-3.6157,-2.980809,-1.094867,-0.8260994,-0.4481526,1.187258,1.478026,3.160637,2.610652,3.902941,4.572244,4.977936,5.784308,7.007258,7.867799,7.708393,8.93045,9.439928,9.011039,10.99003,11.83118,11.73299,14.3258,13.21859,15.82311,16.18243,16.92769,17.07429,18.31855,18.29445,20.73696,20.59252,21.51026,21.83078,22.69495,23.28163,23.69511,24.16273,25.81605,24.82896,25.83866,26.715,26.15411,26.90967,26.34949,26.37002,25.12001,26.35245,24.9606,24.78172,24.82733,23.89084,23.90908,22.82537,23.04861,21.73633,22.13079,20.55,19.66549,18.40162,18.19734,16.68757,16.65604,14.39436,13.59389,12.76431,11.1618,9.251126,8.205768,6.420998,5.939636,5.417432,4.387944,3.557286,2.520662,1.86025,1.146374,1.024067,0.3716013,0.7095584,-0.5261758,-0.6629891,-1.37067,-1.53937,-1.550354,-2.262953,-1.807084,-0.04225579,-0.6059584,-0.179559,0.06267037,-0.01414381,0.9320428,0.4935017,0.1202268,3.878232,-2.816065,-0.4552898,-1.378043,-3.385065,-3.716432,-5.568242,-5.649296,-5.667042,-6.774047,-6.805326,-7.914725,-8.579977,-8.51441,-9.292226,-9.489467,-9.99129,-10.00453,-10.81412,-10.24351,-10.23003,-10.8857,-9.577177,-11.22204,-9.352611,-9.813127,-9.351696,-8.414232,-8.848344,-7.795072,-7.430838,-6.35427,-5.474038,-4.937985,-3.126409,-2.093472,-1.314903,0.4874158,2.086521,3.785649,4.817329,6.423191,7.862338,10.41709,11.43724,14.15292,14.49216,16.81749,18.86982,20.60422,21.39523,24.30614,24.78916,27.82805,28.19227,30.41996,32.05848,33.01924,35.333,36.18494,36.85397,38.15213,39.13729,39.68564,41.3653,42.20774,42.5624,43.10775,43.25698,43.03494,42.92095,43.557,41.0548,40.97677,39.46839,39.06445,36.53478,35.29737,33.13579,31.72275,29.22907,27.74562,24.39831,22.8932,20.64242,18.81024,15.74303,14.10039,11.15807,9.257269,6.974842,3.968738,1.637478,0.02590671,-2.525606,-5.232383,-6.153957,-9.083316,-9.723782,-11.44904,-12.71389,-13.95578,-15.39488,-18.01389,-19.3421,-20.74539,-22.16489,-24.64108,-26.57796,-29.1815,-30.63388,-37.25719,-34.26252,-39.5183,-41.629,-43.10863,-46.08155,-46.85396,-49.21861,-52.74788,-53.60111,-55.9452,-57.67277,-59.24129,-60.66298,-62.39874,-64.34255,-65.49622,-66.89384,-67.82804,-67.89879,-69.69176,-70.45141,-71.23168,-71.94129,-71.90801,-71.82284,-72.51898,-71.83858,-71.41666,-71.01918,-70.03227,-68.84932,-67.3007,-67.59714,-65.13381,-64.10481,-62.24651,-59.38043,-59.66095,-55.59133,-54.61502,-51.87034,-48.64506,-46.66693,-43.72916,-41.39334,-38.39748,-35.80469,-32.27398,-28.93762,-24.92468,-23.33199,-19.16447,-16.81781,-12.59738,-9.744464,-6.793928,-2.937463,-1.197812,3.212909,6.769573,11.14375,14.9727,19.08312,22.53695,27.68084,29.62907,34.52663,37.30374,41.92902,45.00359,47.17992,51.46266,54.0498,57.40002,59.26766,62.57012,64.14659,67.62408,69.08411,71.96416,72.55943,75.87077,78.00759,80.41766,79.2462,81.57409,83.23466,89.45843,82.16857,90.35776,84.87692,90.42708,90.03965,88.91732,91.19553,88.24618,97.14759,83.76161,90.82839,89.21199,83.79405,88.11259,84.20549,82.77101,81.94788,80.33274,80.99935,74.21205,76.57994,72.34147,72.07157,67.63373,66.2777,63.63834,60.99709,58.03139,55.9027,52.39626,51.95841,45.63642,45.63743,41.31284,38.64402,33.25518,31.54642,28.58194,24.44672,22.12542,17.82112,14.16684,10.11437,6.30787,3.261162,0.5009869,-3.573114,-5.791566,-10.09338,-12.4352,-15.91474,-18.64674,-22.52888,-25.00112,-28.5766,-29.81096,-33.58706,-35.54333,-38.58472,-41.48407,-42.2649,-44.7789,-47.85476,-48.55447,-51.58967,-53.16085,-54.88484,-56.65785,-57.87456,-59.02471,-61.0131,-62.57719,-63.85583,-64.8496,-66.56479,-66.66597,-68.51626,-70.40246,-70.66717,-74.03877,-72.89354,-75.51294,-76.06077,-77.23138,-77.80228,-79.88699,-79.85448,-81.33687,-82.04432,-83.45598,-83.57881,-85.049,-85.39799,-84.76026,-86.41227,-85.89203,-86.93779,-85.3441,-86.05816,-83.04977,-83.54568,-81.86528,-81.00053,-78.68361,-77.0875,-75.54187,-74.15665,-69.67165,-66.84091,-64.02102,-66.67025,-54.69708,-59.89022,-49.5001,-50.5831,-47.25109,-41.67203,-40.07773,-34.1738,-39.9394,-24.96793,-28.41852,-25.36961,-17.36445,-19.23908,-14.07668,-9.708058,-7.344836,-3.448584,-3.434995,4.863529,3.954512,8.981043,10.08093,14.43353,17.01911,19.32982,21.95806,24.74166,26.58118,29.77674,29.62934,34.00571,32.91154,35.83928,36.32129,38.89901,39.02263,39.09892,40.12318,38.91643,40.10215,38.64447,39.40944,39.2969,37.53361,36.81977,36.34865,33.55095,33.34221,32.2777,30.49305,28.44058,27.68127,24.4548,23.86799,21.53666,20.20145,18.27627,16.67387,15.38465,13.20256,11.8302,11.77694,8.972417,8.680501,8.8198,7.528574,7.636378,6.732527,6.996649,6.144518,7.41719,5.828315,6.146722,6.014126,4.78931,3.470119,3.828074,2.932525,3.168678,2.265774,2.288146,2.980827,1.51055,1.418264,1.823386,0.9852178,0.3845772,1.534928,1.458147,1.684607,1.752466,2.104746,1.877825,2.489695,3.294513,3.76648,4.323943,4.821476,4.600292,5.748635,6.209787,6.422867,7.453284,7.899661,8.319995,8.656428,8.850702,9.844447,9.522556,10.10178,9.846075,10.32905,10.61911,10.41539,10.83113,9.995271,11.13555,10.30266,10.67278,9.219269,9.943007,8.72344,8.047129,8.544379,7.036341,6.689662,5.914513,5.730357,5.203569,4.25906,3.674083,3.171511,2.40881,1.98918,0.3325764,0.5558758,-0.6055383,-1.270692,-1.52568,-1.797244,-3.201436,-2.830598,-3.369972,-4.933353,-4.769637,-5.23694,-5.495551,-6.329164,-6.339664,-6.584939,-7.625943,-6.792281,-8.155058,-7.013767,-7.504623,-6.197508,-7.713812,-6.137279,-5.915289,-6.691388,-5.302141,-4.887723,-4.876641,-2.320055,-3.313839,-2.055188,-1.731118,-0.3157056,0.4949418,1.882124,2.901362,3.80558,5.191901,7.052902,7.921255,9.161234,10.32724,12.00056,13.41358,14.4336,16.07347,16.14403,18.33173,18.61725,19.24406,20.02408,20.75475,22.14091,21.25722,23.23177,22.32512,23.5777,22.55671,24.58454,23.61978,24.03374,24.50327,24.74367,24.73268,24.30537,24.94602,24.61577,24.73395,25.43004,25.44059,25.15311,25.40306,25.57402,25.83096,26.69194,25.16648,26.44539,25.97833,26.83112,26.41338,26.52064,25.43866,26.61236,27.08911,27.9762,27.06733,27.88253,28.49276,28.50302,30.12758,29.52524,31.35113,30.32382,32.18589,30.30976,32.58137,31.68193,33.16997,33.24898,33.35351,34.63592,35.24479,36.2112,35.49507,36.96115,37.00669,37.47769,38.25624,38.31484,39.75703,41.68228,39.65705,43.04194,43.33967,43.81192,46.06924,45.86468,48.54743,46.70599,49.97816,48.77488,49.26412,49.46969,48.97819,50.17234,48.8193,49.35757,46.44964,48.48377,45.64909,46.21969,41.43561,42.74723,39.58174,37.91038,37.25729,33.50042,31.12151,29.21567,26.58922,23.08054,21.34281,17.91126,14.55316,13.38723,7.379629,7.129344,1.598059,0.1136055,-2.603347,-7.403958,-7.853852,-17.1428,-15.51869,-20.95854,-24.33761,-27.26147,-32.09002,-33.83369,-38.64359,-42.13637,-44.78702,-47.54276,-50.38741,-54.21499,-55.38541,-58.71849,-61.31495,-62.972,-65.66479,-67.09725,-67.91091,-72.23828,-72.83764,-73.36456,-76.20204,-76.8758,-77.65072,-79.0434,-78.94129,-80.99869,-80.83857,-80.42301,-81.77883,-79.06381,-80.17681,-78.30285,-78.20115,-76.03523,-76.26385,-75.83331,-75.30862,-74.7191,-74.4272,-75.14939,-76.13959,-75.24249,-76.60556,-76.68112,-77.76697,-77.58134,-79.34768,-80.25988,-80.32217,-81.69919,-81.70331,-82.32096,-83.74423,-83.96923,-84.39759,-85.1093,-85.31705,-86.09516,-85.84125,-84.68052,-84.54735,-84.28873,-81.92279,-80.89897,-79.2726,-76.37296,-76.26457,-70.8785,-70.0615,-66.19117,-62.53699,-60.84967,-55.45088,-54.44082,-47.57516,-45.87083,-40.20788,-36.20727,-31.96049,-26.95287,-23.17692,-17.71458,-14.15252,-7.857156,-4.696135,1.49669,4.184398,11.53321,14.56938,20.322,26.29097,28.79999,34.15118,38.49441,43.38727,46.65551,52.73036,54.78417,59.65992,62.84419,64.72905,69.95479,70.56508,74.8288,76.01657,76.68437,79.90556,77.3746,85.79581,80.7953,83.29111,82.82794,82.86162,83.62765,81.42283,82.40184,81.51534,80.02611,79.72784,77.5732,77.17571,73.62845,72.60549,69.5762,67.82571,65.08329,61.39672,58.27232,57.15832,55.08289,51.17193,50.18699,46.39642,45.11794,43.71381,40.66323,41.5821,39.54483,38.91031,38.47751,37.33126,37.30784,36.02742,35.15588,32.95717,33.03592,31.81436,30.49192,29.16175,27.19707,27.07519,26.22441,25.48323,24.12789,23.86363,22.53135,20.39447,20.92096,19.74834,18.29921,17.74339,17.78857,16.23934,15.52169,14.44483,13.97316,13.30561,11.88144,11.64962,10.48096,10.33883,8.65614,9.128467,6.80189,6.699123,6.870118,5.149464,5.371517,4.005149,3.531482,3.126239,3.380583,3.475067,2.238383,2.423237,1.873354,2.704151,1.326825,1.998093,1.327779,1.744992,0.7702723,0.3892725,1.455359,0.211837,1.667192,-0.08258655,1.284051,0.1987707,0.6865239,0.3906506,-0.2846328,-0.4561036,-0.5003589,-0.7384802,-1.285454,-1.17136,-2.636294,-2.933546,-3.526425,-3.95114,-4.213718,-4.789121,-4.915789,-6.219889,-6.079239,-7.555155,-6.509637,-8.572935,-8.83919,-9.508662,-9.579933,-10.12162,-11.07192,-11.52449,-11.60821,-12.49468,-13.12644,-13.66372,-15.13799,-16.3643,-16.37946,-18.35937,-18.88305,-20.8401,-21.69086,-23.00092,-22.96533,-24.71173,-25.92475,-28.09147,-29.35872,-30.75409,-31.46335,-33.75481,-35.3384,-36.54648,-38.64716,-39.10545,-42.12831,-41.98863,-44.94822,-46.3708,-47.91255,-49.43425,-50.89195,-52.9827,-54.45149,-56.82474,-58.05606,-59.51292,-61.2149,-62.48304,-64.62982,-65.57889,-68.29852,-68.91111,-69.85977,-71.68491,-73.3632,-74.82355,-76.39985,-77.24624,-79.4561,-80.41058,-81.91022,-83.37275,-84.8539,-84.75262,-87.37749,-87.60559,-89.17156,-89.73584,-89.32747,-90.70393,-89.33516,-90.8615,-89.44333,-90.89674,-90.34253,-89.66743,-90.3782,-89.01352,-90.96978,-89.17976,-90.17423,-89.4641,-90.56411,-89.1209,-91.37875,-91.30818,-91.69198,-92.08727,-91.55552,-93.39179,-92.44895,-93.92333,-92.44382,-93.5453,-92.0602,-92.79824,-91.83747,-90.89023,-89.41665,-88.03717,-86.34462,-85.27936,-82.75564,-80.75104,-77.7559,-75.60909,-72.92292,-69.89455,-65.62876,-63.92015,-58.68569,-56.94588,-51.13406,-47.74945,-42.95341,-39.18519,-34.33137,-30.06839,-24.0543,-19.44245,-13.95894,-9.172887,-3.663879,3.069988,7.415686,14.21704,19.51672,25.12555,31.5254,36.32005,44.13533,49.01504,55.30926,60.68528,66.39721,72.70548,77.5838,83.10362,88.66851,93.24156,98.65515,103.0963,108.8499,113.286,117.3575,122.5084,125.8389,130.8284,134.3356,138.043,141.2232,144.5391,147.4606,149.8761,152.8989,154.7027,156.7684,157.4484,158.3127,158.1492,157.677,156.8882,157.311,156.3291,156.3371,156.1345,156.1896,157.2983,156.3808,157.6593,158.2875,158.7917,159.3653,161.047,161.5561,163.8077,164.5298,166.8824,168.2615,169.2588,171.8831,171.1279,173.7093,173.3289,175.3399,175.1275,175.7816,175.3467,174.7948,173.6725,172.4004,170.3878,169.217,166.8134,163.999,161.7116,158.9495,154.0954,152.1086,146.7891,143.3094,139.3106,134.3134,129.3869,125.6083,120.1464,114.8782,109.4165,103.3048,97.36049,90.91771,84.08091,78.00716,71.63655,65.5871,57.8613,51.24312,44.57211,38.01671,30.93279,23.58781,16.58646,9.586675,3.040315,-3.258745,-9.669443,-15.59977,-20.93136,-27.27354,-32.12258,-37.08119,-41.75163,-46.08733,-50.3747,-54.37243,-56.46601,-61.51792,-63.07348,-66.09802,-67.4484,-69.7014,-71.19944,-72.6158,-73.96628,-72.83178,-74.10664,-74.4911,-74.03689,-73.46425,-72.55666,-70.72113,-69.99957,-67.95852,-66.39856,-63.78227,-62.52718,-59.67613,-58.07016,-55.3531,-54.39325,-50.89206,-49.71989,-47.73584,-47.07193,-44.23217,-45.13094,-44.03216,-44.93861,-44.46673,-45.8315,-45.95828,-45.16912,-44.87336,-45.54171,-45.04616,-44.55974,-45.63375,-44.22022,-45.72418,-43.67437,-44.99811,-43.22287,-45.29213,-43.97651,-44.84384,-45.03159,-45.56532,-45.18372,-46.69174,-45.76097,-47.12367,-46.85328,-47.47679,-48.3744,-47.66344,-49.60021,-48.64215,-51.57743,-50.72188,-52.55389,-51.59987,-52.89136,-52.06556,-53.29489,-52.62191,-53.28999,-52.25775,-53.72779,-52.15128,-52.76152,-52.30902,-51.46308,-52.34877,-50.95077,-49.93923,-50.67806,-50.11091,-50.86163,-49.59246,-50.10972,-49.02543,-49.58022,-49.15784,-48.02792,-49.30328,-48.49843,-48.97083,-48.72876,-49.47544,-49.02377,-50.34429,-48.94364,-50.64511,-50.39522,-50.62918,-51.29147,-50.89082,-52.08489,-52.93049,-52.07036,-53.82815,-54.22582,-54.21761,-56.34774,-55.3801,-57.46936,-57.15988,-57.75348,-58.41762,-58.69722,-59.74483,-59.92745,-61.41245,-61.3626,-61.9736,-63.50294,-63.96351,-64.45394,-65.68185,-66.4662,-66.40875,-67.85053,-68.56638,-68.2587,-69.6263,-69.83254,-70.47731,-71.24243,-71.35882,-72.61506,-71.38101,-72.54855,-72.24757,-73.48161,-72.37778,-74.05356,-72.8532,-74.01008,-74.0457,-75.30334,-74.18186,-73.88002,-74.15598,-75.37267,-74.14665,-74.87602,-74.72911,-73.55019,-74.11524,-74.24839,-74.06015,-73.76878,-74.15129,-72.43633,-72.41761,-70.79335,-70.91913,-69.4496,-70.66822,-68.99669,-70.35704,-70.26511,-70.51198,-71.52538,-71.93171,-73.2856,-72.85446,-73.87641,-72.83272,-74.01551,-73.44243,-72.00008,-72.13458,-70.95832,-70.7206,-70.3309,-69.03727,-69.35918,-67.76876,-67.14951,-65.7428,-63.68144,-63.3574,-59.71023,-59.13621,-57.08391,-54.40207,-52.6223,-48.29714,-47.33092,-43.7213,-41.05495,-36.23519,-33.18813,-29.57563,-25.04605,-21.6384,-15.90163,-12.51872,-6.155808,-2.899925,3.45943,8.016796,13.72075,19.33373,24.50487,30.63028,36.14608,41.76081,47.8167,52.45088,58.69022,64.44267,69.77279,75.65487,80.58621,87.35805,91.89143,97.43615,102.1017,107.5576,112.0998,117.414,122.0329,126.4835,131.0155,134.521,138.9908,141.605,147.0773,149.4085,152.4871,155.1863,158.0924,157.9372,159.8748,160.5868,162.0293,162.6615,164.0242,165.4253,166.5716,167.666,168.695,171.2172,171.8549,173.7671,175.8555,177.8745,179.8717,181.7644,182.3885,185.1095,184.9522,187.5253,187.1613,189.6378,189.9507,191.0232,190.4999,192.4141,190.9286,192.7776,192.4206,191.7185,190.3945,188.7795,186.6513,183.4333,182.3032,177.8479,174.8995,172.2105,168.2775,164.1931,160.9299,156.0962,153.733,148.3155,143.7161,138.5637,132.6307,125.4726,120.1901,111.8947,106.1395,98.63286,90.71164,84.3511,75.06247,68.31334,58.7359,52.12414,43.30217,34.79689,25.97043,18.38429,9.930447,1.458216,-7.287449,-15.26236,-23.80821,-31.17155,-39.45506,-46.49042,-54.13753,-61.01507,-67.62656,-74.0023,-78.88125,-85.89161,-89.68247,-94.97897,-99.99841,-103.73,-108.2177,-110.6543,-114.6754,-117.2349,-119.7077,-121.5085,-123.0863,-123.4908,-124.8718,-125.6283,-125.4587,-125.0916,-124.4311,-122.2767,-121.5202,-119.169,-117.6086,-115.423,-113.3941,-110.8964,-109.2171,-106.7726,-104.6412,-102.0982,-99.83111,-98.96023,-97.45581,-96.39481,-96.13615,-94.8466,-93.38201,-92.72737,-90.67076,-89.22631,-86.48051,-85.84166,-84.44431,-82.34726,-80.36354,-77.91898,-75.51742,-73.44174,-70.89879,-68.64822,-67.62399,-65.19457,-63.82439,-60.89753,-60.21643,-57.63021,-56.34578,-53.4461,-52.69595,-50.86027,-49.29444,-47.7022,-46.9129,-44.22424,-42.52494,-41.54908,-39.50419,-38.05775,-37.35274,-34.27881,-33.37778,-31.54097,-30.43902,-27.38289,-26.06819,-24.40038,-22.04871,-20.3057,-18.24487,-17.20153,-15.51726,-14.18589,-12.76707,-11.03304,-9.24676,-8.076611,-6.473082,-5.43679,-4.610566,-2.476551,-2.168232,0.5953698,0.5280419,2.439612,2.275321,4.979566,4.646163,6.644869,6.164317,6.776477,8.019767,7.785621,8.365347,9.28957,9.367937,9.382041,9.805278,10.91546,10.82316,11.47509,12.46325,11.20806,12.74371,11.80372,11.32526,12.25156,11.82931,12.15308,11.79434,11.92316,11.32287,12.742,11.74609,12.21909,11.31932,12.03332,11.98654,13.04482,12.17311,13.40892,12.11005,14.97956,13.39983,14.68846,14.48033,15.79787,15.7974,16.39589,17.18637,17.73342,17.82734,20.09481,19.45294,20.93726,20.94302,22.86001,22.05665,24.28806,23.7889,24.98525,26.61459,26.10089,27.78621,29.09995,28.83889,30.93921,30.93127,31.73459,32.85985,33.62695,34.10755,35.36394,35.42375,36.57192,36.87966,37.76862,38.41269,39.57965,39.30285,39.76523,40.50644,40.11332,40.32024,41.68256,41.00524,42.05503,42.26886,42.59536,43.10498,43.95957,43.95662,45.91683,46.48682,46.33016,47.42591,47.67626,48.09412,49.61687,49.32086,51.33871,51.2684,52.20498,52.04294,52.87206,52.94304,52.20883,52.72997,52.51046,53.69179,51.60552,52.68123,52.41181,51.20604,50.92158,50.63696,49.04763,48.65332,46.50696,45.33076,43.68299,41.62053,39.904,37.74723,35.55557,32.98444,29.81784,28.97386,25.00422,22.66173,18.15181,16.75713,11.26968,10.57651,5.187622,2.657101,-0.719621,-5.303809,-8.118971,-12.65063,-16.30453,-20.79325,-22.75324,-28.43841,-30.39118,-35.54251,-38.20185,-42.0899,-45.01387,-47.98212,-50.66152,-54.15132,-55.87565,-59.00507,-61.6862,-63.76875,-66.1633,-68.80653,-69.58575,-71.74274,-73.43575,-74.84093,-75.46994,-77.01684,-77.84962,-78.49003,-79.76364,-79.21375,-78.11711,-79.26476,-76.96148,-77.26299,-77.15209,-76.03921,-75.62935,-75.27067,-74.11551,-74.31466,-73.74548,-72.15932,-73.3178,-72.75455,-73.13469,-73.49409,-72.59237,-74.2921,-74.16439,-75.03024,-75.04202,-76.70327,-76.84794,-77.96552,-78.81002,-79.15568,-78.82078,-79.80193,-79.79687,-80.02204,-79.91224,-80.03435,-79.63392,-79.86693,-78.81762,-79.37763,-78.95141,-77.31507,-77.83696,-75.67528,-74.6838,-73.07137,-71.56089,-70.51073,-68.33333,-67.05799,-62.79701,-62.92197,-60.07225,-56.43428,-55.27453,-50.36294,-50.20387,-44.6137,-42.77539,-39.15592,-35.08213,-32.28883,-27.95412,-23.4159,-21.09765,-15.30992,-12.52293,-8.352247,-3.558309,-0.49825,5.057169,7.820977,12.03046,16.45734,18.61154,24.02685,26.27899,31.60189,33.01671,38.16401,38.80021,43.52239,44.87626,47.35072,50.54763,50.61179,54.85586,54.20621,58.38534,57.80967,60.54938,60.16991,62.73704,61.68525,64.17864,63.13842,63.57626,63.5533,64.35924,64.19249,62.93987,64.08088,62.18313,62.51678,62.34804,60.80085,61.68964,60.2871,61.2944,59.6561,60.31558,60.24333,61.04143,61.63171,61.47352,60.46231,62.04008,61.14381,62.25384,61.37797,62.21929,60.61149,61.34511,61.12068,60.09404,61.02522,58.44186,59.47734,57.68969,57.49478,56.47087,55.19581,54.08295,53.12992,52.08465,50.58661,50.1945,48.04804,47.96751,46.34396,45.04004,44.58391,41.58025,42.44687,39.63052,38.5327,37.44383,35.46715,34.11029,31.2811,30.06105,28.237,25.59385,25.72263,21.96375,21.46231,18.95466,17.98056,15.74949,12.91612,12.39645,7.915017,7.602049,4.598878,1.548601,0.3731615,-2.637561,-4.342563,-6.143576,-9.064971,-10.20721,-13.14774,-13.91502,-16.54399,-18.92423,-20.47609,-23.48962,-23.79142,-26.82072,-27.88791,-30.04401,-31.43545,-34.14869,-35.28761,-37.46351,-38.0561,-39.63146,-41.02867,-42.51719,-44.51003,-45.70719,-45.94784,-47.67427,-48.14776,-50.26545,-50.26108,-51.48981,-52.78846,-52.95257,-54.54632,-54.94339,-54.9738,-55.80414,-56.49148,-55.68755,-58.06919,-55.87654,-57.47531,-56.21821,-57.01895,-56.68557,-56.1361,-56.35566,-55.39158,-55.46013,-54.89696,-53.95923,-53.2988,-52.53844,-52.51599,-50.01226,-50.50835,-48.12065,-48.87376,-47.02875,-47.07593,-44.7361,-45.19279,-43.14737,-43.56278,-41.4436,-41.34616,-38.64566,-38.91716,-38.59416,-37.10314,-36.16373,-35.09968,-35.01597,-34.04356,-34.44584,-32.16763,-32.92054,-30.51245,-31.7658,-29.90374,-31.07273,-29.56404,-29.11873,-29.26306,-28.78651,-28.49911,-29.55262,-27.87566,-29.486,-28.07738,-28.68984,-28.98815,-27.95234,-28.8636,-27.74728,-27.72715,-27.84861,-25.43987,-27.52045,-24.28279,-25.03088,-23.52147,-24.30365,-22.06026,-20.62009,-19.79664,-18.53698,-17.45184,-17.15604,-13.88287,-13.06649,-10.86988,-9.310285,-7.522037,-5.601114,-4.785641,-2.042089,0.7040815,1.594637,4.621754,5.642771,9.418838,8.615554,13.84473,14.46521,18.61452,18.76668,23.23899,23.97048,27.66402,28.865,32.51439,33.41322,36.75122,39.37029,41.10549,43.66368,45.57171,47.06411,50.90563,50.46622,54.39981,55.33061,57.31376,58.99205,61.22021,62.98897,64.84081,66.14591,67.8016,69.27115,70.21632,71.66445,72.34351,73.15232,72.92823,73.55609,73.0853,73.2931,73.12305,73.15851,72.74095,72.51586,72.56705,73.41172,72.86296,74.58076,73.69938,75.74688,75.24442,76.74738,77.01063,78.93808,79.2106,80.46109,81.27599,81.61382,82.82513,82.62227,84.50198,83.85407,84.15189,83.62244,84.15906,83.85449,84.41045,82.36859,83.66921,81.3795,81.72154,78.70276,78.92919,76.04066,74.96914,72.29241,70.37114,67.99144,65.89985,63.43472,60.49164,56.86662,54.27726,51.09749,47.0921,43.36247,39.59855,35.33969,32.2493,26.9373,23.8103,18.54851,14.31578,9.822781,6.78582,1.185562,-3.387357,-7.324429,-12.3215,-15.67458,-20.06543,-24.23414,-29.29241,-33.30669,-37.4072,-41.65227,-45.50691,-48.675,-52.08222,-56.83378,-59.17907,-63.92913,-65.37963,-69.03662,-70.17019,-72.57589,-75.1884,-77.49378,-78.54561,-81.08932,-80.95561,-82.46167,-82.16206,-84.08519,-82.84184,-83.8586,-83.94869,-82.83768,-82.24531,-80.98213,-79.911,-79.47565,-77.80205,-75.88613,-74.81209,-70.96938,-69.95019,-67.00179,-66.06381,-62.75729,-61.26345,-59.62317,-56.90931,-57.36123,-53.87878,-53.35895,-52.62051,-50.02961,-49.88623,-47.00304,-46.52232,-45.0648,-43.27673,-42.4024,-39.75206,-38.04002,-36.757,-33.80161,-32.93343,-29.92959,-29.03746,-26.21922,-24.83035,-22.16338,-21.01441,-18.38526,-17.46399,-14.93387,-12.98428,-11.7194,-9.851643,-8.334743,-6.15553,-5.214407,-2.148763,-1.03928,0.8187611,2.845558,5.450306,5.801769,8.930608,9.334072,12.45968,13.63205,15.91103,17.53868,19.0887,20.99036,22.60755,24.361,25.56455,27.58641,28.84644,29.86829,31.27008,32.2771,35.01069,35.11064,37.83463,37.16895,38.75593,39.5985,40.43827,41.06006,41.77296,41.83208,41.76074,43.12057,42.30703,43.61596,41.72407,42.63804,40.93495,41.71058,41.55138,40.67504,39.36224,38.93706,37.66381,36.12253,36.01237,34.5082,34.9314,32.67962,32.132,30.42915,28.01176,27.57151,26.42073,23.70213,23.654,20.44182,19.93865,16.08727,16.95265,14.12604,12.8265,12.14823,10.28116,8.603625,7.178092,5.354691,4.366837,3.602366,1.374647,1.2257,-1.042388,-0.1669704,-2.70726,-1.714117,-4.374059,-4.041149,-5.9173,-6.267806,-5.416788,-6.804709,-7.501651,-6.373619,-8.74448,-7.410209,-9.283783,-8.735682,-9.419517,-10.34506,-7.859523,-10.4441,-9.07106,-10.36133,-9.307761,-9.181456,-8.676133,-7.085541,-7.316796,-6.504649,-6.371384,-4.096451,-5.06001,-3.233344,-2.820315,-3.009902,-0.6419245,-1.08307,0.299411,-0.3277255,0.5371001,1.099544,0.8612479,2.879889,1.728788,2.300328,3.179652,2.770009,3.955542,4.075927,3.685348,4.927899,4.344084,4.601099,5.120102,5.798034,4.825615,5.569724,4.872769,5.88784,4.675053,7.224089,5.313823,5.900104,5.079443,3.945396,4.448436,3.476023,2.900717,1.321329,1.151994,-0.7728867,-0.9840601,-0.7966396,-3.057837,-4.094308,-5.99462,-6.575837,-8.586051,-8.704395,-10.30653,-11.96443,-13.74444,-14.29868,-15.59749,-16.93513,-17.31331,-19.12112,-19.95761,-22.17733,-21.82746,-25.53626,-23.98847,-26.75061,-27.27052,-29.44077,-29.5027,-31.36073,-30.38648,-32.337,-30.57752,-33.86111,-33.64237,-33.74024,-35.10126,-34.65118,-35.29216,-36.20318,-34.60458,-36.25984,-35.5754,-35.39308,-35.03756,-34.63544,-35.12015,-34.6729,-34.77759,-34.40293,-33.83294,-33.66796,-31.33183,-33.26668,-30.77101,-31.26383,-30.37589,-28.61445,-29.53094,-27.29372,-28.03827,-25.56084,-24.91277,-24.73331,-22.95817,-21.97595,-19.58101,-18.67375,-17.07838,-15.77525,-14.67331,-13.26947,-11.63969,-9.80285,-9.04095,-7.348763,-4.748586,-5.749562,-1.542019,-3.861764,-0.2993491,-1.637296,1.514829,2.086505,2.426166,4.023627,4.363568,5.364229,7.712119,7.161118,9.347563,9.788106,10.68065,11.89904,13.02377,13.42906,16.32233,16.06115,17.49445,18.69549,19.4203,21.09409,21.46959,23.32538,22.57301,24.60856,23.92688,25.93016,25.64008,26.50324,26.51602,26.99982,27.46837,27.85586,28.39975,28.63734,27.72416,28.46968,28.74068,28.89323,28.96717,29.478,29.69984,29.51981,29.37333,30.10338,29.73694,29.79816,30.87587,30.69521,30.6302,30.96342,30.81313,29.90628,31.39065,29.76077,30.89673,30.38824,30.48865,31.03613,30.6134,29.97159,30.07201,29.05957,30.00659,29.63793,28.52956,29.4174,27.80627,28.40272,27.42691,26.33177,26.03845,25.30577,24.62863,23.3974,22.94041,21.12291,21.13905,19.39213,19.36742,18.00048,17.45333,14.71069,15.96946,12.9314,12.70541,11.2524,9.621769,9.191842,7.151683,6.309936,4.697528,2.994849,1.870116,0.1090027,-1.654618,-1.95785,-5.098865,-4.937929,-7.207478,-9.512766,-9.709152,-11.72111,-12.25346,-13.91727,-15.07758,-17.35968,-17.61817,-21.08999,-19.82435,-23.26794,-22.49375,-26.14909,-26.6075,-28.19571,-29.51297,-31.03756,-31.92781,-33.98295,-34.49356,-36.87655,-37.11,-39.83511,-38.97021,-42.34681,-41.70381,-44.80846,-44.43586,-46.99118,-46.68102,-48.65463,-49.95717,-50.80307,-52.0661,-53.11554,-54.60112,-55.42098,-57.53999,-56.86625,-59.68034,-59.0815,-60.08233,-61.36425,-60.56421,-62.0136,-62.28476,-62.67694,-63.55193,-64.91144,-65.40236,-66.64703,-67.25514,-69.25343,-69.42927,-71.21677,-71.60858,-73.52135,-74.10701,-76.03445,-76.56596,-78.02769,-78.92053,-79.62179,-79.873,-80.68657,-81.4324,-81.2018,-81.98028,-81.33859,-81.53767,-80.8512,-81.10984,-79.08977,-79.53684,-77.4413,-76.56209,-73.51776,-73.8521,-70.20859,-70.02291,-66.69774,-65.53008,-61.75775,-59.65328,-56.0962,-53.76088,-50.31388,-47.87112,-42.92334,-40.54778,-36.12001,-33.48709,-29.03995,-25.26227,-21.44686,-17.69569,-13.64168,-9.342285,-5.319044,-0.09678855,2.917297,8.506299,11.40885,17.24308,19.68366,26.2282,28.50484,34.23252,38.09339,42.89805,47.89325,53.37019,58.34258,62.67697,67.0713,69.69586,73.59404,75.48132,80.14535,81.49264,83.28018,85.61657,86.48032,87.79685,88.98286,88.8641,89.96679,89.0204,88.90546,88.46427,89.78652,88.51359,89.53946,89.59116,89.2839,91.01706,91.39391,94.18427,94.27195,96.72402,97.55269,100.9096,102.8798,104.4726,107.2123,110.064,112.71,115.4899,119.2088,121.0721,124.7947,127.3518,129.5466,133.974,134.5783,138.3217,139.3632,140.8018,142.7964,143.5601,144.6904,144.7053,145.4064,144.2703,144.793,142.7289,142.5626,139.5592,138.8756,136.9456,133.9055,131.4183,127.8668,124.4338,120.6288,115.8939,112.9285,106.7347,102.7515,96.63629,91.25915,85.72127,80.16663,72.87276,68.5848,60.87741,54.87402,47.54166,41.73804,33.95029,28.34058,20.95941,15.04677,8.381538,2.014415,-5.359833,-9.903945,-16.77074,-21.79215,-28.98745,-34.3582,-40.50546,-45.67055,-50.23811,-55.8353,-59.30251,-63.94768,-66.58522,-71.68927,-73.12338,-77.55415,-78.56256,-81.48552,-81.65122,-83.41935,-82.53095,-82.96935,-80.54726,-80.48069,-77.78303,-75.79085,-74.66747,-72.05479,-71.66925,-68.99381,-68.72853,-66.34156,-65.36193,-63.68062,-63.35136,-61.29411,-61.06042,-60.23224,-61.14329,-59.88905,-62.35693,-60.81386,-63.05899,-61.15186,-62.50363,-62.20775,-62.55724,-62.56422,-63.10318,-61.85352,-62.62094,-61.3185,-61.62994,-61.39303,-60.75042,-60.32348,-59.06507,-60.3567,-59.49043,-59.48211,-58.02545,-58.78358,-56.98441,-57.11218,-55.99259,-55.43715,-53.88482,-53.34962,-50.70562,-50.70657,-47.59529,-47.72351,-45.30555,-43.41455,-42.94705,-39.88251,-38.8191,-36.57066,-35.91831,-32.19011,-30.96152,-26.85965,-27.21165,-22.56058,-21.24487,-20.58314,-17.38282,-15.05147,-13.37752,-10.93971,-9.456211,-6.466841,-6.407985,-4.297454,-3.42575,-0.6395303,-1.135725,0.8105414,2.249396,3.507418,4.06078,5.195528,6.496555,5.68121,7.635145,8.427337,9.166546,10.07625,11.74525,10.99262,12.46617,12.70318,12.26299,12.48209,13.16194,13.06881,13.39859,13.5066,12.14399,12.57414,12.49296,11.13841,11.8529,10.48735,11.42741,9.214728,10.31043,8.721404,9.239257,8.227765,8.480383,8.93703,8.662133,8.591383,7.537721,8.630872,6.981856,8.968702,7.373444,7.284098,7.215313,7.469589,6.050429,7.479089,6.754722,6.701794,6.320793,6.362288,6.05667,6.372331,5.638613,6.856579,5.936697,7.128383,5.472616,7.545656,7.063009,6.660752,7.815789,7.975096,7.855433,9.865198,8.821761,10.85868,9.650119,11.1465,10.47823,11.20017,11.55938,12.24389,13.46812,13.14087,15.05449,13.83687,15.56702,15.22461,16.40601,17.15981,17.89149,17.96347,19.1444,18.50316,19.91029,20.22828,20.23338,21.8197,20.14674,22.47514,21.05453,23.46114,22.45488,22.22176,21.7063,22.96772,22.37789,21.97837,23.78814,22.40361,22.67704,22.91391,22.59733,22.20184,22.04981,21.26197,22.17306,20.08046,20.52547,19.95957,19.13655,18.40771,17.78492,17.68957,16.54451,17.68402,17.33376,17.82781,16.79569,17.31624,17.14009,16.59543,15.85805,16.32915,14.9523,15.78954,14.54078,13.53059,12.37369,11.48815,10.35127,10.69204,8.758668,9.582697,6.845768,7.463712,4.851283,4.625237,4.502618,2.721464,2.772225,1.540664,1.16381,2.360608,-1.301166,-0.02022676,-2.26946,-0.3238406,-3.414934,-1.348456,-6.331879,-3.260958,-7.31353,-3.528764,-10.13347,-5.624645,-10.42579,-9.245865,-11.73466,-10.85517,-12.34803,-13.56845,-14.07654,-15.9309,-14.49817,-17.309,-16.8125,-17.9947,-19.43362,-18.9137,-20.16583,-20.38811,-21.05056,-22.52832,-23.17831,-23.35317,-25.30223,-25.55485,-26.24389,-25.96313,-26.9861,-26.59079,-27.26189,-28.13646,-28.57947,-29.68566,-31.32077,-31.18729,-33.67067,-34.80289,-37.04284,-39.35739,-39.84067,-43.4794,-44.16702,-47.06116,-49.17555,-51.91045,-54.27167,-54.31748,-60.35575,-58.13866,-63.85546,-62.29703,-66.12563,-65.60349,-68.88721,-68.60619,-71.21927,-71.38858,-71.18752,-72.22739,-71.96449,-72.39512,-71.63293,-71.81068,-71.33661,-70.33614,-69.47559,-68.67463,-66.40925,-63.63575,-61.80699,-58.49296,-56.11403,-51.62143,-50.34151,-44.74588,-43.52077,-37.70652,-35.53828,-30.55965,-28.2867,-21.68168,-20.51282,-13.07654,-11.72656,-5.613509,-1.723632,3.514229,7.375063,11.80702,15.41255,20.54234,22.37877,29.0988,29.98519,36.47347,38.89083,42.88141,45.37773,49.64128,52.28097,56.08668,56.7079,62.68221,61.98848,66.53736,65.80224,69.57561,69.09676,72.75715,71.3064,74.89029,70.69728,76.34501,72.18954,75.02613,72.97084,74.47839,72.16495,72.1175,71.87768,69.4044,70.69653,66.53396,67.49158,64.97328,64.36749,62.92097,61.01774,59.69046,58.47508,57.45007,57.06966,55.27609,55.19971,54.06516,55.75855,53.53946,54.06544,52.89955,52.23737,51.50488,50.83976,49.39051,47.89233,48.15641,45.05951,45.45148,42.95518,42.27475,40.81372,38.49251,38.5389,35.38935,34.29963,31.34499,30.57008,27.72007,25.5148,25.52214,21.26793,21.35642,16.79642,16.19895,13.28798,12.12616,9.327796,8.188016,6.417823,3.470587,1.56835,-0.6108766,-1.938798,-4.444523,-6.533693,-7.905416,-10.89986,-10.99543,-14.24258,-14.81778,-18.26323,-18.0756,-21.85475,-21.24777,-25.1384,-25.30262,-27.31212,-27.91889,-29.7731,-29.96077,-32.38072,-31.49762,-34.7117,-33.62753,-36.1919,-35.33046,-36.73735,-36.55879,-38.07873,-38.61985,-38.98555,-39.45815,-39.90853,-40.09416,-40.68099,-40.99366,-41.12101,-42.24084,-42.20544,-42.33487,-42.24019,-42.43459,-42.91964,-42.28279,-43.97791,-42.63999,-43.94644,-42.03937,-44.1183,-42.98276,-43.28749,-43.46361,-44.17488,-43.63917,-44.44531,-44.17773,-44.88572,-44.79205,-45.56085,-44.93283,-45.10922,-46.13736,-44.89554,-47.29558,-46.0832,-46.77628,-47.74429,-47.06996,-48.35905,-48.07086,-48.65848,-48.00316,-49.95995,-49.34789,-48.87373,-50.35015,-48.9044,-51.35576,-50.02025,-51.15254,-50.69608,-51.05183,-51.46869,-51.67703,-50.71373,-51.24283,-50.8699,-50.99464,-51.03088,-51.4169,-50.42327,-50.00992,-50.22185,-50.72178,-50.0421,-50.44412,-49.45137,-48.84603,-47.6993,-48.26254,-47.11557,-46.59655,-45.59401,-44.69167,-43.46185,-42.48776,-40.95038,-40.86252,-39.08186,-38.30107,-37.17839,-35.55062,-35.23535,-32.90138,-33.24316,-30.88832,-30.09921,-29.23176,-28.13018,-26.78446,-25.46968,-23.34304,-23.12312,-19.56233,-19.79311,-16.19637,-15.40557,-13.93342,-11.60016,-10.24242,-8.927336,-6.470345,-6.09775,-2.451472,-1.423826,0.7615534,2.6082,4.581796,5.077279,7.71551,9.532362,11.90856,12.35493,15.09229,15.32782,17.36189,19.3482,19.41085,22.90776,22.61638,25.02044,25.53239,27.13905,29.24596,27.87399,32.16976,30.69199,34.10542,32.34278,36.17577,34.08113,36.62245,35.65892,38.58469,37.9924,39.86286,39.87389,41.37143,40.91922,42.47657,43.16005,43.56655,44.73318,44.91517,46.01374,47.48404,47.54812,49.8113,49.59508,50.8282,52.56219,53.03819,53.86577,55.41076,55.91163,55.67024,57.83991,56.92852,58.16486,57.80992,58.24458,59.41758,60.3395,62.26953,62.82629,63.15583,65.00404,65.95441,67.24983,69.11119,70.75,71.53044,73.75813,75.24351,76.90837,78.42857,79.48813,81.76942,82.41891,84.65447,86.90827,87.96845,89.83524,90.29335,92.30468,92.56662,93.90554,92.25466,94.14871,92.88925,91.52962,91.82371,88.79407,89.73807,84.94447,86.4927,82.08888,81.78193,77.74453,75.99387,72.98568,70.60919,67.62166,64.98087,61.10318,57.88613,54.60077,51.47888,47.08658,44.17964,39.39615,36.44189,31.35086,28.99635,21.97864,20.12842,14.15667,11.43538,6.305067,3.979962,-1.05477,-4.051205,-9.449792,-10.79792,-17.16944,-18.13192,-22.4941,-25.91502,-28.80947,-32.49389,-35.01227,-38.29572,-39.11079,-44.44336,-44.87559,-47.3725,-51.04322,-52.13937,-54.29335,-55.30797,-57.06596,-56.98069,-58.38914,-59.10328,-60.4177,-60.06585,-60.70884,-60.79043,-60.23731,-59.63761,-58.31177,-58.86571,-56.35206,-56.65663,-53.41626,-52.67759,-51.23242,-50.53684,-48.0359,-48.77446,-45.51566,-46.62916,-42.99564,-43.76294,-42.14938,-41.94991,-40.96986,-41.75061,-40.79735,-40.11796,-38.91693,-36.74234,-37.46515,-34.77218,-37.3022,-34.72047,-34.11721,-33.33766,-32.82157,-31.51801,-31.02417,-30.3599,-28.78732,-29.47701,-27.65575,-26.93331,-26.11201,-23.934,-23.03557,-21.66297,-19.88906,-19.52863,-16.67761,-16.95159,-14.99612,-14.30946,-12.01496,-12.31364,-9.013971,-10.87957,-8.215319,-7.068873,-7.765477,-4.639264,-5.832488,-2.770187,-3.801046,-1.628441,-2.472802,-0.1209156,-0.7618887,1.689339,1.399471,2.406339,3.091854,3.754855,4.638928,3.631414,4.69392,4.936615,5.041033,5.522298,5.71862,6.049267,5.635812,7.366146,5.347636,8.159641,6.622605,8.175535,6.864115,8.414933,6.596907,8.269895,6.84172,8.066968,6.88301,6.706673,6.355566,6.176634,5.858473,6.385216,5.359266,3.566997,5.193626,2.37412,3.266776,3.49477,3.3577,2.56532,0.8965366,0.98327,0.1296378,-0.7184388,-0.7960006,0.06580384,-2.031694,-0.9724776,-1.448521,-2.150744,-1.687563,-2.440509,-1.399538,-3.291673,-1.261566,-4.735403,-2.627213,-4.109095,-3.69464,-5.064701,-3.93391,-3.989513,-3.400619,-4.423907,-4.161262,-4.763775,-4.628281,-4.400511,-3.504698,-3.16607,-3.774874,-2.995932,-4.441089,-1.698796,-4.366885,-1.373055,-2.207536,-1.740345,-1.144668,-2.298798,-0.2053997,-3.121949,0.01074997,-2.001666,0.1240563,-0.9244895,0.3016904,0.6320905,0.9706809,1.39484,2.857979,2.144074,3.916703,4.571087,3.685178,6.715092,6.200387,7.591964,8.203572,8.016232,10.26121,9.462274,10.82898,12.5014,12.41822,14.53118,14.46568,15.7621,17.17537,17.04592,18.53181,19.80099,20.27346,21.56577,22.59429,22.70597,24.7736,24.47862,27.12627,27.54524,28.40725,29.96514,30.66612,31.49433,32.92777,33.94888,34.26009,37.40415,36.06754,38.74857,37.94431,40.22737,39.5668,42.36645,41.84813,42.31891,43.25917,43.51714,43.42089,43.33588,44.30207,42.44127,42.51752,42.05065,41.94846,39.46863,39.82844,38.01833,36.18417,34.48445,32.20216,32.4545,29.38495,27.76178,25.77779,24.8098,21.38967,21.53371,18.24553,16.21098,14.21918,11.46835,10.15962,6.725347,6.356073,1.499228,1.311352,-2.013703,-4.322082,-5.794394,-8.311939,-9.783626,-12.93937,-14.38759,-17.2039,-18.38067,-20.66051,-22.46375,-24.11802,-26.2746,-27.5259,-29.3312,-30.45786,-31.6457,-33.39828,-34.01994,-35.55181,-37.19188,-37.12296,-40.08684,-37.95537,-42.48813,-40.14785,-42.11708,-41.911,-42.60541,-43.08721,-44.56531,-43.46563,-45.09675,-44.3708,-45.60311,-45.15386,-46.18733,-46.6864,-45.38477,-47.34194,-47.40349,-47.53247,-48.65306,-49.39984,-49.96593,-50.12622,-50.12912,-51.73168,-51.07222,-53.32276,-53.20163,-54.09303,-54.85357,-54.18701,-55.19108,-56.38852,-55.84233,-57.03961,-57.02432,-57.29114,-58.65436,-57.54714,-58.63106,-57.79327,-57.05498,-58.58576,-56.14614,-57.20798,-56.02679,-55.94196,-54.54579,-53.91031,-52.22787,-51.23344,-49.77474,-48.0886,-46.41984,-44.06248,-42.42114,-40.42472,-39.12481,-36.50459,-34.4631,-31.23788,-29.36572,-25.9286,-24.49594,-21.86983,-20.69324,-16.58816,-16.05903,-12.44274,-10.7914,-7.290496,-5.378108,-3.119744,0.4443873,2.431692,6.399536,8.033869,11.8183,13.62195,16.51726,20.121,21.66185,25.66939,26.12558,30.25681,31.1016,34.81234,35.54142,38.03142,40.03947,41.68169,44.38242,45.45442,48.14967,49.46726,51.3313,52.06002,54.55998,55.08743,56.63118,58.32427,58.19489,60.64354,60.67739,62.90148,63.42584,63.52737,65.04084,64.50537,65.15148,66.26375,64.53117,66.70353,64.87425,65.60568,65.15088,64.83018,63.3524,64.98242,61.74466,63.84126,60.0545,61.55634,58.95606,59.92502,56.67235,56.21122,55.09388,53.07946,51.36953,49.83024,48.59383,46.02783,44.83496,41.80894,40.631,37.67056,36.57174,34.10949,33.11764,30.7348,28.52712,25.4799,25.63625,21.91832,20.69571,17.8399,16.54641,14.62634,12.08592,11.04285,6.886915,5.157649,3.725605,0.8754514,0.4766989,-2.201269,-4.448668,-5.380377,-8.489952,-9.156436,-11.70467,-12.53568,-15.01764,-15.71206,-18.22136,-19.22672,-20.85483,-21.11056,-23.40308,-22.74152,-25.28167,-26.55466,-28.16796,-29.88725,-29.51109,-31.94404,-31.55392,-33.23219,-33.10091,-34.81049,-35.09138,-36.40962,-36.35216,-37.97871,-37.68918,-39.05249,-39.38213,-40.25929,-40.8603,-41.62009,-42.42609,-43.66345,-44.21367,-44.29539,-44.31161,-45.99458,-46.28459,-45.59559,-46.05556,-45.36959,-46.01483,-45.30451,-46.63665,-45.3631,-46.50414,-44.41812,-44.83246,-45.30642,-43.98668,-44.34726,-43.93779,-42.36971,-42.79761,-41.22873,-41.65267,-40.53321,-40.21958,-39.29924,-39.04949,-37.28765,-37.87098,-35.09758,-36.73659,-33.76661,-34.71939,-33.83857,-33.29256,-31.25806,-32.00202,-29.89109,-30.34057,-28.00339,-28.91164,-27.18889,-28.18288,-26.13269,-26.27792,-26.43077,-25.27992,-26.5646,-25.56718,-25.7742,-25.80896,-24.8957,-25.23439,-24.04635,-25.15007,-24.17466,-24.70804,-23.99328,-23.96689,-23.33974,-22.82447,-24.30989,-22.62142,-23.495,-21.50884,-23.35178,-21.75102,-23.41985,-21.8287,-23.41292,-22.0906,-23.91557,-24.09919,-25.69506,-26.20921,-26.74988,-28.90316,-28.45793,-30.67104,-30.61818,-32.31666,-32.17358,-34.61552,-33.41703,-34.87703,-34.14878,-36.06959,-34.65206,-36.37082,-35.23563,-35.27618,-35.62315,-33.54076,-34.95187,-31.84565,-32.91482,-31.67286,-31.6695,-28.67388,-29.10052,-27.16257,-26.20895,-24.75529,-22.7493,-22.12793,-19.96696,-18.17439,-16.88027,-14.52536,-13.3538,-9.081605,-8.798604,-5.526089,-4.111776,-1.464271,2.681251,2.535601,7.24708,7.714491,12.20018,12.24888,17.1338,17.22718,21.55176,21.79559,25.21572,27.75843,29.68836,32.78941,35.30434,36.33227,40.29256,40.94032,45.70442,45.89392,50.50156,50.28174,54.75563,54.66167,57.8982,58.23114,61.25118,61.95252,63.65441,65.82706,66.89431,67.30599,70.50602,69.66588,72.59661,73.01044,74.65022,75.89505,77.6308,79.12761,80.43417,81.81415,84.09124,85.99005,88.40481,90.57623,93.83252,95.54897,98.42546,100.336,103.643,106.0064,109.3324,111.4525,114.2084,116.5799,117.9269,121.9598,121.6701,125.0172,123.9586,127.9222,125.8872,127.9347,125.8509,126.5877,125.322,124.6989,122.902,120.388,119.5236,115.3568,114.2701,109.8645,106.6815,102.5462,98.90583,94.60233,90.84859,85.97174,81.98388,75.14172,71.8559,65.08768,59.9646,54.58639,48.59628,43.07855,36.90176,32.29163,24.87286,20.42138,14.14732,9.527401,2.545509,-1.392918,-7.325009,-11.39294,-17.65793,-21.77776,-25.54252,-29.443,-34.21651,-35.88131,-40.01006,-42.37828,-46.00725,-47.26955,-50.63559,-51.91498,-52.76377,-55.12208,-54.74197,-57.11057,-56.81854,-58.25322,-57.86126,-57.86454,-57.57084,-56.57305,-54.83132,-54.92627,-53.4727,-52.79949,-48.79084,-49.05399,-44.46192,-44.51956,-41.57501,-41.05027,-37.52036,-36.81883,-33.60218,-32.31619,-31.20745,-29.17903,-27.89392,-26.37071,-24.58383,-22.90147,-22.05867,-21.25843,-19.64453,-20.14098,-17.09316,-17.59535,-15.04678,-14.83577,-14.03696,-13.53488,-12.24668,-12.56041,-11.0978,-9.674138,-8.504633,-8.585863,-7.221494,-7.01725,-6.359504,-5.444681,-5.653944,-4.276406,-5.027948,-4.012778,-4.220506,-3.518551,-4.624913,-2.673929,-4.506657,-2.417204,-5.044867,-3.010681,-6.083001,-4.357258,-5.161108,-6.205754,-5.066853,-7.249748,-6.985666,-8.462108,-8.41946,-10.64649,-10.91756,-11.03574,-13.5956,-12.95857,-15.30259,-15.958,-17.46887,-17.67171,-20.31736,-22.1205,-22.52697,-25.13298,-25.93908,-27.58125,-29.46394,-31.10289,-31.85001,-33.51165,-35.26914,-36.56738,-37.86979,-39.33685,-40.80061,-41.50955,-43.63346,-44.18446,-45.94824,-46.73141,-47.05504,-48.07175,-48.5481,-48.57172,-50.48322,-50.57334,-50.53644,-52.04036,-51.5714,-50.99454,-51.67124,-52.19328,-53.15758,-52.36185,-53.12146,-52.95583,-53.16475,-53.29665,-53.29621,-52.84517,-54.08645,-54.5787,-54.0918,-54.05989,-53.46929,-55.64759,-54.90389,-56.35758,-56.65888,-56.84508,-56.51109,-58.28049,-58.53634,-59.27412,-60.49502,-60.22127,-60.91214,-61.80913,-62.26128,-63.23986,-64.00149,-65.62654,-65.57013,-66.72927,-66.50066,-67.30518,-67.99831,-70.26235,-70.03449,-72.29229,-70.926,-73.61753,-72.65192,-73.22986,-74.3162,-74.66078,-73.62174,-75.61733,-74.34318,-75.71193,-75.35329,-76.27914,-75.85288,-76.84019,-76.34792,-77.55629,-78.33507,-78.63762,-80.34691,-80.61416,-83.10981,-81.85095,-84.2572,-83.01555,-84.8815,-84.88806,-85.56415,-85.31055,-85.89726,-85.51079,-85.47347,-85.45385,-83.36885,-83.26045,-82.17838,-81.2439,-79.89989,-78.53963,-75.02816,-74.66987,-71.48335,-69.21666,-66.36254,-63.6004,-59.57842,-57.37509,-52.78997,-50.00005,-45.29642,-41.87882,-37.28331,-33.7765,-27.51728,-24.84534,-17.79194,-13.83618,-8.057374,-4.191459,3.53261,6.235904,15.64614,18.22713,25.87336,29.80297,36.06686,42.59853,47.97273,54.25866,60.18786,65.72664,70.90586,76.54232,82.27717,88.15403,92.2681,97.94313,102.636,107.602,112.438,116.0058,120.4427,124.6662,129.0636,132.8704,135.7716,139.1797,142.0723,144.984,147.0596,149.3912,151.3534,152.3063,153.6403,154.519,153.0549,154.078,152.9129,153.0118,153.1183,152.6596,152.3069,152.7824,153.056,153.9369,154.8185,155.7724,156.0815,156.7814,159.4893,159.7181,162.8173,162.8443,165.7501,166.6822,169.2016,170.2125,171.6246,172.205,174.6778,174.5046,175.5347,176.4514,174.9697,174.9091,173.7811,172.7565,170.9973,169.9509,166.2673,165.501,160.9992,159.3637,154.7258,152.2442,146.8987,143.4958,138.5855,135.2089,128.1653,124.8923,117.7469,112.6188,108.1645,99.57982,96.13826,86.69183,82.77207,73.7543,69.56866,59.88034,55.44484,46.56955,40.98347,33.40593,26.16869,18.2921,11.34735,2.978097,-3.118027,-9.994511,-15.90654,-23.17444,-27.89724,-36.08046,-40.06325,-47.31348,-51.24771,-57.07039,-59.58171,-66.50507,-67.94866,-74.46719,-75.15604,-79.93662,-80.95564,-82.3943,-85.03123,-85.39375,-87.14403,-86.45991,-88.57432,-87.32511,-87.35783,-86.03899,-86.24,-82.92834,-83.06707,-80.13038,-78.84654,-75.54112,-74.20122,-71.41666,-69.31895,-67.85622,-64.78996,-64.15481,-61.24191,-61.0914,-59.2845,-59.38657,-58.17523,-58.99343,-58.78342,-59.83608,-59.77057,-59.50691,-60.55764,-59.67306,-59.88166,-60.14443,-59.94071,-59.34839,-60.16808,-58.90483,-59.30797,-58.32706,-58.98881,-58.79876,-57.09849,-57.8945,-56.90764,-56.33657,-56.38533,-55.83035,-54.68765,-53.47066,-53.55599,-51.04444,-51.68598,-50.24379,-49.51224,-48.98822,-48.87442,-46.51928,-46.14813,-43.84168,-44.08602,-40.79423,-42.44158,-38.36896,-39.44073,-36.37384,-35.89777,-33.37369,-32.43943,-30.47336,-28.48246,-27.59645,-26.23238,-23.45389,-22.94671,-20.89138,-17.83829,-18.65753,-14.33955,-14.57924,-11.25436,-10.50198,-7.892066,-6.852856,-4.733046,-3.07056,-1.778583,-0.6684291,-0.02878039,1.153453,1.705976,2.343419,3.872296,4.103474,4.65933,4.389064,5.240738,4.799816,5.497597,5.273346,6.091694,4.91817,5.530758,3.900672,4.99956,2.361085,4.100414,1.43915,2.614555,1.583824,0.3913325,-0.655435,-1.270892,-3.444154,-3.628187,-4.751677,-4.943826,-8.34191,-7.974884,-10.53398,-11.10994,-12.78936,-14.47557,-16.65987,-19.14803,-19.59232,-23.08429,-24.14523,-26.54149,-29.60427,-30.08679,-33.85212,-34.67869,-38.46661,-39.55436,-42.63144,-44.3394,-46.26545,-49.10308,-51.19368,-54.1746,-54.97867,-58.34555,-60.87087,-62.75393,-65.77292,-67.35658,-70.60317,-71.93603,-75.30365,-77.20338,-80.00535,-80.92996,-83.45685,-85.4376,-86.37434,-89.57626,-88.60109,-91.29827,-91.57326,-93.94341,-94.46415,-97.33079,-97.8388,-99.3938,-101.8447,-101.6843,-105.3722,-105.1809,-108.3674,-109.4749,-112.1406,-114.4952,-115.379,-118.1169,-118.89,-121.0123,-121.988,-123.8435,-124.4949,-125.6412,-126.46,-126.4642,-126.5986,-126.1713,-125.7578,-124.3432,-123.9734,-120.543,-119.7965,-116.3039,-114.8085,-111.5451,-108.9239,-104.9708,-101.5086,-98.02263,-93.49062,-89.75737,-85.60098,-81.17158,-76.37284,-71.01213,-65.89835,-60.48747,-55.40302,-48.18253,-43.5528,-36.59088,-30.95533,-24.1363,-18.34941,-11.01478,-5.667584,2.263169,7.619363,15.72092,20.77164,28.95197,33.98864,41.77161,46.82123,55.34018,59.44393,68.11,71.92541,79.84825,82.20389,91.26359,93.88416,101.0205,104.1329,110.3295,112.3723,118.4354,121.8146,124.2082,128.7223,130.8879,133.4918,136.8789,138.0772,139.3136,140.5205,141.7337,143.1074,142.8985,144.242,142.8531,143.4647,142.2197,142.9436,140.931,140.3089,140.4583,137.7247,139.8697,135.8534,139.3252,135.6281,138.593,136.4459,138.6631,139.0897,140.207,142.5567,142.9541,146.2364,146.2631,149.9025,150.9893,153.9487,154.6853,157.2189,159.0535,159.9646,162.1059,162.7193,164.864,164.8219,166.1146,165.783,167.0922,166.3408,166.7735,165.865,165.6879,164.9448,163.5098,162.284,159.6762,159.3884,155.9778,155.2503,150.952,148.3254,145.1552,141.8478,138.0332,134.0996,129.7429,124.6443,120.3908,114.6072,110.6081,103.312,99.7873,92.24845,87.19862,79.57988,74.27207,67.83517,62.05704,55.10071,48.94108,42.36254,36.80256,29.42782,23.81823,16.86027,12.42678,4.879463,0.5990376,-6.266672,-10.78391,-18.16369,-22.22606,-27.17561,-31.40596,-35.50243,-39.86393,-43.30588,-45.73208,-49.97567,-50.73798,-55.64197,-55.67073,-58.71212,-59.30971,-61.52285,-61.40343,-62.80778,-61.48631,-62.70955,-60.05327,-61.28769,-60.01766,-58.74766,-57.11793,-56.71239,-54.44196,-54.09549,-53.30584,-50.41592,-49.95426,-47.64985,-47.04327,-43.96671,-45.55843,-41.73384,-41.67983,-39.37109,-38.61371,-36.79912,-36.30004,-34.98794,-33.34146,-33.43945,-30.12227,-32.24474,-28.68505,-30.0345,-28.73386,-27.2949,-27.68733,-26.16525,-26.87639,-24.90115,-25.69603,-24.18429,-24.55842,-23.73922,-24.49986,-22.73257,-23.71253,-22.71373,-22.71991,-21.95539,-22.78815,-21.82813,-23.94262,-22.91703,-22.65398,-23.25024,-22.97946,-24.34748,-22.75713,-24.97755,-23.68354,-25.30723,-24.98934,-26.19168,-27.06253,-26.51333,-28.731,-27.42209,-28.93615,-29.34126,-30.80449,-30.85682,-32.29164,-33.05662,-33.87428,-34.41165,-35.81901,-37.0989,-36.8066,-40.36415,-39.05391,-42.3265,-41.20592,-43.45015,-44.5223,-46.24446,-45.70218,-48.30359,-47.89126,-49.49673,-50.23936,-51.12953,-51.80009,-54.08709,-54.35467,-54.5353,-56.23608,-56.47514,-56.06289,-57.93976,-57.09599,-58.18627,-59.11134,-58.49419,-60.40864,-60.06591,-61.03745,-62.01406,-61.79343,-62.93104,-64.02527,-63.45592,-64.0875,-64.5849,-64.16154,-65.94596,-66.34219,-66.91006,-67.61863,-68.0501,-67.68133,-70.03144,-68.51245,-70.40347,-70.17498,-69.94484,-70.92008,-70.79771,-70.26937,-71.75091,-71.85066,-69.26513,-72.82052,-69.33469,-72.54371,-69.29325,-72.72368,-68.24493,-72.50799,-68.3683,-70.43893,-69.53777,-69.2504,-68.61223,-69.25082,-67.64807,-67.42127,-66.97143,-65.92605,-64.91845,-64.71436,-62.27158,-62.61611,-61.20578,-60.5076,-59.92193,-57.88181,-57.15498,-56.32422,-55.56486,-54.9737,-52.5851,-53.6042,-50.05113,-50.39509,-49.00473,-47.41814,-46.14246,-45.21121,-44.91432,-42.93435,-42.45701,-41.37549,-40.83415,-39.91151,-39.42593,-40.15476,-38.74268,-40.55653,-40.02539,-41.82666,-40.76817,-43.54785,-43.33034,-44.48712,-45.39872,-47.45813,-47.40581,-48.55713,-49.83602,-49.13835,-52.0802,-50.42126,-52.87382,-52.64231,-53.29188,-52.2227,-54.28359,-52.76717,-53.42853,-52.49058,-52.21622,-50.79832,-50.17571,-47.5119,-46.2491,-45.18096,-41.28136,-40.65184,-37.69973,-34.5052,-32.16682,-29.49672,-25.8452,-23.31132,-18.41644,-15.74813,-10.72358,-7.838307,-2.458095,0.9199341,6.688319,10.04774,15.62814,19.59663,24.82468,28.40955,35.76863,38.14045,45.43565,49.0184,54.25799,59.10801,63.6208,68.40303,72.58801,76.05009,82.4078,83.764,90.07776,92.24593,98.13145,98.41656,105.1693,103.8014,111.156,109.0149,115.8725,113.8701,119.2899,118.1639,121.0156,121.7969,123.384,123.2637,123.8956,125.5221,124.3784,126.49,125.4219,126.6877,126.1492,126.5292,127.3701,128.5411,128.5908,131.6965,130.2322,133.13,133.962,135.3996,137.4316,138.9468,142.6921,143.1778,147.2598,148.4018,150.9642,152.8562,155.9118,157.4776,159.7592,161.0518,162.0916,162.9246,163.7469,164.3253,164.0035,163.275,161.995,160.8786,160.163,157.5541,156.4551,153.0977,150.6751,146.9798,145.2548,139.6665,136.6868,131.2923,126.511,123.1469,115.3553,111.4774,104.0429,99.42961,91.48586,86.70365,78.6451,73.21212,64.53183,59.32572,51.7207,45.06133,37.6086,31.29356,23.62972,16.65391,10.09054,3.318043,-3.012787,-9.995963,-15.50608,-22.39998,-26.46994,-33.71759,-37.43742,-43.17596,-46.55093,-51.95713,-55.05208,-59.46757,-61.59481,-64.96547,-66.75046,-70.06377,-70.09831,-74.28668,-72.44453,-75.9727,-73.73418,-76.00486,-73.62524,-75.23378,-73.38059,-73.02017,-70.55461,-70.70745,-65.86592,-67.51112,-62.47378,-63.8881,-58.31075,-59.11188,-53.94349,-54.28644,-50.53358,-50.00699,-47.5333,-45.51318,-44.77068,-42.21631,-42.51644,-40.54322,-40.80412,-38.16773,-38.26235,-36.15268,-36.41898,-36.51919,-35.22153,-35.42645,-33.74707,-33.71449,-33.54703,-32.82573,-33.42159,-33.24201,-32.14289,-32.94578,-30.94182,-31.52654,-30.94399,-31.28009,-30.98644,-31.34992,-31.50264,-29.7722,-31.03786,-29.98307,-31.31687,-30.27689,-32.1759,-30.62916,-31.41804,-30.9736,-31.84348,-31.48727,-31.86331,-31.90022,-32.16953,-32.073,-32.45749,-32.54676,-32.78468,-33.65825,-33.49525,-34.95942,-34.28347,-35.35837,-35.38664,-35.79609,-36.98932,-36.85529,-38.44006,-37.79613,-39.26825,-38.52952,-40.88773,-39.89545,-42.50803,-41.5726,-43.10473,-43.64554,-44.20931,-45.5843,-45.55289,-47.27331,-46.50214,-48.19962,-48.63568,-49.54452,-50.06326,-51.05249,-50.70317,-53.20579,-51.7313,-53.56966,-52.9297,-54.97722,-54.22949,-55.92386,-55.9065,-56.61153,-56.02568,-58.47544,-57.90535,-59.69212,-59.47974,-61.07613,-59.63442,-62.18273,-61.47685,-64.46032,-63.48295,-65.42421,-66.106,-66.84211,-67.16421,-69.35492,-68.75551,-71.57898,-71.17117,-73.39536,-73.33475,-74.88613,-76.08983,-76.48349,-77.91861,-78.05094,-80.56857,-79.33136,-82.11481,-80.91802,-83.03849,-81.62669,-84.04098,-83.45901,-85.49822,-85.30712,-85.24579,-86.88903,-85.63719,-86.88694,-84.75922,-86.38565,-85.60181,-86.14201,-84.60764,-85.66912,-85.03132,-86.27594,-85.55315,-86.85254,-87.46672,-86.62859,-88.32641,-87.19384,-90.12048,-89.02654,-90.71012,-88.82321,-91.59322,-88.35733,-89.07852,-86.60833,-86.68459,-84.62164,-83.54874,-82.42991,-79.93457,-78.96522,-78.1016,-77.33183,-75.86218,-75.20124,-73.24061,-73.60878,-71.9152,-70.60579,-69.58872,-68.57154,-67.51456,-65.03419,-64.25664,-60.78753,-59.40009,-57.28736,-55.34404,-52.30279,-49.55612,-47.02236,-42.10908,-40.10999,-34.70346,-32.46351,-26.63099,-23.65192,-16.74916,-14.41655,-6.898118,-3.424199,2.774226,7.57206,14.20191,19.13848,26.3078,30.39391,38.58398,42.11526,50.14929,55.14126,60.91858,67.91482,73.13024,78.41334,83.59176,89.33179,95.72209,101.2148,106.4472,110.5989,115.277,118.7652,125.2747,128.4348,132.9418,137.299,139.9523,143.1315,146.7122,147.1359,150.782,152.246,154.2387,155.9492,157.7789,159.3114,161.7035,163.2138,165.7052,168.9937,170.2131,174.0489,175.4302,179.7265,180.5972,185.1677,186.0392,189.3831,191.8375,194.2611,197.67,198.3613,201.4747,200.247,203.3529,202.7519,203.0098,202.4555,200.835,200.5902,197.0676,195.6539,191.5817,189.9504,184.7076,182.6602,176.9525,174.7487,170.0483,166.2688,161.0349,159.2737,154.111,150.6116,145.1508,140.0715,135.2006,129.4062,124.9641,118.235,112.5834,105.9346,99.60953,93.03354,85.76554,79.04416,71.55826,65.44704,57.26797,51.29803,44.82291,39.13566,28.753,26.4399,16.99636,11.68152,5.425923,-1.157335,-5.451223,-12.53092,-15.11174,-23.13489,-25.20442,-31.44807,-32.57285,-37.75326,-40.48935,-43.85615,-44.84406,-48.68627,-49.10926,-50.80351,-52.02172,-52.02576,-53.08809,-51.97567,-53.02809,-52.44522,-50.63825,-50.98063,-48.41936,-47.72331,-46.71148,-43.86629,-43.36247,-39.43886,-38.49665,-36.69422,-35.09031,-33.22666,-31.52578,-29.54799,-28.13009,-28.40071,-27.31627,-27.54534,-28.58993,-28.29875,-30.21534,-30.83543,-31.4572,-32.17376,-33.72067,-33.80604,-33.86558,-35.7402,-34.8291,-37.2757,-35.68719,-36.73033,-36.60016,-36.23105,-37.3816,-36.03083,-36.8469,-35.7233,-35.50125,-35.67433,-33.76344,-34.06021,-32.85484,-32.73699,-32.05323,-30.63766,-30.34966,-29.70956,-29.70277,-28.5152,-28.8741,-27.11745,-28.15196,-26.70378,-27.85011,-25.57486,-27.32407,-25.11881,-26.47278,-23.90737,-26.01963,-23.49346,-24.71411,-22.53596,-23.97693,-22.84018,-22.52003,-22.29868,-20.56961,-21.28259,-20.15089,-20.97557,-19.34339,-20.53251,-18.91234,-18.89891,-18.9994,-17.84673,-19.41776,-17.82991,-18.5585,-17.7306,-18.0217,-18.15591,-19.33982,-17.40011,-18.78929,-17.83667,-17.70456,-18.12456,-17.78337,-19.15022,-17.32999,-19.49312,-16.83761,-18.8878,-18.00819,-18.63506,-19.19669,-17.82993,-19.32032,-18.71069,-18.88018,-18.17181,-19.52345,-18.10035,-19.97281,-18.60462,-20.63862,-17.48838,-19.43828,-18.45765,-17.9291,-19.83541,-17.63548,-18.31649,-17.67707,-17.98994,-16.94453,-18.53607,-18.57891,-19.38757,-18.7763,-19.45603,-20.03995,-20.07263,-21.05189,-20.64613,-22.39406,-21.61426,-23.64649,-23.35055,-24.57807,-23.5418,-26.14653,-25.36089,-27.76655,-28.66273,-28.46101,-30.85942,-29.75522,-32.61772,-31.69192,-33.80822,-34.20747,-36.21751,-36.45617,-37.81852,-37.59792,-40.33644,-39.61419,-42.4434,-41.78163,-43.6386,-44.84633,-44.70998,-47.9138,-46.70536,-49.44219,-48.9031,-51.83595,-50.73712,-54.02897,-53.05824,-55.4159,-54.71777,-57.93151,-56.23655,-58.69016,-57.83324,-61.27074,-58.79503,-63.07981,-60.45574,-63.57372,-62.12552,-63.77982,-63.69672,-64.23844,-65.3151,-65.78167,-66.39949,-66.30777,-66.87967,-66.33777,-67.28463,-68.23987,-67.96911,-69.48752,-68.16385,-70.07941,-69.11108,-70.37842,-68.79641,-69.25532,-68.48644,-68.59402,-68.37078,-68.23658,-69.64442,-68.96191,-70.21267,-69.67891,-70.6841,-70.78067,-71.80496,-73.4495,-72.25916,-75.83785,-74.14209,-78.28393,-77.31762,-80.17374,-80.6327,-82.56203,-84.22757,-84.79583,-85.99577,-86.16578,-86.1279,-87.50344,-87.85149,-88.54116,-87.89508,-87.1255,-87.56607,-86.52751,-86.94553,-84.46023,-86.02327,-82.56986,-82.18328,-78.40097,-76.97621,-74.24014,-72.19382,-69.26209,-66.23539,-63.43424,-58.76083,-55.77134,-51.18536,-47.39591,-42.02069,-39.13965,-32.82295,-30.10164,-22.98177,-18.44601,-12.90841,-6.686259,-3.5777,4.694512,8.417288,15.43041,20.04667,26.827,32.35733,38.46846,43.60946,50.01518,54.55061,60.59469,65.22829,70.56838,75.53006,79.50004,83.95785,87.9971,91.66915,95.10206,98.67316,100.3107,104.4408,106.2294,108.5891,110.277,113.1483,113.0594,116.0848,115.9547,118.5656,117.1823,120.9559,118.8117,121.2959,119.5116,120.4173,120.3377,120.9868,120.3248,120.5891,120.8578,120.569,121.203,120.927,120.7814,121.4115,121.9462,123.0561,124.027,125.6936,126.923,128.5178,130.4435,130.5774,133.9134,134.0932,136.6786,137.173,139.985,140.9618,143.7966,144.6519,146.6892,147.4713,147.7961,150.4018,148.1452,151.3971,149.8615,151.3765,150.0129,150.2077,149.1823,149.2525,148.3755,146.5027,144.9608,143.6387,141.0729,139.0195,136.2473,134.2167,130.4973,127.1126,123.9353,118.8277,115.3612,110.5497,107.6546,101.3887,98.73688,90.79829,87.28979,80.99933,77.27593,71.54026,66.49878,60.92927,55.88867,49.86252,44.95872,39.40521,33.89828,28.74516,22.74851,18.73424,13.47567,8.07925,4.046797,-1.119259,-2.830126,-8.820506,-11.87929,-15.28646,-18.84674,-20.56553,-24.62038,-26.1447,-27.46591,-31.24451,-31.42363,-35.16644,-36.18615,-37.75898,-39.17645,-40.43146,-42.53421,-43.08045,-44.7523,-45.05679,-46.0381,-45.39125,-47.44053,-47.50526,-46.63481,-47.97335,-49.65588,-47.77717,-49.69187,-49.6332,-49.75526,-49.52784,-52.10468,-50.04215,-52.05889,-50.91222,-52.1893,-51.86629,-54.04684,-52.14917,-52.93614,-52.65642,-53.04254,-53.77878,-53.77841,-54.06896,-54.07131,-54.66392,-54.21438,-55.27584,-55.15037,-56.62197,-55.81877,-58.60068,-54.94393,-57.92545,-56.12494,-57.17456,-56.63552,-56.47701,-57.85012,-57.18511,-57.1094,-59.02815,-56.54668,-57.13325,-58.05876,-56.89003,-58.20216,-56.79856,-57.77995,-57.3974,-57.56183,-57.80314,-57.96508,-56.09479,-57.22555,-55.09433,-55.39248,-53.83574,-55.50009,-54.48396,-54.55323,-55.49283,-54.02612,-54.91903,-52.11489,-53.16248,-52.28268,-52.40341,-51.18436,-53.3093,-50.25191,-50.51194,-49.47593,-48.98313,-48.99639,-47.52871,-47.4195,-45.51862,-46.03862,-45.20488,-45.25048,-44.02393,-43.86579,-40.90721,-41.40193,-40.31523,-39.4791,-37.35807,-36.58255,-36.32663,-33.54884,-33.4903,-32.54338,-28.84353,-30.73045,-26.05693,-27.83695,-25.16047,-25.06533,-23.83212,-22.40445,-21.07112,-20.79061,-18.73718,-19.04056,-16.02227,-16.59341,-13.46143,-13.45985,-11.39464,-11.50346,-9.677735,-9.541864,-8.931657,-9.16369,-6.38575,-7.297699,-5.953522,-4.382505,-4.933991,-3.980179,-2.483845,-2.577159,-1.519995,-0.5086203,0.3407735,1.790032,3.370147,4.193511,4.161344,5.306004,5.713166,7.400334,7.414175,8.650223,9.598916,9.730095,11.04525,10.49566,12.21908,12.28107,14.68125,15.75755,16.12478,16.64586,18.25092,18.0716,19.2649,19.7964,21.84629,21.93974,23.1627,25.17115,24.6268,25.15598,26.69486,27.52267,29.17786,29.03171,30.0072,32.24811,32.63152,35.3673,34.86282,36.82845,37.80286,35.63247,38.94485,35.53139,39.625,38.48444,40.46965,40.97839,41.34573,43.24988,42.12752,44.26256,44.28069,44.20879,45.36168,47.32063,48.08053,47.71954,49.80421,49.79943,50.45175,52.50806,51.71518,52.78589,52.77048,54.13146,54.92207,54.1473,56.16276,52.44388,54.41748,53.28678,53.93598,51.61403,52.16721,50.45303,48.91302,47.99877,47.89796,43.95096,44.75226,39.9067,41.46023,35.41995,36.18416,31.61512,31.23166,26.44988,26.55903,21.5649,20.52514,17.17446,15.06246,11.50257,9.048003,5.518178,2.271822,-0.1241981,-3.377264,-6.197739,-8.469008,-11.80702,-14.29747,-16.53261,-20.6145,-22.27147,-25.2811,-26.25833,-30.14092,-30.72728,-34.66459,-34.10547,-37.90905,-38.1358,-41.73488,-41.61748,-44.11335,-43.90597,-47.08661,-46.2774,-48.57672,-49.50079,-49.82286,-50.48501,-50.64344,-50.86148,-50.85463,-50.62118,-50.91455,-51.32502,-49.87591,-50.38929,-49.02316,-47.15883,-47.85157,-45.10639,-46.9515,-44.65078,-45.02047,-44.43317,-44.49029,-43.44133,-44.3897,-44.38736,-44.55671,-44.9915,-45.20374,-46.88768,-47.00521,-48.09721,-49.88063,-51.37048,-50.51994,-53.62737,-52.93465,-55.78355,-54.90524,-57.42069,-57.10475,-57.89132,-58.4035,-59.96782,-58.43501,-60.44935,-58.17988,-59.79917,-58.33994,-59.39397,-57.39484,-56.7728,-56.6702,-54.2157,-54.60565,-51.29614,-52.15716,-48.74869,-48.95346,-46.78696,-44.81743,-42.91639,-40.91334,-38.29368,-36.81138,-34.38683,-32.35447,-29.92805,-26.91984,-24.10375,-21.51224,-18.36958,-17.80038,-13.29823,-10.57385,-7.960846,-3.512079,-3.219829,1.653359,2.696194,7.895357,8.891282,12.83667,15.63361,17.57514,20.80532,21.77673,25.1594,26.8326,31.02384,31.30201,35.36952,34.31568,38.14716,37.59648,40.82878,40.83791,43.42777,42.65938,45.03077,42.84462,47.33743,43.902,47.20527,44.80281,46.52851,44.38892,45.62376,43.70386,44.06924,42.28927,43.04923,41.46113,40.44557,40.84223,38.43302,37.81463,36.72829,35.8943,35.03045,33.23995,32.7504,32.44308,30.38773,31.48018,30.02296,27.71121,27.83796,25.10873,25.85284,22.69399,21.92069,20.13836,19.10727,17.19263,16.67922,15.51962,13.2942,13.86297,10.59077,10.68722,9.116997,8.692604,7.531937,5.729019,6.507503,3.306074,4.354035,1.954532,1.931057,1.042495,0.2581549,-0.01286798,-1.176862,-0.2516995,-2.30998,-1.629433,-2.784216,-3.002414,-3.500127,-3.570447,-3.469338,-4.495107,-3.084663,-4.293116,-3.372926,-4.53545,-3.224222,-4.636405,-4.025894,-4.083528,-2.650201,-4.743937,-2.068211,-4.540066,-2.600177,-3.003723,-1.621785,-2.037616,-1.075429,-1.48896,0.4583331,-0.960948,2.93181,1.504172,3.261599,3.732329,2.750471,5.266373,3.655333,6.33207,6.203672,7.299378,7.127306,7.081166,7.667723,9.031387,9.307899,10.46784,10.70626,9.488871,11.81246,9.695746,12.3574,9.708351,13.22974,11.19997,12.88302,11.08259,12.91608,11.03237,14.65209,10.72278,13.96031,11.76764,12.3724,11.63157,11.46649,12.6363,11.23662,13.25002,12.16064,12.47995,10.86348,12.11869,9.724742,11.2544,10.1789,9.817006,8.698209,9.016604,7.051712,8.387888,6.575087,6.845414,4.919748,4.07397,3.794694,2.794727,0.827549,0.806106,-0.7992596,-0.6512362,-3.029577,-2.572885,-4.636984,-3.849253,-6.462929,-5.015949,-7.892228,-7.512542,-7.271249,-8.429458,-8.592741,-10.35575,-9.883863,-11.93763,-10.54323,-12.98845,-11.648,-13.0991,-13.49482,-12.39437,-14.29009,-13.71871,-15.11878,-15.58673,-15.90143,-15.77976,-15.6109,-16.50584,-16.21278,-16.51073,-17.08297,-18.18765,-17.63505,-18.60562,-18.40973,-19.58676,-19.58073,-20.25427,-19.29462,-20.71731,-19.89303,-21.15641,-21.65251,-20.88401,-22.06522,-21.27249,-22.3828,-21.73208,-21.71689,-22.70831,-21.85203,-22.91224,-23.60179,-23.612,-25.74245,-24.26338,-25.92181,-24.24854,-25.87476,-26.36591,-26.86128,-27.97637,-27.94328,-27.88392,-29.50814,-28.35902,-29.66291,-31.68835,-30.07316,-33.04358,-31.50261,-33.1063,-31.91469,-33.46808,-32.14304,-34.77014,-33.43604,-35.39888,-34.51876,-37.19801,-36.64407,-38.0684,-39.67107,-39.16442,-40.90857,-39.12389,-42.80263,-39.95347,-43.56319,-40.60516,-44.39875,-41.04574,-46.04082,-41.49361,-45.30308,-42.2063,-44.45295,-41.3929,-44.63088,-41.07865,-43.65464,-41.3662,-43.20547,-41.38385,-41.29029,-40.15687,-40.39856,-39.3314,-39.07271,-37.96099,-37.39426,-35.46987,-33.95624,-32.32756,-31.53743,-29.07757,-27.87485,-25.4266,-21.96688,-20.79186,-17.29813,-16.32252,-12.34711,-10.99427,-6.856604,-4.459119,-0.4250123,1.168977,5.883464,8.372682,12.10922,15.66708,19.00159,22.18403,27.38516,30.87414,33.27121,36.35006,39.92004,42.87183,47.2759,49.59974,52.76739,55.87254,57.61573,61.4223,63.68455,66.39076,69.17761,70.96858,72.49727,74.47064,75.87557,77.84917,78.15309,81.52613,81.60231,84.25669,83.742,85.11156,86.37901,86.84833,87.40946,89.16297,88.35917,91.2307,89.97382,91.19176,90.14981,90.40427,91.6133,90.86042,93.12196,91.649,94.17346,91.47054,95.50248,90.71742,97.21161,91.66848,97.78342,93.2569,96.30196,93.8382,94.97736,92.73894,93.79786,90.9966,91.26398,88.1187,89.2352,85.55316,85.5357,82.70702,81.85765,80.01716,77.80742,76.65309,72.78713,71.90835,67.23319,67.23156,61.78208,61.87411,55.59604,56.27246,49.34585,49.11523,41.24827,40.72125,33.70757,32.83563,25.53562,24.3832,17.10183,14.69133,8.419713,5.567577,-0.6371328,-4.724698,-8.827177,-13.59326,-16.32902,-23.25063,-24.684,-31.09708,-32.24463,-38.0584,-39.79468,-46.63207,-47.57842,-52.96452,-53.83748,-58.00617,-58.87579,-61.95743,-63.01003,-65.76975,-66.21516,-69.59836,-67.90718,-70.46136,-69.6502,-71.75111,-71.42916,-73.91506,-73.15734,-73.44715,-72.31233,-72.58218,-71.17629,-72.51256,-70.3965,-71.24009,-71.17684,-70.23029,-69.48862,-68.95825,-67.23359,-68.87621,-66.75516,-67.93275,-66.06721,-66.47999,-64.09268,-64.92197,-62.0956,-62.62899,-61.7376,-60.84253,-59.26277,-58.59653,-57.14858,-57.29151,-55.35368,-55.22509,-53.63517,-52.51301,-51.25985,-50.3626,-47.33642,-47.8032,-44.08668,-45.14318,-42.04942,-43.32834,-37.34566,-39.77059,-33.51669,-37.40831,-31.36498,-34.06776,-27.50414,-29.24981,-25.82115,-25.75707,-24.39294,-22.10416,-21.40576,-19.13095,-17.1785,-16.64123,-13.80443,-13.70458,-10.86942,-9.368287,-8.205401,-5.486616,-5.750959,-2.325036,-2.718134,-0.08473203,0.7607021,1.679073,3.445846,3.43669,5.070496,5.804778,7.018895,7.785672,8.855213,10.15649,10.18622,11.45172,11.05749,13.0623,12.67138,14.219,13.72427,14.55841,15.07185,15.87067,17.13394,17.47645,18.29826,18.0469,19.29075,20.19975,20.59331,21.12483,22.74814,22.9056,25.24414,25.63315,26.19217,27.51968,27.91533,29.1274,30.29549,31.42369,32.2286,33.23922,34.55165,35.12306,36.79114,36.5567,40.03805,39.32936,42.98726,42.03513,43.22164,44.25577,44.58793,46.22843,46.0568,48.04019,48.54987,49.33228,50.2632,49.00048,50.92322,48.74029,52.85981,50.14956,53.12713,49.5826,53.75275,49.79188,52.44323,50.17329,50.85762,49.86638,49.75536,49.35606,48.59321,47.40021,47.52537,46.17049,46.11232,43.69608,43.30419,40.64485,40.90934,40.00855,38.38221,38.30314,38.09087,36.20464,37.20387,34.25213,35.72222,34.00838,34.44245,32.54372,32.59396,31.62251,31.16549,32.21039,30.9383,32.60424,30.43383,31.45712,31.19175,31.57592,31.41017,32.03273,29.65474,30.56055,29.16905,29.86326,27.24195,28.05972,25.52008,25.27587,23.05472,21.58607,20.39419,18.44986,17.40165,14.99166,12.31432,10.13105,6.933575,4.315348,1.811932,-1.865504,-5.378059,-8.382898,-12.42466,-15.49454,-19.04967,-23.02841,-26.70755,-29.84008,-34.39848,-37.78481,-42.04558,-45.65922,-49.99918,-53.2834,-57.43844,-61.26871,-64.80087,-67.99479,-71.59019,-74.62013,-78.0596,-80.43591,-83.67625,-85.52544,-88.84085,-89.34356,-91.94233,-93.34376,-94.74742,-96.73939,-96.56225,-98.82096,-97.45323,-100.9231,-97.74374,-100.4382,-97.85551,-97.83741,-97.0005,-94.81094,-94.9377,-92.40789,-90.32214,-88.90629,-85.98588,-85.04249,-80.4757,-80.40578,-74.49591,-75.19381,-68.42412,-69.74534,-63.75583,-64.36645,-59.00512,-58.16245,-55.29849,-52.51169,-51.68053,-48.55123,-48.25582,-45.80749,-44.3448,-43.12735,-42.70512,-40.46106,-39.87762,-38.29885,-37.06066,-35.94422,-35.17655,-34.48214,-32.79532,-32.72347,-31.32968,-31.19508,-30.28951,-29.0686,-28.51569,-27.01709,-27.2721,-25.34856,-25.01078,-22.72661,-22.89143,-20.95067,-19.3656,-19.49793,-17.119,-16.02304,-15.21751,-13.10294,-10.79425,-10.70951,-7.616189,-7.001956,-5.37882,-3.544723,-1.502249,0.4015568,2.384067,4.39862,6.203184,8.294173,10.10086,11.59871,13.98805,15.41158,17.91311,19.27844,21.66999,23.47775,24.56999,26.79328,29.06186,29.41674,31.63459,33.00304,34.52587,36.04314,37.82522,38.77318,39.87304,42.47318,42.35381,44.59844,44.96162,46.86324,46.91026,48.79613,48.66674,49.70224,49.60807,51.48132,50.29319,51.92861,50.40249,51.05025,50.59383,51.08114,48.33433,49.36,46.69587,47.1642,47.28406,44.12215,46.37785,42.12981,44.56107,41.2186,42.09986,39.27283,40.25743,36.81752,38.19506,34.99709,36.10853,32.41686,34.30653,31.45573,31.89089,29.27551,28.93201,27.29628,26.51628,25.30274,23.49677,22.74865,20.23771,21.20435,17.86665,18.7478,16.36272,16.53719,13.74104,15.42158,11.75319,13.47891,11.87395,11.23205,11.68961,9.857079,10.02735,9.242032,9.21307,9.395984,9.633404,8.065855,10.33578,8.591864,10.12933,9.363505,9.958935,10.77449,11.10059,