ConstAcc,0.5,0.41356,31.40842,32.40489,33.7924,35.49728,37.45033,39.58671,41.84585,44.17131,46.51071,48.81565,51.04156,53.14763,55.09669,56.85514,58.39282,59.68291,60.70186,61.42924,61.84769,61.94277,61.7029,61.11924,60.18559,58.8983,57.25614,55.26024,52.91394,50.22275,47.19419,43.83772,40.16466,36.18801,31.92246,27.38418,22.59081,17.5613,12.31582,6.875677,1.263208,-4.498333,-10.38486,-16.37158,-22.43307,-28.54337,-34.67612,-40.80464,-46.90202,-52.94125,-58.89528,-64.73718,-70.44017,-75.97779,-81.32393,-86.453,-91.33999,-95.96058,-99.97003,-102.4833,-108.5074,-110.299,-110.5806,-109.5398,-109.9428,-110.3037,-111.0611,-109.5014,-108.8417,-107.6031,-106.2116,-105.0655,-103.0615,-100.811,-97.93726,-95.08128,-92.55754,-89.51273,-85.98176,-82.39506,-78.58636,-74.91269,-71.27903,-67.92623,-65.37044,-62.39264,-59.1299,-55.53671,-51.96424,-48.2244,-44.26806,-40.52942,-36.5794,-32.78483,-28.66394,-24.55949,-20.44638,-16.41065,-12.60764,-8.688276,-4.391302,-0.06025156,4.249508,7.951142,11.37304,14.52342,17.96572,21.61281,24.99488,28.45069,31.8706,35.2835,38.63637,41.78863,44.91828,48.14859,51.43932,55.21009,59.03613,62.90862,66.50535,70.82224,74.9184,79.13219,82.90785,86.64294,90.96058,95.04202,99.17336,102.3785,105.7937,109.5946,113.3659,117.0642,120.6194,123.58,126.936,130.0506,132.9502,135.5933,137.9167,140.2346,142.5294,145.1821,148.4603,151.1444,153.0649,156.0934,158.2358,160.1765,161.2671,162.4131,163.0606,163.1628,162.7869,162.8055,163.1622,163.6328,164.0939,164.3067,164.5919,164.0551,163.351,162.4153,161.7771,160.8842,160.3425,159.5249,158.8637,157.9159,156.8254,155.7117,154.3544,153.0746,152.1094,151.8953,151.7863,152.8951,154.4761,156.6208,159.4599,163.6929,168.2953,173.0483,177.8809,182.8209,187.2019,191.4334,195.1201,197.418,199.1822,200.2848,200.2106,201.4612,201.8933,201.6607,202.3641,201.5191,201.7437,200.1037,198.7714,195.3155,191.2023,185.9089,181.2136,174.5585,168.3255,162.4015,155.952,149.7442,142.9427,135.3309,128.1293,121.2474,114.1379,106.581,98.74276,90.71071,81.42931,72.98692,62.94741,52.82264,43.47161,34.65662,25.31334,16.38258,6.97346,-2.525022,-11.08294,-20.56434,-30.41326,-39.56822,-49.54861,-59.75107,-68.83091,-77.92404,-86.08639,-94.37974,-101.8901,-109.6959,-116.5166,-122.9045,-129.3451,-134.5963,-139.8735,-145.5494,-150.5177,-156.055,-161.7457,-166.3191,-170.5177,-174.4192,-178.3532,-181.605,-183.6819,-185.9728,-187.9702,-188.6728,-189.8082,-189.6345,-190.4615,-190.1285,-188.623,-186.9926,-185.5982,-183.3537,-180.7324,-178.3765,-175.0788,-172.1766,-168.5638,-165.5826,-162.2951,-159.1926,-156.3982,-153.7954,-152.3588,-150.8833,-150.1643,-149.9347,-149.4748,-148.9275,-148.1113,-146.4434,-145.4266,-143.5911,-139.9834,-135.4366,-130.2365,-125.0869,-120.644,-116.012,-112.3905,-108.9349,-104.9127,-100.3378,-96.84806,-93.29346,-89.4618,-85.7711,-81.3291,-77.55987,-73.20777,-67.71606,-64.15346,-60.5388,-56.16371,-52.08838,-47.24702,-44.80799,-41.74744,-40.88183,-38.76924,-36.94839,-34.64895,-32.83365,-30.32855,-28.48926,-26.67038,-24.56592,-22.93482,-21.14061,-18.69094,-16.71763,-15.47226,-14.45117,-13.67077,-12.88182,-12.84083,-12.12258,-13.86425,-13.29919,-13.22166,-14.06877,-16.48647,-18.78248,-21.76061,-24.23817,-26.17553,-29.45301,-32.01156,-34.75786,-37.67088,-39.57634,-40.11249,-41.17739,-41.08772,-40.2599,-40.09482,-38.6085,-37.6333,-37.44342,-37.74144,-38.04753,-38.70921,-39.72277,-40.09064,-41.04827,-41.09758,-40.47163,-40.88063,-41.22722,-40.97104,-38.82063,-34.95034,-31.17664,-27.83974,-23.37059,-18.351,-13.6369,-9.20052,-4.177949,0.4594291,3.798014,7.730854,13.89064,19.35747,25.16094,31.126,37.15324,43.20086,49.52113,55.14963,61.08091,66.76708,72.51088,77.81002,85.075,91.16392,98.45696,105.1858,110.445,114.4192,118.3415,121.9296,126.8924,132.047,135.6272,138.3366,140.7519,142.3593,144.0891,145.3728,146.8031,148.4261,150.0632,150.2984,149.9181,149.5231,148.6602,146.789,145.2597,143.3806,140.6638,137.7289,135.0762,132.5512,130.1533,126.5737,122.1301,118.139,114.372,110.9336,107.2344,103.69,100.5989,97.16544,93.11676,90.17194,87.0977,84.1007,81.22222,79.18327,76.76719,75.38316,74.11075,72.19827,70.50968,68.88308,66.87942,65.45118,64.01346,61.81231,59.64184,57.0271,56.03532,54.99282,54.43777,54.70454,54.79649,54.97844,54.73885,54.90613,55.40597,56.3253,57.63376,59.28737,60.52202,59.18587,58.74443,56.06084,53.15316,51.14228,49.48414,48.78516,48.23246,47.71266,47.56114,46.81683,47.3534,48.75895,51.22301,53.57292,54.89758,56.35112,57.53553,58.19073,59.43933,60.33658,62.48878,64.33393,66.82256,68.61104,69.87138,71.18493,72.57298,72.0131,72.22572,71.32513,70.25052,66.67889,64.29613,60.36894,56.97742,51.36329,44.89082,38.90456,33.01115,25.00652,16.45984,8.258384,0.3465799,-6.495871,-13.09424,-19.71008,-26.05852,-32.05505,-38.96655,-45.95475,-52.52676,-59.00242,-64.45652,-69.68676,-73.69942,-76.59469,-79.20581,-81.75193,-83.68536,-84.69023,-84.85437,-84.92706,-84.41655,-84.82806,-83.65186,-80.20742,-76.62501,-72.64539,-69.21402,-66.1031,-62.63201,-57.93281,-51.87829,-45.99039,-39.68079,-33.80572,-27.29912,-21.29892,-17.20707,-11.23375,-4.484229,4.432528,12.65753,23.36226,32.59309,42.53155,51.38133,61.30772,71.43155,82.44116,90.97236,99.89393,107.589,118.1648,126.8474,135.2534,144.2914,152.6074,161.1005,167.6201,171.7,174.8385,177.0731,179.8179,182.575,183.4571,181.6305,178.9431,174.4163,169.2127,162.2942,153.425,145.4976,136.2115,127.0465,117.4955,108.1928,98.3181,88.43503,78.81118,69.13597,59.73613,48.78417,36.68541,24.60878,14.19742,4.92554,-5.15049,-13.212,-20.22358,-26.07064,-33.76184,-40.97467,-47.6561,-52.38422,-57.01952,-61.66212,-65.11285,-67.58761,-70.61779,-74.30729,-77.45349,-79.09352,-80.73991,-82.65832,-85.89643,-87.30609,-87.77901,-86.62553,-84.85891,-80.86533,-76.99126,-75.03934,-71.34273,-67.63869,-61.26991,-56.00419,-50.45178,-45.26707,-38.4609,-30.61582,-20.83155,-12.30126,-2.45783,8.253249,17.71935,26.28516,35.66854,44.5374,53.13984,62.2364,70.10046,76.33479,83.5589,91.5376,100.4265,105.5746,108.519,110.3344,112.5441,113.3038,115.7495,116.0681,114.2838,112.5322,108.0746,104.3083,99.87192,94.1278,90.51993,84.75651,77.32803,69.48842,62.93634,55.9522,49.1199,40.43114,33.57495,24.07216,15.02787,3.883791,-4.232797,-13.468,-22.65939,-32.19703,-40.06139,-48.1854,-56.41133,-65.48229,-75.22368,-84.19898,-91.69686,-99.19219,-105.3977,-112.4272,-119.8262,-126.5209,-132.1492,-138.8801,-144.954,-152.3672,-158.5495,-164.3613,-170.1028,-173.8803,-176.4163,-178.3081,-182.6502,-185.4135,-187.2397,-190.0784,-191.5871,-194.295,-197.2442,-199.686,-201.6365,-203.6102,-205.8859,-207.924,-209.4822,-211.1511,-212.5115,-214.8091,-213.3007,-212.9885,-215.1759,-217.0394,-218.3494,-219.9314,-222.036,-223.7094,-223.6919,-225.7338,-227.1921,-229.4491,-231.3277,-232.6291,-233.2762,-233.8873,-236.3138,-238.2723,-239.9719,-240.8511,-239.3189,-239.1949,-236.443,-234.749,-232.4748,-230.3779,-227.5752,-227.3409,-231.4462,-241.9972,-251.4332,-253.2584,-248.4972,-242.4283,-236.744,-233.5242,-231.7071,-232.4861,-233.0926,-232.4498,-230.7495,-228.0732,-226.5189,-228.0069,-231.0504,-231.3014,-231.5265,-231.5226,-229.9868,-229.0425,-228.047,-225.6675,-226.0184,-223.8822,-221.395,-221.5578,-219.6997,-216.0509,-213.3334,-208.3907,-203.8049,-196.7463,-191.1989,-188.7368,-183.1799,-177.0951,-172.1345,-165.3782,-158.6238,-153.9501,-148.7681,-141.3817,-132.2552,-124.5072,-117.3394,-110.5472,-104.8888,-97.83453,-89.51252,-81.1012,-72.63304,-64.55492,-56.46023,-49.04961,-42.53694,-36.20826,-28.01207,-20.17133,-13.6452,-4.186771,3.150172,10.97335,17.24361,22.47153,26.76808,33.40171,37.23859,43.09655,47.97085,51.21026,52.70065,54.85152,57.73758,59.57581,60.36672,58.12166,59.95213,58.80454,59.1348,56.1263,55.61037,51.63597,48.30179,47.42971,45.4621,45.61347,42.56936,41.55193,39.10667,35.93342,31.90268,27.40528,24.72347,23.24021,21.36727,19.22205,17.04378,15.67752,14.8324,14.86505,14.94036,14.37071,15.42264,14.11665,8.521345,3.748523,-2.45041,-9.751191,-16.73512,-19.16168,-14.27176,-4.193919,0.4143412,0.5792543,0.6557166,-2.357384,-4.495611,-6.447814,-4.648337,-2.967003,-2.647733,-4.149073,-8.426574,-13.02353,-15.77761,-14.8567,-13.99097,-12.15472,-8.393033,-7.465586,-8.861851,-8.346464,-9.875445,-8.573997,-7.068183,-6.972307,-4.291471,-1.743687,-2.155204,1.045768,4.070122,7.5005,6.810987,7.956974,13.92572,18.40959,18.6271,21.53769,21.88514,22.99416,26.12243,29.07639,31.4755,32.14627,34.25091,36.72681,36.96809,37.9919,40.10919,42.22777,40.87597,40.82216,39.49987,39.9059,40.21637,39.44111,39.12643,38.50179,36.67849,35.61194,32.96515,31.06075,25.00518,22.04345,18.58038,15.22949,10.75437,10.00087,4.645502,-0.09158874,-3.520697,-6.155707,-10.87613,-15.58525,-18.35692,-22.95277,-24.35256,-28.21057,-30.43494,-33.53394,-35.79541,-38.47055,-40.67173,-42.15693,-43.66707,-43.48603,-47.22684,-48.48557,-51.14391,-53.6611,-54.53834,-54.45617,-53.63152,-50.9128,-51.17158,-51.10732,-51.79233,-52.76123,-51.82612,-50.06037,-50.01974,-47.70498,-46.19666,-47.31524,-49.01135,-45.7367,-45.67519,-43.1895,-43.43124,-41.61869,-40.51077,-38.66565,-38.29236,-36.52603,-33.39249,-30.95218,-28.67337,-28.22871,-27.02397,-25.97907,-26.54179,-27.06879,-27.79878,-25.94169,-21.92788,-18.27547,-15.49178,-14.48783,-13.38574,-12.22402,-12.78416,-11.31345,-12.0051,-11.02943,-12.07131,-11.33011,-9.708446,-8.39036,-6.279687,-4.02432,-2.231633,0.4256321,4.767586,9.482281,12.54352,14.9369,18.51845,22.43882,24.45787,31.34881,37.1412,40.90815,45.20128,51.71106,56.73807,62.03093,65.47993,70.90686,76.5133,80.81457,83.55826,88.47372,91.68934,95.83648,99.07984,99.72837,102.1825,104.3464,105.9087,107.2267,107.9681,105.8263,104.2083,104.6997,105.2255,106.4657,105.616,104.414,101.3854,99.29073,99.20413,96.43343,93.56684,93.85176,93.84263,89.08242,88.14922,87.23406,82.94163,81.95464,79.65486,79.71082,78.78057,79.60391,79.17392,76.77355,72.51921,75.9133,74.68717,77.89107,79.14188,78.13649,79.06577,76.19044,73.22192,73.13802,72.96302,71.7319,72.30496,70.35608,69.28697,70.07224,68.70781,65.03475,64.10701,64.34281,63.84332,63.22152,60.94071,60.4066,61.51164,59.59204,58.25154,57.56263,59.2457,56.60893,52.84053,50.14499,50.14507,48.61062,45.5726,44.75014,41.5918,39.05616,37.33244,34.03181,28.07979,25.04041,23.48385,19.70335,11.46727,7.321979,3.209787,-1.164177,-6.343281,-8.955817,-11.38892,-13.62105,-16.45856,-18.89149,-20.09397,-18.80869,-16.68708,-17.15443,-19.12032,-21.67705,-23.95061,-26.83197,-29.18071,-29.13297,-31.0375,-33.94918,-34.37423,-32.47129,-30.09332,-27.41006,-27.23917,-23.82299,-18.42608,-16.54334,-15.66381,-14.28088,-11.86037,-10.28269,-13.21341,-15.49893,-12.26388,-8.067903,-4.641933,-5.026065,-4.671996,-3.320277,0.5714837,1.981432,4.210907,5.76613,6.418774,8.072817,10.00828,12.02917,13.70536,12.00645,13.67727,16.49422,17.74566,17.65372,19.46029,21.19172,23.32417,29.57593,30.94803,30.82372,30.2351,28.67164,27.60205,26.99185,26.74356,29.91428,25.47985,24.3475,18.69636,16.76833,14.5919,12.7868,15.16073,15.13204,14.66071,13.78874,13.99092,15.59867,19.44912,25.90841,27.70042,29.41384,35.31582,41.02152,46.51531,48.8263,51.79151,55.58606,58.95355,58.47857,62.07625,65.53281,69.80938,72.60602,76.738,80.8971,86.61762,92.28366,98.65051,103.0927,103.3205,104.6733,105.1821,105.9062,106.3099,108.0316,104.9324,101.5442,99.5453,96.27811,94.62999,92.88074,90.79223,87.75102,82.57576,78.18105,74.97732,71.84622,67.3182,62.73834,55.7464,47.06499,37.58442,29.34964,20.51697,11.46358,1.035096,-8.524087,-16.85107,-27.07303,-35.157,-40.88589,-48.0403,-58.67361,-68.95201,-78.18898,-88.17132,-102.4662,-115.7175,-126.2377,-136.9651,-147.5987,-159.8517,-166.6604,-174.0979,-184.3769,-194.2235,-201.7429,-204.8265,-206.8874,-208.0015,-210.065,-209.8512,-205.6998,-203.4693,-202.9726,-202.1548,-199.5872,-196.8206,-191.702,-185.0317,-177.156,-170.8692,-163.9147,-157.284,-148.3049,-140.1203,-133.178,-128.8468,-124.2448,-118.3885,-113.8144,-106.2176,-99.74227,-94.45125,-89.23435,-86.44935,-80.86074,-73.34376,-66.31837,-59.68811,-53.34319,-47.85172,-42.75069,-36.9248,-31.27901,-23.60904,-16.96864,-13.98539,-9.768525,-6.963305,-3.35524,-0.262388,0.8503642,-0.1212748,-1.487421,-1.985006,-1.608808,-2.76281,-1.239709,0.5930715,3.015264,3.913765,5.476015,7.01509,9.484354,12.5661,14.41987,13.50911,12.43285,9.628598,9.052705,8.931272,9.926913,8.853591,7.536115,6.921672,8.888609,8.985995,9.48852,12.42826,14.75435,14.25921,14.57174,14.57594,18.73916,22.29399,24.62988,26.40476,31.28247,35.19116,39.02502,41.82798,42.34696,43.96106,46.50897,48.5522,51.47234,55.09989,57.1901,60.37318,64.46368,64.50302,62.54144,63.30802,64.34663,65.96871,65.87572,63.31907,64.30198,65.67963,63.73568,59.73935,60.83394,59.16312,60.03661,62.40374,66.43221,67.54458,68.16443,69.29007,71.83661,72.24959,74.61953,72.30094,72.27165,72.79496,72.7675,73.52779,73.40012,71.65717,73.31752,70.88941,68.60211,69.96738,71.79523,69.45289,68.04801,65.48616,66.41877,64.83428,60.98279,62.7979,61.83048,61.01763,60.58734,60.48866,62.89891,63.49837,65.31636,67.03577,66.26359,67.7258,69.06481,73.28116,74.59196,75.24604,76.00469,73.72217,75.33996,77.84765,75.0574,75.61613,75.22845,73.33417,73.888,71.7872,68.92991,66.80702,65.80724,62.99319,62.55508,59.15818,57.27847,55.98698,49.86237,46.93702,43.49788,38.04276,32.90145,25.28316,19.93812,14.59993,7.250026,1.841971,-3.702506,-8.586147,-13.92743,-20.53769,-25.76192,-28.94452,-31.89112,-36.69314,-40.39719,-39.47175,-42.40581,-46.98134,-50.62068,-54.63748,-55.08132,-56.66579,-60.60873,-63.63881,-68.51471,-69.99292,-72.97068,-76.42571,-79.65482,-82.69482,-85.27783,-86.47868,-89.21307,-91.51517,-93.3673,-93.80656,-96.81256,-99.50456,-106.2078,-113.1982,-116.3009,-120.5963,-129.1204,-134.875,-138.7415,-146.0099,-150.5159,-155.634,-160.1605,-167.6649,-171.5901,-173.6698,-177.1575,-180.8492,-183.2182,-187.121,-189.4988,-192.502,-195.7307,-196.8029,-198.2598,-198.7857,-196.2157,-198.8741,-196.4506,-192.1725,-192.7811,-192.8378,-190.8163,-187.7417,-184.0954,-184.6106,-180.6595,-172.3641,-169.2306,-163.6532,-157.5159,-151.3549,-143.2482,-136.2861,-127.2516,-120.0262,-111.8317,-102.0532,-91.86745,-82.15958,-76.05597,-67.0284,-56.68338,-49.54952,-39.10564,-30.28751,-22.32483,-12.20927,-5.484013,2.440583,10.54748,17.87376,25.54527,33.18046,39.78403,46.66316,53.67851,56.94694,60.34757,64.21857,66.52222,69.18012,69.87532,68.33487,68.14575,66.05897,64.92221,61.24464,59.2532,58.99634,54.61768,52.82986,47.82599,45.5228,42.51451,42.8821,39.37138,36.71191,35.20186,33.70085,25.80633,23.46507,22.61258,21.24,18.59484,15.94511,11.92286,12.10863,10.82893,12.49374,12.52919,12.71168,15.76327,17.78582,20.74521,23.37308,29.0707,32.62132,34.99728,35.40274,37.40436,39.82225,38.72064,40.75989,47.0808,48.02744,48.5101,52.18563,55.57566,57.22506,60.12507,61.63141,64.48927,66.29416,69.23019,73.74596,74.41768,77.17313,79.67596,81.58867,85.74088,88.95239,92.32331,94.4833,97.8244,98.53672,99.66403,99.73025,101.5413,99.24471,99.98631,99.89923,99.06775,99.62416,97.70951,94.65734,93.37885,93.87484,91.19883,88.54652,87.59006,89.63467,92.72176,93.6131,90.06678,93.36514,95.32252,96.30863,99.90907,100.088,101.0114,104.1412,107.9222,108.1654,110.0978,112.095,116.4741,117.0043,114.9347,117.8063,120.847,125.6425,125.2933,125.24,127.1795,131.0692,134.47,132.6455,135.305,138.9268,141.2436,138.9584,147.9615,149.9917,151.7083,154.3245,157.8542,161.6226,167.8307,170.6024,174.536,180.4035,184.033,186.8395,190.2075,195.1645,193.624,195.1725,196.8529,196.7016,194.6533,192.7572,189.8724,184.7019,180.5145,177.4142,174.5472,171.4477,167.2776,163.5438,156.9086,151.6399,144.8296,136.8795,132.699,129.0858,124.9538,113.3326,105.9417,96.10894,91.94084,85.13012,76.17439,70.97493,61.19055,47.73077,37.90528,27.34555,17.34811,4.56815,-5.719102,-19.08246,-26.2352,-38.17379,-48.63855,-58.54427,-68.8738,-76.24984,-85.49853,-93.90715,-104.9411,-114.7941,-121.9992,-129.9858,-135.966,-148.4169,-157.9664,-168.5679,-180.7832,-194.0986,-204.4242,-219.0357,-229.2826,-239.4234,-253.9377,-264.7735,-268.4235,-271.8596,-280.3723,-284.3312,-285.1667,-286.5844,-288.1133,-292.9594,-293.4419,-287.2844,-286.962,-286.9776,-283.0352,-282.366,-277.7491,-275.1475,-272.2956,-270.2525,-267.3622,-262.6399,-262.6172,-260.6484,-255.7291,-250.0309,-244.4301,-243.3175,-243.765,-240.3553,-234.9091,-231.2693,-228.0288,-229.5648,-221.9681,-216.9351,-212.2542,-207.6597,-198.8952,-198.3329,-191.3805,-185.0702,-176.5642,-170.5469,-165.287,-158.3341,-150.2698,-146.6319,-140.4345,-136.8758,-129.6901,-128.7759,-127.8343,-125.3994,-121.5715,-121.4427,-122.4443,-121.9295,-121.3965,-118.3588,-116.2518,-115.2137,-111.7099,-111.0832,-110.2824,-106.9553,-107.1442,-102.3326,-100.1999,-95.31633,-90.7584,-87.53508,-85.0909,-83.92023,-77.90875,-74.18962,-67.9648,-66.27431,-62.74695,-60.83163,-61.73777,-57.25689,-54.0556,-50.16926,-46.86124,-47.56579,-42.50028,-40.7491,-36.39161,-35.64093,-32.30323,-29.71991,-25.4198,-21.8913,-19.66309,-15.73464,-15.79076,-11.21127,-7.132968,-7.773752,-9.92265,-15.14404,-17.0154,-19.15413,-25.1574,-27.41145,-32.18534,-34.47122,-34.87431,-37.95092,-42.91275,-40.71703,-39.419,-43.69503,-46.57271,-48.10422,-49.87026,-52.80559,-51.91695,-52.90808,-51.8683,-53.97542,-53.37148,-52.9989,-49.36235,-50.64678,-49.49969,-49.14847,-47.54583,-44.8743,-42.88244,-41.90259,-40.71867,-35.46072,-33.61758,-30.39328,-27.45624,-27.75076,-25.80216,-21.39339,-16.84502,-16.22188,-10.92094,-9.768439,-6.574392,-2.80145,-1.162014,3.012745,5.575001,8.648046,11.85448,13.24387,18.03545,19.17687,22.84785,26.97682,28.29998,29.54408,32.55209,32.15042,34.30046,34.44983,34.16403,33.18875,36.57651,35.16623,34.13096,34.81816,34.24796,35.99889,33.28944,33.49008,34.49085,32.1163,31.93666,32.7706,29.32944,30.17779,28.32732,27.99265,25.71971,25.67112,22.43075,20.66707,20.74481,19.5443,17.9498,15.93559,16.18903,17.89866,19.69545,19.25832,17.68177,18.80792,16.2091,18.29491,17.36795,17.04354,17.23084,17.53185,17.11879,16.9115,17.18868,18.95658,19.5115,17.83111,17.52662,17.36631,21.61832,19.65751,20.52116,23.90755,26.5932,27.63277,28.63161,32.52957,33.62923,38.27936,40.79845,41.81218,40.88991,44.10426,46.03745,47.73138,49.26758,46.9768,49.23842,52.40416,54.90142,57.98743,57.87507,59.96925,67.57845,68.49854,72.84082,74.66847,78.87551,83.92949,86.56919,88.91484,92.3394,99.14466,103.8479,109.6281,116.1428,119.0301,124.5717,129.579,135.2579,140.2724,146.015,149.6502,155.4981,157.1414,159.8589,165.7681,167.5455,172.7086,174.0984,174.7148,177.1959,178.6288,177.853,180.5039,178.4691,178.9982,178.9452,178.8998,177.1104,177.1436,175.4092,173.5019,171.2739,171.1796,170.0637,165.3046,161.2847,159.0081,155.1997,152.0261,143.9181,139.0442,134.2061,127.5188,118.3648,111.9045,105.8713,101.0987,94.96874,89.25339,81.8428,78.57827,72.61832,68.22509,64.77417,61.58913,56.21313,52.11304,53.59648,52.57385,45.56298,39.72045,40.43829,38.94663,35.88955,31.41494,26.80978,24.70636,19.4036,17.25444,14.3523,10.358,8.961036,9.82585,4.978198,0.7142774,3.964043,1.897281,3.363275,0.6722756,3.281445,4.591081,4.57674,5.296534,8.172564,7.012494,7.995762,9.799463,10.52342,8.575377,8.87471,11.72482,14.08063,13.69824,12.48962,12.24025,14.3898,15.0929,14.27239,15.86066,13.88771,14.32137,17.48735,15.42328,18.78151,18.2093,18.06857,17.5828,19.40341,21.07813,23.97803,27.79021,25.76318,29.00718,30.25973,28.99004,30.32845,29.9338,31.56137,31.60382,33.04902,32.40608,33.04172,33.56154,33.47675,34.94984,33.93059,33.67276,31.78886,31.55092,30.26016,29.052,28.78935,31.08214,27.27001,29.45639,28.29193,28.1487,28.26721,29.76068,28.57449,29.41661,29.7573,29.53051,29.11826,27.08137,26.54262,26.53841,23.91094,21.30374,17.99832,18.31976,16.32385,12.53053,8.799822,9.148238,7.175747,7.582574,5.381269,4.960183,1.754568,2.050513,0.09237803,1.59646,4.07259,2.10456,0.4415327,0.5891303,2.208919,-0.06545528,-1.768741,-2.95116,-0.5662732,-4.082599,-5.298259,-8.72963,-8.30915,-11.39253,-12.30867,-11.3114,-14.16859,-14.53004,-14.20336,-13.89766,-16.15505,-14.79359,-12.52808,-15.44939,-14.08056,-13.3166,-12.37578,-12.41902,-10.69398,-9.640586,-9.219822,-9.669372,-6.650652,-4.632081,-3.87486,-2.811887,0.009062222,1.844482,4.058224,4.934475,7.337702,9.747747,10.49051,14.5302,17.25199,20.17557,22.33177,26.00906,30.36759,33.79999,37.79507,41.15672,43.44201,48.35995,53.35721,55.08444,58.07193,62.29055,63.84523,67.08196,70.33419,70.10357,74.06208,79.05041,81.11758,83.22324,85.04869,87.10694,89.25783,91.19358,93.07483,95.03973,94.94844,96.05611,97.67886,99.36864,98.65988,99.92101,99.18823,98.4411,97.89034,98.26559,96.13676,95.30404,93.61468,92.57159,91.16215,88.86644,88.29776,87.35838,84.60958,81.12611,79.36759,75.50278,72.81709,72.47097,69.92643,67.26404,63.47434,61.32227,60.699,59.59231,57.64405,57.69452,55.09985,54.57871,52.54797,53.99967,53.74461,54.04049,51.56223,49.05504,48.44932,45.90706,45.76484,44.70425,43.95209,41.95504,42.44562,38.97617,38.39003,37.44396,35.96035,33.93807,32.91519,31.93841,30.20153,29.82081,28.12502,27.61511,26.17034,25.29505,24.5589,22.77258,22.44909,21.73108,21.69731,21.13187,20.01186,19.21218,18.58686,18.61442,18.32872,17.15581,16.62001,15.68792,15.36186,13.93454,12.92311,11.63553,10.64738,9.380564,7.657248,7.871328,6.054205,4.345134,3.31557,2.664308,0.2098904,-0.3147703,-1.822261,-2.967005,-5.005488,-5.605366,-8.468132,-9.911811,-10.7904,-11.92291,-13.90176,-16.62716,-18.68172,-20.32824,-20.91047,-24.02534,-25.65805,-28.03632,-29.86052,-31.04137,-32.22885,-33.87234,-35.08832,-35.85572,-36.30435,-37.20504,-37.7978,-38.32487,-40.58696,-42.27199,-43.94576,-45.06586,-46.85936,-48.88875,-50.72239,-52.08478,-53.33738,-53.9078,-55.22671,-56.82243,-56.86056,-57.89022,-60.79038,-61.51996,-61.94585,-63.93101,-64.65471,-64.92108,-67.26522,-68.34684,-67.14749,-69.29856,-69.282,-70.18513,-69.16149,-68.15761,-68.74349,-68.79854,-64.80654,-64.00059,-62.93249,-62.81867,-61.51063,-56.79809,-56.87654,-55.94097,-54.76995,-55.30906,-53.74671,-54.71044,-54.82082,-55.56786,-53.08034,-53.25659,-52.70129,-52.12706,-53.05347,-50.0904,-50.09775,-49.8605,-48.61751,-48.50053,-48.50156,-47.58628,-44.22273,-43.95602,-43.77601,-45.77584,-47.37892,-45.65755,-44.50373,-46.08243,-47.46862,-48.7989,-50.85301,-51.52023,-52.01563,-56.81843,-56.67788,-58.4093,-59.68394,-58.28973,-63.7643,-66.12473,-64.12645,-66.71272,-70.26941,-72.42655,-73.23884,-74.26312,-76.15314,-77.39459,-77.69448,-78.69646,-78.31415,-79.1205,-80.21565,-80.19345,-78.85499,-78.57582,-78.31369,-76.50753,-74.73482,-71.90929,-71.12453,-69.6839,-69.61075,-67.15343,-65.94749,-65.38827,-64.22678,-62.24981,-59.49958,-56.74001,-53.66256,-51.52047,-48.99259,-47.35401,-45.10402,-42.16627,-38.16351,-35.1607,-30.87815,-28.60049,-24.12585,-20.92497,-15.8996,-13.7823,-10.11485,-6.715997,-2.788241,-1.427993,1.767611,2.665536,6.507591,5.935723,7.968243,12.13853,15.05459,17.96202,19.65087,22.08092,26.93509,29.74547,34.92744,36.88032,40.1427,42.57606,49.04435,49.67656,49.98745,53.13075,55.62049,57.24337,54.05084,57.02593,58.16621,55.89696,58.54836,56.44522,57.26452,57.12721,57.83337,55.44425,58.67428,55.46774,56.34294,57.07607,53.58281,54.66852,56.02151,52.27032,55.0163,51.12356,52.09752,47.29913,45.42576,43.55263,41.34518,41.41378,37.72365,32.70831,31.05263,27.07345,24.68819,20.05551,18.3229,13.52311,12.23156,10.60077,5.884491,2.124417,-5.828722,-2.986941,-6.721415,-13.94267,-17.74262,-15.59467,-20.23511,-22.67769,-23.23799,-25.96639,-24.44786,-28.35607,-29.6608,-31.44009,-30.10544,-31.34572,-30.0461,-28.92355,-30.56977,-26.97915,-30.07436,-30.58619,-30.87414,-30.91464,-32.41095,-29.76686,-32.89364,-32.17185,-32.66327,-31.13487,-30.97885,-29.39773,-27.72908,-26.36704,-27.79073,-26.48717,-25.19762,-24.67925,-23.19487,-23.55183,-21.36043,-22.05252,-19.57971,-20.15322,-16.53029,-19.51126,-16.69032,-16.698,-16.99707,-16.05324,-13.75981,-15.81385,-13.55994,-14.18526,-9.22879,-8.57565,-9.50105,-6.496832,-7.851222,-3.691829,-2.960471,-1.93505,-2.589808,-0.625844,-0.02819655,-0.217769,2.775052,1.222111,-0.1807421,3.674045,4.061671,4.425509,5.958777,7.316744,8.580344,6.64228,9.60838,8.53939,10.7756,9.604854,9.959911,11.56179,13.60696,10.77421,13.34412,14.92807,14.48244,16.66596,16.176,13.77154,17.6148,12.46488,16.58928,13.8035,15.15809,12.69053,12.71541,11.32043,11.47799,9.333405,8.798005,6.48619,4.727281,5.221779,5.145405,1.693963,1.989229,2.88697,-1.5967,-1.062564,-0.1239656,-1.402805,-3.550764,-4.641826,-4.652636,-3.210427,-5.43067,-4.813778,-3.764901,-2.758448,-2.732772,-1.870963,7.160045,8.767449,13.30374,9.859245,8.069587,3.961306,0.7278193,2.478345,-2.216881,-2.351686,-4.2274,-7.646699,-5.460249,-6.999278,-10.71549,-10.68293,-9.463307,-7.218808,-7.933878,-4.339115,-4.874023,-4.607708,-6.214583,-0.6568427,0.1432341,3.169826,3.760117,9.986365,11.43464,16.52885,17.16338,19.04789,26.10093,23.3551,29.23902,30.51811,33.91568,34.59878,37.20442,41.48691,41.58379,46.40202,48.31208,48.94965,52.1068,54.87102,55.58702,57.60229,58.00071,58.26428,59.3259,60.87364,58.06403,60.01351,59.86365,60.18219,59.34471,59.90918,60.44174,59.61858,59.72258,60.12297,59.33105,55.44455,55.57621,53.51355,50.83813,48.58785,45.96323,46.86636,42.80964,41.00409,37.95369,36.31983,32.59525,30.02003,26.54339,20.63342,20.55878,13.52985,10.73143,7.075779,1.305761,-2.596857,-4.891638,-10.18429,-12.98646,-18.76137,-21.93905,-24.03133,-29.7092,-31.92281,-36.16917,-37.94697,-41.12977,-44.19593,-47.18675,-47.2708,-51.70671,-53.46198,-52.64777,-55.15623,-52.09566,-52.30159,-50.53944,-48.52842,-42.48345,-36.57207,-37.92395,-31.94519,-30.4261,-36.01515,-37.65798,-44.13921,-44.97426,-43.93466,-43.96206,-43.76911,-46.82584,-49.16257,-49.72236,-49.16371,-49.86064,-55.17588,-51.1354,-50.99842,-50.4036,-53.06003,-53.9208,-51.22191,-52.59557,-52.04566,-51.08502,-48.91503,-48.53541,-48.20527,-48.84156,-41.97297,-46.69161,-43.72314,-43.26997,-40.48136,-37.46834,-39.91665,-36.38386,-33.16033,-31.56319,-29.11066,-25.64394,-22.78738,-21.2536,-17.11015,-15.69365,-12.55652,-11.37974,-9.507189,-6.934588,-5.310465,-3.109228,-1.396054,1.5597,3.927491,6.896779,9.275311,11.93928,16.56681,18.88609,22.39075,24.39738,28.44006,29.23201,33.79798,34.14683,35.20469,37.99783,39.00671,43.56878,44.11362,44.36414,47.64849,49.2735,50.58411,52.91283,53.84618,53.20512,54.38736,56.6819,54.10097,58.8616,53.95544,53.13725,54.02631,51.56905,54.63474,53.97759,54.83146,52.49506,55.05565,55.5595,56.2011,55.06142,58.72187,58.38461,59.20078,57.3682,60.25034,60.87493,63.20986,58.71623,62.89643,63.11144,64.50787,64.99301,65.25038,66.67823,69.73754,68.54865,67.49845,63.74159,66.33661,62.94663,64.61927,61.48398,64.28369,61.39281,59.36555,56.25018,57.37576,51.78115,50.38334,48.38418,46.25961,42.4984,41.71938,40.46652,34.29468,31.93244,30.36758,26.64906,24.26636,20.36722,19.33353,14.81618,11.45238,8.747583,2.958478,3.470326,2.384479,-4.521402,-6.248495,-6.965181,-12.13185,-12.33686,-16.55008,-18.36759,-18.98329,-21.74694,-21.94796,-26.2636,-26.77469,-29.341,-33.37202,-32.04255,-35.07101,-37.93262,-38.05815,-38.25996,-39.30208,-40.92724,-40.43388,-41.73901,-41.34822,-41.96881,-41.69525,-39.77545,-42.62911,-40.50326,-38.5542,-40.53175,-38.23671,-39.46168,-38.21185,-36.119,-33.74891,-35.50491,-31.63269,-30.85152,-33.79666,-26.88923,-25.19035,-27.49719,-28.35311,-23.71546,-26.39432,-23.98354,-23.91709,-26.70057,-25.51407,-28.16951,-29.25318,-30.76056,-27.45505,-30.02638,-27.91459,-29.60327,-27.08941,-31.15372,-27.63974,-28.64088,-28.53969,-29.06395,-27.61465,-30.90165,-26.82829,-28.122,-26.89781,-26.94501,-27.72326,-27.62202,-26.40251,-23.75082,-23.31346,-22.04457,-22.60259,-19.43115,-20.38433,-21.55668,-18.43504,-20.03303,-19.0955,-23.16979,-20.28997,-21.95516,-21.17357,-23.05887,-20.87021,-23.20693,-19.59646,-24.48729,-21.03657,-25.22924,-21.69444,-23.55474,-21.75864,-20.68223,-22.04868,-22.2177,-19.55679,-21.26431,-20.32503,-19.74085,-17.46254,-22.88991,-16.43516,-17.10088,-17.76986,-13.99513,-15.22903,-17.19015,-15.25533,-13.20323,-14.79607,-12.34129,-13.28052,-11.49444,-10.44799,-12.02263,-11.45869,-13.48254,-11.18843,-12.0005,-11.80361,-12.5645,-12.84536,-10.79732,-12.77551,-13.05227,-14.91377,-11.42949,-14.57259,-12.91224,-13.70598,-12.71328,-14.60227,-14.52232,-16.10518,-13.64481,-16.57194,-17.31744,-14.88733,-15.22194,-16.67559,-13.20606,-14.66164,-16.38626,-12.25392,-14.78347,-14.2605,-10.48098,-14.5124,-14.45408,-13.54745,-9.330832,-14.80493,-11.4043,-14.67859,-12.45931,-11.39404,-14.80224,-8.586984,-11.72818,-10.49117,-8.905684,-11.61808,-7.693921,-10.91035,-10.5821,-7.820658,-10.73012,-10.52593,-7.546999,-9.566673,-11.3213,-7.693081,-9.262254,-10.04988,-8.769929,-9.427087,-5.433681,-6.861062,-0.8704504,-3.648191,-3.980769,-3.443943,-0.6190927,-5.040021,-2.979364,-3.865493,-4.256489,-4.297957,-3.742336,-1.488972,-2.713078,-0.6979918,-0.0338544,0.4722372,-2.010438,-0.001466313,-1.381998,-1.908432,-1.010062,3.043934,-0.6539739,0.9340718,0.7728027,-0.9754034,2.265224,3.509382,1.742942,1.968543,4.842782,5.62019,5.60457,7.986778,6.179797,8.983029,9.314591,7.79426,8.540784,9.66507,10.65875,9.76481,13.68244,11.50077,10.65083,13.01628,10.71173,13.02712,10.70323,12.64848,12.44033,11.2793,12.83249,14.00029,11.87583,12.80432,12.58871,12.58314,16.5019,9.974311,15.90855,10.63823,13.4921,9.41698,11.15743,10.97706,11.10677,11.5158,9.340723,11.4554,9.864852,10.15411,11.05308,10.63357,7.877995,11.46788,9.764103,10.04077,11.94291,10.70067,10.20575,10.01428,12.83704,9.697824,11.99281,13.60444,12.86831,13.95502,13.7045,15.82278,11.85924,16.56559,15.30847,13.23696,17.4622,13.88832,16.41055,14.23152,12.84578,16.55355,16.67908,15.04606,14.71561,15.03843,16.43991,13.58594,15.30998,15.11694,15.15985,13.68937,15.13004,12.70664,11.16253,12.30164,8.424001,11.44977,10.17259,10.90982,12.57738,9.349976,12.02773,10.38654,13.14904,11.65045,10.91451,10.93237,9.867045,11.23218,10.02224,9.34615,11.26546,11.55188,9.184006,9.631122,10.85851,10.86242,11.98518,11.92065,12.86528,12.34304,14.21067,15.11871,13.35542,12.75392,16.35721,15.02358,14.5101,16.67779,15.50511,15.17026,18.29807,16.36917,19.53005,16.53485,18.73842,18.87054,16.57666,18.93115,19.43702,18.66924,19.45191,20.80314,22.35667,20.34877,22.81754,23.22713,20.43305,25.20355,24.6685,21.74358,25.50956,21.97693,27.15124,22.73198,23.85022,23.06389,23.89547,24.46566,20.47602,24.74741,21.03194,21.55406,21.55037,19.50449,18.00437,23.26238,18.20568,19.39193,20.62726,17.45025,16.69741,21.46311,18.4268,19.8379,18.47379,20.38629,17.96664,22.23939,17.7375,18.93857,21.25273,21.3354,21.01392,19.67024,20.52062,22.19142,19.7287,23.61921,21.07394,22.68043,22.29252,20.2644,20.83322,21.35484,19.23225,17.03152,19.79766,17.59689,14.95324,15.58427,15.10871,12.00594,11.06395,11.76502,10.00311,8.930322,7.13688,9.184153,5.083197,5.168691,1.726958,5.279463,-1.472781,1.175193,-2.119223,-2.794587,-7.481891,-3.423518,-11.44772,-9.080468,-12.66751,-13.02445,-14.42252,-17.69766,-15.4466,-19.24098,-20.16313,-20.1468,-21.23353,-23.50116,-24.04458,-24.66637,-29.28693,-24.94311,-26.49351,-30.02406,-29.16585,-29.41271,-30.33604,-30.47136,-31.44224,-32.96514,-31.51051,-34.12899,-34.91137,-35.53134,-35.46299,-33.892,-34.77792,-38.28596,-34.59738,-35.19234,-35.73509,-33.57984,-32.80064,-35.40746,-31.96165,-31.18445,-33.05629,-30.41971,-33.37593,-30.95929,-29.69835,-36.24679,-33.3384,-33.12702,-34.50489,-35.86023,-37.94002,-35.67907,-39.51004,-39.66958,-39.91648,-41.11155,-41.139,-39.66874,-42.92289,-41.03703,-40.22691,-43.58698,-44.28163,-39.43469,-44.11541,-40.7759,-42.71948,-40.57025,-39.49718,-37.7992,-40.82023,-37.02757,-33.52959,-39.90849,-32.61153,-35.05176,-31.43955,-31.67369,-30.34192,-30.31931,-29.69694,-26.9559,-24.89588,-26.04748,-20.15495,-23.71754,-19.7989,-17.28904,-16.51116,-13.51519,-13.01301,-8.21744,-8.183839,-7.341384,-1.549817,-0.9644934,-0.4818501,1.183822,3.775534,6.707269,5.151272,8.919131,8.079212,13.15226,8.656732,16.32377,9.317568,14.93729,14.08038,14.48984,10.21725,15.82075,10.95585,12.96996,11.77012,11.33776,10.74057,8.770433,9.100306,7.831443,8.999141,6.128331,7.137528,3.961439,4.785861,7.34334,2.588001,5.390524,3.061395,5.752991,1.732742,0.1827082,2.313157,1.708146,0.4185483,3.682262,0.3297615,0.9024277,2.669434,1.399331,1.711569,0.1332372,3.368939,3.913862,2.17431,5.615247,2.415797,4.115175,8.11018,4.772962,8.235498,7.199637,6.709703,9.072026,7.920815,6.635558,9.847765,9.284017,10.81188,9.658526,8.188564,11.16971,10.92955,9.700147,11.24669,10.30604,9.431543,10.73585,10.72836,9.873932,10.59149,8.592169,8.731885,12.31422,7.118585,8.640352,7.210278,7.334355,7.681736,5.955435,3.270559,6.031385,3.406714,0.9610655,3.508944,-0.6671768,-3.265133,-4.486871,-5.091816,-9.090623,-6.897836,-11.00915,-10.26452,-11.36249,-12.2842,-13.10724,-11.47575,-13.78282,-13.04658,-12.62502,-15.46533,-11.47546,-13.03946,-11.83635,-10.36763,-12.64448,-12.22727,-11.0292,-9.972837,-8.366431,-10.35355,-9.442843,-6.772765,-7.427561,-4.963427,-7.265137,-4.260444,-2.795352,-2.750537,-7.191878,-1.181844,-2.037891,-2.099723,0.5395231,-0.4751375,1.564991,1.801741,2.381402,3.451911,4.585057,4.89514,7.193954,9.578254,5.614438,15.32564,9.414416,10.53232,15.47851,12.53226,16.76224,14.07218,15.64184,19.96146,16.85843,18.15904,21.29695,16.22867,19.39455,22.66554,18.31528,22.88679,18.54547,20.90749,21.61521,18.58879,25.04803,19.81875,23.20149,23.0044,22.00984,23.20633,23.20191,22.20809,23.98018,25.1691,24.18449,27.9172,23.74602,25.39159,23.60515,24.82759,27.93492,25.32022,23.56671,24.45707,27.18369,24.87976,26.07757,27.96342,25.00386,27.59527,23.77429,25.4313,24.97251,24.94769,23.61094,24.38316,23.65577,24.738,22.7829,24.31021,26.80136,22.65755,26.15374,20.56956,24.05,22.26115,21.34105,21.68123,20.3827,21.614,18.25009,21.81712,19.1212,20.64217,19.18061,19.001,17.70843,19.45963,17.25862,20.59819,19.24073,18.20765,17.26355,19.81471,12.46608,15.62836,15.00916,14.93834,11.51942,15.20958,14.38843,16.26699,13.30771,16.09456,15.80652,19.43998,18.15592,18.59156,19.40984,20.8338,21.53177,21.07499,23.16328,20.85227,21.97092,24.74298,20.3429,24.06341,24.68783,22.31971,28.8914,21.82667,23.10043,29.58665,20.78954,21.30807,25.62384,19.39069,20.42591,19.27329,20.45431,19.37928,16.84039,18.46949,18.04377,15.5292,16.26575,14.72486,13.26531,16.34668,10.37593,13.29257,13.49417,10.49318,11.01325,8.232448,8.584267,5.324624,6.876766,3.093265,6.147287,0.8366193,0.5652789,-1.650392,-2.518496,-2.632902,-11.13196,-7.611608,-10.62524,-10.27288,-15.74738,-18.35464,-17.5236,-25.14898,-18.69935,-27.47428,-27.94737,-28.05831,-34.98097,-35.44551,-37.38094,-38.1004,-39.48955,-42.28777,-45.82482,-41.3235,-49.15933,-46.37548,-48.77119,-49.60417,-50.83839,-53.18704,-52.45974,-57.00222,-51.25497,-55.2885,-54.33792,-55.23037,-52.83622,-56.99562,-57.45416,-56.8118,-60.63856,-59.86733,-65.7465,-62.54683,-66.86686,-65.22894,-71.18518,-68.01403,-74.40085,-72.39075,-75.83386,-75.82789,-81.98494,-76.27507,-81.98356,-78.64712,-81.93893,-74.22787,-79.95927,-75.61645,-75.41024,-71.98586,-69.79121,-69.56049,-66.0004,-62.27881,-61.25308,-58.7421,-55.8072,-51.38412,-50.88896,-48.86681,-44.21757,-39.78261,-39.59054,-34.23552,-31.39628,-30.98933,-24.65125,-23.90491,-19.26241,-16.66572,-18.42161,-15.10947,-8.228651,-8.656774,-2.695603,-1.495799,1.531259,3.878814,7.939071,11.12029,14.78658,17.40137,19.66606,22.1652,27.56134,27.91067,27.72675,35.79808,34.14774,37.15561,37.07235,41.48253,42.10706,43.09113,46.40375,44.70746,49.50397,44.16725,46.21309,48.4433,48.45018,44.8446,45.81058,48.08642,45.08526,45.78172,40.74649,44.68889,42.23628,37.74321,44.23568,34.28618,36.71127,34.02073,31.79289,33.5619,31.75258,30.18642,29.1489,26.76136,26.60743,27.3281,21.22362,26.52645,22.16861,23.14039,23.91359,23.4712,26.50868,22.39375,28.28317,24.81325,27.52844,23.61459,28.16483,21.16429,24.85203,23.47486,22.41908,21.84143,21.46976,22.76133,20.08326,21.52147,19.84965,20.33941,19.61969,18.9057,18.61552,15.26488,16.89489,14.42222,15.19601,16.59679,11.70463,17.90296,10.4665,12.70133,13.51172,11.47496,12.89491,9.325809,12.26022,11.17593,7.818717,9.342736,9.515418,8.537475,5.680967,8.325207,5.897959,8.836963,2.359375,6.247051,3.658993,6.476837,2.503236,4.727138,-0.8954673,2.705581,0.318286,-0.352708,-0.04591154,-1.106652,-3.277946,-1.899114,-3.285801,-1.13986,-3.779549,-1.955885,-1.207858,-5.37343,-1.940578,-5.766262,-3.797685,-4.913358,-4.7908,-3.946614,-7.270314,-3.094428,-7.080544,-4.003557,-5.960395,-6.7586,-6.737702,-9.105384,-6.397735,-11.63222,-7.598665,-9.390638,-9.031878,-9.369209,-8.921494,-8.494546,-7.694029,-9.394128,-10.86048,-6.976927,-11.63938,-9.114498,-9.49633,-13.1328,-10.1261,-10.67107,-7.883499,-10.95871,-8.619545,-10.23064,-12.11096,-7.486073,-13.17347,-10.246,-12.2911,-13.18559,-12.73847,-14.15674,-14.98624,-17.08906,-15.51962,-22.36934,-16.19595,-19.56257,-18.88919,-22.4351,-18.49634,-23.3253,-22.282,-22.70789,-25.8878,-23.13168,-24.43528,-24.64291,-25.60533,-25.21723,-23.32189,-28.65293,-24.08998,-30.29802,-25.96031,-30.66836,-25.05404,-30.9405,-28.33081,-31.14875,-30.68173,-29.68375,-33.94912,-29.33713,-32.79626,-33.1878,-33.19425,-34.18256,-34.14611,-35.86227,-35.84441,-37.78711,-34.90029,-40.55443,-37.16964,-36.48589,-39.69885,-38.05304,-43.5744,-36.9036,-41.86311,-40.26066,-45.31819,-42.29634,-41.99247,-40.66934,-43.25638,-42.25479,-41.1717,-39.30014,-39.84645,-36.68165,-36.98051,-31.91943,-32.45029,-27.44352,-29.00392,-26.20809,-23.09845,-22.44934,-19.74013,-18.87973,-13.4377,-15.26727,-9.018146,-9.962106,-4.877479,-5.099051,0.5383416,0.2533639,3.771962,6.540768,11.40231,12.70279,18.41195,17.48402,23.67944,27.60233,27.61122,34.43307,34.69397,37.28112,41.55481,45.48082,45.01597,49.11956,53.65013,53.04061,59.26834,61.68936,61.89831,64.26819,68.5964,65.36585,67.13096,70.57526,67.02108,73.0849,71.98989,72.61198,75.03527,76.03,76.06659,77.4145,79.46733,78.90647,82.65216,82.0253,80.19782,84.29867,82.90856,82.0333,81.2408,81.78762,81.99351,81.02836,81.4142,80.70219,80.01657,77.07556,78.2596,72.80644,76.0144,69.60731,73.99943,67.27778,68.035,64.79921,61.53794,62.68688,58.20557,58.4281,53.32729,52.80483,45.23424,49.05779,41.29073,40.71816,34.63971,35.01543,29.15549,25.93117,24.94123,20.31838,16.47426,14.13856,7.783597,4.949594,0.9467714,-1.765514,-5.33295,-10.83909,-10.93103,-15.3393,-15.7265,-22.5704,-22.36636,-23.6339,-29.30078,-28.45272,-33.634,-30.14258,-36.29604,-34.29286,-39.49389,-40.63057,-41.98349,-42.76186,-41.32773,-44.83549,-46.33854,-44.22416,-43.90394,-48.58146,-44.12039,-49.81068,-42.53003,-50.36177,-42.41289,-46.85746,-41.58582,-42.26238,-42.2119,-39.48085,-41.1123,-37.06481,-37.32431,-35.90039,-36.15465,-32.58933,-32.78953,-33.0559,-33.42929,-32.30574,-33.80983,-32.1655,-34.2527,-33.46651,-31.45709,-33.15959,-31.93444,-34.34203,-31.087,-38.15347,-34.54499,-34.84918,-36.43987,-35.69077,-34.96274,-35.29386,-35.71051,-35.25637,-35.47077,-33.7938,-36.2785,-34.35897,-33.65458,-33.67321,-35.329,-30.31583,-34.84123,-33.56106,-31.94376,-32.1699,-30.29002,-31.50752,-27.4204,-28.57262,-30.01578,-27.91346,-25.24352,-27.12658,-21.58819,-22.62231,-20.00478,-22.97423,-16.05615,-19.20061,-17.99932,-12.34299,-17.84849,-12.0605,-13.91566,-10.50822,-9.880372,-10.78199,-8.471231,-8.591157,-5.879538,-6.717737,-6.020453,-3.684934,-3.034407,-2.650731,-3.632982,2.085264,-2.527444,0.8089042,3.688138,0.9424487,4.103178,1.708256,7.135824,4.574771,4.095485,6.674118,8.283172,6.849915,7.673194,7.549421,7.38712,9.219912,7.707009,8.584458,6.676153,9.655961,9.165173,9.335373,13.36127,6.58842,13.48125,11.08016,10.74934,9.537312,11.94338,11.62128,13.2195,11.24197,16.51789,14.69608,16.003,15.03038,17.14858,16.96799,18.89317,17.63292,18.48899,17.29163,20.50909,19.23558,18.14244,17.71706,19.35987,19.77109,18.50927,21.08185,17.92888,25.22037,20.63184,22.18644,23.07917,19.31274,24.56689,17.85996,23.01659,20.47551,23.26561,22.32539,23.45146,23.14626,21.97768,23.13825,23.531,25.05556,20.71208,26.93294,22.46629,22.67784,22.55087,24.22772,21.23738,20.45681,23.63643,21.13133,22.43424,21.07067,21.64958,19.47086,18.96818,21.89724,20.34969,20.1832,25.31948,17.55828,20.31209,19.51086,21.93291,17.14651,23.06738,19.47851,17.50219,20.955,19.20463,18.24979,19.67773,15.79107,21.10916,17.30505,21.13919,17.54696,22.75507,17.43652,19.68396,20.91609,20.11595,23.18691,18.92727,23.03592,21.51377,19.00769,24.3738,19.62982,22.68032,20.87907,17.99386,24.15798,17.62888,19.92662,19.67064,18.94474,21.37844,20.407,21.94883,18.40846,24.75714,20.80852,23.80786,22.22097,24.06757,24.35212,24.95833,23.70564,22.57985,24.24341,26.30658,22.78457,27.16687,23.89345,24.09179,26.08973,23.10067,24.20277,25.25557,20.01811,24.26222,18.15204,21.46928,17.81188,18.81491,15.9303,13.20288,16.22478,11.94189,11.88585,9.102765,6.68204,8.018885,1.557866,1.760293,-0.02544576,-3.49967,-5.393061,-5.755823,-11.84021,-6.800963,-14.44496,-14.4703,-17.43525,-18.30464,-19.21195,-24.19389,-24.43919,-24.48468,-27.49409,-32.1881,-27.51992,-36.4873,-33.34219,-36.06762,-38.25767,-39.4416,-40.25117,-41.66133,-42.29424,-45.74015,-43.99106,-47.10965,-46.79376,-45.79512,-47.45595,-47.77093,-47.81218,-49.71873,-50.88687,-48.2156,-51.5961,-49.39487,-49.84564,-49.06816,-48.8539,-48.07654,-45.41468,-49.66581,-44.60703,-46.91271,-48.01043,-44.93477,-48.58976,-46.28211,-48.53458,-48.83614,-50.53672,-48.28285,-50.56454,-50.78423,-50.6367,-52.63582,-54.4177,-53.93822,-58.03838,-55.18472,-59.95399,-58.33233,-59.4837,-61.11907,-59.94592,-61.07187,-56.67049,-59.11723,-57.82542,-56.61499,-55.79215,-53.02316,-53.9337,-49.15506,-52.73616,-44.38129,-49.36456,-41.25055,-43.72676,-40.98742,-37.73812,-37.29702,-31.30431,-30.66317,-27.97521,-23.84433,-26.84092,-17.83595,-17.19319,-14.74331,-11.88694,-7.051507,-7.980173,-0.4248352,2.051505,2.020758,8.975731,5.877741,15.11886,12.53503,21.01875,15.35603,22.54559,21.74256,23.49189,29.23832,24.40172,33.78911,29.48273,32.09854,35.66546,37.96179,36.24351,42.25954,36.61709,42.77292,42.63717,41.15849,42.52237,42.82917,44.22909,43.08646,43.24023,43.41374,42.2839,42.68368,40.87474,41.73511,37.97872,40.57752,40.15353,35.06596,39.77084,34.1102,38.25606,31.3806,34.40816,31.82831,29.15741,30.54461,27.48031,27.11116,29.95439,24.67833,28.6238,28.35588,28.736,28.57211,28.53562,29.06353,28.74087,28.06308,29.51636,27.12225,30.34616,26.0627,29.63654,27.13662,27.27029,26.01725,26.61554,23.2294,24.78827,22.76613,21.14958,21.10724,16.54621,21.22003,14.49269,17.49908,16.23403,14.44361,15.32653,13.0869,13.4982,12.28146,12.7848,7.89956,10.27081,10.13733,6.37414,8.624071,6.077926,8.381846,1.880526,7.198592,2.221717,5.309475,4.201068,0.8752615,3.681074,2.423061,2.243788,0.8128421,1.381189,0.2873751,-0.3996961,3.191494,-3.205208,0.831152,-2.094886,0.8800774,-0.5578724,-1.155661,-1.128582,-5.464066,-2.0691,-5.346522,-5.520434,-6.928489,-8.544909,-6.938744,-8.889496,-7.765683,-10.25702,-6.06227,-14.17455,-7.308437,-14.60963,-8.598837,-12.7484,-12.76259,-15.62465,-13.86422,-17.56032,-15.8745,-17.40547,-18.32541,-16.37311,-18.59649,-19.82495,-18.63803,-20.20396,-18.08415,-23.32867,-18.1648,-23.57267,-20.51093,-25.92748,-18.91504,-25.86813,-24.07663,-22.54421,-26.94243,-22.77474,-28.29986,-25.22468,-28.03021,-27.72011,-27.72743,-28.91878,-26.69486,-27.44495,-28.78619,-26.04748,-30.38271,-26.68786,-28.534,-27.7661,-24.26196,-28.24074,-21.86013,-28.19144,-19.92632,-24.0025,-25.105,-18.75072,-24.84688,-19.42852,-21.65436,-21.23382,-21.19745,-21.08631,-20.61836,-19.85801,-21.72956,-18.95223,-21.5563,-19.98318,-17.67022,-18.67282,-21.76985,-17.25932,-20.41203,-18.63015,-20.2347,-19.25259,-20.41217,-15.84644,-19.47773,-16.82895,-18.6178,-15.39667,-19.81169,-19.99717,-17.42206,-21.41099,-20.4062,-22.00068,-24.68361,-20.40417,-23.08636,-25.29031,-23.84312,-26.64704,-26.68131,-27.26116,-27.52106,-29.30508,-28.4084,-27.2417,-27.82803,-28.19465,-28.62462,-28.55085,-28.13536,-25.71282,-24.80119,-24.32425,-21.1034,-21.27594,-17.95881,-20.50644,-13.88344,-17.57423,-10.60271,-15.33379,-7.138181,-9.500234,-3.856881,-5.433596,-1.634479,0.09878285,2.446328,3.844582,7.599526,7.840566,12.39517,12.78201,15.05323,18.1506,19.72932,19.91296,25.72108,20.92715,30.23793,28.65582,30.26296,33.99861,36.37133,35.64037,40.82779,38.3673,41.60644,42.94228,41.85195,43.85002,48.29471,45.66793,48.58949,48.91879,50.53723,49.97027,47.87243,49.28747,47.48795,49.88452,48.41343,51.42579,50.36369,51.99188,53.88835,52.28302,58.84422,52.41551,59.58578,57.5949,59.10869,60.90151,60.2772,59.6724,63.04339,60.27189,62.12143,60.34105,60.9522,60.68095,60.56232,62.12766,60.30321,59.90472,57.55654,62.80272,55.59485,60.8703,56.96749,56.74508,60.89817,54.99943,55.2895,55.5178,50.7552,51.0872,47.55691,48.82492,45.57057,41.234,44.03822,37.36009,35.6837,37.31363,30.13024,26.55298,25.25359,22.12866,18.56157,18.86295,13.29893,12.9469,7.866128,9.912992,3.551597,3.519732,0.2923975,-3.50742,-2.862764,-8.488382,-5.603776,-12.42642,-10.80993,-15.64314,-14.67021,-18.92465,-18.87955,-21.95662,-20.75661,-23.2904,-23.6003,-23.92069,-29.26416,-27.91025,-31.87003,-28.58194,-35.25214,-31.68192,-34.04056,-33.8718,-34.11584,-33.79874,-33.93229,-35.04497,-32.4766,-32.59817,-31.8591,-28.8845,-27.99381,-28.2713,-26.07635,-24.07669,-25.62853,-20.26488,-25.26605,-19.67601,-21.51179,-17.80069,-19.64188,-17.86593,-16.08783,-18.88445,-17.27361,-18.32502,-17.61217,-21.31696,-19.48768,-19.08088,-18.88393,-16.93398,-18.78404,-16.02361,-14.5431,-15.96066,-13.11233,-14.07044,-13.51874,-14.31498,-8.586155,-12.73671,-8.602996,-11.612,-7.665339,-10.91946,-6.544679,-12.04479,-5.115615,-9.919769,-5.504719,-9.172663,-4.732986,-10.35213,-3.284318,-7.204939,-7.425262,-5.212326,-6.624643,-4.427659,-7.185949,-3.636458,-1.939258,-8.526318,-1.189413,-4.804315,-4.259288,-2.521315,-2.101316,-4.183633,-3.062337,-6.901112,-2.233015,-9.575647,-3.882143,-5.317018,-8.252038,-6.367191,-5.573379,-7.765021,-5.493069,-6.809963,-5.030569,-3.778349,-4.117366,-4.485563,-0.2340375,-6.707534,0.04504204,-4.958481,-0.5216296,-3.597311,3.720541,-3.568543,5.650945,-3.085216,4.019267,-1.855996,1.971353,0.8307088,2.111262,0.1221009,-0.896904,-0.4694004,-1.498295,-2.012472,-2.198338,-1.543776,-4.670996,0.135345,-7.006078,-3.026875,-4.876362,-3.456707,-5.590624,-3.222578,-5.241526,-5.556697,-3.617264,-5.908585,-4.185225,-7.820295,-1.489534,-8.986759,-7.985912,-5.035277,-12.76095,-3.620111,-14.11388,-5.553272,-11.71023,-7.511023,-10.77333,-5.315869,-11.42087,-6.71544,-10.42649,-5.576167,-9.667332,-8.033406,-4.849546,-10.42803,-10.00216,-5.961889,-7.563639,-9.101054,-5.754339,-11.63254,-2.120907,-10.02456,-4.104814,-8.727724,-3.646114,-10.03328,-2.081049,-6.97689,-6.363992,-7.475419,-3.823348,-7.222649,-5.235705,-10.5026,-4.10415,-9.502498,-1.294527,-11.12061,-5.734784,-8.58931,-6.67989,-6.335437,-8.799997,-5.69821,-10.35592,-10.76963,-7.063735,-9.387178,-11.36872,-9.648889,-15.50412,-11.74621,-11.20564,-18.83302,-13.5494,-15.53238,-14.35751,-17.40255,-15.10644,-17.36439,-15.61303,-19.58983,-14.94897,-19.24895,-15.59558,-17.89211,-21.72685,-17.71115,-18.77123,-23.89807,-18.9198,-24.97469,-21.01621,-22.18047,-22.50071,-22.13166,-23.44528,-25.751,-21.817,-25.88149,-22.20921,-24.00904,-20.9099,-26.05979,-19.2555,-21.77991,-19.16283,-20.38147,-16.73687,-17.78778,-16.17507,-17.36855,-14.17854,-11.9686,-10.60258,-11.36246,-7.783628,-8.352392,-8.95608,-5.714157,-3.372395,-8.268943,1.182394,-6.555521,3.512682,-3.844469,0.6778392,4.41083,0.193914,6.819962,2.433478,10.04112,8.417829,10.06131,11.65932,14.55716,11.42193,15.5201,14.54503,18.72823,14.46982,21.71562,18.97449,20.60658,22.52118,28.35052,24.57383,28.0014,30.4522,30.42401,33.09956,30.14961,33.10364,35.4664,31.76699,35.15129,38.38192,34.5931,37.48489,42.67262,38.35306,44.54652,38.74494,47.71223,43.583,49.84805,46.07885,46.9421,50.23985,47.72739,51.49343,50.86406,50.32352,52.38996,53.4326,52.13733,54.28924,54.2182,49.08878,54.74276,49.73098,55.24878,51.41117,46.94414,55.35424,50.39744,49.8767,50.71693,47.62656,46.74602,45.87689,40.94898,42.79318,38.06077,37.00537,34.26407,28.82562,29.51576,23.94816,20.7614,20.33821,14.36487,14.16775,9.375995,8.023991,3.307885,2.279954,-2.085683,-3.547421,-6.451999,-6.007141,-11.54008,-10.70711,-16.0076,-11.51775,-20.29898,-12.53837,-23.38103,-19.64029,-23.47318,-25.04698,-24.68455,-26.13017,-24.83407,-28.81334,-28.08722,-28.08581,-30.45579,-29.73995,-29.40635,-28.84438,-32.45678,-24.82364,-32.64555,-23.66099,-32.38688,-24.30787,-24.93438,-27.58502,-23.20248,-27.36423,-21.47399,-25.47808,-24.79509,-21.58126,-24.04029,-20.71881,-21.42566,-19.19922,-18.64461,-17.50125,-16.50985,-15.39806,-13.73047,-16.82131,-10.6328,-14.54476,-12.16752,-11.42573,-14.83109,-11.30642,-13.81176,-14.55074,-9.986823,-17.60876,-8.065777,-16.85885,-10.06288,-13.15253,-10.66283,-15.98794,-9.33974,-16.53769,-8.433955,-18.11029,-8.565895,-17.91921,-13.21763,-13.53778,-13.92296,-12.98738,-12.44504,-13.74702,-14.34615,-8.084865,-18.42795,-8.140181,-13.55224,-11.22638,-9.913588,-7.788786,-11.04589,-6.727119,-7.836345,-5.970325,-3.294433,-8.308562,-2.167462,-8.074805,-2.190643,-3.691878,-6.818821,-1.443652,-2.703645,-4.578521,-0.2833133,-4.492023,-2.879119,2.91269,-5.101658,0.2486671,-1.392291,0.694937,1.954798,0.1758102,-1.467446,5.870005,-1.611718,6.652235,3.201329,2.757749,4.743035,-1.06618,8.867634,0.1164181,4.697218,4.051605,-0.5812879,4.535329,-1.227631,4.690864,0.3517787,2.573241,3.659088,2.702916,3.334081,0.9738625,3.890401,1.541589,5.402458,2.064494,3.030516,6.06199,3.513215,5.762745,1.765193,6.591199,0.9272121,0.3854524,2.878668,-1.331465,2.006534,-0.8918668,-0.1680441,2.19204,-1.998665,1.77597,-0.497521,-1.096843,-1.355515,0.6357844,-1.196742,-1.485735,-0.4402505,-1.766758,0.9172967,-0.6832757,-0.7469583,1.136155,2.78019,-0.8701273,3.352101,2.004108,0.6266508,3.831992,2.644424,6.88726,1.503616,7.509656,1.248469,6.921606,2.189042,3.687719,4.412203,1.487223,4.615439,1.612363,3.754251,5.084982,0.07698776,6.594627,2.04351,1.805357,6.03011,3.609842,3.91011,5.329187,5.6923,6.533871,6.578069,6.822293,6.507817,8.774008,9.161501,8.739495,10.48338,8.494044,10.64062,11.14062,11.94801,14.02616,9.214347,15.40892,14.46452,11.93778,18.85942,10.33267,20.18177,13.5934,12.55245,16.39998,19.41399,12.63524,20.89552,14.54261,21.13733,22.35356,20.04979,23.14761,22.09025,22.80709,24.87026,20.78774,28.96243,22.73831,28.70242,23.76694,29.13798,25.99723,29.68855,28.13142,28.50893,29.88141,26.93195,31.65503,24.14518,32.57261,25.40783,28.44019,28.60466,22.88273,27.21257,27.37844,22.11117,22.10414,21.41701,19.3224,18.39273,15.34902,18.61138,11.29219,12.08565,12.82784,5.003816,8.054805,3.536969,2.148433,2.490417,-3.454003,-1.595553,-3.463929,-7.830209,-5.917288,-9.655754,-10.15588,-11.19232,-12.38247,-15.21072,-11.54523,-16.36737,-16.82772,-16.78338,-20.56644,-18.78186,-20.75624,-24.0256,-19.7529,-27.98214,-22.76228,-31.28442,-19.86882,-36.47233,-28.00036,-28.47101,-31.82537,-31.14252,-33.5582,-29.6443,-35.86226,-35.37927,-32.36781,-38.48616,-32.52475,-37.34974,-34.43865,-34.17226,-36.22678,-29.67914,-32.70553,-27.94639,-30.23622,-24.75131,-29.80712,-25.69178,-30.04555,-28.33106,-31.87339,-32.95742,-29.81917,-38.83402,-34.34595,-41.97463,-35.91364,-42.26367,-43.85277,-40.87105,-48.09406,-42.49191,-52.37351,-44.12928,-48.92359,-45.31716,-50.05431,-43.79719,-49.09071,-41.41319,-46.88633,-41.28376,-44.93587,-38.53785,-43.75075,-36.12558,-38.48182,-33.49644,-33.29738,-32.54907,-30.05416,-24.23641,-27.16979,-22.166,-19.05994,-18.12754,-15.1594,-13.65933,-7.690863,-9.2595,-0.8663882,-7.65214,6.498918,-0.5110611,7.945034,8.665413,13.03816,9.354926,15.85854,16.48937,18.14082,22.35715,22.47946,25.4758,23.61165,27.74372,26.52812,29.12123,28.42911,32.51284,31.15849,33.54626,34.68378,33.24992,39.58559,32.43257,42.19677,31.16799,38.24262,36.80839,34.30727,35.39229,35.99007,30.0053,36.11796,27.33084,35.22608,25.77245,31.0398,25.60835,28.9115,21.39336,22.75789,23.26383,21.62845,15.2852,20.1925,18.52892,12.73776,15.55955,11.43688,13.78692,8.0218,10.25232,12.06506,10.4407,12.86315,10.22069,15.88312,13.31534,17.53153,18.34615,20.05342,19.05942,19.73795,18.97605,18.03145,17.14163,17.55652,15.25311,14.01717,19.27075,12.69231,16.58157,14.00024,16.14467,13.08735,14.05389,13.37334,16.04242,8.134793,16.14216,6.116121,12.94957,10.14936,6.320189,8.127886,8.670068,2.052785,8.948847,0.2036664,7.553586,-1.760208,5.783635,-5.413219,5.957712,-5.820775,2.660537,-4.993409,0.334051,-4.828473,0.7051655,-4.82709,-2.250211,-1.888421,-6.579157,-0.2759596,-8.203863,0.4206976,-6.359215,-1.393511,-6.509493,-1.05737,-8.012132,-0.1914823,-7.310495,-1.803925,-6.152422,-3.368338,-1.693687,-6.252603,0.7973089,-7.815535,-1.957041,-5.589553,-3.492337,-3.988918,-1.606128,-4.680838,-0.2402461,-1.470235,-2.654195,1.125551,-6.360358,3.643941,-8.199619,2.899155,-9.125563,-0.0633017,-5.137435,-4.301388,-4.801238,-3.780187,-5.225327,-2.404654,-8.765608,-0.9350831,-8.521228,-5.938375,-9.507127,-6.114449,-10.91783,-5.000105,-9.61438,-10.45906,-11.51346,-13.37493,-13.93724,-13.57485,-17.22512,-15.37431,-17.63018,-18.71242,-15.72714,-20.96691,-18.908,-22.5244,-20.86208,-22.12474,-23.32787,-22.05827,-26.17621,-22.49852,-29.02926,-23.87769,-29.36246,-26.37512,-28.17688,-26.7881,-26.65086,-28.52114,-24.64038,-28.28717,-25.19168,-28.7241,-23.8769,-29.63632,-26.59157,-24.28267,-28.76306,-27.97468,-24.14833,-31.98005,-21.30287,-30.72816,-27.72925,-24.63,-27.82399,-28.86718,-23.89605,-30.28354,-23.80783,-30.40361,-23.91088,-28.63964,-22.79952,-28.72123,-20.11224,-29.79819,-19.88639,-26.91146,-20.70091,-27.77602,-22.17054,-26.16353,-24.56862,-24.86575,-26.97125,-23.57042,-28.82844,-25.79439,-28.00733,-27.38131,-28.40073,-25.33873,-27.905,-25.68022,-26.58884,-26.18282,-25.39251,-26.50835,-21.99498,-28.01442,-19.83994,-25.72802,-18.40685,-22.99188,-19.00493,-17.12316,-18.2188,-15.46862,-16.27846,-12.51769,-14.98098,-10.55114,-12.74146,-8.733806,-11.72767,-5.588842,-7.6584,-1.577378,-5.333789,2.504257,-2.864073,3.324323,2.254738,9.279825,4.100231,9.117473,10.91944,9.929352,15.26745,14.75755,14.4411,17.6555,18.74981,20.42414,22.37152,26.42265,23.77996,33.87714,27.69665,35.1979,35.59023,36.68175,39.22508,40.08409,42.85824,42.45611,40.95877,44.9269,41.21169,49.27122,42.30103,50.90319,42.73412,47.85979,44.47384,46.16389,43.96249,46.20287,51.77134,49.18002,54.56233,57.03831,56.17996,59.66948,62.76891,64.44052,63.97008,69.58485,65.51958,72.05588,73.05805,70.71333,76.1883,72.4372,77.12075,74.73345,78.85672,76.95866,80.3858,79.56987,79.30917,81.87569,77.10439,83.19294,77.37572,79.46564,78.8181,79.06412,72.63578,78.84232,70.1442,71.86832,66.95933,67.29964,59.49419,62.46674,55.11845,55.15069,49.34054,46.97216,43.69662,41.19698,33.83864,34.30547,27.03196,25.89582,19.46673,19.05918,13.19232,9.426483,9.426137,1.465638,2.532777,-8.482804,-1.493655,-13.15526,-15.15395,-16.26101,-22.40069,-22.37786,-30.34929,-28.02693,-32.56604,-36.01205,-35.47489,-40.22828,-39.6487,-43.4213,-46.022,-45.46258,-49.33305,-49.00309,-47.76871,-51.70313,-51.39504,-50.23334,-51.7871,-48.79007,-49.11448,-50.10984,-48.3059,-46.8126,-44.35408,-45.76142,-40.49555,-41.24694,-35.95358,-36.18649,-34.39863,-32.70086,-29.4254,-31.56945,-29.9587,-28.55585,-28.4083,-28.04277,-30.11237,-23.78719,-30.67006,-23.92398,-34.26404,-25.91429,-36.13722,-31.20965,-30.79158,-33.41265,-28.39778,-28.82748,-24.74031,-30.40437,-21.73634,-31.73952,-24.66201,-26.40121,-26.83204,-26.23203,-25.11057,-24.55554,-28.24234,-17.26518,-28.30993,-21.68914,-24.59096,-21.17975,-20.15575,-22.01919,-17.62838,-20.71107,-18.72525,-16.15758,-22.12893,-11.77831,-20.34516,-12.18879,-15.36268,-10.05893,-15.55707,-6.653306,-16.75119,-3.222703,-16.24837,-6.767807,-8.401509,-8.29841,-7.184427,-3.06641,-8.436447,-2.278588,-7.622929,-0.5803919,-5.46144,-0.8459731,-0.7260884,0.4197569,0.9981208,1.506642,1.439901,5.221756,3.086041,3.906357,5.204509,3.882892,5.152949,2.985278,8.204836,-0.6256359,8.017863,3.826143,5.80732,4.488919,2.994907,8.497538,2.74481,5.274664,7.21431,0.5712532,7.726806,2.640128,6.764813,4.548759,3.72179,7.627845,6.177245,5.456798,8.39009,7.107353,5.464443,9.656393,4.625017,9.170772,4.8244,10.66771,5.993549,6.985429,8.687379,9.104767,9.059599,7.120817,10.15096,5.712942,13.26819,5.889852,14.41016,6.366458,14.81015,9.472641,13.19362,11.38629,11.09067,14.08726,9.95248,16.70043,9.908516,15.963,13.83893,13.03578,16.8044,11.5067,18.08512,9.901682,17.81876,10.50403,17.07206,13.38431,13.54333,17.28708,14.17866,17.92753,14.52537,18.87393,12.86243,17.12252,15.79432,14.58265,15.61766,16.43884,14.55266,18.02406,13.31631,19.70382,14.581,23.23383,14.94815,23.08454,18.30102,20.30534,20.62106,22.67508,20.20145,22.82029,22.30165,22.14412,25.77265,17.98764,31.57906,17.76968,23.32838,27.98206,19.94184,24.66147,23.70872,21.54272,22.59414,21.75341,21.92438,16.66215,22.91408,15.68677,16.96058,14.03511,14.47441,13.37328,8.678402,11.1253,5.328043,8.62929,5.100394,1.039515,3.088165,0.02048789,-2.935078,-1.44223,-7.902065,-5.661168,-10.55773,-9.149793,-10.19196,-13.46223,-12.0893,-16.68119,-16.08322,-16.23312,-21.97165,-18.44678,-23.39383,-19.06859,-26.45217,-22.62119,-24.21766,-28.41992,-22.19719,-29.96173,-26.11744,-29.47398,-31.26302,-26.35793,-37.85033,-26.19722,-38.52841,-28.83444,-34.44294,-31.05608,-35.6326,-32.90882,-31.28838,-35.99331,-30.97586,-32.82424,-29.65989,-32.45552,-30.70415,-27.9283,-26.73513,-27.68115,-24.71496,-24.78076,-26.79334,-23.26115,-25.47873,-27.01772,-24.21565,-28.2056,-24.86432,-26.72131,-26.96156,-25.65788,-28.68819,-26.799,-30.52341,-28.13407,-30.24484,-30.40304,-29.65274,-31.83875,-28.27224,-31.01683,-28.34271,-28.25513,-28.30395,-25.987,-26.49811,-23.97883,-27.98382,-22.06299,-25.14914,-22.02695,-20.49683,-21.60518,-18.58807,-19.05498,-16.27455,-16.2023,-14.1178,-12.57728,-9.921212,-14.7594,-6.614194,-4.71895,-9.514057,-1.228562,-5.691959,0.075553,-0.1589807,3.469345,0.1526867,7.917602,4.155699,7.803219,6.822849,9.471128,11.2066,10.40047,17.21427,12.25759,19.05478,15.17637,19.20333,14.43811,22.36183,12.87882,15.84809,18.717,13.90675,18.08988,16.92844,19.22956,17.74093,17.96671,18.67224,16.73167,18.50012,19.36949,17.45336,21.4541,18.87985,20.37378,16.21735,22.38763,20.35143,13.95524,25.05021,7.896944,24.04395,10.47537,17.97727,14.34945,9.416932,18.29337,5.69053,20.10597,7.347664,14.88591,6.494543,13.8034,10.39617,9.191502,12.47476,9.391246,11.11903,10.91003,10.89425,14.72806,9.057535,14.00443,11.30534,9.691656,10.461,9.120287,6.608514,9.543648,7.491883,6.27512,10.00437,3.405454,7.567575,3.716798,3.762517,5.001749,1.488511,4.303128,0.1960126,2.081783,-0.81956,2.323565,-0.9129694,0.9651459,-0.2540458,-0.0783921,0.7169744,-3.73061,4.651847,-4.926128,2.468219,-2.907678,-0.4976891,-2.204379,-0.1328273,-5.631594,-2.031452,-1.085942,-5.330329,-2.817946,-3.468715,-3.465802,-0.6801639,-4.265622,-2.92725,1.239379,-4.216244,-2.171382,-1.739076,1.280689,-4.253319,3.07386,-2.377575,4.629382,-4.008612,5.99399,-3.817767,7.884806,-1.090433,5.894881,4.883876,0.6160801,8.255613,-3.150368,9.508323,-1.820451,5.729458,-0.6545249,6.888473,0.9794585,4.415624,3.464686,6.40297,2.294981,4.89917,-1.158111,5.727261,2.107039,3.142773,3.656181,-0.5117257,4.397495,0.5265402,3.364636,0.06385179,0.7802766,3.469082,-3.837465,3.656564,-3.88935,0.9239267,-2.288158,-1.242263,-3.249004,-3.80006,-3.165093,-7.664196,-0.006441125,-10.24555,-0.9086913,-9.358812,-2.306262,-6.37928,-6.994953,-3.22198,-7.407617,-4.746707,-5.510973,-5.513389,-2.475926,-9.137816,2.385082,-9.517294,-2.733272,-5.966838,-5.821154,-5.26197,-3.919509,-4.508048,-7.518935,-5.178759,-7.145022,-5.219655,-6.248422,-7.755487,-1.01248,-8.899087,-2.429931,-4.732122,-4.628319,-2.592215,-2.599956,-2.449517,0.1028517,-1.639384,-1.263104,1.657206,-2.331512,3.009395,-0.9522312,0.3603728,2.21302,1.171318,5.012528,3.345256,2.123228,11.1799,7.270591,9.41291,9.761859,15.41976,12.35649,15.01844,14.81071,15.73465,19.94287,15.33262,19.91606,22.45842,22.86673,19.94051,31.47005,20.85214,29.85855,22.53694,34.0077,22.89866,33.21586,28.07534,30.04628,31.35917,30.8785,31.28292,32.89091,31.76114,31.13834,30.08977,30.31525,30.71994,31.01645,26.8827,26.28481,25.80699,20.89877,22.38715,19.40112,16.98279,13.51312,16.20699,8.211418,9.870941,6.863009,3.827191,2.338382,-3.806538,0.4396944,-7.913399,-10.63856,-6.21587,-15.95982,-17.38964,-12.19865,-28.08813,-14.74631,-32.92405,-25.93615,-29.50328,-31.88594,-34.69575,-31.15411,-42.10418,-32.51196,-43.3938,-37.6434,-40.50802,-43.31632,-42.77618,-39.28024,-45.48902,-37.90958,-46.84582,-36.46033,-47.08589,-37.19409,-42.92702,-36.93941,-37.23373,-35.13542,-33.22155,-34.85382,-27.44464,-30.0999,-26.00279,-26.10055,-22.38369,-21.98229,-23.04089,-19.12131,-18.82595,-19.35642,-14.60917,-19.96457,-11.48375,-19.16442,-9.807403,-19.18695,-6.22617,-21.18758,-3.832337,-14.93009,-8.358671,-6.766189,-10.73977,-5.639281,-6.003531,-7.892413,-1.867239,-10.58087,-1.668018,-6.970712,-1.048081,-6.628195,-4.900296,-0.5797762,-6.060785,2.350425,-6.766786,3.376728,-0.2282544,2.15139,0.9265264,6.417184,-2.444374,9.821859,3.537329,12.40151,-0.8752951,12.15407,7.525118,7.342326,12.54087,9.039414,11.44148,13.67663,12.48161,15.08578,12.32875,16.93838,17.16066,19.83029,13.59064,22.20686,16.27906,19.93153,19.4889,21.09461,18.27063,20.95482,24.80859,16.52002,29.71796,14.63015,28.13345,18.44607,24.78173,22.90764,20.41256,23.82966,21.6214,18.43105,21.68304,19.24685,13.21083,22.69141,5.442451,22.42506,8.293544,13.8324,13.30717,8.553612,11.06682,6.088114,6.769093,4.01124,2.890243,2.102183,1.491519,0.2964658,-1.633853,-0.7043598,-4.795075,-2.505198,-2.461819,-5.940702,-2.060904,-1.476674,-4.123987,-2.292917,-3.430273,-2.30222,-1.026588,-4.657848,-0.512136,-4.227764,-0.7107914,-5.130126,0.5472358,-3.336807,-0.7015308,-0.7338513,1.914727,-1.781181,4.607375,-2.883965,8.272027,-5.619693,7.179,-3.024099,4.901791,-2.575371,3.651384,-2.862308,1.915382,-2.253619,1.563691,-4.491307,0.4753863,-1.412277,1.352173,0.6811368,1.038719,1.228902,-0.7984743,3.43685,-0.9142322,1.629483,-2.980709,2.792769,-8.41962,-2.422423,-6.704095,-7.59493,-6.998786,-10.09756,-12.7015,-9.288584,-22.09155,-9.361647,-24.32973,-16.53481,-22.32367,-19.18808,-19.43682,-22.95281,-17.51517,-24.93114,-19.30005,-16.99332,-19.20121,-17.11675,-15.97452,-14.62035,-18.65221,-8.039015,-14.56787,-6.748665,-10.74922,-4.346748,-3.727076,-4.303533,1.418511,-3.983183,7.735049,-3.170517,11.34862,3.434888,7.64979,9.70834,12.46184,8.954273,19.73086,9.640205,21.33429,17.18189,20.98911,22.69174,20.6442,26.13023,20.4101,23.37988,25.52616,18.85862,25.965,19.58221,22.19564,21.41556,19.49552,18.77594,18.05805,14.50031,17.16052,13.14298,14.76291,10.06446,13.11005,9.276164,6.915593,7.505109,4.084058,3.94998,0.8089436,0.08549418,-3.10739,-2.544385,-6.600874,-4.11018,-9.299021,-5.161208,-14.94882,-7.649196,-17.69992,-13.09193,-21.11222,-18.5349,-24.25506,-26.44827,-23.95972,-29.46336,-27.51883,-30.53109,-29.39798,-31.08959,-30.35105,-34.92955,-28.81719,-35.08213,-27.12771,-30.43719,-29.71912,-26.04386,-31.36929,-25.29787,-29.13938,-28.59222,-27.0951,-31.9499,-29.38891,-27.98398,-35.15851,-25.76796,-32.77146,-26.95568,-31.51083,-27.82995,-30.09437,-29.51648,-31.69224,-27.48759,-33.22002,-24.6371,-30.31866,-24.45115,-26.0184,-27.58146,-20.69291,-27.495,-19.94755,-20.61924,-21.19084,-19.86162,-13.72473,-19.33183,-11.96718,-12.62799,-11.44281,-8.703223,-9.491627,-3.875605,-9.809949,1.744798,-7.263644,2.014149,0.4997957,0.5386598,6.496316,1.004508,10.57205,6.438314,13.75256,8.504242,19.39337,7.039129,23.85905,13.84799,20.62348,19.20636,23.8716,19.58229,26.86696,22.21128,26.50504,25.23972,27.52671,29.61195,25.8749,30.99533,28.912,28.80765,29.55393,29.18911,30.12441,29.12932,31.45838,30.80558,31.13063,35.30071,29.84149,37.1411,34.00445,34.27216,36.8558,36.40942,37.4028,37.42131,37.74997,41.25453,34.51237,46.8616,33.32138,44.91189,36.57509,41.61752,36.69763,39.79886,39.3051,40.52464,39.98102,38.91879,40.99753,37.86059,39.48474,37.41087,38.96292,34.50018,37.50066,34.46404,36.5481,32.07881,34.47065,28.84443,31.94322,27.27404,27.48037,22.31717,28.76077,17.84969,24.16509,18.91753,17.71821,18.2849,14.77341,13.44996,11.48392,13.69459,4.570853,8.108528,4.671392,2.235123,5.58164,-1.123027,1.013911,-0.368193,-3.770493,-3.703218,-3.509104,-7.985179,-3.403743,-9.268416,-9.759237,-7.736778,-8.888399,-8.901187,-11.21107,-8.092989,-10.20542,-13.70757,-8.808403,-12.99018,-13.36706,-7.543916,-17.72605,-6.171925,-11.90966,-11.52304,-9.445119,-10.80323,-4.875924,-12.74516,-0.9627099,-10.84475,-1.59442,-10.86155,0.5482433,-5.491275,-3.101502,-1.293612,-4.169288,-1.760371,-2.61856,-1.364634,-4.134246,0.4651575,-1.643676,-0.1056644,-4.205789,1.729491,-4.959546,-0.4430219,-4.036513,-1.95786,-0.3623242,-1.859479,3.718709,-3.818466,5.108857,-1.446762,2.327708,0.695097,1.422986,3.806735,0.2798895,1.921646,1.587199,0.5624109,6.016381,-0.3200878,3.700175,4.640446,3.421518,0.7385542,8.622022,-3.888086,9.809743,-2.926179,7.240074,0.6745287,3.185256,3.830451,3.088037,4.84707,-0.3652355,8.593217,-2.598866,1.504528,5.934582,-0.7978136,3.198481,-1.81848,3.825953,-2.837046,7.773322,-6.072768,5.529168,-2.717659,2.915062,-3.627986,0.4841186,-2.235631,-0.7087314,-5.051099,-0.6819007,-6.476153,-0.2084093,-7.258708,-5.070751,-6.345053,-5.843047,-6.517127,-6.76799,-9.819553,-6.574959,-10.72395,-9.51738,-10.31095,-10.73726,-12.97997,-10.50882,-13.85534,-12.98064,-10.40021,-12.21391,-11.92528,-13.95851,-10.29385,-15.59412,-16.30195,-12.24089,-17.20945,-12.71503,-16.36069,-13.40371,-16.66535,-12.36287,-19.41119,-12.23646,-17.63749,-13.61551,-16.07525,-14.40889,-16.99399,-16.06399,-17.00199,-14.31191,-18.09115,-17.04204,-18.27231,-18.63831,-15.82621,-20.90258,-18.08711,-18.26125,-17.05078,-20.12899,-19.44315,-20.17381,-20.18507,-22.3975,-18.46956,-24.77872,-17.12684,-24.10938,-17.09113,-25.43382,-21.7513,-20.65693,-24.88039,-20.64117,-24.66245,-19.70652,-24.86352,-26.96719,-20.01286,-24.41489,-24.72208,-22.80745,-24.34589,-21.96203,-24.65999,-23.25403,-28.52497,-21.51775,-32.64633,-18.48882,-37.3703,-20.10581,-32.33431,-28.77669,-27.93664,-34.07746,-28.77315,-34.32672,-31.54504,-38.44541,-30.02302,-36.21973,-36.9866,-34.89787,-36.69644,-34.63795,-38.13764,-36.13998,-42.51066,-34.69349,-41.14564,-38.73529,-38.8385,-35.94712,-40.74775,-35.83273,-40.94848,-39.76809,-42.07866,-44.24142,-44.79682,-45.27959,-49.17915,-45.01649,-52.2277,-47.99096,-54.50545,-47.99831,-56.29226,-52.73129,-54.70169,-55.54504,-52.16855,-57.28263,-52.72368,-56.91007,-53.26437,-53.58168,-55.27185,-49.10866,-53.07325,-48.49479,-52.86879,-41.20267,-48.60542,-42.24212,-40.16042,-36.27428,-37.07367,-28.02274,-35.44678,-21.87266,-27.42715,-19.05166,-19.70862,-18.02732,-10.22602,-13.57575,-6.203657,-4.691085,-2.503713,2.833449,2.430129,11.37391,9.220594,11.86018,18.88178,19.80031,18.74235,26.66569,24.30247,35.76073,27.04517,39.71891,35.60346,41.91273,44.57455,43.82543,50.12004,45.2874,56.19487,53.13219,56.92119,60.13411,60.19187,62.63544,66.76476,65.81011,73.93195,65.96019,76.0915,68.10089,76.7551,68.01391,72.82922,72.91726,75.27218,73.32271,79.4349,76.96851,79.86862,83.20215,78.58801,88.06449,82.49536,90.1237,89.5092,88.80617,92.25105,93.18018,97.0561,92.79142,100.5939,95.48788,103.3239,97.14456,104.5585,100.2984,107.2649,104.5115,108.2578,109.4971,108.9286,111.3872,105.6379,111.6829,105.1153,106.4065,106.2871,100.9288,107.0954,99.36139,100.9085,98.28745,94.28776,92.85389,88.60275,87.986,79.01566,78.28636,76.54935,67.32065,70.21418,57.41017,58.94442,51.78239,48.50464,44.86701,38.87734,36.18343,29.68895,26.03749,24.04454,17.40997,18.06624,10.20485,11.05092,5.704395,-0.2021495,0.1591507,-7.032513,-6.54499,-14.10006,-15.10625,-18.52057,-21.13563,-21.16936,-28.30705,-24.69079,-28.4366,-33.01098,-28.87707,-36.88618,-30.72768,-42.61357,-34.07314,-41.11476,-41.91398,-38.79749,-43.59765,-40.8704,-42.18367,-46.29371,-39.22794,-43.18713,-42.18744,-40.15101,-43.81521,-38.23737,-39.56272,-41.03661,-33.38306,-42.33562,-32.56775,-40.32286,-32.25664,-37.52874,-37.78966,-34.6187,-44.26811,-36.46781,-47.68346,-36.46867,-46.90166,-36.60143,-42.38172,-35.11863,-42.07016,-29.90479,-41.004,-35.81882,-37.63246,-33.89506,-33.12014,-36.27266,-30.8132,-36.20179,-30.78834,-32.6557,-31.46532,-28.59279,-34.54555,-27.09433,-31.10011,-30.36772,-26.09337,-32.74962,-25.86358,-29.77205,-29.85033,-27.00598,-29.78216,-27.60896,-27.90026,-27.15672,-26.87371,-25.20496,-26.65192,-25.21485,-21.99745,-24.55932,-20.47605,-27.25597,-16.68659,-28.76073,-20.76786,-24.28846,-22.87162,-27.13927,-22.88027,-26.22802,-27.50243,-25.4437,-29.75796,-27.35473,-28.97499,-27.66349,-31.80787,-26.72262,-32.7126,-27.9665,-32.30173,-26.44439,-33.65008,-25.22931,-34.51379,-26.96527,-29.47912,-31.18151,-24.95272,-30.75481,-26.60848,-26.8723,-25.60371,-23.16945,-26.50182,-20.38473,-25.75026,-17.56068,-22.2248,-18.83319,-15.97247,-22.19795,-15.03274,-19.88267,-15.86296,-16.16039,-13.56976,-12.535,-9.548606,-12.63897,-6.785078,-7.257849,-5.009053,-2.273483,-5.106228,2.525841,-4.090388,8.123752,-1.526035,8.092466,6.643726,6.369013,9.770681,8.801312,13.30555,10.8638,16.38884,10.90444,14.6025,17.28064,13.40705,21.25346,15.97294,22.68884,18.3158,23.24526,19.17816,23.28601,19.40057,21.73473,25.06935,20.24642,23.4839,20.67758,25.26595,21.12824,24.78362,21.95271,24.62881,21.50647,22.99875,24.61514,23.29125,19.6818,28.01314,13.43598,28.17246,14.70142,24.544,18.86401,23.68133,18.7292,22.22255,20.60663,18.68167,21.85114,17.39713,22.38608,23.12924,17.42373,24.73194,14.18612,26.88043,13.42273,24.95932,17.32652,21.13793,17.20222,24.00814,14.08119,25.3643,16.65132,21.00594,21.13017,17.53172,24.71513,14.14894,26.15022,12.57597,27.89671,11.47133,21.56692,18.20716,15.47435,18.87777,14.54667,16.04483,16.3426,12.28936,12.08292,13.76644,9.479488,12.53351,8.828894,8.921954,7.467051,7.407744,7.724539,4.552705,2.771881,4.592883,-3.613158,4.453498,-3.708669,-0.3413835,-2.82206,-3.449904,-4.819214,-6.108737,-10.27566,-5.690747,-12.90858,-6.793168,-13.88969,-11.05487,-13.11136,-16.10652,-13.64352,-16.91877,-16.24335,-20.18931,-15.11756,-24.04536,-15.31537,-24.14523,-17.78428,-25.23908,-24.49796,-20.90381,-27.67777,-23.31262,-23.9749,-24.36729,-26.34016,-23.91961,-28.52511,-22.31795,-29.47289,-23.78833,-28.25057,-23.94363,-27.7233,-21.96819,-25.86367,-21.70733,-26.91816,-21.81213,-26.13979,-21.60309,-26.30573,-21.28952,-26.38867,-23.94661,-26.6803,-21.95317,-29.28958,-23.31465,-27.79379,-23.18939,-30.39461,-23.46686,-32.13629,-25.25412,-30.28316,-23.73473,-29.90923,-21.1557,-27.95673,-24.06514,-27.00414,-20.90438,-26.4549,-19.10316,-22.23102,-18.66502,-19.17522,-15.61059,-18.56424,-12.33637,-15.80854,-9.341313,-15.00354,-7.102788,-8.826849,-7.873133,-2.186967,-8.703452,2.417821,-3.674639,2.640375,-2.002428,4.778969,6.124387,1.550573,12.11897,2.035521,12.08744,7.299099,8.804898,10.02276,10.66566,11.20371,11.99394,10.57192,14.71031,8.718369,20.66666,9.008619,21.55654,10.0612,21.06262,11.82026,20.91642,13.27942,18.98758,14.68953,20.60257,14.74565,18.2147,17.47719,16.07542,18.26044,15.68104,15.99124,14.56287,12.45517,12.90689,10.48028,13.36109,5.199982,11.76187,9.698125,3.86788,10.494,1.752353,8.474479,-0.6715824,6.085637,1.196646,-0.956978,4.130311,-2.670201,1.120795,-4.028423,1.995926,-5.370068,1.372914,-4.230913,-1.399454,-1.41176,-2.566109,-2.93909,-0.5268022,-5.206983,-1.795426,-3.451943,-2.454029,-3.43459,-0.866978,-6.547637,0.1679165,-4.087981,-2.15384,-2.160833,-2.948646,-3.283977,-2.036778,-0.8843813,-2.017364,-4.264004,-0.3061362,-4.627085,0.04761232,-1.604692,-1.881742,-4.066037,0.1575896,-3.472782,-0.5999608,0.5611975,0.1187275,-0.8723623,0.1405295,0.4151602,-0.5052574,-0.2249678,0.2714564,-1.201078,4.255877,-4.51237,3.946955,-0.8871259,3.564506,0.5973669,3.976045,2.249086,2.482945,2.971584,4.015827,2.355451,6.975377,-1.79371,9.160049,0.441364,7.457571,-1.300556,6.846008,-1.809272,3.86024,-2.0511,5.600755,-2.363042,3.777247,-0.3257438,0.7946565,1.689854,3.549203,-0.289793,6.538811,-3.808555,5.256546,0.3728756,4.048287,1.659222,1.575911,6.675722,1.148385,4.888168,4.036656,4.468262,2.588731,6.355312,1.981629,8.201293,3.245634,5.945533,6.916638,7.667427,10.08335,6.750182,9.54777,10.93851,7.405884,11.71535,10.93632,11.42016,12.47413,13.00837,14.57955,10.46935,17.69156,12.05977,16.63686,13.34816,18.72258,12.79102,19.7391,13.50036,16.67871,16.8199,16.20543,20.08982,17.25805,19.06556,19.72218,21.43721,16.67415,23.32505,15.67775,24.41795,17.51293,23.04054,19.20015,21.6568,18.86272,22.36113,19.70058,20.27877,21.09666,17.77409,20.1483,17.50828,17.87859,21.13551,15.50782,21.1782,18.09828,22.13343,17.27205,23.63647,18.98693,21.99743,17.17407,25.51453,18.68204,23.82312,22.84984,24.02009,25.39717,19.95996,31.35957,21.80752,26.97794,25.79275,26.57145,24.75521,25.80146,25.16746,27.00317,25.39293,24.48097,20.7885,26.21313,23.53103,20.97175,22.39328,22.48152,19.75073,21.06109,23.35482,17.11862,19.00811,19.0973,12.47752,18.94552,13.21662,15.27813,6.855381,12.76889,4.103241,10.03314,5.46907,2.251433,2.170476,-1.917125,-0.1821989,-5.632085,-5.201337,-9.847058,-8.052086,-13.63176,-11.95738,-15.75154,-16.67395,-18.7123,-23.64328,-19.74922,-28.25514,-27.64687,-29.12389,-31.33497,-32.40703,-35.8191,-37.65025,-37.34434,-41.24688,-42.25311,-39.52071,-46.93139,-42.01524,-47.2898,-43.40622,-49.35344,-45.49482,-45.79243,-49.17694,-42.69607,-47.23795,-41.65425,-44.11078,-38.63146,-44.23484,-42.19804,-46.46493,-45.3403,-47.28022,-51.91853,-47.23512,-57.85079,-48.09822,-63.11423,-51.14154,-64.09453,-56.272,-64.5932,-58.23823,-64.10421,-61.83518,-64.21381,-64.53854,-65.55852,-62.42045,-66.59392,-59.35239,-67.30877,-58.59281,-60.3839,-59.55122,-54.1465,-59.08416,-49.13507,-56.16488,-45.02397,-48.91885,-43.603,-41.96855,-38.81868,-35.62357,-35.04597,-30.00192,-26.94507,-25.66777,-21.25642,-18.36593,-15.61315,-12.94076,-7.9623,-7.942541,-1.881309,-1.559884,2.370878,5.354757,10.46817,13.76762,12.30213,22.72762,20.69178,25.40413,28.62487,33.20651,31.97646,38.82949,36.45293,40.13501,44.8026,39.74805,50.96825,39.81233,57.23987,44.48162,54.55493,50.89108,48.91951,55.73417,47.66478,54.70365,49.12623,50.80481,48.15686,50.79671,44.91675,48.31917,42.17273,42.54231,41.42663,35.66927,41.45265,30.28242,35.83626,29.10476,27.45438,24.56898,22.30873,20.11807,18.83603,15.39126,13.85655,14.34265,6.230156,16.05567,3.588695,14.13361,5.153446,11.01854,11.97347,8.986573,15.44485,11.48239,12.36457,11.45019,11.12685,6.345895,10.72418,1.322516,11.01357,2.795904,6.961028,4.470115,2.110301,5.338778,-0.2498881,6.239437,0.704888,5.078717,1.683953,4.551124,1.403285,1.787429,2.622096,2.363489,2.904196,1.742223,4.063552,4.867735,-0.1734228,9.160643,0.6659745,2.721371,5.631051,-2.22756,9.795814,-2.158753,6.733829,4.628435,0.4295073,9.915724,-2.878598,8.235742,-0.8687232,3.88271,-2.129025,1.121569,0.2413832,-1.80637,1.007723,-6.392435,4.679022,-7.954173,0.4961217,-7.542785,-1.727779,-6.562165,-3.933276,-5.88458,-6.301438,-3.505403,-9.061342,-4.943434,-4.326936,-8.390235,-5.07066,-6.932617,-6.897088,-8.73626,-6.118534,-13.03043,-0.233806,-14.87063,1.409662,-14.37399,-3.080714,-10.92316,-6.083773,-5.416775,-12.1673,-0.3513717,-14.47645,-1.662333,-10.23377,-5.320121,-4.975602,-7.371463,-6.589762,-3.625015,-6.513218,-5.51886,-3.593422,-8.952791,-2.34167,-8.737658,-4.172,-4.642459,-9.540654,-0.3804922,-10.50756,-5.18939,-5.641783,-9.618084,-3.038217,-7.012162,-6.479684,-7.088288,-3.028576,-9.316247,-1.959542,-8.164863,-3.557285,-6.713428,-5.176276,-6.623119,-3.468304,-7.881332,-0.698335,-6.887759,-0.001464822,-3.937787,-5.221085,-0.3555698,-7.335214,-0.7689565,-5.597478,0.2661248,-5.786963,-0.8958754,-2.182319,-3.141553,0.4501011,-0.01465365,0.1957397,3.160318,1.497431,3.112798,6.741069,1.604376,5.257254,9.108561,0.9808185,12.88573,7.749775,10.72097,13.78345,11.34442,16.40122,15.36692,10.25265,21.57502,8.636704,23.34142,11.72289,18.98085,15.67106,21.35141,19.97894,17.54465,21.35137,20.16788,21.91634,17.89517,21.35127,22.33159,20.47071,24.78508,20.09551,26.23932,22.40922,29.03803,20.23103,31.05546,26.54651,23.06744,30.49156,27.66081,22.55247,31.91484,22.34947,31.91622,27.52929,30.66872,26.09661,26.1175,30.1156,22.90553,32.77014,21.15449,23.98942,31.58637,15.23949,28.98856,21.15258,20.9492,21.81737,17.79969,19.31718,16.49243,16.75129,14.46345,14.34258,11.71839,11.93215,11.02794,8.799365,7.269029,6.894646,7.08986,-0.1323913,3.106704,1.729264,-5.781102,4.235772,-8.2583,-1.83255,-8.218869,-5.103199,-12.07529,-6.532449,-14.41606,-13.70257,-12.56559,-20.09923,-11.08783,-20.79969,-16.79507,-18.76682,-21.8906,-21.49627,-22.80956,-27.52823,-20.20739,-32.24464,-23.10312,-30.80601,-28.42262,-29.45685,-28.0354,-29.47678,-31.33673,-28.11173,-30.7571,-29.8562,-28.19415,-29.78979,-28.90783,-29.68935,-29.98104,-30.60372,-28.67182,-34.4114,-26.4308,-37.38482,-29.21365,-34.65575,-33.20918,-34.58352,-35.39875,-31.86465,-37.92489,-29.56634,-39.53851,-32.51313,-37.34629,-35.025,-36.60186,-37.99867,-37.09493,-36.6448,-37.17493,-38.16326,-34.96629,-37.03731,-34.97481,-35.42763,-33.30928,-33.3793,-29.83247,-30.28805,-29.71478,-28.81847,-28.33326,-24.33033,-28.98731,-18.43843,-25.6503,-17.28349,-22.92451,-17.28353,-15.72348,-16.43355,-12.47012,-16.20001,-7.849073,-9.86339,-10.68567,-0.6930016,-12.20987,4.724056,-4.780242,1.095953,1.388765,6.272034,3.685333,5.880002,11.66747,2.488347,15.01909,8.85835,12.1908,15.39753,10.9596,20.45533,13.46383,21.26068,15.64761,23.3719,17.45103,21.44892,23.12586,21.36696,20.92842,25.56024,18.11316,24.94108,16.44943,26.0885,14.82906,22.50606,13.88018,21.92679,13.00673,21.24263,14.13475,14.14318,13.32517,14.22481,10.89077,10.87026,12.71113,8.005926,13.28838,5.727711,11.325,7.965438,9.179377,11.155,7.604779,11.88641,9.460345,11.96707,12.21284,8.519492,16.52817,5.552621,13.44166,8.161121,9.680684,8.455218,8.527321,7.839527,9.882114,4.06768,10.29016,5.015457,8.825876,6.797762,6.600362,8.370862,5.063054,6.852259,6.571853,4.363642,9.32957,1.455287,6.633043,4.177857,3.336504,6.362188,1.435396,9.90526,-1.697648,7.125583,2.385376,4.402554,1.892298,6.960032,-0.4581253,7.826853,-0.8717502,8.968669,-4.349038,11.78627,-3.680735,10.09684,-2.374954,7.093039,-1.424023,8.919607,0.9600427,7.382301,-1.241893,8.656075,-2.203328,11.01936,-2.763022,8.996873,-0.8975177,7.403529,-1.702642,9.221056,-2.418655,6.790776,0.3291064,2.275413,4.979249,-3.449294,12.32293,-4.354005,10.66115,-0.2855618,6.018964,8.739159,0.408384,11.94175,2.033391,9.360688,5.504586,7.224294,8.086704,4.182825,10.31378,2.826568,9.476259,4.217036,7.989188,7.311126,4.886106,7.447414,5.413719,8.31501,1.56215,10.74678,-2.688337,11.02221,-0.3663539,8.690974,-0.7607549,7.96706,3.346528,1.563219,7.883258,-3.058363,8.106427,-0.7435182,2.399556,2.940654,-1.094545,2.636868,-0.6037162,1.334739,-0.03582763,-1.936984,3.902456,-7.7271,5.305945,-3.72131,1.278634,-4.146436,1.29569,-5.484073,1.191971,-7.74029,0.5122921,-7.987071,-1.376614,-8.430748,-7.56811,-6.996258,-8.63577,-12.56402,-4.997408,-17.90581,-5.437526,-20.84763,-5.513657,-19.96263,-11.0803,-16.33561,-15.99751,-12.69402,-23.93731,-12.13002,-19.85226,-17.63452,-16.57554,-18.4435,-18.39395,-14.09324,-19.61198,-15.79137,-20.90413,-14.6703,-23.0896,-13.73224,-24.60566,-14.76458,-22.42225,-18.70223,-21.83558,-21.68267,-24.82755,-17.034,-28.50781,-15.2108,-32.17494,-16.88124,-28.5327,-22.86531,-23.96373,-24.39648,-22.94159,-23.84628,-20.33773,-23.22414,-19.7027,-20.61159,-16.73466,-24.94992,-10.0762,-25.12105,-9.429317,-18.56871,-14.39914,-12.52558,-13.89521,-14.17497,-8.887965,-11.57519,-7.85274,-8.8512,-2.175891,-10.03536,2.964746,-7.970929,5.789077,-4.866068,8.074038,-2.887999,11.23451,1.026404,8.118703,9.316798,6.220894,13.15568,9.857658,11.63861,15.2354,13.32311,14.89434,15.19985,18.28508,15.39411,19.25244,17.53839,18.35003,21.07503,17.35084,22.98122,18.91884,23.78464,18.87282,26.67029,19.63896,25.95908,22.5915,25.44584,20.66762,24.6705,25.40912,20.7869,30.06276,21.56886,30.43977,21.98471,32.71986,22.94846,31.94894,25.90184,33.00048,24.16443,35.46639,25.18258,35.78395,26.90098,34.22148,27.89485,33.354,30.92419,32.26195,33.5729,32.28114,35.01508,32.56783,36.11804,32.11436,36.06632,33.84221,33.08815,31.94224,28.92703,32.48942,25.56756,31.04645,26.27808,26.45046,25.55098,24.40445,24.18863,22.27185,20.40013,22.18725,17.8286,17.13871,17.22552,12.66554,17.65038,8.95605,14.82557,7.974662,12.18583,5.832023,8.24374,4.366786,2.937013,1.760871,1.494522,-3.819699,-0.7329165,-1.109319,-8.681404,-2.855294,-9.308436,-8.562525,-9.989599,-14.35597,-10.26853,-17.55841,-11.10816,-22.27891,-14.23665,-21.98289,-20.34653,-21.05495,-23.84511,-19.36836,-25.20212,-21.29688,-24.24029,-21.27277,-25.39736,-22.89692,-21.91917,-25.13705,-19.10466,-23.94102,-19.67451,-18.9456,-22.55015,-16.73802,-20.4664,-17.60668,-20.4603,-22.42671,-15.66871,-23.09624,-18.61414,-20.85783,-21.17704,-19.09455,-21.35982,-22.01976,-17.80132,-24.26299,-18.04259,-22.68447,-19.7416,-20.33215,-17.15745,-20.84185,-15.88721,-17.15729,-15.83159,-16.99142,-15.49334,-11.60198,-18.94056,-6.92584,-20.40758,-5.765274,-19.16616,-4.832801,-17.30147,-6.372017,-14.89519,-9.497765,-12.15648,-11.78112,-7.861575,-13.69883,-8.995308,-12.12445,-10.97068,-10.5955,-9.065139,-14.33513,-9.817291,-13.4962,-13.5051,-11.54677,-16.37695,-10.47831,-17.79482,-9.178092,-18.3003,-10.48043,-16.32649,-10.05008,-14.71248,-11.59554,-12.38234,-6.55808,-14.28262,-3.162088,-9.557547,-3.136984,-3.014291,-5.007824,0.7210127,-1.885229,0.3937808,0.3397431,4.811447,1.581996,7.588941,4.848455,12.67587,5.046021,18.74852,8.763834,18.04427,14.50108,17.55564,17.50772,18.56784,19.2755,22.48816,16.82512,25.8114,17.51222,28.3725,17.73854,29.89802,19.08792,31.51236,20.39441,29.52705,23.00048,30.23975,21.65973,30.56004,23.23991,31.80442,23.96281,30.37511,25.77173,28.82683,25.64443,23.19312,28.49379,18.66327,24.51362,19.50755,19.89187,23.0285,12.63831,19.87362,13.61296,15.89092,12.88377,10.80286,11.00044,10.44075,6.568558,6.956573,9.984965,-1.222926,11.11339,-5.78683,6.016106,-1.763787,-0.9656057,0.9394074,-4.578495,0.3368851,-4.294831,-3.754757,-2.513231,-8.643146,-0.8873023,-10.57059,-3.824531,-9.02006,-6.222184,-8.154322,-9.370922,-6.321117,-9.009221,-5.453847,-10.62041,-3.288191,-8.400048,-3.340169,-6.445505,-4.192996,-6.694615,-0.4748158,-6.712841,-0.6053704,-4.313725,-2.522825,-0.8647794,-2.817052,4.234095,-4.534142,5.842642,0.9699199,4.584813,6.275028,3.77333,11.79593,6.496462,9.263831,12.94379,8.843431,12.78766,11.17272,11.16479,12.04611,11.44045,9.860633,13.75031,8.723952,14.5352,8.313869,13.43181,9.721192,13.4222,13.00591,10.55831,15.97916,6.865696,15.93377,6.558133,16.76428,5.100735,14.68731,7.172434,10.50577,10.18973,5.389655,7.000306,7.363484,1.427709,7.831054,-4.258852,7.258702,-5.095445,2.435599,-6.988764,1.281342,-8.435337,-0.9063837,-7.797931,-5.032337,-6.719621,-9.493516,-9.346188,-8.816003,-10.55776,-9.896932,-11.35966,-10.57989,-14.6352,-12.90485,-14.16702,-14.61712,-16.28835,-15.73107,-17.10871,-19.0608,-16.777,-20.26914,-18.1912,-21.70863,-16.58743,-28.15574,-13.83335,-30.94029,-12.06784,-29.74296,-15.58423,-24.18624,-22.32704,-21.32019,-21.82223,-23.15993,-22.04226,-24.57347,-20.66915,-26.8869,-19.77623,-25.06293,-26.53868,-23.78418,-29.24706,-23.68603,-28.87339,-25.90969,-28.70389,-26.52488,-29.68595,-28.63442,-28.97904,-30.24135,-27.35704,-29.82607,-30.31389,-24.93252,-32.56415,-23.42978,-28.84624,-21.67569,-25.95243,-21.88882,-19.13633,-20.17811,-18.38903,-15.09021,-17.26531,-9.716064,-15.39269,-8.317772,-8.96496,-8.819278,-4.122236,-6.773722,-2.390405,-3.480867,0.7715047,-2.89477,5.694786,-0.8579947,8.264745,-0.8662432,11.85364,4.067536,13.31237,6.334606,13.81987,11.57476,11.29316,17.82201,9.191689,22.1509,10.02209,23.76219,13.57404,21.33963,19.40938,18.05457,20.13101,21.27068,19.70594,21.24493,20.82547,21.13863,21.14452,21.60344,20.59737,25.20296,20.18096,26.38938,22.01017,22.55542,24.87459,22.14702,28.69571,22.4215,25.27839,26.94757,21.34851,27.04774,20.87225,25.55429,22.69002,20.20921,24.46915,18.9551,23.79501,16.83775,26.46572,11.84356,26.56004,11.60545,26.39503,11.65631,24.19321,13.7726,23.75694,13.28728,22.85109,13.77876,21.30086,15.86367,21.5691,14.66036,21.80199,13.80895,22.49897,13.76397,23.17558,9.985419,23.44085,9.946643,19.97131,11.18963,16.69581,10.10788,16.58782,9.601503,14.68098,5.320696,14.41382,4.568229,11.45041,5.059145,7.413563,7.399362,0.0210433,9.722504,-2.054407,5.663959,-2.226306,3.347991,-4.589488,-0.6934335,-1.479441,-3.216756,-2.649807,-5.2052,-2.780357,-7.102112,1.187701,-12.12361,3.884895,-13.51141,2.46683,-9.511503,-1.653727,-8.815614,-1.783745,-6.967242,-4.742511,-6.960464,-3.940122,-6.087461,-9.649765,-6.261758,-8.477972,-8.114556,-8.33095,-8.541532,-11.02802,-6.688409,-14.53674,-9.838713,-13.95514,-13.20338,-14.39813,-15.91872,-13.8787,-15.56781,-17.88376,-16.99105,-18.67811,-19.20443,-19.26957,-22.15248,-18.4296,-22.04497,-21.99917,-20.7488,-24.26869,-23.14683,-23.13272,-22.18612,-24.9874,-26.48679,-24.32422,-25.79052,-27.31091,-28.41755,-26.86192,-29.1381,-29.08983,-29.01782,-30.53796,-28.3347,-31.32964,-28.10348,-31.97808,-32.73788,-30.14152,-31.96926,-32.73218,-31.78971,-36.10596,-31.81073,-36.33945,-36.02685,-34.87177,-36.1719,-38.18602,-36.93793,-39.09387,-39.30404,-40.00299,-40.15394,-40.17591,-41.14106,-41.12657,-42.85522,-39.24623,-45.1915,-37.31575,-44.50896,-35.66276,-40.72306,-36.19614,-41.11822,-36.636,-44.09135,-35.18322,-47.94277,-38.7941,-48.11724,-46.29535,-49.07449,-53.99548,-49.14073,-60.05081,-53.16129,-59.67774,-60.41976,-60.08007,-62.12839,-61.87125,-65.9504,-61.29885,-67.70063,-62.1717,-67.17401,-61.23534,-71.55287,-54.77598,-75.09914,-47.15962,-73.92378,-47.98079,-66.85455,-45.36948,-58.29897,-48.07247,-53.01869,-43.54862,-46.93246,-43.6796,-36.49383,-37.43888,-32.28017,-29.76458,-28.77803,-23.80426,-19.13264,-21.16663,-7.514022,-12.84107,-1.395944,-4.15887,3.035529,6.915388,6.606586,12.28877,19.72279,16.32265,28.71934,22.70958,34.88082,31.52415,35.90798,42.04498,40.84667,46.81904,47.74441,51.61836,53.44991,55.21979,59.54765,58.91597,66.55115,60.06221,70.20833,66.21961,71.63616,70.05734,75.69052,73.30119,80.12727,73.98608,83.11154,75.1184,85.07325,78.46874,87.52361,76.28711,89.19568,76.77889,87.30005,75.99329,82.08739,75.25841,78.87296,74.18915,78.14601,74.60216,80.66483,77.53765,85.00131,81.51313,90.568,87.36516,95.20833,93.75301,101.3969,98.55339,105.8033,104.3999,106.3977,106.4023,108.4353,108.8345,106.1002,109.4381,102.9757,109.1568,102.9595,105.7183,101.9113,101.1893,100.9989,97.70781,101.929,91.00106,98.37959,89.42138,90.35996,85.87728,84.20926,79.76491,75.71028,74.34114,71.46694,63.73807,65.93575,56.60504,56.78414,53.89093,43.43458,48.17426,35.4965,41.59307,27.35502,30.64785,20.57299,24.18417,12.90216,13.55928,7.224273,7.952109,-3.438277,5.517265,-9.783301,0.8744585,-14.46672,-9.101193,-16.70224,-15.50639,-25.04658,-21.44717,-26.68763,-28.55753,-31.57263,-29.67472,-32.75398,-37.63761,-33.96537,-37.86388,-40.65644,-37.01718,-42.85099,-35.17152,-47.48315,-33.74456,-47.04107,-36.82441,-42.31233,-37.70341,-40.83938,-35.95622,-37.51438,-39.23467,-31.79303,-39.41833,-28.59395,-38.29497,-27.69855,-34.64639,-27.28306,-33.5806,-26.16187,-31.08352,-27.25629,-30.60689,-28.1547,-32.34183,-31.19201,-30.65466,-38.92315,-31.59241,-36.71603,-35.7593,-33.41205,-34.89283,-31.70557,-33.31976,-28.1767,-30.50769,-25.74476,-28.54594,-26.13114,-27.57491,-22.10365,-26.2679,-23.69293,-21.86729,-26.78026,-19.71645,-26.64757,-18.96852,-24.85093,-17.60588,-25.61408,-15.76374,-24.14766,-15.59719,-19.5683,-19.02411,-15.35123,-19.23322,-14.22899,-16.617,-11.33192,-20.30856,-5.685253,-20.74301,-7.011464,-17.78086,-5.81227,-18.04106,-5.703562,-16.72379,-7.96218,-17.90623,-6.561778,-21.133,-5.188937,-22.80246,-4.692822,-21.2807,-10.39475,-15.88547,-13.7088,-16.09642,-14.88761,-16.43616,-18.12782,-17.46625,-15.22005,-18.94171,-19.5079,-12.94218,-25.70044,-13.46047,-26.30183,-16.82668,-24.16249,-18.39888,-27.12298,-17.43398,-24.35795,-24.03912,-22.05439,-23.08153,-24.54373,-22.6229,-22.91146,-24.85045,-26.78944,-19.55323,-32.9048,-18.46428,-31.44207,-19.36949,-31.05919,-19.65751,-30.14374,-18.26618,-28.22216,-22.39622,-22.47472,-27.21718,-21.48488,-26.78556,-20.62004,-27.82934,-21.58635,-24.86485,-24.06485,-23.53151,-26.02195,-22.50627,-26.14755,-23.98095,-24.0158,-23.69854,-25.66248,-19.81307,-28.17468,-15.27352,-27.44722,-18.53576,-20.23461,-19.53658,-17.37399,-20.33251,-16.72378,-18.10598,-17.56917,-15.92836,-18.16788,-14.76262,-16.22723,-15.27633,-14.37306,-12.28162,-16.31631,-8.875021,-17.48887,-6.763,-13.11852,-8.139259,-10.54381,-6.547609,-5.984585,-6.931713,-6.423377,-6.359119,-1.255727,-5.722938,0.9774468,-2.744482,1.989216,-0.338781,4.103244,3.112198,4.820975,3.496265,12.30935,1.804235,13.63549,8.050617,9.270441,14.60179,11.95293,14.06892,20.71726,13.64227,25.33583,14.36035,24.94367,22.05055,22.55714,23.39074,25.69756,21.58031,24.78358,27.2245,23.11221,26.20473,25.83627,27.17675,23.98377,27.13137,26.05013,26.44121,24.57211,25.71757,24.56605,27.77427,21.67661,25.63115,20.3401,22.39938,21.60624,19.77121,17.36331,16.14111,17.44557,14.12366,13.9105,14.84695,11.73455,11.7722,10.59202,10.84288,7.616904,8.628704,2.453135,6.531637,7.036476,-3.879475,8.860979,-3.814835,2.251745,-4.611863,-0.01355152,-4.723307,-4.30411,-6.18684,-5.706237,-3.838028,-10.72141,-2.249114,-11.58755,-7.688666,-7.881332,-8.040624,-7.321225,-8.97108,-9.975238,-6.244728,-8.073002,-7.252239,-10.23862,-7.391217,-10.59177,-2.650027,-9.119915,-3.38323,-8.25033,-4.310946,-4.302155,-2.751383,-6.830218,-2.469257,-6.937248,-1.261487,-7.718524,-0.5206009,-7.210754,-2.859138,-5.698217,-2.089458,-6.95478,-4.317862,-9.120965,-2.12684,-7.718476,-5.378158,-8.536629,-6.554539,-6.647802,-4.597723,-7.966329,-4.616817,-9.035489,-1.017731,-5.61824,-3.059503,-4.925552,0.334824,-4.378169,5.780897,-3.026162,3.376195,3.866313,1.922098,6.429879,3.245856,7.386067,5.195101,10.23726,7.917649,11.56838,7.690879,15.91084,12.31135,17.78522,15.06401,21.0383,16.06559,24.92881,20.8246,29.01324,20.81065,29.77171,28.05323,33.55957,28.68228,30.90485,35.31548,28.804,42.22714,30.16465,38.99754,32.24956,39.80946,31.07244,43.40673,28.18478,38.65275,33.35675,34.11125,36.45455,29.28014,33.24236,30.65698,31.48833,31.84204,29.13609,26.35826,31.37744,24.26501,26.87278,22.32166,22.39583,20.21746,19.34097,21.84106,16.08947,16.30054,12.34113,18.28223,4.804475,15.32452,4.329248,9.045475,7.157474,1.667514,7.746424,0.4568511,4.638225,1.621727,2.10821,3.2469,0.1557422,4.502001,-1.525118,3.237962,-1.998092,1.7982,-1.962012,1.249532,-2.910618,2.147616,-3.737796,0.7262784,-5.102261,2.702173,-5.771207,1.355539,-5.96384,2.097381,-6.555386,3.127149,-8.674227,4.844075,-10.29822,6.916775,-9.65874,5.391692,-5.917815,3.508575,-5.705816,2.966533,-1.836957,-0.5750365,-0.01810671,1.596526,-1.373599,0.05184925,0.4405391,-3.030673,2.152922,-5.095559,0.3888068,-5.201365,-3.548031,-5.626783,-2.821978,-9.469241,-2.206429,-12.20939,-1.394737,-14.66699,-5.178623,-14.80269,-6.237853,-17.45113,-3.64816,-20.8424,-3.977907,-21.46597,-7.375169,-21.62979,-8.522534,-21.70211,-11.56797,-24.70222,-10.6484,-24.94846,-11.09599,-27.94776,-19.16664,-19.79806,-26.52075,-23.35843,-28.12215,-20.22971,-32.18429,-20.92899,-31.12836,-22.9524,-28.69845,-27.63345,-25.72885,-26.47413,-30.66961,-23.9188,-28.18852,-23.28546,-30.15451,-20.90235,-32.68908,-17.36633,-30.78617,-18.98971,-25.36912,-20.66736,-21.92161,-23.15055,-18.09547,-22.5517,-21.92019,-20.23173,-24.0323,-17.09795,-22.52126,-22.95156,-14.73744,-23.66421,-14.65783,-19.13749,-20.43066,-15.65325,-20.45107,-12.93551,-23.96685,-7.586453,-28.00675,-11.58567,-23.86352,-17.41526,-23.77593,-19.08668,-24.07737,-20.44053,-25.03039,-22.14621,-25.78219,-24.91819,-27.80541,-27.23369,-25.64356,-29.72956,-32.11461,-25.85084,-36.74266,-26.93412,-37.24845,-27.32136,-39.51638,-28.85993,-40.12722,-28.45841,-42.09164,-27.83017,-39.50873,-27.29366,-39.99787,-27.81369,-39.60508,-27.55179,-40.51009,-34.27657,-38.26297,-34.6334,-40.86334,-38.84862,-38.50611,-42.90068,-35.68426,-46.49582,-34.8283,-49.5677,-33.28983,-47.45692,-33.59249,-46.02031,-34.06893,-44.41464,-29.90895,-44.76461,-27.09946,-42.20618,-25.2308,-38.64349,-23.17594,-35.22919,-18.87414,-32.59324,-18.21592,-28.76285,-11.45918,-21.7691,-15.99371,-13.38436,-9.313037,-8.767796,-8.016213,-4.04707,-2.747107,2.153331,-0.160453,4.700766,9.047861,8.192677,9.387794,15.90827,16.75649,18.8308,20.07732,28.47596,21.01711,35.49492,24.412,38.49854,34.96416,35.77677,45.51931,32.46606,50.11153,37.05244,48.72432,46.62694,46.59206,57.41637,47.03143,57.73656,54.56844,58.21663,58.62687,61.91984,57.69131,68.47456,54.30591,71.62776,51.91893,75.37522,46.17303,74.40368,53.02712,64.18792,56.28546,62.48273,53.73165,59.22146,53.06245,54.73894,55.46916,50.17543,56.84575,52.71707,58.31977,54.52263,56.17732,62.79234,51.38619,66.43943,55.2264,64.37349,59.97815,65.4259,60.35033,70.98657,59.75042,76.97553,61.11934,77.30724,66.53182,72.78345,68.77453,72.64744,68.18691,67.82886,73.55406,60.15124,74.20332,54.58627,73.73315,50.41439,67.02856,48.37194,61.96769,42.40881,56.32218,40.42255,49.48349,35.71119,42.2519,36.89493,34.46186,29.10124,34.37952,18.69536,28.34136,16.6792,22.26567,9.619113,17.39822,3.946289,12.12186,1.691353,4.774131,-4.676329,-2.223257,-6.736682,-8.552792,-14.66759,-12.88936,-15.54732,-20.16983,-18.19301,-24.57793,-20.19296,-28.37633,-28.02915,-27.97953,-30.60207,-27.91087,-32.75962,-34.39531,-28.26608,-39.25686,-29.88843,-37.99044,-35.20429,-29.64634,-42.92484,-27.93664,-40.3868,-29.66693,-35.31024,-29.9721,-30.45072,-32.81611,-26.30293,-32.58502,-23.43166,-29.029,-20.70719,-26.18832,-17.50449,-27.93832,-16.13006,-26.96624,-12.26131,-27.39209,-11.95223,-28.4417,-11.96091,-30.78682,-14.21293,-31.55062,-15.39412,-32.68517,-16.1146,-33.15332,-22.40979,-25.97722,-24.92961,-23.47199,-21.8716,-25.06959,-21.74647,-26.91485,-18.13787,-28.94429,-21.2884,-27.10375,-20.72794,-23.68475,-24.49776,-18.74453,-20.94062,-20.17375,-17.50057,-17.92668,-17.99891,-12.88038,-20.40354,-7.567508,-21.06196,-4.917103,-19.90174,-4.567007,-20.38214,-3.084942,-22.98346,-0.07599303,-24.83164,-3.239201,-18.59744,-8.412371,-15.10762,-8.655889,-14.45919,-10.94213,-14.41161,-8.570479,-13.1037,-8.777657,-12.79995,-11.45023,-11.80298,-9.090002,-10.7916,-12.64292,-10.8222,-12.01555,-12.04983,-11.40211,-9.952054,-13.35038,-13.53827,-12.04488,-9.792988,-16.6566,-11.75274,-11.1051,-13.5861,-12.72648,-12.34542,-11.21991,-13.60537,-14.93746,-10.7071,-13.71071,-14.69359,-11.50536,-14.41937,-16.79051,-7.076148,-23.63016,-6.291761,-19.56915,-10.35944,-12.09547,-17.92894,-8.988387,-15.52042,-13.57373,-7.928434,-14.22242,-8.487889,-9.10916,-11.3446,-5.404684,-10.81042,-4.545056,-9.940352,0.3553882,-7.85922,-1.601023,-2.554297,0.4051731,-1.554893,2.844367,1.389709,4.322753,3.031331,2.786807,8.444652,0.05790707,14.82446,-0.994399,14.54026,-0.7101143,15.6721,4.780233,14.63647,6.185992,15.71099,6.326197,16.81275,12.4939,14.61094,11.7235,15.16005,17.69497,13.19994,20.64425,12.15478,22.39557,11.74861,21.77834,16.78833,21.22784,15.53976,24.57521,19.19634,20.87491,21.73484,23.86974,21.5594,23.04204,26.7996,19.96571,29.37238,23.03051,22.52693,26.71958,25.50365,27.2051,26.71423,23.77183,32.1155,23.93956,31.77016,28.78633,27.60395,28.4531,28.26547,28.59129,32.02505,24.1406,30.37147,27.30861,28.85247,24.32874,30.81301,22.79871,29.46024,18.06986,29.9128,21.79968,22.79246,19.58584,25.19129,16.0219,21.78632,14.83031,19.12277,13.71762,13.46398,12.08892,9.879207,10.62583,4.941891,6.744318,3.474064,0.04824531,5.408271,-9.904494,4.250406,-10.82729,-4.225306,-6.086691,-13.30891,-6.220336,-16.46042,-9.742062,-15.04061,-18.2365,-15.10883,-19.79549,-20.31179,-17.34698,-25.83671,-18.15698,-25.85573,-19.16372,-26.55919,-25.5327,-25.34475,-27.79306,-24.98666,-25.34262,-28.12747,-25.9527,-29.66089,-26.26862,-28.41593,-27.06006,-29.32829,-28.61049,-30.3896,-30.38378,-29.33915,-30.84342,-29.92663,-31.66958,-28.30476,-33.10344,-26.50381,-34.55524,-27.71759,-34.22108,-28.39184,-33.94061,-31.59608,-32.5463,-30.96127,-33.26409,-31.1465,-30.6873,-28.45213,-36.96169,-24.71045,-36.1399,-22.83353,-39.20925,-16.80692,-40.42346,-17.23889,-36.74903,-15.54615,-38.67146,-11.05982,-38.02914,-13.44596,-27.9634,-15.69685,-26.20359,-16.18542,-22.66232,-11.74456,-26.1926,-10.95973,-22.45551,-13.34952,-14.84748,-9.641549,-15.26042,-6.764675,-14.79085,-3.474565,-11.38695,-4.466739,-7.008065,-1.293964,-4.068973,-0.8986869,-0.4900749,3.860269,2.419111,2.115131,11.25984,-0.8538954,8.994759,7.260757,7.306299,10.16116,7.572838,14.3203,5.647485,13.66694,9.565011,10.01695,13.06988,9.051487,12.51038,8.276397,10.23524,10.24764,9.070944,10.46479,7.304602,8.044341,6.557463,7.573659,1.951617,8.152153,-0.7476229,9.392949,-1.668511,7.553766,-2.909076,4.243471,1.103183,0.6947032,1.473549,-0.4781217,0.5626866,1.758977,0.9436272,3.170669,-2.326306,2.191139,3.222924,-2.590979,4.688444,-0.858093,2.526717,-4.645818,8.723644,-10.75641,6.795719,-2.83161,1.635535,0.9899189,-0.3978383,4.950021,-1.153173,5.781992,-2.314259,8.697214,-1.180395,6.40395,2.859375,6.214162,6.128303,8.161436,5.808708,13.22204,7.474176,12.4123,8.454621,17.13185,8.917983,21.81771,7.060175,27.54246,5.980471,28.13643,12.47852,25.78024,16.26602,25.11144,13.33087,28.14506,13.47219,23.89047,18.00926,22.71224,16.42854,22.20748,16.07212,24.83829,15.28418,23.66552,16.61945,19.79443,16.69842,19.93168,14.8537,19.01827,13.14693,17.52711,12.96827,15.31703,14.43745,13.58638,14.77013,15.94486,9.051059,13.03896,11.00342,7.443876,17.39249,6.094934,16.16618,7.323479,12.56993,9.803776,9.966692,11.51472,12.01123,7.812852,17.34229,2.582281,20.19092,1.556864,19.91165,2.758586,19.63766,1.889213,19.84139,4.064789,13.26473,9.50336,9.414276,13.55925,9.90539,12.39237,11.401,15.62265,8.483048,18.0558,9.779989,19.67453,7.344636,20.76281,9.38762,18.70454,10.66641,18.67598,9.059429,19.61058,11.23177,12.60995,15.25887,10.44296,14.24276,9.650414,14.67736,4.000052,15.86638,8.747618,9.171419,14.46083,4.340882,16.49063,3.167372,14.86015,4.8477,14.99835,4.373124,12.52044,8.384638,10.51163,8.10652,8.510507,11.7242,10.89677,9.416995,11.67549,16.84275,9.661273,23.39044,12.57175,18.91061,21.24316,16.26682,25.07189,19.37257,25.69105,23.24468,21.21125,26.00886,24.99406,27.30934,24.20713,29.61625,22.05867,29.19757,25.25393,29.34356,25.02174,23.32987,29.99809,22.46047,24.92444,22.4261,22.504,18.38563,19.33361,19.29702,14.27104,16.19067,16.43253,10.86971,8.98871,9.849919,4.799353,2.546553,2.26951,-2.886658,-1.398099,-5.75187,-7.598973,-6.54163,-15.48468,-9.366997,-17.87172,-11.82169,-24.79502,-13.66874,-29.29821,-13.70957,-37.80983,-18.53899,-41.44685,-20.68912,-46.34366,-26.0802,-46.16593,-33.40646,-48.10698,-35.79889,-49.69269,-37.75939,-55.1748,-37.4469,-53.77304,-38.98145,-52.04211,-42.82331,-45.66977,-45.13247,-48.11161,-51.23309,-47.55561,-57.10067,-52.01916,-60.82976,-54.04726,-67.74169,-55.10408,-69.78406,-59.79424,-69.57388,-64.00037,-70.58478,-68.84297,-68.05661,-70.94962,-65.58296,-69.99098,-64.3629,-69.15368,-67.18984,-63.25834,-67.57079,-62.08108,-64.07489,-60.97108,-61.84287,-58.96618,-59.21727,-56.40914,-56.15938,-50.93605,-48.85845,-44.96806,-46.32548,-36.9481,-34.85287,-35.83035,-23.97014,-33.53041,-18.80247,-21.7047,-13.49594,-11.79089,-10.41905,-1.574831,-8.519168,1.561881,0.8431722,6.199575,8.414738,7.035263,14.92203,12.28303,20.01498,18.17981,21.92593,23.48222,24.10967,31.8553,22.78523,35.21827,25.79248,35.84266,32.4437,34.663,35.40861,31.3418,38.97137,33.37945,30.80755,37.90431,28.97395,34.1732,29.10017,24.92882,32.38284,23.14965,29.16831,25.39212,22.70947,21.39748,22.98736,15.49991,20.1207,14.34146,16.19263,12.90069,12.63103,4.367563,13.48105,3.546509,9.797473,3.643355,7.657744,1.949362,5.467743,4.755306,7.064602,5.104559,11.41798,4.634388,17.21037,8.951282,17.40684,14.96809,17.98514,14.49224,20.02852,7.64718,24.71036,4.915875,26.25065,3.238935,25.47265,4.913104,21.01306,7.818318,17.41799,9.119599,16.6931,9.297583,15.78229,12.748,13.31562,9.632584,17.93095,7.19089,17.40901,7.089842,15.42129,11.29383,10.29654,14.89547,7.532471,13.86304,9.114446,10.86444,10.834,7.625096,13.77743,3.650615,13.80511,5.304952,12.20025,5.628734,12.91289,2.0149,9.960842,4.96023,7.222229,7.816967,6.742883,3.782009,6.888612,2.163136,5.24046,2.435311,5.426376,-1.552814,4.448569,-3.506424,2.389413,-2.619918,0.9195648,-0.530767,2.282502,-2.159948,2.086592,0.9304739,-1.588046,4.594453,-5.583766,8.212615,-4.501733,3.819939,-1.421241,3.17081,1.683425,2.350543,-0.6476324,5.985753,-3.740952,7.558707,-3.789027,7.174806,0.9398679,3.953232,4.786872,4.239794,1.714707,6.287852,4.360367,6.477161,5.448915,9.51465,3.861269,8.348566,6.604166,6.666317,11.3918,4.638895,15.50727,5.134663,13.01325,9.390822,14.28157,11.59905,14.77505,9.799051,14.28303,14.06943,14.17722,16.08099,15.90264,18.32117,15.55238,18.12705,19.7026,12.44572,26.31851,7.993267,25.70995,5.296074,26.90724,8.082636,24.87325,13.65383,22.38432,12.7365,24.36899,13.32635,24.4834,15.24,20.4223,20.47997,19.16299,21.84295,19.66468,23.42435,21.27548,23.7715,22.9715,24.52106,22.43517,24.53528,23.33332,23.63544,24.06342,21.33179,25.20624,17.44808,26.55,16.41995,25.1789,13.80382,24.28854,10.57292,20.98073,13.4615,16.02164,11.72618,14.6031,8.874049,10.9793,9.152461,8.015843,4.147583,5.188402,-1.006502,4.231596,-3.058808,0.0294414,-3.910528,-1.697199,-6.879093,-5.617556,-10.50524,-3.96271,-16.25538,-8.00307,-12.3174,-17.12271,-10.67474,-20.54684,-16.09313,-20.94908,-17.43791,-23.30783,-20.75949,-26.85835,-20.08663,-28.32837,-23.07619,-29.24367,-27.10935,-31.3431,-27.70588,-32.71445,-27.90986,-34.59521,-28.56247,-34.02071,-30.7517,-37.63087,-25.52891,-43.86723,-27.10601,-37.25576,-33.43004,-30.71223,-32.93254,-26.41466,-34.93621,-23.4827,-35.40739,-26.48276,-34.63457,-34.20578,-33.36944,-37.62028,-32.49802,-43.85473,-34.99862,-39.9783,-42.71011,-38.58859,-47.86995,-38.39928,-48.9666,-39.46088,-48.93387,-39.87904,-46.97046,-36.49179,-46.89118,-33.4605,-46.73844,-34.34326,-43.14992,-31.43123,-39.81731,-30.67073,-35.81999,-29.59071,-31.05645,-26.1399,-25.5845,-25.90955,-16.65635,-23.87203,-16.95456,-15.35604,-17.29966,-9.02979,-16.12975,-0.6543247,-13.97446,2.744457,-10.1518,3.544239,-3.489708,8.168149,-1.967338,10.60183,6.076956,8.247137,13.97172,8.966001,20.73848,9.249146,23.58425,16.36751,20.70985,21.55053,24.06397,21.94252,24.15435,25.45239,24.07084,29.82649,24.83856,30.80235,27.38067,30.27854,28.64561,32.72759,27.00084,32.29479,24.05819,36.35921,23.61787,31.65934,25.48421,29.79493,24.01772,28.902,22.99868,26.12476,23.16176,21.30832,25.74472,17.60472,22.66818,16.37415,20.05712,15.31457,19.0205,14.58375,14.55378,16.52774,14.68441,15.43774,17.8532,13.73638,20.91009,9.29899,25.99459,12.53756,25.86143,19.3478,23.59948,25.79402,17.88634,29.39813,15.85748,22.67876,21.83912,13.22867,24.99457,9.675805,21.02785,10.20504,16.87333,11.77714,10.59121,14.96725,5.491637,17.38051,2.2015,18.23804,0.7604923,18.44108,1.83735,17.01454,0.190238,19.12721,-3.545034,19.58563,-4.52666,13.74127,1.085712,8.034942,3.776992,4.451335,5.565529,3.96022,4.467589,5.599116,2.902224,2.090567,5.371881,2.84108,2.249152,6.524244,-1.648407,10.35157,-4.743789,8.140204,-6.194275,8.281372,-4.896331,4.451607,-5.215651,3.270872,-1.623086,-3.90483,0.3920114,-7.207858,0.7671436,-13.82016,2.627567,-15.93923,-1.677893,-15.11153,-5.80208,-15.07745,-8.789172,-12.97717,-11.8776,-13.97747,-12.60024,-16.30531,-11.92672,-21.63199,-8.361223,-24.45026,-14.06814,-23.08929,-17.31404,-20.75414,-18.90988,-22.03737,-21.75247,-21.53361,-26.39997,-20.34667,-21.74379,-28.30104,-25.9684,-26.07132,-26.07314,-23.36376,-31.54186,-28.38062,-26.91855,-30.07052,-24.28024,-32.96214,-26.92947,-27.87921,-26.00201,-30.8209,-20.48507,-39.27032,-19.47734,-35.0386,-19.07661,-37.08067,-22.43315,-33.03853,-24.05429,-26.3329,-32.81777,-24.06599,-35.25449,-21.38118,-30.97334,-29.9859,-29.58865,-31.89066,-25.04642,-31.44435,-28.73173,-32.76555,-30.9922,-30.50285,-32.82217,-32.97416,-35.02335,-33.08907,-36.14867,-31.65989,-40.97522,-37.26305,-41.12845,-40.28763,-41.4174,-41.91551,-47.79528,-40.10464,-47.02887,-44.84639,-42.65737,-49.00617,-42.15197,-47.49771,-34.99254,-51.38537,-38.30523,-45.05308,-35.36252,-42.68726,-35.99094,-37.95032,-39.92828,-27.43377,-40.74018,-25.34,-33.4793,-25.27885,-27.55613,-18.68385,-21.15017,-22.81119,-13.02919,-18.48111,-7.007784,-10.07084,-7.542112,-6.38601,2.914998,-3.241871,11.00775,-0.4336991,14.15821,9.469376,21.73585,15.35497,25.36977,22.45838,30.74401,32.85747,36.62165,33.43328,43.84833,36.59193,50.78708,44.38637,51.77914,50.99377,53.53128,55.14771,58.92992,55.83652,62.24394,58.64926,66.56051,55.57263,70.48737,62.2986,67.84335,69.95229,60.81279,74.70324,61.88804,71.14785,65.13598,69.3034,67.80587,71.44908,70.72185,71.04584,75.50942,69.07581,79.75471,72.8557,77.45862,77.03487,79.80172,78.93461,79.72085,84.0789,78.90297,85.06319,82.66136,85.24137,80.48052,90.17928,77.24648,94.1449,72.50749,90.22361,76.02699,84.40083,74.71677,81.70768,71.80072,81.56839,66.99964,76.18696,63.65152,73.1189,58.14535,66.78956,55.59616,56.32466,59.87003,43.53426,54.16104,39.36464,45.76171,35.04102,42.24313,26.49609,33.25326,23.7944,25.13417,10.58813,21.80987,1.730498,13.36345,-10.33432,3.347094,-13.95668,-9.401304,-16.79801,-24.78164,-19.56499,-30.21221,-31.53155,-35.42653,-37.54026,-43.21616,-44.98947,-44.18077,-50.10704,-51.53835,-55.26013,-57.06076,-56.80005,-61.50351,-61.85166,-61.86349,-68.34331,-60.37417,-69.15736,-64.21869,-67.01677,-66.58634,-64.48924,-66.4524,-62.0531,-63.64636,-62.26242,-58.7432,-59.53962,-59.47294,-55.12859,-58.43057,-49.35511,-57.04175,-41.73104,-52.5041,-37.72658,-42.75163,-39.512,-33.02783,-35.90441,-28.04728,-31.23851,-22.43584,-29.72765,-18.77584,-23.84056,-18.48892,-16.18657,-16.26722,-8.088063,-10.48781,-4.763267,-3.363922,0.5047891,-0.09145058,6.761886,6.260457,8.199822,11.73376,14.44833,13.10826,17.46948,15.22454,19.85827,16.35094,20.87809,19.40029,21.78006,21.57685,26.10368,17.60138,29.48553,12.93401,33.79374,13.55466,27.85849,14.5642,26.60022,13.50687,24.1811,10.14755,21.18424,10.14027,17.65139,8.1302,12.04937,7.991615,7.103022,7.228145,-0.08213155,8.430421,-3.470912,3.656745,-6.974406,1.251981,-12.71597,-0.5822478,-15.09287,-8.645382,-17.00608,-9.496402,-24.74266,-10.66609,-30.4317,-13.21087,-28.25087,-17.10629,-28.3869,-23.51625,-24.324,-27.18002,-21.33043,-29.83384,-19.29479,-31.60252,-21.15832,-27.59076,-22.84534,-31.50315,-18.08075,-29.15398,-17.94129,-26.76634,-18.54242,-24.88657,-18.33152,-21.96084,-20.8726,-18.28128,-21.06557,-17.34847,-16.83988,-16.63045,-20.13483,-17.79841,-15.96304,-20.60651,-18.77625,-19.72773,-14.35302,-24.33163,-7.664046,-25.91176,-7.053495,-24.33561,-7.866572,-21.58439,-10.99047,-17.78675,-10.59808,-18.67354,-9.303093,-16.48032,-13.00613,-10.03426,-15.37347,-11.21263,-14.98257,-9.633811,-14.46668,-11.22478,-15.28109,-8.135996,-16.5362,-8.953299,-14.89414,-9.272466,-17.84198,-8.196646,-19.80079,-5.348963,-24.09785,-4.904158,-20.14907,-4.340392,-16.92167,-7.079046,-12.1173,-9.033663,-13.99224,-13.66208,-9.238209,-19.75038,-6.700139,-22.7465,-9.953151,-20.84839,-13.21688,-25.14278,-14.93038,-25.60136,-19.2224,-20.96819,-24.83384,-19.23649,-31.52703,-15.92228,-33.9259,-16.09803,-32.83101,-22.14673,-28.63143,-27.17821,-25.76279,-29.03095,-26.15257,-25.39094,-28.92118,-21.3004,-26.81405,-20.89489,-26.47016,-17.05274,-26.80452,-13.04847,-22.02639,-10.95047,-22.00791,-8.918267,-14.51119,-7.692259,-8.026271,-11.16385,-0.225399,-11.15314,4.537264,-3.798124,4.757418,3.954899,10.45702,6.707133,15.86988,9.608327,20.24468,14.29614,25.17885,17.32741,29.57817,22.12856,30.95428,26.25262,33.43661,30.05396,31.90868,38.99202,35.78175,34.63302,42.16126,37.69093,45.92515,33.51516,54.21335,29.91645,55.34362,32.20523,52.59695,33.18809,51.86472,30.69011,51.04657,31.28748,50.24813,32.39608,49.50588,35.43586,44.81203,38.65158,42.9899,45.0105,41.29237,42.28229,45.91422,42.00571,47.48118,41.59807,45.8267,45.48045,43.44646,49.00555,44.95639,50.07654,44.7899,52.15107,51.58177,48.53671,50.10875,50.0958,48.972,50.19408,45.40742,51.75053,45.97921,43.91959,48.58494,38.13371,45.54593,37.39838,39.00067,37.83633,35.03772,36.94744,33.32512,34.09154,28.2058,31.98591,24.39449,30.33306,17.68757,28.06433,10.96439,26.8061,11.12225,18.35885,11.01769,13.38856,7.873541,10.71311,3.555018,7.143493,2.158075,1.16429,0.5151415,-4.867864,-2.097421,-5.602087,-6.38536,-6.396568,-10.56503,-6.298871,-11.78624,-10.96007,-11.04028,-17.11022,-7.989487,-21.30927,-7.209826,-21.9874,-9.684032,-20.82962,-12.5114,-19.35537,-16.48204,-19.33306,-15.30421,-21.06914,-14.40377,-24.0815,-12.02109,-25.28083,-13.29249,-25.86481,-14.03161,-23.23626,-12.00679,-25.45099,-11.30094,-26.21326,-7.49879,-29.93364,-3.46551,-34.33317,-4.24644,-35.20738,-8.594984,-36.11552,-9.788345,-39.33173,-8.489165,-41.04033,-10.85778,-36.45104,-13.95101,-37.48315,-12.01355,-36.92628,-13.95948,-31.20017,-21.27011,-18.76273,-31.85432,-14.92874,-27.17425,-21.37927,-16.5804,-27.6136,-14.31944,-25.08933,-16.96742,-21.77479,-14.42128,-22.23502,-13.12938,-21.17031,-8.697925,-24.96992,-3.533428,-23.8718,-6.027917,-16.30242,-13.13915,-11.61854,-12.87006,-14.38801,-11.22924,-11.34855,-12.12579,-7.848842,-14.59229,-4.058335,-16.76303,2.685462,-18.68613,-0.6572518,-10.9546,-5.640577,-8.073881,-6.517449,-11.26166,-0.4587021,-12.64633,1.859037,-14.60656,-0.3682807,-12.77008,-3.010461,-9.586022,-2.721026,-10.15008,-2.073525,-10.08821,-6.115501,-6.363859,-9.058954,-5.017073,-9.975204,-2.39684,-9.25493,-2.120334,-10.38561,-2.94112,-8.734174,-2.995784,-8.592533,-1.684226,-7.127894,-3.260929,-5.43034,-4.679204,-4.273944,-4.141016,-8.241591,-1.998278,-5.186557,-3.552166,-4.188286,-3.462889,-3.404,-7.175563,-0.7412985,-8.188237,0.1963347,-6.470391,2.583632,-5.312937,-2.583765,1.638726,-5.94537,6.325373,-10.93615,11.95721,-14.35056,12.59073,-9.796354,11.00934,-6.981478,12.82182,-3.865498,14.9366,-3.343948,12.13258,3.621808,8.398859,4.734988,14.01611,2.460298,16.00847,4.734929,11.97859,13.28103,6.952974,18.0661,7.768891,17.31299,14.10359,10.70538,15.96733,12.88547,17.8005,10.76989,19.66381,6.643261,22.98389,11.78973,21.25766,16.2856,19.30691,16.40314,22.31426,19.43894,18.31346,25.64728,18.20866,29.03218,20.85206,30.01094,19.02629,33.09727,18.30388,34.53431,18.32525,33.84204,20.07569,35.04858,25.45867,26.48869,30.07546,24.36251,29.37896,28.48478,24.13933,31.98972,22.17677,30.32318,23.45715,28.80946,22.6504,23.53979,24.61547,22.79364,17.59731,20.9586,19.14285,17.12956,12.03355,20.07976,8.295032,14.65847,8.941476,9.534687,10.13004,4.500323,5.941488,3.135958,4.205333,0.5096324,-4.277697,1.337938,-6.5673,-1.45489,-11.46265,-5.006046,-10.27217,-8.252077,-17.8807,-9.36295,-19.6621,-15.01826,-19.38375,-15.00431,-24.58437,-15.99956,-28.38265,-17.96039,-31.06938,-20.85358,-30.36898,-27.79548,-30.49681,-29.02368,-33.31251,-27.4836,-37.10928,-25.79644,-38.88349,-27.96413,-38.57267,-27.94323,-37.76733,-27.50261,-36.54047,-24.65505,-38.04116,-25.45988,-36.68878,-31.99709,-38.90478,-35.87163,-42.42174,-37.33763,-44.32381,-45.62511,-44.04011,-51.3138,-42.17792,-58.20199,-42.78825,-57.07181,-47.50701,-57.10474,-46.71388,-56.36982,-45.47426,-53.82977,-47.67908,-49.66913,-46.32024,-46.13004,-41.01106,-41.9109,-39.40228,-35.92042,-36.6201,-28.17695,-36.47794,-22.16547,-33.07512,-16.27823,-29.84871,-10.88928,-20.97044,-3.392967,-13.04414,-2.207561,-3.898969,-1.531257,3.836444,7.923036,7.744044,15.1189,12.35965,20.70006,17.50066,23.79174,25.73653,25.29527,32.09125,31.66951,39.58528,33.28432,42.43578,38.54899,47.21024,39.77164,44.92583,51.54814,40.43283,54.52716,45.36584,50.91772,45.96878,49.35776,46.12615,50.75435,46.43141,46.16343,44.05368,48.25256,41.60329,41.69856,39.47488,39.82285,34.56172,38.52614,29.0057,37.26713,24.87205,31.70799,23.29843,24.034,22.42295,17.80504,14.7605,20.84104,6.049229,19.06425,3.396086,15.74021,3.226103,10.91815,5.039359,8.441744,-1.948485,13.34622,-5.333772,15.94734,-2.710601,17.32343,3.362313,14.65333,9.341716,11.91326,5.628622,12.5302,2.185107,7.130111,6.689085,1.782991,7.860626,-0.1232511,7.070675,-1.944562,6.320424,0.7002362,3.495795,1.151761,5.862854,-2.80117,5.07697,2.641269,1.450359,3.000258,3.723958,2.148176,2.828005,7.096492,2.084799,2.600531,9.018465,-4.086351,13.65889,-7.386423,15.37042,-5.777004,8.014931,-0.5789422,2.236122,3.185494,-4.842629,3.326229,1.181088,-5.930167,0.2581395,-7.378983,-2.00231,-13.39143,0.02186959,-13.10507,-9.078575,-7.77675,-14.7042,-5.346543,-17.11273,-7.608224,-14.03599,-13.70763,-5.12682,-19.82294,-7.641548,-17.68806,-9.942239,-19.10067,-6.48102,-22.97625,-9.956012,-17.96146,-16.45445,-17.00914,-16.87494,-20.64366,-14.25597,-18.36561,-18.67508,-18.11619,-18.09561,-19.62152,-19.35966,-18.38653,-22.31891,-18.51285,-22.03489,-15.95884,-25.40914,-13.15344,-29.88086,-10.19561,-32.08372,-9.279162,-30.55626,-14.19741,-28.51085,-13.12238,-30.22537,-11.59738,-32.80641,-12.0171,-32.05929,-13.53568,-35.2967,-12.97849,-33.94601,-18.23456,-29.28911,-16.62951,-32.99089,-12.44513,-31.93331,-14.38791,-26.79277,-20.29417,-22.31626,-23.77752,-19.6334,-23.86495,-24.47782,-21.13361,-20.75282,-28.29248,-16.16128,-31.66482,-14.93,-33.47996,-14.06662,-30.4115,-18.43122,-21.9495,-21.29942,-21.26338,-20.51191,-20.72923,-23.85473,-19.96437,-20.99657,-25.37108,-19.96084,-26.28822,-21.89528,-26.96971,-21.74285,-29.61554,-20.35227,-31.24283,-19.36793,-31.20351,-21.16642,-27.53619,-22.94377,-26.79838,-24.0022,-22.71289,-23.62075,-28.98261,-14.63141,-29.54069,-14.35682,-27.43065,-7.889255,-28.50799,-3.165221,-24.22676,-3.249394,-16.10062,-6.572471,-8.182425,-6.513208,-6.947785,0.7612273,-7.804913,4.353964,-1.714515,3.577377,4.825207,8.562963,5.733324,12.72539,10.37703,16.85011,13.73538,20.31467,18.0988,21.12726,24.4397,23.00802,27.56006,29.1084,28.48661,32.67483,35.17243,36.45361,40.27472,37.52596,48.13824,35.05349,55.17832,35.8848,58.98668,34.52338,62.08291,36.87091,58.5816,44.31771,56.03122,42.60986,57.68671,42.47966,49.63699,48.01355,46.68591,47.03407,46.57825,44.29995,49.3551,45.01319,46.96879,47.224,46.36588,45.13856,46.05825,46.0988,43.2987,49.45208,43.09989,47.6048,42.48317,46.43296,43.6414,46.77095,41.16074,52.44267,38.09759,54.69028,34.97814,60.52356,33.5966,61.33833,34.68481,56.42373,35.09778,55.63312,32.02626,56.63528,26.66706,57.29162,21.47389,59.22811,15.23234,57.00686,11.15164,53.55992,10.82363,44.09003,14.05377,34.09846,21.03081,26.0265,19.73738,21.83543,16.32407,21.4121,11.38027,17.62619,9.022327,14.87801,5.970877,9.729016,4.187751,11.19687,-2.760234,13.98294,-10.06946,12.68538,-14.41563,6.553827,-13.37578,0.3871736,-17.06669,-3.038685,-19.99869,-4.970588,-23.29155,-4.316388,-26.38502,-4.247717,-27.96955,-6.766113,-31.64188,-7.408526,-37.14348,-7.357033,-33.10457,-13.15219,-31.5353,-15.363,-31.03805,-12.9338,-32.09144,-14.39252,-28.12505,-15.2244,-28.89311,-16.61649,-25.74385,-22.84606,-20.04003,-26.2157,-16.49519,-25.03452,-20.64817,-18.36883,-26.29762,-15.48709,-28.64343,-16.40319,-27.36924,-19.48837,-26.2127,-20.21388,-26.58596,-17.45243,-25.8738,-17.87794,-25.32882,-16.96181,-25.16923,-14.52997,-27.36004,-13.06189,-25.53813,-12.59934,-24.31751,-12.41942,-23.03347,-15.42961,-19.78327,-16.50699,-13.93807,-18.42654,-16.06087,-11.71818,-21.30604,-6.42925,-25.46674,0.6933496,-29.46891,0.5143757,-24.07655,-2.022137,-24.72056,-1.170848,-23.07328,1.693081,-26.05147,3.111658,-27.55674,4.581549,-31.69936,3.619478,-30.59348,2.543683,-30.37791,2.400145,-25.93223,-0.6876233,-21.32989,-7.33064,-17.21412,-8.250911,-17.25846,-9.434037,-19.85049,-8.399396,-22.22429,-5.95414,-22.01205,-6.804188,-17.03169,-9.778398,-19.31999,-7.586598,-23.97477,-3.799271,-24.17111,-4.725109,-22.08989,-7.539168,-22.33079,-6.016352,-21.21011,-6.266654,-21.72737,-2.026477,-24.02486,1.476793,-26.19176,4.107249,-26.8768,8.23724,-25.06402,10.61263,-21.79334,7.387402,-16.05558,9.164972,-17.11252,9.215018,-15.96621,11.24743,-15.70307,13.17228,-18.91725,17.43329,-15.11699,14.47261,-5.902472,7.197278,3.953372,3.812006,4.290928,12.28627,-2.861764,20.42221,-0.7123447,18.34437,3.267126,17.02345,9.381851,13.7494,14.84711,13.0444,12.65557,17.33434,14.45067,21.40317,14.03678,21.69701,13.20685,23.56035,13.80768,27.16066,13.57979,29.49147,17.2296,29.94868,20.79969,32.35987,23.05403,29.99133,30.06865,29.7974,29.07181,35.90943,24.73425,42.37953,20.76357,46.00768,27.63027,38.77314,32.64874,43.77987,31.42866,42.75554,34.11634,41.57821,37.44267,39.63092,36.19424,41.57203,34.05132,39.75773,33.18029,40.7912,31.51684,35.29724,31.92882,33.1442,28.63135,31.9917,21.01994,32.61759,15.77054,32.18968,11.48928,29.14691,7.467619,25.24464,6.477881,16.94237,9.036061,7.764601,8.336772,2.447248,4.456642,1.695854,-2.983935,0.01067527,-8.968396,0.5051579,-13.83757,-2.78192,-14.13445,-8.33239,-14.3738,-11.6633,-14.49192,-12.91491,-17.26064,-11.42891,-19.97566,-13.06403,-19.45874,-16.42893,-23.66863,-19.59061,-25.6898,-22.13019,-26.74643,-22.71153,-30.74759,-23.13571,-33.51832,-17.72457,-39.13192,-21.40728,-32.58862,-30.8753,-24.88013,-35.44138,-22.08388,-32.99889,-26.47779,-22.92149,-28.73488,-22.05497,-28.53337,-22.63062,-31.93284,-28.38671,-32.33851,-33.13214,-35.27714,-33.76906,-43.37871,-38.76908,-46.05463,-44.53836,-46.68043,-46.21344,-46.99141,-51.49214,-46.83603,-55.02853,-45.55426,-58.28914,-44.54126,-61.21183,-45.798,-61.26738,-47.78143,-61.66846,-44.82646,-61.51419,-41.97726,-56.23898,-42.09029,-50.61803,-41.26643,-43.94021,-36.79579,-38.46113,-33.11427,-30.66293,-29.80006,-20.75368,-27.90725,-14.40428,-23.3427,-6.995209,-19.19694,-0.3276746,-12.38679,8.209682,-11.92539,17.35179,-6.520714,19.84833,0.3301689,20.94871,7.109914,24.56951,10.28561,25.04383,14.52169,25.68276,19.94274,29.99847,17.13813,31.14555,19.83711,28.79519,24.32403,24.93626,27.88988,24.86471,26.43093,27.11821,20.28462,30.21924,16.67735,29.24565,18.51111,22.00352,22.15947,17.69545,23.92952,12.48481,21.39057,11.53326,18.19863,6.955921,17.12691,-1.274613,14.56735,-1.905277,8.658911,-3.014096,0.6936776,-1.874935,-5.174925,-1.08522,-6.572857,-5.820832,-7.763373,-5.603464,-4.980957,-9.750738,0.9147462,-12.77902,7.757414,-11.23325,9.147464,-6.700194,5.755126,-6.06194,1.205086,-1.025613,-3.788293,-2.059324,-0.7289834,-2.999613,-0.7781785,0.476082,-7.619975,5.064292,-6.323756,4.148498,-4.374143,-0.6262481,0.264631,-2.991212,5.483321,-8.862386,9.502987,-12.26814,9.390291,-11.71272,9.393594,-12.33287,8.478837,-7.717199,4.416277,-2.915787,4.284436,-5.781931,6.979149,-5.245581,7.424415,0.2598609,5.204741,5.573452,5.487327,3.640923,8.347106,10.15175,5.42149,15.83997,4.61312,20.25514,6.844811,20.95516,12.17259,21.11409,10.26392,26.04211,7.076597,27.86301,12.81346,22.05185,20.12624,18.46612,23.69336,18.36391,25.45583,22.86674,24.86248,22.48443,24.27799,26.51563,18.11605,33.51733,13.91693,34.37367,12.40638,34.74669,12.1494,31.65669,10.51321,32.19443,9.612848,30.32908,13.84333,21.39077,19.07502,16.7387,17.87103,12.18551,21.02645,10.09655,20.40181,4.698408,20.66471,0.9495265,19.70392,0.2251449,17.86203,-2.52819,14.4755,0.973193,9.639265,2.271495,6.425485,6.619489,7.209449,1.136293,12.10129,-0.4067976,12.1359,5.164679,14.18426,4.471932,11.88251,5.499439,17.23304,5.212812,15.56383,12.32121,10.88073,16.64412,15.23782,15.30787,18.81867,18.13292,14.95322,26.63094,13.83092,25.71331,16.58436,23.70764,20.38711,21.23058,22.06945,18.99917,23.52542,17.50414,24.60153,17.60841,21.06536,16.50263,22.22772,18.91658,16.76051,24.24813,8.347689,30.58855,3.662893,26.67033,6.145553,24.37196,6.331482,16.40799,6.655179,17.019,5.666573,12.42771,5.31783,7.579274,6.495945,3.949018,2.942536,0.8075473,1.417365,-1.439606,-0.2974362,-4.814219,-4.366115,-3.367627,-5.761869,-9.546829,-1.18316,-15.42386,-0.8743008,-15.61397,-0.5883287,-13.47139,-7.35462,-10.4383,-10.20454,-14.20752,-8.553444,-12.36012,-14.90974,-8.599762,-16.82145,-6.983666,-17.45929,-3.596963,-20.29948,-4.070557,-20.29443,-6.285005,-13.61042,-16.27633,-7.771893,-19.34797,-9.520227,-17.02938,-8.868982,-22.26034,-8.416166,-27.44377,-6.533976,-28.81429,-10.39599,-27.10052,-12.41062,-31.62323,-10.61242,-35.05376,-10.56781,-37.13272,-9.284189,-35.52939,-16.60726,-33.81432,-16.50331,-35.28336,-16.28159,-33.41124,-21.62153,-33.44559,-21.98415,-27.41318,-18.92741,-31.50538,-19.31218,-26.92324,-26.65031,-26.66246,-29.51067,-31.43791,-34.55146,-32.73855,-40.84215,-32.70712,-49.08407,-34.1255,-50.92236,-37.7099,-52.5668,-37.46438,-54.23644,-38.16571,-56.09905,-35.43036,-58.26986,-33.80545,-57.60619,-34.50699,-52.06712,-35.34211,-51.50235,-30.51291,-47.30775,-26.74335,-47.39184,-20.91434,-42.12489,-16.52895,-37.82192,-16.54013,-24.90463,-16.1644,-19.97685,-9.50152,-14.10748,-7.092297,-5.502193,-5.340766,0.7595601,1.801696,5.081432,7.442211,8.836026,12.13041,15.18937,18.50217,16.24007,25.03897,23.2756,22.65597,31.70321,25.62558,31.9887,30.31771,29.1168,31.22923,32.31691,31.11768,34.22114,32.97993,31.02122,34.79611,32.26739,32.86006,31.65733,29.59991,26.12514,26.99068,23.99584,27.15721,20.39719,17.10707,25.38557,10.26462,22.64537,8.042463,12.90059,5.95967,10.75014,-2.128067,9.002788,-5.120107,5.017413,-6.895492,0.407463,-10.28206,-0.1303635,-13.85583,-0.758411,-18.66566,1.905414,-23.75234,-1.401305,-20.44684,-2.234089,-17.86217,1.017874,-14.71025,3.94455,-11.62015,7.282217,-6.272302,6.099067,-5.033576,4.028313,-4.507702,-2.718958,