ConstAcc,0.5,0.085216,-107.5402,-98.64264,-91.01869,-84.57573,-79.22461,-74.8796,-71.4583,-68.88162,-67.07371,-65.96188,-65.47661,-65.55141,-66.12284,-67.13041,-68.51653,-70.22647,-72.20828,-74.41276,-76.7934,-79.30631,-81.91017,-84.56617,-87.23798,-89.89166,-92.49563,-95.02059,-97.43948,-99.72745,-101.8617,-103.8217,-105.5886,-107.1459,-108.4786,-109.574,-110.4207,-111.0095,-111.3325,-111.3837,-111.1585,-110.654,-109.8685,-108.802,-107.4555,-105.8317,-103.9341,-101.7678,-99.33878,-96.65409,-93.72188,-90.55122,-87.15209,-83.53531,-79.71251,-75.69603,-71.49892,-67.13483,-64.36989,-60.9289,-58.74399,-55.8516,-51.32103,-45.99069,-40.38723,-34.86299,-29.12213,-23.03074,-16.6423,-10.3828,-4.395997,1.427128,7.059309,12.66394,17.82395,22.54983,27.11116,31.63751,36.27925,40.76843,45.03714,49.1883,53.32286,57.369,61.2715,64.81934,67.83466,70.43696,72.58757,74.3066,75.75569,76.76936,77.28544,77.38607,77.14189,76.44081,75.22707,73.60211,71.48411,68.95008,65.92943,62.55396,58.84486,54.83689,50.68076,46.42583,42.03692,37.4546,32.7001,27.82374,22.76141,17.61771,12.38501,7.192705,2.009316,-3.054345,-8.034701,-12.92403,-17.74406,-22.44074,-27.0551,-31.74902,-36.50845,-41.47582,-46.53723,-51.57192,-56.7162,-61.9689,-67.31064,-72.74353,-78.14248,-83.5417,-88.91847,-94.27773,-99.41694,-104.2976,-108.9443,-113.4135,-117.7985,-121.843,-125.2686,-128.4274,-131.318,-133.832,-135.8357,-137.2513,-138.2953,-139.2379,-140.0641,-140.6131,-140.878,-141.0051,-141.0846,-141.0178,-140.8247,-140.5458,-140.108,-139.6233,-139.0433,-138.2398,-137.2792,-136.2453,-135.0709,-133.9541,-132.9103,-131.7956,-130.7422,-129.7223,-128.729,-127.4343,-125.832,-124.0675,-122.1354,-120.1694,-118.2494,-116.3433,-114.5545,-113.0764,-112.0127,-111.2836,-111.0037,-111.1447,-111.5015,-111.8872,-112.1361,-112.0868,-111.9038,-111.7448,-111.5814,-111.4808,-111.2191,-110.931,-110.7602,-110.8452,-111.1045,-111.3736,-111.3652,-110.9124,-110.2182,-109.1949,-107.9765,-106.9573,-106.4532,-106.6621,-107.6831,-109.3129,-111.5128,-114.3442,-117.6256,-121.0531,-124.4325,-127.4652,-130.4128,-133.208,-135.6408,-137.769,-139.5292,-141.275,-142.8681,-144.0638,-145.1512,-145.4741,-145.0412,-144.1271,-143.5627,-142.5353,-141.5646,-140.538,-139.4882,-138.3498,-136.974,-135.4662,-133.7238,-131.6895,-129.3065,-126.4282,-123.1756,-119.783,-116.1528,-112.2173,-107.8672,-102.8391,-97.73325,-92.55755,-87.04948,-81.22442,-75.16415,-68.80733,-62.51457,-55.92843,-49.01774,-42.04857,-34.76751,-27.38634,-19.8197,-12.04727,-4.052633,3.756001,11.33217,18.73391,25.79486,32.52416,39.10742,45.56308,51.79257,58.07406,64.62305,71.26454,77.98969,84.8114,91.97379,99.65701,107.6988,115.6542,123.3658,131.0585,138.5676,145.7469,152.3157,158.3487,163.8842,168.8571,173.2685,176.9056,179.9289,182.4433,184.4722,185.8198,186.2023,185.792,184.9685,184.0721,183.0998,181.7286,179.8375,177.6241,174.9569,172.6301,170.5216,168.3817,166.1183,163.4367,159.9551,155.8017,151.2357,146.5771,142.0068,137.1213,131.6653,125.5481,118.8277,111.3674,103.3081,94.825,86.0712,77.18294,68.15726,58.99079,49.71211,40.34929,30.86119,21.67791,12.56473,3.856833,-4.612788,-12.54262,-19.74529,-26.44338,-32.4693,-37.99382,-43.33347,-47.57124,-51.28128,-55.03668,-58.65067,-61.52467,-64.22272,-66.49817,-68.69129,-70.45398,-71.73009,-72.45303,-72.51165,-71.9414,-71.17239,-69.73061,-67.36381,-64.13673,-60.04139,-55.82176,-51.52756,-47.05742,-42.77299,-38.25923,-33.80057,-29.1349,-24.30897,-19.26679,-14.2103,-9.051359,-3.765298,1.8266,7.665973,13.31546,18.47985,23.31514,27.76511,31.56686,34.83295,37.54022,39.74317,41.95092,44.27621,46.4258,48.50431,50.67013,53.27198,56.1357,59.06162,61.71317,64.34993,67.144,69.55055,71.70014,73.82225,76.43582,79.4052,82.58419,85.84974,89.12735,92.17717,95.0881,97.876,100.5831,103.0473,105.409,107.7627,110.2036,112.5693,115.0666,117.7399,120.5806,123.3122,125.8182,128.2225,130.8435,133.8953,137.5301,140.7036,142.9027,144.4342,145.3698,145.8777,146.3147,146.5609,146.7104,146.9431,146.9804,147.1237,147.1971,147.2732,147.4613,147.7197,147.9241,147.6603,146.8657,145.7831,144.364,142.4029,140.0628,137.3682,134.895,132.5583,130.5663,128.1531,125.5348,122.8415,120.1221,117.4538,114.6889,111.802,109.4894,107.3839,105.2615,102.9861,100.3204,97.45917,94.7441,92.03437,89.29168,86.25855,83.33326,80.93661,78.92902,76.8188,75.21428,74.02257,73.01739,71.86822,70.163,68.21757,66.43812,64.94128,63.75107,62.50595,61.82015,61.9641,62.66765,63.45983,63.82318,63.78853,63.54246,63.22904,62.64943,61.81547,60.97355,60.00258,59.24711,58.67369,58.08721,57.4068,56.78318,56.09321,55.22232,54.22117,52.94307,51.63102,50.23726,48.74598,47.10971,45.56366,44.42185,43.62741,43.55847,43.97953,44.694,45.518,46.60667,47.98123,49.23151,50.21975,51.32563,52.68466,54.39,56.12099,57.88439,59.74634,61.79985,63.76077,65.52392,67.08524,68.63518,70.40565,72.60749,74.98165,77.33039,79.47494,81.59036,83.52699,85.28018,86.95038,88.36994,89.858,91.59272,93.48028,95.2525,97.03828,98.95675,101.1295,103.1746,105.1133,107.03,108.9003,110.9822,112.919,114.6657,116.2307,117.8731,119.5203,121.0777,122.3123,123.4115,124.5,125.5159,125.9526,126.1959,126.5451,127.0228,127.5037,127.5635,127.0229,126.3122,125.2984,124.1585,122.7788,121.1524,119.1945,117.1691,115.0504,112.7681,110.3217,107.7944,105.6469,103.6262,101.422,99.18113,96.87781,94.72871,92.76066,90.71302,88.58227,86.5839,85.05585,84.09927,83.47674,83.06173,82.65103,81.41249,79.78469,77.94276,76.35897,74.99108,74.02201,73.23156,72.72553,72.02527,71.1408,70.44553,70.01855,69.63011,68.88779,67.9384,66.97712,66.4155,66.08153,65.58934,65.02307,64.71085,64.46502,64.20541,63.7514,63.22184,62.93403,63.00531,63.30489,63.42165,63.51663,63.70015,64.11389,64.5033,64.80667,64.89843,64.79739,65.00658,65.41377,65.69514,65.87354,65.96034,66.02472,66.26809,66.45335,66.45364,66.52876,66.55069,66.45566,65.94626,65.06825,64.13776,63.28682,62.70697,62.1248,61.60209,61.3683,61.51255,61.8348,61.92525,61.88012,61.7389,61.68488,61.8162,62.00587,62.0857,62.55889,63.28574,64.43086,65.69597,66.65125,67.5782,68.51452,69.53722,70.40128,71.19482,71.99425,72.99494,74.31043,75.59625,76.64106,77.30164,77.66508,78.08342,78.34008,78.59417,78.64665,78.87246,79.28954,79.62909,79.67243,79.62543,79.62903,79.44352,79.1679,78.61336,78.01163,77.4964,76.99769,76.44337,75.80722,75.07562,74.38749,73.60136,72.50318,71.20416,70.00825,69.04773,68.26534,67.38531,66.09571,64.4072,63.07282,62.04943,61.28943,59.98882,58.41208,57.05925,56.04386,54.86532,53.38104,51.83786,50.51184,49.13614,47.75225,46.44668,45.16652,44.04459,42.93865,41.66942,40.24842,38.65398,37.11827,35.74769,34.52108,33.10416,31.66571,30.24451,29.00565,27.6697,26.1832,24.43202,22.99571,21.8535,20.65532,19.15287,17.33592,15.80591,14.38079,12.71563,11.18831,9.562344,8.274011,7.50383,6.79636,5.536989,4.020373,2.639393,1.659441,0.6291935,-0.55548,-2.038029,-3.359638,-4.192886,-4.898151,-5.698465,-6.733918,-7.721453,-8.537902,-9.470235,-10.6638,-12.09889,-13.24544,-13.87201,-14.17181,-14.68218,-15.42177,-16.45009,-17.15058,-17.76572,-18.6963,-19.76784,-20.61836,-21.26022,-21.66972,-22.44258,-23.66578,-24.78914,-25.46117,-26.00238,-26.61492,-27.52436,-28.36455,-28.89939,-29.59041,-30.36251,-31.45724,-32.4904,-33.35657,-34.03111,-35.17276,-36.63803,-38.16415,-39.10226,-39.69687,-40.60318,-41.65129,-42.2089,-42.57035,-43.02376,-43.93713,-45.29422,-46.53244,-47.34572,-47.80351,-48.26031,-48.77888,-49.2998,-49.70208,-50.03135,-50.64774,-51.50444,-52.22028,-52.29564,-51.94016,-51.94811,-52.3438,-52.5078,-52.42366,-52.16509,-52.0311,-52.04391,-51.93392,-51.55637,-50.72016,-50.04167,-50.04381,-50.50831,-50.75669,-50.67901,-50.72187,-51.21453,-51.92203,-52.51404,-52.79802,-53.53927,-54.85486,-55.8987,-56.3385,-56.53236,-56.99647,-57.63397,-58.24389,-58.45503,-58.4964,-58.73794,-59.51546,-60.39868,-60.71774,-60.31925,-59.58504,-59.52629,-59.59116,-59.46058,-59.14518,-58.67746,-58.33001,-57.69358,-56.78396,-55.80386,-54.89384,-54.63355,-54.29052,-53.59226,-52.64318,-51.64351,-51.08275,-50.85991,-50.47722,-49.7757,-48.87194,-47.98432,-47.33605,-46.85393,-46.32784,-46.11066,-46.14471,-46.16367,-45.84045,-45.12989,-44.70202,-44.62926,-44.79084,-44.98249,-44.77278,-44.59754,-44.68242,-44.58408,-43.94918,-43.06346,-42.36243,-42.43621,-42.67781,-42.71495,-42.41423,-41.96464,-41.995,-42.32009,-42.51371,-42.50922,-42.62188,-43.0284,-43.64487,-43.96931,-44.05128,-43.82222,-43.64956,-43.83135,-44.35404,-44.49432,-44.56602,-44.57181,-44.31567,-44.05451,-43.4877,-42.8413,-42.42177,-42.37544,-42.15204,-41.60187,-40.93571,-40.37788,-39.74554,-38.64911,-37.30651,-36.08332,-35.15589,-34.29379,-33.228,-31.72766,-29.92052,-28.51811,-27.59147,-26.86739,-25.76934,-24.798,-24.23338,-23.92317,-23.38507,-22.83054,-22.69566,-22.98343,-23.81362,-24.36021,-24.49496,-24.69985,-25.08649,-25.52109,-26.13041,-26.66476,-27.01775,-27.60554,-28.46478,-29.26446,-30.02353,-30.98086,-32.16732,-33.43231,-34.39689,-35.2712,-36.2673,-37.53205,-38.80242,-39.73366,-40.07592,-40.13863,-40.7097,-41.43424,-42.14683,-42.69488,-42.7618,-43.05005,-43.43134,-43.94082,-44.18105,-44.3908,-45.01164,-46.08389,-47.03563,-47.48296,-47.85156,-48.53892,-49.69988,-51.05175,-51.92623,-52.61363,-53.3622,-54.60011,-55.92755,-56.91275,-57.56572,-58.19518,-59.25162,-60.15466,-60.53383,-60.59441,-60.70271,-61.11256,-61.33501,-61.24089,-61.02408,-61.06612,-61.10455,-61.29662,-61.10816,-60.44808,-59.96893,-59.6586,-59.40889,-58.88526,-57.90252,-57.00561,-56.25472,-55.59542,-54.5049,-53.03547,-51.74976,-51.11879,-50.48443,-49.4177,-48.10593,-46.85256,-45.82116,-44.99731,-43.9014,-42.6486,-41.66101,-41.05613,-40.63123,-39.91362,-38.69977,-37.40412,-36.44793,-35.70257,-35.07726,-34.40284,-33.86084,-33.52539,-33.23386,-32.81648,-32.33986,-32.16142,-32.54198,-32.90963,-32.86927,-32.67994,-32.78394,-33.53493,-34.68254,-35.83464,-36.49778,-36.97781,-38.12262,-39.28939,-40.18407,-41.12381,-42.21969,-43.77754,-45.35675,-46.58558,-47.24833,-48.35102,-49.68666,-51.4347,-53.00448,-54.12078,-54.9312,-55.94454,-57.22843,-58.0807,-58.49843,-58.8298,-59.18122,-59.52037,-59.58385,-59.3584,-58.80548,-58.49747,-58.28811,-57.88074,-56.81847,-55.76135,-55.06784,-54.7123,-54.17579,-53.08081,-51.97894,-51.08416,-50.44055,-49.44529,-48.03263,-46.5488,-45.36879,-44.88991,-44.24444,-43.24174,-42.07986,-41.30148,-40.64812,-40.00834,-38.99067,-37.82786,-37.12897,-36.62854,-35.86764,-34.60528,-33.31409,-32.54632,-31.35754,-30.14044,-28.98264,-27.96713,-27.30817,-26.77558,-26.13805,-25.26517,-24.66702,-23.85922,-23.31313,-22.87937,-22.19525,-21.26718,-20.534,-20.2074,-19.85257,-19.20838,-18.15587,-17.42001,-17.02909,-16.62603,-15.65832,-14.66514,-14.42486,-14.63585,-14.59518,-13.75782,-12.59395,-11.38989,-10.91228,-10.25322,-9.197759,-7.702686,-6.851481,-6.651025,-6.370262,-5.471504,-4.216083,-3.201516,-2.950846,-2.641547,-1.471656,-0.01450538,0.9494579,1.34042,1.654089,2.533205,3.528912,4.050773,4.488013,4.947546,5.787411,6.930321,7.629054,8.002953,7.786848,7.948112,8.423296,8.736674,8.52317,8.084497,8.168615,8.275819,8.056133,7.341327,6.757499,6.64983,6.746155,6.49884,5.592431,4.759299,4.245233,3.825943,3.267702,2.296034,1.207403,0.425519,-0.0175481,-0.7399552,-1.725205,-3.115494,-4.134291,-4.793558,-5.56106,-6.737602,-7.971391,-8.787043,-9.374818,-9.704833,-10.50852,-11.47933,-11.90302,-12.07188,-12.59351,-13.41456,-14.40419,-15.17231,-15.46711,-15.66274,-16.23539,-16.99521,-17.59587,-17.47027,-17.17768,-17.16034,-17.33218,-17.11955,-16.35059,-15.38178,-15.38111,-15.77934,-15.92255,-15.42837,-15.11241,-15.37713,-16.08934,-16.19451,-15.75397,-14.63411,-14.40915,-14.86303,-14.79332,-14.25341,-13.79482,-13.70626,-14.18505,-14.1951,-13.59813,-13.1712,-13.31645,-13.78904,-14.1889,-14.228,-14.05066,-13.78306,-13.42047,-13.0239,-12.62316,-12.03775,-12.36634,-12.77564,-13.08984,-12.67565,-12.53657,-11.90111,-11.34767,-11.14731,-10.80843,-10.62751,-10.78689,-11.07454,-11.07004,-10.9662,-10.61056,-10.47015,-10.48494,-10.60519,-10.32432,-9.700893,-9.106642,-9.142254,-8.849003,-7.949107,-7.339068,-7.070531,-7.099489,-6.569116,-5.6807,-4.89453,-4.468705,-4.18131,-3.749315,-2.81423,-1.52245,-0.5745914,0.04687972,0.4522555,2.028709,4.121828,5.621963,6.53978,7.647087,8.940596,10.5021,11.77943,12.20306,12.64782,13.61387,14.49514,14.66971,14.76051,15.48474,16.82605,18.09158,18.85131,19.45239,20.06869,20.635,21.48167,22.44232,23.01498,23.57582,24.34212,25.52128,27.0578,27.62713,28.17357,29.43382,31.28917,32.63669,33.41779,34.25019,36.18535,38.3404,39.82332,40.37721,41.4038,42.97222,44.211,44.87905,45.90218,46.88526,48.03496,48.68328,49.20895,49.68198,50.37913,51.21242,52.27237,52.80302,52.55512,52.19084,52.29632,52.92814,53.18275,52.03372,50.74881,49.77358,49.34246,48.36925,46.83135,45.32357,44.41272,43.7586,42.57322,40.95499,39.21083,37.75806,36.86199,35.55795,34.0764,32.65024,31.76783,30.8734,29.93814,27.88695,25.59746,23.86869,22.79181,21.50307,19.49738,17.28544,15.59611,14.27632,12.7167,10.36621,8.009426,6.680569,5.775259,4.51437,2.756694,1.066925,-0.2460085,-1.360066,-2.223902,-3.320702,-4.628543,-5.304642,-5.901038,-6.002818,-6.117971,-6.401801,-6.156921,-5.17339,-4.530647,-4.074379,-3.568067,-1.664386,0.05669519,1.03172,1.787538,2.668548,3.847958,5.121458,6.290285,7.077518,7.801276,9.081182,10.34953,11.81081,13.30697,14.11772,14.81658,15.88436,17.04213,17.96718,18.0337,18.56057,19.85252,21.19652,21.39685,21.33219,21.80159,22.91424,23.89364,24.1817,24.50212,25.07085,25.95522,26.82259,27.66744,28.17823,28.84568,29.85346,30.42595,30.65669,30.85668,31.15675,31.83651,32.73578,33.237,33.4386,33.67747,33.89348,34.24926,34.34233,34.29608,34.19247,34.66445,35.65041,35.94021,35.91696,36.56873,37.58129,38.31156,38.61852,38.84313,39.31712,40.4299,41.40213,42.12577,42.45724,42.60805,43.38656,44.21644,44.48195,44.27341,43.87676,44.07556,44.48899,44.41031,43.22011,42.12619,41.4847,41.33349,40.6832,39.39434,37.81116,36.34969,34.7486,32.62738,29.89846,27.14888,24.78515,22.40441,19.69634,16.40094,12.92891,9.657789,6.854699,3.640384,-0.4691189,-4.601966,-8.238468,-11.26744,-14.5966,-18.95769,-23.28769,-27.00897,-29.83842,-33.28392,-37.74654,-41.89953,-45.13793,-48.35646,-51.84108,-55.50455,-58.80567,-62.19165,-65.01835,-67.91713,-71.40854,-74.91798,-78.12604,-80.47901,-82.66582,-85.42645,-88.32642,-90.62118,-92.04403,-93.47626,-95.59862,-97.82268,-98.92481,-99.5175,-100.4699,-102.2932,-103.9404,-105.0971,-104.913,-104.6436,-104.3829,-104.2493,-103.4284,-102.1525,-101.3143,-101.7087,-102.7972,-103.1659,-103.0348,-103.5469,-104.9954,-106.5318,-107.85,-108.9311,-109.5982,-110.9998,-112.5876,-113.9155,-114.7017,-115.7274,-117.3946,-119.3548,-120.6512,-121.1114,-121.4057,-121.8597,-122.3454,-121.9328,-120.6676,-119.483,-118.7,-117.3879,-115.3653,-112.5297,-109.6611,-107.2846,-104.6779,-101.3966,-97.54271,-93.38758,-89.74835,-86.28982,-82.14955,-77.31953,-72.43457,-67.88032,-63.5928,-58.84203,-53.3257,-48.04315,-43.14255,-38.0402,-32.41891,-26.56953,-21.05863,-15.95409,-11.21596,-6.054471,0.1082137,5.986649,10.88525,15.34589,20.31775,25.61666,30.88509,35.03494,38.96148,43.00969,47.54575,51.5856,54.68916,57.28613,60.18975,63.33053,65.99,67.32541,68.64693,69.88163,71.25605,72.47417,73.0529,72.95136,72.63332,72.77715,72.85904,72.29264,71.0947,69.86608,69.28146,68.18771,66.20891,63.9754,61.98862,60.7723,59.4097,57.13385,54.60301,53.08135,51.48204,50.10051,48.10346,46.09601,44.85916,43.86584,42.53419,41.38388,41.08262,41.52985,42.6036,43.07796,42.97326,42.53226,42.16242,41.94508,41.96077,41.47873,40.58909,39.76101,39.12995,38.9694,38.25221,37.18847,36.47264,36.95035,37.94816,38.01319,37.24988,36.87992,37.61503,38.21999,38.19611,37.78133,38.1399,39.17296,40.157,40.56749,40.55324,40.79019,41.58939,42.52626,42.98023,43.10761,43.85453,44.87602,45.97427,46.49484,46.63782,46.7302,47.59872,48.7226,49.2406,49.0559,48.98805,49.75756,50.81576,51.57206,51.64013,51.76738,52.48612,53.31123,53.75758,53.55017,53.21951,53.19537,53.72108,54.28572,54.14731,53.78109,53.96154,54.507,54.53212,54.04592,53.31235,53.22098,53.39636,53.28733,52.43095,51.51636,51.43684,52.05294,51.8779,50.47861,49.13233,48.21637,47.90729,46.7643,45.3367,43.74457,42.65846,41.80906,40.38229,38.40114,36.72616,36.09667,35.25525,33.93264,32.10785,30.19271,28.74351,27.77897,26.55072,24.89618,22.8781,22.08513,22.00033,21.4245,20.07553,18.49343,17.31611,16.8551,15.97732,14.5149,13.12733,12.22641,11.83515,12.07132,11.54249,10.08062,9.311122,8.727413,8.618524,8.357908,7.548204,7.163657,7.568635,7.243388,6.047132,4.600449,3.806601,3.836042,3.425109,2.854837,1.986362,1.652552,1.347411,0.4832798,-1.105632,-2.412082,-3.020373,-3.637269,-4.642994,-5.862821,-6.957272,-8.409596,-9.910823,-11.28217,-12.82008,-14.63522,-16.4302,-17.80067,-19.02081,-20.9416,-23.08897,-25.37162,-26.94396,-28.57478,-30.75162,-33.45306,-35.36508,-36.4774,-38.01092,-40.65253,-43.4421,-44.99214,-46.1655,-47.92156,-50.13876,-52.59721,-54.79876,-56.54955,-58.42822,-61.04995,-63.59718,-65.61886,-67.56127,-69.48183,-71.85957,-74.2791,-76.18087,-77.51923,-78.97708,-80.87191,-82.91001,-84.28696,-84.99942,-85.49883,-86.35966,-87.39842,-87.5551,-87.11314,-87.14497,-87.80093,-88.1234,-87.81278,-86.69642,-86.20943,-86.11812,-86.52859,-87.02678,-86.78594,-86.25135,-86.33663,-87.1809,-87.94215,-88.24091,-88.32837,-88.86526,-89.41627,-89.68669,-89.07545,-88.35391,-88.16756,-88.39177,-87.70173,-87.16271,-87.23347,-87.38965,-87.76428,-87.98188,-87.73051,-86.97798,-86.68494,-86.38838,-85.9737,-84.72547,-83.00251,-81.84717,-81.11492,-79.99131,-78.13633,-75.6444,-73.5369,-72.05846,-70.33301,-67.69996,-64.77859,-62.15492,-60.01899,-57.67668,-54.46519,-50.92709,-47.27894,-44.50614,-41.6758,-37.80969,-33.57553,-29.58209,-25.87164,-22.24362,-18.03289,-13.26084,-8.597029,-4.691513,-0.9236699,4.052647,9.583657,14.51568,18.86682,23.14077,28.02265,33.42556,38.09774,42.25574,46.45337,50.90322,55.49118,59.2338,62.65506,66.38721,70.4559,74.00397,77.29712,80.03152,82.84296,85.51846,88.52434,91.29815,92.65803,93.55185,94.90785,96.66849,97.46312,97.58159,96.94041,96.79912,97.31851,97.17208,96.01271,94.35102,93.46175,93.18611,92.27524,90.10006,87.64456,86.02773,84.52061,82.87662,80.55237,78.36355,76.02477,73.97332,71.88103,69.27898,66.2416,64.05621,61.67798,58.86717,55.35803,51.8053,48.69746,46.09004,43.36591,40.04402,36.56045,34.11389,32.15409,30.44984,28.12798,25.86243,23.97184,22.33404,20.96336,19.30665,17.84756,16.46926,15.94381,15.6857,14.88783,14.15661,14.13925,14.77633,15.44058,16.30069,16.62708,17.36601,18.76389,20.19712,21.22383,21.88715,22.9074,24.44216,26.65584,27.76602,28.50753,29.4844,31.25259,33.15089,34.13897,34.93278,35.96127,37.59018,39.17334,39.77554,40.49114,41.99228,43.78303,45.26915,46.10773,46.69226,47.90799,49.39063,50.59975,51.00116,51.56583,52.28454,53.44883,53.99254,53.87555,53.5671,53.29647,53.51093,53.53919,52.75179,51.31949,50.07801,49.43913,49.12457,48.28779,46.8604,45.07933,43.46808,42.13719,40.23529,37.86451,35.92432,34.45775,32.89124,31.01771,28.95351,27.07564,25.6506,24.3071,22.95867,21.39217,20.15605,19.35515,18.72541,18.22385,17.29742,16.62772,16.44614,16.1315,15.42594,14.55475,14.21388,13.97654,14.08434,13.78226,12.9269,11.93239,11.76008,11.88526,11.40645,10.39198,9.612903,8.754823,7.919156,6.792491,5.071381,3.155826,1.76154,0.3710119,-1.729394,-4.509288,-6.833124,-9.209913,-11.76668,-14.80854,-17.87851,-21.13166,-23.49956,-25.74658,-28.48963,-31.95118,-35.19245,-37.93535,-40.16121,-42.75572,-45.98752,-49.51891,-52.35684,-54.6996,-57.20844,-60.82304,-64.36065,-66.74452,-68.60744,-71.00301,-74.2875,-77.32385,-79.44169,-81.0088,-83.25055,-86.07063,-89.05909,-90.8566,-92.20798,-94.03708,-96.32975,-98.52055,-99.63835,-99.95772,-100.4289,-101.3722,-101.966,-101.6179,-101.5808,-101.1568,-100.9632,-100.6089,-99.88409,-98.47368,-97.09761,-95.7778,-94.77705,-93.03108,-91.2734,-88.88088,-86.74964,-85.2401,-83.18242,-80.03948,-77.78872,-76.4011,-75.47202,-74.11061,-71.78421,-70.20255,-69.91995,-70.50649,-70.12319,-68.77623,-67.79308,-68.11869,-68.57522,-68.52601,-67.66576,-67.04731,-67.28335,-67.64361,-67.16223,-66.10871,-65.26197,-64.954,-64.71618,-63.63364,-62.12767,-60.60647,-59.47142,-58.52456,-56.88498,-54.74516,-52.50193,-50.59698,-48.75631,-46.93423,-44.20869,-41.3594,-38.76367,-36.77827,-33.91243,-30.58086,-27.04516,-24.25109,-21.50071,-18.36926,-14.63167,-10.92568,-7.906643,-5.168157,-1.274119,2.907201,6.612944,9.858166,13.3881,16.94812,21.05192,25.31926,29.21639,32.14323,35.52834,39.29706,43.21033,46.50849,49.41921,52.2377,55.64494,58.79534,61.39318,63.16428,65.11031,67.73941,70.36589,71.97127,72.95468,74.21911,76.26636,77.8793,78.53831,78.36981,78.42571,79.10286,79.55079,78.96049,77.80993,77.005,76.64087,76.25847,74.71442,72.91561,71.52648,70.89265,70.23484,68.89215,66.90404,64.99634,63.3951,62.35911,60.95048,59.71294,58.32982,57.35438,56.95647,56.15262,54.62307,53.25195,52.68001,52.61882,51.95593,50.61544,49.26698,48.70199,47.57585,46.06151,44.4182,43.14361,42.74228,41.80632,40.11018,38.1331,36.5908,36.65038,36.15487,34.51532,32.3755,30.87937,30.52767,30.01063,29.14581,27.46204,26.11923,25.42256,24.8598,23.97637,22.89814,21.93031,21.33521,21.17582,21.08945,20.27535,19.51427,19.28347,19.40979,19.38031,18.43997,17.66973,18.3958,19.10519,19.06425,18.14659,17.77888,17.85534,18.39027,18.05828,17.53435,16.90167,16.77564,17.13491,17.03327,16.66533,16.77066,16.71834,17.26818,18.06412,18.18166,17.88334,18.09937,19.03928,19.61411,19.54251,19.75223,19.86229,20.50201,21.09657,21.04922,20.94038,21.14262,22.04773,22.26535,21.55179,20.86036,20.75127,21.29505,21.47657,20.80634,19.92183,20.12928,20.36528,20.04434,19.09469,18.13964,17.82873,18.0567,17.9195,17.30341,16.60948,16.83253,17.56919,18.09949,18.40822,18.71869,19.28193,20.11528,20.547,20.53699,20.64644,20.97588,21.76108,22.69666,23.01323,22.41858,22.37115,23.1427,23.28297,22.63516,21.75356,21.36113,21.05785,20.82995,19.9232,18.34885,17.40131,16.59509,15.7383,14.31888,12.14321,10.46401,9.375338,8.027098,6.281264,4.011516,2.588346,0.4736621,-1.997247,-4.847401,-7.60442,-9.982138,-12.17911,-14.47872,-17.76018,-20.95408,-23.76846,-26.70255,-29.38584,-32.44025,-36.21882,-39.79456,-42.23811,-44.73313,-47.85287,-51.51816,-54.79691,-56.82233,-58.88677,-61.2731,-64.23484,-66.79806,-69.50347,-71.91331,-73.96868,-76.48802,-79.01199,-81.17876,-82.92278,-84.79785,-87.05563,-89.06849,-90.1297,-91.26613,-92.26428,-93.6463,-94.2094,-94.37447,-94.4755,-94.90072,-95.19573,-95.1771,-94.30366,-93.36413,-92.90382,-92.95603,-92.41938,-91.5632,-91.00159,-90.86114,-91.43335,-91.94357,-91.54819,-91.70682,-92.0054,-92.66022,-92.98052,-92.68954,-92.64421,-92.58536,-93.01704,-92.95895,-92.63509,-91.9461,-91.48575,-90.96543,-89.74384,-87.96013,-85.6982,-83.50365,-81.79681,-79.48875,-76.65089,-73.39462,-70.56777,-68.2547,-65.54778,-61.97374,-58.08507,-54.71797,-51.94027,-48.84061,-44.92076,-40.71497,-36.70078,-32.98172,-29.85858,-26.18985,-21.92145,-17.75612,-14.11331,-10.55145,-6.547968,-1.957982,2.495566,6.142893,9.382066,13.13882,17.45767,21.28987,24.94389,28.23517,31.96862,36.35394,40.17327,43.17981,45.96052,49.02083,52.1628,55.25858,57.60201,59.73695,62.01846,64.1741,66.03122,67.23142,68.04197,68.71409,70.26223,71.24595,71.03824,70.79456,71.28351,71.67819,71.86612,71.3103,70.17897,69.81829,69.28814,68.39512,66.73634,64.9392,63.71905,62.89743,61.87076,59.96925,57.7287,56.31072,55.39004,54.20435,52.62668,50.74779,49.59724,48.75262,48.34946,47.73781,46.98128,46.21364,46.25823,46.85511,47.00042,46.96264,47.11051,47.54789,47.56702,47.49182,47.1917,46.8454,46.93074,47.08092,46.77631,46.16284,45.86858,46.06517,46.3699,46.09775,45.3012,44.98523,45.25558,45.47168,44.82351,44.6074,44.51752,44.9623,45.28865,45.45737,45.21783,45.52865,46.1171,46.40222,46.13031,45.91266,45.44682,45.52917,46.09105,46.0504,45.8652,44.93077,44.46089,44.37858,44.20728,43.31263,41.77623,41.622,41.51104,40.28233,38.18611,37.70445,37.18339,36.7664,35.83368,34.17858,33.34946,32.90765,32.51439,31.00977,29.08424,28.29495,27.9292,27.79013,27.61001,26.27219,25.7063,26.10355,25.8306,25.63787,25.08262,24.7639,25.15821,25.45325,25.22394,24.45512,23.56805,23.54372,23.7925,23.34129,22.61068,21.81492,22.1199,22.2087,21.97637,21.71474,21.50923,21.74975,22.1603,22.4186,22.1524,22.31304,22.99388,23.70485,24.51208,24.65056,25.42574,26.2723,27.39645,28.34842,28.39752,28.88652,29.33679,30.1516,30.90448,30.73947,30.41839,30.2298,30.54029,30.42063,29.46688,28.49773,27.55268,27.13846,26.06647,24.15918,21.88094,19.73307,18.11071,16.80394,14.13324,11.09841,8.064705,5.918286,3.377988,0.0197892,-3.60456,-6.625314,-9.706364,-12.78569,-16.41532,-20.16724,-23.80168,-27.10629,-30.12053,-33.43804,-37.52339,-41.19825,-44.18159,-47.27871,-50.68218,-54.50176,-58.35161,-61.34269,-64.35646,-67.35258,-71.0857,-74.22203,-76.33566,-78.95043,-81.96345,-85.39016,-87.45454,-88.8515,-90.5659,-93.17326,-95.65023,-96.58772,-97.81743,-99.15027,-100.4151,-101.3314,-102.5198,-102.3322,-102.4625,-103.4121,-103.6877,-103.973,-103.2938,-102.7822,-101.756,-101.0131,-100.1892,-98.77996,-97.05916,-96.0659,-94.89056,-93.36801,-91.7561,-89.09114,-86.97456,-85.77507,-84.02805,-82.49716,-80.38217,-79.08302,-78.40023,-77.63727,-76.70781,-76.19061,-76.0291,-76.27869,-76.08321,-76.44537,-76.41853,-76.47605,-76.81366,-77.11688,-77.13709,-76.82968,-76.51681,-76.73901,-76.62176,-75.98006,-74.45207,-73.1743,-72.43817,-71.5006,-69.4756,-67.08563,-65.37145,-63.67007,-61.60894,-58.42311,-55.03064,-52.30848,-49.77806,-46.84934,-42.90246,-39.48835,-36.06634,-32.68907,-29.10555,-25.04616,-20.81818,-16.59532,-12.63813,-8.732801,-4.136522,0.8639734,5.500483,9.872201,14.27777,19.23126,23.99981,29.11925,33.80605,37.95581,42.62107,47.93577,52.88053,56.95647,60.94437,65.17026,69.79205,73.80718,77.07162,80.3793,83.83509,87.17578,90.19416,92.3677,94.46515,96.64272,98.72601,100.3137,101.1017,101.3663,102.3715,102.8377,103.0277,102.3622,101.1897,100.5197,99.72189,98.54351,96.55871,94.58417,92.57152,90.34212,88.19327,85.52546,82.43229,79.75971,77.10367,74.28901,71.06543,67.51711,64.9419,62.25924,59.76994,56.84055,54.1372,51.47524,49.56828,47.68815,45.6647,43.54448,42.70738,42.17441,40.89889,38.9311,37.99492,36.84403,36.24982,34.9206,33.0436,31.54787,30.04653,28.80172,28.15436,26.65385,24.72354,23.2611,22.77161,22.14922,20.71179,18.80175,17.51959,16.94032,16.41885,15.21319,13.72682,12.89699,12.48722,11.86819,10.5975,9.606642,8.632616,7.926702,7.023656,6.167777,5.345698,4.503783,3.672004,2.769163,1.639998,0.2519987,-0.6961116,-2.108818,-2.530409,-3.593027,-4.402024,-5.185244,-6.113651,-7.030806,-8.427432,-10.24856,-11.28493,-11.93066,-13.04333,-14.48349,-16.33097,-17.88918,-18.67009,-19.44214,-21.33919,-22.76183,-23.19161,-23.67777,-24.2444,-25.00377,-26.07229,-26.89131,-27.29608,-27.43217,-28.01962,-28.81528,-29.64803,-30.0827,-30.31827,-30.46319,-31.31624,-31.88753,-31.82196,-31.74119,-31.83981,-32.72216,-33.15427,-33.37338,-33.2189,-33.57552,-34.73397,-35.33299,-35.61633,-35.83301,-36.69796,-38.15872,-40.07651,-41.38821,-42.34308,-44.14629,-46.24638,-48.17973,-50.04069,-51.60524,-53.13148,-54.5125,-55.6768,-56.88064,-57.37067,-57.53583,-58.36852,-59.46715,-59.4839,-58.93837,-58.48357,-58.54106,-58.11636,-57.9892,-56.86068,-55.73849,-54.13049,-52.8531,-51.46374,-49.3791,-47.08974,-44.54284,-42.27215,-39.05098,-35.46825,-32.28714,-29.34816,-26.32064,-23.01713,-19.03911,-15.22217,-11.64245,-7.737926,-3.914527,0.0211309,3.861949,7.147485,10.69284,14.15227,18.0767,21.65348,24.70056,27.46796,30.5113,33.86961,37.32991,40.24223,42.50232,44.99287,47.87981,50.68912,53.04897,55.19795,56.67167,59.12342,61.56803,63.18332,63.47574,63.88042,65.44619,66.65078,66.99258,67.34039,67.34329,67.23594,67.5102,67.20589,66.60716,65.81793,65.4684,65.47314,65.11335,63.91567,62.20282,61.63581,61.30076,59.93903,58.40052,56.79233,55.92694,55.28141,54.34266,52.51983,51.43739,51.0362,51.08322,50.26605,49.40274,49.06575,48.90503,48.87504,48.68125,48.5344,48.20826,48.41463,48.60785,48.61427,48.34506,48.30499,48.05895,47.33696,46.26499,45.3644,44.39912,43.46746,42.67173,41.71268,41.10852,39.88346,39.36079,38.98571,38.65317,37.62865,36.94222,36.21075,35.4726,34.56904,33.22128,32.09759,31.05495,29.87271,28.36204,26.90271,24.66672,23.30432,22.09175,21.13427,19.11541,16.5912,15.24751,14.49606,13.32792,11.37646,9.219078,7.63039,6.197741,4.565573,2.444972,0.5692519,-0.7143196,-1.749168,-3.77853,-5.984551,-8.749398,-10.61327,-12.46036,-14.42817,-16.9219,-20.01619,-22.82097,-25.8639,-28.33172,-31.2651,-34.40221,-37.30372,-40.09446,-42.78204,-45.83981,-49.15979,-51.93968,-54.59595,-56.47164,-59.39676,-62.45693,-64.6817,-66.33713,-68.14629,-70.24431,-72.38014,-73.8298,-75.0748,-76.0777,-77.35564,-78.64633,-80.19144,-80.43407,-80.36872,-81.22542,-82.28629,-82.02946,-81.51171,-81.05571,-81.23896,-81.45704,-80.34361,-79.03038,-77.95397,-76.79533,-76.11741,-74.30244,-72.07624,-69.92159,-67.99302,-65.69835,-63.62457,-60.67231,-58.14208,-55.513,-53.31874,-50.93145,-47.96606,-44.8284,-42.21222,-40.40853,-37.71096,-34.73785,-32.0689,-29.51947,-27.64246,-25.80031,-23.32213,-20.37446,-18.39076,-17.13565,-14.75782,-12.66889,-10.20636,-8.204137,-7.098981,-5.512771,-3.534845,-1.320142,-0.1299008,0.9357882,1.658597,2.974011,4.45611,5.324655,5.768527,5.766935,6.386738,6.963794,6.926183,6.507969,6.512766,6.604288,7.039095,6.562572,5.710639,5.518473,6.229303,6.174617,5.988326,5.81422,6.263572,6.392836,6.852524,6.931728,7.022022,7.15882,7.379476,7.165222,7.591353,7.219103,7.436824,7.86132,8.713609,9.213684,9.171146,9.031096,9.337352,10.04221,10.35896,9.85304,8.613842,8.74492,8.553786,7.648339,6.123239,4.531671,3.498204,2.57349,0.758755,-0.8548814,-3.21334,-4.540909,-6.11423,-8.110972,-9.89695,-11.50389,-13.09002,-13.92353,-15.46971,-16.80092,-18.54491,-18.94011,-19.03202,-19.70831,-20.38336,-20.74427,-21.2574,-20.94962,-20.97096,-20.56941,-20.31348,-19.73332,-18.6596,-17.38972,-16.72558,-16.05938,-14.16252,-11.60589,-9.475221,-7.633422,-5.606716,-2.437333,0.7256877,3.820495,6.50661,9.61637,12.86926,16.47986,19.46599,22.70143,26.03877,29.20631,32.81675,36.48947,39.09693,41.98743,45.25728,47.80521,50.11411,52.9011,55.11268,56.7702,59.4127,61.56313,63.01421,64.09292,65.47183,66.94596,68.28175,68.84683,68.5469,68.50873,68.91937,68.92684,67.95451,66.61648,65.38249,63.84258,62.48779,60.77957,58.40934,56.06957,54.19497,52.27205,49.36049,46.98696,44.32328,41.69622,39.26347,36.50823,33.76307,30.60476,28.28812,25.72127,23.38399,20.85729,18.38312,16.44412,15.47706,14.38958,13.40784,12.4887,11.98384,12.17845,11.69838,11.13042,11.11181,11.47829,12.44055,12.29246,11.7327,12.0373,11.77089,12.46804,12.79734,12.06476,11.78664,11.82445,12.56451,12.51786,11.67172,11.53865,11.1078,11.49252,11.21769,10.51782,9.766181,9.576394,8.989056,8.126516,7.06691,6.2144,5.050399,3.950252,2.742213,1.28873,-0.5221479,-1.804513,-3.3045,-5.463567,-8.099573,-10.78611,-13.61226,-15.81092,-18.6017,-21.60507,-23.85108,-25.99322,-28.57056,-31.25746,-33.97253,-36.76967,-39.1089,-41.18879,-43.48739,-46.08758,-48.66126,-50.26209,-52.00417,-53.20287,-54.75725,-56.52526,-57.28952,-58.14085,-58.7048,-59.81813,-60.53942,-60.98549,-60.01524,-59.32615,-59.47842,-59.22054,-58.20143,-56.83512,-55.50179,-53.86492,-52.48362,-50.48776,-48.66019,-46.76308,-44.79105,-42.67009,-40.39036,-37.7379,-34.82675,-32.20201,-29.95564,-27.40914,-23.89749,-20.42008,-17.3643,-14.96492,-11.73984,-8.367837,-5.180792,-1.663676,0.7075268,3.690637,6.783499,9.914307,12.4012,14.16826,16.04077,18.33368,20.31419,21.514,22.12073,22.78769,24.03838,24.43461,24.72886,24.3654,24.44918,24.79316,24.51615,24.11482,23.00525,22.34875,21.863,20.89489,19.77128,18.46069,17.39197,16.60313,15.30564,13.7184,11.89051,10.51288,9.592329,8.163945,6.628888,4.938338,3.685716,2.849013,1.963699,0.4565279,-1.517486,-2.447509,-3.275357,-3.705294,-3.550302,-4.29661,-4.586285,-3.680622,-2.556093,-2.229122,-2.051849,-1.638409,-0.5510012,0.6167442,1.613224,2.141002,2.552722,3.577409,4.448291,5.233339,5.682334,6.55281,6.698263,7.173872,7.653979,9.23549,10.23013,10.74112,11.56696,12.65333,12.8308,12.51616,12.12243,12.40097,12.26204,11.09719,10.30997,9.897275,9.561266,9.010682,8.239296,7.32512,6.231574,4.589885,3.546552,1.543738,-0.4264364,-2.403089,-4.113175,-6.157378,-8.556795,-10.85549,-13.34729,-14.92816,-16.93875,-19.28206,-21.68604,-23.51753,-25.07454,-26.41906,-27.9689,-29.18754,-29.95662,-30.27036,-30.84421,-31.27887,-31.39574,-31.05944,-30.07258,-29.11016,-28.86769,-27.89943,-26.73725,-25.20054,-23.77475,-22.24479,-20.85976,-18.7446,-16.71737,-14.25148,-12.35476,-10.45004,-8.216202,-5.625318,-2.695348,-0.07251977,2.615646,4.822438,7.558237,10.30364,12.7817,15.38903,17.14805,20.0065,22.66534,25.1534,26.75492,28.4871,30.44338,32.50571,33.77229,34.94646,35.73017,36.69542,37.8702,38.09127,37.92935,37.65787,37.74954,37.16067,37.20168,36.93708,36.27067,35.94132,35.45775,34.68609,34.37672,33.19401,32.24579,31.30143,30.63165,28.99895,27.67491,26.0327,24.69808,22.78262,20.944,19.07743,17.6904,16.33904,14.9218,13.5959,11.55922,10.59189,10.10325,10.25632,8.003409,6.564048,5.802491,4.890994,3.394661,1.601007,0.5690168,0.3018914,-0.5181856,-1.13065,-1.815024,-2.388476,-2.893234,-3.290059,-4.270534,-5.639182,-7.095218,-7.781037,-8.636709,-10.01225,-11.19469,-12.38923,-13.55273,-14.70164,-15.47991,-16.91577,-18.89902,-20.1624,-21.39708,-22.16884,-23.85488,-25.11428,-26.41756,-26.96705,-27.582,-28.81353,-30.24453,-30.76555,-30.85976,-31.16784,-32.30239,-33.26734,-33.32711,-33.92341,-34.04999,-34.63109,-35.15364,-35.33117,-35.47838,-35.34394,-35.33391,-35.19436,-35.06439,-34.84317,-34.31274,-34.27903,-33.88689,-33.17068,-31.91819,-30.71215,-30.41275,-30.07948,-29.20395,-27.88136,-26.31932,-25.19048,-24.20567,-22.59727,-20.92691,-19.11063,-18.10911,-16.73132,-15.04438,-13.31388,-12.07523,-10.71137,-9.799242,-7.587422,-6.113953,-4.473546,-3.156171,-1.824473,-0.2402038,1.491153,3.563586,4.530737,5.83931,7.064907,8.429189,10.25088,11.60475,12.08111,13.15492,14.66675,15.50162,16.34294,16.58975,17.03802,18.27952,18.87973,19.11119,20.19014,20.53502,20.94162,21.79055,22.20514,22.36179,22.36324,22.33845,23.17597,23.24594,23.07656,23.03273,23.39712,23.45216,23.24581,23.04828,23.09894,22.72896,23.06508,23.02317,22.78444,22.57946,21.96022,22.07283,22.20629,22.03896,22.02796,21.96521,22.54812,23.14921,23.33306,23.35712,24.07547,25.13945,25.48315,26.26325,27.3189,28.70784,30.34455,31.22969,32.68891,33.8766,35.80082,37.76562,39.19253,40.90373,42.8208,44.37134,46.22205,47.82847,49.32966,50.77749,51.827,53.64234,54.58408,55.49985,56.09564,56.85179,58.62843,59.42437,60.17681,61.15321,62.04095,63.13926,64.5252,65.59962,65.85155,67.0617,67.94915,68.38577,69.08299,69.83267,70.74584,71.48064,72.76452,73.02949,73.41149,74.3782,74.86851,75.14574,75.37831,75.61348,75.17552,75.19593,75.36821,74.85992,74.33462,72.8333,72.21915,70.70053,69.30291,67.32943,64.66014,62.79327,60.11078,57.32694,54.2586,50.98574,48.54282,45.90872,42.46693,38.82856,35.6691,31.5669,28.16596,24.58192,21.07954,17.17143,13.18732,9.906302,6.5787,1.364172,-2.609893,-6.607301,-10.83879,-15.5519,-20.25766,-24.40998,-28.30788,-31.97738,-36.51573,-41.09907,-45.26705,-49.68829,-53.83842,-58.04889,-62.23178,-66.40838,-70.2926,-74.13559,-78.18932,-82.56284,-86.65217,-89.77048,-92.75887,-95.72276,-98.93849,-101.9969,-104.2928,-106.7029,-109.6143,-112.0097,-113.8531,-115.4875,-116.8353,-117.5668,-118.8425,-120.2583,-120.8414,-121.2271,-121.1246,-121.871,-122.3467,-122.1876,-121.8734,-121.5398,-121.5458,-121.9336,-121.6468,-121.5426,-121.2924,-121.1572,-121.4223,-121.7527,-121.6216,-121.3797,-121.9545,-122.3219,-122.688,-123.1682,-123.2904,-123.9353,-125.0496,-125.9777,-126.6885,-127.978,-129.0584,-129.8658,-130.9098,-131.8275,-131.6827,-132.2865,-132.8243,-132.6446,-131.6921,-131.4777,-130.6604,-129.8902,-129.2269,-127.2536,-124.9502,-122.9445,-120.947,-117.7424,-113.8675,-109.9493,-106.5166,-102.829,-98.14109,-93.36196,-88.66134,-83.76199,-78.98681,-73.01061,-67.32503,-61.27377,-55.10073,-49.27711,-42.52911,-35.82603,-29.23887,-22.77958,-16.2482,-9.637575,-2.564109,4.868059,11.0884,17.38426,24.31712,31.38391,37.8457,44.44084,50.79193,56.38004,62.63506,69.02615,75.43935,80.53973,85.85798,91.45431,96.30943,101.1836,105.6728,109.3849,113.2898,117.3795,120.8288,123.4796,126.0578,128.2889,130.2203,131.834,133.2276,134.1366,135.0875,135.4092,134.935,134.1592,133.1545,131.5262,130.6984,128.9791,126.7763,124.3504,122.1679,119.6702,117.0149,113.9702,110.9879,107.9644,105.1003,101.5242,98.03272,94.55048,90.93903,87.16975,83.42756,79.41588,75.76922,72.38089,68.76122,65.00821,60.71289,56.48527,52.89613,49.43594,45.02403,40.63275,36.28335,32.60795,28.782,25.08333,20.63955,16.45171,12.87069,10.18291,6.890977,3.077132,-0.1823038,-3.360798,-5.409275,-8.074172,-10.4263,-13.08538,-14.8339,-16.85994,-18.29901,-20.0709,-21.25825,-21.40262,-21.79414,-21.6398,-21.16299,-19.97901,-19.08173,-17.91378,-16.4651,-14.97957,-13.09311,-11.3446,-8.991515,-5.921162,-3.324406,-0.5910672,2.001673,5.677904,9.106796,12.38159,15.74693,18.97572,22.45098,25.99548,29.51412,32.70508,36.05386,39.57453,43.31798,46.41471,50.103,52.87059,56.06667,59.49006,61.29915,63.59256,65.60859,67.9798,69.61096,70.61596,71.60045,72.43009,73.24116,73.87454,73.60665,72.98327,72.41911,71.98923,70.84842,69.21045,67.59229,65.22403,63.27973,61.14872,58.82082,56.03057,52.4999,49.4286,46.37491,42.78294,39.11247,35.32532,32.17128,28.95575,26.10201,22.59901,19.05943,16.61442,14.34464,11.62135,8.881607,6.96536,5.47804,4.466427,3.180495,2.285318,1.868962,2.374464,2.983424,3.203791,3.410709,3.897498,4.218073,5.321334,6.14873,6.319324,6.717868,7.80749,8.440335,9.145693,9.355031,9.694016,9.934306,10.6424,10.67302,11.22131,10.69308,10.73896,9.982285,9.171596,9.014416,7.748812,6.831348,5.753844,4.557332,2.352821,0.3855333,-1.903831,-3.380055,-5.888565,-8.646598,-11.64205,-14.745,-17.35706,-20.69804,-24.41495,-28.46511,-32.85817,-35.824,-39.68013,-43.93734,-48.77633,-52.59222,-56.57441,-60.80734,-65.34308,-70.13168,-74.11084,-79.05862,-82.85309,-87.42411,-91.62328,-95.71504,-99.0145,-102.7381,-106.5841,-110.2612,-113.4569,-115.59,-118.3098,-120.1165,-123.084,-124.9148,-125.8874,-127.2983,-128.1111,-129.1347,-129.4612,-129.4408,-128.92,-128.544,-128.2706,-127.5093,-125.5038,-123.5936,-121.4896,-119.8248,-117.0405,-113.9223,-111.0048,-108.1011,-105.0489,-102.069,-99.18889,-95.70691,-93.72327,-92.23779,-90.54769,-88.87934,-87.7132,-86.45145,-85.55356,-84.79922,-84.15167,-83.34926,-83.12844,-82.95874,-82.13235,-81.71507,-80.18557,-79.30426,-77.63368,-75.77249,-73.61603,-70.83669,-67.67098,-64.50799,-61.61206,-58.42825,-54.64849,-50.85609,-46.89278,-43.22574,-38.46973,-33.45864,-28.95698,-24.22373,-18.79366,-13.75075,-8.89657,-3.504719,2.088377,7.394348,13.71869,19.7337,25.27742,30.66683,36.46659,42.10316,48.13629,54.42863,59.57221,64.69186,69.72051,74.98556,79.62411,84.31641,88.68839,93.23444,97.16922,101.3086,104.7529,107.5348,111.0238,113.5667,116.3936,119.0616,120.4744,123.3415,124.2397,125.7443,126.4924,127.487,128.2721,128.593,128.8259,128.0028,127.3117,126.5291,125.6265,124.3196,122.5891,119.8296,117.2128,114.4879,111.906,108.8157,105.741,102.3079,98.69455,95.03784,91.18736,87.08382,83.30362,79.12616,75.35793,71.39628,67.02247,62.87666,58.99982,55.52292,52.1929,48.90909,46.22187,43.62,41.60322,39.30133,37.34346,35.25877,33.41079,32.36491,31.16041,28.71725,27.21752,25.93461,23.98252,22.29662,19.88775,18.10113,16.67986,15.52481,13.58418,11.35251,9.80933,8.513498,7.101389,5.670726,3.951814,2.423323,1.601868,0.1581299,-0.8775433,-2.504205,-3.880528,-4.612464,-5.538597,-6.498438,-7.785526,-8.378621,-9.070039,-9.334871,-9.57464,-10.43288,-10.9047,-10.86332,-11.24824,-11.0903,-11.45072,-11.9757,-11.85002,-10.66309,-10.14975,-10.45917,-10.05811,-10.00115,-9.653846,-9.025137,-9.152551,-9.142493,-9.016584,-8.229829,-8.495579,-8.9459,-9.479423,-8.82955,-8.723998,-9.217468,-9.387964,-9.887633,-10.48537,-10.44583,-11.44513,-12.28841,-12.80356,-13.86447,-13.92851,-14.17826,-15.24981,-15.95948,-16.34056,-16.38273,-16.67478,-17.32317,-17.67294,-18.35409,-18.50752,-19.1944,-19.95047,-21.10504,-21.69085,-22.26299,-23.38723,-24.78021,-26.41145,-27.12761,-27.95208,-29.0739,-30.20717,-31.58476,-32.70399,-32.92205,-33.08447,-33.91434,-34.68108,-34.79099,-34.30709,-34.27082,-34.54284,-34.74439,-34.01373,-33.46693,-32.79218,-32.79891,-31.83759,-31.16696,-30.05812,-29.08082,-28.31484,-27.31723,-25.78024,-23.87239,-22.39926,-21.50753,-19.95035,-19.22089,-17.69959,-16.73471,-16.01272,-15.04092,-13.96782,-13.08616,-12.10563,-10.96373,-10.34118,-9.844991,-8.603705,-7.848404,-7.718935,-6.879779,-7.025124,-6.557665,-6.203008,-5.357486,-5.637822,-5.075415,-4.251715,-3.678626,-3.243171,-2.271346,-2.139491,-0.8712308,0.09666678,0.3600829,1.119189,1.475986,2.143252,3.444472,3.635039,4.011207,4.358505,4.955225,5.674902,5.362741,5.70274,5.357225,6.059733,6.519421,6.364018,5.360765,5.542974,5.861393,5.234478,5.15389,4.410738,4.191421,4.002119,3.609119,3.847351,2.894921,2.912478,2.969184,3.014573,3.042419,3.161538,3.116129,4.136131,4.794547,5.355658,5.863087,6.473743,7.185444,8.483124,9.054644,9.835435,10.4184,10.73511,11.78615,12.02361,12.0129,12.29585,11.93275,12.52414,12.28787,11.82416,11.55761,11.27594,11.12938,11.25191,10.55748,9.992373,10.2744,9.952468,9.814395,9.25263,9.359148,8.706824,8.697208,8.406379,8.093082,7.914416,7.386586,7.488615,7.890539,7.981146,7.30606,7.416572,7.870409,8.333218,8.091578,8.037731,7.979772,7.981799,8.000926,7.974531,7.206317,6.605985,6.757881,6.734739,6.065249,5.043633,4.550088,4.161493,4.180947,3.292329,2.537915,2.26023,1.338736,1.154859,1.040496,0.009897681,-0.2334574,-0.3431767,-0.1680363,-0.4289085,-0.1007074,-0.1414073,-0.4432142,0.08466043,0.7589014,0.2229761,0.8953083,0.9591481,1.344553,1.857731,1.659742,1.778201,1.978077,1.884192,2.63252,1.92784,1.931148,1.515208,1.641248,1.204359,0.4823381,-0.1588332,-1.01257,-1.458107,-2.469822,-3.270364,-5.002888,-6.198192,-6.534025,-7.773209,-9.017691,-10.40557,-11.38866,-11.98801,-13.144,-14.08872,-15.44683,-16.03851,-17.01887,-17.28972,-18.55681,-19.01739,-20.09361,-20.23261,-20.77346,-21.94006,-22.64315,-22.42435,-22.57103,-23.38435,-24.0137,-24.72275,-24.64057,-24.71836,-24.76577,-25.07375,-25.78215,-25.83993,-25.54787,-25.6628,-26.09067,-26.23086,-26.32866,-25.58875,-25.58342,-25.18612,-24.83106,-24.29284,-23.24843,-22.0885,-21.51902,-20.53129,-19.28681,-18.33252,-16.65208,-15.45994,-14.02206,-12.86174,-11.15867,-9.100536,-8.044589,-6.397017,-4.478501,-2.859316,-1.583392,0.182622,1.440439,2.92478,4.017341,5.374519,5.803216,5.82232,6.498131,6.711006,6.777313,5.948592,5.527674,4.986729,4.738673,4.001734,3.487895,2.224459,1.285114,1.339734,0.4887909,-1.01972,-2.164231,-2.890713,-3.132525,-3.292063,-3.840009,-4.914123,-5.617206,-5.286357,-5.2601,-5.493865,-6.005999,-6.455318,-6.062108,-5.735088,-5.3399,-5.700851,-5.284679,-4.374223,-3.142487,-3.476179,-2.647897,-1.829142,-0.4676269,0.05695846,0.6870764,1.476114,2.921114,3.990437,5.03331,6.044211,6.804815,8.097949,9.68898,10.58097,12.44189,13.3929,15.31653,16.61347,18.15125,19.81854,21.28026,22.71625,24.39009,26.30624,27.51214,28.97834,30.06889,31.7751,32.77349,34.36433,35.49349,36.57122,37.3837,38.10127,39.46679,40.20359,40.33189,41.00439,41.10776,40.92514,40.95448,40.32161,39.99456,38.89195,38.31274,36.87539,35.43372,34.63281,33.22899,32.15375,30.15986,28.29587,26.3994,25.15351,22.74952,21.30954,18.53289,16.96778,15.80083,14.18072,12.46884,10.72559,9.665487,9.3074,7.77579,6.542062,5.32936,4.247034,3.671016,2.721007,1.530494,0.7567863,-0.07892977,-0.3636115,-1.031378,-2.232443,-2.424623,-3.001325,-3.008767,-3.377806,-3.680748,-3.963561,-3.809859,-3.381951,-3.327713,-3.921824,-3.470106,-3.534553,-3.615363,-3.177677,-2.945314,-2.96144,-2.391854,-2.124118,-2.101179,-2.563754,-2.806433,-2.796857,-2.87447,-2.819215,-3.465334,-4.035537,-4.236962,-4.478637,-4.413266,-5.054985,-5.597328,-6.127481,-5.927929,-6.702073,-7.400275,-8.278683,-9.353876,-9.699141,-10.44305,-10.93463,-11.92554,-13.30041,-13.88176,-14.8737,-15.5568,-16.97469,-17.77081,-18.78844,-18.96031,-20.51855,-21.19739,-22.57424,-22.98833,-23.73312,-24.97208,-26.02916,-27.09335,-27.97405,-27.90382,-28.61559,-29.35913,-29.60912,-29.7388,-28.86372,-29.37836,-29.23745,-28.44408,-28.29357,-27.06693,-26.21768,-26.25095,-25.5389,-24.7278,-23.53722,-22.38538,-22.27101,-21.48952,-20.51601,-19.04122,-18.64896,-17.82003,-17.63378,-16.90975,-15.66606,-15.40312,-14.82033,-14.65961,-13.56239,-12.85587,-12.07959,-11.9972,-11.27321,-10.69535,-9.146587,-9.434009,-8.960511,-8.887898,-8.401474,-8.397499,-8.409025,-8.039935,-8.535509,-8.448657,-8.467611,-8.018639,-8.120194,-8.233078,-8.306924,-7.520791,-7.192777,-6.906529,-6.959535,-5.965587,-5.097084,-4.087338,-2.976566,-2.08905,-1.040501,0.2629481,2.101892,3.073955,4.389166,5.8812,7.496384,9.330028,10.97859,12.39899,14.20271,16.03229,18.41635,19.77576,21.59973,23.55911,25.16268,26.918,28.17204,29.20987,30.83828,32.3847,33.61593,34.47572,35.46922,36.65081,37.20669,38.32648,39.58826,40.12936,40.84879,41.8068,42.74507,43.54566,43.54037,44.24807,45.06742,45.95394,45.84505,46.35353,46.28275,46.74138,46.79463,46.89679,46.07823,45.92283,45.58511,45.15067,44.68058,43.45389,42.26102,41.86612,40.58693,39.74343,38.33102,36.71595,35.97066,34.10288,32.93745,31.19537,28.95577,27.41664,25.70901,22.92144,20.64232,18.17331,15.51927,12.97549,9.750495,6.379316,3.667028,0.3300137,-3.006928,-6.272791,-10.50621,-13.51643,-16.90782,-20.48847,-23.14549,-26.87669,-30.26015,-33.24203,-36.18562,-39.05155,-42.14434,-44.68028,-47.43065,-50.71744,-52.47917,-55.36389,-58.50826,-61.07956,-62.76439,-65.34274,-68.3073,-70.61203,-72.31498,-73.86696,-75.88314,-77.68723,-79.28585,-80.23726,-81.59193,-82.26321,-82.9982,-83.20761,-83.18767,-83.05554,-82.80072,-82.09388,-81.96834,-80.98034,-79.23088,-77.72203,-75.59998,-74.19733,-71.98814,-69.04019,-66.92455,-64.76143,-63.05136,-61.33638,-59.41026,-57.81475,-56.07873,-55.52604,-54.74687,-52.97333,-52.39982,-51.50162,-51.1776,-50.46616,-49.13226,-48.47068,-48.12949,-48.00701,-47.35916,-46.45741,-45.75354,-45.43834,-45.07806,-44.12785,-43.28122,-41.74719,-40.85967,-39.44706,-37.93861,-36.25366,-34.01332,-32.15106,-30.07243,-27.62639,-24.9782,-21.61667,-18.73993,-15.76855,-12.55137,-9.365462,-5.549495,-2.238395,1.184408,5.149261,9.494632,13.91999,18.0143,22.06458,26.18054,31.42059,36.01599,40.46485,44.45195,49.10109,53.79946,57.76475,61.90498,65.52021,69.3759,72.92512,76.63741,80.69928,83.50389,86.0483,88.48316,91.11554,93.2395,95.10582,96.54097,98.0704,99.92314,100.2255,100.6635,101.0059,101.4424,101.3438,101.0024,100.0768,98.55435,97.69578,96.25853,94.26126,91.79589,89.37426,87.03205,84.52509,81.85293,78.70254,75.55954,71.94935,68.80566,65.48752,61.8311,58.43926,54.95303,52.06919,48.91725,45.88882,42.45229,40.4617,38.04673,36.34031,33.88567,33.28441,31.95662,30.87173,30.29682,28.96212,27.89918,26.78444,26.1983,25.19612,23.57761,22.42779,21.38033,21.38999,20.61443,19.47839,19.12598,18.71062,18.28829,18.58749,17.37258,17.15835,16.70969,16.46396,15.84199,15.1851,14.57346,13.36293,13.10925,12.69579,11.53031,10.2816,9.687125,9.060436,8.101098,6.545078,5.260522,3.93285,3.510831,2.219013,0.858804,-0.8306296,-2.349859,-3.208208,-4.608486,-6.646473,-8.165772,-9.977294,-11.37716,-12.75438,-14.66178,-16.25984,-17.5726,-18.90768,-19.98417,-21.35005,-22.33261,-23.00983,-24.10852,-23.98914,-24.703,-25.35504,-25.83052,-26.20828,-26.44032,-26.92146,-27.72286,-28.11525,-27.85458,-27.82741,-28.87567,-29.49205,-30.09688,-29.51445,-29.52795,-29.65738,-30.04726,-30.36763,-29.98254,-29.76435,-30.2438,-30.89448,-30.44921,-31.10963,-31.00422,-30.79899,-31.48141,-31.88469,-31.91914,-31.57209,-31.87855,-32.3828,-32.67386,-32.78405,-32.30072,-32.65129,-32.85208,-32.72722,-32.26632,-31.77564,-31.50555,-31.29482,-31.6743,-30.79491,-29.86399,-29.55572,-29.55859,-28.54099,-28.06007,-27.00134,-26.56492,-25.34063,-25.68776,-24.49429,-23.60323,-23.03376,-22.64217,-22.3057,-21.24296,-20.30255,-19.69218,-18.96023,-18.24783,-16.70132,-15.77373,-14.5989,-13.46169,-12.93905,-11.49439,-9.74225,-8.947068,-7.708278,-7.055337,-5.152269,-4.208036,-2.854692,-2.175558,-1.496894,0.1591635,0.7883171,1.802535,2.067961,3.199708,3.331072,4.321352,5.041748,5.413499,5.602636,6.142301,6.803558,7.339516,7.235209,6.88665,7.642816,7.97345,8.079508,8.351815,8.062318,8.572716,8.740399,9.477056,9.584002,9.35224,10.10435,10.8208,12.09074,12.30101,12.73209,14.21869,15.20997,15.96281,16.88721,17.00532,17.56937,18.14517,19.34028,19.39009,20.0133,19.92431,20.61798,20.95244,20.98766,20.95102,20.54067,20.33844,20.27873,19.45646,17.83394,17.23833,16.2026,15.50741,13.7592,12.19267,10.29018,8.689002,7.946124,5.583005,4.057234,1.866205,0.04517852,-1.587569,-3.757814,-5.539311,-7.569417,-8.559237,-10.32211,-11.79644,-13.5475,-15.10724,-16.20997,-17.68231,-18.99286,-20.70831,-21.09653,-22.45768,-22.96188,-23.47561,-24.25111,-24.74556,-25.12708,-24.33108,-24.27015,-24.73764,-24.41805,-23.85039,-22.62835,-21.88378,-21.06339,-20.1291,-18.25027,-16.60194,-14.85098,-13.30678,-10.87255,-8.97808,-6.38423,-4.23201,-2.706332,-0.7409796,1.924178,3.975709,6.154828,7.662121,9.856962,11.12741,13.31345,14.8246,15.63842,16.69508,17.39725,18.69211,19.41884,19.58238,19.49003,19.79145,20.10513,19.84972,19.21105,18.09101,17.68184,16.4734,15.51615,13.56987,12.41917,10.66682,9.768355,7.983056,5.942008,4.348395,2.477363,1.180559,-0.9027891,-2.686451,-4.289303,-5.496033,-6.754317,-8.002319,-9.085292,-10.04473,-11.54546,-11.78233,-12.29618,-13.41814,-13.80778,-14.55715,-14.08457,-14.27365,-13.98379,-14.69606,-14.15934,-12.92646,-12.23286,-11.84643,-11.83668,-10.08998,-8.659964,-7.892491,-6.722228,-4.95094,-3.46878,-1.23834,0.2642077,2.075357,3.853289,5.750937,8.629722,10.80685,12.75038,14.62094,17.03,20.16388,22.99236,25.49801,27.69303,31.02969,34.59384,37.853,40.45525,43.45003,46.53326,50.33277,54.07759,57.59242,60.89524,63.95608,67.63154,71.23597,73.29515,75.87679,77.90708,81.00211,82.85413,84.66526,85.76581,87.17777,88.15137,89.36782,89.73087,89.31747,89.59882,89.21337,88.96887,88.12177,86.20849,83.89242,81.92672,79.76028,76.83655,73.54874,70.30111,66.64193,62.95369,58.57512,53.48566,48.98402,44.22851,39.25522,33.78837,28.71969,22.46824,17.53374,12.39796,6.15542,0.7246306,-5.741636,-10.95987,-16.4629,-22.70804,-29.20312,-34.91573,-40.74546,-45.66017,-51.29036,-56.69098,-61.94672,-66.59192,-71.46011,-75.85232,-80.5688,-85.17596,-88.95039,-92.3053,-95.54485,-98.80159,-101.9576,-104.8363,-106.2044,-108.6691,-110.8018,-113.0017,-113.8869,-114.8289,-115.2008,-116.0687,-116.3396,-115.8256,-114.8672,-114.6187,-114.0551,-113.5817,-111.9541,-111.5495,-111.0081,-110.5378,-110.387,-110.7959,-110.5579,-110.2449,-111.6997,-112.6737,-113.2381,-113.4723,-114.5423,-115.7323,-116.8466,-117.6608,-117.7245,-118.6473,-119.6992,-120.5525,-120.7582,-120.5088,-120.4201,-120.2365,-119.1145,-117.792,-115.9744,-114.1678,-111.466,-108.5032,-105.2855,-101.0769,-97.02519,-93.12708,-88.76738,-84.25545,-78.57498,-73.51227,-67.96514,-62.90236,-56.91954,-50.98206,-44.53291,-38.95204,-32.69644,-26.49031,-19.54072,-12.61283,-6.634924,-0.1155158,6.628344,13.36527,19.97633,25.98311,32.30842,38.27439,44.78709,50.56411,55.83626,60.69276,65.66816,70.723,75.9742,79.79207,83.75694,87.54618,91.76123,95.43895,98.51062,100.3511,103.0863,105.7165,107.3858,108.7754,109.0262,110.29,111.1391,111.2353,111.0997,110.1364,109.5762,108.7281,107.5169,105.8628,103.3868,101.143,98.48606,96.38083,93.07873,90.19714,86.8579,83.8066,81.53376,77.94444,74.3824,71.09465,68.62745,66.24295,63.4341,60.78879,58.73578,57.73689,56.58663,55.17886,53.53249,52.78563,52.05642,51.45026,50.98269,49.73615,49.3292,48.11795,47.45268,46.82576,44.41273,43.69369,42.90802,41.56872,40.34092,39.59245,38.17899,37.51089,36.67996,35.48745,34.21009,32.83885,32.15337,30.97308,30.07266,29.12857,27.87359,27.54342,27.28105,27.23187,27.00458,26.26909,26.55597,26.80466,27.30674,27.59463,27.10627,28.09477,28.0388,28.19663,28.54857,28.19673,28.88315,29.02567,29.14033,28.82246,28.53096,29.04903,29.17736,29.03978,28.81592,28.04941,27.94128,27.93825,27.08057,26.61845,25.64466,24.87004,24.22679,23.02281,21.57579,19.859,18.17529,16.69656,15.55921,13.17999,10.72518,9.068489,6.906387,4.699197,2.114529,-0.4303216,-2.670213,-5.369126,-7.772589,-10.99276,-13.74038,-16.14603,-19.28214,-21.09548,-24.20346,-27.04794,-30.10336,-32.14387,-34.91886,-37.79686,-40.66254,-43.12535,-45.49256,-47.45619,-50.45474,-52.50301,-55.37757,-56.95748,-58.74081,-60.23058,-62.17382,-63.1218,-64.09572,-65.00018,-66.20477,-67.33486,-67.60887,-67.65247,-67.81992,-67.47754,-67.77987,-67.19949,-66.4838,-65.36271,-64.79752,-63.82593,-62.66875,-60.79289,-59.07995,-57.11163,-56.19431,-54.64078,-52.48494,-50.25433,-48.64771,-46.08115,-44.123,-41.78545,-38.81657,-36.57094,-34.42307,-31.55573,-28.77854,-26.23152,-23.6222,-21.40742,-18.77096,-16.41398,-13.15631,-10.86058,-8.693162,-6.328414,-3.383692,-0.9176586,1.617892,3.699017,5.704403,8.321695,10.69439,12.72808,14.08928,15.64285,18.02689,20.11961,22.1843,23.12086,24.80252,26.23946,28.34632,29.00669,30.08663,31.12609,32.41269,33.79325,34.32386,35.00005,35.93614,36.20662,37.27211,37.93882,38.12042,38.1934,38.5838,38.96981,39.72562,39.38939,39.07611,39.54514,39.70606,39.10466,38.67867,38.54348,38.29113,38.63332,38.2103,37.46606,37.1898,36.78103,36.86079,36.24334,35.63161,35.30439,34.57186,35.05673,33.96175,33.66434,33.14822,33.44579,33.0503,33.32703,32.46977,32.7942,32.20915,32.86798,32.7418,32.45344,32.01565,32.63505,33.0843,33.4844,32.97414,32.77602,32.52568,32.58814,32.15518,31.92752,31.25557,30.78288,31.04356,30.24264,29.00439,27.6993,26.87384,26.21038,24.86657,23.62896,21.5451,19.81499,18.40186,16.615,13.85924,11.9472,9.753942,8.304707,6.500114,4.197515,1.352535,-0.6243339,-2.454497,-4.244501,-6.494023,-9.325636,-11.60763,-13.75537,-15.90252,-18.74263,-20.94708,-23.44062,-24.96082,-27.26841,-29.67306,-31.99846,-33.99117,-35.54292,-36.92395,-39.27368,-41.27584,-42.50636,-43.96069,-44.65028,-46.29656,-47.57266,-48.29178,-49.02165,-49.23227,-49.6862,-50.59619,-50.59391,-50.29166,-50.10188,-49.67576,-49.7692,-48.90565,-48.68377,-47.32355,-46.92272,-46.38189,-45.81324,-44.39203,-42.9424,-42.04855,-41.65534,-40.68018,-39.45146,-37.72488,-37.63181,-37.12525,-36.76098,-35.57747,-34.64395,-33.66001,-33.63596,-33.26674,-32.21422,-31.26915,-31.62935,-31.14877,-31.42191,-30.58168,-29.89113,-29.49633,-29.84791,-29.91089,-28.9857,-28.93341,-28.28821,-28.95086,-28.59752,-28.66932,-27.71077,-28.03734,-28.12877,-28.20164,-27.5771,-26.97294,-26.82144,-26.91701,-27.33092,-26.55742,-25.76333,-25.8275,-25.61021,-25.83335,-25.27647,-24.42974,-23.77343,-24.16312,-24.04827,-23.1401,-22.36219,-21.84136,-21.52791,-20.97873,-20.4125,-19.35968,-18.41686,-18.35831,-16.89464,-16.08186,-15.00717,-13.57993,-12.6127,-12.25125,-10.63841,-8.859012,-7.891572,-6.675805,-5.441382,-3.850227,-2.284059,-1.000536,0.1387669,0.9525001,2.566569,4.180847,5.674904,6.485286,7.35367,8.416264,9.864435,11.15027,11.88625,12.27015,13.34816,14.03104,14.91664,15.178,15.10662,15.23483,16.16415,15.75649,16.21772,15.76535,16.36016,16.80458,17.10256,16.32648,16.75611,16.32234,17.08082,17.37212,17.16301,16.54319,16.79447,17.39215,17.01006,16.91253,16.37245,15.95134,16.77044,16.35061,15.86234,14.5581,14.76445,14.19325,14.08365,13.49746,12.86768,13.78955,13.23711,13.99678,13.60458,13.75347,14.06889,14.82014,15.31343,16.02436,15.83848,17.16189,18.05818,19.10776,19.74423,20.77977,21.58844,23.06072,24.46086,25.25585,26.21247,27.37681,29.54739,30.08715,31.33949,32.3389,33.21382,34.52741,35.58047,36.47832,36.82514,37.97089,38.45937,39.30292,39.83751,39.72909,40.27603,41.11128,41.9211,41.44245,41.44363,41.46605,42.08563,42.09513,41.29318,40.08665,40.53189,40.17795,39.97745,38.69293,36.81764,36.2055,35.22507,35.01123,33.12676,31.68274,30.89421,30.46947,29.65386,28.79368,27.78183,27.18116,26.42597,26.96398,26.4995,25.37984,25.25101,24.94629,24.95126,24.12571,23.69503,22.25836,22.64103,22.65607,21.90913,20.39122,19.60622,18.38482,17.67578,16.0564,14.48708,12.86792,11.83523,10.71189,9.447974,7.116367,5.786506,4.243416,2.580864,1.142678,-0.5393325,-3.12571,-4.179041,-6.10661,-8.12872,-10.62074,-12.74617,-15.0634,-16.70099,-18.85268,-21.72166,-23.75503,-26.7717,-28.65895,-31.07652,-33.69081,-35.46051,-37.42142,-38.28444,-39.85525,-41.65891,-42.77791,-44.0724,-44.70422,-45.17392,-45.98922,-46.88082,-47.00033,-47.2833,-47.67631,-48.09526,-47.6759,-47.09287,-46.59623,-45.40723,-44.61302,-43.76508,-42.13466,-40.20417,-38.11634,-36.97244,-35.03845,-33.91353,-31.22533,-28.84378,-27.13349,-25.60256,-23.22344,-20.48457,-17.94844,-16.41484,-14.59493,-12.3985,-9.664424,-7.103808,-5.746805,-3.644552,-1.302792,0.6348063,2.307585,3.67921,4.366125,5.662538,6.73387,7.098117,7.701882,7.730706,7.193917,7.470427,7.1807,6.030426,6.237033,4.513013,4.847392,3.653226,2.901004,1.883604,1.153109,0.8257838,-0.05407952,-0.8109826,-2.559855,-2.914059,-3.461123,-4.320392,-6.344768,-7.349164,-8.396302,-8.963731,-9.779587,-10.61005,-11.83116,-12.44397,-12.71092,-13.71081,-14.88152,-15.56517,-16.46302,-16.42414,-16.45727,-16.58894,-16.92471,-17.11106,-16.41891,-16.01297,-15.88544,-15.49942,-15.20924,-13.90494,-12.2654,-12.23776,-11.86015,-10.87848,-9.879988,-8.381441,-8.11594,-7.352945,-7.114579,-5.649167,-4.802574,-3.937888,-3.283747,-2.99274,-0.8238023,0.08367946,1.143231,0.9706301,1.839029,2.605166,3.564293,3.632033,3.927154,3.990031,4.181411,5.219344,5.285812,5.265945,5.477194,5.82496,6.690845,6.817148,6.663629,6.613123,5.967843,6.390833,5.392451,3.946947,2.899329,1.606886,0.7642928,-1.115902,-3.237271,-5.075058,-5.464945,-7.21083,-8.927778,-10.59762,-12.04522,-12.86152,-14.03167,-15.66507,-16.67354,-17.58064,-18.40367,-18.71856,-19.51374,-19.62738,-20.08111,-20.52279,-20.04573,-19.97223,-20.27954,-19.91112,-18.75906,-17.57518,-16.69342,-15.95153,-14.83378,-13.95692,-11.36567,-10.18127,-8.292013,-7.263584,-4.529554,-2.480485,0.009106298,1.791542,3.912985,6.183707,8.949242,11.32305,13.43788,15.61824,17.93916,20.85375,22.57083,25.33945,27.16562,28.98658,31.42171,33.1906,34.97771,36.19184,38.34957,39.7652,41.57442,42.85731,43.70372,44.63611,46.51452,47.7494,47.99166,48.64735,49.09913,50.04373,50.03666,49.93614,50.03849,50.05492,49.84393,49.25768,48.6884,47.5196,47.02519,46.53757,45.7228,44.25431,42.87704,43.01664,42.06657,41.48644,39.77032,38.81767,37.17332,36.11457,34.49376,32.7572,31.73692,30.63473,30.2985,29.31011,28.46461,27.60013,27.19709,27.44878,28.12244,27.40525,26.67413,25.99325,26.03163,25.27061,23.86217,22.43523,20.15922,20.10725,18.15903,16.95187,15.19571,13.13687,12.50521,10.72289,8.728202,6.811763,4.937563,2.64281,0.9539272,-1.588252,-3.839386,-6.582378,-9.020495,-10.77117,-13.46689,-16.03831,-18.89062,-20.16774,-21.93536,-23.88443,-27.16511,-29.18763,-30.83038,-32.40049,-34.57235,-36.37726,-38.50739,-39.8219,-41.15986,-43.06263,-44.77935,-46.30441,-46.82712,-47.2069,-48.42632,-49.43129,-50.07835,-50.34955,-50.28259,-51.18211,-51.47026,-51.81552,-50.89885,-50.68133,-50.57082,-50.6176,-50.14677,-48.90951,-48.69202,-48.18971,-47.80113,-47.47001,-45.83858,-44.45411,-43.2466,-42.34611,-41.30752,-39.54266,-37.45183,-35.76197,-34.70022,-33.70578,-31.32106,-29.47024,-27.62485,-26.55076,-25.48965,-23.48206,-21.63746,-19.82564,-18.4536,-17.61759,-15.9321,-13.64104,-12.47479,-11.09801,-10.07266,-8.334438,-6.443473,-5.575614,-4.365272,-3.583739,-2.137162,-0.5479341,0.7413737,1.608317,1.940263,3.270323,4.713612,5.924189,6.171489,7.059447,7.704929,8.492376,9.53406,10.18112,10.70494,11.24671,12.03479,12.27069,12.16779,12.00024,12.11177,12.64787,12.40397,11.92649,11.9071,12.2677,12.14194,12.65774,11.69324,11.39815,11.75314,12.11638,12.16894,11.07511,11.07055,10.46216,11.36257,11.11754,11.11923,10.58492,11.56524,12.05478,12.78717,13.02022,13.00272,13.85499,14.19981,14.72744,14.45995,15.54866,15.74186,17.07143,17.29339,18.49357,18.20018,20.00316,20.84436,22.19048,23.41562,24.15645,25.53378,27.7172,29.25388,31.09275,32.64817,34.85037,37.68828,40.11757,42.16268,44.62947,46.64171,49.66207,51.57501,53.48316,54.94937,56.87195,57.90372,59.83569,60.76993,61.05227,62.22925,62.55183,63.25385,62.87493,61.98331,61.44152,60.75242,59.27263,57.51106,55.31873,53.47419,51.66146,48.9042,45.99636,42.72782,39.19664,36.3197,32.89922,28.64038,24.34431,20.3585,16.85584,12.2585,7.936179,3.239346,-1.161477,-5.50267,-9.907205,-14.55645,-19.06745,-23.51854,-28.0535,-32.00196,-36.90878,-41.34956,-46.28518,-50.39927,-53.71002,-58.16524,-61.66502,-65.81527,-67.75972,-70.57739,-73.23578,-77.08148,-79.56551,-81.3151,-82.50767,-84.72452,-86.68644,-88.48399,-88.94344,-89.58967,-90.94918,-91.1999,-92.35467,-91.16369,-90.78156,-90.27742,-89.68998,-88.74432,-86.51312,-84.46234,-82.53599,-80.06546,-77.58983,-74.28148,-70.95432,-67.55718,-65.1119,-62.31026,-59.46891,-56.0004,-53.6408,-51.54833,-49.14116,-47.19044,-44.42194,-42.40295,-41.32387,-40.0646,-38.05771,-36.49758,-34.62808,-34.6056,-33.20876,-31.71909,-30.20738,-29.07473,-28.39834,-27.05359,-24.83424,-22.06485,-20.66327,-18.80818,-17.19322,-14.46049,-12.02707,-9.961295,-7.248931,-5.430795,-1.854839,0.1975533,3.648009,5.353165,8.274545,11.17466,14.46222,16.81051,19.63983,22.01448,24.79806,27.8463,30.23457,32.58798,34.88175,37.33602,40.74429,42.96884,45.67445,46.68611,49.42435,51.60311,54.03291,55.37422,56.70092,58.47093,60.11026,61.75679,62.80168,63.70553,65.08254,65.44525,66.95039,67.34407,66.71928,67.2857,67.28382,67.36812,66.47235,65.46216,64.72728,64.29703,63.43391,61.96905,59.87685,58.9709,58.24615,56.63348,54.86658,53.07674,51.97993,50.10299,48.63693,46.14622,44.81313,42.35338,40.90806,38.32125,35.38793,32.10164,29.98325,27.69511,24.92941,22.42084,19.08129,17.3702,15.00315,12.83003,10.55329,8.391596,6.884504,5.31916,3.442252,1.593523,-0.2928781,-2.428907,-2.81114,-4.163096,-6.414567,-7.594231,-8.833959,-9.216879,-9.689483,-11.5674,-12.62628,-14.0206,-13.86234,-14.35423,-15.71479,-16.2384,-16.95146,-16.97401,-17.08769,-17.56648,-18.22247,-18.22356,-18.5178,-17.54238,-18.01922,-17.93857,-18.0206,-17.49158,-17.66875,-17.17275,-17.40771,-16.87954,-16.33147,-15.60252,-15.41982,-15.40843,-15.08357,-14.69514,-13.50739,-13.77779,-12.99231,-13.01622,-12.33393,-11.82468,-11.35869,-11.0019,-10.78438,-10.21179,-8.850626,-8.744781,-8.034848,-7.899116,-7.003139,-6.366851,-5.597143,-6.352948,-5.856395,-5.195563,-5.101873,-4.700836,-5.296981,-4.738556,-4.30295,-2.91587,-3.32653,-3.755763,-4.640358,-4.746887,-4.616773,-5.947859,-6.955874,-8.075126,-9.034929,-9.501828,-10.81527,-12.53206,-13.99485,-14.76158,-15.85926,-16.76366,-18.35283,-19.38494,-19.71211,-19.84264,-20.51553,-20.31269,-21.10903,-21.22604,-20.9131,-20.88008,-20.9037,-21.78369,-21.22255,-21.09032,-21.1384,-21.11846,-20.62587,-20.7613,-19.55074,-19.34637,-19.18621,-18.86814,-18.47758,-17.54137,-16.96486,-16.48024,-16.25433,-15.28668,-14.18221,-12.72337,-12.45745,-11.21026,-9.331602,-7.9378,-6.285401,-4.927965,-3.435548,-1.935068,0.1933927,1.15877,3.690083,5.11227,6.763825,8.981279,10.45629,12.08178,13.06382,15.0481,16.58884,18.34333,19.37884,20.25215,21.77056,23.76894,24.90755,25.64556,26.51147,27.28388,29.57051,30.73679,31.26269,31.07018,32.32669,33.13828,33.36983,33.44367,33.40855,33.59402,33.8738,33.96227,33.29134,33.05215,32.84233,32.62569,32.55935,32.09767,31.02506,30.2208,29.90033,29.17172,28.51948,27.12058,26.69362,26.38274,25.71178,25.62904,24.6662,25.12708,24.86817,26.20329,26.92756,27.31902,27.90859,29.59864,29.8331,30.67592,31.08021,32.05515,32.64983,33.73214,35.61324,35.21723,36.1402,37.29313,37.79164,37.7052,37.64002,37.51665,38.0021,38.3599,37.61909,37.34387,37.11403,36.73838,36.57973,35.36158,33.66486,32.67021,31.48748,30.3751,28.36273,26.0065,23.75354,21.87834,19.88084,17.96158,15.06655,12.66037,10.98665,8.01153,5.793035,2.078223,-0.6003849,-2.998247,-6.111519,-9.36575,-12.875,-15.69302,-18.79549,-20.92789,-24.64016,-27.66429,-30.20658,-32.93765,-35.28311,-38.13588,-40.54444,-43.18599,-44.19273,-45.71401,-46.83599,-49.22401,-50.97441,-51.42048,-52.33674,-53.51654,-54.50738,-55.07248,-55.23079,-54.95521,-54.70674,-54.77864,-54.32341,-53.54406,-52.18261,-50.8986,-49.92296,-48.32094,-45.80499,-44.58843,-42.32301,-41.08027,-38.00293,-36.52027,-34.16556,-31.56273,-29.75505,-28.07022,-25.42256,-22.75086,-20.75314,-18.81107,-17.50125,-15.80478,-13.54984,-12.22173,-11.53424,-10.9752,-9.632061,-8.829881,-8.455015,-8.393612,-8.450268,-8.678036,-7.670094,-8.00266,-7.948791,-8.221653,-7.651319,-6.892847,-6.701939,-7.947152,-8.784581,-9.143209,-9.882599,-10.76355,-12.53731,-14.54884,-15.32257,-16.308,-17.29265,-20.15245,-22.2772,-23.99619,-26.27926,-28.34545,-31.23726,-33.43379,-35.40961,-37.67269,-38.95404,-41.57309,-43.12478,-45.05506,-45.82311,-46.69623,-47.82864,-48.87613,-50.08264,-49.61628,-49.61359,-49.8707,-49.81442,-48.95422,-47.59034,-45.63474,-45.1195,-43.91801,-41.96684,-40.05942,-37.73691,-37.30351,-35.03355,-33.74074,-31.93561,-29.75284,-29.10836,-28.05737,-26.8659,-25.1915,-24.33792,-23.69193,-22.45216,-22.51308,-20.68792,-19.93042,-18.80076,-18.39242,-17.10031,-15.75495,-14.60079,-13.58481,-13.12803,-11.92895,-10.78721,-9.878205,-8.789388,-8.317673,-7.416701,-5.873636,-4.242758,-3.977814,-3.325892,-1.791886,0.2311859,1.465838,2.406421,3.833041,4.663364,6.270247,8.014263,9.14665,10.63849,11.54127,13.40342,15.51364,16.21005,18.13207,19.55279,21.74269,23.77076,25.3289,27.026,28.46004,31.26367,33.03915,35.02198,36.77365,38.69026,41.24226,44.27043,46.63523,48.9035,51.37951,55.07447,58.11303,61.41935,63.40821,66.17381,68.79783,70.94744,72.92955,74.1866,76.46921,77.67149,79.26357,80.73677,81.57985,83.06042,83.16512,84.13287,84.24853,83.39234,83.17015,82.55556,82.28689,80.96101,79.88636,78.50703,77.19688,77.08238,74.33147,73.91163,71.25077,70.29964,69.21799,66.68562,64.75113,62.9231,61.73834,60.82634,59.0718,58.30444,56.59635,56.79133,56.28249,56.08245,56.06666,55.69314,55.33537,56.01262,55.45992,55.59125,54.96894,55.05298,55.29874,54.97856,55.12697,55.14891,54.58446,55.16029,54.14492,54.3358,52.98724,52.65367,52.34272,50.84821,49.54345,48.16664,46.99474,45.83561,43.96958,41.42862,39.40501,36.64372,34.93707,32.15132,29.38577,26.40058,24.16718,20.99214,18.22642,14.84607,11.64279,7.64825,5.198273,1.22609,-2.166528,-6.099411,-9.585699,-12.67215,-16.21115,-19.75104,-23.43389,-27.10765,-30.25558,-33.15103,-36.39719,-39.85785,-42.37238,-45.51445,-47.32425,-50.40341,-53.09236,-54.7421,-56.49879,-58.28424,-59.45269,-61.23407,-62.48246,-63.2862,-64.43088,-65.39269,-66.22094,-66.55862,-66.71487,-66.48777,-66.49883,-66.31968,-65.73339,-65.19388,-63.20141,-62.41099,-61.33683,-60.27009,-58.25494,-56.06234,-54.69711,-53.17862,-51.4835,-49.02148,-46.51389,-44.8007,-42.83685,-40.55761,-38.58174,-36.61206,-34.38564,-33.57723,-30.77871,-29.73876,-28.68327,-27.31347,-27.62544,-27.15962,-26.86883,-27.17889,-27.32967,-27.77826,-29.28918,-29.08451,-31.12322,-31.75085,-34.1345,-35.21337,-37.18388,-38.53034,-40.87121,-43.5545,-45.39171,-47.54384,-49.54196,-51.47772,-53.81566,-56.36728,-58.28738,-60.14621,-62.50543,-64.48391,-67.39082,-69.0741,-70.98597,-72.72179,-75.09931,-76.98597,-78.27033,-79.99415,-80.59696,-82.2587,-83.64761,-84.36943,-84.9909,-85.71677,-86.49116,-87.71309,-86.87911,-86.93364,-86.00317,-85.97459,-85.33857,-84.45087,-82.40416,-81.61624,-79.81341,-78.27739,-75.10253,-73.55526,-69.76691,-68.24087,-65.04648,-61.92027,-57.79735,-53.95394,-50.15179,-46.95326,-42.30013,-37.62962,-33.1481,-28.96867,-24.79472,-20.04251,-15.17094,-11.07668,-6.58201,-2.506004,1.732555,5.363739,9.674232,12.02584,15.30145,18.46613,21.3477,24.21605,26.23454,28.16537,30.63265,32.86377,34.92517,36.63608,37.84301,39.67549,41.17711,41.9159,42.6523,42.99946,44.159,44.8996,45.92212,46.24939,47.02974,47.63004,48.85468,49.44021,50.14329,50.17404,50.67669,51.72057,52.43659,52.61065,53.27351,52.83799,53.54987,54.55736,54.39543,54.78607,55.60596,56.29068,57.2608,57.61825,57.93029,58.99843,59.37127,60.50281,61.14428,61.65162,62.81193,63.61284,65.42383,66.51907,66.98754,68.21461,69.67335,71.31145,71.74594,72.22347,72.90123,74.65177,75.48183,75.9826,76.18491,76.48909,77.70202,78.03356,78.54839,78.76181,78.37194,78.47507,77.59892,77.6596,76.32946,75.65153,74.66175,73.06834,71.81341,70.06238,68.24128,66.71239,64.68308,62.72674,59.9992,57.73046,55.75275,53.20319,51.37441,48.68385,45.82516,43.78697,41.85822,39.45115,37.59261,34.94021,34.11626,32.17491,30.72251,28.44959,27.33594,26.1853,25.34936,23.54311,22.04984,20.28148,18.81956,18.27759,16.45202,14.58289,12.9523,11.43458,9.839173,8.773452,6.641223,4.654453,3.277838,1.625308,-0.3465463,-2.186177,-3.959722,-5.792638,-6.714167,-9.23091,-11.43963,-13.81681,-15.52951,-17.54787,-19.11021,-22.70392,-24.16469,-27.09431,-28.65948,-31.10525,-33.447,-36.3893,-38.64547,-40.70469,-43.12853,-45.7754,-48.17462,-50.00075,-52.5113,-54.1647,-56.85328,-58.65667,-60.86431,-61.85967,-63.92566,-65.09294,-67.46959,-68.31574,-69.6356,-70.63346,-71.72381,-72.78931,-72.94851,-72.98561,-71.95267,-72.67642,-72.05605,-72.2329,-70.58231,-70.05059,-69.70386,-68.33246,-67.90619,-66.16276,-65.4486,-64.13794,-63.264,-61.48246,-60.08902,-58.2476,-56.83739,-55.45814,-53.11362,-51.14111,-48.55201,-47.12901,-45.32124,-42.96823,-40.33423,-37.40862,-36.15919,-33.33789,-31.64363,-29.01447,-26.46391,-24.34264,-22.72881,-20.28487,-18.70477,-16.34057,-14.96271,-13.0554,-11.53591,-9.873709,-7.680261,-6.660958,-5.228622,-3.373402,-2.053936,-0.132575,0.907866,2.05421,3.668115,4.86597,6.855137,7.952056,8.782604,10.31199,11.25126,12.79267,13.30478,14.21951,14.87991,16.75362,17.17411,18.42933,18.96356,20.13645,20.81923,22.46466,22.6071,23.52306,24.56408,25.47016,26.67352,28.14015,29.08058,30.18497,31.51697,32.13009,34.02959,34.57314,35.87925,36.18882,38.15281,38.03904,39.29756,39.52463,40.11218,41.3747,41.07728,41.8933,42.22148,42.54213,43.19066,43.50098,43.53469,43.87723,42.98987,43.6267,43.11808,43.01245,42.14656,41.78675,41.49539,40.70252,40.43712,40.15871,39.48489,40.11219,40.3499,40.26891,40.26684,40.69186,41.39797,41.34126,41.86212,41.86738,42.60225,43.31033,43.53223,43.93158,44.09043,44.84627,44.93585,45.69845,45.11434,44.94217,45.92125,46.17891,46.38562,45.47104,45.63849,45.44925,46.03702,45.17131,44.23335,43.27851,42.9286,43.15822,42.29324,40.73623,38.9446,39.04637,38.19456,36.4779,34.11674,32.04022,30.66084,29.40947,27.40704,24.44925,21.70667,19.83383,18.11582,15.47095,12.33755,8.803376,6.434611,4.477567,1.494042,-2.16011,-5.62187,-8.270934,-9.977049,-13.28369,-17.3321,-20.61656,-23.42734,-25.34252,-28.95109,-32.65654,-36.14349,-38.61838,-41.49277,-44.11464,-47.51316,-50.79792,-53.8371,-55.40736,-58.54414,-60.77107,-64.23244,-66.38779,-67.39896,-68.63243,-71.11911,-72.56943,-74.13114,-73.67931,-74.47705,-76.04162,-77.25256,-77.54953,-77.73156,-78.42417,-80.26026,-82.16628,-83.26168,-83.63144,-85.65208,-87.35374,-89.40666,-90.57973,-91.17793,-92.32104,-94.28555,-96.35396,-97.69125,-98.06385,-98.84386,-100.3038,-102.7467,-103.1073,-103.6952,-103.4715,-104.2037,-105.2262,-105.1859,-104.0904,-103.529,-103.0537,-102.8372,-100.7618,-99.13904,-96.62577,-94.85376,-93.58306,-90.6644,-86.72529,-83.74463,-80.39643,-77.82426,-74.73673,-70.38152,-65.42222,-62.83517,-58.83323,-53.7985,-49.57994,-44.83947,-40.6111,-35.81984,-30.99273,-25.59646,-20.36437,-15.52755,-10.30736,-4.948367,0.8544623,5.39115,10.05986,15.24198,20.30277,24.85471,29.73151,34.2733,38.20663,41.73657,47.2196,50.18747,53.78537,56.36761,59.79166,62.22171,64.65055,65.89145,67.85259,68.74507,70.71834,70.37665,71.19104,70.90513,70.58487,70.80931,69.84261,68.88485,67.74019,66.52939,65.11063,63.36215,61.3868,59.03875,56.50823,54.80266,52.99125,50.22361,47.80139,45.35749,44.10784,42.37037,41.30727,39.06834,38.85032,38.6843,38.34808,37.86447,37.70196,37.56913,38.57283,38.20604,38.80462,38.42637,39.06956,38.7009,39.23367,38.83459,38.7201,38.54494,38.27324,38.93407,39.092,39.09241,38.71112,38.61502,39.29587,38.53587,38.41677,37.95724,37.95191,38.07193,37.64935,36.67908,37.04447,36.85507,37.36656,37.39806,36.82341,36.6837,37.1343,37.35514,37.50467,37.18023,37.33025,37.39785,37.58904,37.91028,37.17023,37.47144,37.09518,36.87891,36.40577,35.41754,34.50389,34.47484,33.31553,32.48521,31.75381,30.97241,30.28202,29.8493,29.84489,29.13602,28.61437,28.45712,28.14279,28.08092,27.39209,27.12666,26.49497,26.47638,26.24301,25.66758,25.23479,24.68232,25.37157,24.83943,24.1334,24.46995,24.50965,23.66094,24.16524,23.5445,23.20314,22.82422,22.73976,22.7315,22.1191,21.51278,21.37572,20.98423,21.92883,20.35031,20.2891,19.79106,19.63654,18.63279,17.91373,16.16871,15.36452,14.1835,13.38063,11.27936,10.57064,8.943529,8.426804,6.652584,6.218336,4.442648,3.816074,3.102034,2.286451,1.516427,0.827744,0.2207515,-0.3862685,-0.6533996,-0.9520881,-1.529535,-1.351866,-1.633604,-0.8797386,-1.404315,-0.3011197,-1.222688,0.02745884,0.4085196,0.3293471,0.3764518,0.8516403,1.144034,1.054375,1.171411,1.116262,1.111718,1.45856,1.31241,1.179331,1.042297,1.17406,0.8422503,0.80488,0.4241014,0.4676092,-0.505138,-0.5081705,-1.153904,-2.245528,-3.091445,-4.249098,-5.225885,-6.709702,-8.050144,-10.09566,-11.6519,-13.67803,-14.72642,-17.6258,-19.57462,-22.3333,-24.37542,-27.33778,-29.31385,-32.67569,-34.74714,-37.85028,-39.81172,-42.62506,-45.15517,-47.6283,-49.89387,-51.83428,-54.55022,-56.98622,-59.1683,-61.7943,-63.14567,-65.97208,-67.90517,-70.4422,-71.72968,-74.12922,-75.98296,-77.45715,-79.26437,-79.96451,-81.71378,-82.83923,-83.11153,-84.8505,-84.22861,-84.87159,-84.77932,-84.82831,-84.57887,-84.18241,-82.88703,-82.5052,-81.33617,-80.47542,-79.39991,-78.23659,-77.91766,-76.81674,-76.52679,-75.70103,-75.08554,-74.13223,-74.2543,-73.62081,-72.86279,-71.43395,-71.51635,-70.14784,-70.76452,-69.49133,-69.01973,-68.28884,-68.28554,-67.74351,-66.2513,-65.67692,-64.29483,-63.90618,-62.81087,-61.85228,-59.64459,-58.58275,-56.56353,-55.0282,-53.09526,-50.02662,-48.81492,-45.45399,-44.69005,-40.68655,-38.67134,-35.37428,-33.12815,-30.2001,-27.68656,-23.43132,-20.48006,-17.36612,-14.28268,-11.22808,-7.341074,-4.305591,-0.6829069,2.073992,5.776302,9.551645,13.25358,16.52148,19.29419,23.12751,26.49242,29.83416,32.72671,35.5276,38.57914,41.68192,44.25107,46.98918,48.8669,51.70228,54.16487,56.14989,58.38479,60.0523,62.06941,63.93547,65.63591,67.15089,67.36906,68.72971,69.82264,71.27583,71.18708,71.94896,71.54588,72.54347,72.53455,72.73633,72.09246,71.66525,71.39852,70.84911,70.18367,68.89368,67.85459,66.75565,66.15262,64.92651,63.70613,62.67353,62.05578,61.52907,61.31161,60.01,59.773,59.41117,59.42572,59.31898,58.86529,58.54572,58.70467,58.55182,58.59971,58.16,57.3254,57.7607,57.63551,57.69461,57.14164,56.29783,56.69568,56.28012,56.21871,55.27105,55.22398,55.0354,54.04052,53.90847,52.35199,52.30925,51.77128,51.62528,51.10633,51.15997,50.4905,50.08694,50.0106,49.5655,48.99275,48.69573,48.11807,48.562,48.45812,47.81697,47.31423,46.88971,46.73161,46.86428,45.94693,45.96006,45.00975,45.59841,44.8063,44.71447,43.62261,43.85262,42.99494,42.78301,41.28607,40.23857,40.00549,38.75021,38.17056,36.63747,35.93835,34.35977,34.06659,32.52565,31.38827,29.70968,28.38043,26.38138,25.39702,23.48053,21.96481,20.17738,18.8854,18.49859,16.65654,15.67605,14.38859,14.00559,13.90867,12.76614,11.71879,11.08692,10.95795,11.04985,9.747335,10.768,10.51802,11.12347,11.03211,11.66012,11.06208,12.12847,12.3374,12.53037,12.82452,12.30567,12.25329,12.76683,12.07196,11.68035,11.2996,10.53653,10.68533,9.827652,9.916474,8.037941,7.735073,6.207833,6.041026,4.444284,2.637179,1.080193,-0.5481177,-1.483193,-3.868882,-6.669937,-8.410253,-10.84922,-13.04912,-16.00208,-19.21271,-22.48091,-24.95703,-28.40096,-32.21794,-35.62761,-39.59436,-42.97331,-46.62152,-49.84981,-54.16203,-57.82145,-62.11101,-64.82212,-68.73822,-72.45781,-76.47131,-79.49553,-82.87144,-86.22638,-91.02849,-93.39892,-97.10586,-99.17102,-102.8393,-104.7392,-108.3107,-109.1285,-112.0965,-113.4417,-116.3642,-116.9672,-118.3016,-118.9807,-119.9423,-119.8749,-120.6726,-118.616,-118.7827,-116.8518,-116.3304,-114.729,-112.8707,-111.1,-109.595,-108.2576,-106.6012,-105.556,-103.4412,-102.7233,-101.5411,-100.9882,-100.2662,-99.30117,-98.76964,-98.8342,-98.28672,-97.91202,-96.17111,-95.47999,-95.04051,-94.0699,-92.71352,-91.28907,-89.93443,-88.7943,-87.26182,-85.39075,-82.92434,-80.86172,-79.0728,-76.86537,-73.29601,-70.64581,-67.09204,-63.85404,-60.10471,-56.91487,-52.34824,-48.53369,-44.19345,-40.06158,-35.28576,-31.22155,-25.93554,-21.89246,-17.46561,-12.9496,-7.712192,-2.449824,2.994927,7.509085,13.11669,18.09569,24.03636,28.26736,33.64467,38.36037,44.30633,48.62253,53.41782,57.36498,62.06285,66.62169,70.35949,74.05198,77.74746,80.70566,85.09639,88.03936,90.85362,93.61652,96.71115,98.9912,101.6942,103.7449,104.4649,106.5111,107.4683,109.0489,108.5729,109.0497,108.0582,108.8102,107.8577,106.6656,104.9652,103.2672,101.7562,99.95957,97.04433,95.40249,91.25368,89.68731,86.11457,84.30314,79.67122,77.6124,73.95822,72.2895,68.95002,66.59745,63.32666,61.77491,60.1826,59.04441,56.57449,56.38818,54.60633,54.91104,53.76081,52.57736,52.07692,51.00996,51.15148,49.8217,49.37279,48.16011,48.10374,47.34203,46.85648,45.46572,44.70182,45.32461,44.23326,43.73627,43.43428,42.02107,42.00558,41.25974,40.41707,39.40734,37.68754,37.08361,36.52677,34.91472,33.3011,31.75485,30.4733,28.82503,26.50476,24.54295,22.82344,20.38052,19.06852,16.45932,14.52016,11.12206,9.730464,7.414619,4.925474,1.895932,-0.9323589,-3.748647,-5.319288,-8.236689,-10.75586,-13.84511,-15.5969,-17.78684,-19.59511,-22.29028,-24.81958,-26.39758,-28.55036,-30.33404,-32.993,-34.96126,-36.64798,-37.88713,-40.42449,-40.91505,-42.93661,-43.58807,-44.18364,-45.09671,-46.03351,-47.0323,-46.67974,-47.58406,-46.98409,-47.8015,-47.67769,-47.66665,-46.97105,-46.6794,-46.76204,-46.86603,-46.5988,-45.82411,-46.13505,-46.69066,-47.51889,-47.27524,-47.6013,-47.69162,-49.21553,-48.34056,-49.23503,-48.25168,-48.6883,-48.73201,-49.68165,-49.16201,-48.99256,-48.74796,-49.45672,-49.28694,-49.57432,-48.55473,-48.59675,-48.84919,-48.72628,-47.79808,-46.84386,-45.76122,-45.51729,-44.42149,-43.77108,-41.88878,-40.6112,-39.58888,-38.16625,-36.71405,-33.54435,-32.16975,-29.47074,-27.89892,-25.27467,-22.05094,-19.16028,-16.49378,-13.58451,-9.983754,-6.924532,-2.884916,0.2790442,3.032185,7.502843,11.38227,16.22848,20.02338,24.71734,29.6527,35.06151,39.56998,44.80681,49.12325,53.81581,58.63021,63.39968,67.88716,71.48399,75.17893,79.27144,82.6477,85.80193,87.80267,90.49334,91.86232,94.27976,94.49505,95.48089,95.12482,95.72002,95.14509,94.02023,91.91946,90.52125,88.30623,87.06228,83.30861,79.84478,76.32035,73.06321,69.88947,65.76759,61.23162,56.78402,51.99265,47.04183,42.54523,34.91859,29.47667,22.90764,16.67795,10.04755,2.436443,-4.12082,-11.50801,-17.28288,-24.60565,-30.94975,-37.87473,-43.84837,-49.80409,-56.21389,-63.08191,-68.47354,-73.86614,-79.4821,-83.99284,-88.7232,-93.00328,-95.55748,-99.05228,-100.9021,-103.1256,-105.4881,-105.9097,-106.7226,-107.1678,-107.3022,-107.4045,-105.7161,-104.359,-101.9311,-100.4846,-97.2883,-94.30879,-90.19525,-86.13309,-81.99072,-77.59978,-72.52399,-66.65973,-61.91976,-56.76504,-51.32799,-45.68711,-40.05826,-34.05699,-29.35143,-23.20942,-17.78903,-12.50434,-6.969068,-2.452749,1.898831,7.549685,11.105,15.83018,18.60423,22.80298,25.52085,29.51234,31.9163,34.63738,37.06835,40.0295,42.85643,44.56854,46.14634,47.04091,49.40925,49.94625,52.12906,51.34498,51.7334,51.67344,52.0437,51.35698,50.14678,49.01073,48.01674,46.98904,45.58264,43.34117,41.27229,39.19421,37.82217,35.41396,33.29997,30.60016,28.90689,27.50755,25.04203,23.51385,21.10414,19.72879,19.3473,17.14142,16.57369,15.51534,15.13287,14.63559,14.59965,13.23688,12.49028,11.79895,11.81692,11.27852,10.61719,9.642614,9.59632,9.422375,9.662052,8.730166,8.697905,8.679997,9.25499,9.622481,9.951859,8.853339,9.842623,9.958553,10.46435,9.966683,10.30433,9.965486,10.63226,11.06534,10.87105,9.879055,10.67939,9.802286,10.59149,9.348548,9.725579,8.578362,9.433605,9.094745,7.976363,7.144151,6.760851,6.407808,6.35438,5.542424,4.49497,4.025106,3.752789,4.666221,2.818973,2.830799,1.756606,2.052664,1.372497,0.8495463,0.05778536,-0.7440955,-0.5978203,-0.7428573,-1.351863,-1.595387,-2.519197,-1.551403,-0.9253655,-1.455383,-1.255566,-1.153133,-0.4747168,0.5409564,0.5936435,1.620523,1.409778,3.051996,3.395614,4.359002,5.385897,5.490177,6.5043,7.140238,8.414046,8.715136,9.853006,10.62128,12.19527,13.11692,13.46745,14.69222,15.73616,17.75206,18.87311,20.08688,20.87365,23.0544,24.19478,25.83646,26.61588,27.79162,28.89458,31.11505,31.27406,32.53813,32.52528,33.78461,33.83146,34.74273,33.81828,33.94933,33.44389,33.57225,32.86766,31.58124,30.0522,29.4323,28.06196,26.22448,24.32736,21.95158,20.5685,18.53405,16.35888,14.1255,11.32857,9.308143,7.503726,4.745482,1.949355,-0.6546479,-2.903053,-5.82364,-6.624259,-11.77511,-12.62103,-16.47036,-18.10641,-21.36131,-23.96995,-26.93157,-28.8482,-31.718,-34.12536,-37.33709,-39.23715,-42.35496,-43.8147,-45.49084,-47.77291,-50.00552,-51.32089,-52.95352,-55.21071,-56.60724,-59.22331,-59.78071,-60.83759,-62.20934,-63.85667,-65.27906,-66.33008,-65.61769,-67.51726,-67.20885,-69.14656,-67.79601,-68.36184,-67.45996,-68.35024,-67.41447,-67.29696,-65.52577,-65.32808,-64.54873,-64.07246,-62.60237,-61.19146,-60.88505,-59.35696,-58.87721,-57.24502,-56.53791,-54.96689,-54.41826,-54.01731,-52.90759,-51.64809,-50.57783,-49.46307,-49.94378,-48.13127,-47.30476,-45.63773,-45.06726,-43.95262,-42.71204,-40.75897,-39.12369,-38.30082,-36.36544,-34.5796,-31.73432,-29.72133,-27.89252,-25.83604,-23.3634,-20.28697,-17.42711,-14.95697,-12.63808,-9.711605,-6.3439,-3.425439,-0.9333851,1.976782,4.983925,8.699125,12.10743,14.68454,18.21779,20.83727,25.29092,27.61162,30.57143,33.12253,36.06552,38.70868,41.41156,43.98476,45.21545,48.21476,49.83857,52.52919,53.87084,55.11266,57.11149,58.99456,60.29582,61.9339,62.42512,63.77865,64.25671,66.72219,64.6721,66.43752,65.0269,66.07827,65.11674,65.38221,64.00023,63.252,61.96553,61.81326,60.29463,59.2869,57.91443,56.95714,56.43153,54.74503,52.70576,51.01957,49.08273,48.14569,46.11334,43.69353,42.10463,40.17109,38.75287,36.74952,34.21522,32.92518,31.80859,29.9222,28.55774,26.34505,25.24262,23.86804,22.43604,21.18924,19.4581,18.1024,16.82633,15.89288,15.27832,13.74983,12.66934,12.28357,10.98677,10.59495,9.007129,7.443851,7.374718,6.722696,5.899103,4.460633,3.759369,3.314941,3.040552,2.548773,1.112051,0.6820975,-0.03954611,-0.003442624,-1.340101,-2.245699,-3.771324,-3.521641,-4.918916,-5.230364,-6.349529,-7.570937,-8.139847,-8.662916,-9.787411,-10.51976,-11.67725,-12.14142,-12.92546,-13.92437,-15.54317,-16.3855,-17.50917,-17.73995,-19.04157,-20.14272,-21.07031,-21.8351,-22.64066,-23.33915,-23.84641,-26.03339,-25.95678,-27.78624,-27.98231,-30.28007,-31.03157,-32.47425,-33.39528,-33.99915,-35.94669,-36.79134,-37.86114,-37.91191,-38.68333,-38.91094,-40.33799,-40.14438,-42.12461,-42.08071,-44.76035,-45.70943,-47.93228,-48.76618,-51.0108,-52.53045,-55.41984,-56.49591,-58.17053,-59.5889,-61.0051,-63.10753,-63.71248,-64.16656,-64.94715,-65.56006,-65.90698,-65.87164,-65.04097,-64.20104,-64.36321,-63.14561,-62.13055,-59.65986,-58.6577,-57.16448,-55.75942,-53.66666,-51.19404,-49.04094,-46.91691,-44.80817,-41.80046,-39.167,-35.72457,-33.2164,-30.5274,-27.07041,-23.90702,-19.15389,-16.51212,-12.2891,-8.739601,-3.979024,0.4367545,4.156521,8.118526,12.05254,16.62546,21.24329,24.77744,29.26513,32.7563,37.83315,41.22765,45.11023,48.42006,51.78383,56.11534,58.48089,62.23642,63.5908,66.50877,69.06878,70.87398,73.70602,73.82381,76.23597,77.19438,79.01104,79.7754,80.29829,81.51317,82.31708,83.35439,83.83779,83.91501,83.81068,84.71605,83.71701,84.62367,83.03663,82.57991,81.63375,81.12094,80.12264,78.73781,77.18095,76.53695,75.74463,74.53662,71.99116,71.52511,69.41956,69.05321,67.01949,65.38103,62.91658,61.92678,60.40391,58.641,56.27953,54.86533,52.71108,51.04495,48.8636,45.28234,42.73945,38.77826,37.06566,33.02673,29.23932,25.49021,22.28159,18.74514,15.17767,10.49589,6.924186,3.676244,-0.2100584,-2.85912,-8.191589,-10.90848,-14.34194,-17.40209,-20.36198,-23.85053,-27.1958,-29.91826,-32.5247,-35.25056,-38.39435,-41.12944,-43.26556,-45.41235,-47.73455,-49.42258,-51.99374,-52.23383,-54.16223,-54.49829,-56.13817,-56.84033,-57.27991,-56.77416,-57.02615,-56.96559,-56.24623,-55.49157,-54.10217,-53.10192,-51.74401,-50.59909,-48.05323,-45.66714,-43.54994,-41.27066,-38.71114,-35.79652,-32.82513,-30.24008,-27.30222,-25.86352,-21.69216,-19.85194,-16.02219,-14.46263,-11.78649,-8.921403,-6.646019,-3.550579,-2.184837,0.2697518,2.004605,4.408852,6.741541,7.279713,9.702222,10.82275,12.63435,14.34969,15.10889,15.85107,16.70896,17.85007,18.48618,18.24861,17.72215,17.76666,17.27826,17.94166,15.28148,15.33166,13.65259,13.86069,12.38841,10.93711,9.52241,8.732603,7.381834,7.363036,4.928336,4.11236,2.120803,1.427958,-0.5894516,-3.056556,-4.20512,-6.093312,-7.188094,-9.24533,-10.89167,-13.25322,-14.87775,-16.2025,-16.85972,-19.21895,-20.54286,-22.38849,-23.03906,-24.57828,-25.45804,-26.78574,-27.48888,-28.15768,-28.16262,-29.3426,-29.87009,-30.29894,-30.14049,-30.14919,-30.88784,-30.93985,-30.58478,-30.92095,-29.45637,-30.68017,-29.86388,-30.31396,-29.4433,-28.71887,-28.68763,-28.03392,-27.64969,-26.6218,-25.67665,-24.82459,-24.85433,-23.57053,-23.36052,-21.26851,-21.51711,-20.56256,-19.85811,-18.34656,-17.58749,-15.92905,-15.68571,-14.31192,-13.99482,-10.40319,-10.75326,-9.082636,-7.864576,-6.935534,-5.374035,-5.06004,-4.214462,-4.579589,-3.46158,-3.024811,-2.711081,-2.70172,-2.739563,-1.55541,-0.4350098,-0.3655721,0.2624585,0.6090805,1.286346,1.965398,2.246209,1.520138,1.587419,2.508089,3.084982,3.392541,3.678031,3.609068,4.947241,5.619096,5.986726,6.188094,6.87115,7.215484,8.261823,7.810785,8.297284,8.65425,9.277092,10.27186,10.4962,11.77878,11.37752,12.99808,13.61215,15.15098,15.59487,17.05775,18.09162,20.74864,20.80725,22.47635,23.42386,24.37951,25.99243,26.8217,27.87595,27.75715,29.14327,29.54208,30.63706,30.23186,31.19357,31.53046,32.67254,32.01329,32.41914,31.72253,32.60326,32.45245,32.90983,31.30159,31.67792,30.79454,31.06385,29.50318,28.99269,27.52237,26.69491,25.31942,24.70611,22.40341,22.0538,19.72838,19.71867,17.06087,16.45703,13.03683,12.08141,10.28241,7.886715,5.404887,2.31012,0.6449897,-1.813291,-3.730419,-6.763127,-8.917987,-10.95109,-12.754,-14.72092,-16.85134,-18.79109,-20.04696,-21.19014,-21.89145,-24.46366,-25.05131,-27.2696,-26.40371,-29.72495,-29.69988,-31.95072,-33.16559,-33.63136,-34.51248,-35.00268,-36.2888,-36.16351,-35.91221,-35.56554,-34.92654,-35.59106,-32.9405,-32.78506,-31.4003,-30.4583,-29.87466,-28.34818,-27.09914,-25.23498,-24.30143,-22.65357,-20.37886,-18.37292,-16.02976,-13.78457,-12.47853,-9.346813,-8.190733,-4.802359,-3.783752,-1.265858,-0.08835946,2.508536,4.377321,6.531444,8.341163,10.43057,12.62066,15.22644,16.17185,18.1852,19.45197,22.3252,23.96838,25.62678,26.97159,28.82778,30.54274,32.20226,33.35415,34.22418,34.49327,36.51885,36.92748,37.65282,37.77216,38.37334,38.72814,39.10256,39.12618,38.514,38.52019,37.55626,37.657,37.19353,36.16929,34.88853,33.82119,33.02211,32.36128,31.70278,29.35317,28.67706,27.52393,26.41209,23.84834,22.22064,20.59522,19.85783,17.86918,16.43789,13.64156,12.803,10.26085,10.0396,6.466367,5.914428,3.280317,1.708277,-0.2956768,-2.303216,-4.375574,-6.145023,-6.957929,-8.919742,-9.924467,-12.22746,-12.52377,-13.97919,-14.61106,-16.3555,-17.2261,-18.30038,-19.18898,-20.17564,-21.28292,-22.50706,-23.25764,-23.35839,-24.53848,-25.09606,-26.59209,-26.39709,-27.14953,-27.193,-27.91075,-28.84528,-28.77459,-28.86723,-29.33086,-30.02729,-29.59464,-30.2642,-29.39362,-29.84196,-29.85751,-30.35169,-30.14479,-29.10249,-29.59378,-29.22841,-29.39012,-28.88838,-28.17683,-28.09545,-27.87082,-27.81646,-27.61933,-26.6937,-26.72778,-27.19817,-26.71802,-26.44267,-25.77782,-25.24573,-24.98591,-24.11645,-24.16125,-22.63796,-23.02483,-21.32321,-21.63408,-19.77106,-20.02943,-17.6505,-17.70369,-16.43664,-16.44073,-15.7197,-15.01237,-15.44221,-15.54625,-15.43938,-16.18416,-16.28123,-17.44297,-18.35114,-19.71444,-20.57066,-21.6435,-22.98936,-24.03497,-25.69889,-25.97038,-26.51685,-27.69475,-28.74375,-28.63362,-27.89599,-27.84115,-28.04773,-28.75178,-27.68841,-27.21689,-26.74815,-26.60443,-25.77624,-24.85634,-23.04018,-22.06175,-20.8355,-19.10182,-17.83431,-15.20326,-12.90645,-12.24692,-9.64164,-9.01953,-6.35241,-5.131672,-2.416306,-1.749197,1.59792,3.157342,5.842574,8.060704,9.636509,12.53179,14.46879,18.06045,19.65618,23.08008,25.31415,28.63264,31.36197,33.9178,36.29483,38.7909,41.77478,43.5287,46.1864,47.61402,49.98069,51.53073,53.64905,54.82289,55.06756,56.85882,57.48532,58.27219,59.05695,59.37285,59.67216,60.46358,60.86656,61.8694,62.02475,63.23621,64.06917,64.58169,64.98607,65.71872,65.81702,66.01629,66.5456,66.81002,66.13961,66.05319,65.47527,65.71494,64.82183,65.52393,64.35735,64.22929,64.29247,64.08157,63.90516,62.09517,62.3538,61.63883,61.85023,60.44619,60.56293,59.88945,59.65363,58.2684,56.48595,54.6468,52.55636,51.56554,48.57021,45.98345,43.02962,40.02267,37.2661,33.84821,30.18575,26.46074,23.86733,20.13316,17.32604,13.47137,9.75775,6.538926,3.529578,0.01495562,-3.413468,-7.045493,-10.45913,-14.14381,-16.92726,-20.70475,-24.16023,-27.37936,-29.78041,-32.92716,-35.25964,-38.64597,-40.5039,-42.51005,-44.6932,-46.31228,-48.60832,-48.85572,-50.05719,-50.57232,-51.16513,-52.58982,-52.69206,-52.48164,-51.91649,-51.9633,-51.32772,-50.64158,-49.03685,-47.80533,-46.31756,-44.52577,-42.76821,-40.49748,-38.11732,-35.73639,-33.9794,-31.90848,-29.53784,-26.74513,-24.83238,-23.10644,-21.16736,-19.26345,-17.05585,-15.84996,-15.14796,-13.90006,-12.65623,-12.1589,-12.1084,-11.29982,-11.91142,-11.34331,-11.56999,-11.18116,-11.2359,-11.87117,-11.53664,-11.55769,-11.98659,-12.35185,-12.55294,-13.45544,-13.49965,-13.63706,-15.0869,-15.20736,-15.32206,-16.07127,-15.81762,-17.50472,-17.69545,-17.64067,-17.86261,-17.86696,-19.56083,-19.69657,-20.56571,-20.18448,-21.72515,-22.4496,-23.4727,-23.66269,-24.02498,-24.80275,-25.12251,-27.44821,-27.73777,-28.23599,-29.62729,-30.18456,-31.45615,-31.97587,-32.68183,-33.65293,-33.94324,-34.53994,-34.77542,-34.29865,-34.74321,-34.40945,-34.64447,-34.80282,-34.10752,-34.2027,-34.47187,-33.9327,-33.66316,-33.62822,-33.16178,-33.25666,-33.84247,-33.45403,-33.15225,-33.27057,-33.5794,-34.1484,-33.82123,-34.13374,-33.72302,-34.59046,-34.61983,-35.109,-35.01647,-34.38347,-34.96989,-34.3655,-34.4183,-34.25974,-33.92834,-34.56681,-34.56795,-34.90158,-35.17291,-35.84581,-36.52201,-37.63937,-38.44764,-39.24674,-39.72596,-41.49333,-42.4329,-43.96899,-43.48761,-45.53718,-45.49057,-47.29426,-46.46681,-47.71616,-47.45327,-48.89829,-48.21059,-49.00889,-47.68923,-48.10689,-47.11746,-46.90156,-46.32825,-45.36049,-43.77106,-42.91505,-42.20885,-40.86231,-39.12346,-36.46181,-35.26352,-34.27336,-31.14608,-29.07612,-25.94701,-23.25195,-21.02777,-18.02215,-13.99478,-11.02809,-7.340361,-4.21272,-0.5235013,3.168683,7.053539,10.4431,14.29304,18.27259,21.64115,25.85834,29.04219,33.08767,36.10975,41.07841,43.51692,47.83867,49.81437,53.93292,57.11276,60.27794,62.68038,65.02326,68.08002,70.31891,72.73609,74.92218,76.54385,78.28811,80.53023,82.02148,83.95485,84.6795,85.93406,86.74742,87.94746,88.34404,88.96632,88.96198,89.39649,90.31423,90.58201,90.07371,89.63806,89.24961,89.39426,89.00134,86.97858,86.95829,85.50544,85.61119,84.00511,82.78223,82.32754,81.70076,81.95669,81.14871,80.74997,80.70985,81.82673,82.59312,83.16364,83.49657,83.97507,85.12419,86.0056,86.02013,86.13564,86.23626,86.3609,86.49067,86.71014,85.77369,85.97543,84.77592,85.4524,84.09128,83.23944,82.10717,81.73299,80.17071,80.0009,77.19838,76.20375,74.15708,72.65708,70.80691,68.50689,65.98318,64.1312,61.5343,59.5565,56.09169,53.6232,50.51907,48.36573,44.69967,41.89004,38.46166,36.27513,33.22102,30.70869,27.1079,24.40132,20.88572,17.88213,14.94239,11.30678,8.268897,4.954045,2.110838,-0.6097688,-3.598058,-7.400645,-9.900567,-12.61214,-14.64923,-17.73837,-20.49279,-22.24757,-24.16774,-25.85916,-28.65118,-30.03536,-31.87998,-33.48355,-33.91225,-36.19078,-36.86969,-38.55395,-38.984,-38.893,-40.16726,-40.55007,-41.27104,-40.75691,-40.58967,-41.35427,-41.65563,-42.0068,-41.62191,-41.36724,-41.94337,-42.03991,-42.30584,-41.55077,-41.62963,-41.06891,-42.21437,-41.23392,-41.44225,-41.41065,-42.34925,-42.36752,-43.62571,-43.88068,-44.26577,-46.48107,-46.7166,-48.36403,-48.47698,-49.80822,-50.44861,-51.60489,-52.26666,-52.82078,-53.43137,-54.20535,-55.20221,-56.05316,-56.44926,-56.63632,-57.57187,-57.83075,-58.25938,-59.05333,-58.49182,-58.22084,-58.65119,-58.89794,-58.53669,-58.27199,-58.36783,-58.736,-58.51957,-58.42047,-57.56148,-57.76178,-56.70904,-57.34612,-56.00803,-56.04914,-55.01127,-55.44452,-54.02306,-54.83691,-52.34031,-53.37985,-52.06411,-52.22187,-50.65311,-49.77753,-49.21265,-48.81824,-48.03989,-47.52859,-46.04362,-45.53023,-44.69433,-44.58249,-43.48616,-42.63648,-42.91681,-42.52256,-42.45837,-42.05589,-41.1685,-41.14855,-41.11467,-41.38146,-40.53275,-40.20322,-39.69872,-40.68394,-39.33421,-39.87909,-39.34759,-39.04649,-39.37302,-39.17523,-39.39092,-38.63405,-38.70468,-37.98852,-38.80785,-37.81588,-37.66774,-37.29018,-36.64613,-36.37428,-35.12681,-34.18625,-34.65284,-33.6327,-34.18153,-32.63154,-33.33552,-32.63722,-33.04709,-32.51862,-33.14132,-32.69044,-32.97461,-33.40184,-33.74633,-34.67958,-35.09282,-35.94773,-37.10342,-38.14533,-40.24712,-40.31858,-42.01223,-42.70966,-45.03826,-45.09542,-46.02707,-46.39234,-47.11309,-47.42211,-48.10423,-47.06778,-47.44322,-46.87413,-46.74844,-45.99054,-44.8316,-44.27539,-43.23195,-41.93329,-39.81576,-37.75575,-35.5612,-33.45988,-30.97668,-27.81667,-24.58912,-21.92004,-18.98542,-16.53932,-13.56681,-10.54186,-6.552811,-3.902479,-0.170898,2.167098,6.547244,9.762595,13.0679,15.31382,19.31526,22.50298,26.05657,28.85196,32.16836,35.38366,39.08208,42.06653,45.5966,48.35924,51.61033,54.36437,56.93163,60.01682,62.11425,64.52389,67.19187,69.03193,71.59799,72.59344,74.84188,75.29055,77.50374,78.06596,78.95034,78.63208,80.22076,79.87985,80.71744,79.48164,80.28564,79.55639,79.71736,78.85217,77.97066,76.85612,76.06881,75.7299,74.20466,73.45598,72.22333,72.047,70.87969,70.62314,68.65308,69.33219,67.83782,68.63527,67.8881,67.56156,66.89821,66.80532,67.74053,67.6832,68.48029,68.80066,69.77876,71.61937,72.26904,74.2888,74.49756,76.70347,77.89799,78.88083,80.49188,80.66361,82.40488,82.85876,84.0299,84.069,84.54763,85.05052,85.25754,85.67956,84.7586,85.30403,83.89914,84.11882,82.61604,82.63068,79.75461,79.89125,77.06175,76.6677,73.63828,71.81308,69.42979,67.446,65.46973,62.489,60.21573,56.7909,54.33223,51.02967,48.01048,43.80792,40.28389,36.72169,33.41134,29.43709,25.63645,21.87617,18.10407,14.11119,10.66146,6.404164,3.043155,-0.2649041,-4.338756,-7.638523,-11.32336,-14.80611,-18.0629,-20.16464,-23.76478,-25.66087,-28.80679,-30.53409,-32.84828,-35.2663,-36.82394,-39.39965,-40.25601,-41.61734,-43.23819,-44.17636,-45.64111,-45.39014,-45.98559,-46.35595,-46.74414,-46.94335,-45.19173,-45.13276,-43.91746,-44.11699,-42.0192,-41.88523,-39.81271,-39.59715,-37.57134,-36.81081,-35.11124,-33.95843,-32.83849,-31.38076,-30.87948,-28.6663,-28.11983,-26.16387,-26.12387,-24.9305,-24.66981,-23.56293,-23.71492,-23.00958,-23.9233,-22.64946,-23.50544,-23.13199,-24.71443,-23.95457,-24.07396,-24.1916,-23.88515,-24.93513,-24.54531,-24.77828,-24.42256,-24.63265,-25.36053,-24.84707,-24.73384,-24.51668,-24.19975,-24.70312,-24.27386,-24.41651,-23.33816,-22.79594,-23.29577,-22.35326,-21.94522,-20.94186,-20.43917,-19.99923,-19.86754,-18.69155,-18.03733,-17.14502,-17.53771,-16.28166,-16.23725,-14.6242,-14.73983,-14.28748,-13.86661,-13.09911,-12.49044,-12.4808,-11.7954,-12.51097,-11.2921,-11.78625,-10.93558,-11.50821,-10.29552,-11.29016,-9.548337,-9.675967,-9.776131,-9.770043,-9.817972,-8.498269,-8.449766,-8.322572,-8.911084,-8.510203,-8.137355,-7.58258,-8.21374,-7.907529,-7.463345,-6.602573,-6.927413,-6.447968,-7.030472,-6.725269,-6.49571,-7.435,-6.812484,-8.352613,-7.368532,-8.353303,-7.447889,-7.998603,-7.422879,-7.967963,-7.111526,-7.065824,-6.968371,-6.942122,-6.667851,-6.468929,-6.520207,-7.042952,-7.571956,-7.819988,-7.925038,-8.090294,-8.724401,-9.254632,-9.786121,-10.128,-10.27514,-11.28349,-11.41574,-12.06246,-12.67816,-12.44955,-13.94726,-13.97039,-14.51809,-14.72824,-13.87004,-15.71452,-15.43974,-16.86192,-17.43208,-17.99608,-19.04442,-19.77538,-21.70727,-21.92731,-23.75778,-25.0915,-26.62702,-27.94115,-29.08027,-30.54668,-31.73716,-33.13823,-34.61036,-35.38617,-36.55904,-37.41632,-38.86657,-39.73803,-40.20313,-41.13814,-42.36417,-42.6009,-44.29301,-44.45,-45.40409,-46.10344,-47.77983,-48.34207,-50.20063,-50.65878,-51.88324,-53.34675,-54.89319,-55.84436,-57.01762,-58.64495,-59.85064,-61.31907,-62.38369,-63.34691,-64.02753,-65.19092,-65.66932,-66.19554,-65.53517,-65.84017,-65.32694,-65.55601,-63.905,-63.35277,-61.91085,-61.39496,-59.24375,-57.98972,-55.41276,-53.58795,-50.8568,-48.89833,-45.89568,-43.17672,-41.10577,-36.931,-35.14222,-30.91639,-28.4402,-24.19923,-21.69938,-18.07761,-13.93097,-10.80637,-5.554191,-3.134073,1.397044,4.75578,10.01035,13.00172,17.56454,19.94093,24.94448,27.81751,32.06625,35.25861,38.53486,41.7914,44.89753,47.68008,50.58807,53.26536,55.87906,58.44506,61.34089,62.86612,65.30612,66.77666,69.12155,70.32328,72.90028,72.71126,74.71112,75.38952,77.1396,77.16881,78.19355,78.25535,79.2927,78.40305,79.44872,77.85269,78.45282,77.30228,77.96562,75.71039,75.28629,73.79016,72.9843,72.21079,70.98258,70.01723,69.02911,68.52808,68.16472,67.92866,67.63991,67.72905,68.12525,69.24483,69.24373,70.4209,70.76435,72.3486,73.31278,74.52698,75.58927,76.73823,78.01349,78.97663,79.46182,80.51715,80.0102,81.44618,80.8897,81.20405,79.97833,79.89709,78.5528,77.72402,76.88749,75.10164,73.54569,71.42895,69.96522,67.65414,65.24846,62.38095,60.94504,57.98507,55.20995,51.82851,48.30201,45.52907,41.83638,38.37099,34.69105,30.48252,27.78338,23.65494,20.07833,14.86592,12.1978,7.072157,4.556594,0.6292035,-3.770422,-7.135614,-11.45075,-14.27447,-17.98543,-20.87863,-24.00278,-27.70078,-29.75492,-32.86795,-34.3128,-37.85523,-38.74114,-41.50953,-42.17338,-44.95624,-45.96171,-47.61763,-48.1579,-49.22848,-50.5225,-51.38106,-51.4866,-51.68395,-51.19657,-51.88333,-51.13909,-51.05739,-49.77498,-49.67402,-48.27187,-47.61073,-46.39316,-44.8333,-42.9975,-41.86391,-39.93132,-37.91394,-35.88963,-33.76701,-31.36991,-29.82562,-27.49459,-25.05284,-22.85715,-21.04712,-19.05086,-17.61167,-14.7439,-14.56252,-11.84203,-11.24211,-9.031475,-8.086071,-6.643701,-5.917267,-4.436798,-3.403008,-1.867668,-0.7151704,0.4310575,1.396997,2.516572,3.648439,4.60772,6.317052,6.515951,7.826877,8.868513,9.837469,10.70773,10.43861,11.15436,11.42077,12.37004,12.49025,12.39528,13.12124,13.24646,13.86188,13.15315,14.02392,13.06298,13.79567,13.52265,12.81096,12.33154,11.29159,10.88534,9.980476,9.511824,8.085189,7.753631,6.203441,5.289526,4.0652,2.343409,1.460336,-0.2857958,-0.5439433,-2.508162,-3.339709,-5.191132,-6.020779,-7.208553,-8.098936,-8.921091,-10.69903,-10.424,-12.54757,-12.47017,-14.24843,-14.22886,-14.95387,-14.30645,-15.92977,-15.18334,-16.05192,-15.29256,-14.93904,-14.5296,-14.75805,-14.04673,-13.9424,-12.85987,-12.93694,-12.43496,-12.10019,-11.59939,-10.97787,-10.91838,-10.04174,-10.19406,-9.329804,-9.367042,-8.935394,-9.038728,-8.668545,-8.874327,-8.35962,-8.368672,-8.191149,-8.988868,-8.624365,-7.998723,-8.469771,-8.573962,-9.236268,-10.09448,-9.848446,-10.7551,-11.37361,-11.7625,-12.78108,-13.45785,-14.39204,-16.27599,-16.88935,-18.24658,-19.45152,-20.24362,-21.7917,-23.40332,-24.69667,-26.08952,-26.47761,-27.85916,-29.32458,-30.47333,-31.74937,-32.82774,-33.90587,-35.25138,-36.42198,-37.12996,-37.7252,-39.58465,-40.69885,-41.77009,-43.17754,-43.76572,-45.18307,-45.87978,-46.86846,-46.48564,-47.77117,-47.78676,-48.55929,-49.29657,-49.25823,-49.60971,-49.70723,-50.22826,-50.57998,-50.79321,-51.1454,-50.96609,-51.7417,-50.99068,-51.27373,-49.78728,-50.19589,-49.37521,-48.68797,-48.79403,-47.61696,-47.47649,-47.10709,-46.85476,-46.63309,-46.57498,-47.04075,-47.3226,-47.87824,-48.23263,-48.84395,-49.91066,-50.46344,-51.9412,-52.413,-53.30241,-53.54474,-54.36142,-54.81973,-55.61242,-56.05937,-55.57091,-56.52095,-55.99309,-55.68012,-55.29055,-54.61748,-54.6862,-53.40797,-53.12531,-51.47487,-50.93003,-48.96162,-48.93382,-46.38337,-44.59455,-42.33973,-40.52632,-38.31269,-35.81148,-33.00972,-29.79302,-27.08862,-24.33587,-20.67306,-17.02918,-13.44993,-10.32662,-6.687887,-2.408327,0.80939,5.218806,8.50942,12.56024,16.80574,21.06093,25.18413,29.4595,32.34245,36.95728,40.71064,44.6111,48.88304,51.58941,56.44231,58.99065,64.30118,65.57913,70.41644,72.39978,76.93162,78.64749,81.86326,83.83193,86.43853,88.78283,90.85334,92.49014,93.69691,94.96389,96.49652,96.68831,97.52175,97.79905,97.80503,98.10024,97.75877,97.65939,96.6412,96.33601,94.54078,94.47633,92.3991,91.19404,89.79032,88.36404,87.45591,85.96094,84.50634,83.86822,83.52007,83.91235,83.47246,83.4983,83.49477,84.95038,85.35997,86.09217,86.76838,86.96319,88.34145,89.04508,89.35932,90.1185,89.5808,90.29482,90.04823,90.0067,89.48047,89.89887,88.82173,88.77898,88.36023,86.62386,86.27288,84.50203,84.5026,82.18074,80.32983,78.35614,76.78196,74.81584,72.22475,69.74111,67.56507,64.29946,62.15452,58.44835,55.7603,52.05128,49.40202,45.3431,42.89126,37.64514,36.43323,30.99663,28.75331,24.67439,20.69343,17.28224,13.29123,10.12193,5.788144,1.820742,-2.365571,-5.891257,-9.698173,-13.42618,-17.19576,-20.54088,-23.73652,-26.53702,-29.52412,-32.06404,-35.05464,-36.76499,-39.38905,-40.70542,-44.13799,-44.45442,-47.20208,-47.53066,-49.21204,-49.61374,-50.17827,-51.28596,-49.90711,-51.59419,-49.29499,-50.45218,-48.63804,-48.37035,-46.71904,-46.29477,-44.61017,-43.93394,-42.37367,-41.1763,-40.1061,-39.30494,-37.08259,-36.2324,-34.5177,-33.7149,-32.79791,-31.65968,-30.96853,-29.82353,-29.93712,-29.60537,-29.53413,-29.65689,-29.15714,-30.17086,-30.24867,-31.15629,-29.9257,-31.11526,-30.14374,-31.88085,-30.75723,-31.99517,-31.69932,-33.52134,-33.53779,-34.55534,-35.38912,-36.41878,-37.17491,-38.23964,-38.92341,-39.54275,-40.33524,-41.02302,-42.07023,-42.25948,-42.59384,-43.3059,-43.23012,-43.92541,-44.97789,-45.15956,-45.69633,-46.25411,-46.51924,-47.43996,-46.70183,-47.72699,-46.67131,-47.42189,-47.0798,-46.41268,-46.40312,-44.75874,-45.43084,-44.59477,-43.97828,-42.8314,-42.08201,-41.68425,-41.42347,-40.11328,-38.60582,-37.97763,-35.97976,-35.99157,-33.57303,-32.85387,-31.53665,-29.59426,-29.02152,-27.78602,-26.59232,-25.34762,-23.79832,-23.08515,-21.45937,-20.79319,-19.01829,-18.39986,-17.18345,-16.58652,-15.24564,-14.33004,-14.07418,-13.34672,-13.49801,-12.3813,-12.82639,-11.65993,-12.72591,-11.5381,-11.72806,-11.45431,-11.87154,-12.00964,-12.16858,-12.16342,-11.70401,-12.39594,-12.03962,-12.84216,-12.26892,-13.03436,-12.8485,-14.4048,-14.02588,-14.4437,-14.48489,-14.67469,-14.66869,-15.07068,-14.66292,-15.24832,-14.81683,-15.43791,-15.34661,-14.81735,-14.52842,-14.94998,-13.6517,-14.41615,-12.3943,-13.2839,-10.23176,-10.3289,-7.418985,-7.632131,-4.873512,-5.16456,-3.052244,-3.502248,-1.838058,-2.144233,-1.398152,-2.005907,-2.393667,-2.002988,-2.277387,-2.764392,-2.769056,-3.872586,-3.655897,-4.276616,-4.59902,-5.512627,-5.97061,-6.680609,-6.303863,-7.320549,-7.762799,-7.837207,-8.171145,-7.393991,-7.688395,-7.852973,-7.681382,-7.038151,-6.127225,-5.95317,-5.357744,-4.306681,-3.839158,-2.27583,-2.308914,-0.6129961,-0.3591916,1.073454,2.224469,3.034168,5.108187,6.584611,8.720029,10.72185,12.48759,14.68351,16.01242,19.15177,21.10831,24.33242,25.5191,28.11251,30.89704,34.06198,36.32005,38.77269,40.63493,43.79196,46.213,48.53947,50.67185,52.88011,55.50468,57.86096,59.132,61.63276,63.10143,65.00505,66.95518,68.41835,69.56309,70.74067,71.94608,72.26238,73.44953,72.98991,73.82019,73.59446,74.23541,73.38314,73.42871,71.10164,72.07357,69.52341,69.53189,67.29348,65.96184,64.78539,63.43313,62.21991,59.9365,58.61605,56.41022,55.4101,53.56684,51.96766,50.16372,49.86452,48.03984,47.53166,46.74074,44.90048,45.36872,44.14026,45.05269,43.25087,43.29938,41.86412,41.62201,40.43187,39.37093,37.30229,36.09602,34.04306,32.66981,30.14407,27.91844,26.1957,24.05925,22.4904,19.77854,17.02428,14.97578,12.68234,10.49702,7.569879,4.820837,2.466768,0.2600405,-2.781472,-4.934135,-7.707975,-10.72793,-12.55723,-15.63619,-18.13971,-21.09395,-22.97446,-26.05482,-27.25531,-30.80824,-32.16783,-34.89112,-36.63945,-38.46957,-41.26871,-42.61201,-45.70092,-46.05541,-48.94409,-49.02545,-52.66081,-52.64321,-55.39414,-55.55275,-57.95829,-58.88595,-60.42014,-61.1365,-61.58755,-62.55157,-63.72957,-63.75995,-64.496,-64.45994,-65.0587,-65.74479,-64.51401,-65.34689,-63.64527,-63.97949,-62.68478,-62.33981,-60.6706,-59.80209,-57.65006,-57.24617,-55.52042,-53.7223,-52.16039,-50.39717,-48.83911,-47.9159,-45.53899,-43.88116,-41.88262,-40.51911,-39.25266,-37.20403,-35.9878,-33.6287,-33.37576,-30.67698,-30.32916,-27.63197,-27.02979,-25.4716,-24.00388,-22.79983,-21.2473,-20.07021,-18.43112,-17.9826,-15.76378,-15.1797,-12.87324,-12.48391,-10.58533,-10.37876,-8.559827,-8.011011,-7.047805,-6.620226,-5.963944,-4.70467,-4.285494,-3.605808,-3.803869,-2.846604,-2.298265,-2.300877,-2.155718,-2.122339,-1.536983,-1.829167,-1.306928,-1.853006,-0.3432245,-1.482415,-0.5217438,-1.13784,-0.3936407,-1.717632,-0.9893775,-1.238586,-1.072585,-0.9216592,-0.9168207,-0.8855576,-0.126293,0.4800504,0.8268211,0.6911454,1.832743,2.663547,3.544611,4.156591,5.525499,6.107139,8.84224,9.340869,11.96904,12.36196,14.02572,15.54706,16.87791,18.7387,19.09335,21.58513,22.99492,25.2002,26.56743,28.76049,30.10216,32.72518,34.17286,36.81422,37.9883,40.40256,42.6047,44.63131,46.61612,48.45328,49.9663,51.93894,53.94022,55.46729,56.68007,57.46597,59.47036,60.20364,61.56301,61.89921,63.19263,63.07236,64.22301,64.07058,63.97218,63.908,63.37276,63.34367,62.72498,61.17784,60.75129,58.92201,58.3821,56.58455,54.96749,52.71183,51.49311,49.27436,47.18231,44.20474,41.14508,38.94859,36.05455,33.19811,29.40647,26.35193,23.01793,20.36891,16.65696,13.02257,9.484853,6.317151,3.355667,-0.4358389,-3.786072,-7.599951,-10.54406,-13.66875,-16.65759,-20.29273,-23.18978,-26.34219,-28.41695,-31.45867,-34.76413,-36.89942,-39.50606,-40.85681,-43.17744,-45.72564,-47.6908,-49.777,-50.67631,-52.52321,-53.43553,-57.13423,-56.56719,-59.42121,-59.23062,-62.03844,-61.55823,-63.47338,-62.64237,-63.9762,-64.152,-65.39398,-65.60093,-66.18093,-66.31654,-66.98467,-67.57956,-68.08522,-68.29376,-68.86054,-69.16062,-70.54716,-70.42294,-71.89338,-71.73904,-73.11919,-74.32077,-74.98407,-75.26975,-76.49431,-76.56974,-77.62361,-76.70098,-77.22758,-76.33715,-76.7651,-76.21773,-76.17467,-74.7907,-74.03176,-72.98079,-72.61603,-70.16143,-68.62601,-66.98296,-65.11481,-63.66619,-61.41617,-58.35131,-56.08858,-53.20074,-50.94009,-47.38962,-44.06822,-40.92924,-37.16656,-34.31847,-31.11793,-26.61446,-23.04344,-19.18255,-15.50414,-12.1414,-7.334251,-3.357797,0.4660403,4.106909,8.460503,12.0949,16.92978,19.71953,23.97591,27.00029,30.94416,34.07243,37.41351,40.13631,43.75801,46.33914,50.10966,52.24546,55.01713,56.89852,59.96945,61.78634,64.57245,65.74484,68.2251,69.17975,71.19691,71.73007,72.7186,72.88753,73.81657,74.32063,73.83147,73.65531,73.19069,73.19694,72.50655,71.79474,70.96618,70.05575,69.24489,67.62341,66.74193,64.73819,63.33378,61.47529,60.86486,58.54107,56.79549,55.49055,53.21464,53.35572,50.93973,49.90806,48.24149,47.86356,45.93769,45.40756,43.07478,41.89487,41.08953,39.93751,38.54563,36.43567,34.96772,33.20175,31.98399,30.07035,28.3485,26.29441,24.79809,24.25095,21.97525,19.74614,18.22136,16.2545,14.6773,13.61103,11.42843,10.10598,8.120239,6.801994,5.644507,4.235292,2.014141,1.084809,-0.2458108,-1.532216,-3.285882,-4.169875,-5.561081,-6.712369,-6.917534,-8.841783,-9.09767,-9.868075,-10.08583,-10.5094,-11.4969,-11.47955,-12.27651,-12.19544,-11.589,-12.90454,-11.69101,-12.06761,-10.83063,-10.72351,-10.7837,-10.73927,-10.21408,-8.982683,-9.025779,-8.011838,-7.834444,-7.003816,-5.291298,-4.555115,-3.408363,-3.119882,-1.436145,-0.7927156,1.931282,2.008036,4.485304,5.332662,7.621313,8.699912,10.31777,11.26474,13.64242,15.03731,16.88646,18.26074,18.83378,20.41072,21.84842,22.99253,24.25774,24.8949,26.19491,27.16958,28.59157,29.40345,29.68597,30.87421,31.8535,33.14485,33.53099,34.45053,34.8059,35.85193,36.29235,36.11017,36.43207,36.25463,36.5227,36.20001,36.64454,35.4391,35.1503,34.31303,34.3635,32.87613,32.43534,30.46003,29.35541,28.29575,25.79417,23.87298,22.15603,19.46863,17.83179,15.49191,12.60847,10.46201,7.831218,5.9384,3.33268,0.5029758,-2.068347,-4.085749,-6.959277,-9.393378,-13.00785,-14.52119,-18.31157,-19.63684,-23.17848,-25.77374,-28.57651,-31.39828,-33.2078,-36.6213,-40.06437,-42.10627,-45.49133,-46.95037,-50.57268,-51.74924,-55.41214,-56.98019,-59.46302,-61.29814,-63.94436,-66.36421,-68.40445,-69.95115,-71.94904,-74.03156,-75.91457,-77.76887,-78.21837,-80.13307,-80.36319,-82.49693,-82.65793,-83.41749,-83.91302,-83.54289,-84.03746,-82.39171,-82.66998,-80.33058,-81.31415,-78.86706,-78.88648,-76.80032,-76.02571,-74.50511,-73.22437,-71.61811,-69.6329,-67.88038,-66.57921,-65.06335,-63.65628,-61.12779,-59.30403,-57.59459,-55.84041,-53.87269,-51.50758,-49.25337,-48.2596,-45.1069,-44.47993,-40.64795,-39.49761,-36.39354,-34.93379,-31.67835,-28.89291,-25.77536,-22.96577,-20.19839,-17.4779,-13.69967,-10.83671,-7.17452,-4.849772,-0.9224046,2.272473,5.809378,9.14737,12.45729,15.71558,19.94806,23.38695,25.70235,29.2508,31.86263,36.00446,37.87667,40.90182,42.57122,45.12433,47.58992,49.52702,50.9859,52.79674,54.2826,56.58661,57.29353,58.02491,58.89894,58.8617,60.33269,60.03509,60.67615,59.66134,59.63314,59.15408,58.79069,58.20271,57.51528,55.3287,56.15019,53.30842,53.39908,50.27552,49.61643,47.86751,46.64755,44.33273,42.91405,40.15077,39.79813,37.08236,36.21644,32.89169,31.3965,29.36382,27.92042,26.06898,23.2842,21.85184,20.15086,18.77127,16.46239,14.99071,12.89499,13.30341,11.5743,10.7502,9.897635,9.23654,9.870715,9.599814,10.49103,9.37688,10.87612,10.12631,11.49233,10.87428,11.63535,11.25401,12.27733,12.56525,13.32064,12.48102,13.25024,13.0354,14.29292,13.43484,14.15537,13.11415,14.28684,14.13962,14.39276,13.93257,14.05336,13.64622,13.99815,14.17207,14.02892,12.90712,13.68419,12.7368,13.29381,11.95135,11.77158,10.84458,10.47845,9.262822,7.363213,6.055692,5.589611,4.1195,2.819598,1.080145,-0.2149713,-1.541448,-2.780905,-3.783488,-5.450212,-7.061733,-8.219849,-9.596839,-10.65149,-11.94764,-13.74114,-15.12543,-15.91856,-16.99777,-18.49737,-19.61923,-20.13888,-20.97443,-21.70392,-22.57589,-23.43696,-24.39421,-24.713,-25.15331,-26.12093,-26.44875,-27.01726,-26.28335,-26.85773,-26.58602,-27.14463,-26.10423,-26.08538,-25.17022,-25.88035,-25.48669,-25.19333,-25.81016,-23.78155,-25.66283,-23.78673,-25.07583,-23.55224,-24.62254,-23.48975,-24.84204,-23.95165,-24.55902,-23.89719,-23.89557,-24.20667,-23.43623,-23.08752,-22.76708,-22.74729,-22.27741,-21.32514,-21.00092,-19.8988,-19.35766,-18.58058,-18.07754,-16.7731,-15.85165,-13.98864,-13.83495,-11.95919,-11.16513,-8.993663,-8.778376,-7.272052,-6.422107,-4.648389,-3.309534,-2.22553,-0.7877075,-0.5300352,1.587099,2.700167,3.411485,4.804466,5.21086,6.913102,7.790481,8.860389,9.070506,10.70867,11.81559,13.08136,13.87121,14.95281,15.44315,17.75454,18.63569,19.34212,19.92897,20.96416,21.97114,23.4945,23.70518,24.53296,24.3249,25.86104,25.74166,26.59485,26.55678,27.26752,27.85031,28.51587,29.18329,29.03092,29.69195,30.0557,31.05174,31.04985,31.02035,30.73304,31.07227,31.43502,30.53501,30.57916,29.43456,30.55831,29.24477,29.50844,28.6184,28.14641,27.50314,27.31718,26.67122,26.28573,24.87803,24.81534,23.63097,23.44373,22.80081,21.66261,21.68103,20.61381,20.30109,18.86685,18.19635,16.73416,16.65208,14.74084,14.29414,12.45774,11.72299,11.05232,9.640812,8.669576,6.668526,6.139741,4.843503,4.282719,2.564455,2.019411,0.948675,1.148862,0.4943994,-0.1391493,-0.8714372,-0.8213633,-1.057062,-0.0357747,-1.212789,-0.904518,-1.515319,-0.5830853,-1.311153,-1.220639,-1.763861,-0.7504863,-0.787603,-0.5211042,-0.8543587,-0.8500776,-1.032922,-0.2922943,-0.6600113,-0.6632557,-0.6113458,-0.6340577,-0.4350516,-0.1593726,-0.2692844,-1.113066,-0.4121136,-0.3533885,-0.317331,-0.5498885,-0.6926746,-1.228542,-0.8196503,-0.9635551,-1.611498,-2.194619,-3.035787,-2.879331,-3.472902,-4.097522,-5.536819,-5.769931,-7.331084,-7.42299,-9.289207,-10.64597,-11.90777,-12.51089,-14.46331,-15.06087,-18.0839,-18.33989,-20.54335,-20.62199,-23.55531,-23.88621,-25.60707,-26.65348,-27.89461,-29.2617,-31.13725,-32.35259,-33.43974,-35.12684,-35.77867,-37.60426,-38.71536,-39.63977,-40.24676,-40.91228,-42.24886,-42.49175,-43.10352,-43.04902,-43.56821,-43.97986,-44.40285,-44.19018,-43.88601,-44.1531,-44.3425,-43.98566,-43.46398,-42.31836,-41.84607,-42.09655,-40.81847,-40.15504,-38.56492,-37.4151,-36.99256,-35.90251,-34.26266,-32.63195,-30.95124,-30.38837,-28.75253,-26.97294,-24.93774,-22.96764,-22.00891,-19.41758,-18.10888,-15.34378,-14.16278,-12.19492,-10.64802,-7.722482,-6.451788,-3.581354,-2.62988,-0.1930082,1.346528,4.364491,5.260761,7.086015,8.569634,10.5485,12.35491,14.48984,15.65413,17.28716,18.527,20.2786,21.51844,22.57367,23.41515,25.20313,26.54971,28.31002,28.85399,31.01025,31.21552,34.03908,34.06925,35.1482,35.99559,37.35482,38.38124,39.33423,40.43275,40.44169,42.07005,43.65407,43.70984,45.09064,45.92969,47.29067,48.7624,50.18894,50.83909,52.67559,53.74365,56.07156,56.93079,58.97238,59.59152,61.69638,62.27644,63.88151,63.57703,64.64106,65.07829,66.00541,66.00407,66.62817,65.14286,65.59295,64.88051,64.68236,62.8861,62.12971,60.67437,59.56557,58.35929,55.65493,53.55404,51.043,49.44279,45.87495,43.87011,39.75134,37.41396,33.18942,30.34306,25.74683,21.92521,17.3783,14.13382,9.752202,5.06758,0.8070584,-3.808267,-7.699465,-11.8549,-16.93564,-21.09001,-25.9297,-29.12142,-33.56078,-37.73452,-42.32698,-46.08851,-49.72599,-53.17845,-57.20962,-60.59467,-63.77739,-66.20386,-68.63519,-71.96396,-74.02947,-76.81536,-77.36094,-79.42721,-80.35408,-82.67264,-83.36925,-85.34246,-85.25677,-87.4074,-88.47125,-90.25047,-90.78954,-92.84088,-93.52507,-95.42707,-96.38106,-97.38065,-97.87593,-99.65598,-100.4228,-101.6942,-101.3849,-101.8007,-101.6992,-102.1083,-101.0736,-100.9596,-99.63012,-99.42406,-98.3789,-98.43521,-96.56007,-95.47967,-94.43334,-92.92433,-92.08368,-89.34941,-87.92217,-84.85942,-83.95351,-80.40979,-77.69856,-74.35818,-70.74182,-67.17497,-63.53293,-58.48989,-53.87844,-49.35351,-44.91668,-40.95104,-34.84091,-30.00473,-24.39299,-20.15822,-14.86969,-9.74472,-4.696428,0.9778727,5.156873,10.59773,15.21532,20.56426,24.99229,29.32353,33.38087,38.0654,42.30704,46.17389,49.09893,52.65629,55.55927,59.2486,61.76408,63.95321,66.14434,68.36192,70.253,72.04607,72.61846,73.91813,73.89091,74.8439,74.86269,74.0659,73.56432,73.2556,72.70341,71.50231,70.35149,68.12096,67.00129,65.60297,63.26631,61.77347,59.61222,58.33233,57.01913,54.75367,52.60991,51.19542,49.28039,48.8084,46.97315,46.3562,45.33618,44.78682,44.51065,44.22706,43.98542,43.96319,43.87903,44.36237,44.42127,44.16111,44.05644,44.19527,44.1853,44.69946,43.51797,43.20932,42.88986,42.76299,42.69243,41.75278,41.09309,41.04114,40.59339,40.24776,40.09042,39.14154,39.08202,38.58574,38.49593,37.48949,36.85956,35.61556,35.67164,34.67863,33.78847,32.42371,31.31302,31.03558,29.28895,28.90389,27.1325,26.55268,25.23629,24.83873,23.13869,22.36305,21.39984,21.09219,20.48063,20.30225,18.67304,18.56697,17.60398,17.30714,16.20184,16.20595,16.27364,15.90966,16.60546,15.39538,15.78907,15.44976,15.55373,16.78179,16.2085,16.85106,16.47745,18.17062,18.25975,18.76636,18.79995,20.17094,20.26486,22.21114,21.30285,23.19924,22.43992,24.14353,24.40047,24.86825,25.42182,25.33673,26.85319,27.18898,28.12742,27.9883,28.14732,29.06255,30.60217,30.61637,32.13434,32.01353,34.3791,34.65314,35.41734,36.02773,36.61682,37.60219,38.68284,39.83283,39.59772,40.83345,40.4839,41.54602,41.55098,41.06282,39.84849,40.99385,40.02565,39.83776,38.23164,36.87307,36.27165,35.50036,34.14998,32.2844,30.55588,29.42414,27.74752,25.02935,23.26334,20.05988,18.45091,15.82541,12.77762,9.954616,6.34615,4.440551,0.7856608,-1.320028,-5.187067,-8.088554,-11.17482,-14.13722,-17.2828,-21.55021,-24.9781,-28.33089,-31.47115,-35.2552,-38.79175,-42.82501,-45.50226,-49.79365,-52.01824,-57.2562,-59.29875,-63.56814,-65.06265,-68.07309,-70.93826,-74.10431,-76.29126,-78.36284,-80.76688,-83.08252,-86.04293,-86.73776,-89.18617,-90.63112,-93.799,-95.39593,-97.65166,-98.39187,-99.19293,-100.7171,-103.3848,-103.8818,-105.6874,-106.2822,-107.2791,-109.4439,-109.0353,-109.748,-110.1108,-111.0907,-111.8567,-111.2644,-112.3168,-110.7465,-112.0257,-111.2706,-111.3539,-110.3287,-110.791,-109.0148,-110.6473,-107.3205,-108.2343,-105.0637,-105.4562,-103.3616,-102.5795,-99.56437,-98.35193,-95.32748,-93.89709,-90.09077,-87.09457,-84.19463,-80.97914,-77.75937,-74.59326,-70.70108,-67.38049,-62.4387,-60.34159,-54.83578,-51.80326,-46.8283,-43.65894,-39.52269,-35.93509,-31.71877,-27.66485,-24.98167,-20.51768,-17.309,-12.85836,-9.776797,-5.64567,-2.856747,0.9598816,5.19639,7.863029,11.64522,13.71992,16.96186,19.58953,22.08211,24.7488,25.80097,29.37896,29.70987,33.25136,33.92803,35.80211,37.80777,37.39818,40.16809,39.10053,40.59652,39.87319,41.36152,40.69226,41.34003,40.07069,40.65568,39.84205,39.77128,39.85971,38.28571,38.09275,37.35936,38.49241,36.69001,38.37224,36.26602,38.72655,37.62598,38.413,38.11166,37.75651,38.69941,38.31108,39.61661,38.37475,39.98692,38.48571,40.2887,39.65378,40.38712,40.17535,40.9566,41.49546,41.02063,40.6906,41.64057,40.66982,42.47476,41.7218,40.99368,41.6935,40.89627,41.7162,41.12705,41.40141,40.83647,41.2185,41.78014,40.7625,41.34806,40.40702,40.66095,41.11661,41.05985,40.11614,40.51096,39.27574,40.29483,38.65437,39.06956,37.56168,38.30957,37.4026,38.05212,36.58088,36.90617,35.73738,35.53086,35.65598,34.87178,33.83625,34.60329,33.69334,34.63392,32.35256,33.05995,31.44035,32.30439,31.51616,30.0935,30.24841,29.10381,30.04811,28.7036,28.41627,27.59905,27.76184,26.91358,27.03513,25.49961,25.53871,25.42253,24.71039,24.9452,23.77679,22.95895,22.94477,22.18557,22.81771,21.75182,22.0282,20.99088,21.67101,20.84466,21.58852,19.64292,19.87061,20.51653,20.50236,20.93903,19.79754,20.51702,19.51955,19.89491,18.36131,18.66214,16.48612,18.29176,16.61712,17.032,16.38315,16.24613,16.12808,15.74257,15.78842,14.07668,14.73038,13.95288,14.23078,13.57342,12.49373,12.53739,12.34617,12.44469,11.67623,11.86814,10.97893,12.19717,11.55867,12.05518,11.46826,11.8562,11.88025,12.60784,11.50659,12.30464,11.43144,12.62746,12.02498,12.00344,12.02954,11.75361,11.90324,12.2792,12.00634,11.27803,11.45215,11.1155,11.64203,10.72407,10.71693,10.01987,10.61474,9.705681,9.593296,8.402763,7.960421,6.667496,6.817914,5.222077,4.1229,2.926417,2.037461,1.139155,0.3244425,-1.571769,-2.96794,-3.943871,-5.318024,-6.73223,-8.183328,-9.667943,-11.18249,-12.72316,-14.28596,-15.86668,-17.46089,-19.06398,-20.67115,-22.27737,-23.87744,-25.46597,-27.03738,-28.58588,-30.10554,-31.59021,-33.03357,-34.42913,-35.77023,-37.05002,-38.2615,-39.39748,-40.45063,-41.41343,-42.27823,-43.0372,-43.68236,-44.20557,-44.59856,-44.85289,-44.95999,-44.91113,-44.69745,-44.30995,-43.73949,-42.9768,-42.01248,-40.83698,-39.44066,-37.81372,-35.94626,-33.82825,-31.44955,-28.79989,-25.86891,-22.64612,-19.12093,-15.28264,-11.12045,-6.623474,-1.780699,3.418967,8.986712
