ConstAcc,0.5,0.085216,-173.408,-138.9841,-108.6359,-82.08556,-59.06664,-39.3235,-22.61124,-8.695498,2.647788,11.63258,18.46293,23.33322,26.42833,27.92388,27.98641,26.7736,24.43447,21.10961,16.93136,12.02401,6.504041,0.4803091,-5.945746,-12.67989,-19.63488,-26.73029,-33.89225,-41.05328,-48.15208,-55.13332,-61.9474,-68.55029,-74.90331,-80.97291,-86.73046,-92.15208,-97.21838,-101.9143,-106.2288,-110.155,-113.6893,-116.8319,-119.5862,-121.9586,-123.9583,-125.5975,-126.8904,-127.8537,-128.5062,-128.8682,-128.9619,-128.8109,-128.44,-127.8747,-127.1417,-126.2682,-124.8206,-119.6606,-118.952,-121.9685,-124.3272,-126.4903,-129.2676,-132.9952,-137.2124,-141.5603,-145.8064,-149.7181,-153.5055,-157.0189,-160.2428,-163.0644,-165.4192,-167.1702,-168.3224,-168.4353,-167.3284,-164.809,-160.9709,-155.9247,-149.8616,-142.8548,-134.9958,-126.5679,-117.7664,-108.7202,-99.63948,-90.49317,-81.42582,-72.84201,-64.83763,-57.40335,-50.43517,-43.92813,-38.01334,-32.763,-28.21089,-24.10343,-20.37526,-16.4592,-12.08776,-7.25591,-1.89568,3.833077,9.697641,15.36749,20.49022,24.84845,28.358,31.02474,32.77777,33.6186,33.65862,33.13233,32.20091,30.84617,29.17328,27.24227,25.33816,23.44568,21.45033,19.3357,17.13899,14.96932,12.66099,10.20532,7.52835,4.331193,0.7771886,-2.947878,-6.874875,-10.84599,-14.75705,-18.533,-22.1062,-25.46335,-28.68833,-31.66562,-34.34582,-36.6324,-38.53637,-40.13134,-41.35843,-42.20399,-42.44581,-42.21638,-41.66252,-40.75684,-39.38443,-37.4274,-34.89853,-31.82696,-28.26347,-23.97553,-18.78969,-12.47437,-4.889763,4.234104,14.56783,25.56157,36.50063,46.93649,56.65112,65.59797,73.72353,80.93124,87.17166,92.5986,97.42807,101.7943,105.6366,108.9253,111.6946,114.0849,116.1918,117.806,118.7272,119.0377,118.8987,118.3256,117.3351,115.895,114.1156,112.4061,110.9257,109.7207,108.7113,107.9839,107.5845,107.544,107.8,108.1735,108.5478,109.0226,109.6449,110.1726,110.5283,110.8381,111.0543,111.3829,111.9367,112.8946,114.2283,116.0801,118.5817,121.8076,125.6331,130.1724,135.4193,141.8671,148.9566,156.1862,163.4535,170.4898,177.1558,182.9792,187.4113,190.3927,192.527,194.6788,196.93,199.4184,202.1233,205.2252,208.7799,212.4756,216.2052,219.6746,223.1254,226.0181,227.9918,229.7791,231.5301,233.4183,235.3826,237.1143,237.382,236.7744,236.0287,235.436,235.0862,234.906,234.6761,234.2964,233.8684,233.2665,232.392,231.1324,229.576,227.8161,225.8102,223.4602,220.9397,218.3919,216.0609,213.7177,211.2083,208.6536,206.1238,203.7179,201.4221,199.1403,196.8561,194.6274,192.2037,189.8467,187.567,185.0225,182.0608,178.6706,175.0796,171.2122,167.1432,163.0764,159.2145,155.664,152.1058,148.6221,145.0197,141.3194,137.5396,133.5477,129.3901,125.2597,121.3347,117.5456,113.7945,109.9615,105.9231,101.7717,97.45968,92.84839,88.09312,83.21039,78.38041,73.74442,69.38182,65.03945,60.93436,57.15982,53.66002,50.16288,46.56608,42.58431,38.47019,34.25131,30.29402,26.62008,23.16875,20.01314,17.25012,14.70843,12.16088,9.759657,7.781312,6.118632,4.478772,2.766615,0.8314381,-1.121161,-3.325643,-5.819242,-8.472605,-11.31907,-14.26289,-17.34616,-20.51883,-23.50245,-25.76908,-27.35858,-29.04884,-30.91153,-32.70599,-34.39866,-35.7803,-37.00753,-38.10477,-39.43749,-40.91258,-42.60809,-44.10105,-45.02246,-46.02737,-47.25096,-48.86142,-50.96463,-53.36979,-55.02829,-56.49509,-57.80999,-58.84143,-59.91217,-61.05605,-62.54741,-64.35048,-65.611,-66.65219,-68.20146,-70.24663,-72.75441,-75.30551,-77.98463,-80.68959,-83.64514,-86.65549,-89.72838,-92.92993,-96.41478,-99.92583,-102.8669,-105.6947,-108.832,-112.6946,-117.3956,-122.5116,-127.1473,-131.3861,-135.4477,-139.4275,-143.2351,-146.7386,-149.7088,-152.3775,-155.3968,-158.6409,-162.0259,-165.6353,-169.3848,-173.5385,-177.656,-181.2657,-184.4284,-187.2299,-189.4693,-190.884,-191.3187,-191.4591,-191.7457,-192.3978,-192.9456,-193.4091,-193.5798,-193.6277,-193.7357,-193.5014,-192.7675,-191.5552,-190.2747,-188.74,-186.6794,-184.0129,-181.152,-178.619,-176.4525,-174.0285,-171.3517,-167.91,-164.1444,-160.1596,-156.0063,-151.3984,-146.4005,-141.2545,-136.01,-130.333,-124.253,-118.1404,-112.3026,-106.9998,-101.8079,-96.40908,-90.80135,-85.00928,-79.14301,-72.88778,-66.42344,-60.24131,-54.67079,-49.71806,-45.27871,-40.86689,-35.98144,-30.74476,-25.3568,-19.96632,-14.53388,-9.020544,-4.111997,0.1017252,3.591487,6.577941,9.269365,12.07909,14.88784,18.28867,22.59364,28.01511,34.35688,41.07273,47.4504,53.0741,57.97264,62.38145,66.15632,69.86738,74.16353,78.15911,81.607,84.59389,87.15099,89.7845,92.34199,94.95339,97.18926,99.02363,100.4876,102.3485,104.544,106.9449,109.0533,110.34,111.1817,111.6279,111.7369,111.6782,111.8927,112.3985,112.6417,112.1396,111.0322,109.7597,108.7301,107.538,105.9872,104.7334,104.1081,104.1391,104.6645,105.2844,105.9993,106.7304,107.646,108.5345,109.4899,110.0082,109.8354,108.8923,107.8073,106.5526,105.4882,104.481,103.6189,102.6556,101.3899,99.8417,98.0794,96.40737,94.64776,92.67783,90.35976,87.35142,83.82355,79.79732,75.39282,70.7251,65.96952,61.57329,57.37809,53.09226,48.3422,43.17861,38.40211,33.81023,29.09256,24.02124,18.53275,12.63003,6.489394,0.1863032,-6.182599,-12.56923,-18.68114,-24.64084,-30.2221,-35.71716,-41.51712,-47.37383,-53.33567,-59.91259,-66.93117,-74.20265,-81.54487,-88.83772,-96.18659,-104.0818,-112.0124,-119.8585,-127.6433,-135.6835,-143.6121,-150.7823,-156.8617,-161.7616,-165.6248,-168.4418,-170.2053,-171.1453,-171.7461,-172.993,-175.2567,-177.8239,-179.9715,-181.2361,-181.9279,-181.8034,-180.872,-179.2696,-177.1218,-174.9799,-173.0425,-171.1761,-169.1947,-166.7657,-165.5833,-162.845,-158.9307,-153.367,-147.1848,-140.6861,-135.6566,-132.2722,-128.7768,-124.5998,-120.6037,-117.4534,-114.6044,-112.5016,-110.3998,-107.8276,-104.9667,-102.2179,-99.52495,-96.98461,-94.97577,-93.20938,-91.65806,-90.10956,-88.72474,-87.43959,-86.73531,-86.6566,-86.23659,-85.58455,-84.98383,-84.85345,-84.67282,-83.77669,-82.28019,-80.70717,-79.51378,-78.81563,-77.89108,-76.594,-75.16305,-74.32172,-73.1694,-71.69697,-70.46236,-68.81182,-67.75109,-66.67298,-64.79893,-62.40228,-59.64029,-57.06064,-54.83124,-52.59302,-49.85761,-47.21099,-44.98056,-42.74567,-39.69745,-36.34203,-33.03211,-29.94706,-27.10904,-24.27279,-20.74756,-16.76824,-12.67865,-8.477809,-3.887539,0.96909,5.731194,10.26566,14.65097,18.92393,23.05189,26.85038,30.60465,34.09251,37.6212,41.24448,44.6789,47.92259,50.94849,53.96223,57.07007,59.87039,62.61305,64.52436,65.34279,65.55379,66.19984,67.44296,68.64654,69.81934,71.04599,71.91854,72.09696,71.59632,70.7296,70.44425,70.34254,69.90424,68.52169,66.41072,64.65838,63.07709,61.72182,60.378,59.25399,58.73142,58.62064,60.38794,61.38831,61.88597,61.91104,61.13687,59.03745,57.25834,57.05353,57.45837,57.51828,57.07895,56.66194,55.94639,55.65366,55.22461,53.8936,51.33919,48.30588,45.29867,42.58889,39.8092,36.33627,32.19578,27.85338,23.53706,18.58597,13.23352,7.772827,2.354861,-3.091985,-8.527982,-14.14288,-19.80826,-25.41114,-30.9482,-36.94475,-42.79276,-48.15467,-52.80921,-56.71469,-61.03739,-66.00262,-71.94302,-78.0727,-83.57816,-89.33362,-94.49678,-99.36578,-104.2325,-108.9042,-113.9134,-118.9826,-123.8804,-128.1522,-131.8699,-135.2621,-138.2433,-141.137,-143.5971,-145.8472,-148.5417,-150.8929,-152.3035,-152.5169,-151.9219,-151.0008,-150.0837,-149.1748,-147.8154,-145.8032,-142.8869,-139.5183,-136.1185,-132.3278,-128.358,-124.2393,-120.1728,-116.2249,-112.1927,-107.7501,-103.1523,-98.97559,-95.07385,-91.07267,-86.8489,-82.94138,-79.80187,-76.72186,-72.78019,-67.6772,-62.4988,-58.25419,-54.64028,-51.55439,-48.61151,-45.89245,-43.56997,-41.7574,-40.25868,-39.25717,-38.78537,-38.47941,-38.10502,-37.42848,-36.79956,-36.55019,-37.17027,-38.58295,-40.21997,-41.77163,-43.35541,-45.64179,-48.23462,-50.88252,-53.63014,-56.27872,-59.2062,-62.393,-65.87571,-69.48818,-73.11991,-76.6208,-80.55879,-84.43026,-87.6652,-90.97297,-94.72429,-98.75912,-102.8779,-106.7548,-110.9558,-115.2571,-119.6456,-123.13,-125.3875,-126.939,-128.6108,-130.8661,-133.296,-136.0608,-138.7619,-141.5489,-144.235,-146.653,-148.3365,-149.3753,-149.9912,-150.7137,-151.4217,-151.7682,-152.5848,-154.047,-155.4426,-156.4265,-156.6651,-156.4017,-155.798,-155.3035,-154.6719,-153.7896,-152.3371,-150.6959,-149.1503,-147.4469,-145.3408,-142.9305,-140.1816,-137.696,-135.0659,-132.108,-128.8962,-125.1891,-121.8052,-118.5938,-115.0579,-110.7665,-105.764,-100.3762,-94.32231,-87.57974,-80.3975,-72.95314,-65.82759,-58.82736,-51.70408,-44.32192,-36.92969,-30.08603,-23.39271,-16.44288,-9.020158,-1.416987,5.970876,12.70188,19.62039,26.01044,32.15313,36.98088,40.60654,43.50609,45.94925,48.16541,49.63869,50.50758,51.3434,52.1177,52.03125,51.07589,49.53503,47.74502,45.62832,42.44159,39.13711,35.79341,32.63401,29.4149,26.05896,22.38002,18.97606,15.63563,12.22379,8.784502,4.75227,0.06551907,-3.984492,-7.605192,-10.70788,-13.79407,-17.13154,-20.35034,-22.76276,-24.68483,-26.84829,-29.08089,-30.56552,-31.24424,-31.30761,-31.43929,-31.47629,-31.37476,-30.30408,-28.53289,-26.68719,-24.38541,-22.07576,-20.37439,-18.96514,-18.0852,-17.63781,-17.11721,-15.80804,-14.05263,-12.67224,-11.37392,-9.90994,-8.187274,-6.278912,-4.150702,-2.149052,-0.08245453,1.327461,2.304675,3.289887,4.351588,5.103569,6.189177,7.279562,8.052813,8.389059,8.435386,8.777234,8.715432,8.214104,7.105513,6.051028,4.866193,3.556168,1.496141,-1.189933,-4.137692,-7.339514,-10.54363,-13.45279,-15.93576,-17.74727,-18.55357,-18.95775,-19.28884,-19.54495,-19.89544,-19.88769,-19.43292,-18.75694,-17.86938,-16.85291,-15.2685,-12.75623,-9.972483,-7.128149,-3.728915,0.236475,4.487478,8.562752,11.46506,14.05591,16.7772,19.95518,22.67801,25.43871,28.23963,31.47866,34.93532,38.0403,40.77287,43.47595,46.18119,48.58654,50.97068,53.32504,55.41808,57.6928,60.2329,62.89451,64.26436,64.45465,64.39799,64.3706,64.69889,64.70103,63.72768,62.55099,61.86214,60.92207,60.44272,60.10385,59.68078,59.57838,59.07282,58.319,57.41396,57.01478,57.06671,56.55383,55.03585,53.73514,53.43052,53.82014,54.52991,55.07425,55.18672,55.82508,56.57621,57.66364,58.40487,58.90477,59.65373,60.94157,63.13101,65.28043,66.56817,67.39812,68.11146,68.91528,70.03534,70.92771,71.70152,72.48732,73.25065,73.42916,73.32579,72.90684,72.50393,72.32302,72.01043,71.21076,70.49371,69.63139,69.14458,68.60483,67.70427,66.7774,65.81327,65.06763,64.4155,63.36433,62.07522,61.1556,60.74041,60.54265,60.03866,59.21528,58.42991,58.19604,57.77171,57.00664,56.20251,55.76537,55.83899,55.4661,54.83766,54.19796,53.94954,54.09359,53.89569,53.30655,53.09678,53.20551,53.10502,52.27225,51.01784,49.80367,48.74957,47.77373,46.43932,45.40408,45.2047,45.19832,45.53296,45.42162,45.0049,45.08941,45.39291,47.1596,49.32874,50.61504,51.58048,52.99028,54.87767,56.82423,57.96959,58.80454,59.18773,59.11467,59.21406,59.02446,59.10738,59.34118,59.95654,60.12595,59.91653,59.56203,59.33736,59.45289,59.68856,59.80048,60.06538,60.18311,60.48493,60.96281,61.02658,60.93983,61.09499,61.13494,61.78358,63.66575,65.55675,67.60664,69.10163,70.21571,70.89621,71.50311,72.50502,73.63316,74.81443,76.04295,77.16046,78.33115,80.8249,81.75841,81.51368,81.19965,81.41596,82.1411,82.4951,82.24721,81.63105,80.85267,80.45187,79.99138,78.9811,77.21909,75.38043,74.14929,72.96979,71.4172,69.05905,67.03166,65.28309,63.81981,61.87898,59.48663,56.62509,54.70752,53.08164,50.94398,49.1969,47.42245,46.09853,45.02521,43.28854,41.31818,39.38375,38.23082,37.25992,36.29136,35.00391,33.74966,32.887,32.0632,31.55749,30.64656,30.06173,29.9285,29.81484,29.79945,29.37295,28.8834,28.48169,28.27783,28.26911,28.75632,28.92385,29.44112,30.48884,31.38826,32.10969,32.80104,34.02971,35.52286,37.23572,38.99554,40.28228,42.23765,43.0719,42.81849,42.94673,43.52057,44.27078,45.13116,45.56377,45.63344,45.28632,45.11415,45.05539,44.48798,43.38211,42.16004,41.19239,40.59514,39.62236,38.07246,36.60084,36.12265,35.72271,35.16692,34.28492,33.20844,32.73574,32.57461,32.24166,31.63573,30.86909,30.20134,30.05094,29.86226,28.74523,27.95124,26.72729,25.98016,25.07788,24.06754,22.99012,21.88039,21.17835,20.69759,19.75084,18.78918,18.29036,17.1537,16.31352,15.13597,13.7663,12.61862,11.63473,10.82907,9.227498,7.304397,6.17244,4.942089,3.582342,1.679787,-0.2188964,-1.626394,-2.920364,-4.379038,-6.276899,-7.96399,-9.704117,-11.03216,-12.5233,-14.25972,-16.14518,-17.46932,-18.53786,-19.42745,-20.6416,-22.16393,-23.46473,-24.40881,-25.09923,-26.01242,-27.41388,-28.53229,-29.2512,-29.69913,-30.53693,-31.59174,-32.34843,-32.82146,-33.07956,-33.34049,-33.85256,-34.20968,-34.51283,-34.57964,-34.81932,-35.21898,-35.54859,-35.50872,-34.88329,-33.28715,-32.46283,-32.37137,-32.35244,-32.45671,-32.67796,-33.15453,-33.44182,-33.66359,-33.93767,-34.95984,-36.24,-37.53464,-38.56622,-38.77713,-39.11858,-39.86928,-40.66203,-41.29248,-41.50472,-41.96457,-43.25433,-43.98226,-44.34227,-44.41096,-44.73481,-45.14783,-45.64366,-45.76306,-45.58711,-45.3833,-45.24603,-44.83989,-44.32672,-43.35626,-42.26708,-41.70747,-41.00563,-40.13369,-38.68794,-37.32662,-36.36332,-35.42798,-33.94606,-32.33348,-30.81075,-29.65693,-28.77671,-27.00577,-25.21739,-23.50282,-22.34008,-21.01645,-19.22425,-17.19307,-15.56491,-14.2471,-13.15131,-11.65111,-9.9115,-8.492057,-7.484127,-6.447662,-5.267841,-3.881857,-2.812422,-1.746664,-0.9352925,-0.2592128,0.6711049,1.866011,3.134116,3.764941,4.374003,5.064495,5.962428,6.299404,6.381823,6.466719,6.639422,6.85429,6.529051,5.805018,5.451995,5.487773,4.982286,4.644794,3.699375,3.096512,3.02867,2.742426,1.859239,0.957868,0.354803,0.160893,-0.3642299,-1.067704,-1.926571,-2.848741,-3.086165,-2.906552,-3.43482,-4.379117,-5.33585,-5.244704,-4.801846,-4.541959,-4.269929,-3.77917,-2.817819,-1.840794,-2.256921,-3.340398,-3.9736,-3.595256,-3.086781,-3.127663,-3.771094,-4.56928,-4.967342,-4.739,-4.578819,-5.443745,-5.726175,-6.025511,-6.444656,-6.91343,-7.510391,-7.878103,-8.150539,-8.743735,-9.473652,-9.974507,-10.4151,-10.66563,-10.87809,-11.14676,-11.35706,-11.69114,-11.69247,-11.84247,-12.05434,-12.1461,-12.46565,-12.4402,-12.29848,-12.25023,-12.28114,-12.37319,-12.24117,-12.12977,-12.13159,-12.39866,-12.58775,-12.44505,-11.69796,-11.58475,-11.75079,-11.40741,-11.09006,-10.39168,-9.944217,-9.806864,-9.821029,-9.70473,-8.897346,-8.182874,-7.970405,-7.981917,-7.84632,-7.239224,-6.425036,-5.817723,-5.449076,-4.826398,-4.317961,-3.657208,-3.152788,-2.947751,-2.226426,-1.078629,0.2015343,0.3309894,0.294883,0.2950102,0.6392753,0.6937462,0.2344381,-0.1724708,-0.5442341,-0.3334186,-0.1457654,-0.399665,-0.9988438,-1.387587,-1.035308,-0.5667875,-1.087155,-1.430336,-1.630744,-1.48124,-1.345657,-1.432359,-1.891433,-2.029203,-2.076301,-1.844724,-1.781636,-2.122964,-1.764756,-1.107121,-0.7911864,-1.009227,-0.9881838,-0.3345358,0.7833525,1.678882,1.639318,1.610999,1.992876,2.304083,1.862152,1.220709,0.3751435,0.02269948,-0.0012813,-0.1320021,-0.4411156,-0.773618,-0.536338,0.2025581,0.7349395,0.6601855,1.32543,1.398289,2.255015,3.45443,4.242411,5.026635,5.530774,7.060587,8.524764,9.563169,10.70803,11.36767,12.69876,14.64856,16.00293,16.57248,17.51827,18.78156,20.45935,21.70857,22.53747,23.01068,24.00819,25.07314,25.84488,26.18847,26.38441,26.72527,27.57095,28.12312,28.10942,28.08457,28.36605,28.56729,28.71597,28.64057,28.39022,28.2978,28.4835,28.1736,27.59983,27.06376,27.2047,27.03743,26.2978,25.91902,25.87196,26.4448,26.87284,27.19526,27.2947,26.43283,25.11124,26.17411,25.66026,24.16657,24.10739,23.62332,23.66057,22.24713,20.76279,19.82878,19.28557,19.18539,18.36927,16.62554,15.78006,16.38149,15.52751,14.41544,13.69202,13.39212,13.46131,12.46396,11.44873,11.29082,11.60394,11.95422,11.73739,11.0262,10.93104,11.44885,12.47906,14.31825,15.14029,14.85283,15.31071,16.85343,18.09181,18.39966,19.42481,20.69108,22.23039,22.08863,21.32462,21.52143,22.14831,22.17468,21.22899,20.64084,20.55268,21.32119,22.23652,21.96477,21.47778,21.26589,22.21985,22.38019,21.51942,19.95569,19.1919,19.2994,20.6801,21.38608,21.06454,21.9027,23.16229,24.94993,25.72357,26.28354,26.97298,29.2964,31.84618,33.53539,33.7948,34.49781,36.12637,37.96967,38.74284,38.5073,38.73226,39.03535,40.23041,40.32107,39.97218,39.05999,39.06438,39.03812,38.87502,37.72853,36.19202,35.29406,34.97514,33.76914,31.86918,29.79861,28.31822,27.37066,25.82829,23.27904,20.55654,19.16423,18.2102,16.45158,14.21294,12.0587,10.48106,9.197649,7.174694,4.306113,0.9650666,-1.89718,-3.814363,-5.401268,-9.583523,-12.43129,-14.00567,-16.16938,-18.52156,-21.86844,-24.81976,-26.78973,-28.63181,-31.12784,-34.16446,-36.94478,-37.73434,-39.15465,-42.00167,-44.05683,-45.96347,-47.53924,-48.98327,-50.46637,-51.46806,-52.23842,-52.86754,-53.51828,-54.37046,-54.91128,-54.86638,-54.70685,-54.35089,-54.16278,-55.17224,-55.57386,-54.5554,-53.1684,-52.85033,-52.76248,-51.99901,-50.68437,-48.66769,-46.71845,-44.5056,-43.10831,-42.73782,-42.80244,-43.18474,-43.42576,-43.2477,-43.71677,-44.72048,-46.36507,-48.09275,-49.51542,-51.70796,-54.51487,-56.76747,-57.96789,-58.45325,-58.59583,-59.13277,-60.06947,-60.964,-60.47432,-60.13871,-59.59949,-59.41479,-58.92339,-57.92975,-56.03285,-55.40079,-54.6691,-53.87506,-52.31419,-50.56047,-48.71067,-47.57146,-46.05504,-43.79055,-41.41949,-39.02581,-37.39393,-35.53606,-33.23936,-30.21897,-27.78233,-25.51594,-23.18629,-20.46076,-17.52031,-14.71693,-12.49673,-9.944861,-7.192548,-4.2567,-1.240612,1.330052,3.623053,5.975227,9.354489,12.05708,13.55132,15.57285,17.9498,20.5895,22.82632,24.34325,26.03227,28.21842,30.80875,32.6371,33.96994,35.59546,36.54109,37.02775,37.25734,36.84188,36.43118,36.4212,36.67965,36.221,35.04496,34.10421,33.38527,32.83983,31.8028,30.43083,28.97907,27.75383,27.04026,25.84086,24.50028,23.03891,21.48213,20.60617,19.52426,18.0416,16.40294,15.57769,15.15088,14.9151,14.46117,13.51604,13.51832,14.10393,14.95448,15.67714,16.73255,18.53701,21.79916,23.56221,23.61581,23.16167,23.79255,25.27402,26.32454,25.92942,25.56405,26.89765,28.45049,29.18517,29.20368,28.70875,29.81455,30.88656,31.89105,31.31686,31.07649,31.65163,32.58195,33.01384,32.63108,31.4075,32.12623,33.26306,33.75566,32.50375,31.51609,32.10354,33.14625,33.13275,31.97233,30.34134,30.45764,31.27549,31.43761,29.76392,28.01831,27.75711,28.03392,27.41342,25.41498,23.52082,22.39946,22.34483,21.50018,19.08041,17.02184,15.78546,15.42558,14.32211,11.87384,9.511386,8.020666,7.544792,6.489857,4.242898,1.063728,-0.7917287,-0.8693036,-1.901177,-4.30872,-6.512112,-7.529104,-7.349505,-7.70632,-9.283242,-10.59639,-11.15095,-10.78721,-10.66896,-12.60906,-15.31101,-17.31393,-17.4258,-17.61411,-19.28568,-21.37357,-22.35827,-22.29649,-22.92654,-24.57909,-26.3842,-26.73594,-26.82324,-27.00737,-28.47262,-30.52274,-31.3443,-30.83123,-30.03776,-31.1169,-32.72525,-33.64099,-33.4789,-33.45437,-34.82605,-37.11198,-37.9405,-37.59043,-37.42308,-38.70229,-40.42741,-41.0693,-41.06171,-40.63072,-41.0885,-42.64918,-43.8036,-43.09674,-42.86405,-43.07791,-43.71967,-41.29707,-38.99011,-37.46746,-37.2189,-37.13962,-36.46279,-34.96838,-34.29156,-34.10097,-35.03954,-35.04262,-34.81426,-34.44077,-34.89321,-35.32047,-35.55259,-35.32236,-34.70986,-34.80856,-35.38569,-34.79834,-34.14759,-33.3874,-32.98994,-32.83444,-30.84921,-29.59016,-28.77059,-27.99771,-27.0756,-25.75144,-24.27959,-22.75706,-21.86527,-20.87766,-19.67447,-18.23546,-16.35288,-15.5826,-14.69284,-13.64739,-11.57748,-9.806608,-8.444871,-6.804578,-5.211,-3.421758,-1.733233,-0.1595935,1.576803,3.206431,5.405826,6.933679,8.770001,10.03877,11.88133,13.87668,15.70662,16.90441,18.32482,20.20062,21.79428,24.02763,25.64404,26.93554,28.19703,30.16321,32.36465,33.19669,34.15619,35.87605,37.70447,39.66218,41.09224,42.33795,43.53796,45.33123,46.84554,48.48091,49.54927,50.81516,51.92911,53.35023,54.51991,55.8956,57.39076,58.08746,58.19047,57.26719,56.47926,54.99736,54.21428,53.6073,53.05225,52.53041,52.91228,53.57383,54.1585,54.45536,54.89465,54.92299,57.1646,59.32465,60.53148,61.04783,62.33679,64.80321,66.66292,68.13254,69.46068,71.42952,72.88101,72.65844,72.03618,71.33498,70.51843,70.08466,69.03534,67.63461,65.3036,63.46184,61.68437,59.6734,57.26715,53.96683,50.4838,47.65567,44.83105,41.69421,37.86033,34.06349,30.74997,28.08919,24.80324,20.60431,17.4199,12.57875,8.877713,5.350774,1.363579,-2.824813,-6.39559,-10.15278,-14.19511,-18.37321,-22.67483,-25.7027,-28.68003,-32.50461,-35.17984,-38.47064,-41.28144,-43.24062,-45.56624,-47.90114,-50.72029,-52.79784,-53.40155,-54.73531,-56.11271,-57.89618,-59.14916,-59.59142,-59.72806,-60.74409,-61.43499,-62.38825,-61.53372,-61.28377,-60.85664,-60.97593,-60.1887,-58.41338,-57.30532,-56.13106,-55.07446,-53.01205,-50.58565,-48.42695,-46.36665,-44.08137,-42.03617,-39.12296,-36.52047,-34.63496,-32.88256,-30.23456,-28.0146,-25.63793,-24.22676,-22.5841,-21.20806,-19.50105,-18.20873,-17.67003,-18.53643,-19.44722,-19.59284,-19.6269,-20.20783,-21.3594,-21.4555,-21.15911,-20.19905,-19.99735,-20.04773,-19.90897,-19.22603,-18.36924,-17.65189,-17.28624,-16.08116,-15.85264,-14.86301,-14.35146,-13.38675,-12.65813,-11.75377,-10.47026,-10.21049,-9.682382,-8.518872,-8.517367,-8.136801,-7.857912,-7.714819,-7.158271,-6.688537,-6.153681,-5.520476,-5.521517,-5.18328,-4.467864,-3.311649,-3.334151,-3.394912,-2.82039,-2.018478,-1.029719,-0.9833627,-0.9993803,-0.5337638,0.4371302,0.9207933,0.9732208,1.606904,1.800744,3.275149,3.970963,4.693221,4.92393,5.780921,6.571856,8.041001,8.964741,9.941842,10.62986,11.71004,13.08659,14.59907,14.8297,15.51426,17.10233,18.4573,19.6645,20.15928,21.1553,22.49773,22.98425,24.69657,25.27294,26.37919,27.50611,28.83632,29.7538,30.07911,30.34233,32.06459,32.97046,33.94085,34.54597,35.11235,34.85168,34.97782,34.904,34.80736,35.51031,36.27337,37.64812,38.79477,39.45064,40.35716,42.11678,43.58431,45.06647,46.29809,47.47193,48.84717,50.80746,52.1674,52.88273,54.18695,55.43387,56.49724,57.47599,57.55984,57.61175,57.82513,58.05123,57.82101,57.22618,56.4427,55.39351,54.60094,53.66292,52.20591,50.49162,48.79529,47.28138,45.58723,43.24795,41.21584,38.97521,37.39149,35.33812,33.06074,29.72604,27.02242,24.40948,21.42619,18.5784,15.16078,11.9612,8.839779,6.163572,2.697902,-0.9441267,-4.296821,-7.072635,-9.512861,-13.25559,-16.30269,-19.69268,-22.29347,-25.52828,-28.47084,-31.66491,-34.66194,-37.17353,-39.53913,-42.276,-45.09365,-47.43461,-49.65207,-51.22663,-52.74983,-55.01855,-56.83764,-58.2349,-58.61832,-59.81535,-61.03263,-62.73264,-63.22595,-63.7674,-64.20591,-65.3334,-65.83724,-66.37738,-66.39574,-66.48529,-67.08383,-65.99435,-64.31639,-62.4297,-60.8714,-59.5961,-58.43234,-57.76668,-56.84495,-57.75052,-59.75516,-62.11803,-64.12693,-66.91231,-68.8837,-71.23232,-73.99359,-76.27969,-78.48431,-80.6358,-83.57521,-86.40454,-87.38303,-87.61284,-87.94505,-88.29438,-88.82825,-88.3804,-87.5124,-86.86952,-86.16299,-85.24157,-83.57357,-82.20252,-78.90804,-76.23337,-74.36793,-72.09801,-68.81487,-65.77549,-63.19559,-61.24555,-58.19177,-54.93405,-52.3496,-49.8515,-46.96801,-44.37778,-41.27627,-38.10668,-35.93639,-33.96256,-31.0839,-27.61094,-24.97803,-23.03524,-20.9807,-18.45817,-15.52101,-12.53066,-9.704256,-7.077418,-3.946761,-0.2235127,2.437467,4.579857,6.557793,7.796836,9.296831,11.18878,12.46158,12.59361,13.72807,15.35598,16.61711,17.4371,17.87821,18.60136,19.98885,20.70769,21.37272,21.48751,22.01218,23.07862,23.904,24.32978,24.42809,25.28292,25.65699,25.55516,25.29839,25.46844,25.20634,26.40442,27.14208,28.28362,29.02453,30.22345,32.0716,33.53454,35.04428,36.55976,38.78331,41.25911,43.99802,46.29973,48.73769,51.89016,56.11401,60.644,65.06155,69.87691,73.55721,77.50111,80.89633,82.94996,84.05242,84.53479,85.60327,85.97095,85.46719,85.16969,84.61479,84.65023,85.41617,84.74763,83.33741,82.30018,81.87827,81.3434,80.05163,78.18763,76.46566,75.16153,73.86146,71.85059,69.31518,66.84078,65.08678,63.48561,61.42747,59.13433,56.59044,54.89984,54.05845,50.99107,47.37671,44.81888,42.8443,40.15375,37.01507,34.37287,31.74558,28.8519,26.61334,24.59277,21.78695,19.43869,17.71901,16.78173,14.71453,12.25641,10.25997,9.456988,8.24545,6.96913,6.037317,5.38139,5.596033,5.765114,6.302036,6.144832,5.70278,6.157923,6.769109,6.820275,6.361438,5.958303,7.029866,8.353115,9.289263,9.387351,9.675611,12.02226,13.94336,14.64491,14.45103,15.59831,17.32941,17.85739,17.99413,18.20633,18.92254,20.97017,22.35276,22.87891,22.53543,23.0952,24.23703,25.66958,26.28325,26.13681,26.44562,28.86822,30.62917,31.60125,30.96815,31.16626,32.56151,33.67907,33.64419,32.82594,32.37704,32.57948,33.38225,32.80895,31.39652,30.38329,30.50607,30.70427,29.76148,27.1099,25.40676,25.48455,25.07714,23.954,21.47887,19.19759,18.45638,17.69993,15.88788,12.60676,9.957847,8.816658,8.028022,5.631274,1.811931,-0.7735429,-2.321509,-3.736319,-6.220284,-10.15476,-13.40529,-14.95239,-16.53213,-19.53919,-23.46313,-26.56916,-28.34079,-29.68055,-32.72275,-36.52552,-39.66485,-41.56374,-43.10561,-45.19607,-48.70239,-51.89352,-53.59636,-54.60359,-56.5906,-59.39239,-62.45505,-63.90452,-64.42247,-65.82622,-68.37011,-70.85252,-72.1828,-72.44088,-74.74437,-77.46826,-79.67448,-80.45627,-80.93691,-81.86104,-83.61729,-85.71067,-85.14355,-83.46632,-81.54091,-81.50341,-80.93416,-79.76945,-78.31284,-78.69068,-80.57312,-82.55976,-84.12932,-85.08977,-86.54198,-90.09558,-92.76519,-93.65454,-95.72593,-97.53325,-100.1578,-102.0755,-104.9025,-106.8452,-106.3159,-106.6861,-107.2258,-106.4775,-105.0534,-103.5406,-102.4517,-100.259,-97.64425,-94.57761,-91.19296,-88.29994,-84.59126,-80.27655,-75.96509,-71.52076,-67.74773,-63.17176,-58.21427,-52.75746,-47.5228,-42.99041,-38.39863,-32.39915,-26.46172,-20.69858,-16.51839,-11.83372,-6.335737,-0.9540321,3.735475,8.260766,13.29873,19.13463,23.8914,28.91988,32.77032,36.85253,40.92174,45.95866,49.55584,52.50803,55.79704,58.92137,62.02245,64.70681,66.40299,68.40636,69.7656,71.93205,72.86889,72.64077,72.87747,73.64703,73.78516,73.4908,72.84469,72.31893,71.39058,70.57282,69.08802,67.53924,65.80561,64.20498,62.49211,60.50328,58.0938,55.22256,52.95818,51.23313,48.45588,45.26822,42.24067,39.56129,36.12493,33.08738,29.57113,26.23991,23.5981,20.77667,18.46337,15.8735,14.00596,13.25561,12.49571,12.72882,12.76113,14.04729,16.0937,18.31114,20.25177,19.64655,19.5375,20.76043,20.54928,19.6293,18.19707,18.52731,18.87308,19.31439,18.08272,17.10094,17.82548,19.12316,19.9728,18.67446,16.47821,16.35737,16.48717,17.02336,16.60949,15.16814,14.8246,15.7818,15.7521,14.46583,12.59158,13.27396,13.83117,13.80805,13.09375,11.35136,11.23156,12.03058,12.20249,11.96344,11.23294,11.59117,13.28522,13.54489,11.91543,9.990324,9.04286,8.960102,7.619882,5.789649,3.318597,3.28623,4.579938,4.71779,4.263556,4.240693,4.706353,6.48358,7.76575,8.193038,8.287572,9.013702,11.12453,13.91507,13.66568,14.29201,15.38625,17.86129,20.40271,20.96413,20.68786,21.96865,24.08841,27.25794,28.85494,28.98156,30.50512,33.33782,34.9404,35.66845,35.92329,36.03244,36.31089,36.78048,36.58704,35.50578,35.05526,37.16477,38.50669,39.42604,39.46836,40.69131,43.39933,45.93144,46.35039,46.37365,47.1097,48.06021,49.59382,50.18621,49.94049,49.72852,50.52101,51.52942,51.26101,49.46779,48.95497,49.12092,48.64698,47.79937,45.30008,43.45909,42.58971,42.04274,39.4252,35.4211,34.42867,33.54127,31.14546,28.50333,25.61853,23.96366,21.85217,19.50804,16.35266,14.5279,12.42358,10.59031,7.331066,3.274066,0.5355749,-1.775105,-4.854651,-7.687119,-11.22867,-14.40285,-17.31112,-19.93341,-22.67698,-25.86973,-28.75741,-31.01627,-33.34975,-36.17123,-38.29215,-41.09263,-43.15932,-44.61586,-46.8844,-49.02663,-51.6634,-54.37048,-56.96257,-60.89453,-64.75714,-67.91529,-71.00289,-73.27984,-75.45627,-77.80273,-79.56352,-81.02187,-82.23328,-83.80608,-85.12925,-85.98363,-87.14004,-86.56911,-85.41093,-84.37645,-82.75005,-81.10801,-79.08495,-77.40684,-77.17133,-77.06614,-77.09476,-77.64468,-78.62993,-80.59031,-81.60567,-80.98615,-80.66213,-79.68587,-80.49338,-81.31717,-81.38399,-80.74631,-80.80706,-81.0998,-81.52266,-81.6616,-81.06547,-79.41433,-78.69271,-77.22307,-74.53239,-71.32471,-68.92085,-66.0993,-63.47367,-59.9902,-56.34863,-52.72121,-49.55265,-45.73632,-41.58249,-37.32087,-32.2707,-28.40335,-24.194,-20.1423,-15.13889,-10.46884,-6.541199,-2.077513,2.574441,7.372402,11.69772,15.80613,19.68119,23.97889,28.71729,32.79168,35.75674,39.13934,43.32317,46.54782,49.52735,52.10925,54.7385,57.39653,59.85128,61.56644,63.33652,64.8289,65.4769,67.11227,67.96418,68.056,68.03974,68.2817,67.77103,68.07249,67.70527,67.45403,66.57986,65.10332,63.98444,60.77252,58.36708,55.54452,53.74066,51.10504,48.29808,44.77668,41.29353,38.66676,35.66095,32.47087,28.61305,25.5231,22.75865,19.90665,17.27589,13.98739,11.41518,9.797368,7.703368,6.016638,4.691573,3.61817,4.010192,4.43155,5.021772,5.65473,7.470222,10.74652,13.48803,15.73946,16.51804,17.79102,18.86471,18.5136,17.96142,15.82871,15.14585,14.09729,13.77149,13.50877,13.42736,13.07968,13.22209,14.27218,13.41391,14.00441,13.28604,13.99154,14.55821,14.5443,13.98799,13.88653,13.99015,14.09922,13.95942,13.43205,12.6462,12.73161,12.76256,12.71782,12.04304,11.84646,11.4875,11.23299,9.895074,9.089675,7.521846,6.763975,6.230239,5.016184,3.614554,1.781386,1.71935,1.047621,-0.2409372,-1.263392,-2.481275,-3.530585,-3.857444,-4.950221,-5.980796,-6.720135,-7.625752,-7.993145,-8.700531,-9.897832,-10.97257,-11.68113,-12.25018,-12.51047,-13.98877,-15.41555,-15.80304,-16.07336,-16.36792,-17.10747,-17.68449,-18.0728,-17.71743,-18.09822,-17.96925,-18.13107,-18.36878,-16.9611,-16.85985,-17.5251,-19.0905,-19.95328,-19.58724,-20.98532,-21.22982,-22.69891,-23.77633,-24.13195,-24.9267,-25.5811,-25.56349,-24.86423,-23.5825,-23.98513,-24.7193,-24.86129,-25.59845,-26.56408,-25.46499,-26.88634,-28.32375,-29.2403,-30.03208,-30.87989,-32.56337,-34.36813,-35.4158,-36.97304,-38.69013,-40.39418,-41.54991,-42.94954,-43.69999,-44.07495,-45.23226,-45.91462,-46.41037,-46.93599,-46.27676,-46.72608,-46.65744,-46.38225,-45.5127,-44.11371,-43.85732,-43.08138,-41.07988,-39.63104,-37.34852,-35.13567,-34.3506,-32.21032,-29.73583,-27.16347,-25.25166,-22.83904,-20.33685,-17.25086,-14.21591,-11.89955,-9.114207,-5.784,-2.766627,0.8625505,3.164598,5.381519,7.352731,9.668562,12.1842,15.03446,16.67165,19.26884,21.93977,24.26532,25.9545,27.87551,30.34716,31.8308,34.42475,36.52235,37.69977,39.18257,41.37518,43.12003,44.54888,45.03543,46.05395,47.41572,48.52489,48.58163,49.18159,49.59048,49.81266,50.88973,50.73256,50.28999,50.0789,50.20347,50.33895,50.02079,49.25639,47.70957,47.0142,45.77075,44.65172,42.53261,40.96965,40.21783,39.66805,40.04285,39.27116,39.21026,39.61211,39.6838,40.70597,41.04547,41.81059,44.17073,46.55867,49.00251,50.3863,53.06351,53.90591,55.45094,56.43244,56.67843,57.24856,58.75623,60.33842,58.63651,57.23365,56.91226,57.03006,56.72082,54.57852,52.33789,50.615,49.43565,47.67997,45.66034,42.55043,39.80442,38.02089,36.31952,33.2595,28.95636,25.93333,23.60589,21.36349,17.79422,13.26906,9.794306,7.746628,5.185768,1.457849,-2.590388,-6.17758,-8.939532,-10.78798,-15.30823,-18.93059,-22.70374,-25.07806,-27.35275,-31.04053,-34.84566,-38.32858,-40.363,-42.24673,-45.1573,-48.48344,-51.3578,-52.33889,-53.0871,-55.57478,-57.90194,-60.13677,-60.18024,-60.15093,-61.08834,-62.97839,-63.54939,-63.46157,-62.61621,-62.46506,-62.69832,-62.55237,-60.90763,-58.29255,-57.18523,-56.43468,-54.93718,-52.27848,-49.40661,-47.75105,-47.27348,-45.81847,-43.13544,-40.01371,-38.39436,-37.6078,-36.77647,-34.55325,-32.18815,-30.97468,-30.59636,-29.81922,-28.50803,-26.72212,-26.2562,-26.81159,-27.97816,-27.44189,-25.60013,-25.73624,-25.55169,-25.56052,-23.83088,-21.40181,-19.40101,-19.49469,-19.25964,-17.54057,-15.68727,-13.95803,-13.80751,-13.58956,-11.86327,-8.780677,-7.883368,-7.404422,-5.693837,-5.834434,-3.357238,-2.705064,-1.908669,-1.105065,0.2236855,1.394943,2.447448,3.222436,3.893726,5.534413,6.368731,6.873221,7.925026,8.676695,9.696052,11.34707,12.12051,12.88865,13.65068,15.00812,15.99406,17.35154,17.47639,18.27598,19.30493,20.72426,21.67113,21.93291,22.74102,24.46054,25.09065,26.28994,26.82184,27.54622,27.9918,29.37653,30.00095,30.1972,29.94781,30.63591,31.6173,32.0371,32.20476,32.78979,33.924,34.63412,35.68872,35.37963,35.26068,35.19758,34.89998,34.55015,33.36886,32.22283,31.83015,30.93116,30.371,29.55177,29.16363,29.43435,30.3933,31.03533,31.99223,33.31907,34.96253,37.06762,39.03913,40.52983,42.24971,44.00047,46.00213,47.46096,48.26835,50.34225,51.99107,53.4343,54.67673,55.49943,56.74525,57.96555,59.51931,60.83485,61.12964,61.01001,61.4775,62.59426,62.86235,62.70637,62.50807,62.41981,62.60379,61.77764,61.57188,60.26277,59.80901,59.13414,58.56684,56.53861,54.81254,53.53682,52.12423,50.79994,48.38606,46.55044,44.1521,42.72931,39.5358,37.38842,34.14024,30.83807,28.66947,25.70297,22.8765,18.79725,15.52988,12.38076,9.285898,5.133881,1.575919,-2.239859,-5.651936,-8.14141,-12.006,-15.85347,-19.28696,-22.56619,-25.98589,-29.19159,-33.31726,-36.32712,-39.14709,-41.63123,-45.03876,-48.30466,-50.05668,-51.90259,-54.56954,-56.1885,-58.55077,-60.01816,-61.42764,-61.94938,-63.26819,-65.03251,-65.77161,-65.55827,-65.65867,-66.02181,-66.23669,-66.07264,-64.88913,-65.53364,-62.84322,-60.84913,-60.14585,-58.99791,-57.82811,-59.7047,-60.8878,-62.46462,-63.21711,-65.18223,-67.88111,-69.99591,-72.69004,-74.16447,-76.1637,-77.81021,-79.50415,-82.14327,-82.70942,-83.66633,-84.67921,-85.80946,-86.61106,-87.02469,-86.43768,-86.59093,-86.91056,-86.72793,-85.55625,-85.07625,-84.11152,-82.7612,-82.30658,-80.2723,-78.61957,-76.91269,-75.57284,-73.82763,-71.57788,-69.65286,-66.94615,-65.26293,-62.8807,-60.01989,-57.06672,-54.43901,-51.96245,-49.73358,-46.75009,-43.26945,-40.01413,-37.5203,-34.69056,-31.24635,-27.95866,-24.90265,-22.35497,-20.03719,-17.11559,-14.34282,-11.89187,-9.849867,-8.14404,-5.68665,-3.242858,-1.63513,0.06736738,1.63617,3.566266,5.396469,6.961944,7.62739,8.64624,9.662725,10.71897,11.59138,11.87774,11.1682,11.9793,12.58508,11.90382,11.14818,10.2895,9.753526,9.834153,8.965797,7.484549,6.545006,5.071354,3.998538,3.248712,2.579719,2.238079,-0.01431918,-1.263818,-2.156151,-4.273044,-6.116818,-7.980222,-9.044068,-10.39389,-12.35993,-13.38154,-15.0151,-15.32174,-15.90222,-16.177,-16.33821,-15.64289,-14.38394,-10.91326,-10.98576,-11.05635,-10.45653,-9.849918,-9.825544,-9.383908,-8.656645,-8.538528,-7.415026,-6.311923,-5.599277,-4.971339,-3.35276,-2.189732,-0.1060611,1.067123,2.048324,4.371001,5.870515,7.533473,8.753862,9.628512,10.81746,13.27243,15.08348,17.96838,20.65733,23.50086,26.78846,30.94093,34.1429,36.80022,41.14823,44.64205,48.4259,52.05202,55.88217,59.22004,62.59351,67.60117,70.20518,72.81811,76.14562,79.21235,82.14254,84.76002,86.80352,89.43565,91.6789,93.53204,95.24854,96.10897,96.80654,97.58255,98.24828,97.66272,97.17496,96.32211,95.86066,94.68576,93.41604,91.65325,89.40574,87.82228,85.58882,83.72109,80.4684,77.58629,74.95435,71.88184,69.43096,65.50833,62.14905,59.11622,55.93601,52.15374,49.11512,45.9873,42.93147,39.38906,36.73264,33.45538,30.50701,28.06108,25.12199,22.60916,20.4182,18.14028,17.69127,16.32988,14.86038,12.15268,9.616201,8.039271,6.812434,5.343399,3.519104,2.789404,1.532591,1.148045,-0.111088,-0.4101989,-1.311121,-1.282134,-0.6597774,-0.3801522,-0.936793,0.006211818,0.06521341,1.285698,1.837121,1.617812,1.190159,2.097696,3.717416,4.415966,6.488938,6.993053,8.994563,10.72725,12.71768,13.97978,15.24242,16.70224,18.25696,18.69933,19.68818,19.70169,19.94607,20.03638,20.65765,20.43897,20.17033,21.0519,21.85022,23.06419,22.91122,23.2675,23.54672,24.49381,24.57029,24.75212,24.55429,23.20899,25.1573,24.40901,24.21213,23.02805,22.50331,22.42675,21.26214,19.55323,18.51257,16.84956,15.35423,13.92442,11.75042,9.588445,7.074748,5.128453,3.723388,0.4558969,-1.841217,-4.206356,-6.637605,-9.074765,-11.8484,-15.1753,-17.20783,-20.11338,-22.20641,-24.89619,-28.10935,-30.62762,-32.86849,-34.88769,-37.57118,-40.1578,-42.21863,-44.01611,-45.42306,-47.69618,-49.32572,-50.82074,-51.67474,-52.56909,-53.20768,-55.19847,-54.3963,-55.85778,-55.09081,-55.72393,-56.29911,-56.49037,-56.44036,-55.74126,-54.84933,-55.27013,-54.87097,-55.1982,-54.00755,-53.56007,-53.71333,-51.5402,-49.19733,-48.59272,-47.01975,-46.71694,-46.48249,-45.19619,-44.4577,-43.4415,-43.28742,-43.27326,-43.02732,-43.04231,-43.32564,-43.37896,-44.42709,-44.28499,-45.07619,-45.10093,-45.71399,-45.17902,-44.71822,-45.01716,-44.19038,-45.11943,-44.81034,-44.54308,-44.36648,-44.13716,-43.88504,-44.09336,-43.33847,-42.71989,-41.56372,-42.13073,-42.07139,-41.41556,-40.5232,-40.00831,-39.41867,-38.16954,-37.25903,-35.68952,-34.40015,-33.40553,-32.54644,-30.67273,-29.47102,-27.72047,-26.53226,-25.27816,-22.01293,-21.9604,-18.61051,-17.46497,-15.4921,-13.53906,-11.42084,-9.883748,-8.012395,-6.851817,-5.251068,-2.393963,-1.213972,0.7569583,2.050542,3.803048,6.139426,7.526929,8.778991,9.87083,11.00335,12.7781,13.98734,14.75835,15.49408,15.12187,16.80141,17.32617,17.08192,17.27836,17.19819,17.85891,17.298,17.50764,16.82628,16.58402,16.73377,16.4864,16.26978,15.61763,14.83695,14.3072,14.9137,13.73783,13.50177,11.90886,12.14612,11.09704,9.942063,9.491751,8.827489,8.090034,8.599054,7.347828,6.823797,6.624581,6.787697,6.842162,7.093174,8.140532,6.250366,5.554128,6.274815,5.241391,4.906005,4.159815,4.303999,4.235384,3.865991,3.160387,2.510144,3.026492,3.148172,3.371039,3.368816,4.178984,4.923285,6.213526,6.533254,6.885488,7.209777,7.60042,8.377569,7.960912,7.925514,6.949804,6.506898,6.968186,6.955743,6.296228,6.391738,6.374053,7.091428,6.884713,7.233335,7.503996,8.051628,9.020847,9.296342,9.618433,9.385351,10.23441,11.12127,11.30468,11.80251,12.12846,12.57007,13.59923,14.01196,13.62427,15.87662,15.59578,17.0058,16.95589,17.50545,17.83712,18.03637,18.31086,18.94299,19.51327,19.44421,20.07706,19.73955,21.03545,20.65432,20.96783,20.78421,21.18769,21.47743,21.54,21.09976,21.49167,21.14246,20.98438,20.70565,20.93685,21.12429,20.97825,21.18258,21.27762,20.43755,20.88936,20.94182,20.66494,19.93932,18.88101,18.22983,17.59405,16.57271,15.40561,13.84964,13.67001,13.02767,11.77037,10.84597,9.613508,8.220602,7.749355,7.384505,6.400787,5.449876,4.003618,3.896398,3.063974,1.850834,0.1944364,-0.6978124,-1.471524,-2.08003,-2.544231,-3.510361,-3.907553,-4.06305,-4.401598,-4.289564,-5.474835,-4.355204,-3.953822,-3.871621,-3.476561,-3.722895,-3.072722,-2.473539,-2.028233,-1.236821,-0.9457149,-1.120653,-0.4208326,-0.5282593,-0.9278874,-1.694647,-2.303269,-3.197961,-3.852899,-4.558721,-6.17599,-6.411458,-6.854362,-6.98455,-8.022146,-8.366253,-9.548054,-9.25184,-9.883082,-10.09174,-11.29031,-11.97254,-11.99057,-12.81455,-13.16461,-14.26655,-14.50145,-15.11987,-15.39848,-15.18223,-16.51355,-16.76214,-17.091,-17.1853,-17.44707,-17.08675,-18.99142,-18.39359,-18.61658,-17.58484,-18.65076,-19.56998,-19.94753,-19.37169,-19.6528,-21.2904,-21.17672,-21.52408,-21.05519,-21.39083,-21.70006,-21.9845,-21.27863,-20.88933,-20.35056,-20.44159,-19.83721,-19.58636,-18.37667,-17.2246,-16.49661,-16.26817,-15.0085,-13.37572,-12.8175,-11.87444,-11.04888,-10.4513,-9.920619,-8.542844,-8.376187,-7.930683,-7.283252,-6.159486,-5.368633,-4.783953,-3.910329,-3.504106,-2.355344,-1.855544,-1.042651,-0.4329566,0.4591838,1.109475,1.97249,2.264222,2.589186,3.376747,3.947053,4.139425,3.834769,5.24845,5.401512,6.449183,7.32004,7.228412,7.698059,8.016025,9.058065,9.543055,9.836124,11.16101,10.64956,10.85901,11.02221,11.30998,10.82659,10.32077,10.91933,11.14452,10.97096,10.18106,10.63221,10.44199,11.04463,10.2329,10.23104,10.02133,10.29215,10.35923,9.934476,9.871204,9.549427,10.21176,9.702657,10.04051,9.409132,10.09334,10.03642,9.921105,9.659965,8.866259,8.360837,7.614494,8.222887,7.170353,7.023102,6.852306,7.818812,9.311679,10.04164,12.12626,13.27493,15.30045,16.90245,18.17899,19.23406,20.89635,21.09055,24.68744,23.65576,24.59647,25.31866,25.83833,27.01604,27.10403,27.43885,27.41633,27.58546,28.21016,27.75651,27.46613,27.02319,26.81945,26.37099,25.66383,24.64896,23.25239,22.79053,22.40709,20.79369,19.24716,18.1857,16.97996,15.73072,14.64799,12.37822,11.10873,9.501728,8.554507,6.659369,4.691592,3.378517,1.338043,-0.05362316,-1.192842,-3.311978,-4.986019,-6.139754,-7.657006,-9.00605,-10.4672,-12.32714,-13.36523,-14.14791,-15.22786,-15.8594,-17.56732,-18.21337,-18.47441,-19.17581,-19.26916,-20.50672,-20.39069,-20.51256,-20.31022,-20.4365,-20.49575,-20.00328,-19.77194,-18.72435,-18.53509,-18.67447,-17.84881,-17.06824,-15.572,-15.19412,-14.43299,-12.54123,-11.51057,-10.09495,-9.047071,-7.555349,-6.691537,-4.996933,-4.155566,-2.326151,-1.642064,-0.9361427,0.7251657,1.345155,2.560718,2.55259,3.017157,3.257148,3.910074,3.977647,3.324852,2.703064,1.972309,1.733897,0.3424383,0.2012881,-1.022051,-0.7762997,-1.058941,-1.155009,-1.174429,-0.2937748,0.1816189,0.5439898,0.9107885,-0.006812025,-0.1991788,-0.549225,-0.4557211,-1.127765,-0.8056579,-1.766217,-0.2087291,-2.390015,-1.703529,-2.218227,-3.073321,-2.698714,-3.41424,-3.665691,-4.018203,-4.978833,-4.602503,-5.500517,-5.469969,-5.998318,-6.184022,-6.46962,-6.461005,-6.969669,-7.382636,-6.936927,-7.598669,-7.865478,-7.0666,-7.485458,-8.105472,-7.529803,-7.548803,-7.460634,-7.261084,-7.299744,-7.171105,-7.292897,-7.108561,-7.537633,-8.141502,-7.92215,-7.810516,-8.16898,-8.337659,-8.954604,-9.032961,-9.126886,-8.671832,-9.190427,-8.980176,-8.888745,-8.317802,-8.700346,-8.208342,-8.65358,-8.045884,-8.037082,-7.775364,-7.410583,-7.479349,-7.459048,-6.866468,-7.433228,-6.581534,-7.489414,-7.037863,-6.308308,-6.353468,-6.033946,-5.553403,-5.449279,-4.585751,-4.111244,-3.635349,-3.455966,-3.378342,-2.821552,-2.643552,-2.362691,-1.884851,-1.463977,-0.6615923,0.02573922,0.07589999,0.6350989,1.324085,1.974153,3.126161,3.754497,3.909525,5.17306,5.541035,6.657348,6.521394,6.90971,7.97701,8.214148,8.810756,9.388361,9.484925,10.40603,11.00397,11.1945,12.41613,12.5601,13.06668,13.67459,14.43532,14.44289,14.96443,14.97382,15.6917,16.23637,16.78209,16.43558,17.15891,17.821,18.35552,18.61273,18.45907,19.15139,19.47737,19.73176,19.71211,20.04904,20.31156,20.41999,21.33702,22.61281,22.93943,22.6327,23.12789,23.59011,23.61404,23.71991,21.38613,20.8288,19.42416,17.97125,16.86855,16.311,15.9905,16.1887,16.21044,15.95155,15.35912,17.89786,17.98335,18.19102,19.33998,19.2289,20.77793,21.14829,21.9408,22.09654,23.34261,23.73809,24.88576,25.35021,25.61132,25.96897,26.6074,26.78162,27.56902,26.51914,26.81968,26.65651,26.30626,26.7931,25.16034,24.93589,24.36121,23.72153,23.48094,22.13907,21.14498,20.42906,19.11775,18.35809,16.90166,15.73675,14.3191,12.93041,11.79886,9.917903,8.240539,8.052857,5.787303,5.821762,3.553477,2.230527,0.7539193,-0.6692701,-2.033906,-3.321365,-5.514068,-6.68797,-8.431982,-10.11013,-12.27797,-14.37917,-16.6857,-18.10773,-19.90958,-21.47679,-23.2226,-25.5109,-26.61473,-27.79475,-29.38925,-31.09183,-32.55615,-33.44078,-34.20311,-36.07256,-36.55363,-38.81334,-36.86621,-38.22886,-38.63015,-39.28487,-39.8309,-39.71747,-40.01908,-40.26676,-40.61522,-40.53858,-41.03517,-40.3351,-40.39234,-40.60404,-39.95151,-39.89765,-38.60354,-38.06614,-37.78599,-37.11184,-35.84776,-34.81692,-36.1685,-34.59552,-35.93534,-35.93254,-36.54201,-37.52735,-39.35364,-39.14392,-39.24528,-37.89305,-38.24477,-36.9417,-36.73257,-35.99122,-35.89032,-34.73155,-33.99416,-32.63545,-33.10022,-31.66878,-30.84722,-30.24784,-28.84848,-28.27977,-26.23206,-25.18877,-23.44132,-22.33243,-20.54721,-18.94401,-17.24419,-15.66735,-14.01855,-12.70245,-11.09639,-9.319641,-6.990326,-6.372634,-4.380728,-2.541496,-1.395384,0.9826216,1.090508,3.069002,4.231695,5.572494,6.267666,6.794372,8.681066,9.242304,10.72072,11.14136,11.20604,12.34894,13.85114,14.11088,14.5165,15.02226,14.36752,15.89721,15.11876,15.35413,14.36833,14.22264,14.15874,13.54909,13.80749,13.04595,12.53762,12.93074,12.05146,11.09431,9.898582,8.609296,7.098815,4.73777,2.57258,0.2813086,-1.019275,-2.880729,-4.227484,-5.353061,-7.248368,-7.968506,-9.005176,-9.586578,-10.02535,-10.67868,-9.662168,-11.99652,-12.08897,-11.83613,-13.05419,-12.42988,-13.39124,-13.29593,-13.42529,-13.73009,-13.77365,-13.92038,-12.72249,-13.48336,-12.17311,-12.75377,-11.33125,-10.97266,-10.18398,-9.935993,-8.743718,-7.616538,-6.780231,-4.413367,-5.198817,-2.357697,-1.171002,1.155572,1.828405,3.929551,5.023637,6.457429,7.223171,8.911225,8.872675,9.675971,10.52569,12.27854,13.41298,14.22052,15.34901,16.55214,16.37437,17.47299,17.10073,16.30911,16.26528,15.41207,15.27488,14.70088,13.92269,13.11766,13.49453,12.84851,11.97222,10.53108,11.58605,12.06523,10.80053,8.909547,9.58254,9.383317,10.09231,9.161646,7.693037,7.914449,7.864689,8.525008,7.015958,6.408404,6.483822,6.045615,7.610328,6.252321,5.68161,5.896037,6.704195,6.960514,7.182434,6.577889,7.250472,8.258022,9.324012,9.527721,10.00385,10.56998,12.50976,14.04366,15.64276,14.01253,16.01478,16.64829,17.17015,17.4225,15.61562,15.22407,15.36217,15.3722,15.66035,14.40865,13.85264,13.88008,15.25352,14.40226,13.3507,13.19621,12.92852,14.22602,13.41915,13.2879,12.07115,12.62725,13.32507,13.53932,12.28739,12.52842,11.90101,13.587,12.80988,12.31499,12.06274,12.06756,14.1308,13.17701,13.44122,12.56629,13.60285,14.34357,15.28904,14.75584,14.57494,16.10857,17.48416,18.58292,18.82802,19.25961,20.53236,22.81555,23.49834,24.26846,24.60556,25.85619,26.75522,28.04913,27.63816,28.42818,30.34514,33.15288,35.50637,35.94143,36.80151,38.28418,39.08403,41.81058,41.80209,41.84574,43.47144,45.58932,47.5482,47.42659,47.95882,48.61626,50.67259,51.2991,50.99554,51.03407,52.33698,51.96337,52.15133,52.26024,51.92232,51.79504,51.72575,51.12835,50.50251,49.15443,48.4637,47.55313,46.07868,45.17427,43.08105,41.5518,40.82669,38.19021,36.68667,34.84234,32.5066,30.46889,28.60047,25.56419,23.78963,20.52092,18.83304,16.27872,13.46636,10.78629,8.524565,5.940049,3.060397,0.08189861,-1.505138,-5.53492,-6.802178,-10.35646,-13.21243,-16.0516,-18.39626,-21.82676,-24.00259,-27.37979,-29.53842,-32.4931,-34.60204,-37.44182,-39.56809,-41.70958,-44.11527,-45.57123,-47.8691,-49.56855,-51.63697,-53.61945,-55.38258,-56.6408,-58.31876,-59.8763,-62.12912,-62.53379,-64.59491,-64.93426,-65.99039,-66.92471,-67.39845,-67.36491,-68.20288,-67.95561,-68.26082,-67.88493,-67.26803,-68.24939,-66.45221,-64.2495,-62.85783,-60.67749,-59.12617,-57.80398,-57.68258,-58.07438,-60.08629,-62.32066,-65.96003,-69.42453,-71.89343,-73.52997,-75.25513,-75.89569,-77.30415,-77.54505,-77.60575,-77.70106,-77.63248,-76.92161,-75.95342,-74.53587,-73.08993,-71.70331,-69.86993,-68.01132,-66.15458,-63.96543,-60.89247,-59.68405,-56.16795,-53.67509,-51.34864,-48.63877,-46.09557,-43.29285,-39.58356,-36.81813,-34.06425,-31.13397,-27.54044,-24.65029,-21.22566,-18.62075,-15.7535,-12.69599,-9.605635,-6.713723,-4.0669,-1.694377,1.801103,3.797196,7.06901,9.027802,10.365,13.46569,15.46126,16.95968,19.6677,19.82443,23.08916,23.62594,25.18229,26.64116,26.89278,27.84458,28.80145,29.73961,30.04496,30.01764,30.55175,30.09248,30.37054,29.82297,29.16374,28.80518,28.5825,27.44181,27.27628,25.39615,25.70702,24.89963,24.62497,23.00486,21.57374,20.73556,19.6063,18.6023,17.43603,15.06177,14.75948,13.20922,11.90554,10.37091,8.635254,8.0973,6.483034,6.500339,5.461445,4.438468,4.30177,4.700557,4.50632,5.638309,5.822024,7.548816,9.545106,11.74039,15.51397,16.75043,18.73449,20.13092,20.91614,20.56642,19.05593,17.81352,17.0034,15.68221,14.65288,14.80769,14.36317,13.84341,14.27605,14,13.75444,14.21925,14.47363,14.99213,14.53113,15.38193,15.42552,16.05216,17.02428,17.00067,16.99459,17.4559,19.06517,21.62055,20.94645,21.25362,21.93012,22.53665,22.24295,22.46483,22.36023,21.9466,23.1498,21.95902,22.31943,21.30485,21.38606,20.25687,20.89165,19.81529,18.20281,17.14211,15.7636,15.66945,14.14019,13.90208,13.61966,12.85873,13.03621,13.2992,12.32162,13.20733,12.27047,13.29017,13.48769,12.22661,13.1238,12.4234,13.51729,13.18268,12.93482,13.15293,12.77037,13.25765,12.95912,14.04775,14.02494,14.05644,14.84982,14.10129,13.44267,12.6599,11.23849,11.03683,10.1262,8.763016,8.319106,7.302734,6.467335,5.647051,5.018431,3.69938,3.354871,2.336623,2.001582,0.3713897,-0.3078453,-1.594406,-1.688204,-2.931311,-3.654059,-4.616916,-5.154235,-5.22755,-5.630595,-6.899248,-6.845349,-7.248342,-7.193737,-7.355125,-8.235735,-7.72544,-8.986995,-8.656727,-8.193789,-8.870923,-9.449276,-9.414742,-9.755345,-9.974987,-10.48861,-10.98179,-11.60307,-11.46472,-11.73296,-12.08039,-12.72717,-12.89481,-13.64831,-13.83986,-14.12773,-14.78062,-14.23732,-13.54012,-12.82795,-11.47332,-11.81049,-10.06539,-5.959978,-3.137219,-0.09201793,3.028778,5.665721,7.303061,7.986904,9.306163,9.377594,9.648081,9.075959,9.487033,8.99563,7.320904,6.273767,2.82373,2.34973,-0.4005956,-1.594699,-4.055153,-4.616101,-7.782734,-9.304688,-11.96082,-13.79366,-13.22511,-14.59576,-13.7152,-14.56736,-14.80073,-13.46957,-12.60106,-13.11152,-12.0723,-9.444773,-6.861088,-4.114913,-2.913033,-0.575948,1.004991,3.007442,4.661263,6.165166,7.261411,8.581072,10.44326,12.4696,13.73378,14.04864,13.66067,14.71421,13.94533,14.24409,13.62137,12.958,13.57387,13.01466,13.31378,12.53324,12.13909,11.81511,11.86972,11.10526,10.36491,9.870181,8.894693,9.458855,8.317776,7.416703,7.631385,6.978176,6.638008,6.799998,6.592079,5.835023,6.041927,6.287866,6.025949,5.864789,5.227085,4.770195,5.407216,5.12662,4.978876,3.555139,4.578094,4.239547,3.403108,2.71388,2.539049,1.611138,2.226647,0.6188234,-0.7002651,-2.268226,-2.395356,-4.798535,-4.381855,-5.410746,-5.30253,-4.695602,-2.21658,-0.6695376,0.5184652,3.463464,5.855853,9.050138,12.34352,15.41213,20.09115,24.61427,26.99109,29.72018,33.71902,33.96552,36.15032,37.65182,38.16533,39.0301,37.93586,38.54241,37.70399,36.6571,34.3567,32.12482,30.25216,29.63147,27.54619,25.24606,22.21059,19.328,16.21794,13.15872,10.1952,6.882217,4.858862,1.958126,0.5345095,-2.691455,-5.006325,-6.506643,-8.094908,-9.008866,-9.741778,-10.06512,-12.71969,-13.34254,-16.02642,-17.05939,-19.37707,-21.20093,-22.54453,-24.18597,-25.28401,-26.86529,-28.78888,-29.3344,-30.58082,-32.0864,-33.65592,-35.01848,-35.66095,-36.32995,-37.46544,-37.72102,-38.66098,-38.70192,-39.29109,-39.41854,-40.83118,-41.46584,-41.74828,-42.02638,-42.75664,-43.14484,-43.08518,-43.14073,-42.1116,-42.4938,-41.59097,-41.68124,-40.8327,-39.13013,-38.38589,-37.9558,-36.23999,-35.88045,-33.92632,-33.52116,-31.71915,-31.16926,-29.07187,-28.04899,-26.78664,-26.22183,-25.26816,-24.48617,-23.34085,-21.66306,-21.18721,-20.67888,-20.66527,-20.70017,-20.65453,-20.62893,-20.09501,-20.42029,-18.15302,-17.66478,-17.75734,-17.38209,-17.74831,-17.41821,-17.87388,-16.29872,-18.04973,-16.84929,-16.466,-16.55625,-15.69451,-16.29444,-15.19557,-14.0843,-13.13394,-14.68952,-13.69114,-13.31416,-12.66781,-11.70245,-12.69074,-11.0161,-11.68048,-9.686841,-9.622416,-8.852931,-7.417148,-6.936801,-4.74545,-5.03795,-4.060468,-4.405886,-4.223455,-4.128386,-3.177203,-4.269786,-3.184834,-2.738057,-1.24734,-0.4596409,0.5543113,1.670581,3.337844,5.440907,6.989134,8.53786,11.83932,14.12803,16.20102,20.59634,21.50725,24.24377,26.11614,28.8959,30.89848,32.82862,33.44652,35.69136,37.11544,38.34321,39.56525,39.96535,41.46963,41.83026,43.1692,43.09819,41.84767,42.40198,41.32328,41.20659,39.91163,38.76384,37.85446,37.60171,35.74409,35.96332,33.50498,32.06949,31.68536,29.8939,28.55087,27.38864,24.95911,24.66641,22.88499,21.42077,19.28133,17.9649,16.92799,18.07866,13.9201,13.2106,13.16107,11.35342,11.22311,7.025164,7.163861,8.060607,8.716971,9.677397,8.459234,8.801748,10.17325,11.58795,11.61589,11.57931,12.54556,13.73405,16.01953,16.43424,15.73364,17.40856,18.86782,21.65524,21.53972,23.01004,23.30221,25.97542,26.98341,27.68296,28.3769,27.34408,30.77893,30.55773,31.18061,30.6101,30.18281,31.19805,31.31186,31.12726,29.41094,30.63803,30.3938,30.61086,28.87807,27.4686,25.26486,23.47634,21.89415,17.55897,13.95532,9.504324,5.983751,3.516544,-0.4990728,-5.596481,-9.09992,-12.05984,-15.05668,-18.676,-22.31714,-25.73146,-28.16272,-30.09541,-32.50136,-35.48892,-37.15896,-39.99904,-40.51561,-41.94509,-45.92768,-47.72879,-49.66291,-49.85785,-52.4313,-52.12739,-53.93901,-53.32411,-53.67252,-54.58635,-56.92701,-57.98387,-58.45094,-59.07659,-59.42205,-62.2786,-62.60391,-62.78559,-62.46839,-62.49859,-63.04134,-64.28011,-62.93248,-61.65771,-61.69321,-60.60685,-61.69396,-59.1215,-56.92289,-56.11215,-55.02663,-53.99984,-52.65504,-49.04498,-47.85868,-46.39979,-45.31962,-42.53788,-40.45722,-37.65872,-40.27786,-36.15697,-35.36784,-33.82655,-31.67724,-31.21245,-26.74295,-24.3899,-21.67043,-18.78268,-17.34733,-14.28504,-11.13093,-8.793574,-6.274371,-3.75521,-1.063393,1.57154,4.567808,6.117771,8.55593,11.30435,14.33803,16.93569,18.53253,21.00661,23.61526,25.33935,28.38038,29.75538,31.61778,33.2444,36.19599,36.65692,39.29122,39.24389,41.46176,43.1208,45.08582,45.73893,47.46398,48.26854,49.1888,49.22502,50.04088,49.94105,49.89471,50.79675,50.51365,50.14262,49.38056,49.10787,49.01645,48.96688,48.07976,46.82979,46.94544,46.40839,45.48108,44.78844,42.77146,40.51738,39.55298,38.89461,37.29776,37.08106,36.7678,37.26329,37.6004,39.82698,40.32464,41.32882,43.77532,46.94986,48.38339,51.36469,51.62229,53.00414,54.07491,54.8751,55.01177,55.86981,56.12779,56.62476,56.07625,55.74074,55.55734,55.18544,54.80652,53.63528,52.39135,50.89559,49.81612,48.73482,46.62816,44.46896,42.13054,40.56826,38.11157,35.25797,33.10683,29.49006,27.66047,24.87404,21.7321,18.37792,14.75257,11.97916,8.479539,5.19317,0.9266991,-1.724314,-5.541996,-8.229373,-11.92693,-15.77822,-18.9537,-22.79731,-25.25152,-29.32226,-32.91816,-35.96223,-37.8163,-40.28454,-42.61819,-45.74856,-48.45038,-51.2218,-52.67931,-56.04233,-57.29742,-60.42347,-60.9737,-62.23387,-63.70548,-64.90641,-65.04026,-65.70307,-65.06365,-65.31768,-65.44937,-64.82522,-64.31904,-62.50197,-62.14167,-61.1943,-59.51303,-57.71798,-54.75583,-54.1256,-51.31908,-50.0761,-47.00086,-44.57116,-42.16939,-39.7413,-38.21614,-34.97013,-32.46518,-30.5216,-27.70476,-25.99774,-23.70113,-21.55717,-20.25724,-19.28682,-17.82716,-16.91071,-15.81981,-16.00505,-15.91989,-15.31158,-13.99813,-12.67738,-11.48064,-9.472537,-9.297535,-7.134393,-5.596837,-2.710058,-3.028104,-1.505985,0.256407,1.634235,1.866512,2.629004,2.758852,3.239461,4.188076,4.358772,3.756255,4.05315,3.77201,4.868751,4.349113,4.570987,4.426508,4.576041,5.113747,5.12039,4.934767,4.497561,4.850192,5.585561,5.858698,5.367376,5.602662,6.155874,6.229512,7.027202,6.931386,6.732451,7.786155,7.868622,8.871204,8.678363,9.518062,9.798124,11.25508,11.78193,12.43532,13.30443,13.92135,15.58037,16.28147,17.32404,17.51029,18.4799,20.51021,21.30655,22.56872,23.69016,24.99606,25.596,26.68429,26.475,26.47766,26.13493,27.69604,27.31211,28.26578,26.45134,28.01204,27.52524,29.05247,28.05047,27.98466,27.94418,28.14319,28.3425,27.45621,26.86679,26.49317,26.69519,25.97184,25.98042,24.83798,24.37729,24.76623,23.58327,23.68707,22.83686,22.29731,22.28991,22.39078,21.30173,20.78149,20.55431,20.85855,20.76515,20.59485,18.57694,18.10666,18.53469,18.91016,18.95332,19.46488,19.58549,20.79905,21.40193,22.64916,23.22833,24.63763,25.82335,27.76608,28.26146,29.34244,30.98745,32.14152,34.74072,35.59299,35.90171,37.53254,38.15014,39.62453,39.90826,39.98152,40.61331,41.15493,41.36621,41.55985,41.26983,40.65697,40.99524,40.35326,39.48742,39.07574,37.30317,37.01591,36.57606,34.68154,33.29107,31.45699,29.67281,28.7303,25.99135,23.67927,21.28957,18.78785,17.351,14.29206,11.64572,8.923308,6.28355,4.467281,1.44916,-1.84167,-4.568323,-7.399377,-9.742813,-12.60391,-15.59118,-19.16832,-21.14439,-23.36441,-26.35681,-29.19069,-31.55804,-33.7194,-35.98689,-37.72475,-40.66522,-43.01441,-44.69078,-46.15984,-47.95328,-50.08788,-51.4714,-52.4872,-53.29683,-53.85558,-56.26731,-55.48319,-56.64218,-55.8383,-57.06366,-57.19452,-57.46977,-58.053,-57.01094,-57.02306,-57.24029,-57.23758,-54.11704,-53.17546,-50.17834,-48.64842,-47.23948,-45.18481,-45.42458,-45.07034,-46.94137,-47.97426,-49.74417,-49.34737,-51.72356,-51.89121,-54.57153,-54.54674,-55.56173,-56.79317,-58.10966,-57.92719,-58.26317,-57.26352,-57.715,-56.7906,-57.09002,-56.4728,-54.81309,-54.30264,-53.59034,-53.14877,-52.31369,-50.44654,-49.24278,-47.32223,-46.56517,-44.74837,-42.00931,-40.03764,-38.4245,-36.1574,-34.55479,-31.43836,-29.4902,-27.38162,-25.57286,-23.33898,-21.07797,-18.36904,-16.83089,-15.07366,-12.64056,-10.57885,-8.179505,-5.95185,-4.96963,-3.263547,-1.002765,-0.1581305,1.601534,1.908941,3.440236,5.217693,6.027654,6.73278,7.935238,8.087959,10.21263,10.33207,11.78272,11.57535,11.89093,12.29249,12.28623,12.05503,11.54882,9.744263,10.4334,9.028502,8.748052,6.879356,6.474817,5.526631,4.096229,2.783814,3.291693,1.139652,0.4849826,-0.7260718,-2.737028,-4.715529,-6.322415,-7.866057,-9.29064,-11.4186,-13.3299,-15.48071,-16.62579,-18.88856,-20.22505,-20.46919,-22.67084,-22.77911,-23.55684,-24.31648,-24.46454,-24.91574,-23.8342,-22.48706,-21.65113,-19.70813,-16.68357,-17.00297,-13.1106,-14.10998,-13.78006,-14.5416,-14.98404,-15.12396,-15.36421,-15.32883,-14.91344,-13.64165,-13.02619,-11.91072,-10.50377,-9.710038,-7.616296,-6.704112,-6.300106,-4.423423,-4.859577,-2.893418,-1.859468,-0.6843606,-0.2528868,0.9060859,2.534428,3.02362,5.523364,6.278506,8.254808,10.29692,12.56152,15.07003,17.06302,18.5327,21.41566,23.70629,26.18094,28.44308,31.59745,34.11301,37.85067,40.01137,43.70376,45.60314,49.39395,52.51749,55.7061,58.01638,60.75748,63.48431,66.049,67.52832,68.33232,69.70942,71.25416,73.66888,74.93831,76.36565,78.54871,79.71898,82.48365,83.4514,85.59937,86.37083,88.14211,89.29838,90.31039,90.4421,90.02933,90.5252,90.3021,90.35299,88.95071,87.85786,87.31442,86.67093,84.83039,84.36649,81.11946,81.41352,79.11492,78.71951,77.45063,71.9155,70.67769,67.07703,64.57756,60.11919,57.11442,52.58463,49.4855,45.47871,41.70943,36.6042,32.91927,29.20382,26.09164,21.66708,16.99571,13.03378,8.977469,5.702816,1.399505,-3.155271,-6.120431,-10.00639,-12.91663,-16.69901,-19.08974,-22.47057,-23.73037,-27.26283,-29.3794,-31.91222,-34.33071,-35.58452,-35.88745,-38.72364,-39.05273,-41.45265,-41.36224,-42.39418,-42.84784,-45.3029,-45.37159,-47.66528,-47.81175,-49.38342,-49.08969,-50.5587,-49.75011,-50.84802,-50.19045,-51.38063,-51.64699,-51.45119,-50.93726,-51.40402,-50.95006,-51.14714,-50.36804,-48.42183,-48.91813,-48.20673,-47.01235,-46.18671,-44.28171,-43.43963,-42.33786,-41.50141,-39.51811,-38.98605,-37.08249,-36.97177,-35.14233,-34.46301,-33.17957,-32.57836,-32.32673,-32.29587,-32.00108,-31.75456,-31.15439,-30.13309,-29.47343,-27.43086,-27.1694,-24.77763,-24.32946,-23.75816,-21.44194,-20.56307,-19.07497,-17.80475,-17.16181,-15.11823,-14.17941,-12.25653,-12.3115,-10.36647,-9.476547,-7.541246,-7.158065,-5.446041,-5.023557,-3.048202,-2.35081,0.4385543,-0.2355813,2.813861,2.78595,4.836275,5.169371,5.829191,6.683694,7.538211,8.379701,8.592889,9.138613,9.221698,9.334731,10.06269,10.1705,9.927822,10.18943,10.43817,10.81895,11.49236,9.921991,9.146536,9.185122,9.826061,9.152582,9.97812,10.51496,10.78931,12.91802,12.77369,14.21614,14.61457,16.03745,17.21654,18.36159,20.01859,19.74119,21.87075,22.26433,22.81848,23.81947,23.64357,24.65081,25.1616,25.22539,25.15928,24.88361,24.37644,25.88073,25.27833,26.36056,23.42186,24.23019,22.61395,22.48162,20.37389,19.57845,17.9062,16.8389,16.16408,13.95451,13.2114,11.83822,11.0504,9.086656,7.492982,5.277645,3.434192,2.167551,-0.0724353,-1.959649,-4.133103,-5.868586,-7.823725,-8.768982,-11.10387,-12.45569,-14.91044,-15.83889,-17.04949,-18.95199,-20.4312,-21.88522,-22.62497,-23.85918,-24.55517,-26.22835,-27.17251,-28.42556,-29.02224,-30.59521,-31.28635,-32.39574,-32.93069,-33.34741,-33.35086,-34.81903,-34.46202,-34.81137,-34.90301,-34.09154,-34.40175,-33.60577,-33.57916,-31.61019,-32.32408,-30.56973,-29.97903,-28.42698,-26.66911,-26.06372,-23.65853,-22.6164,-20.50026,-18.16822,-15.89103,-14.87276,-12.80962,-11.66908,-10.55758,-9.641763,-8.781578,-9.557266,-9.04572,-7.990854,-8.259292,-8.113743,-8.131065,-8.699928,-8.288092,-9.313137,-8.607866,-8.122337,-7.55274,-7.10522,-4.848985,-6.236423,-5.122987,-4.213625,-4.082865,-2.168544,-2.214032,-1.072027,-0.8347244,0.8119656,1.340009,1.682768,2.509065,3.598601,4.976548,5.384206,6.039083,6.732806,7.050159,9.09147,9.106629,10.59623,10.39288,12.06234,12.18051,13.08566,12.72296,13.73183,13.86623,14.51301,14.4172,14.8129,14.15927,14.77356,15.01649,14.93304,15.70073,14.83409,15.51678,15.6188,15.34412,16.05235,15.17081,16.50576,15.52441,16.34262,15.5544,14.75009,14.29161,14.55698,13.55982,13.9505,12.97199,13.67824,13.14228,13.3846,13.25126,13.49594,13.3747,13.32182,13.47122,13.50337,13.14573,13.18289,13.4204,14.23927,13.90988,14.39109,14.89475,15.19877,15.75525,16.18953,16.41698,17.21283,17.80201,19.89498,19.25179,21.34737,21.39408,23.69608,23.3952,27.05401,26.4829,28.93873,30.07496,33.00634,34.50396,36.02431,37.81518,39.62379,40.8002,42.15057,42.56208,43.19546,44.18181,45.08663,45.10975,43.30708,44.18631,44.49809,44.33569,45.36243,45.29203,45.88755,47.25642,47.88772,48.58706,49.781,50.27184,51.50457,52.64752,52.36834,53.91538,53.8351,54.25407,55.25922,54.66151,55.26199,54.02264,54.78819,53.38925,53.77333,51.64048,51.8397,50.08225,49.21178,48.16376,46.1892,44.44264,43.12507,40.42166,39.47952,35.7683,34.31497,31.61864,29.76709,26.66689,24.50465,21.02342,18.46472,15.98553,13.05374,10.20808,7.148826,4.5722,1.710004,-0.1631972,-3.994967,-6.306787,-9.915787,-11.71639,-14.8562,-18.20173,-21.14166,-25.63304,-27.81692,-32.00923,-34.80534,-37.8875,-40.53744,-43.9588,-45.55463,-48.99357,-51.79584,-53.4844,-56.02836,-58.20421,-59.9421,-63.00684,-63.96143,-65.91524,-66.77878,-68.14593,-70.35416,-70.75259,-71.57596,-72.31144,-73.60084,-74.72671,-75.1649,-73.76823,-74.37751,-74.49391,-74.41869,-73.8079,-71.71583,-71.69107,-70.89073,-71.22119,-69.99153,-66.06758,-64.20453,-63.27678,-62.8595,-60.62962,-59.07295,-58.66142,-58.24926,-59.02536,-58.25284,-57.57385,-57.49266,-59.51413,-59.8614,-60.73053,-61.23253,-62.11892,-64.19392,-64.50974,-64.74687,-64.13723,-63.70929,-65.00678,-64.95069,-64.64064,-63.36189,-62.41439,-62.63398,-63.01766,-60.89479,-60.24953,-57.79585,-58.22498,-56.89371,-55.92851,-53.02523,-52.41378,-50.38124,-50.0977,-48.35205,-45.97942,-43.27491,-42.9838,-40.73752,-39.41314,-36.56284,-33.78407,-32.52575,-31.42957,-29.17067,-26.57972,-24.15304,-22.91709,-20.59237,-18.33652,-14.3498,-11.81331,-9.009485,-7.412119,-4.742529,0.1857604,2.820592,6.036779,7.970612,10.77659,14.07166,17.80832,18.69857,21.35035,22.64628,26.5492,27.23953,31.63505,30.7942,32.77804,35.1531,36.4072,37.40379,37.18808,37.46927,37.72861,40.00086,37.7242,38.20122,36.78456,36.55219,36.60976,35.50238,33.3866,32.62496,31.28294,32.26752,31.74607,27.59952,28.5178,26.35759,25.63317,22.15755,20.18257,19.08732,17.96491,15.15513,13.76053,10.584,10.18216,9.229561,7.78489,5.606479,5.623918,5.398646,7.830692,4.722031,3.370353,1.247422,0.5284412,-0.01236983,-1.812182,-3.778331,-4.981101,-3.767488,-2.303457,-1.906551,-0.9275136,-0.160181,2.651989,4.823386,6.792393,7.981572,9.509888,12.93236,14.93685,18.70161,19.24517,22.9781,24.76119,29.27,31.44265,34.01291,35.69799,40.26208,42.01424,46.20862,46.68372,49.63002,51.02069,55.17255,55.36716,58.12418,57.11459,60.0097,61.18712,61.85668,61.82845,61.52639,61.85798,62.03418,62.35304,59.74631,58.86061,57.56375,57.42869,56.08219,54.46768,52.6934,51.44721,51.03575,48.18919,46.77087,43.9474,43.41314,42.82834,40.35618,38.22436,35.77453,33.68304,32.31455,30.4365,27.32186,24.99495,22.00205,22.05014,18.90916,18.383,13.19844,12.41452,11.11629,8.870938,6.309515,4.060646,1.815989,1.095217,0.1443344,-2.180088,-3.318819,-4.63691,-4.11853,-4.532896,-4.911763,-5.051007,-4.407424,-3.33338,-1.076027,-1.462671,-2.75848,-0.6075546,-0.9724208,0.007820796,0.1754124,0.9810982,2.003631,2.550204,3.901017,4.711683,4.203925,5.195313,5.21709,6.047237,5.616043,7.296924,7.216955,7.64391,6.494172,6.093469,4.740478,3.984796,3.598747,2.969987,2.37037,2.900351,2.688475,2.538149,2.013986,0.5085994,-1.523146,-1.502769,-2.141766,-3.057811,-3.080998,-3.858501,-3.774775,-3.77034,-4.143585,-4.52738,-2.724022,-2.380315,0.185298,0.2899662,1.154629,0.393201,1.460329,0.667696,1.227931,-0.6813323,-0.4356758,-2.370362,-2.143987,-3.831685,-4.533204,-6.397234,-6.646754,-8.776702,-8.946901,-10.35923,-11.63844,-12.63962,-13.46918,-13.92294,-15.87807,-16.14059,-17.89027,-17.66542,-18.57486,-18.84555,-19.69981,-19.75584,-20.01445,-19.81404,-18.85346,-18.84797,-17.68386,-17.11856,-16.15592,-15.05354,-14.49907,-13.15946,-12.07705,-10.67484,-8.912192,-8.199663,-6.32701,-4.129526,-3.268369,-0.5065023,0.4923276,2.43471,4.595265,5.503406,7.978956,9.689121,11.36977,13.5717,15.46073,17.8998,19.20517,21.44046,23.10328,24.33503,26.45461,26.91402,28.39975,28.54703,31.42071,32.117,33.81617,35.44019,38.17132,40.09615,41.6879,43.29807,45.17645,46.42275,48.26838,48.98099,49.67308,50.77039,52.17888,53.33588,55.03874,55.37228,55.55283,54.01896,56.25487,53.59161,54.12067,51.73556,50.38014,49.19722,45.82483,44.16276,40.51217,38.50247,34.82853,30.73852,28.42054,26.16349,23.69629,20.6412,19.12982,16.2431,13.82568,12.51933,10.73109,10.38497,9.33892,7.004007,5.300322,2.490386,0.5038539,-2.510473,-5.187197,-6.833116,-9.054207,-11.04845,-12.75316,-15.27832,-16.34721,-18.20181,-19.44212,-21.01842,-22.57832,-24.19437,-25.13103,-26.94763,-27.50889,-29.63799,-30.03838,-31.43482,-31.32006,-31.73659,-31.99063,-32.70872,-33.0378,-34.1698,-35.1543,-36.23526,-37.58035,-37.54587,-38.84937,-38.54818,-40.01274,-39.38199,-40.06523,-38.88686,-39.94887,-38.49523,-39.00201,-37.9215,-37.46464,-36.5881,-36.21612,-35.24894,-34.8134,-32.82044,-33.35309,-32.01782,-31.81469,-30.57502,-29.55324,-29.29399,-28.62488,-28.70602,-27.93216,-27.84684,-27.58212,-28.46793,-28.5143,-29.67422,-28.8591,-30.37449,-29.82801,-30.55595,-29.14175,-29.20061,-28.63162,-28.08481,-27.5573,-27.93406,-27.69197,-27.24376,-27.2053,-27.02941,-26.84302,-27.15231,-27.87158,-26.16987,-27.6847,-26.55455,-26.69543,-26.74189,-26.47468,-26.02332,-25.38196,-26.84314,-24.81914,-26.49144,-25.41374,-25.7388,-25.94322,-24.83502,-25.86487,-25.01838,-26.46664,-25.57106,-25.11403,-25.24063,-25.67476,-25.81805,-24.91901,-25.54995,-25.57075,-26.05924,-25.74132,-26.93073,-26.54326,-27.86345,-28.11744,-28.9747,-29.29175,-30.1477,-30.36138,-29.34639,-30.24914,-30.3071,-31.19498,-30.82182,-31.84428,-31.73747,-32.48399,-32.36337,-32.8422,-32.85096,-33.24171,-32.4913,-32.10049,-32.4487,-31.54107,-31.09063,-30.59624,-30.13232,-31.65309,-31.50326,-32.69367,-32.74441,-33.5059,-33.67898,-34.65918,-34.03844,-34.70051,-34.87966,-35.83805,-34.62467,-36.86487,-35.85726,-37.29666,-36.37962,-37.7518,-37.7085,-38.02959,-38.04515,-38.70463,-38.47519,-39.75228,-38.56554,-40.10224,-38.54086,-39.80465,-39.04808,-39.84981,-39.20781,-40.27688,-38.41344,-39.5203,-38.48759,-38.20763,-38.22165,-37.62984,-38.38287,-37.3269,-38.15817,-37.3305,-37.79361,-37.36382,-37.52238,-36.85025,-37.06386,-36.85049,-37.28926,-35.75035,-34.59107,-34.96211,-34.71301,-35.05362,-35.15449,-34.63943,-33.73129,-35.8938,-34.44823,-35.78127,-34.40096,-35.75476,-34.84873,-35.62604,-35.10905,-35.1988,-35.34138,-35.09059,-36.0096,-35.4851,-35.08054,-35.61293,-34.80193,-35.5319,-34.0132,-33.49192,-32.54569,-31.35434,-30.29693,-28.78349,-27.7288,-27.34932,-26.07946,-25.10071,-24.22679,-22.7771,-21.64195,-20.42286,-18.87563,-17.19905,-15.25045,-12.87097,-10.72298,-9.672728,-7.605898,-5.007393,-2.096522,-0.1727622,2.520421,4.509605,9.037443,10.1448,14.46568,16.07897,19.9218,22.81481,25.75991,29.44673,31.55043,34.31282,38.06629,40.15097,43.92343,46.00204,49.64521,51.70031,55.10633,57.06776,60.4809,62.02748,64.49492,67.18816,69.03429,69.85223,73.23673,73.53081,76.97444,76.47874,79.42913,79.35059,80.97107,82.68544,83.04742,84.68031,85.2279,86.35475,87.07456,86.19982,86.36701,85.73852,85.27095,84.3543,84.38704,81.62587,81.39302,79.52564,78.62006,77.2458,75.58498,74.1151,72.67112,71.15155,69.00778,66.85613,65.89707,65.28017,64.09278,64.47514,64.11425,64.61464,64.23603,63.89172,65.44544,64.49917,65.59625,65.8058,67.16173,67.0923,68.53103,68.35053,70.22509,70.0075,72.05487,71.9572,71.98403,73.10397,73.25191,74.05302,73.76279,74.31573,74.65819,74.82606,76.01516,75.75515,76.3137,75.97373,75.9906,76.01547,74.3523,73.6507,72.1824,70.39786,69.96097,67.47522,65.70319,63.67911,62.74601,60.13163,58.84221,56.20181,54.30452,52.17542,50.48768,47.99042,45.6568,43.53228,40.94356,39.28541,36.96888,33.39073,32.74149,27.98143,27.58101,23.37117,21.78982,17.83087,16.34396,12.55429,8.676009,5.458974,3.332432,0.5136198,-1.561371,-3.467209,-5.456798,-7.267799,-7.921698,-9.660831,-10.30649,-11.62419,-11.92592,-11.69816,-12.05516,-11.26984,-10.35224,-10.51542,-7.088166,-7.323521,-3.294761,-3.328241,0.1276769,2.230102,4.60759,7.116513,8.299496,10.56967,11.83093,12.67034,14.83259,14.8187,15.90964,16.23629,17.01294,17.28578,17.2433,16.99546,16.46315,15.76397,14.38342,12.32368,10.63727,8.021148,6.433389,3.75869,2.685502,-0.5801596,-2.303266,-4.682562,-6.660135,-9.738157,-11.81437,-14.41198,-16.58291,-20.17867,-21.96113,-26.04899,-27.44629,-31.23039,-33.23472,-36.25966,-39.51237,-41.90318,-44.58444,-47.88273,-50.60199,-53.35416,-56.80302,-58.34785,-61.80779,-63.98441,-66.37238,-68.76991,-71.01414,-71.24869,-73.87355,-76.03118,-76.8006,-78.70292,-80.17616,-81.24037,-83.8398,-84.20839,-85.81333,-86.85704,-87.8526,-89.45363,-90.33397,-90.82646,-90.31058,-91.30201,-90.35256,-90.38587,-88.28824,-88.41107,-86.72121,-86.78249,-82.36301,-80.29877,-76.54365,-75.07313,-71.74236,-72.01226,-69.60914,-69.8326,-70.01319,-70.81386,-70.87963,-71.6719,-72.63473,-71.87452,-72.69273,-72.78387,-72.93749,-72.79516,-73.03085,-73.69276,-74.31994,-73.7813,-74.05498,-72.97599,-73.48367,-74.43935,-70.46209,-76.80326,-70.37486,-73.89256,-68.39478,-69.48373,-65.54246,-65.4143,-61.65762,-58.55802,-53.43783,-50.18731,-45.75541,-41.47854,-36.21933,-32.5342,-28.84409,-26.62433,-22.8174,-18.79161,-15.47947,-13.18593,-11.24548,-8.904839,-6.181683,-2.941328,-2.270533,-1.119986,1.618099,2.887223,5.598222,5.352142,7.050049,6.484572,9.744928,9.644893,11.46655,9.927693,11.73092,12.2008,13.60047,12.89775,13.64434,11.49661,13.23237,12.47406,12.91202,12.2618,12.3742,14.50353,15.65397,16.49649,17.20414,18.29805,21.0279,22.19104,26.72746,27.77022,29.84725,32.89677,36.08225,38.77611,37.83244,39.07146,40.9483,41.97969,42.58479,41.6769,41.43045,41.88671,42.92612,40.99996,41.02071,38.82137,40.86434,41.67263,41.66277,41.29176,41.50584,43.07489,44.13513,45.48849,46.55437,47.95113,52.37537,53.094,55.71313,53.88751,54.33654,53.68791,54.67818,54.4851,53.46846,53.56562,53.34975,54.57088,53.18591,52.97355,51.11091,50.85276,51.09451,49.59711,48.40778,45.277,44.53866,43.60641,41.0288,37.93854,34.72763,31.68336,32.75866,24.883,30.35258,22.80962,25.38844,23.18403,23.70238,23.15081,23.33877,25.15109,26.41678,26.49332,27.87986,27.48406,27.97474,28.75208,28.36195,29.70694,29.58822,31.71068,30.41063,32.97175,32.12763,33.5491,33.61099,35.94008,34.40561,37.25401,36.26648,37.33577,37.84131,37.65526,37.88896,36.93475,37.81267,36.16261,36.55393,34.54135,34.86921,32.36192,31.88,29.22156,26.70766,23.92756,22.68492,21.22665,18.58548,17.45747,15.84918,14.88284,13.75196,11.72115,11.13247,11.19182,10.8777,10.88939,13.38727,10.32191,11.68454,11.81885,12.19981,12.28972,11.962,11.89479,12.75051,12.87416,13.21388,13.42565,13.46304,13.90731,14.89697,13.52062,16.09611,13.55379,16.66199,14.8488,15.5661,15.0895,14.59408,15.40788,13.96319,15.23692,13.75257,13.49604,13.56663,12.32331,12.35019,10.7501,10.28784,9.224413,9.074607,7.415731,6.745581,5.325457,3.988782,2.876068,1.353942,-0.4275761,-1.360929,-3.352602,-3.861125,-6.206534,-6.760837,-9.688453,-10.09547,-12.43398,-13.64799,-15.99254,-16.89152,-19.32275,-20.48744,-22.9081,-24.70433,-26.25949,-28.79334,-28.50905,-32.14889,-31.60569,-35.24352,-34.32307,-37.76571,-37.91611,-40.11084,-41.94354,-42.62999,-43.49839,-45.95923,-45.7589,-47.2496,-48.06474,-49.11276,-48.62343,-50.56719,-50.82115,-50.13709,-51.07334,-50.98665,-50.92286,-52.05282,-50.02105,-50.95948,-49.59763,-50.02902,-49.38971,-48.02373,-47.6396,-45.9776,-45.60084,-45.33963,-44.5971,-42.91088,-41.80341,-41.324,-40.63092,-40.74625,-39.93653,-40.57223,-39.99782,-40.99792,-41.4645,-41.90868,-42.10555,-42.48813,-42.30537,-43.54904,-43.49989,-43.67719,-44.75791,-44.56046,-45.48795,-44.83691,-45.00108,-45.33825,-44.5371,-44.84868,-43.86431,-43.21769,-43.04441,-42.46865,-41.184,-40.43438,-38.77358,-37.44045,-37.40606,-33.2328,-34.7838,-29.98402,-30.04602,-27.73472,-25.71234,-24.25946,-21.44204,-20.18646,-17.77496,-15.54243,-13.37928,-10.7713,-8.73953,-6.15435,-4.303332,-1.568776,0.04019039,3.009549,4.266732,7.09856,9.10589,11.65025,13.85024,16.57096,18.17587,21.69036,23.58887,26.28079,27.10651,29.17457,29.97986,31.18505,30.41657,30.58456,30.76757,30.84436,31.70738,31.06655,31.90704,31.27797,32.76437,31.84822,32.50749,32.27003,31.93055,31.73917,31.76592,31.15132,30.64085,30.57658,30.13246,30.03768,29.88044,29.49902,27.94729,29.13564,27.80997,28.62697,26.35703,27.67291,25.00101,26.97636,24.5085,25.60012,24.43884,24.17514,24.42306,23.8616,24.04581,24.51408,23.94694,25.60072,25.4048,26.45607,27.75532,28.45851,30.02754,29.09423,30.28605,29.88321,29.80466,30.26839,29.71681,29.77252,28.84095,29.32732,28.68666,28.18398,27.80684,26.23734,26.64891,26.17996,25.32653,24.80945,23.85456,24.02088,23.13552,22.39116,20.58756,18.32381,18.79873,17.28913,16.62377,15.7097,15.5082,14.16814,14.04394,13.16798,12.85938,11.98847,11.49591,13.15297,10.83627,12.63555,8.780758,12.33108,9.559231,10.7397,9.747258,8.575886,5.323933,7.975209,3.457653,3.959092,0.1590338,0.2226452,-0.7404974,-1.433481,-2.88579,-2.868866,-3.818431,-3.721071,-4.143963,-4.499636,-5.51756,-6.012195,-7.328498,-7.665088,-10.4241,-11.0967,-13.73834,-14.62285,-16.98715,-17.10231,-18.77925,-19.79276,-21.18485,-21.50368,-23.33932,-24.58484,-25.21868,-25.08278,-26.11094,-26.60524,-29.1972,-29.00285,-30.02638,-29.99184,-31.89849,-32.8036,-34.46341,-35.9216,-37.24819,-38.34559,-40.71718,-41.09041,-43.77546,-43.74221,-46.77564,-47.03221,-49.38699,-49.35925,-51.2127,-51.63989,-53.42434,-53.35869,-53.94677,-53.23306,-53.50714,-53.36992,-53.43246,-51.71378,-51.07791,-50.28964,-49.21119,-48.93161,-46.49068,-46.28596,-43.66302,-43.54215,-41.47255,-39.67399,-37.89742,-35.87196,-35.18231,-32.17299,-30.90986,-27.33199,-26.68557,-24.96601,-23.20132,-20.58589,-18.66312,-16.63335,-15.61698,-13.87981,-11.70938,-9.696917,-8.497922,-6.633975,-4.254959,-1.660572,1.188534,3.595103,5.500776,7.226254,11.45426,14.11677,17.06868,19.02099,22.27524,24.97351,28.55357,30.90957,31.26803,36.65408,35.38184,40.06071,39.47897,39.81563,40.56672,44.32583,41.75031,45.08032,43.42743,45.31302,45.79323,46.44856,46.65659,45.9565,45.65132,46.17703,45.85169,45.69055,44.2606,43.62037,43.92159,43.52716,43.47274,41.09364,39.97962,39.50149,38.16544,38.67055,36.01752,36.94876,36.04093,38.64694,38.04964,39.93871,40.66608,42.86797,44.0046,44.97493,46.28337,47.08277,48.98465,50.04356,50.38977,51.13612,50.35642,51.9109,52.86458,53.27161,52.22426,52.67081,52.16362,52.81722,52.47602,51.46891,49.75713,49.88148,48.70579,48.52508,46.68042,47.23097,46.45638,48.96996,47.39797,47.08197,44.81761,43.63832,41.63534,37.51851,34.43546,27.70568,24.65996,18.67206,15.55223,8.531572,4.300866,-0.1492431,-3.487971,-6.693264,-11.14546,-13.92638,-17.52827,-18.22675,-22.31099,-23.5083,-26.41352,-27.14115,-28.6817,-29.38125,-30.65645,-31.40276,-31.46464,-31.33266,-31.69457,-31.1735,-31.52101,-29.66817,-29.75363,-27.86665,-27.47446,-26.32269,-24.89586,-23.62687,-22.25571,-20.70481,-19.06431,-16.50302,-13.94997,-11.99474,-9.534131,-6.544493,-4.440603,-0.8422796,1.099132,4.458458,6.280317,9.634616,12.02099,14.31515,17.08365,18.2002,20.56682,22.29342,23.61403,25.08024,26.34898,27.01468,27.73518,28.30757,27.91464,27.42254,26.83277,25.26406,24.34919,21.24763,19.80114,17.86041,15.69876,14.75509,11.68793,10.64805,8.017676,7.019989,4.689913,3.099908,-0.5150064,-2.742056,-5.61278,-9.400705,-12.19096,-16.93231,-19.45359,-23.26608,-26.11,-29.46414,-33.17479,-34.62774,-38.08183,-39.11536,-42.38943,-42.23006,-45.02737,-44.66955,-45.52087,-45.76809,-45.84245,-44.34109,-43.79809,-41.27011,-38.96683,-36.77714,-35.01458,-32.69631,-32.48831,-31.52298,-31.75058,-32.6301,-31.86248,-34.04081,-33.91473,-36.19716,-35.77934,-37.05153,-36.11101,-37.87434,-36.32121,-37.29026,-37.06093,-36.56202,-36.91727,-36.35495,-36.94974,-35.54779,-37.43552,-36.20856,-37.09294,-36.69638,-36.70235,-36.37515,-36.54345,-36.85466,-36.63654,-36.81369,-36.94482,-36.69821,-37.8633,-36.86562,-37.45601,-37.04599,-37.92236,-39.03971,-40.04428,-41.09402,-41.98009,-42.80456,-44.0674,-44.84914,-45.23502,-46.33258,-44.33651,-45.9827,-44.62528,-45.85934,-45.7928,-45.81252,-47.48361,-47.38085,-49.55885,-49.5581,-51.06215,-52.00436,-53.61593,-53.87767,-54.60269,-55.82916,-56.10284,-57.21726,-56.53398,-57.00292,-56.79824,-56.90185,-55.97486,-55.54552,-54.32143,-53.13109,-51.7942,-49.96007,-48.28681,-45.04968,-43.49281,-40.58495,-38.21535,-36.15588,-32.33169,-30.88284,-27.89262,-26.44898,-23.22579,-21.65872,-18.71347,-16.7676,-13.69694,-11.27145,-7.608046,-5.116366,-1.719438,0.7810972,3.822593,7.485149,9.568605,14.29259,15.5412,19.4818,22.02656,25.06718,27.84414,29.65813,32.78131,35.20401,38.28532,39.2348,42.71799,43.97615,46.69146,48.99578,49.87888,52.02901,53.70031,54.45096,56.25792,57.24113,57.83434,58.76963,59.44555,60.14132,61.02838,60.18868,60.92497,61.62505,61.31003,62.2338,60.27161,61.92191,59.76429,61.57016,59.44631,59.51295,58.83037,58.81289,57.76051,57.84255,56.43341,56.17503,55.97377,55.32838,55.25383,54.15309,52.24463,50.57749,49.37042,47.71747,46.47462,46.09886,45.973,46.44406,47.51386,48.44252,50.08942,52.06022,55.61309,54.70976,57.85893,56.59367,59.2334,61.10418,61.05273,62.7457,62.5838,64.05908,64.08675,64.49251,63.6455,64.65121,63.83619,64.27283,64.28274,62.88514,63.31865,61.95259,61.06825,60.64796,58.85576,57.66131,55.97358,54.87663,53.03812,51.32452,49.12502,47.67893,45.02216,42.81444,40.58582,37.69997,36.04808,32.72229,31.07808,26.84593,25.01561,21.06636,19.4604,15.66158,13.24601,9.820248,7.296032,4.191237,1.714544,-2.292384,-4.326134,-7.440928,-9.751241,-11.94376,-15.17613,-17.89508,-19.88807,-22.58584,-24.10766,-27.25496,-28.80582,-30.56283,-32.04015,-33.25,-34.12545,-36.10347,-36.79708,-37.59853,-38.91912,-39.18182,-40.84196,-40.97712,-41.37884,-42.46625,-42.58598,-43.18963,-42.95278,-42.65337,-42.55663,-42.57127,-41.71186,-41.17226,-40.67463,-38.84238,-39.55094,-36.65096,-37.69725,-34.68291,-34.91165,-32.12205,-32.20621,-31.03676,-29.33931,-29.22971,-28.11372,-28.37275,-27.83104,-28.03138,-27.4577,-28.64532,-28.75865,-28.9934,-27.86127,-27.87957,-27.37335,-26.76057,-26.63742,-25.61018,-24.92046,-24.55831,-23.83749,-23.13192,-22.44094,-21.11287,-20.99817,-19.64242,-19.12864,-16.94222,-17.56561,-16.31659,-16.11889,-15.97569,-14.17036,-15.02741,-13.64607,-13.6353,-13.61291,-12.2247,-13.05258,-11.56433,-11.75736,-10.99979,-11.65204,-9.909125,-10.5588,-10.49079,-10.28219,-10.11828,-9.415084,-9.410007,-10.14229,-9.8609,-9.056248,-9.094755,-7.99631,-8.398958,-8.39493,-8.644183,-8.533943,-10.12903,-10.11225,-12.48188,-12.61295,-14.0361,-15.31273,-15.94938,-17.21707,-17.75596,-18.32923,-17.80907,-19.75752,-18.45279,-19.12034,-18.36948,-17.9506,-17.63155,-16.97434,-15.3718,-14.69923,-12.49926,-12.02133,-9.202895,-9.300602,-5.655366,-5.145751,-4.121624,-1.920324,-1.069148,0.8736929,2.16968,3.62147,4.082933,6.153943,6.768088,9.126852,9.915911,10.85477,12.56025,13.40481,15.09712,15.8741,17.24867,18.17529,19.97391,20.71893,22.63305,22.16872,25.41599,25.33146,26.98144,26.96706,27.51578,28.9574,28.47291,30.52689,29.57468,30.90009,30.70619,31.17125,31.73929,31.36849,31.56394,30.98459,31.15615,31.91129,31.92683,31.89838,31.56899,31.72984,31.34691,30.40584,29.26901,28.29731,27.84462,26.01688,25.48876,23.69387,22.07156,19.53296,16.7611,15.15857,12.0288,11.02922,9.370911,9.398534,8.568989,8.541177,9.230765,9.54589,11.22935,11.62064,13.31012,13.50776,18.01126,17.54819,21.0735,22.25661,24.72078,26.94903,29.38518,31.61288,34.11232,35.99387,37.9152,39.48066,41.00683,40.34837,42.1981,41.35046,42.6223,41.78845,41.6845,41.34894,41.28696,40.37768,40.55927,38.8296,38.57314,37.46987,36.8356,34.84706,34.73109,31.99026,31.1632,29.54856,27.67505,25.78572,24.17314,21.24029,20.03775,16.74813,14.4799,11.38304,9.230071,5.670837,3.374154,-0.4431365,-3.481704,-6.732724,-9.140794,-13.02039,-16.08853,-19.67126,-22.35238,-25.6295,-28.40913,-31.97673,-34.60773,-37.45187,-40.66413,-42.81704,-45.91302,-48.75032,-51.10405,-52.46912,-55.64199,-56.39252,-59.4592,-60.97683,-62.70175,-63.57284,-65.58958,-65.52766,-67.86385,-66.16219,-67.0633,-65.80127,-65.40134,-63.54211,-63.07895,-60.8719,-61.26605,-60.24315,-59.85032,-59.06853,-60.69743,-61.28262,-62.59668,-63.95904,-64.51029,-66.59833,-67.02504,-69.0105,-70.13564,-71.33296,-72.95501,-74.63747,-77.56371,-79.237,-80.66007,-80.88571,-81.21523,-81.03606,-80.19004,-79.87926,-77.99902,-77.2838,-75.18724,-74.02512,-71.56846,-69.21827,-65.93794,-64.26714,-60.09156,-59.03904,-54.37227,-52.45999,-49.3993,-45.82517,-43.36152,-38.879,-36.66559,-33.60723,-29.1819,-26.88882,-22.37322,-19.15059,-14.84721,-12.13216,-7.057335,-5.146714,-0.0001826931,0.8161868,5.251971,7.264164,10.36337,13.9497,14.59258,17.84616,19.34337,21.85832,23.21237,24.40683,26.466,26.74068,29.39039,29.35866,30.70517,30.87964,32.37831,32.66701,33.48735,33.34135,33.86321,34.15335,34.14642,34.08174,34.8839,33.88019,35.62565,34.4977,35.67502,34.027,34.98605,32.66611,33.18934,31.50912,31.37734,30.67773,30.62409,31.64483,31.66628,32.20321,33.25552,34.81017,35.79973,38.13494,38.26837,41.6247,43.30005,46.59882,48.90621,52.12821,54.29374,58.99969,61.40668,64.82205,66.68766,68.47898,68.8957,71.44177,70.29221,71.54729,69.73011,70.89639,69.1982,69.77099,68.53147,67.30722,66.80223,65.55139,64.7042,63.50212,61.71069,59.92524,57.93354,55.9462,52.27051,49.53808,46.49775,44.32698,40.87607,37.76027,33.80555,30.90192,27.37856,24.59226,20.43334,17.40221,14.00181,10.76954,8.437601,3.47537,1.382191,-2.798292,-4.085929,-7.181408,-10.1719,-11.43436,-15.34381,-16.13162,-19.00503,-21.06446,-22.50129,-25.93063,-25.21897,-26.85683,-28.90768,-29.92797,-30.96596,-31.23702,-32.82434,-32.47482,-33.67788,-32.81708,-33.43161,-32.03599,-33.54164,-31.7484,-32.76728,-30.20357,-30.82938,-28.58767,-29.27321,-27.13838,-25.72353,-24.32138,-23.36162,-22.27164,-20.8768,-19.04668,-16.64448,-16.46219,-12.864,-13.46604,-9.489703,-8.708354,-7.697885,-7.180368,-6.370279,-5.250861,-4.219613,-3.977104,-2.877547,-2.126405,0.1391233,2.279979,4.139074,5.784718,7.941339,10.06518,12.32318,13.77413,16.10027,16.35623,21.93326,21.94308,26.66279,27.00481,29.73561,29.94693,30.99497,30.33996,29.77234,28.14453,27.03836,24.66787,23.08095,19.07864,17.06279,14.13172,11.5027,7.340792,4.472634,1.257197,-2.121425,-4.803374,-8.250947,-11.77315,-15.10471,-18.00826,-20.69513,-23.27657,-27.67461,-30.12684,-32.87189,-35.32258,-38.58291,-40.81659,-43.59171,-45.37094,-46.93114,-48.46555,-50.21605,-51.21435,-51.37913,-51.77011,-51.73832,-52.04335,-51.39996,-51.38151,-49.10705,-48.62594,-46.61498,-45.33974,-41.76663,-40.58526,-37.34191,-36.217,-33.72194,-31.57743,-28.39704,-26.33983,-23.18228,-21.46541,-16.58546,-15.00509,-10.80823,-8.756363,-4.793527,-2.218923,1.641415,5.949382,7.801418,12.22563,14.5815,18.57367,21.2873,23.6277,26.26681,29.07272,31.09571,34.11341,33.90411,36.79335,35.61195,37.45791,36.4027,37.09721,35.18573,36.36295,35.32076,35.03533,35.03966,32.87492,33.5772,31.80731,31.28588,30.33822,28.95483,29.61136,28.00754,28.40131,26.72298,26.37186,24.88521,25.33943,23.70279,23.47739,22.51413,23.45057,22.49306,23.47401,22.8534,23.30128,24.76813,22.9531,23.97492,20.80168,22.63447,18.23074,18.90161,15.19817,14.27108,10.2192,8.482856,5.260003,2.696153,-0.8910901,-3.706758,-6.943128,-9.942996,-12.92284,-15.86555,-19.91359,-22.98664,-26.12631,-29.06741,-33.27307,-36.19129,-40.05844,-42.43281,-45.44103,-48.81338,-51.73096,-54.65413,-56.54303,-58.9203,-60.94878,-62.86384,-65.16208,-65.5237,-67.04512,-67.83766,-69.00877,-69.59896,-69.61945,-69.85875,-69.75108,-69.92613,-69.55069,-68.35063,-66.89817,-65.46091,-63.06181,-61.34508,-58.53884,-56.39311,-54.00061,-51.86016,-49.8578,-47.09552,-43.87925,-42.1077,-39.5194,-36.98769,-33.67339,-30.35761,-27.71947,-24.01202,-21.55882,-16.24969,-13.86677,-9.154962,-6.514634,-2.760437,0.8165053,4.114502,8.174233,10.44353,13.30295,16.15122,16.73058,18.0875,18.85358,20.26342,22.17312,24.46279,25.52141,28.41345,30.77427,33.53278,36.77614,39.10043,42.051,43.89024,47.09472,49.09085,52.16733,53.02634,56.25495,57.019,60.78817,61.30351,63.88036,64.79609,67.4782,68.43642,71.06036,70.63441,73.49073,71.89048,75.14587,73.77944,75.54433,74.40285,76.05783,75.15696,76.86884,75.69945,73.86491,73.95198,72.05497,71.60036,68.19784,68.35591,65.41805,64.05651,61.50503,59.5731,57.83892,55.56272,53.31343,50.45049,48.50967,46.20827,44.34592,40.76402,38.43316,35.79449,33.57966,31.45213,28.69205,26.23892,24.03565,22.62854,20.67729,18.37055,16.29548,14.15146,12.63837,12.31403,9.631549,9.074503,7.948766,7.533958,6.439421,4.767945,5.382986,4.55495,6.364968,6.654848,9.291545,9.754082,12.53741,13.77688,16.13125,17.00161,18.82254,19.97398,22.92699,24.67765,27.38844,27.39168,30.74914,32.02566,35.34638,35.65578,38.10773,39.11088,41.16727,43.58513,43.27115,45.37768,44.91787,46.95891,46.87348,46.54613,46.56148,44.33525,44.64352,42.26368,40.3527,39.37804,37.59859,36.78762,34.72965,32.39801,30.07679,28.34087,25.52898,23.6609,20.77429,17.4799,15.51347,11.82174,9.681091,6.157336,3.355169,-1.351398,-2.348307,-7.215097,-8.516897,-13.96099,-15.86694,-19.81562,-21.28056,-26.14511,-27.80361,-32.03984,-32.75685,-37.86713,-38.318,-43.67643,-44.41957,-48.55049,-49.54896,-53.19034,-55.2026,-58.04136,-59.79364,-61.6878,-63.65264,-65.14603,-67.28314,-67.26257,-69.6996,-70.36053,-71.51839,-71.39409,-72.31399,-72.25158,-73.25995,-72.97117,-72.42551,-73.45521,-73.2416,-74.5887,-70.95182,-70.556,-67.25378,-66.97926,-64.4765,-63.42989,-63.01961,-63.94936,-66.08175,-68.48085,-69.78028,-70.9393,-73.66438,-76.01127,-78.66033,-79.33858,-81.70876,-83.45326,-86.70129,-87.1827,-87.26677,-87.59435,-88.37634,-88.67713,-89.33537,-87.82367,-87.74531,-86.90919,-87.00394,-86.19224,-83.34289,-82.46406,-80.08033,-79.963,-77.73731,-75.63986,-72.3985,-70.72501,-68.52702,-67.4267,-62.10261,-60.27575,-56.00906,-54.28887,-50.79834,-46.17374,-42.77962,-37.64122,-36.05301,-31.57728,-27.62199,-22.8837,-18.95013,-17.35125,-12.13049,-9.097272,-3.636186,-0.5400277,2.07602,5.597431,9.834611,12.62158,15.74477,16.75389,19.20909,20.72805,24.59629,24.71808,26.97935,27.66575,30.26103,31.15842,33.72309,32.16788,34.82645,34.64343,36.92565,36.95147,37.66055,36.56911,38.66453,38.54761,38.70767,37.38166,36.92358,36.33595,38.40665,36.08256,36.22934,33.99242,34.4252,33.53142,32.16051,30.36008,28.09696,27.63908,25.72189,25.15595,22.37266,20.52448,19.81798,19.49161,17.84355,16.77986,14.71835,15.70881,15.15783,16.96002,17.93027,20.18931,22.84701,23.95569,24.47436,23.16178,21.91466,18.92535,17.95285,14.71049,13.48819,10.26338,11.35166,8.699714,8.308117,6.960873,6.878987,6.023277,6.058225,5.709351,4.825956,5.15379,4.8645,6.654738,5.226726,6.706449,5.566076,7.991402,6.981387,9.274241,8.118343,9.154496,10.49947,10.02088,11.84019,11.04656,12.83797,12.82112,14.52704,14.76559,15.48386,16.72393,18.77868,19.56485,21.44872,21.98999,23.69775,26.05438,26.52759,29.99881,29.12385,31.78025,32.23661,33.46136,33.90222,34.05822,36.44816,37.1298,40.19565,40.49418,41.38458,43.17473,43.02951,44.7447,44.83832,44.98673,44.70353,46.75718,46.60223,47.20765,47.08305,46.7555,46.93795,46.95008,46.40421,45.53532,45.22514,44.69389,44.06625,43.79102,42.08579,41.32222,40.28474,39.66259,38.64315,36.74893,35.71097,35.36485,34.78414,32.74886,30.9678,29.31587,27.87558,25.58364,24.50536,21.06949,19.88318,16.73451,16.04773,13.24843,11.06816,8.614208,7.157808,4.814231,3.033153,1.003105,-0.6318313,-1.977198,-2.778409,-3.948229,-6.889372,-9.65788,-12.72502,-14.13327,-17.37105,-18.55134,-22.05868,-23.44349,-25.03824,-28.05173,-30.64019,-34.18813,-36.14516,-39.47507,-41.54515,-44.70158,-47.71882,-50.31269,-52.18711,-54.86223,-57.3646,-59.3969,-61.18637,-61.43182,-64.41941,-63.58332,-66.81115,-65.27707,-66.62744,-65.69947,-66.49181,-65.71842,-65.47725,-63.54503,-63.06488,-61.37848,-59.78256,-58.03073,-55.44975,-53.56434,-51.35784,-48.82463,-47.24186,-43.36636,-41.75769,-38.09332,-36.51424,-33.32516,-31.83914,-28.2272,-28.20162,-25.31654,-24.71661,-21.865,-19.38441,-16.73736,-13.88781,-11.31572,-8.259538,-5.41143,-4.18325,-0.8228225,0.07975739,4.550535,5.312384,8.397435,9.126901,12.72555,12.47996,16.68061,16.08213,18.74247,18.68825,21.54877,21.46461,23.18285,23.03143,24.28913,25.00411,25.63076,25.82009,25.8978,25.7838,26.48886,26.38783,26.18607,25.97359,25.65921,25.9399,25.51801,23.8099,24.44959,21.72333,22.15164,21.32611,20.15656,18.64399,18.14271,16.91732,15.40066,14.50029,12.33826,11.84456,10.92604,11.44459,12.28367,12.76152,14.63873,16.67977,18.14201,20.43208,22.0827,25.21093,27.82379,30.79561,33.24151,34.18863,36.28925,37.71476,39.46478,40.73978,41.98003,42.29577,44.14911,44.03477,45.49459,44.07915,44.81188,44.04209,44.48089,43.30054,43.55832,41.84371,42.12579,40.69849,40.43948,37.67172,37.91017,35.47819,34.81444,32.83866,31.02105,28.84196,28.30472,25.41816,24.92006,21.24988,19.88294,16.54832,16.66099,12.42269,11.98625,8.288779,8.422572,5.329662,5.044038,1.117832,0.008639778,-1.645317,-3.294801,-5.276182,-5.565361,-9.469288,-8.277238,-11.2448,-11.1,-13.86613,-14.43785,-15.49107,-16.32061,-17.9233,-18.08641,-19.57884,-19.14039,-21.08223,-19.99455,-22.1306,-21.61473,-22.75976,-21.82397,-23.08225,-23.08288,-24.35769,-23.48697,-24.9353,-23.61316,-24.73527,-24.18861,-23.743,-23.81605,-22.91048,-23.63128,-23.04288,-23.20495,-22.37146,-21.7005,-21.7779,-22.16892,-21.39772,-22.38422,-22.36179,-22.70855,-24.30995,-23.42434,-24.63662,-24.65749,-26.98175,-25.97055,-29.34884,-26.71768,-29.40194,-27.92564,-28.69498,-27.6808,-27.01359,-25.62854,-26.53214,-25.79081,-28.02269,-27.43099,-29.40287,-28.79246,-30.80476,-30.23883,-30.63746,-29.83554,-30.61063,-29.54072,-29.45752,-27.58804,-26.8035,-26.08092,-25.22845,-23.50561,-22.0505,-20.74819,-18.84452,-18.30599,-15.30436,-14.2466,-11.34345,-9.496508,-8.441735,-5.198586,-3.529171,-0.996846,0.02408557,2.526846,3.314009,6.382802,7.612203,9.798935,10.66453,13.01169,13.33231,17.27701,15.84743,19.50246,18.3991,22.13136,20.51263,23.60862,22.15126,24.16764,23.69191,25.87269,23.91476,26.68622,24.20643,26.25343,25.8213,26.39488,24.65592,25.71841,23.67497,25.62627,23.31462,23.55662,21.95298,22.4921,21.81999,21.70457,20.47539,19.91302,18.55854,18.43108,15.62743,14.54698,12.2518,11.76299,9.242883,9.250241,6.406562,6.4561,4.362233,4.81487,2.770837,1.818194,0.3251268,-0.7018348,-1.559296,-2.289851,-4.034336,-3.66301,-4.054612,-4.062927,-4.508603,-5.189881,-5.252367,-4.935717,-3.921187,-2.819365,-2.088035,-0.9465437,1.729062,2.6012,5.274128,6.45908,8.110529,11.40622,11.29121,15.07821,13.76822,15.6041,15.93006,16.95405,16.54976,16.54448,15.24967,15.78289,15.71234,15.74943,14.52087,15.00991,13.60916,14.69229,12.38963,12.73955,10.43091,10.76122,9.100654,8.303486,7.124361,5.20455,4.262154,2.859692,2.122611,-0.5053283,-1.610712,-3.579508,-4.372363,-6.933941,-8.244934,-10.3893,-12.1907,-13.74248,-15.17363,-16.73807,-18.31674,-19.44962,-20.46326,-21.27861,-22.56963,-22.67327,-23.7366,-22.40315,-25.42075,-24.78853,-27.65826,-28.07686,-29.92577,-29.79697,-32.46884,-32.40314,-34.68181,-31.88149,-34.40534,-32.64145,-35.68499,-33.53344,-35.35399,-34.61013,-35.41184,-36.03901,-35.84961,-35.40015,-36.27503,-35.84617,-36.29855,-35.27654,-35.67213,-34.62065,-35.7226,-35.13072,-35.84196,-35.24436,-35.02462,-34.60136,-34.09403,-34.02009,-32.74743,-31.24639,-31.72008,-30.10625,-29.95734,-28.9124,-27.48698,-28.08152,-26.32615,-25.71094,-24.57319,-22.47227,-22.47522,-19.68049,-20.23576,-17.12222,-16.24317,-14.49014,-13.1016,-10.87992,-9.623021,-6.23615,-6.035703,-3.539369,-1.744057,-0.7304855,2.557657,3.257893,6.035259,6.416204,9.112473,10.49821,11.80999,13.75283,14.84179,16.77,18.03373,19.68006,20.31199,22.06304,23.60543,24.22416,25.90124,26.5726,26.33478,28.80699,27.78132,30.11387,29.23064,30.52353,30.59086,31.7138,31.26562,31.5974,31.66214,32.09996,32.11604,32.20884,30.97844,31.81828,29.9209,31.87294,30.00152,31.12954,30.03404,30.09886,29.30827,28.50564,29.30299,27.85001,30.05205,29.04902,31.56823,30.45772,31.52408,31.36263,32.29101,31.51222,32.71508,32.2295,33.92223,35.00384,34.61854,36.70908,36.73858,39.81437,37.62065,41.82819,39.22528,42.41059,40.92784,43.33059,42.25813,43.08552,42.21276,42.85128,42.60413,42.87381,42.27675,42.07046,41.78445,40.9329,39.71913,39.51779,37.19958,37.50092,35.80209,35.18245,33.28649,32.40268,31.21858,29.8362,28.66071,26.68458,25.01677,23.02515,22.0844,19.7481,18.47605,16.2393,14.1775,13.639,10.22414,9.516657,6.18086,5.740484,2.643453,2.779449,-0.9060105,-1.814272,-3.392228,-5.14395,-6.874965,-8.030588,-10.02342,-11.47583,-12.14843,-13.8411,-14.68577,-16.77428,-16.67969,-19.01178,-18.19929,-20.65294,-21.44217,-21.81439,-22.6559,-22.47217,-23.29586,-24.19694,-23.9486,-25.01322,-23.92168,-25.0878,-24.99273,-24.33439,-24.84637,-22.92114,-23.80115,-22.84886,-22.52069,-21.67944,-21.14466,-20.05147,-19.79973,-18.85105,-18.11281,-17.38604,-17.24508,-16.61926,-16.91853,-15.11799,-16.02829,-14.16888,-16.6362,-14.75472,-15.83673,-13.37953,-13.44999,-12.60484,-11.68679,-11.04686,-9.364857,-10.1333,-8.501737,-9.022673,-7.284733,-8.699365,-6.191152,-8.141211,-6.972566,-6.940008,-6.953129,-5.584983,-6.52049,-5.261985,-5.149323,-3.203405,-4.96609,-2.647518,-4.412497,-2.484339,-3.168304,-2.155724,-2.860238,-1.664486,-2.764974,-0.6714078,-3.09126,-1.303629,-3.097324,-2.905014,-2.574143,-2.652929,-3.271064,-2.776123,-3.315225,-2.907264,-3.406546,-3.013579,-4.77364,-3.18387,-4.735907,-3.917617,-5.43028,-4.838597,-5.94764,-5.176066,-5.901293,-6.132528,-6.845667,-6.860292,-7.574121,-7.209984,-7.838828,-8.057028,-8.520092,-7.535831,-9.3134,-7.923013,-9.099463,-8.854234,-8.208644,-9.044118,-8.412422,-9.575582,-8.52698,-9.122898,-8.54439,-9.554363,-8.907003,-10.46738,-8.491843,-11.20096,-9.330995,-10.97266,-10.40579,-11.0224,-10.80439,-12.23338,-11.47234,-13.50109,-12.24321,-13.18447,-13.11278,-14.72768,-14.64829,-15.22869,-16.02317,-15.99156,-17.424,-17.61744,-18.03575,-17.76027,-18.94692,-19.53246,-20.29168,-19.24833,-20.22829,-20.32696,-20.79559,-20.91864,-20.29247,-21.7202,-19.55598,-20.24172,-19.75508,-19.65299,-20.11101,-19.55263,-21.55278,-20.88071,-22.77632,-22.28334,-24.20923,-24.40719,-26.61047,-26.39263,-27.92132,-28.88328,-30.65268,-30.73994,-32.19708,-32.18244,-33.16541,-33.87348,-34.1196,-35.10561,-34.93793,-36.14343,-37.33488,-38.21032,-37.82954,-40.40298,-38.94326,-42.12505,-41.36862,-42.04886,-42.62271,-41.5198,-43.07715,-42.27767,-41.85332,-41.33454,-41.15398,-39.98079,-40.14779,-38.91616,-37.16427,-36.15308,-35.22379,-33.10181,-32.63014,-28.79284,-28.99935,-24.48984,-24.65721,-19.27356,-19.30002,-14.71163,-14.00612,-10.65468,-8.611625,-5.171199,-3.100348,-0.3867283,2.056663,5.626315,7.638495,11.98484,13.24141,17.28965,18.79995,23.20226,24.44546,28.19216,29.21682,33.3239,34.53147,37.82732,39.05888,41.55389,43.71433,44.797,47.41549,46.81108,48.80248,48.7187,50.39588,49.76407,51.46685,49.53913,52.60489,51.25916,52.70115,51.52675,53.10817,52.03574,53.64336,52.97953,53.31861,53.48522,53.75706,54.55645,54.43253,54.6009,54.95046,57.58284,55.33129,58.27464,56.89946,58.54777,58.2857,59.17329,60.61785,58.89263,59.50421,58.71561,59.04866,58.76443,57.80548,57.62727,56.53038,56.84706,54.97889,55.34787,52.12408,53.53004,49.49421,51.68953,47.49908,49.21876,45.5845,46.67132,44.30407,43.61934,41.43486,38.93004,37.97915,35.08462,32.70566,30.90251,27.75238,26.7773,24.67113,21.7054,21.00322,17.20052,16.58094,13.42687,11.80884,8.33009,6.995618,4.127887,2.538739,-0.03603421,-2.663109,-4.377297,-6.499535,-8.289915,-10.12489,-11.89196,-14.03183,-14.11168,-16.75066,-16.51228,-19.08231,-18.85061,-21.27903,-19.68589,-22.80426,-21.52009,-23.06288,-21.6233,-22.44824,-21.48163,-21.90973,-21.33476,-20.93991,-19.3393,-19.55434,-17.38416,-17.29721,-14.65008,-14.34191,-10.70805,-11.46411,-7.915603,-7.537988,-4.592312,-3.389774,-1.759458,-0.8610543,0.7742329,2.202255,3.133487,4.375393,5.545508,7.057545,8.239411,10.37268,10.0962,13.51438,12.0403,15.59469,14.68861,16.40697,15.99505,17.38346,17.4843,18.69561,17.6523,18.70096,18.29247,18.84527,18.03249,19.28577,17.98097,17.53319,18.09174,15.99924,16.80016,14.26998,14.55279,12.95117,12.65635,10.56257,10.46808,7.824386,7.991961,5.709722,4.265451,1.942035,0.4157165,-2.683846,-3.707214,-7.904189,-8.605459,-13.12997,-13.10986,-17.94585,-18.71481,-22.81613,-23.57561,-26.46796,-28.39542,-31.10954,-33.45133,-34.65019,-36.71727,-37.9075,-39.16123,-40.94815,-40.90218,-43.43855,-42.7571,-44.72226,-45.20575,-45.42384,-46.29699,-45.94343,-46.78475,-46.18189,-46.93459,-46.12322,-46.87284,-46.77733,-46.73858,-47.26812,-45.75893,-45.43458,-43.5872,-42.79741,-40.49326,-39.6747,-38.26837,-37.73566,-38.9962,-38.17069,-39.78872,-40.00739,-40.77455,-41.52415,-42.34407,-43.24393,-43.96685,-44.93525,-45.34802,-45.66832,-45.70684,-45.60384,-45.80506,-46.17863,-46.23143,-46.89987,-46.03394,-47.88484,-46.4865,-46.97912,-46.18145,-46.32214,-45.92999,-45.5601,-45.25939,-44.19688,-43.66564,-42.56725,-42.09275,-40.61868,-40.34278,-37.84553,-37.93226,-35.41554,-35.07573,-32.86153,-31.24671,-30.2116,-28.3598,-27.15535,-24.6883,-21.37071,-20.68648,-16.77627,-15.95332,-13.14999,-11.46086,-8.625318,-7.996227,-4.485158,-4.115971,0.1303297,2.030846,2.974734,5.791277,7.538499,10.13515,12.0824,14.69769,15.40967,18.26121,19.1889,20.52757,22.04275,22.76306,24.13118,25.81308,26.19012,27.29974,26.3848,27.26147,27.4201,27.97729,27.99404,28.79428,28.9206,29.70641,31.13472,30.69459,32.13647,32.27056,33.35328,33.57386,33.74851,34.62633,35.03239,36.37656,37.39095,38.5834,40.25008,40.54892,44.0232,43.17811,46.40789,45.67759,48.43717,48.5524,52.05152,52.06439,55.34043,56.40777,60.17401,60.62619,62.3674,62.19299,62.18443,61.74077,60.82166,60.14251,58.8147,58.39713,57.44701,59.2171,56.31405,57.04309,54.04667,54.6527,52.13678,51.82643,48.3771,47.47997,44.52137,42.26543,39.17578,36.32684,33.29004,30.39167,27.44846,24.40948,20.78452,17.50222,14.11675,10.92011,7.998388,4.195451,1.135353,-1.834159,-5.561856,-7.773708,-11.16455,-12.66464,-15.47402,-17.19223,-19.70884,-21.62716,-23.61671,-24.76513,-26.05681,-26.60092,-27.3529,-27.04019,-27.8458,-28.63305,-28.56353,-30.26748,-29.91109,-31.05491,-30.20923,-31.58158,-29.57675,-31.32154,-27.97318,-30.80228,-28.53564,-29.77585,-26.34879,-26.61392,-23.81111,-22.57335,-20.48716,-18.75219,-15.2331,-13.63836,-11.13893,-9.745093,-7.665377,-5.223898,-2.873949,-0.0160781,2.448352,6.495246,9.887609,14.44508,17.94653,23.11398,26.18105,30.85002,34.96097,38.66874,42.26193,47.04895,49.49144,54.18764,57.13776,61.72542,64.52279,69.35298,71.46829,75.84907,77.04373,79.88606,82.10306,82.95853,85.83945,85.39844,87.52859,86.76596,87.99001,86.01067,87.02115,84.03858,84.34135,81.47394,80.95144,78.25194,76.16607,73.67178,71.09447,68.84845,64.70624,62.90219,58.04634,56.36772,49.14254,47.69621,40.25877,38.27297,31.22882,28.54378,21.6196,18.04606,11.36562,7.314253,1.677798,-3.178559,-9.28051,-14.05511,-19.30031,-24.55139,-28.22947,-34.16124,-38.23218,-42.42567,-46.6424,-50.19643,-54.45833,-56.94799,-60.60319,-61.43285,-64.58979,-65.22984,-68.80235,-68.51343,-70.92382,-70.45587,-71.46814,-71.14715,-70.68326,-70.59901,-70.08694,-69.84054,-70.26303,-68.5684,-67.93824,-67.03972,-66.40085,-66.26688,-65.14609,-64.66341,-63.40909,-64.20025,-62.44326,-65.05909,-59.47245,-62.44553,-58.00659,-60.79146,-58.35332,-59.51584,-59.09983,-60.33917,-60.5979,-62.89363,-63.2917,-64.53446,-64.85968,-65.06114,-65.55019,-65.56268,-66.01284,-66.22025,-66.90667,-66.48422,-67.28197,-66.69674,-67.55573,-67.00015,-66.69695,-66.58916,-66.10924,-65.08784,-65.46891,-64.06773,-63.36389,-62.13573,-61.49713,-60.3124,-60.12473,-58.00722,-57.56905,-55.99663,-55.00875,-54.06373,-51.85378,-51.35476,-49.42674,-48.85204,-47.04936,-45.41324,-43.60043,-41.84154,-40.86517,-37.81941,-37.35488,-34.10926,-33.52303,-31.65554,-29.63385,-27.9624,-26.64481,-24.36593,-23.64237,-20.85964,-20.08853,-17.61347,-16.38803,-14.75077,-13.78612,-11.12076,-10.12929,-8.47884,-7.453151,-5.675034,-5.131472,-3.151814,-2.612434,-0.6571651,-0.9478865,0.9551272,0.2804541,0.8707936,0.07991037,1.254563,-1.324615,0.7069371,-2.378431,-0.5713316,-3.047117,-2.257691,-3.565243,-3.807661,-4.519676,-4.925849,-5.301481,-4.781714,-5.543369,-5.408764,-6.186791,-5.814304,-5.752266,-4.769256,-4.895804,-3.054416,-2.779519,-2.119551,-0.8362711,-0.72358,1.678187,1.632139,4.54578,5.626955,7.834114,9.666872,13.85034,12.98749,17.32399,17.83248,20.73288,22.64715,25.16689,27.7136,29.95759,31.99205,35.22879,37.03495,40.39356,42.08779,44.62163,46.59343,49.84368,51.225,54.75041,55.83292,58.83397,59.30654,61.45916,61.20426,62.67417,62.45154,63.45867,63.23876,62.44875,62.15625,61.45502,60.64358,60.06642,58.96134,56.47248,57.05212,53.6622,53.61979,50.3839,50.14193,48.42715,47.22738,44.83797,43.21221,40.63699,38.75036,35.76583,33.75381,30.33125,28.43504,24.93024,22.79349,21.4189,17.62201,15.97405,12.66372,10.34967,7.86952,5.657221,3.401138,1.231925,-0.1585387,-1.644812,-3.294023,-4.74937,-5.193188,-5.643986,-6.172255,-5.508915,-6.670245,-5.094702,-5.175749,-3.879588,-4.07319,-2.487025,-2.470513,-1.285034,-1.547333,0.05889993,1.210597,2.392191,5.704613,7.235667,10.8106,13.06342,16.68983,20.87198,23.1987,28.50485,30.74859,35.86508,38.99125,42.86461,47.13564,49.54507,54.53849,57.12181,61.29998,62.98772,67.45058,68.6366,72.64596,73.02262,76.81095,77.85637,80.02767,81.73992,83.39894,84.30102,85.73502,86.33229,85.5587,86.53471,84.96291,86.0885,84.3406,85.81888,84.87111,85.67223,85.14104,85.73943,84.95267,86.15148,84.48484,86.73518,84.75657,86.01985,83.73878,85.01125,80.81384,81.50426,76.55252,76.73938,72.25878,70.84544,67.24825,64.45301,61.44207,57.80565,55.0594,50.98935,48.14297,44.1956,40.50565,37.27742,33.66652,29.89955,27.18873,23.44613,21.37962,17.37457,13.49684,9.78403,7.106473,2.680348,-0.3749011,-4.185909,-6.273668,-10.49911,-12.26222,-16.08325,-17.97611,-21.02824,-25.0973,-27.29252,-30.64617,-33.19615,-35.82132,-38.38101,-40.53306,-43.57993,-45.39955,-48.23349,-49.92984,-52.75352,-54.03959,-56.0073,-58.70171,-60.28025,-62.91374,-64.40345,-67.70295,-68.43238,-72.33194,-72.61063,-77.19177,-78.22404,-81.14392,-80.20579,-82.83099,-82.93631,-84.31182,-84.78754,-85.45377,-85.11006,-86.20113,-85.31179,-86.89238,-85.065,-86.49363,-85.01385,-86.05448,-84.41684,-84.81373,-84.36429,-83.56816,-83.6677,-82.75095,-83.70573,-78.56617,-79.70866,-74.99829,-75.43016,-70.66095,-73.01973,-70.8244,-75.55126,-74.92826,-80.64792,-82.14525,-87.50978,-90.11722,-93.31331,-96.251,-97.72146,-100.548,-101.448,-103.6407,-103.8974,-105.7249,-105.1663,-106.6363,-106.2835,-105.8128,-104.4305,-105.2033,-103.2605,-102.7335,-100.145,-100.0982,-95.94372,-96.46527,-91.56426,-90.21486,-86.32222,-83.48371,-80.6101,-76.92877,-74.46987,-69.75052,-66.82998,-63.09885,-59.1178,-55.94579,-50.19403,-46.67249,-38.71868,-36.46518,-30.21028,-27.39543,-23.21851,-21.20568,-17.78136,-16.35489,-13.37266,-11.81241,-8.841355,-7.609805,-5.25008,-3.032893,-1.276431,0.4175872,2.662665,4.347672,6.957929,7.657636,10.6929,11.16836,14.11177,15.24116,17.04847,19.00116,20.61969,22.46746,23.9614,25.15132,27.07729,26.73316,31.06658,29.63383,32.39228,32.12396,33.83632,33.71223,35.8714,34.29231,36.65801,35.38559,37.38837,35.96379,38.17479,36.54611,37.83355,36.38463,37.00306,34.96461,35.1414,34.50019,34.42184,35.64498,35.63511,38.17626,39.26212,42.15936,44.88799,48.93776,52.49461,57.15199,62.17865,69.14166,71.33561,76.94019,78.09966,81.53351,81.39858,83.99032,83.91812,84.76322,85.11271,85.47302,86.17871,86.14484,84.98152,85.03667,83.34996,83.0978,80.16627,79.51119,75.95625,74.7189,71.38237,68.7769,65.08626,63.26611,59.31647,56.47822,52.9402,49.77818,46.28656,42.96002,40.28144,36.20224,34.97568,30.25856,28.68873,25.40489,22.83054,20.44798,17.86691,17.184,14.53392,13.01046,12.07947,10.84481,11.35398,10.26259,9.810714,6.46387,5.615642,2.723002,1.003173,-1.906244,-3.424978,-6.378153,-6.647021,-10.31116,-9.618758,-13.8875,-12.51265,-15.77483,-15.07179,-17.14451,-16.57883,-18.0302,-16.72962,-18.76508,-17.36541,-18.0584,-17.1698,-16.17057,-14.98724,-13.43213,-12.24576,-10.60321,-8.453072,-6.472272,-3.419999,-2.392274,2.324699,2.057136,6.70788,7.975367,10.77302,13.10837,15.0391,17.64982,20.405,20.85621,24.12718,23.95933,26.95039,25.08072,27.34566,24.64484,27.21202,24.91171,27.31459,25.6671,26.36649,26.18627,26.50356,27.00013,26.26516,26.11986,28.32032,26.67185,27.96609,26.72639,26.69765,26.34566,26.50067,27.08599,26.75346,26.58625,25.87616,25.44181,23.64223,21.19801,19.84722,16.61767,15.40154,12.42592,9.535216,6.568176,3.44358,1.335979,-2.67328,-4.44154,-8.475324,-9.935042,-13.68231,-14.87119,-18.71783,-19.31363,-22.4542,-23.68907,-25.07996,-27.08776,-27.36141,-28.67753,-28.43657,-29.27583,-28.71889,-30.37341,-28.92731,-29.56331,-28.04031,-27.324,-26.29377,-25.23126,-22.84977,-22.30078,-18.78942,-17.85213,-14.55131,-11.98133,-9.169171,-6.707023,-4.261251,-2.083084,1.252898,3.306632,6.586894,8.064435,11.8174,13.90823,17.82766,19.29531,22.85896,24.11605,27.65266,29.39373,31.85167,34.10936,35.24335,37.51119,39.31275,41.46956,42.3932,44.12409,44.87886,46.6358,47.0846,47.91935,47.9276,48.35855,49.198,47.99987,49.04073,47.08798,47.48985,46.86709,45.66392,45.15954,43.37814,43.63041,40.73415,39.70754,36.71955,34.95726,31.89477,29.91339,27.87427,24.56248,24.76898,21.62798,23.41874,20.17399,21.68973,20.11811,21.46249,21.49997,22.07833,22.38477,26.26064,22.95085,28.02032,25.43982,29.34518,28.11648,31.2367,30.55781,31.7115,30.34735,30.69686,30.07248,30.20595,28.56741,28.5159,27.10976,26.23218,25.36881,22.93692,22.06074,19.99266,18.36707,16.44221,14.68172,11.94048,9.707496,7.128604,4.825174,2.167557,-0.3348301,-3.819017,-5.725289,-9.18291,-11.34547,-14.6331,-17.59584,-21.17134,-23.1542,-27.25519,-29.59887,-33.65063,-35.43235,-38.89405,-41.14837,-44.78392,-47.41453,-50.0627,-53.0292,-55.07178,-58.23934,-60.08728,-63.06255,-64.42452,-66.9718,-68.25243,-71.07089,-71.56851,-73.74223,-73.93583,-75.48877,-76.19196,-76.65789,-77.65333,-77.47537,-78.19737,-78.02321,-78.16819,-77.21388,-77.11331,-74.91456,-75.87418,-73.21054,-73.29312,-70.85207,-70.39622,-68.88355,-67.39567,-65.61292,-64.26292,-62.76336,-61.39162,-59.19252,-57.72532,-56.14476,-54.45921,-53.39086,-51.47477,-51.22614,-48.7277,-49.69192,-47.93758,-49.16262,-49.16083,-49.384,-50.09448,-50.13795,-50.87581,-50.82391,-50.31277,-50.39297,-48.94036,-49.26072,-48.16901,-48.63263,-47.23446,-47.0486,-47.11035,-45.25363,-45.70477,-43.34275,-42.849,-44.39975,-41.23729,-43.1119,-40.02598,-42.53316,-39.48781,-41.02686,-38.43566,-39.79472,-37.92069,-38.68466,-36.41205,-37.77719,-35.5864,-36.62533,-36.29873,-35.37913,-35.51855,-34.35183,-35.03983,-34.58193,-34.50999,-33.87692,-33.92771,-33.17656,-33.4838,-32.53562,-31.84202,-31.54152,-31.27178,-30.65346,-29.89417,-28.96397,-28.37685,-27.8157,-27.04695,-26.26511,-25.92484,-23.53657,-24.36435,-22.1779,-22.1167,-20.93121,-20.18247,-19.53443,-18.923,-18.0781,-18.34019,-16.36824,-17.06571,-16.19565,-15.7743,-15.64329,-14.21121,-15.43331,-13.4449,-13.60095,-10.95138,-11.53111,-9.862417,-10.40883,-9.889766,-9.409546,-8.672265,-9.541746,-8.590618,-8.997481,-7.67669,-8.038127,-7.975642,-7.294265,-7.530406,-7.555203,-6.334604,-6.924745,-5.458384,-5.523162,-3.578194,-2.516652,-1.296578,-0.5879933,0.153543,0.7791273,1.442092,1.756972,3.112354,1.547274,5.546014,2.583798,6.643485,4.441267,7.47412,6.876782,8.881689,8.990893,10.43081,10.67999,12.95768,13.75704,15.65007,16.03071,17.15791,19.68192,20.63496,23.13328,23.48859,27.48085,27.60289,31.36675,32.40949,34.53594,37.93449,38.9792,43.12538,44.28217,48.34757,49.51241,52.26287,54.25334,56.16834,57.42717,59.06426,59.49593,61.34067,61.98088,63.5573,64.0665,64.86007,65.86327,66.51074,67.24211,67.60041,68.27532,67.39537,67.18632,66.64578,67.45697,66.56297,67.4153,67.50927,67.97814,68.44382,68.69489,69.79661,69.50852,70.87857,70.10639,72.02279,71.87799,71.0371,73.69792,73.40776,72.82941,73.90929,72.68479,72.49562,70.34198,69.60519,68.92719,66.755,66.0205,63.62228,62.22008,60.93672,58.855,58.52212,55.93237,55.00841,51.17859,49.98301,45.35085,43.08159,39.04884,36.00922,32.56414,30.13605,26.14169,23.87621,20.53147,18.47115,15.62492,13.4309,11.0519,10.86685,8.296006,8.710112,5.522602,6.627375,2.817308,3.516662,0.1969746,0.6845405,-2.731116,-1.928697,-5.25721,-5.075179,-9.246536,-8.23306,-12.53708,-10.00016,-13.6875,-12.72341,-14.66146,-13.98433,-14.65127,-14.28016,-15.2905,-14.86795,-15.4984,-14.11799,-14.41599,-13.36152,-13.21735,-13.45376,-12.16981,-12.85833,-11.90491,-12.6239,-11.75676,-11.97803,-11.78428,-11.48714,-12.77864,-11.78057,-13.3974,-13.40025,-13.34428,-14.33738,-15.33421,-17.09394,-18.45592,-21.05855,-23.04465,-25.90489,-27.08896,-30.08274,-33.71465,-36.33558,-40.29569,-42.90662,-48.12848,-51.91897,-57.09147,-61.41885,-65.11853,-67.84426,-72.00276,-75.35916,-77.9779,-81.2493,-82.8824,-86.42529,-87.50437,-89.72492,-90.55673,-91.28036,-91.69506,-92.1581,-91.16824,-90.88698,-87.55568,-88.49924,-87.3233,-84.58193,-83.83102,-80.45224,-79.21333,-75.51316,-72.53318,-69.08019,-65.42888,-61.31719,-57.94626,-53.02026,-49.44674,-44.05009,-41.01853,-36.07718,-33.4657,-28.65528,-25.5415,-20.75213,-17.91926,-12.12004,-8.360238,-2.785649,0.9409696,5.54978,10.12511,14.88993,19.47446,24.33591,27.68343,33.08197,35.83968,40.77989,42.87237,47.02677,48.43196,53.85908,53.23908,58.80024,56.03269,60.75458,58.66323,62.07131,61.62534,63.01728,63.80428,65.58835,64.91902,66.66587,66.07788,66.88506,67.15271,67.35616,67.33001,67.65138,67.1705,68.93705,65.97753,65.77901,62.28998,62.00268,59.4827,58.64662,57.09236,57.2252,56.35279,57.07781,56.93017,58.03966,57.74715,59.64564,60.20869,63.18598,63.60574,63.95929,63.75811,65.02551,66.51868,65.93868,67.0025,66.59048,67.90144,66.9624,66.90173,66.08175,65.50803,64.57822,63.49485,62.50522,60.43721,58.83655,56.98051,55.71993,52.9365,50.63422,48.23819,45.63733,43.61561,40.59236,37.91172,35.03759,32.34541,29.50666,27.73553,22.73089,21.94946,17.19566,16.72849,12.25406,10.12328,7.186887,4.323475,2.157009,-0.5129534,-3.432553,-6.611205,-8.980739,-12.01175,-14.62954,-19.0564,-21.1569,-24.93281,-26.18075,-29.84133,-31.85228,-35.78916,-36.2937,-39.67279,-40.15102,-43.39636,-43.87183,-46.17239,-45.81672,-47.90241,-48.19101,-49.36268,-49.38048,-50.21164,-49.03248,-50.99196,-48.92507,-50.88197,-47.67275,-49.56012,-46.22092,-47.91409,-43.97827,-45.37072,-39.89207,-42.5506,-37.83215,-36.11269,-33.49472,-30.82157,-30.02673,-26.60162,-26.10267,-23.24384,-22.18101,-21.22462,-20.27291,-19.46488,-19.2063,-19.15536,-19.37831,-20.13173,-21.43693,-22.18523,-22.65055,-23.64979,-23.61582,-23.77738,-22.83439,-21.41166,-21.37827,-20.33451,-20.5643,-18.74346,-18.20904,-17.6747,-17.05982,-16.18471,-14.84383,-14.34432,-12.93126,-12.92282,-9.083559,-10.17503,-7.938786,-8.251592,-7.261827,-7.461068,-6.084264,-6.384133,-4.822008,-6.355172,-4.661367,-5.291448,-4.295884,-5.297073,-4.338295,-5.449168,-4.582294,-5.19285,-4.949505,-5.993221,-5.849308,-6.217701,-6.043458,-7.021465,-6.948583,-7.851873,-7.518544,-7.163988,-8.207145,-7.615873,-8.794724,-7.542884,-8.020291,-7.385576,-9.024462,-8.235703,-8.297445,-7.362015,-8.525124,-7.553496,-7.984106,-7.482783,-6.356648,-6.478651,-5.545681,-5.251173,-4.285042,-3.274906,-2.60418,-2.391012,-0.5623719,-1.407215,1.568842,0.385901,2.84452,2.025864,4.527112,4.086513,5.607113,4.725389,5.848518,5.850287,7.140814,6.718042,7.236756,6.069657,8.177877,6.705074,9.400875,6.200238,8.863199,6.738924,9.173627,6.950437,8.062686,8.190832,5.260639,6.826566,3.802833,3.329799,0.7199059,1.444432,-0.9793913,-1.555027,-5.363114,-6.99703,-10.98455,-12.5101,-16.12245,-18.87112,-23.75287,-25.28521,-29.45926,-32.18454,-36.51249,-39.29851,-43.60059,-44.98377,-50.02927,-51.20642,-56.14538,-56.94169,-60.80078,-61.31155,-64.31395,-65.27273,-66.94399,-67.21161,-67.70144,-68.59131,-68.28423,-70.52705,-67.81171,-70.27657,-67.95244,-69.38464,-66.46934,-66.9828,-63.43454,-63.86075,-59.88639,-59.36365,-55.14737,-53.58263,-50.10077,-48.2603,-44.37047,-41.07621,-37.61066,-34.72851,-30.96453,-27.69682,-23.60889,-19.63314,-16.47315,-12.78316,-9.084048,-5.201828,-1.619025,0.719693,4.801687,6.864417,11.57432,12.94057,16.83251,18.82198,23.05962,24.0027,28.90322,29.60889,33.47094,34.53046,38.99574,38.72934,43.2404,43.03501,46.58787,47.86326,50.8497,51.09449,53.39391,53.45948,56.6887,56.94797,59.09159,58.72411,60.86292,60.38528,63.04762,61.37804,63.19185,62.41027,63.80088,62.07839,62.09415,59.86887,60.52808,58.84539,60.64938,58.57402,60.47518,59.96681,62.4264,62.46927,65.08664,64.38355,69.30344,68.8759,73.69555,73.7867,78.46013,78.45917,81.90784,81.16905,83.18613,83.06302,83.49921,84.21356,84.28033,84.64942,82.99683,83.79226,82.01888,82.34995,79.96384,79.46427,77.11054,76.64827,73.57749,72.53486,69.14253,67.01732,64.36909,62.67748,59.0752,56.23625,53.1501,49.79823,46.93572,43.09648,39.9115,35.55264,32.93652,27.98871,25.52325,19.9427,17.18393,12.50041,10.30557,5.757478,2.61393,-1.869599,-4.377575,-8.352509,-11.56581,-15.42297,-18.52801,-22.20897,-24.75614,-28.33851,-31.27022,-34.07598,-36.43497,-38.96695,-41.3995,-43.8083,-46.22956,-47.50873,-48.92661,-50.78812,-51.1383,-53.26952,-52.11015,-53.3816,-51.80961,-53.55479,-51.38013,-53.03111,-48.99274,-50.88773,-47.53447,-48.37328,-43.72153,-44.96865,-39.54342,-41.25512,-36.85105,-36.91841,-33.07494,-33.04764,-29.5915,-29.69244,-25.82065,-25.68803,-22.51324,-22.91009,-20.80345,-20.51366,-18.34687,-19.32628,-18.21969,-19.09942,-18.67386,-19.56453,-19.15452,-20.35474,-19.53191,-19.73765,-18.89123,-18.03723,-17.92246,-15.3303,-13.76459,-10.26228,-7.765995,-5.582136,-1.925136,-2.133536,2.948667,2.557123,7.150422,6.131415,10.68975,9.780558,14.23513,13.30432,15.92351,16.89515,18.95335,19.6683,20.34826,21.04557,21.14291,23.18397,21.80551,23.9874,22.28116,23.13841,22.51766,23.69493,21.91689,22.34229,21.57034,21.83793,20.74749,20.56638,18.70074,19.07134,17.24541,18.90576,15.21423,15.99169,12.06777,13.25513,10.84331,10.55698,8.404758,8.742123,6.971342,7.534352,4.854695,4.978395,2.335772,2.207081,-0.1625175,1.712199,-2.788689,-1.72655,-5.122239,-4.848591,-7.897653,-8.814021,-10.98058,-12.95374,-14.28124,-16.23963,-18.47191,-19.12018,-21.64233,-21.70109,-24.00169,-25.22358,-26.78272,-27.11171,-28.82616,-29.23131,-31.31293,-30.97342,-32.5627,-31.69351,-32.10204,-33.30223,-32.8746,-35.05366,-32.89675,-36.68209,-34.88871,-37.81305,-36.63977,-38.26136,-38.21418,-39.97755,-39.64889,-40.68043,-40.43071,-41.01817,-42.43526,-42.19952,-43.7536,-43.25882,-45.168,-45.13371,-47.63099,-46.93252,-49.73157,-49.01037,-51.43579,-50.86355,-51.09144,-49.22894,-49.16953,-47.02432,-47.18854,-45.02176,-44.71226,-43.79632,-42.74459,-41.26781,-39.41367,-37.86367,-35.31805,-35.78897,-33.07107,-33.42787,-30.5642,-31.04043,-29.12476,-28.90962,-28.10591,-26.97354,-26.42985,-25.52511,-25.31098,-23.44534,-23.81731,-19.39621,-21.04851,-19.19784,-18.38028,-16.73012,-17.28702,-16.05116,-16.74291,-16.0335,-15.77551,-15.66115,-15.9258,-15.9435,-16.83821,-14.69646,-17.22402,-15.15495,-17.90121,-14.63595,-16.65064,-14.7815,-16.04389,-15.17478,-15.7717,-14.62899,-14.87812,-14.25778,-14.34445,-12.8296,-11.60403,-9.510315,-12.37152,-9.086539,-10.62938,-6.861326,-7.811411,-5.056589,-5.321754,-2.876122,-2.085574,0.6379138,1.065267,3.222909,4.555976,7.07187,8.543937,10.41227,12.01115,14.23852,16.42225,19.97152,20.25391,24.45912,24.26903,29.18091,29.2915,31.32712,33.19005,34.56581,36.77142,38.18598,40.04672,40.61218,42.43676,44.24795,45.29178,47.01229,47.32444,48.97416,49.50071,51.07646,50.31188,52.32074,51.09617,53.32899,52.34633,53.41119,52.4008,53.94999,51.97467,54.57234,51.84874,53.54949,52.12454,53.0576,52.17815,51.43265,50.21975,49.30117,49.02669,47.84454,48.01978,46.63851,47.31425,46.92977,49.22585,47.63111,48.68874,49.17781,49.98407,50.99428,51.55743,52.02477,52.55529,54.41519,54.30759,56.73209,55.77574,58.09004,58.25052,60.72973,58.44093,60.18944,59.46854,59.72066,59.10083,58.81348,57.6908,57.13803,56.33856,55.74471,54.4049,52.82764,51.65543,50.21254,48.68019,45.95616,44.05243,40.4881,39.18902,35.09597,33.75843,28.53802,27.08759,22.43999,21.06234,15.98204,13.79679,9.382178,6.862965,3.244322,-0.3674283,-3.982526,-5.590215,-9.1277,-10.62284,-14.28878,-17.25229,-20.80992,-24.16331,-26.49681,-30.91612,-33.61978,-37.11476,-39.78997,-42.0719,-44.65257,-47.10979,-49.21318,-50.01187,-51.35783,-52.35336,-52.60901,-54.63167,-53.51232,-53.95241,-54.01709,-53.87927,-53.28924,-53.47608,-50.52861,-51.67224,-49.03699,-49.50051,-45.81414,-45.82224,-41.90178,-41.66978,-38.56656,-36.63714,-33.99952,-31.34523,-29.74754,-27.09659,-25.15276,-21.63567,-20.51356,-16.73068,-16.31962,-12.90249,-11.79274,-10.16601,-10.64668,-9.443383,-9.083954,-8.564224,-8.546607,-8.095735,-7.968274,-6.680808,-6.098492,-3.804546,-2.446974,-0.4666807,1.599136,3.76126,4.599757,5.663196,7.295268,7.34147,9.963428,9.636879,13.79947,12.78743,17.04967,15.5791,18.92459,15.55373,17.573,15.10747,16.01191,14.10834,13.70065,11.21396,10.10005,8.526152,7.446453,4.743474,3.158004,0.809924,-0.4542307,-3.141995,-4.41816,-7.994678,-8.849907,-11.46661,-13.07672,-14.82864,-18.15049,-18.75259,-22.1596,-23.13523,-26.01751,-26.55089,-28.79719,-28.40465,-29.70374,-29.69651,-30.09718,-30.02706,-28.94234,-28.91111,-27.84571,-26.97633,-26.9567,-25.72906,-26.50014,-24.92013,-26.86845,-22.69244,-24.92503,-21.73073,-22.60853,-20.77431,-20.36095,-18.62913,-17.95124,-16.34184,-15.95023,-14.0497,-12.5431,-10.02748,-9.689525,-8.361393,-7.798427,-6.435225,-6.756427,-5.112009,-6.350191,-5.304304,-4.928094,-4.750328,-5.071216,-4.559824,-4.461386,-4.561151,-3.280451,-4.664093,-4.059575,-5.158394,-4.28607,-5.300547,-5.150063,-6.521021,-6.627349,-6.923558,-8.212782,-7.658229,-10.97385,-10.37568,-13.30604,-13.82992,-17.30623,-17.06179,-19.05418,-19.1263,-19.94292,-19.6049,-20.96585,-20.10776,-20.00393,-18.13777,-17.57975,-17.50794,-12.3402,-12.17899,-6.892651,-6.308932,-3.057524,-1.086543,1.50438,3.836112,6.728727,5.542627,7.017959,5.749277,6.384836,5.967785,5.230937,4.528284,3.853426,3.727824,2.585067,0.7931163,-0.1846734,-1.484186,-2.228369,-4.561486,-5.418192,-7.51464,-8.745489,-10.22573,-11.83135,-14.20014,-15.86771,-17.41617,-19.37388,-20.91967,-24.10354,-25.37125,-28.0466,-27.63974,-29.37922,-29.79737,-31.17842,-30.65597,-31.72866,-30.78853,-31.23445,-31.34395,-30.39697,-29.37506,-28.35349,-27.35774,-26.14368,-24.18384,-22.13853,-19.17209,-17.50475,-13.53365,-13.43307,-8.210679,-6.570064,-2.620511,-0.2410503,3.939001,7.013381,11.73323,14.63044,18.55976,22.80643,26.36261,29.27235,33.21193,34.6003,39.15415,41.1786,45.06736,46.57445,49.43996,51.23632,54.64237,55.68835,59.15082,58.64378,61.21928,61.28482,61.90108,61.66957,60.79844,61.02348,59.88484,60.66598,59.57891,61.02182,60.10485,61.60021,61.26514,59.87886,59.65925,57.24159,56.5832,55.7082,54.75825,53.58163,53.19139,51.64505,51.84906,50.65707,50.20459,49.72592,50.15708,50.5242,50.80315,52.88869,49.2796,51.68826,47.84783,49.33199,46.72102,45.41331,44.58856,43.08228,40.80154,38.94478,37.40072,35.14539,34.48703,29.99619,29.26458,24.83501,24.23825,20.20791,18.93822,15.24236,13.27052,9.525925,7.396122,3.543305,1.387765,-2.708356,-4.107663,-7.590652,-9.444501,-13.22034,-14.32277,-17.94972,-19.08463,-21.41284,-23.6345,-25.38469,-26.94739,-27.99287,-30.74512,-29.35607,-32.3933,-31.63677,-33.33633,-33.4672,-35.91798,-35.25656,-37.25103,-36.56509,-38.23061,-38.36777,-38.71988,-38.45903,-38.22949,-37.72245,-38.73838,-37.28412,-38.28862,-36.10623,-37.82325,-35.24176,-37.5061,-34.25551,-35.80581,-32.5822,-34.68771,-31.19068,-32.70388,-29.47512,-29.38163,-28.68634,-27.33737,-26.74721,-25.44146,-24.39889,-23.20466,-22.36865,-21.46491,-21.10996,-21.55354,-23.09122,-24.12701,-25.38562,-26.48556,-27.64328,-28.16728,-28.58224,-28.41517,-27.37414,-26.76755,-26.14855,-26.28259,-25.36154,-25.15611,-25.20905,-23.56363,-25.04185,-21.68089,-22.29293,-20.3319,-20.27633,-18.30762,-18.45045,-15.40092,-14.54137,-13.49099,-10.95217,-9.874034,-8.430852,-8.009039,-5.722331,-5.665653,-1.984232,-1.649955,2.870457,1.989017,5.248402,6.437224,9.318848,10.62313,13.10572,14.30683,16.66764,18.93029,19.88551,22.89053,22.39985,25.80531,25.78156,28.2238,27.68156,28.72229,27.86461,30.28588,28.57166,30.98423,28.03047,30.37092,28.69301,29.33896,28.82182,28.00805,27.04904,27.35711,25.77201,25.57986,23.66903,23.42132,23.05974,21.45122,22.31963,17.89737,18.08422,14.68776,14.43196,10.99702,9.880435,6.669147,5.672627,3.441614,1.282154,-0.9472222,-3.358796,-5.063051,-7.529272,-10.30105,-12.40978,-14.52159,-16.51266,-18.99516,-19.94527,-24.09166,-23.0074,-27.58972,-25.38369,-29.91944,-28.86334,-31.52491,-30.73838,-31.87912,-31.83993,-31.62679,-31.58632,-29.77975,-29.57642,-27.5987,-29.59064,-27.01103,-28.58255,-27.56246,-29.12013,-27.6526,-28.16302,-26.45729,-25.51444,-23.1564,-22.05244,-17.78146,-15.40177,-11.68064,-7.839475,-6.701491,-3.261624,-2.122521,0.4164072,1.727953,2.402131,3.775851,4.10646,4.863723,4.560828,4.69393,3.690975,3.965177,3.008163,2.150271,0.7588136,-2.020123,-3.390877,-5.026173,-5.007588,-8.534084,-7.79375,-11.05438,