ConstAcc,0.5,0.085216,-20.84355,-19.3535,-18.09202,-17.04814,-16.2111,-15.57029,-15.11528,-14.83581,-14.72181,-14.76338,-14.95079,-15.2745,-15.72517,-16.29362,-16.97087,-17.74813,-18.61681,-19.56849,-20.59496,-21.68821,-22.84043,-24.044,-25.2915,-26.57573,-27.88969,-29.22658,-30.57983,-31.94304,-33.31008,-34.67499,-36.03206,-37.37576,-38.70082,-40.00217,-41.27498,-42.51463,-43.71674,-44.87715,-45.99194,-47.05743,-48.07017,-49.02693,-49.92474,-50.76088,-51.53284,-52.23838,-52.87551,-53.44247,-53.93776,-54.36014,-54.70861,-54.98243,-55.18112,-55.30447,-55.3525,-55.32554,-55.18798,-53.30457,-52.11797,-51.79967,-52.33087,-52.4775,-51.60781,-50.25566,-48.64396,-47.68911,-46.86846,-45.73982,-44.67405,-43.9025,-43.86093,-43.67597,-43.08529,-41.77447,-39.94047,-37.80249,-35.57899,-33.52144,-31.70632,-30.26357,-29.36844,-29.14863,-29.6325,-30.74057,-32.40959,-34.53612,-37.12992,-40.01895,-43.10694,-46.24506,-49.26207,-52.10785,-54.75005,-57.07369,-58.98977,-60.46237,-61.51469,-62.20913,-62.62654,-62.58334,-62.09582,-61.22677,-60.04608,-58.48959,-56.54538,-54.54484,-52.58914,-50.68803,-48.82415,-46.76857,-44.16884,-40.76306,-36.61258,-31.6911,-25.93084,-19.25522,-11.78455,-3.661687,4.823892,13.68584,22.88621,32.19183,41.63283,51.04457,60.37065,69.62569,78.62895,87.49796,96.07672,104.4392,112.5261,120.247,127.6268,134.54,141.1479,147.4335,153.4176,158.7642,163.5594,167.7488,171.4729,174.6103,177.1714,179.3044,180.8282,181.6964,181.7499,180.9896,179.342,176.9195,173.8679,170.2818,166.1029,161.3336,156.0039,150.4345,144.6029,138.3682,131.6177,124.3885,116.8484,109.0878,101.0769,92.743,84.25216,75.548,66.78039,57.95508,49.1788,40.56159,32.30445,24.86213,17.9126,11.0529,4.396326,-1.959819,-7.769853,-13.02695,-17.77261,-21.90008,-25.20941,-27.48761,-28.80671,-29.40279,-29.33175,-28.8192,-27.87455,-26.7087,-25.56553,-24.54373,-23.58422,-22.54809,-21.66695,-20.75489,-20.10936,-19.27973,-18.25185,-17.0821,-15.78837,-14.35615,-12.72456,-11.31056,-10.29291,-9.616806,-8.839942,-7.629795,-5.687479,-3.309424,-0.7332986,2.102883,4.947256,7.639705,9.78771,10.77398,10.7483,9.96926,9.026835,8.096855,7.311532,7.037978,7.201322,7.911278,8.824622,9.752671,10.59218,11.28065,11.8583,12.15465,12.14016,12.31163,12.84883,13.69024,14.48376,14.37716,12.95399,10.03964,5.928614,0.9079772,-5.083109,-11.79258,-18.8562,-26.0479,-33.2785,-40.56265,-48.01636,-55.54311,-62.90274,-69.62194,-75.63156,-80.97251,-85.93256,-91.09737,-96.67191,-102.9356,-109.9933,-117.5756,-125.453,-133.3665,-141.2773,-148.882,-155.8848,-162.1811,-167.9405,-173.2125,-177.9856,-182.056,-185.8079,-189.6654,-193.7012,-197.8835,-201.3942,-203.6706,-204.4075,-203.7325,-201.9306,-199.0036,-194.7446,-189.3014,-183.0062,-176.0999,-168.5371,-160.3451,-152.2038,-144.1849,-136.0739,-127.7298,-119.1392,-110.2352,-101.2492,-92.27665,-83.2925,-74.02064,-64.48951,-54.9668,-45.49698,-35.82501,-26.19903,-16.98396,-8.549454,-0.8783685,5.983087,12.27676,17.8263,22.54801,26.15945,29.06125,31.32297,32.87172,33.58936,33.23698,31.80591,29.57872,27.13467,24.66191,22.21729,19.57781,16.81569,13.83116,10.45974,6.127448,0.7480731,-5.405445,-12.38245,-19.9214,-27.50704,-35.05458,-42.39288,-49.47257,-56.34873,-63.25003,-70.21372,-76.86461,-83.07741,-89.05795,-94.80876,-99.95426,-104.1455,-107.5556,-110.4094,-112.9813,-115.6138,-118.4872,-121.8381,-125.7304,-129.9048,-134.0238,-137.4786,-140.0525,-141.882,-143.0277,-143.6115,-142.8539,-140.4246,-137.0582,-133.5847,-129.9891,-126.1364,-121.6087,-117.1737,-113.1029,-109.9886,-107.5671,-105.1631,-102.8955,-100.6653,-98.48396,-96.12958,-93.5957,-91.05791,-88.72335,-86.58647,-84.76337,-83.27281,-82.04413,-81.38264,-81.40166,-81.9131,-82.77709,-83.40532,-83.63316,-82.81568,-81.11421,-78.78652,-76.31493,-73.85752,-71.39646,-68.92874,-66.76708,-65.03659,-63.81142,-62.83732,-61.77537,-60.55412,-58.99621,-57.16742,-55.22074,-53.07663,-50.54453,-47.85328,-45.11808,-42.57925,-39.97521,-37.15911,-34.09162,-31.45005,-29.52873,-28.31889,-26.78925,-24.86463,-22.43281,-19.83789,-17.01157,-14.06255,-10.97781,-7.923959,-4.851996,-1.678097,1.555239,4.674665,7.710216,10.64461,13.52858,16.44021,19.30501,21.97474,24.43394,26.50177,28.3793,29.82035,30.62629,31.29162,32.10805,33.25532,34.73583,36.20047,37.47422,38.66921,39.89784,41.08272,41.9379,42.38643,42.52507,42.59275,42.42051,42.05167,41.41207,40.31883,38.69748,36.83149,34.67669,32.51568,30.52189,29.53859,29.2282,28.93254,27.60478,25.30664,22.1539,18.50892,14.65289,10.73227,7.122043,3.175715,-1.624423,-7.124759,-12.95636,-18.45166,-23.10034,-27.64722,-32.39254,-37.63274,-43.2508,-48.79821,-54.47624,-60.09906,-65.63698,-71.18215,-76.45814,-81.1994,-85.75935,-89.96601,-93.94909,-97.4901,-100.5734,-103.2672,-105.5333,-107.6019,-109.4285,-110.3447,-110.749,-110.643,-110.3128,-109.7455,-108.748,-107.4013,-105.9419,-104.2985,-102.5748,-100.404,-97.8496,-94.69505,-91.20858,-87.34059,-82.81618,-77.8512,-72.65009,-67.18419,-61.77153,-56.44363,-51.37905,-46.68877,-42.26265,-37.93167,-33.47503,-29.20243,-24.58349,-19.23235,-13.14497,-6.875634,-0.4184235,5.58279,11.13844,16.28723,21.47445,26.59292,31.47826,36.45741,41.06293,45.18773,49.07579,52.36864,54.82078,56.66897,58.30014,59.52802,60.2656,60.21614,60.12746,60.28672,60.62624,61.2035,61.89867,62.68337,63.63131,64.01395,63.55602,62.2468,60.31387,57.81861,55.06984,52.21946,49.32599,46.79738,44.72826,43.11468,41.62895,40.2778,39.17504,38.52751,38.36569,38.72177,39.14919,40.01032,40.2966,39.97428,38.82458,37.64552,36.50888,36.22349,37.01218,38.38993,39.7866,41.12625,42.54401,44.17478,45.88959,47.45412,48.89396,49.68471,50.30867,50.63878,50.7244,51.22014,51.92414,52.85536,54.12687,55.31619,56.64791,58.10326,59.54062,61.0216,62.2373,63.43405,64.82093,66.59009,68.31231,69.30003,69.69566,69.95675,70.07892,70.1641,70.16198,70.40142,71.22426,72.97948,75.27565,77.55937,79.51502,81.64194,84.10445,86.91931,89.45649,91.90924,94.43757,96.83908,98.95571,100.6785,101.634,102.2875,102.7883,104.1594,106.4298,109.1154,111.3753,112.1802,111.7631,110.1928,107.9453,105.3761,102.9205,100.1291,97.12965,93.7316,90.36475,86.86405,83.35865,79.59526,74.97284,70.19937,65.79023,61.33285,56.64476,51.98373,47.68603,43.8555,40.60988,37.43672,34.54975,31.56449,28.63034,25.64133,22.56212,19.30959,15.88246,11.84637,7.834893,3.761559,-0.5130837,-4.620791,-7.765877,-10.31084,-12.51661,-14.50668,-16.35983,-17.83616,-19.03611,-20.05782,-21.2886,-22.37771,-22.74131,-22.5886,-21.91483,-20.56334,-18.78769,-16.08367,-13.08131,-9.736831,-6.14175,-1.751334,3.241115,8.262132,12.94476,17.51965,22.38371,27.81113,33.49751,39.18096,44.71852,49.98946,55.48383,61.24713,66.91648,72.42436,77.33851,82.38016,87.46589,91.94808,95.9351,99.12918,102.8497,106.9241,110.1599,111.858,112.2104,111.583,110.1556,107.7043,104.3472,100.7728,97.17567,93.7817,90.51367,86.92915,83.12144,79.22144,75.15284,70.74768,66.17924,61.80182,58.02589,54.63913,51.07066,46.47982,41.16357,35.94448,31.56021,27.95622,24.64079,21.80326,18.97454,16.91595,14.62357,11.23719,6.872548,2.338025,-1.417508,-4.607786,-7.268832,-9.711631,-11.80148,-13.26336,-14.42682,-15.80188,-17.17343,-18.20976,-18.44489,-18.18042,-17.63493,-16.86186,-15.77824,-14.47365,-12.83887,-10.97925,-8.743711,-6.183884,-3.162783,-0.2125937,2.38897,4.565091,6.936715,9.849228,13.38068,17.14647,20.45011,23.68716,26.80994,29.47273,31.347,32.61308,33.76096,34.86727,36.12982,37.18506,37.50912,38.07967,38.72817,39.1102,38.98743,38.8536,38.97715,39.25561,39.70269,40.13614,40.19069,40.16169,39.85815,39.40463,38.959,38.7479,38.69111,38.80762,39.12979,39.62486,40.20341,40.70232,41.46745,42.36553,43.30227,44.19212,45.15962,46.19071,47.23347,48.54359,49.58594,50.96327,52.77496,54.80352,57.23279,59.50572,62.17192,64.46919,65.94328,67.19601,68.51212,69.99604,71.90783,74.08026,76.29713,78.33483,80.40354,82.8719,85.60126,88.2843,90.79924,92.91583,95.18499,97.32455,99.20441,100.8095,102.395,103.6811,104.6024,104.7832,105.0216,105.7927,107.3026,108.9285,110.2634,111.1851,111.9564,113.6228,115.7946,117.6888,118.473,118.5579,118.3038,118.2539,118.2511,117.739,116.9327,116.283,115.543,114.4761,113.3824,112.26,111.231,110.2186,108.9356,107.2908,105.3978,103.6421,102.0681,100.8308,99.10265,96.85946,95.20725,93.69612,92.1102,90.26716,88.30625,86.82018,85.52809,83.8282,81.23394,78.09288,74.90143,73.3531,71.83498,69.2766,66.03797,62.94948,60.2261,57.27131,53.77592,50.49543,47.04348,43.72349,40.50495,36.76914,32.88176,29.07418,25.76872,22.51553,18.81578,15.03464,11.43389,8.548795,6.336484,4.37359,2.208761,0.4646333,-0.5275254,-1.356327,-2.686275,-3.836398,-4.519069,-4.56885,-4.250259,-4.313631,-4.567889,-4.23505,-3.111303,-2.128185,-1.639407,-0.9453944,-0.04320847,1.163596,2.963677,4.42742,5.709125,7.285365,9.401848,11.58284,13.29209,14.92315,16.86816,19.41889,22.21247,24.41749,25.92024,27.55377,29.43601,31.26175,32.31994,32.6121,32.90237,33.53608,35.06673,36.4839,37.72602,38.96052,40.23874,41.65207,42.78634,43.33113,43.9633,44.79748,46.33635,48.21766,50.06552,51.52152,52.62518,53.43007,53.66758,54.26006,55.0085,56.38663,57.77528,58.80469,59.46955,59.90859,60.2943,60.719,61.1081,60.92376,60.62438,60.46988,60.59199,60.4718,59.4231,58.01116,56.60984,55.52837,53.94558,52.33582,50.78813,49.13788,47.64564,45.9787,44.21368,42.33898,40.75525,39.29228,37.97228,36.56002,35.55942,34.61578,32.41231,29.31331,26.51095,24.29948,22.24765,20.1689,17.76564,15.02645,11.88112,8.935625,6.262235,3.497189,0.3568428,-2.929515,-5.608152,-8.27763,-11.12353,-14.27567,-17.28733,-20.01477,-22.19354,-24.2206,-25.88159,-26.60589,-26.71278,-26.27732,-25.95703,-25.96785,-26.81381,-27.66431,-28.89926,-30.73741,-32.87496,-35.95856,-39.38514,-42.93829,-45.90656,-48.30633,-50.36554,-51.32852,-51.94932,-52.10662,-52.40065,-52.4448,-51.58606,-50.0638,-47.89123,-45.17573,-42.47032,-39.26515,-35.63954,-31.98847,-28.80457,-25.31027,-21.47146,-17.04256,-12.31694,-7.452652,-2.513746,2.730307,8.332139,13.52805,18.46147,23.00494,27.23597,31.70396,36.15152,40.43897,44.71705,49.23874,54.43882,59.65701,64.25139,68.10047,71.6954,75.66343,79.7027,83.44972,86.37925,89.33055,92.18097,94.7587,97.25619,99.98918,102.4011,104.244,105.4773,106.131,106.1289,105.616,105.244,104.5113,102.9075,100.8939,98.76032,96.94579,94.91702,92.37434,89.06916,85.58442,82.27344,79.19665,75.72364,71.78445,67.41501,62.71313,58.46392,54.38746,50.40711,46.52038,43.41843,40.74358,37.94553,34.80895,31.54727,28.69386,26.32181,24.38103,22.38827,20.62404,19.35733,18.47298,17.7054,17.17086,16.94223,16.96233,17.82187,19.23564,20.96546,23.10535,26.12638,29.9515,34.49088,38.87875,42.6006,45.83738,48.33068,50.13038,51.46036,52.11753,52.39002,52.82612,53.1676,52.81048,52.63278,52.98192,54.30534,55.85533,57.19525,58.397,59.19848,60.00868,59.95834,59.73336,59.28449,58.84553,58.70543,58.06925,56.74867,54.95687,53.00436,51.12311,49.07644,47.20911,45.65791,44.4495,43.56657,42.37713,40.24577,37.73939,35.61358,34.03428,32.40979,30.81153,29.01709,27.52382,26.65416,25.83015,24.74934,23.73528,23.24554,23.30208,23.74613,24.01369,24.20459,24.85687,26.04898,27.40839,29.04523,30.64403,32.3531,34.60875,37.63276,40.17006,41.36912,42.30468,43.93543,46.17256,48.0889,49.74292,51.39657,53.29329,55.15104,56.86704,58.44697,59.74925,61.46196,63.158,64.44959,65.2551,65.85762,66.65763,67.28914,67.82251,68.17247,68.35925,69.33818,70.45777,71.17446,71.22319,71.86565,74.20918,75.59808,75.70433,74.78058,73.6913,72.99266,72.32956,71.14447,69.40189,67.65664,66.35869,65.03488,63.13609,61.25002,62.17711,62.47983,61.25362,59.31787,56.97541,54.92223,53.38847,52.05917,50.69211,48.17552,45.27113,43.01319,42.12232,41.40183,40.73008,40.85621,41.4622,42.69297,44.13251,45.6812,47.52098,50.42521,53.98158,57.81427,61.27034,64.69139,68.30355,72.8542,77.68866,82.59004,87.52959,93.13248,99.01604,105.1073,110.7354,113.0566,114.1812,118.7538,125.8099,133.5173,140.9859,148.2809,155.0368,162.0472,165.7307,144.1445,117.1492,112.9785,123.9703,138.2184,151.5948,164.8998,179.436,195.8146,214.0307,234.013,254.8978,275.5736,295.093,313.7959,332.4551,356.2446,380.5357,400.431,415.9045,430.144,443.9501,454.9551,459.7232,458.4401,453.7576,444.8634,429.0102,405.9086,377.9294,346.525,311.4834,273.2355,231.7723,186.9014,139.5299,90.31933,39.91551,-11.98196,-65.35436,-119.4566,-173.8723,-228.076,-281.3124,-334.5912,-387.9811,-439.8683,-489.3672,-537.837,-584.1968,-628.6216,-671.5687,-713.6943,-753.575,-790.3965,-824.4344,-855.3728,-882.1303,-906.0411,-927.6726,-946.603,-962.147,-973.8393,-981.2459,-985.4271,-986.2362,-986.9232,-983.9773,-976.579,-966.0768,-952.3124,-936.129,-916.3846,-893.8554,-869.4373,-841.9726,-810.8303,-776.7128,-740.6165,-702.2617,-662.9405,-621.5181,-578.0633,-532.9706,-486.9264,-440.686,-392.8686,-344.3682,-296.0362,-248.2635,-201.5447,-155.8523,-110.9394,-67.72514,-26.47057,11.82832,47.30777,80.13453,108.9297,133.451,152.508,171.0744,188.6242,200.5744,204.6873,201.2416,191.1222,174.9316,151.8488,120.2871,84.15958,73.47359,80.28948,75.73643,60.10422,40.92455,23.75506,10.02438,-0.6935012,-9.769005,-18.36209,-26.46396,-32.31653,-35.27286,-34.01684,-30.35831,-23.55727,-20.76158,-18.56148,-13.69548,-6.780717,-1.051431,2.345031,4.591366,7.272655,9.656452,9.497983,7.823292,7.435212,8.946411,10.4482,10.82904,11.92854,13.34129,14.42826,15.50751,16.27603,17.44482,19.2464,20.93568,21.96021,23.04674,24.68032,26.93285,28.81198,30.37464,31.70538,33.73457,36.17687,38.56253,40.07123,41.34413,42.9635,44.76449,46.79139,47.84324,48.98559,50.49427,51.26726,51.56866,51.70029,51.79239,52.38301,53.54316,54.1317,54.2263,53.72772,53.35721,53.35321,53.28714,52.7469,51.21668,50.59268,49.88772,49.05084,47.8166,46.56305,44.95297,43.9269,43.17155,41.24534,39.33986,37.42881,36.17733,34.69588,32.76406,30.91796,28.51976,26.4278,24.71469,22.03622,19.43671,17.12721,15.20221,13.18613,10.74507,8.172074,5.993092,4.044938,2.556176,0.5875463,-1.709961,-3.755324,-5.139491,-6.951717,-8.629349,-10.55003,-11.48365,-11.46903,-11.52615,-12.42679,-13.55742,-13.70409,-13.09834,-11.95819,-11.72697,-11.36762,-9.707646,-7.292434,-5.602379,-5.685346,-6.507146,-5.957508,-5.124044,-4.402249,-6.266046,-7.715862,-8.275481,-7.090474,-6.463081,-7.367821,-8.555378,-7.524678,-5.1644,-2.946396,-2.901169,-3.367978,-3.169627,-1.906213,-1.091582,-1.730879,-2.824073,-2.603884,-1.414459,-1.153698,-1.553719,-2.88691,-2.423077,-0.8379965,0.1777305,-0.2523285,-0.6554518,-0.1589904,1.594952,3.674549,4.07477,3.818026,4.404767,6.077136,7.069506,7.641452,7.55868,8.711006,11.27704,13.65073,14.98052,16.14461,18.31275,21.53326,24.40806,26.41417,27.70057,29.83434,32.78813,35.63185,37.54832,39.12939,41.29397,44.09182,46.45997,48.17406,49.33839,51.80742,54.94819,58.175,59.76469,60.59877,61.95714,65.16492,68.53565,69.97131,70.06681,71.20195,73.87456,76.84099,77.94032,77.79101,78.07784,80.0461,81.7392,82.04381,81.23026,81.10746,81.68422,82.51138,82.1524,80.91458,79.67282,79.69829,79.89271,78.61297,75.64302,73.70819,72.93741,72.02074,70.16067,67.14204,65.32632,64.27628,62.02245,58.58037,54.8526,51.37079,48.12748,44.84329,40.27538,35.96671,33.25117,30.83649,28.60027,25.92426,23.34443,21.539,20.22032,19.34548,17.62928,16.08956,15.417,15.23512,15.21393,14.65346,14.44785,14.92621,15.23756,15.2841,13.57646,11.65677,11.15949,11.00595,10.13499,8.590124,7.065565,6.278865,5.517272,4.315622,2.911236,0.8370933,-0.3004809,-1.562595,-2.78701,-5.059513,-7.33171,-9.341538,-10.76265,-12.85111,-15.97217,-19.4752,-22.39047,-24.74936,-27.2289,-30.20061,-33.09346,-35.65645,-37.97013,-40.73553,-42.70184,-45.54861,-48.58527,-51.30677,-53.72352,-56.79884,-60.83722,-64.08684,-66.84787,-69.55368,-72.87104,-76.34042,-80.08573,-83.30537,-85.89423,-88.07786,-90.76419,-93.34046,-95.49413,-97.32532,-99.4491,-101.7651,-103.5051,-104.2594,-104.8523,-106.2568,-107.9189,-108.2257,-107.547,-107.2187,-107.9234,-108.4238,-108.1811,-106.2131,-103.0774,-99.72353,-96.82991,-93.73051,-90.64101,-88.84328,-88.14444,-88.61298,-89.57316,-91.13583,-92.78464,-95.00007,-96.43005,-96.89896,-97.21602,-97.65681,-97.58274,-98.09395,-98.10118,-97.99366,-97.81698,-97.77792,-97.70848,-97.47988,-96.87131,-94.88448,-92.75391,-90.53975,-87.69575,-84.58868,-80.49697,-76.80146,-73.59921,-70.19477,-65.75396,-60.8689,-56.38583,-52.74403,-48.68695,-43.89769,-38.70244,-34.14461,-30.04274,-25.91337,-21.11901,-15.98302,-11.70859,-8.161941,-3.71048,0.8741005,5.794909,9.975655,14.0677,17.48605,21.3447,24.84637,28.04362,30.33656,32.80782,35.0874,36.93573,38.71857,40.02711,40.80231,42.16903,43.39813,44.38781,44.73416,44.65108,44.78892,45.79039,46.23531,45.97568,45.30733,45.60746,44.97222,44.06816,43.04128,41.57168,40.61154,40.37479,39.03595,37.44616,36.28457,35.19117,34.08206,33.16842,31.96755,29.90051,29.01395,28.07341,27.57222,26.44488,24.97718,23.95829,23.80295,23.73956,22.60646,21.74895,21.91519,23.28367,23.97067,24.38427,25.2121,27.11779,29.76304,32.47243,34.87866,38.48842,43.32322,48.55704,51.69375,52.80665,52.7004,52.70469,51.56659,50.45843,48.21789,45.93016,43.8993,43.59695,42.76094,42.12926,40.34756,38.18098,37.69415,36.86168,34.38922,32.13614,30.12725,28.58593,26.86001,24.79609,22.26681,19.76439,17.7337,15.93113,13.81078,11.40466,9.512432,8.000853,6.211728,4.121132,1.89811,0.4942452,-0.6696498,-1.468709,-3.296993,-4.655425,-5.445242,-5.35346,-5.599402,-5.849831,-6.572182,-6.340787,-5.61823,-4.861373,-4.447019,-3.588247,-2.756326,-1.934366,-0.3397408,0.5288554,0.4559946,1.568594,2.46318,4.401678,5.417209,6.452708,6.877254,8.320566,10.27917,11.96572,12.55557,13.86273,15.64698,17.27316,18.4699,19.29544,20.43782,22.28091,23.1615,24.05935,24.4106,24.72543,24.981,26.59616,28.25315,28.15239,28.103,29.09043,30.47111,31.51419,31.82676,32.04067,32.87223,34.31108,35.05474,34.95128,35.39672,36.20935,37.66525,38.08153,37.6996,37.73822,38.8869,39.8257,39.95509,39.75101,40.03962,40.79355,41.0792,41.22816,41.03559,41.02381,41.34962,41.26812,41.08447,41.10203,40.50065,40.44413,39.92617,38.77466,37.21092,36.1071,35.04245,34.76149,33.95388,32.78982,32.02002,32.18205,32.28156,32.8601,32.30353,32.27327,33.13674,33.5248,33.75837,33.60258,33.49219,33.39439,33.84615,33.99729,33.57629,32.81103,32.61674,33.24586,33.22601,32.33676,31.25092,30.26324,30.19961,29.86354,28.53258,27.31448,26.21814,25.80123,24.405,23.14516,21.07593,19.43502,18.03051,16.26446,13.46208,10.66984,8.119025,5.573308,2.90653,-0.4036993,-4.083077,-7.635081,-9.93417,-13.3329,-17.10205,-20.49034,-24.02621,-26.54602,-30.07264,-33.97364,-38.55447,-42.09845,-44.98789,-48.50307,-52.74963,-56.75058,-60.21278,-62.88412,-66.0159,-69.66191,-73.60745,-76.745,-79.85822,-82.43392,-85.64938,-89.20768,-91.92781,-94.09751,-96.12592,-98.84693,-100.0027,-99.40732,-97.97052,-97.23965,-97.26318,-98.10154,-99.2098,-100.8183,-103.1537,-106.8589,-111.1302,-115.066,-117.1452,-118.9062,-120.8463,-122.9359,-124.4494,-124.824,-124.8779,-125.0799,-125.3394,-124.7945,-123.3231,-121.4383,-119.8392,-118.31,-116.7072,-113.9674,-110.4798,-108.4861,-106.6905,-103.9062,-100.5694,-97.51966,-94.08739,-90.51459,-86.28484,-81.9019,-77.29324,-72.61654,-67.2001,-62.2313,-56.50978,-50.41145,-44.54749,-39.57355,-34.7962,-29.71476,-24.63883,-20.81378,-16.86602,-12.69266,-8.259964,-3.580365,0.8326625,4.754036,8.480802,12.83472,16.89403,20.86389,24.2604,27.99997,32.17203,36.32325,39.45899,42.9562,45.96748,49.52984,52.98789,56.44587,58.48807,60.6318,63.46613,65.88249,68.09557,69.06988,70.05031,71.52124,73.3792,74.1587,74.4511,74.3168,74.99623,75.28672,74.6818,73.59029,72.87454,72.1742,71.34725,70.23534,68.36249,66.27331,64.58819,63.06506,61.68545,59.98071,57.99893,56.58205,55.10579,54.04719,52.73334,51.53172,51.164,51.55018,52.06729,51.83859,52.6467,54.05858,56.42582,59.29978,63.13522,64.69729,65.47632,66.32638,65.83259,63.88661,61.18301,58.97671,57.25703,54.88414,52.93094,51.13281,50.71637,49.62281,48.2416,46.09764,43.67733,42.52493,41.03593,39.0815,36.27358,33.83214,31.97806,30.39424,28.4144,25.86208,23.56202,22.2839,20.50515,19.19752,17.85701,16.22483,15.21725,14.4884,14.04676,13.23155,12.3514,11.39842,12.03945,12.31843,12.61973,11.83797,11.57718,11.80947,11.82047,10.48359,8.89759,7.706327,7.405323,6.650074,6.291465,5.348979,3.744823,3.758683,3.608336,2.763616,1.095503,1.17413,1.50034,2.423628,2.076398,1.122443,0.1501869,-0.3313023,-1.33276,-2.687717,-5.865665,-8.287439,-9.20567,-9.961662,-11.51452,-13.76498,-14.86805,-15.94525,-16.30657,-17.81666,-19.18336,-19.50047,-19.92689,-20.49704,-21.05314,-22.38086,-23.01587,-22.84662,-23.46826,-22.06116,-21.04682,-21.22058,-21.24174,-21.4841,-22.03589,-23.18323,-24.05119,-24.28163,-24.62194,-25.59654,-27.35401,-28.95112,-29.82463,-30.17437,-31.15075,-32.5328,-34.13353,-34.98921,-35.88692,-37.01155,-38.21778,-39.33839,-39.90635,-39.98238,-40.49961,-42.05804,-42.37233,-41.71167,-41.0958,-40.7717,-41.06398,-40.42001,-39.46939,-37.91543,-36.51903,-36.16359,-35.25346,-33.31293,-31.31288,-30.18191,-29.47897,-27.84526,-26.3976,-24.63313,-23.38377,-21.90378,-20.90635,-19.17415,-17.63233,-15.69857,-13.99509,-13.02885,-11.26983,-8.65065,-7.523199,-6.181768,-4.984023,-3.141053,-1.064808,0.8005968,2.074497,3.423718,5.506054,7.372211,9.356293,10.36314,11.75014,13.86685,16.31507,17.15049,18.13157,19.98362,21.74245,23.78456,25.59427,26.35879,27.37458,29.43176,31.70454,33.89021,35.23011,36.95809,38.39378,39.88011,39.92134,38.94067,37.43986,35.84273,34.45513,32.94774,30.42344,29.25798,29.15055,28.98857,29.19605,29.27545,29.50237,29.29319,30.94081,31.88727,32.31641,33.23578,33.95932,35.54972,37.2612,38.26381,39.3794,41.23027,43.46355,46.15625,45.81797,44.55387,44.04467,44.26905,43.85152,42.5174,40.94255,39.28222,39.07476,38.49439,37.31005,35.51209,34.8694,33.73352,31.2721,27.80172,23.06059,18.2138,12.55975,6.000161,-1.049447,-8.332327,-16.55114,-23.46558,-30.83486,-38.74224,-47.35929,-54.82999,-61.97986,-68.88362,-76.49925,-82.94651,-89.39755,-94.43638,-100.1048,-105.0939,-109.481,-112.8445,-116.0833,-119.0795,-122.009,-124.7843,-126.8033,-127.8973,-128.2277,-128.0998,-127.8389,-126.1081,-123.7012,-119.5555,-116.1211,-111.873,-106.7501,-100.8816,-94.1421,-86.86681,-79.9295,-71.8101,-63.30385,-54.3902,-45.44555,-36.59041,-27.54545,-18.15094,-8.065322,1.272145,9.686197,17.97656,27.06839,35.32821,43.79244,51.2145,58.2515,65.81134,72.59502,78.86012,84.02451,89.13269,94.25407,98.6249,101.7368,104.0644,105.2395,106.1845,106.2812,105.5703,103.9762,102.0766,100.0367,97.75015,95.13597,92.41276,89.25229,86.30946,82.91887,78.86262,73.51688,67.88406,63.15149,58.43989,52.88776,47.03056,40.95587,35.56004,30.2018,24.71011,18.42683,12.86669,8.108374,3.035821,-1.842906,-6.592907,-10.13823,-11.89685,-13.16269,-14.0103,-14.96012,-15.5149,-14.33762,-13.49717,-12.93986,-12.69767,-12.49082,-12.79424,-12.69521,-12.43994,-13.11116,-13.85371,-14.07597,-13.4409,-12.01357,-11.04167,-10.91073,-9.253918,-7.40716,-5.32528,-4.239891,-1.986067,-0.2150513,2.778673,5.005997,7.396547,9.324395,11.82598,14.06096,17.52846,19.08506,20.09314,21.74536,23.00569,24.70565,25.32535,26.44595,27.92486,30.29553,32.04706,33.25292,34.89594,37.26316,39.66594,41.53611,44.05715,45.76313,48.02348,51.22278,53.76374,55.75509,57.72755,59.66587,60.85813,62.02013,62.67375,63.1204,64.2936,66.21448,67.40524,68.70357,70.25863,72.11965,74.37509,77.00174,79.78329,81.75797,84.23808,87.1598,90.38269,92.47407,94.91004,97.12029,99.90094,102.3015,104.032,105.1527,106.7004,108.4869,110.0392,109.6449,110.9007,111.0033,110.7242,110.6624,109.214,107.2707,104.8108,102.8523,100.7716,97.64268,93.59734,89.62114,86.21067,82.01579,77.64483,72.23717,66.62938,61.88535,56.99289,51.12563,45.38866,39.73767,33.64787,28.68026,23.16366,17.57583,12.03821,5.202614,-1.250318,-8.489559,-15.68019,-22.85514,-29.5857,-36.42052,-43.23672,-50.35474,-57.33658,-63.10468,-68.81222,-74.7194,-80.65652,-86.6906,-91.60254,-95.89697,-100.6444,-105.9901,-109.8834,-113.4357,-116.7358,-119.8465,-123.1616,-126.3444,-127.5041,-129.4744,-130.8737,-132.3743,-133.0128,-133.3356,-133.2487,-133.305,-132.795,-131.0678,-128.5238,-124.5192,-121.1806,-117.8686,-115.699,-113.1602,-111.9845,-111.5624,-111.829,-113.2413,-114.1015,-114.173,-114.1912,-115.2684,-116.8047,-117.6338,-118.6644,-119.7956,-121.8697,-124.3518,-126.9802,-127.312,-127.8659,-128.4281,-129.1047,-129.1315,-128.1663,-127.1429,-126.3411,-125.4625,-123.4345,-120.8629,-118.3037,-116.1137,-113.2609,-110.1322,-106.7359,-103.153,-99.28502,-95.38438,-90.90818,-86.28574,-81.27754,-76.62586,-71.61424,-66.35553,-60.74696,-55.30459,-48.35558,-44.21483,-39.67786,-33.55997,-27.64109,-22.53685,-17.97692,-12.9039,-7.155807,-1.820946,1.753866,5.783257,10.69215,14.88555,18.9573,21.83428,24.69829,28.21227,31.74533,34.43593,36.85855,38.51486,40.86717,43.13308,44.48147,45.70549,46.1799,46.43296,47.58027,47.76024,47.37142,46.27558,45.14101,44.72707,44.30177,42.74274,40.79281,39.23438,37.54932,36.46882,33.96647,30.79121,28.8645,26.76056,24.62896,22.26137,19.75627,17.03247,15.81972,14.53651,12.8808,11.27,10.44226,8.664162,8.100803,7.099024,7.069698,6.604692,7.55384,9.543206,11.62318,13.65979,15.60634,17.28378,18.07792,17.74089,16.90468,15.72981,14.11234,13.0617,12.54492,11.86383,11.67036,11.45776,12.15595,12.41826,11.91535,10.85818,11.34092,12.8498,12.72613,12.4129,12.13902,13.8078,14.39998,15.00981,15.19598,15.44107,17.013,17.68804,18.62798,18.6522,19.2831,19.95347,20.87376,21.54384,21.91212,22.01563,22.69493,23.48764,24.69171,24.60603,24.50673,25.1083,25.50349,26.00294,26.40097,25.59326,26.11338,26.20861,26.62711,26.27536,25.78404,25.58624,25.56077,25.78109,24.81651,23.87816,23.81202,23.00369,21.74948,21.22439,20.14055,18.32163,17.83769,16.96244,15.75387,14.42406,13.74732,12.00522,11.17612,9.769215,8.501916,6.360937,5.227393,3.896512,2.782548,0.8105428,-1.075272,-2.919786,-4.27073,-5.680173,-7.749866,-8.864879,-9.81861,-10.7613,-12.0817,-13.77119,-14.62937,-15.36102,-16.601,-17.35708,-17.80951,-19.1176,-19.04677,-19.03099,-19.41522,-19.36345,-19.13674,-19.60587,-20.03585,-20.5531,-21.50512,-22.46603,-21.96471,-22.68635,-22.33766,-23.23111,-24.05836,-25.18185,-25.48768,-26.30639,-27.79898,-29.22376,-30.67702,-31.22558,-31.76825,-33.54992,-34.72193,-34.34823,-34.16314,-34.8258,-35.83832,-36.44799,-36.0338,-36.29575,-37.22474,-37.68236,-36.99046,-36.61798,-36.81774,-36.58491,-36.39874,-35.2985,-34.14771,-33.42182,-32.67841,-31.92798,-30.3786,-29.67221,-27.56174,-26.04023,-25.14989,-23.6374,-21.3752,-18.9403,-16.4182,-14.75115,-12.9409,-10.29793,-6.853477,-4.868524,-2.205227,0.02324305,2.42126,5.434945,7.44766,8.861931,10.02884,12.09769,14.0844,15.504,16.14912,17.18743,18.514,20.6043,20.90022,22.14675,23.64163,25.50537,28.04109,31.53635,33.8359,36.05718,40.22527,43.78054,47.62574,49.61996,53.2024,55.95745,59.33362,61.96227,64.56892,66.07453,68.95632,71.28523,73.66125,75.02434,75.61959,77.86472,79.11538,80.33622,81.42616,82.22104,83.30732,83.42882,83.71107,83.9872,83.57124,83.11006,83.37342,83.65526,82.97206,81.66682,81.00299,79.88967,79.46145,78.70018,76.50084,75.17756,74.84974,74.84467,73.12498,71.47306,70.5549,68.72774,67.90859,65.46582,62.97453,59.81249,58.65408,56.65191,53.49997,50.65651,48.66777,47.19265,45.17016,43.33581,40.95031,40.01774,37.76864,35.13131,33.04729,31.1173,28.87835,27.66257,25.26293,23.02626,20.22042,17.94992,16.33304,14.90862,14.16665,13.59305,13.4354,12.39271,13.43016,13.77894,14.20573,14.27352,15.81361,16.77329,18.1004,19.40753,20.8132,22.39662,24.40295,25.73271,26.39747,27.81197,29.44079,29.91283,30.60875,30.22661,29.96214,29.39411,28.49183,26.94393,24.59027,23.15687,20.76541,18.38794,15.53544,12.75888,9.494718,6.640551,3.873041,1.563472,-1.119881,-3.522915,-5.700598,-6.302519,-8.912419,-11.69628,-13.48267,-16.43389,-18.63378,-22.37452,-24.67497,-27.95562,-30.66246,-33.19413,-36.26804,-40.02973,-42.56167,-45.8526,-48.38293,-51.22402,-55.27319,-57.94587,-61.1804,-63.26478,-65.59446,-69.29394,-71.43039,-74.26277,-75.55447,-77.8314,-80.60212,-82.36995,-84.29941,-85.53378,-87.55191,-89.08094,-90.37894,-90.03944,-88.8896,-88.38116,-88.2006,-87.06519,-86.27355,-85.42229,-86.32443,-87.07256,-88.34152,-90.19524,-92.34336,-94.0328,-95.60763,-98.05572,-99.12697,-101.2348,-102.9954,-103.3736,-104.3528,-106.671,-107.062,-107.4297,-108.389,-108.0007,-108.657,-107.4259,-106.0249,-105.0668,-104.5942,-102.7464,-102.3929,-99.42275,-96.84457,-94.13639,-90.05175,-85.71225,-80.06311,-75.66868,-70.57925,-65.29264,-59.11601,-52.62213,-46.43925,-40.65725,-34.15293,-27.20848,-20.2367,-14.22144,-8.36253,-2.152947,4.658011,10.28517,15.22036,20.19246,25.34921,30.44265,35.08939,39.08143,42.87969,46.43263,49.39696,52.91426,55.54726,58.23133,60.7069,62.64896,65.1122,66.88841,68.85654,70.24936,72.25416,73.1782,73.0916,73.13037,71.914,70.65885,68.31753,67.0369,65.38269,63.11137,61.20273,59.62831,57.68638,56.15278,53.53211,51.60882,49.4023,47.64491,45.08769,42.2327,40.70374,38.63441,36.4607,34.1817,32.379,30.79062,29.34544,28.31792,27.57271,25.80882,25.67561,25.20701,25.66906,27.28993,26.88614,29.47653,31.70645,34.92092,37.77451,41.58638,44.32907,47.69356,50.49062,51.79064,53.32614,54.3352,54.47763,54.87437,54.71371,53.89568,53.39871,54.26399,53.76245,52.10788,50.57492,49.68698,48.40154,46.48563,43.18033,40.19688,38.11345,36.44739,34.00404,30.62026,27.85224,25.25014,22.14928,19.93513,15.86326,12.35087,9.884078,8.224624,5.125896,2.261759,-0.3346461,-2.282582,-3.789581,-5.967844,-7.878991,-8.953128,-10.68736,-11.01312,-13.00707,-13.59172,-15.01959,-15.22932,-16.14746,-17.00994,-17.2363,-17.96095,-18.83738,-19.78207,-19.64561,-20.05658,-20.47802,-20.93425,-21.94679,-19.6969,-19.34085,-19.28537,-18.14246,-16.80261,-16.41519,-16.7497,-17.45641,-17.25116,-17.39909,-17.33221,-17.99096,-19.95702,-20.96016,-22.97621,-24.88398,-26.93011,-29.02833,-30.71843,-31.74216,-32.10579,-34.17979,-35.10678,-36.62193,-37.46771,-38.53656,-38.72941,-40.50094,-41.49162,-43.00011,-43.41344,-44.60186,-43.46099,-43.14459,-43.11739,-43.59186,-44.19694,-44.73102,-45.87937,-46.93448,-46.92174,-48.67591,-49.67427,-51.09548,-51.69923,-51.85695,-52.55052,-54.85054,-54.74239,-55.38832,-54.94288,-55.20074,-55.37541,-56.02019,-54.89144,-54.15011,-54.03746,-52.7887,-51.61403,-50.6957,-49.12631,-47.51949,-46.21134,-44.09748,-42.44117,-40.29047,-38.32893,-36.0316,-33.67006,-31.98629,-28.57905,-26.01223,-23.37547,-20.79915,-18.1001,-15.14308,-11.63043,-9.085864,-6.19013,-3.226272,0.927854,3.450329,6.978006,10.48782,13.031,16.59087,20.08463,22.95972,26.03331,28.66773,32.24384,34.99652,37.99448,39.96418,42.60929,45.24471,48.54337,50.66648,53.08222,55.0498,57.74481,60.09724,60.95882,61.88933,64.19382,66.65098,67.7653,69.12112,71.09021,72.99164,76.08112,76.42495,77.3211,77.82153,77.32073,77.04075,76.54061,76.73586,75.98179,75.00636,75.25913,74.21668,72.45149,70.92644,68.43056,66.5145,64.6408,63.37103,62.16028,60.61899,60.32159,60.01979,59.84058,58.86461,58.81278,59.45886,59.95737,59.71458,60.27039,60.35099,62.5578,63.50078,64.92727,64.0357,63.18518,62.62956,61.83923,61.07819,59.56603,57.36205,56.08705,53.75713,51.57293,48.33113,46.66443,44.10708,41.85189,39.19361,36.92358,33.52221,30.61089,27.16796,23.01259,19.02954,14.14974,8.877238,3.544644,-2.361072,-8.838416,-16.67815,-23.07141,-29.9027,-36.56494,-44.27514,-51.86401,-57.6282,-64.49374,-70.46076,-76.02344,-82.23277,-86.8185,-92.17839,-95.47304,-100.7885,-104.528,-106.957,-109.9828,-112.6646,-113.7639,-115.8,-115.7253,-116.3721,-116.0746,-115.3325,-114.8884,-112.9659,-111.6459,-109.9173,-108.4606,-105.9331,-102.0208,-97.86156,-93.55442,-88.73425,-83.56223,-77.19898,-70.68331,-64.43494,-58.28578,-52.06694,-44.8403,-37.61755,-30.79501,-23.88245,-16.12433,-8.336933,-1.285122,6.40746,13.77745,20.61114,27.5485,34.2462,40.36751,46.57049,51.33623,56.14741,60.786,64.5708,67.44562,69.75363,71.19531,71.83006,72.32085,72.93883,72.24343,71.71365,72.62414,72.25748,71.30006,69.01875,67.31418,65.43857,62.6382,59.51816,55.56491,51.95719,47.81182,44.62388,39.98448,35.02089,31.23469,26.42938,22.41008,17.63267,12.78287,9.038064,4.774944,1.326231,-2.393017,-6.183786,-8.520698,-11.5776,-12.87932,-14.16692,-14.8324,-16.10265,-16.35438,-15.98525,-15.98343,-16.8875,-16.63753,-16.23698,-15.71898,-15.8135,-16.73374,-16.74963,-16.61621,-16.55524,-17.04653,-17.31375,-17.02313,-16.2688,-15.31926,-16.06569,-14.95571,-13.93036,-13.9294,-11.93355,-11.17953,-10.7903,-9.988726,-9.479351,-8.301557,-7.765968,-6.756454,-6.605585,-6.069107,-4.923076,-4.546515,-4.262519,-3.882471,-4.295941,-4.482827,-4.538308,-5.655669,-6.802185,-7.99549,-8.291662,-8.647566,-8.137882,-9.138574,-8.97503,-8.251103,-6.924773,-6.308091,-5.979905,-5.761193,-5.709424,-6.209746,-7.061921,-7.674976,-8.719334,-9.49486,-10.99074,-12.09971,-13.37683,-15.33744,-16.03657,-17.20832,-18.71074,-21.01057,-21.80526,-22.67308,-23.75201,-25.74354,-26.36661,-26.90631,-27.7008,-28.03962,-27.61725,-27.68846,-27.62709,-27.01056,-26.72524,-26.52524,-25.75098,-24.88354,-24.823,-23.59216,-22.87418,-22.65233,-21.70392,-20.38194,-19.65679,-18.62824,-17.48971,-16.80807,-14.63378,-14.05994,-12.02084,-10.555,-9.395619,-7.342841,-5.32513,-3.126451,-1.086268,0.5648441,3.236389,5.92364,7.835595,10.21813,10.86298,13.75877,15.87999,18.49289,20.00496,22.67457,25.39255,27.85064,30.32479,32.74119,34.82047,37.37376,39.63382,41.56424,43.40681,44.98425,46.6355,48.42717,50.18039,50.96992,52.92613,53.17322,53.96571,55.09476,55.20204,54.86724,55.36803,54.57287,54.28615,52.8081,51.02157,49.83906,48.42351,45.47402,42.65537,39.79039,38.09877,35.08848,32.64668,29.5032,26.45802,24.26118,22.33785,19.54443,17.28245,15.30272,14.13016,12.30402,11.3375,10.0917,9.882202,9.388992,8.367102,6.785549,5.607894,3.816004,1.604512,-0.3873681,-1.616433,-3.663723,-5.433264,-7.374403,-9.627824,-10.52702,-12.82369,-15.11507,-16.53987,-17.4961,-19.58346,-21.34839,-22.59341,-24.82374,-25.8495,-26.95882,-28.06451,-29.66267,-31.18381,-31.44758,-31.84607,-33.79836,-35.25239,-35.62151,-36.32256,-36.96154,-37.84213,-38.74134,-38.61227,-38.89871,-39.33886,-39.87145,-40.53302,-40.71574,-41.40019,-41.08262,-41.80989,-42.48521,-42.30808,-41.98855,-41.18119,-41.65889,-41.69289,-40.5706,-40.86279,-40.44269,-39.45799,-39.57267,-38.64423,-38.36169,-38.40748,-37.84391,-38.22989,-36.87278,-35.63027,-34.51328,-33.80883,-31.78802,-30.90152,-29.81683,-27.7801,-26.56312,-25.77366,-23.81125,-22.07211,-20.78416,-18.97804,-17.07869,-15.38352,-13.44588,-12.43184,-10.9039,-8.171301,-6.613395,-3.285623,-0.8180718,2.286209,4.743095,7.924834,10.73912,14.02274,16.05645,18.53563,21.10182,23.7015,26.55708,28.35656,31.15603,33.57768,35.40643,37.47283,39.66336,40.88655,43.04316,44.49355,45.65759,47.8877,48.50946,49.59451,49.63314,51.26493,51.56385,51.22666,51.54653,50.87807,51.70189,51.09884,50.23062,49.53259,48.68775,48.62035,47.29907,46.12496,44.80303,43.53337,42.42647,40.85911,39.0158,37.97953,35.78462,33.89366,32.48109,29.73676,27.87871,26.39876,24.17683,22.00568,20.01642,17.76848,16.2786,14.39032,12.86848,11.29832,10.08301,7.895392,6.627555,5.824158,4.766979,3.808293,2.330813,1.758027,0.7503964,-1.237503,-2.388479,-3.459261,-2.817552,-3.125048,-2.464144,-1.859852,-0.4572776,0.6339262,2.268597,4.143312,5.717132,7.235933,9.817329,12.22826,13.76859,15.80977,17.79722,20.43739,23.37823,25.55571,27.41384,30.00399,32.4557,34.78495,36.25253,37.04,38.30529,40.36825,40.98404,41.37064,42.07945,41.19936,40.80496,40.36289,39.41977,36.5553,34.36943,32.94949,32.49747,31.16992,28.86687,27.10782,25.31181,24.18855,22.42073,19.94046,17.57178,15.6488,13.52496,11.33266,8.322926,5.720066,3.188015,0.01318709,-2.135103,-5.891211,-9.116184,-12.17613,-14.80632,-18.0361,-20.81618,-24.29545,-27.39999,-29.22219,-33.54186,-36.62935,-39.9043,-42.34673,-44.85094,-48.31172,-50.95694,-54.12254,-55.89722,-58.74162,-60.58054,-62.22069,-64.45861,-65.86126,-67.26907,-68.34431,-70.62434,-71.17816,-72.40716,-72.70567,-73.64215,-74.01859,-75.46255,-74.6524,-75.6829,-76.07641,-75.75314,-75.42591,-74.02809,-72.39653,-69.88273,-68.69007,-67.88956,-67.03538,-67.05151,-67.37931,-68.01891,-69.77649,-70.36895,-72.51518,-74.36863,-75.90624,-77.80059,-79.70226,-81.60233,-82.81955,-82.8841,-83.67525,-83.26984,-83.67645,-82.3599,-81.74403,-81.62019,-80.61283,-78.79212,-77.86097,-75.38224,-74.13341,-71.95893,-69.20471,-66.44821,-63.07362,-59.85797,-56.44711,-52.63232,-48.74097,-44.80691,-40.72955,-36.61962,-32.40098,-27.95287,-23.22056,-18.44718,-14.55715,-9.823449,-5.097104,-1.007463,2.297485,6.654257,12.06972,15.74001,19.20837,23.46972,27.31179,31.42122,34.70465,38.09041,41.78219,44.92333,47.99032,51.09859,53.33699,56.22252,58.17893,60.46628,62.19438,64.22599,65.45309,66.78712,67.94364,69.40181,69.30486,69.98174,69.63935,69.936,70.21518,69.52038,68.84704,67.50383,66.69345,64.9009,64.39509,61.93066,60.23541,58.51094,56.09975,54.4119,52.40107,50.38954,48.35121,46.7282,45.76374,42.54281,40.46961,38.6578,37.07228,35.52111,34.17453,32.33176,31.96068,31.37565,31.39212,30.7198,31.20826,31.92671,32.85751,34.99846,36.44179,37.46171,38.28795,39.20276,38.36146,36.60084,36.80023,34.95017,34.85169,34.52126,32.92113,32.17861,31.06886,31.95011,32.28703,31.76842,31.63873,31.43231,31.70003,32.06109,31.39815,32.04852,31.46788,32.67626,32.55774,31.93627,32.46413,32.20826,33.18343,33.49889,32.37741,33.00427,32.4936,33.31516,33.20522,32.49014,32.71272,33.09305,33.20634,33.56614,33.31516,33.86804,33.76342,33.71864,33.42102,32.28413,30.27647,28.69997,26.44734,23.26029,21.08896,18.88476,16.38507,13.37358,11.39021,8.747211,6.315978,3.628207,1.672033,-0.3783971,-2.680317,-5.001254,-7.208586,-8.89664,-10.78977,-12.43904,-14.70518,-16.38473,-17.57495,-19.01667,-20.70535,-22.15607,-23.05742,-25.16043,-25.56691,-25.98964,-27.29747,-28.63823,-29.54491,-31.48873,-33.39922,-35.74029,-37.95393,-39.10865,-40.57048,-43.4013,-44.61167,-47.41088,-49.20567,-50.672,-52.22865,-52.78861,-54.44766,-55.63861,-55.65753,-57.69289,-58.04733,-58.94577,-59.23428,-59.67005,-59.5992,-59.51396,-59.30305,-58.87529,-58.21525,-58.03524,-57.32586,-56.91197,-56.9308,-56.41886,-56.62167,-55.7607,-54.82386,-53.88461,-52.35438,-50.4238,-47.69493,-46.88166,-43.75027,-40.64084,-38.28587,-35.29467,-32.59618,-29.30291,-26.40948,-22.74309,-19.75028,-16.80687,-13.15409,-9.196737,-5.750714,-2.23684,0.4618833,4.55953,7.442765,10.7485,14.25356,16.77824,20.67514,23.70743,27.32292,31.08303,33.99304,37.73432,41.67117,45.6494,49.78618,53.29436,55.81843,59.41704,62.78621,64.89879,65.58281,66.40249,66.90488,66.7865,65.70554,63.88914,62.84001,61.09486,60.54694,57.89711,54.91847,52.43028,49.50377,46.18585,42.77869,38.79357,35.88621,32.95335,30.21119,29.80274,27.56059,26.12461,25.23679,23.92646,22.26377,20.07477,18.12746,15.40891,14.1918,11.76754,9.243967,6.472959,5.892316,2.627446,0.4010999,-3.241188,-5.33506,-8.03954,-9.753258,-11.78216,-14.05674,-15.09307,-17.05817,-18.44386,-19.53959,-22.21187,-22.91695,-24.00187,-24.74288,-24.86755,-26.686,-27.28945,-26.5069,-26.57825,-25.51226,-24.46347,-22.90991,-20.61037,-17.56847,-15.92028,-12.79832,-10.29138,-7.342235,-3.972197,-0.984821,1.736706,4.268576,6.98812,11.04502,14.44245,16.5182,19.92808,24.12277,26.9413,29.13291,30.85901,33.14077,34.45443,36.20052,37.26725,38.08297,37.95377,38.10151,38.62067,37.191,35.79094,35.40706,35.31732,33.16114,30.17792,26.51513,25.25253,22.48329,19.88219,16.34645,11.73284,9.543581,7.561668,4.09667,0.2380363,-3.597319,-6.379964,-8.2381,-11.28489,-15.5972,-20.20321,-24.65992,-26.83731,-31.3784,-36.98883,-42.80063,-47.57938,-50.81042,-55.56488,-61.64967,-67.26836,-71.19564,-74.93862,-78.62678,-83.8929,-88.21687,-90.95781,-92.47909,-93.6125,-94.84451,-95.75166,-94.4586,-91.14613,-88.14046,-85.07417,-83.72858,-81.00724,-76.74927,-72.63828,-70.53156,-68.46066,-64.3544,-59.36974,-54.23165,-50.876,-47.51349,-42.30814,-35.75098,-31.05007,-26.45217,-23.12306,-17.33248,-11.5602,-6.635244,-3.785407,-0.630139,3.855098,6.811081,10.28793,11.26708,12.48347,13.52186,15.78549,17.3953,19.05225,18.92711,20.44177,22.91443,25.03787,26.04718,27.13487,28.05104,30.36319,32.83984,33.55877,33.91921,34.61089,37.41367,39.07962,40.22836,40.40992,41.22133,43.42573,45.40838,46.37716,46.54415,47.92653,49.26024,50.00877,50.78583,49.91119,50.70648,51.67593,54.24403,54.18638,53.16299,52.61388,53.92572,54.21512,53.21477,52.54093,52.74408,52.94583,51.81982,51.81616,52.58962,53.86093,54.30869,55.845,58.00729,60.03489,62.53645,66.0737,68.69765,71.36154,75.48032,77.75973,81.29455,84.58121,86.34325,88.55453,90.44534,93.06865,93.66008,94.87067,95.1853,95.97777,97.2567,96.40937,96.45814,95.65914,95.18214,94.52479,92.81915,91.00873,88.86899,87.02203,84.5173,82.17088,78.72189,75.02821,71.51503,67.94209,63.53436,59.24295,53.83665,48.74504,44.63577,40.15068,34.13206,28.50016,23.83314,18.71536,12.81529,7.047777,1.186238,-3.780845,-9.259602,-15.53628,-20.63951,-26.27492,-30.85104,-37.04334,-42.39841,-48.03803,-52.73798,-57.38067,-63.58377,-67.98634,-73.34212,-77.77886,-82.68299,-86.36694,-90.82372,-93.11838,-97.32625,-99.09483,-101.1858,-102.518,-104.4401,-104.8656,-106.9395,-107.3503,-108.839,-110.6796,-113.7711,-115.3213,-117.8891,-121.3838,-124.181,-128.3552,-131.4305,-134.1539,-136.1136,-138.0492,-139.8373,-140.6795,-140.9348,-141.1568,-140.6038,-140.1551,-140.677,-138.4639,-137.13,-136.6221,-134.9435,-133.6468,-131.9059,-130.7519,-128.3528,-125.1656,-123.0257,-119.6194,-115.9459,-111.9153,-108.122,-104.3374,-99.60432,-94.29635,-89.06417,-84.36649,-79.78107,-72.77689,-68.01652,-62.39951,-55.85102,-50.95864,-43.93445,-37.97926,-31.95118,-27.06938,-21.48696,-15.35661,-11.51326,-6.450353,-2.199315,1.135496,5.420076,8.432007,12.06736,14.04799,17.23329,19.39849,21.41063,23.50053,25.06244,26.35345,27.57868,29.25098,29.10626,29.20142,28.51022,29.2794,27.50737,27.95599,25.86361,25.18048,23.71553,23.22027,21.03858,19.44671,17.5738,16.94154,14.71977,13.23557,11.30854,9.87193,8.811979,8.073608,6.763506,5.868518,5.106951,4.754424,6.11307,5.987088,6.125493,7.602136,8.898876,11.76555,13.95041,17.97357,20.72605,24.83208,30.03539,35.43329,40.02774,45.91534,51.761,56.57667,62.18494,66.36084,69.58008,73.33167,76.24107,78.02464,79.12338,80.56986,79.85525,80.78349,80.70942,80.60928,80.28001,80.38685,80.91251,80.61792,79.6117,78.08934,76.31745,75.10607,73.5154,70.61978,67.14687,67.36754,63.55698,61.13292,58.72382,54.62915,51.63418,48.93092,46.3043,42.77883,38.53926,35.93147,33.35709,29.51977,26.51227,23.05329,20.18673,18.20326,15.49977,13.34272,11.02423,9.614261,7.793195,7.120507,6.11304,4.824541,3.839274,3.983777,3.94072,2.795682,2.658226,2.501262,1.517511,2.300529,1.944917,1.897998,1.999524,3.044082,3.794647,4.431174,5.313076,5.845049,7.265456,7.823989,10.06803,9.705455,10.53437,12.45057,11.40343,12.92456,12.99159,13.41949,12.5737,14.32146,13.94502,13.53162,13.51162,13.92186,13.72758,14.49789,12.59415,14.12566,12.33425,13.43215,12.54555,12.85659,12.44258,12.71169,12.66843,13.72885,13.2344,14.13851,14.71439,14.70587,15.36849,16.72361,16.92927,17.82788,18.42368,19.83114,19.50099,20.26247,20.96781,22.10905,22.71528,22.63341,22.21404,21.75734,23.22362,22.83721,23.28448,23.62887,25.16325,26.18529,27.90452,28.80407,29.7799,33.05208,33.96282,36.85164,37.87858,39.57596,41.64164,43.29441,44.384,45.51822,46.5181,48.04676,48.65432,49.59507,49.92192,50.49548,49.88213,50.67816,50.31916,49.88052,48.68339,48.58641,48.01818,46.79708,45.45996,43.82603,42.44647,40.71639,39.37685,36.85316,34.5271,32.39703,29.99593,27.35092,25.11046,21.20295,18.36098,15.80704,12.43647,9.339341,5.358318,3.18857,-0.8561281,-3.415635,-6.950356,-10.32091,-13.355,-16.56405,-19.48114,-21.80807,-26.61261,-28.71911,-32.37151,-34.87379,-38.07434,-41.6397,-45.07221,-47.39158,-48.69018,-52.31047,-54.19797,-56.95257,-60.03907,-60.95354,-64.30061,-67.09493,-69.4155,-71.0774,-72.84107,-76.42987,-77.70934,-79.2605,-81.08944,-82.32069,-84.73202,-85.18751,-87.34911,-87.25616,-89.01174,-88.20488,-89.02241,-87.9745,-86.63241,-84.66142,-83.46963,-82.17486,-82.3257,-81.22066,-81.78146,-81.52529,-83.26989,-84.40211,-85.99091,-87.04443,-88.55834,-91.58516,-93.68519,-95.98987,-99.13781,-100.9005,-103.7886,-104.7655,-104.9415,-105.7522,-104.8727,-105.1916,-103.9406,-102.2514,-99.93953,-97.79877,-94.65281,-91.31466,-87.89183,-82.48664,-78.90572,-74.10944,-69.15594,-64.24051,-59.34169,-53.50123,-48.13244,-42.5071,-36.8839,-29.2354,-23.36358,-17.11952,-10.75256,-3.899393,3.063679,10.42652,15.63758,22.86854,29.16427,35.56231,41.85597,47.41782,53.20815,58.19954,63.61258,68.38506,72.19794,76.69344,79.8254,83.56938,86.5252,88.25434,90.83557,92.42566,94.01575,95.26586,95.44891,96.55152,95.49618,96.57201,95.71201,95.44917,94.76569,93.24931,92.50297,91.15872,86.94642,84.06512,80.15618,75.87916,70.23504,65.36414,59.58397,54.72269,49.28408,44.04976,36.94689,32.20381,25.08847,20.17483,13.90697,9.025395,3.280779,-1.625655,-5.416429,-9.62018,-12.00037,-16.57207,-19.47358,-21.60488,-24.30796,-25.28509,-27.1939,-27.46246,-27.60756,-25.48803,-24.81111,-22.45128,-21.28573,-18.78271,-16.60759,-15.60479,-14.41272,-12.26314,-11.76264,-8.876136,-7.460805,-6.118576,-4.049127,-1.585624,0.2430181,0.8268676,2.530758,4.675814,6.822893,8.686683,10.72126,12.76032,14.09734,15.58401,17.49718,18.63847,20.30122,21.98113,23.21969,24.97378,26.33722,27.81166,28.02591,29.35475,29.87722,30.37022,30.39284,30.15415,30.61406,31.71202,31.55881,31.46027,31.9162,32.83829,32.8097,33.53808,33.30874,32.36887,32.29912,30.73883,29.79261,27.9439,25.51283,24.61922,21.90372,20.64771,17.96034,15.47725,14.28555,12.11574,10.13452,8.304493,5.969605,4.707008,3.381569,2.12757,0.5908201,-0.6363787,-1.117118,-1.812719,-1.851546,-3.014533,-2.814169,-2.260416,-1.579941,-0.8858611,-0.6651354,-1.215692,-1.486305,-1.657743,-3.08474,-4.014596,-4.711945,-6.663262,-6.977516,-6.894299,-7.839948,-8.786773,-9.349234,-8.860167,-10.23172,-9.768933,-11.68765,-10.16223,-10.09396,-8.719793,-10.45213,-9.466251,-10.59182,-10.2221,-10.22379,-12.78304,-12.60138,-14.97817,-15.73227,-16.25031,-18.94307,-19.7535,-21.05325,-21.64871,-23.61234,-24.16188,-25.90395,-26.36002,-27.43007,-28.44113,-28.30793,-29.36252,-30.27845,-30.12751,-31.14038,-33.59483,-34.26029,-36.92096,-38.40188,-39.59468,-41.84961,-43.45563,-45.22473,-47.40729,-47.89745,-51.24994,-53.11803,-55.23801,-55.91163,-57.68826,-58.01527,-57.41412,-57.43153,-57.59656,-57.41278,-57.76483,-59.02525,-58.07749,-59.60423,-59.01153,-59.81118,-60.27178,-60.22208,-59.85753,-59.07667,-58.43361,-58.25676,-57.25597,-56.54998,-55.69937,-56.09574,-55.20986,-54.996,-54.67466,-53.02818,-53.22318,-51.51185,-50.74961,-49.0531,-46.87863,-45.57071,-44.0369,-41.60351,-39.67528,-36.69089,-34.45555,-32.39438,-29.68414,-26.60789,-24.16495,-20.75411,-18.34161,-15.40043,-12.68102,-8.8427,-6.284545,-2.283535,0.3135252,4.212018,8.015051,11.21254,15.03744,17.77141,22.18537,25.82145,29.74176,32.71731,35.59466,39.93385,43.23504,46.95311,49.23223,52.73115,56.36278,58.81274,60.75989,63.76809,65.64599,68.08375,70.13279,70.91653,73.74027,74.06677,77.00256,78.08951,79.24675,81.06186,81.56841,82.65616,84.1981,85.1596,86.42327,87.01064,87.83232,87.89647,88.59055,87.35916,86.82433,86.3222,86.66655,85.91078,84.39886,83.34536,83.65087,82.82802,82.56829,82.89888,82.06486,82.52378,82.98053,83.00044,83.2776,83.40012,83.15077,84.08485,83.92366,84.94563,85.13522,86.2667,86.98244,88.5562,88.5905,87.51873,85.87724,85.18525,84.22032,81.83228,79.33593,75.95097,74.21891,70.87106,67.81208,63.69247,59.87654,56.29659,54.28712,50.03335,47.06104,42.74077,39.53087,35.51378,30.34339,23.97426,18.42367,12.23274,5.363001,-1.658207,-10.132,-17.58817,-26.04294,-33.36218,-42.42793,-50.70537,-59.10931,-67.23644,-74.94262,-83.01108,-90.32742,-98.50871,-104.3712,-110.4969,-116.5074,-122.4355,-128.0072,-131.1069,-135.4714,-138.2666,-141.2927,-143.3615,-144.0871,-144.278,-143.9751,-143.7736,-142.2149,-139.6207,-136.0982,-132.8803,-128.4502,-124.0276,-118.5442,-111.8565,-105.4094,-99.1155,-91.85031,-85.11992,-76.59617,-66.85529,-59.11389,-49.45358,-40.16251,-30.54678,-20.0116,-11.59705,-1.650665,7.709871,16.48226,25.58695,33.1409,40.73854,48.69014,55.12925,61.38702,66.53223,71.18363,74.22799,78.32665,81.88666,85.318,86.91621,90.16208,92.52635,95.27586,97.13332,98.51787,99.32427,100.3346,99.96496,99.33873,98.18472,96.78702,95.27828,92.44003,89.3122,85.69982,81.78502,77.54536,72.97096,67.04233,60.8519,54.73936,48.97458,42.91989,36.61043,29.50946,23.17344,18.25731,12.50566,6.580577,0.681138,-3.39146,-8.362112,-11.17785,-15.55525,-17.82768,-19.38756,-20.47239,-22.64222,-24.13219,-25.61948,-27.18127,-28.43398,-29.52244,-31.30627,-32.52588,-33.94499,-33.78147,-35.43167,-36.00161,-36.97497,-37.48808,-37.22442,-38.56579,-38.68151,-39.398,-39.86808,-39.56508,-40.20352,-40.5061,-41.66693,-41.3666,-41.99882,-41.7903,-43.57203,-44.34852,-44.09074,-45.07496,-45.35662,-45.64327,-46.74133,-46.96405,-47.77598,-48.03706,-48.43449,-49.50994,-48.68432,-49.587,-49.5829,-49.92671,-51.00872,-48.97666,-48.92381,-48.07728,-48.07245,-48.68577,-48.97551,-47.88603,-48.82034,-49.13102,-49.21763,-50.49904,-49.51027,-49.19603,-49.94322,-49.94741,-50.91729,-51.71355,-52.14726,-54.54265,-55.55793,-57.78008,-59.58619,-60.03872,-62.18605,-63.84102,-66.24818,-66.16402,-67.23765,-68.46125,-69.98908,-70.19811,-70.54438,-69.86721,-70.35693,-70.21759,-69.77299,-69.03255,-67.47843,-66.75677,-65.53515,-64.46939,-62.55603,-60.04698,-58.33395,-55.96568,-53.4544,-51.38204,-47.7045,-45.12594,-42.02905,-39.11591,-34.30348,-31.32512,-25.85525,-23.15231,-18.73331,-12.90064,-8.657454,-4.809432,-0.4944579,4.184146,8.664501,13.55868,17.84835,22.55639,25.92703,30.77378,35.75085,39.77965,44.00589,47.27583,52.04263,56.53894,59.08743,63.8292,66.40737,71.00868,73.44149,77.96298,79.83574,82.58652,85.51836,87.02684,90.75027,91.07129,93.35113,94.11708,95.76781,97.02416,97.11055,97.80068,97.42883,98.17239,96.70928,95.54168,94.49283,92.18531,90.79386,89.54455,87.14789,84.9143,83.73885,83.6273,82.46665,82.66956,82.37691,82.27907,83.83441,84.28368,85.93848,87.7952,87.74683,89.82228,90.67401,91.38187,92.4452,93.74139,94.63124,96.88782,98.00739,98.16497,101.1543,100.8661,102.61,101.5508,101.2604,100.0189,99.52828,97.97879,96.63624,93.92188,93.37148,91.63747,89.62391,87.04679,83.76391,80.94179,76.62535,73.6151,68.29144,62.84758,57.38782,51.98436,44.49992,39.37447,31.09519,23.98493,16.72407,8.749639,1.365257,-6.780668,-14.71191,-21.73148,-28.93982,-36.37714,-44.08841,-51.60251,-57.7561,-64.47128,-71.52849,-78.42719,-83.49462,-89.99961,-94.25836,-99.80739,-104.733,-107.6587,-111.9081,-114.2052,-116.7683,-118.164,-119.6035,-120.2446,-118.9083,-118.4901,-117.8328,-115.1828,-112.6272,-108.5901,-105.295,-102.4645,-98.78954,-93.19218,-87.58003,-81.23658,-75.29994,-67.48051,-60.4957,-52.45543,-44.50449,-36.62003,-28.76575,-20.89852,-11.72866,-5.042328,3.967561,9.964835,18.36504,24.89959,30.60151,36.27508,40.60401,45.41283,48.25899,51.62205,54.50237,56.33258,58.78646,60.99225,62.14787,63.03368,64.66189,65.35101,65.67968,66.62369,65.78057,65.12799,64.40378,62.96743,62.33649,59.03555,55.75456,53.09172,49.76744,45.74763,41.38639,36.33178,31.77868,27.30929,21.91106,15.99076,11.60199,5.135355,1.66557,-4.290805,-9.026185,-13.54647,-17.49993,-20.96378,-24.00121,-27.0777,-29.14354,-32.3365,-33.4261,-36.28614,-37.73727,-40.31142,-41.70962,-42.7783,-44.30182,-45.78118,-47.18719,-47.85395,-47.92545,-47.5074,-49.43947,-49.11229,-48.88054,-47.66912,-46.49304,-45.92246,-45.40431,-44.80648,-43.95851,-44.48818,-44.29786,-44.32978,-44.02902,-44.0449,-44.26314,-44.01933,-44.36707,-44.54023,-44.39366,-43.74265,-44.23504,-43.57911,-43.70322,-43.20882,-42.28163,-42.13715,-42.16788,-41.37607,-40.69043,-40.32364,-40.6293,-40.23688,-41.45376,-41.24176,-42.16814,-42.9415,-42.6572,-42.21782,-41.35191,-40.93673,-40.3102,-39.41363,-39.41936,-37.82629,-36.78027,-36.85841,-36.63209,-36.08635,-35.06622,-34.4187,-34.19084,-34.63544,-33.45954,-33.89422,-33.17283,-32.95098,-33.07742,-31.46513,-30.07248,-28.44202,-26.8952,-26.79683,-26.15278,-25.92731,-25.8782,-26.04772,-27.68688,-28.25669,-30.00045,-29.93847,-31.65542,-33.81842,-35.91621,-37.6603,-38.90442,-41.74428,-44.40485,-45.52621,-47.53519,-49.49537,-50.66649,-53.13279,-54.40755,-55.43999,-56.79492,-57.89634,-57.821,-59.15519,-58.56452,-58.58797,-58.31175,-58.01649,-56.79418,-55.80021,-53.98236,-52.33483,-50.1064,-48.17921,-45.2333,-42.0553,-37.90677,-35.62312,-31.63585,-27.37703,-22.30106,-18.25969,-13.04216,-8.004555,-2.495072,3.589388,8.534077,15.33175,20.79999,27.07105,32.61169,37.76157,42.73943,47.03602,52.51583,57.31908,62.66028,66.78589,71.3482,75.32235,79.94098,84.66777,87.82051,92.44383,94.83065,99.03186,102.241,104.6349,107.435,108.9368,111.6882,113.4828,114.8558,115.0383,116.0169,116.7886,117.1272,116.802,115.8943,116.3232,116.0651,115.3636,113.9507,112.258,110.821,108.9287,107.0356,105.112,102.418,101.0736,98.9969,97.2192,96.39818,95.14185,94.78109,94.89071,95.56219,96.26172,97.15211,98.32061,100.6893,103.4779,106.0275,108.939,110.6344,113.1757,114.6602,115.5476,116.0211,116.435,116.7301,116.7936,116.3815,114.9783,113.9522,113.2428,111.2106,109.2075,106.5157,104.1898,101.3775,98.34427,94.86655,91.02298,86.23176,82.16936,77.88927,72.50812,66.61857,61.38407,55.85252,49.96262,45.18638,36.85613,33.40212,26.65497,22.29313,16.28552,10.1676,3.455983,-3.705741,-10.73265,-17.65864,-26.10517,-32.83752,-39.97053,-47.10784,-54.69424,-61.99819,-68.25076,-75.69148,-81.31436,-87.50787,-94.07562,-99.37904,-104.2489,-108.1349,-112.4852,-116.9215,-120.1625,-123.9185,-125.4832,-127.8857,-129.7924,-130.3097,-131.5025,-130.4106,-130.1166,-128.8295,-127.54,-124.997,-121.9881,-119.8092,-116.0091,-113.7734,-108.3886,-104.4958,-100.385,-95.73722,-91.18632,-86.36411,-80.34474,-75.85945,-70.99559,-65.51898,-60.75403,-55.81613,-50.9727,-47.14211,-43.61187,-40.05851,-37.02668,-34.68587,-32.72485,-31.48784,-29.30456,-27.32624,-26.0441,-24.03431,-23.78168,-21.71866,-20.43809,-17.95973,-17.80133,-17.03402,-16.1042,-14.63357,-14.88705,-14.6758,-14.88007,-14.64297,-14.24827,-14.98269,-15.44735,-16.44763,-16.78732,-17.78477,-17.44256,-19.41344,-20.4057,-21.4747,-22.20742,-23.30824,-24.67446,-25.24724,-26.47592,-27.54719,-28.70719,-31.56748,-34.51566,-37.09801,-39.98679,-43.08395,-46.30113,-49.9314,-52.41275,-55.34276,-57.25905,-59.33573,-61.29164,-62.45603,-62.79205,-61.99607,-62.63793,-60.10183,-61.30148,-58.48892,-60.57137,-60.9731,-61.58779,-63.01722,-61.42786,-61.11972,-58.66771,-57.02027,-54.64059,-51.56003,-47.39008,-44.45326,-39.8015,-36.83696,-31.02094,-26.80482,-22.11904,-17.69675,-12.57448,-8.71647,-2.124154,3.282811,8.276186,13.58471,19.51784,22.69104,26.96396,29.83461,32.02077,35.48059,37.45769,39.10444,39.68072,40.80243,41.28934,42.39818,42.17866,41.51559,41.74368,40.38008,40.05892,39.03903,37.32526,35.57386,34.27984,32.91196,31.1344,28.51281,26.55243,24.38076,22.37236,19.80399,16.81173,13.88563,11.71203,9.026389,6.921906,3.559861,1.498497,-0.3925985,-3.244171,-4.810465,-8.151674,-9.80879,-12.52247,-13.64258,-16.52138,-18.12615,-19.81997,-20.54339,-21.7368,-22.1834,-22.23576,-22.94508,-21.86243,-21.134,-19.62314,-18.1748,-16.17555,-13.38315,-9.580618,-6.448878,-2.834597,1.200922,5.643854,10.8166,16.07117,19.28835,24.35877,26.96249,32.04392,34.49774,38.04722,41.38786,44.60625,47.94242,51.37657,53.6567,56.18395,58.6471,61.55754,63.72623,64.33775,65.57268,67.27941,67.24823,67.36407,66.87905,64.54464,63.29543,60.14449,58.98285,56.75015,54.94861,52.87085,50.74022,49.56481,45.43307,43.18265,40.66508,39.71141,37.39835,37.3626,35.92654,36.73107,38.18092,38.90954,40.66541,42.83697,45.39962,50.48514,51.58879,54.17226,55.44593,56.98015,58.06532,60.0258,60.55931,61.17058,61.67244,62.68001,62.60739,62.80948,62.40735,61.8482,61.41937,59.61064,59.19914,56.42004,54.55729,52.73985,50.04502,48.16954,45.55373,42.80748,40.72964,38.11084,34.3134,31.07279,26.13478,22.46249,16.99906,11.2259,4.405458,-1.773032,-8.80395,-15.83794,-23.20471,-31.39069,-39.03415,-46.99238,-54.08539,-61.74908,-69.50142,-76.32558,-83.43733,-89.60664,-95.13876,-101.6903,-106.1632,-111.2195,-114.5691,-117.9693,-122.2142,-123.9925,-126.3228,-126.923,-128.658,-128.7283,-129.0793,-127.7717,-128.1348,-127.0826,-126.2702,-123.5193,-121.1101,-117.5032,-114.2856,-108.6568,-105.2251,-97.49378,-90.87836,-83.36956,-76.11054,-67.84934,-60.02265,-49.42292,-41.26163,-31.4377,-22.05522,-12.99204,-3.347915,5.065399,15.37194,24.43943,32.03082,41.10071,48.19965,54.75595,61.51443,66.6523,71.85426,76.49079,78.5672,80.65151,82.62312,84.40055,84.89932,86.0322,85.3855,86.68937,85.54167,85.93782,84.26178,83.29847,81.58299,80.03868,77.36218,74.75577,71.6181,68.5866,65.47427,61.50209,57.74092,54.19752,48.8431,45.53499,40.97778,35.67977,31.52854,27.10483,22.36969,18.80201,13.67164,9.756462,5.949444,2.852367,0.6508759,-3.046497,-4.733092,-6.494993,-7.196288,-6.514227,-8.074386,-7.85075,-7.961249,-6.806481,-7.41525,-6.822916,-7.798839,-7.288959,-7.818965,-7.777406,-7.930932,-8.409877,-8.258739,-7.562087,-7.365484,-6.921168,-6.428864,-5.859897,-3.942711,-3.315723,-1.067769,-0.6278713,1.529793,3.183045,5.013027,4.963319,6.382828,6.326054,7.758636,8.072212,7.983543,8.613372,8.381896,8.687928,8.151719,7.828238,5.697579,5.783742,2.719027,4.144476,1.899467,1.620232,0.874824,0.4796144,0.6780664,0.6037217,1.671724,2.880596,3.445144,4.13613,5.229197,5.641419,6.187397,7.816612,6.761469,7.679046,6.223889,6.573082,7.025706,7.973,9.522721,9.857773,10.64573,13.36913,15.35146,18.01673,19.86672,23.44172,26.81051,29.56785,31.86331,34.86029,36.73957,40.30138,41.88414,44.67276,44.54465,47.63891,47.8001,50.25021,50.95932,51.20562,51.62003,52.01723,51.67685,52.26317,50.93656,50.77193,49.07054,48.77378,46.877,44.65913,41.9324,40.40706,37.60901,34.74749,31.98389,27.89344,25.16851,22.4062,17.76502,15.18345,10.08746,7.258617,2.568772,-1.402087,-5.888896,-9.955037,-14.38071,-18.43874,-23.24819,-27.10951,-32.16101,-35.63314,-40.42346,-43.60437,-48.47303,-52.09692,-56.15185,-59.10809,-62.64137,-65.83323,-69.36007,-71.41959,-74.41816,-75.70482,-78.76446,-78.1336,-79.0587,-78.65661,-77.8046,-79.41709,-78.95518,-81.17094,-81.17043,-83.03836,-84.74277,-86.92658,-89.87381,-91.70503,-94.82436,-97.83196,-100.5331,-102.093,-104.5533,-104.7904,-106.6243,-106.6545,-107.8603,-106.4745,-106.3787,-105.4053,-103.7077,-102.9975,-99.37652,-97.14738,-94.17554,-92.96871,-90.25467,-87.1881,-84.34887,-83.19889,-81.08092,-78.52583,-77.07194,-73.09156,-70.78144,-67.29864,-63.03168,-58.93125,-53.79659,-50.0965,-45.27731,-40.19908,-35.21505,-29.6768,-24.93221,-18.50079,-14.22976,-8.332647,-1.976768,3.622304,9.402139,14.89409,20.66603,26.32156,31.37649,36.60384,41.16325,46.49405,51.8218,55.39353,60.03377,64.06413,68.20348,71.79296,74.66879,77.91939,79.26658,82.62727,83.74636,85.55049,87.20335,86.48858,88.02059,88.02081,89.31954,89.80681,88.72214,88.29697,86.65947,85.37528,80.53641,77.97939,72.85811,70.24696,66.00727,61.15702,56.33769,52.53913,48.07653,44.08102,39.191,35.55595,30.71717,28.4746,23.63849,21.69525,17.76533,15.94016,13.83843,13.55598,11.32914,11.93605,11.18994,12.62692,13.97486,15.69312,16.2579,17.71349,18.80622,19.85249,19.87901,19.48295,20.20701,19.10333,19.27394,17.5162,15.70646,16.30827,14.34093,14.73703,13.84162,13.79916,13.03118,14.05037,13.61817,13.71399,13.18843,13.37766,14.13814,13.74639,14.87533,14.32759,15.61467,14.93066,15.94496,16.0581,16.51437,16.92139,17.34933,17.51238,17.83379,18.00059,17.41522,19.11374,18.28314,17.73817,17.17529,13.96771,14.16407,12.4875,11.79055,10.17837,7.984887,8.015439,6.786054,7.008456,4.223878,5.01711,2.749211,2.972489,0.9249973,0.0671896,-0.8595131,-1.934004,-2.565413,-3.591988,-4.2668,-5.782543,-5.83805,-7.04263,-6.681916,-8.167555,-8.948143,-8.970939,-9.460494,-9.316504,-10.96536,-10.78127,-10.94359,-10.16838,-10.55769,-10.79879,-9.652225,-8.672634,-7.683311,-8.70144,-10.45493,-10.29624,-11.75981,-13.18461,-14.72578,-16.28058,-17.09374,-16.54837,-16.61107,-16.35902,-16.22579,-16.10166,-17.96277,-18.1317,-20.25267,-21.54537,-24.3265,-25.0227,-27.25852,-28.83004,-31.53224,-33.60497,-35.45397,-37.60042,-40.50431,-42.56707,-46.16079,-47.71681,-49.91278,-52.30795,-54.15599,-56.52658,-57.46261,-58.74165,-60.17688,-61.91333,-61.95972,-63.26977,-62.47825,-63.4095,-63.21375,-62.23473,-62.26172,-60.47248,-59.17556,-57.61935,-55.94934,-53.70496,-50.91732,-48.99615,-46.19467,-43.43713,-39.84831,-36.32575,-32.04254,-29.41826,-25.39391,-21.97368,-16.7074,-13.07253,-8.691384,-5.315194,-0.5375194,3.787288,7.41934,12.32361,15.25409,19.51895,23.06061,25.92682,29.77857,32.59118,36.92861,40.31226,43.37269,46.68183,49.20567,52.9829,55.49073,58.72485,59.39581,63.13193,63.14281,67.19244,67.02667,69.60413,68.27783,70.20914,70.15273,71.28554,70.40076,70.10394,69.83207,69.53929,68.71755,67.23982,66.6817,65.13729,63.88178,63.1961,60.58981,59.45429,57.41663,55.68653,52.8637,50.75276,48.7563,46.8308,44.46914,43.48365,42.00384,41.16738,39.57283,39.78595,39.56966,39.78798,40.38867,41.4936,42.77493,42.72313,43.1518,41.61216,41.52432,41.108,41.20615,40.19194,39.0223,38.84377,37.44767,37.58912,35.83547,34.59739,33.92524,33.39697,33.26311,31.89321,30.79177,29.28918,27.80247,25.49879,22.77117,19.24934,15.26931,12.13184,7.70312,4.083314,0.7161889,-4.040241,-7.078055,-10.31554,-13.7027,-17.00005,-20.97991,-23.5591,-25.76728,-29.57454,-31.34751,-34.5236,-35.93124,-38.4888,-39.58928,-42.08356,-42.82304,-44.07106,-44.98276,-45.48767,-46.473,-46.38415,-46.43943,-46.30788,-45.65226,-46.31899,-44.60967,-45.23126,-43.89418,-42.30606,-42.25362,-40.0771,-38.40763,-36.93057,-33.9788,-32.18171,-30.5497,-27.40609,-25.20347,-22.41016,-19.76869,-17.90622,-14.99921,-12.54639,-9.936464,-7.111082,-5.501653,-2.649972,-1.043637,1.619992,0.9189862,4.395056,4.695368,7.318966,8.314431,10.08763,11.47447,12.25449,14.3329,15.70138,17.19525,16.57447,18.57539,17.85368,18.50611,16.93991,17.05136,14.99656,15.06808,13.30661,13.4073,10.95902,9.829667,8.533246,6.978863,4.240479,1.720351,-0.3863686,-2.505475,-5.2877,-6.954324,-10.49078,-12.6813,-15.49776,-17.36226,-20.04305,-22.18356,-24.76294,-26.10093,-28.19654,-30.43509,-31.51189,-34.26162,-33.14803,-35.32916,-35.33302,-36.04629,-37.29765,-37.30165,-38.35951,-39.87074,-40.95399,-43.01357,-43.67165,-46.81824,-47.43428,-49.01201,-50.19288,-50.48876,-51.27866,-51.78494,-52.73561,-52.81077,-52.8665,-51.65397,-52.73074,-52.98927,-52.15277,-52.78681,-52.10748,-51.70678,-52.12628,-51.8298,-51.49606,-50.42853,-50.52169,-49.01939,-50.01065,-47.78724,-47.46585,-46.65222,-45.2857,-45.35092,-43.10459,-41.96818,-40.37623,-38.48863,-38.46387,-35.92036,-36.00419,-35.3125,-35.56486,-35.97118,-36.50342,-36.09993,-36.73957,-38.29075,-38.93501,-39.49307,-39.30805,-40.83419,-41.90782,-43.67151,-44.4976,-45.18942,-47.0251,-48.28483,-49.87219,-50.83523,-52.3903,-53.61836,-53.26469,-54.42787,-54.01992,-53.76725,-53.64307,-53.31123,-53.34311,-51.36799,-50.49394,-48.95144,-48.35288,-45.23159,-44.43574,-40.04616,-38.11249,-34.79374,-32.07643,-27.42564,-24.71931,-19.00517,-16.19385,-11.96732,-7.515792,-2.918878,1.168741,6.337423,10.34839,15.75862,20.44151,25.80095,30.0662,35.28913,40.28291,45.51736,50.86173,54.65944,60.26332,63.4848,68.62842,72.15487,77.13862,79.12579,84.82958,86.50142,90.36061,92.95557,95.08889,98.9184,100.4787,102.5746,105.0904,105.3495,107.4835,107.7611,110.5784,110.1771,110.4984,111.0274,110.4511,110.8441,110.0116,108.8358,108.3984,106.7452,103.4756,102.427,98.57172,95.86772,93.53459,90.33379,87.36931,85.33035,82.56555,81.37047,80.66746,79.67868,79.58186,80.30692,80.57542,82.54579,84.56791,85.48082,88.38791,89.43705,92.42548,92.37033,93.81332,93.9649,93.73552,95.32401,94.04677,95.24494,93.58961,94.52316,93.12181,92.03085,91.07034,89.01126,87.37116,84.64827,83.32593,80.09466,78.10099,75.49831,72.59174,69.2247,64.82576,60.62363,55.95963,50.91518,45.4013,38.87013,32.42377,25.70883,17.51539,10.71278,1.998862,-6.215231,-13.42207,-22.09152,-29.79097,-37.5729,-45.96182,-52.72338,-60.67392,-67.52399,-73.45926,-80.93905,-86.88361,-92.41968,-97.73873,-103.182,-107.8668,-112.4015,-115.371,-118.2896,-121.3104,-122.7824,-124.8128,-124.5672,-124.6135,-125.1552,-123.7445,-122.3001,-119.9221,-117.4252,-115.1494,-113.4727,-109.2674,-106.0381,-101.2062,-96.40166,-90.33322,-84.53925,-77.46352,-70.30207,-63.02908,-55.09563,-48.03781,-39.12583,-31.3685,-22.51451,-15.47847,-7.07305,0.4403973,7.869955,15.10381,21.30544,27.0989,33.72179,38.79811,42.21957,46.40536,47.66852,49.90365,51.56041,51.13407,52.47811,51.08027,51.163,50.48767,49.68496,47.641,47.33832,44.83568,42.67373,41.18566,36.90035,34.67966,30.83026,27.57916,23.15551,19.16374,14.58064,10.78975,5.29881,1.460635,-4.092024,-8.78311,-13.36134,-18.92898,-22.18541,-28.707,-32.35408,-37.59039,-40.50754,-44.27336,-48.59953,-50.53528,-53.17382,-54.60767,-56.65833,-58.63228,-59.45933,-60.73645,-61.77458,-62.95289,-63.13991,-64.87421,-64.3515,-64.40733,-64.17833,-64.04733,-62.93645,-62.83989,-60.13699,-59.2313,-57.14752,-54.38566,-52.69381,-49.62631,-46.63783,-43.61328,-40.84962,-37.37301,-33.5836,-30.21314,-27.78952,-23.96211,-20.69538,-16.42701,-13.47,-10.11727,-6.146236,-3.291936,0.2785806,3.282552,5.561669,8.424318,10.54613,12.24495,14.00047,15.07973,15.99184,16.27666,16.2388,15.93264,16.22965,15.93784,16.08009,16.55862,16.66799,15.92648,15.92904,15.00332,15.08939,16.24716,16.20274,16.23673,16.05779,15.88886,14.64523,12.1184,11.12723,8.640795,6.479887,4.438748,0.9307085,-1.142979,-3.259816,-7.130506,-9.994501,-13.16181,-16.22878,-19.44492,-21.89615,-24.52866,-27.17229,-30.21043,-31.83825,-34.23003,-35.67533,-37.43737,-38.46733,-40.54447,-40.62665,-40.65301,-41.71962,-40.94393,-40.54332,-39.40068,-37.72086,-36.73184,-34.67147,-32.71956,-30.89887,-27.53626,-25.36128,-22.84937,-19.57805,-16.62879,-12.69435,-10.28025,-6.969789,-3.465972,0.5112,3.40209,6.256268,10.77302,12.94591,17.12847,19.76881,23.51594,26.39904,28.91016,32.25913,34.64054,38.23348,40.0003,44.19324,45.60357,49.4115,51.29873,54.77126,55.5577,58.91786,60.79935,62.98131,65.10433,66.14743,68.16488,69.71392,71.27195,71.93183,73.60046,74.1588,75.62419,75.77288,77.25865,77.33259,77.04344,76.39393,74.61328,73.16731,70.1583,68.88221,67.03529,63.54975,63.4417,59.76011,60.04125,57.85433,57.73961,56.79996,55.87934,55.73051,55.48892,55.72562,54.50248,55.56074,54.87153,56.00278,55.91955,57.06991,57.80928,59.01716,60.4524,59.34784,60.10974,57.29323,56.83218,54.51496,53.23776,51.37711,49.58556,47.38542,44.39606,41.87119,38.869,34.5212,29.85336,26.68114,20.80972,17.37211,11.62485,6.908124,2.544615,-3.540239,-8.63792,-13.93478,-20.99148,-26.09306,-33.42834,-39.74877,-48.49793,-54.98933,-63.20333,-69.80579,-77.4347,-84.86181,-92.17492,-98.75103,-104.7543,-111.1403,-116.6841,-121.9684,-126.1242,-129.7527,-133.8309,-136.2279,-139.147,-140.3695,-141.4809,-142.2494,-142.2157,-141.4678,-140.4455,-138.5105,-135.9848,-133.7261,-130.0884,-126.4837,-122.041,-117.1845,-112.4458,-106.0006,-100.6813,-93.88544,-87.86158,-81.05335,-73.85918,-66.27065,-58.90857,-50.49401,-43.96467,-35.46325,-28.57077,-21.62414,-13.9073,-6.77432,0.102822,7.868808,14.65791,22.64124,29.71991,36.84109,43.32889,49.15938,55.72676,59.26768,63.85305,67.04361,71.4239,73.82592,77.39212,79.39603,82.0495,83.74321,86.53049,86.67459,88.20336,88.948,88.87013,90.2598,88.30905,88.47867,86.45744,84.96001,82.63856,80.52984,76.98547,74.60749,70.61829,67.5495,63.54942,59.33079,54.47102,50.93528,46.25557,41.41318,37.96364,33.36475,29.8376,26.78766,22.8211,18.42737,15.33124,12.64216,8.747551,6.398464,3.403979,1.485756,-1.516066,-2.070716,-5.409658,-7.16374,-9.339141,-11.86737,-13.21088,-16.58766,-19.1129,-22.31094,-24.97332,-27.95494,-30.79239,-33.18626,-36.29488,-38.03214,-40.40457,-42.15749,-43.77156,-45.11335,-46.383,-47.1047,-47.75771,-47.41931,-47.68268,-45.05159,-44.05145,-40.3233,-38.02543,-34.02249,-29.20648,-24.08288,-18.75872,-12.96951,-7.586917,-0.8123226,5.379252,12.46877,17.89593,25.61349,31.2334,39.20105,44.22984,51.34433,55.47877,61.65602,66.61247,71.61046,75.50248,78.76772,81.8947,84.51851,85.7659,86.62494,86.91939,87.26897,87.53447,87.23104,86.05687,85.34354,83.65455,83.5272,80.13602,78.49167,74.54822,71.98433,69.13622,64.23692,61.21673,55.43595,51.81435,45.27111,41.38634,34.69988,29.23313,23.39966,17.24795,11.33674,4.597017,-0.6306454,-8.249455,-12.51004,-20.5751,-25.80411,-33.41244,-38.95428,-45.46367,-51.07464,-57.33713,-62.7263,-68.89007,-73.18665,-78.65641,-83.28767,-88.39297,-91.0794,-95.91513,-98.55474,-101.1197,-103.9666,-105.2375,-106.6763,-107.7896,-107.8705,-107.9316,-108.2283,-107.3094,-106.485,-105.8389,-104.2641,-101.9272,-99.01783,-95.85845,-91.69066,-89.51514,-85.52864,-83.353,-80.44181,-79.19297,-78.74246,-77.79973,-78.24373,-78.79,-80.30095,-82.81682,-83.84699,-88.252,-89.79853,-93.42213,-96.46965,-99.05148,-101.5762,-102.4268,-104.0375,-105.1826,-104.6944,-104.6794,-103.5403,-102.3469,-100.7179,-98.4161,-96.45838,-93.89087,-90.77652,-87.98644,-83.21483,-79.01209,-74.44975,-69.61794,-64.17649,-59.53243,-52.36523,-47.2,-40.06312,-34.24804,-27.32662,-20.23378,-13.58702,-6.324106,0.5099595,7.533057,14.59944,21.54425,28.92915,35.2754,41.94577,48.08379,55.72326,60.9867,67.3348,72.98988,77.94485,84.29421,87.99485,92.55616,97.29625,100.8648,104.8951,107.8033,110.3304,112.9349,114.7931,117.2321,118.5501,118.9291,120.2289,119.0863,119.4107,118.9243,117.8718,116.1051,114.8392,112.8107,109.7071,106.8624,103.9315,100.0636,97.20028,92.78987,88.92639,83.61708,79.67488,74.59612,69.76017,64.94507,59.26126,54.09662,49.22742,44.64602,38.39208,33.40029,28.48184,23.98841,20.24262,16.99376,12.64833,12.09037,9.940257,10.29801,10.63747,11.79218,12.74427,14.73085,16.3702,16.85895,19.08531,18.76507,20.63859,21.28723,22.19687,22.37189,23.86658,23.54458,25.90816,25.05371,26.42758,25.58401,29.69347,29.28977,31.2678,31.97674,33.87179,35.30007,35.86832,37.26167,38.1098,39.81804,39.62687,41.09818,40.79012,41.28575,41.41744,41.6811,42.26641,42.16251,42.86527,41.66871,42.26527,41.60716,42.16107,41.26237,41.86401,40.18731,40.43899,39.32046,38.51311,37.28591,36.29911,35.88022,33.9177,33.03479,30.74135,29.83454,28.79277,26.42565,25.59861,23.31161,23.077,21.36651,20.63663,17.99263,15.93426,14.9223,11.95207,11.96903,10.34375,9.691162,9.671524,8.747041,9.856068,9.66623,10.08378,11.30064,11.84225,12.9038,14.38893,14.51246,17.06798,18.19375,19.61362,21.38548,21.76221,23.85254,24.67571,26.3862,27.31677,27.76877,28.94037,29.84952,30.30821,30.85578,30.91192,31.16075,30.5345,31.29818,29.14316,28.15452,26.35631,24.29985,22.35862,18.66705,16.91914,13.38166,10.9568,8.037366,3.44443,1.867601,-3.703913,-5.896254,-10.48127,-14.32683,-18.30384,-23.06189,-26.64251,-31.16768,-35.17758,-40.44734,-43.79299,-48.6497,-52.2375,-57.01615,-60.7812,-65.98489,-68.69487,-73.49339,-76.54279,-80.59666,-83.44201,-87.31986,-89.1446,-93.53452,-94.5178,-99.46788,-99.80368,-102.8812,-104.4328,-105.7935,-108.3052,-107.1984,-107.8306,-108.039,-107.2542,-107.801,-106.3789,-105.6245,-105.2776,-105.6019,-105.0264,-105.8934,-105.0776,-106.7203,-106.1421,-109.051,-108.3618,-110.2635,-111.2771,-112.5459,-113.7378,-114.0275,-114.4906,-114.6459,-115.2635,-114.7582,-113.7311,-113.5117,-111.5422,-111.6316,-109.5103,-108.5341,-106.7872,-105.6595,-102.9077,-100.4652,-97.25849,-93.65895,-89.2349,-84.89047,-80.1405,-75.77691,-69.89632,-64.86085,-59.36282,-53.42685,-48.65824,-41.27696,-36.12943,-29.44253,-24.1506,-17.36389,-10.9704,-4.68377,0.3374642,7.057342,12.946,19.02889,25.29225,30.22518,36.19824,41.81425,47.46311,52.60686,57.70016,61.6548,66.483,71.19186,73.91682,78.55352,81.40303,84.42261,87.38868,89.25217,92.48232,92.46818,94.57739,95.90611,97.44882,98.02701,97.34469,98.12544,96.59465,96.78404,95.14876,93.00675,92.03766,89.68573,87.76173,84.51421,81.99902,78.4694,76.31789,71.88799,68.96885,64.90158,61.84944,58.87763,55.15789,52.191,49.09966,45.62127,43.91381,39.92302,38.89983,34.45709,33.20026,31.03719,29.54031,28.17069,26.67853,26.76552,26.46561,25.7547,27.05953,24.34833,26.53621,24.61798,24.73675,23.6869,23.03107,21.77207,21.55458,21.3158,20.26403,18.65971,18.78225,17.83482,18.84371,17.80148,17.33563,18.2159,17.68558,18.33356,17.86821,17.90899,17.61062,18.24473,18.43901,18.47799,18.99916,17.63516,19.53732,18.69289,19.82936,18.54347,19.34146,19.33599,20.18267,19.85329,19.91678,19.06638,19.26944,19.7389,18.52221,18.65403,16.6106,17.46229,16.3933,15.89862,14.43828,13.93349,12.41927,12.36872,10.54009,10.70804,8.46928,8.465243,6.619808,6.397215,4.410468,4.096608,2.454302,1.484083,-0.4540379,-3.252363,-4.30944,-8.381163,-9.366952,-12.50641,-14.70656,-18.5904,-21.11793,-23.67093,-26.87448,-29.87511,-32.75832,-35.49419,-38.0531,-41.31098,-44.08221,-46.94852,-49.47454,-51.06697,-52.9679,-54.71346,-56.58514,-56.59952,-57.78383,-57.34174,-58.80077,-58.52026,-57.60024,-55.81275,-54.02553,-51.55595,-50.23947,-45.95291,-43.11335,-38.51735,-35.87042,-31.41166,-29.62262,-26.33027,-23.62399,-21.34372,-18.54942,-15.4496,-12.25085,-7.196741,-3.446357,2.419602,6.966679,12.43721,18.89367,22.61892,29.44723,33.2055,40.11552,44.32576,50.46772,53.53771,59.59725,63.57285,68.36852,71.87264,75.16168,78.17016,81.24408,83.04139,84.68763,85.79125,86.39191,87.16672,86.87734,86.12036,85.1063,84.02587,81.80587,80.03748,77.05885,73.6679,70.43442,67.00259,62.93154,58.08307,53.95639,48.03475,43.11597,38.05508,32.15163,26.00144,19.45295,14.2506,7.529653,1.696366,-5.922139,-10.86609,-17.59877,-23.21342,-28.57655,-35.41585,-39.78019,-44.95658,-49.08984,-52.62033,-58.31014,-59.87742,-64.4641,-65.37209,-69.61819,-70.50135,-73.76261,-75.38439,-76.61409,-78.19469,-78.96728,-80.48051,-78.27719,-79.53861,-77.63759,-79.24259,-78.01232,-78.10955,-77.25408,-76.79398,-77.29235,-75.88923,-75.28773,-73.11949,-71.97968,-70.78086,-69.07497,-66.82442,-64.20143,-61.54924,-59.77203,-56.73567,-55.40307,-51.19841,-50.28297,-45.85206,-44.172,-40.15678,-38.17467,-34.11043,-33.40736,-29.78698,-28.20644,-25.67609,-24.25371,-24.13512,-23.89022,-22.32212,-21.32014,-19.74332,-18.93462,-17.17323,-15.50227,-12.86759,-11.30171,-8.718594,-7.888154,-5.185409,-3.675562,-2.398162,-0.6820388,0.02477884,2.181041,3.563405,6.201336,6.844082,10.27501,11.0534,14.52667,15.74699,17.90725,19.67942,22.439,24.58032,27.00717,29.23769,31.46275,33.56673,36.30562,38.14168,41.17312,41.83671,44.70629,46.80258,49.46614,50.03914,50.50943,51.98384,51.34034,51.45184,49.47539,48.41405,45.33113,45.02745,40.4466,39.56491,35.21988,32.86087,29.76372,28.05097,24.70871,23.66854,20.73799,20.81391,19.69077,18.24484,18.75019,17.40117,18.72533,18.64432,18.52573,19.25,18.12986,20.00875,20.62005,21.95412,22.30938,24.46632,26.47537,28.05076,30.13414,30.63413,35.73353,34.69529,37.83915,37.82236,39.00738,39.24522,39.92864,40.20228,41.04541,40.69454,40.32801,40.5557,41.27733,40.52373,40.24818,40.06092,40.19545,39.93867,39.74319,38.03474,37.05884,35.77434,33.97669,31.30923,28.01514,25.4792,20.97395,18.73078,12.61997,8.714016,3.300674,-1.851782,-7.964729,-13.87868,-20.30652,-26.15119,-31.67189,-36.56035,-43.23193,-47.67384,-53.87261,-57.2619,-62.07557,-66.44597,-70.91918,-75.4274,-79.12913,-82.15121,-84.98748,-87.94212,-89.40692,-90.69728,-90.45212,-91.01774,-91.09729,-90.66494,-88.74085,-86.85746,-84.4832,-81.29639,-77.89913,-73.02608,-68.00751,-62.72686,-57.44198,-51.47466,-44.31101,-37.44358,-30.37041,-24.28466,-16.76704,-10.48403,-4.341124,0.7620276,5.368613,10.26036,13.47542,17.93644,20.54247,23.55929,24.24752,27.0321,27.32764,30.01199,28.84768,29.65616,30.3162,31.14268,30.47715,30.73958,29.60434,29.66969,29.49418,29.31648,27.74667,26.05753,24.26816,22.76861,19.33841,15.67604,11.60518,8.543617,3.880628,-0.8072648,-5.863707,-10.19483,-16.80769,-19.67826,-26.21007,-29.43797,-33.90165,-40.97115,-42.44598,-46.75292,-51.14321,-54.12122,-57.21845,-58.66053,-60.28781,-62.01529,-62.4065,-62.50596,-60.25663,-60.06042,-57.92348,-55.41466,-52.68118,-49.01051,-44.63481,-42.48976,-38.02799,-34.7173,-30.16132,-26.36969,-22.41636,-18.51399,-14.45854,-9.939338,-6.608895,-2.485335,0.7484107,4.521324,9.157543,13.38283,17.59872,21.33378,24.6444,30.26591,33.56081,37.96295,41.24122,44.20139,48.5389,51.20673,55.47211,57.1466,61.01658,63.51825,67.46039,68.9979,71.09968,73.64863,75.7251,77.81343,79.59713,80.9512,82.48243,83.73784,86.33743,86.16905,87.44558,87.04628,88.19089,86.85244,86.9903,85.4615,84.6536,82.7988,81.599,79.00295,76.39558,73.36403,70.6145,68.25796,64.52792,61.38454,56.79,55.34574,49.59583,47.48041,42.08934,39.54733,35.92942,33.75977,30.20096,27.44526,25.41748,23.31119,22.63724,21.89273,20.99452,20.81872,21.93462,21.78626,21.30853,21.38508,21.115,21.87172,22.32165,21.97523,22.34279,23.74825,24.07454,25.95677,26.61907,27.50949,27.83479,30.81908,30.87639,33.79737,33.21116,35.44231,36.9589,38.04998,38.84471,39.67269,41.10759,42.32013,43.08384,43.01352,43.34729,42.64907,42.61817,41.89892,41.29905,40.20508,38.65695,37.1878,36.10787,33.54995,31.31715,28.09506,26.32237,23.68415,21.15496,17.42453,14.48799,10.17289,7.987955,2.524876,-1.349459,-7.343657,-10.46178,-16.22768,-19.51237,-26.40991,-29.05767,-33.64988,-37.62978,-42.07927,-44.32128,-50.17269,-50.42495,-55.54169,-55.76394,-61.3943,-62.7318,-65.96185,-66.69248,-69.61898,-70.77637,-73.02032,-73.96891,-74.53786,-74.50565,-75.94006,-75.08706,-76.55972,-74.23544,-75.91325,-74.19213,-75.17063,-73.44297,-73.79972,-71.28409,-72.38043,-70.61884,-70.44776,-68.28931,-67.92849,-66.69525,-66.75421,-65.00535,-64.49265,-63.26773,-61.62604,-61.86575,-60.63,-59.91219,-58.05867,-59.41924,-56.97716,-58.40366,-57.5116,-58.39075,-59.19141,-60.6018,-62.62641,-64.01219,-65.79979,-68.97662,-71.2466,-73.6845,-75.76614,-77.84202,-79.33048,-81.87884,-82.80265,-84.57214,-85.0668,-85.30197,-86.47078,-87.43454,-87.0869,-87.1846,-87.42103,-86.81501,-86.80658,-85.81575,-84.62788,-83.93399,-82.28063,-80.22279,-77.53856,-73.93324,-72.09115,-67.95609,-66.32824,-62.58914,-59.22858,-54.67541,-51.93053,-47.6151,-43.25816,-39.22648,-34.54723,-31.4795,-26.7766,-22.65116,-18.5824,-12.777,-9.736554,-2.978952,0.4162102,6.129978,8.870521,13.04713,14.11535,17.47388,17.55186,19.51713,18.64451,20.04428,20.05358,20.28503,20.11294,19.384,18.43751,18.55912,18.17102,17.89477,15.29367,15.90363,12.63136,13.64636,9.848029,10.50999,7.577242,7.270602,6.012411,4.377201,3.716159,1.72492,2.434136,1.705291,1.368984,0.1176349,-0.2490468,0.185511,0.9346556,0.6419687,1.636216,1.71544,3.209144,5.679301,6.102665,9.025718,10.07473,14.25438,16.12219,20.46558,22.4813,27.24821,30.95076,36.47805,40.87901,44.94716,49.20779,55.5131,59.17301,65.52625,68.98047,73.78582,77.01959,83.27254,85.24876,89.6329,91.33547,96.21514,99.2693,102.4884,104.6641,108.0409,109.669,113.2916,114.3697,115.8655,116.9654,118.0258,120.283,119.9178,119.4751,119.5695,118.7557,118.4224,116.8926,115.3062,112.2333,111.42,109.0817,107.4256,104.3382,101.5867,98.70679,96.47185,92.40143,87.96975,83.60035,79.27178,75.20616,71.53058,66.68773,63.3106,59.78058,57.97858,57.13827,54.85967,55.44279,54.38959,57.10483,58.86997,59.22597,61.48273,61.78631,64.69643,65.24386,65.4477,65.36096,66.06672,65.75299,65.67225,65.00152,63.747,63.46255,61.53227,61.58555,57.66824,57.00884,54.07023,52.03265,49.35334,46.02231,42.62098,38.23262,35.61375,31.485,27.48913,22.14943,19.78613,14.61957,11.12326,6.228602,0.1900943,-3.46638,-8.996743,-13.34833,-19.92384,-24.48385,-31.61615,-34.78524,-42.03799,-46.37043,-53.35821,-57.95861,-63.09566,-69.47887,-73.4955,-79.74185,-84.03132,-88.83596,-92.01205,-97.94224,-101.0384,-105.29,-108.7401,-111.3059,-114.5066,-118.26,-119.3474,-122.9188,-121.3981,-125.2124,-123.9517,-127.1108,-124.8364,-126.4656,-124.3008,-125.2269,-123.2439,-122.8628,-120.451,-119.4557,-117.8214,-117.218,-114.1737,-112.5268,-109.9425,-108.4116,-105.479,-102.0942,-98.81384,-95.23721,-91.71812,-88.72521,-82.68946,-79.42373,-74.86649,-71.30926,-66.45828,-63.06464,-58.47179,-55.83274,-53.39132,-50.02635,-47.78547,-46.00234,-44.99778,-43.02514,-41.75693,-39.27154,-37.09333,-34.15314,-32.25234,-29.74939,-26.88283,-22.99005,-21.44528,-18.24746,-16.51462,-12.42433,-9.722947,-7.224694,-4.710124,-2.368097,1.254954,3.543457,5.332708,7.94335,9.438356,11.89664,14.34074,15.96863,17.28657,18.91065,20.54435,22.55477,23.05041,24.51247,24.68174,26.43915,27.84422,28.68301,29.35913,29.24074,30.90706,31.96104,32.24135,33.49899,34.15671,34.48557,36.55513,36.64692,37.23304,38.17733,37.84631,39.43677,38.81717,38.91838,37.61438,38.88284,37.34726,36.86124,35.46743,33.54568,32.51243,31.88216,31.03031,30.03727,29.119,30.34385,31.10836,31.90473,32.92642,34.63172,36.1241,39.15132,41.37604,43.62765,47.13551,49.7941,54.69596,56.19815,59.78481,61.69998,65.89997,67.65361,70.96068,71.00649,72.96322,73.63699,75.36964,75.16864,75.28588,74.62766,74.25253,74.60456,73.30494,72.38478,70.73809,70.01389,68.32497,67.4646,64.13817,62.49837,60.55347,57.64505,55.38986,51.76366,48.15612,44.81934,41.51536,37.88016,33.33624,29.93696,25.53285,22.11832,18.11922,13.8362,9.112062,5.413124,0.7605619,-2.191055,-8.009869,-11.62293,-16.30222,-19.206,-24.52315,-27.29774,-33.06411,-35.42861,-40.04548,-43.30243,-47.32164,-51.75425,-54.21126,-58.57782,-61.05016,-63.98316,-67.91361,-69.64564,-72.78943,-75.36829,-77.24432,-80.68133,-82.41586,-84.32135,-84.69815,-87.63409,-87.01216,-88.73345,-87.59757,-87.14787,-86.69297,-86.49931,-83.82393,-82.38533,-79.53921,-77.19578,-74.49433,-72.00323,-68.37502,-65.52782,-63.11591,-60.52378,-59.16188,-55.23829,-54.64019,-51.92171,-52.34806,-49.83214,-51.35069,-46.75569,-47.24238,-44.83266,-43.58168,-40.63137,-39.12212,-38.6443,-37.90352,-37.44016,-37.02445,-37.06309,-37.14393,-38.64644,-38.65411,-39.33884,-39.77517,-40.99808,-41.81437,-43.42754,-44.43857,-44.26755,-46.91069,-47.0246,-49.78521,-49.74105,-50.58284,-51.79559,-51.84539,-52.83826,-51.72737,-52.15699,-50.86452,-52.2363,-51.17369,-50.48527,-48.30346,-48.73351,-46.57991,-45.87369,-43.82158,-41.25047,-39.83538,-37.82698,-35.45403,-32.45727,-30.41165,-27.52692,-24.64382,-22.57893,-18.31467,-15.71739,-11.67729,-8.799044,-4.885049,-1.277438,3.481973,6.778977,11.56705,15.11851,20.08315,24.41317,28.7883,32.6277,35.89945,40.33294,44.38607,48.59731,51.11131,56.05873,58.29781,63.10784,65.99337,68.17259,71.25903,73.28338,76.5571,78.06471,78.88044,80.43093,80.87071,82.2552,82.51085,81.72271,81.78343,81.66448,82.00958,79.83671,80.94127,77.97788,78.08254,76.82679,75.14983,72.94365,71.96904,69.30547,68.05453,66.34367,63.48974,61.07014,59.47998,57.99727,56.65573,54.67094,53.61846,52.28201,53.12014,52.10249,52.43993,52.53158,53.81293,56.86793,55.48056,56.9123,55.08403,55.65973,54.38698,51.96654,50.84715,47.03427,46.16147,42.9339,40.62969,37.48315,35.83514,32.8246,31.23293,30.90438,27.75406,27.79012,24.91884,27.0765,24.24031,25.87339,23.89926,25.9966,26.71394,28.07545,29.15157,30.40398,31.90161,33.97705,36.29903,37.36622,39.76996,42.11703,45.31653,46.56026,49.73292,51.11223,54.29608,56.63733,59.66565,60.42571,63.95181,64.70904,67.37583,69.26699,71.73921,71.63559,75.17548,74.82007,78.32711,77.49182,78.07054,78.14644,78.41898,77.5696,77.21665,75.63251,74.46771,73.80742,73.05898,71.90422,70.41777,69.85076,69.19518,68.38325,67.18366,65.86219,63.53367,63.41534,61.18817,58.96734,56.9298,54.69009,52.651,50.46532,46.87863,44.33061,40.27654,36.95531,33.36509,29.62511,25.198,21.12249,17.46433,13.04184,9.755322,4.089364,0.08440612,-3.570538,-7.660739,-11.2146,-15.47547,-19.92041,-22.55563,-25.49976,-29.64521,-32.21922,-35.84851,-37.06396,-40.16735,-42.21859,-44.25925,-46.85411,-47.69246,-50.06465,-50.76098,-54.41937,-55.4143,-58.67997,-59.53529,-63.02705,-65.49042,-68.81524,-71.53227,-75.764,-79.14113,-82.40384,-86.97957,-90.39014,-92.95279,-96.37192,-99.98671,-103.2226,-105.7887,-107.9184,-111.3241,-112.6104,-117.0307,-116.1272,-119.9644,-119.5044,-122.5459,-122.7307,-123.844,-123.9802,-124.6406,-125.2155,-125.9829,-125.186,-124.2796,-124.3186,-124.1525,-121.1085,-119.387,-115.628,-112.6759,-109.7326,-107.1048,-104.9683,-102.0343,-101.9017,-100.4047,-101.2409,-101.8822,-102.1115,-103.9054,-104.3612,-105.8975,-106.8647,-107.4096,-108.9819,-109.9438,-111.2743,-111.0801,-111.5706,-109.8137,-109.8359,-108.4448,-106.9309,-103.5231,-101.7618,-98.98651,-95.85921,-92.88775,-88.01489,-84.49273,-80.77312,-76.27485,-71.32433,-67.07422,-61.47666,-57.87424,-52.19945,-47.40559,-41.32705,-36.34467,-31.08994,-26.64978,-20.54187,-15.43275,-9.104531,-4.896421,-0.07445575,5.828632,10.54474,16.44002,20.08749,25.57547,29.87928,35.15139,40.01272,43.4132,48.69544,52.7552,57.67552,61.17969,65.54932,67.83731,72.33702,73.89683,77.89311,78.04882,80.49049,80.21028,81.91718,81.65453,81.16166,80.6208,79.18918,80.0414,77.30935,77.36455,73.29369,73.8286,69.68611,70.1645,66.66331,64.05377,62.11483,60.26984,58.73596,56.10759,54.364,52.59504,52.64572,50.89985,49.82307,47.87247,48.43334,45.92345,47.4146,44.76194,46.04852,44.19214,46.58997,45.81957,48.37127,47.96487,51.05844,53.36727,56.03208,59.33656,64.48437,66.21848,71.04959,72.40921,75.03606,76.07194,76.46774,76.80215,76.53765,75.51367,73.89758,72.18287,71.69308,72.15786,70.78457,69.29456,67.80273,67.27727,65.2898,64.23859,60.61387,59.81156,56.34401,56.21544,51.52625,49.299,45.57469,43.41118,39.72437,36.26044,31.80412,28.0252,24.30313,20.70168,15.93874,12.50763,6.248763,3.084885,-1.616972,-6.643617,-10.53014,-15.81658,-19.93058,-24.15877,-28.16244,-32.1873,-35.91359,-38.86359,-40.82758,-44.32332,-45.04501,-47.27317,-47.75897,-47.58486,-47.52681,-46.75341,-46.20371,-43.65493,-41.31041,-38.66007,-35.62071,-32.83247,-28.73305,-25.93864,-21.95131,-20.62218,-15.95807,-14.91375,-10.13167,-9.388303,-5.203068,-5.273129,-0.4989763,-0.00329578,2.73422,3.436402,4.45719,6.597086,6.551481,8.197641,6.883502,7.944351,8.159856,9.345674,8.380611,8.038463,6.721363,5.921842,5.821121,4.004857,4.664623,3.637894,4.381822,3.304255,3.939633,1.784872,1.64114,-1.817891,-1.464885,-6.085608,-7.41921,-12.35891,-14.16968,-18.54188,-21.77153,-27.34014,-30.87153,-35.67958,-39.96516,-44.17355,-48.08404,-52.92053,-57.30496,-60.07138,-63.87653,-66.60808,-71.29089,-72.85147,-74.78337,-76.86052,-78.29089,-79.2924,-79.91672,-78.15131,-79.436,-77.31806,-77.34,-74.21257,-73.58115,-68.60585,-68.53304,-63.64148,-60.8736,-55.86997,-52.73471,-47.42278,-43.94921,-39.21616,-33.16715,-30.74322,-23.81277,-20.75591,-14.87212,-9.811515,-4.872892,-0.8453224,3.226541,7.669122,12.29157,16.12759,20.58123,23.1636,28.27507,31.55552,36.77757,39.14487,43.2957,46.27111,51.04722,54.16488,57.92174,59.7264,64.11126,66.20076,69.68331,71.25693,73.74628,75.86446,77.92254,79.91831,81.78701,82.63792,83.44276,84.42195,85.34158,85.35415,85.29916,84.24485,84.49218,83.06914,82.43532,79.79554,78.98404,75.67987,75.51781,72.40007,70.26741,69.36503,66.85797,66.49559,65.32765,64.03633,64.54904,62.51212,63.61385,62.40382,64.27078,63.11648,67.40156,67.13994,71.21345,71.40175,73.22004,75.22308,75.24761,76.04515,76.09102,74.5066,75.70128,74.08975,73.10386,71.45992,69.76027,67.80803,65.57713,62.81761,59.00871,55.93704,51.48542,49.08944,43.38222,39.60466,33.38987,30.20532,24.02033,20.26858,12.74495,9.062342,2.130635,-1.447204,-8.39342,-13.28263,-19.40215,-23.17139,-30.75956,-34.6709,-41.64227,-46.61637,-51.70719,-55.11487,-60.22189,-63.86272,-67.95423,-68.94731,-72.67224,-74.45797,-77.31253,-79.31695,-80.32014,-82.44454,-81.40109,-83.65508,-82.70462,-82.44318,-80.9358,-81.39399,-79.35715,-79.83386,-77.19362,-76.21667,-73.93032,-72.77657,-70.46742,-68.87685,-65.49647,-64.17251,-60.26817,-59.32865,-54.92249,-52.68855,-49.5415,-46.47883,-44.06136,-40.80623,-37.71927,-34.28727,-32.01543,-28.90448,-26.81317,-24.02361,-21.35361,-20.1167,-18.93581,-18.02158,-16.61668,-17.1458,-17.35889,-18.70675,-19.7037,-20.69047,-22.08151,-24.09056,-26.42613,-28.57084,-29.06748,-32.57209,-33.67076,-35.92401,-38.34931,-38.66569,-40.5744,-42.40942,-44.01999,-45.14961,-46.21064,-46.68584,-48.43268,-50.08609,-49.86653,-51.8637,-50.74633,-53.29372,-51.36425,-53.31431,-51.52325,-52.05836,-50.46114,-50.98836,-49.07246,-49.22235,-47.62475,-45.42075,-45.23912,-43.76728,-42.29872,-40.67612,-39.21388,-37.42012,-36.78195,-33.64401,-33.10498,-30.21597,-30.25067,-27.7615,-27.02615,-24.06651,-24.11081,-21.84331,-21.99757,-18.90063,-20.31907,-17.45749,-19.19985,-18.57467,-19.99347,-18.75591,-19.69528,-19.22048,-18.06819,-17.96705,-14.998,-14.71839,-11.00582,-10.97738,-9.8444,-8.33949,-7.186399,-8.211727,-6.387224,-7.806044,-6.797357,-8.179292,-8.498366,-8.951433,-10.37545,-11.18517,-12.38591,-14.58472,-15.26417,-16.51834,-16.85165,-17.86597,-18.89441,-19.01375,-19.34238,-18.47538,-19.01986,-18.7822,-18.40875,-17.21697,-16.19594,-14.83541,-13.67966,-12.42657,-10.4228,-8.127482,-6.025822,-3.586915,-2.159274,1.321877,4.022058,7.012191,9.104971,11.65532,14.8138,18.07937,21.24796,23.81797,27.56087,30.7561,35.15177,38.37452,42.33484,45.97343,50.26124,53.36458,58.73159,60.68724,65.22806,68.55525,72.70541,75.9228,79.05927,82.43153,85.24157,88.69929,91.16992,93.63229,95.5548,97.67831,100.0589,101.157,103.5576,101.5761,104.7708,103.0155,105.3248,103.264,103.181,101.9214,101.7606,100.4981,98.37007,96.65397,94.67406,92.86712,90.68286,87.89505,83.85809,82.59241,78.04707,75.94417,71.13744,68.53485,63.92783,62.0566,56.51491,54.17303,48.64273,46.28484,41.09939,38.79872,33.48906,31.0701,27.75833,25.48791,24.19407,21.35086,20.49217,18.34521,18.92047,15.9498,14.29008,10.4371,8.468438,5.603985,2.717917,-1.036497,-3.339404,-6.613315,-8.133847,-8.987355,-10.97608,-11.61983,-13.29584,-13.09299,-14.24387,-13.81983,-14.41647,-14.36905,-13.91749,-13.67319,-13.73766,-14.57223,-13.94496,-13.92416,-12.95849,-13.05517,-13.70305,-13.41644,-13.74578,-14.31502,-14.46277,-17.07779,-14.76557,-16.45984,-14.66323,-17.74843,-17.7156,-20.28013,-22.12373,-24.746,-28.66338,-32.79738,-36.3406,-40.17796,-44.69983,-49.22908,-53.64595,-58.70068,-61.99277,-67.43751,-70.79672,-76.30037,-79.74057,-84.18968,-87.0465,-91.98174,-94.44467,-98.53108,-100.7747,-103.0381,-105.0962,-107.4989,-109.3018,-110.5628,-110.882,-111.9241,-112.6159,-112.707,-112.4315,-111.8235,-110.9969,-109.9313,-108.0695,-105.5238,-102.6001,-99.74438,-96.59936,-93.09549,-88.61825,-83.96445,-78.75392,-74.21125,-69.14172,-63.48979,-57.14265,-51.4461,-45.8028,-39.14602,-32.99907,-25.80928,-19.32848,-12.61218,-6.284206,0.9277813,8.155887,13.60057,18.60659,24.22078,29.7886,35.49285,42.02737,47.36646,52.74639,58.88021,63.92319,69.58096,73.13043,77.90346,80.92442,84.52417,87.04051,89.17238,90.8547,93.25061,94.88787,96.5286,98.26612,98.71022,99.78568,101.6528,100.5646,101.709,99.53501,100.2329,98.58312,97.24675,95.62365,92.8599,91.4479,88.88147,86.28862,83.02316,80.89661,77.89078,75.99667,72.49727,70.28066,67.38499,65.9816,64.27221,63.43464,62.10084,62.35473,59.62339,58.55804,55.04289,52.82782,48.31074,44.53781,41.2069,36.23488,32.2813,27.21126,23.50661,19.0843,14.93212,11.11364,6.117407,3.43503,-1.879242,-1.202796,-6.947251,-8.104718,-12.67875,-13.75559,-16.98187,-19.34875,-23.23163,-26.11603,-28.03033,-31.00247,-33.79195,-35.17952,-37.2453,-36.73441,-38.31519,-38.01771,-37.61352,-36.33512,-35.12228,-32.09456,-29.3381,-26.45274,-22.45001,-18.77542,-14.27548,-9.391852,-5.293095,-1.009425,4.134972,8.760782,12.93556,16.47755,20.10212,24.19713,27.5857,31.00197,32.95077,35.57528,37.18599,39.22035,39.24805,39.36526,38.20862,36.82381,34.65053,32.91546,31.13964,29.21098,27.28342,25.66964,23.54644,19.91733,18.31532,14.18088,13.01312,7.948308,5.983352,0.3248114,-1.567608,-7.169784,-9.419533,-15.4367,-19.03481,-23.53731,-27.76888,-31.98101,-37.41973,-41.29926,-45.2047,-50.17285,-53.63803,-58.95125,-62.62389,-67.0897,-71.10235,-74.35048,-79.2728,-82.56306,-86.42964,-89.01758,-92.1232,-94.47103,-96.46413,-98.17383,-98.53842,-99.73861,-99.97039,-100.9261,-99.64407,-99.9594,-98.17213,-98.51992,-96.6568,-97.44854,-94.40592,-94.75379,-91.56015,-91.76501,-87.20041,-85.80357,-80.93578,-78.93345,-74.1262,-71.19396,-66.38768,-63.15087,-59.88342,-56.97166,-55.03411,-51.66087,-54.10834,-53.07033,-55.61377,-56.22418,-59.70788,-62.67014,-66.28124,-69.21952,-71.32141,-73.96217,-75.85701,-77.11667,-78.62631,-78.36555,-78.9832,-77.51562,-76.64014,-75.24382,-73.63008,-70.30436,-67.35803,-64.13657,-60.8712,-57.33946,-52.36245,-48.77856,-44.35248,-40.92281,-35.44681,-31.42282,-25.9779,-21.93712,-16.40151,-11.23643,-4.152846,1.382886,6.587967,12.38659,17.00988,21.72307,26.98861,30.84514,34.92632,38.80896,42.68576,46.11564,49.88616,52.15244,55.41944,58.19175,61.08737,62.97968,65.04069,66.98785,67.95968,70.19052,70.56953,72.0299,72.66153,73.32294,74.18677,72.33808,73.4647,70.87903,71.22985,68.75292,67.93085,65.35736,62.90606,60.72118,58.268,55.78069,52.46838,50.412,47.56739,46.49425,43.99654,43.04516,40.74848,41.79614,41.32345,41.57361,41.55277,41.90199,43.19243,44.41089,45.92078,47.25176,50.10855,53.23022,57.08297,60.33079,64.01456,67.72752,73.40261,77.7024,84.90127,88.92058,96.33311,101.9856,107.8902,114.0938,119.1254,123.7576,128.2619,131.3304,136.6983,137.8659,141.4034,141.2249,143.2021,142.0241,141.0939,138.7557,135.663,133.3692,129.4245,126.0647,120.9902,117.3814,112.6433,108.2826,102.8362,97.60262,91.60795,86.5511,80.14364,74.01427,68.03442,61.87361,56.24048,50.11422,43.90797,38.17213,32.63626,26.87664,22.60907,16.62383,12.97448,8.011497,6.02069,2.410362,0.2919375,-2.621089,-3.319174,-7.127055,-7.53768,-9.723663,-10.75247,-11.7155,-10.13965,-10.01729,-8.053425,-5.497469,-2.782152,2.836359,7.001505,12.73493,17.97893,24.90286,30.31015,38.43668,43.14051,51.86609,57.16515,66.76364,72.08869,79.99613,84.97791,91.59468,96.08201,101.6372,105.0997,108.4007,111.2793,113.6306,115.3851,115.5435,115.6942,114.8989,113.8132,112.5203,109.6042,107.8507,104.1014,101.9524,97.43492,94.08241,88.62937,84.90834,78.57615,72.80807,66.80759,59.37997,53.25232,45.94472,39.11873,31.90509,24.22358,17.32574,8.144288,0.8897491,-8.064147,-15.7281,-25.16632,-32.0279,-40.60969,-47.82077,-56.19748,-62.83368,-70.66264,-75.22964,-83.64392,-87.46073,-93.60282,-97.57114,-100.4466,-106.6621,-109.4014,-115.1138,-116.8647,-122.29,-123.8706,-128.709,-129.9242,-132.9781,-133.2579,-135.5544,-135.9739,-136.4768,-136.772,-137.1079,-136.0327,-136.0547,-135.5799,-134.4861,-133.5087,-131.1171,-130.5315,-128.7408,-127.0568,-124.7327,-122.4164,-120.9892,-119.0639,-117.8418,-114.9088,-113.9845,-111.6592,-111.5497,-109.378,-108.8289,-108.6581,-108.3009,-109.1992,-108.9818,-108.1663,-109.2675,-109.1149,-110.1035,-108.2936,-109.6761,-107.6622,-108.2029,-106.9705,-107.2648,-105.9833,-106.3078,-105.2129,-105.9921,-105.4392,-104.7882,-103.9018,-103.1325,-102.8831,-102.0322,-101.0083,-99.83281,-99.07778,-98.63817,-97.36063,-95.61462,-94.90313,-93.00796,-92.31475,-91.34438,-88.82936,-88.339,-86.61794,-86.21097,-83.84932,-83.58032,-81.31532,-80.31008,-78.81255,-77.82771,-75.975,-74.79046,-72.99886,-72.37411,-70.22519,-69.82383,-67.83355,-66.48327,-65.03327,-63.57506,-62.56755,-60.67998,-60.04016,-58.38842,-58.8157,-55.71907,-55.53537,-51.90391,-52.03548,-49.00013,-48.2875,-45.05566,-45.24456,-43.29743,-43.01661,-42.14014,-41.87244,-41.26566,-41.90674,-42.67821,-41.74176,-44.03758,-43.08894,-44.8267,-44.68666,-45.28408,-45.49204,-45.91263,-45.57713,-46.71785,-44.90919,-45.50996,-43.20027,-43.32996,-41.15542,-40.44465,-37.19782,-36.26631,-33.8443,-31.23447,-28.15501,-23.75922,-21.29257,-17.05259,-13.21868,-8.987396,-4.216372,-1.222954,4.392524,8.320813,14.96376,18.60153,25.83872,28.90741,36.20588,40.68823,47.11229,52.41145,57.35467,65.00298,69.18018,75.28735,80.84885,85.6223,90.85506,95.24162,101.0428,104.6435,109.5343,112.1237,116.5366,119.1552,123.3878,124.728,127.9222,129.6473,132.6674,133.6716,135.6193,136.0106,137.0918,136.6531,136.693,136.5426,134.4599,134.3504,131.5568,130.6594,127.9811,124.7059,123.4834,118.6245,117.074,112.0737,109.338,103.5516,102.4085,96.20971,93.77989,87.49957,84.96729,79.20068,76.85896,70.74618,67.21427,61.87396,58.93884,54.89402,50.95051,47.96694,44.81465,43.55223,41.70664,40.40329,39.31155,40.26967,39.88158,41.4819,40.99043,41.73724,43.13897,42.73521,44.23745,43.87045,44.5042,44.27651,44.80001,43.63028,44.14326,42.11091,42.90401,40.66335,41.03947,38.89221,38.40778,36.02024,35.123,34.09895,32.59679,32.20633,31.14911,30.87518,31.49769,30.40703,30.51013,29.11897,29.90552,28.64998,28.47451,28.06368,26.75312,26.97118,24.6213,25.7688,23.36396,22.47966,20.1422,19.66544,17.85567,15.92755,14.04743,11.71676,10.49629,7.336998,6.55563,3.039983,2.024281,-1.41237,-2.612651,-5.553287,-8.917149,-11.13128,-13.77412,-16.47891,-19.33838,-22.50125,-24.76697,-28.46005,-30.35744,-34.65108,-36.91703,-38.06119,-40.04382,-42.06362,-44.82584,-46.30733,-49.35248,-50.98036,-54.47617,-54.66368,-57.64891,-58.9229,-60.49675,-62.59299,-66.09968,-67.86158,-71.92904,-74.21595,-77.7268,-81.30433,-84.30538,-88.02484,-90.75903,-94.35158,-97.03317,-100.7135,-102.1772,-106.2834,-106.6887,-110.7975,-111.4638,-114.6631,-114.7988,-117.5661,-117.5716,-118.6175,-118.0884,-117.1367,-115.6242,-114.0916,-111.7275,-109.289,-105.7868,-102.3958,-98.17048,-94.02995,-89.30173,-84.2875,-78.0973,-73.72447,-67.3255,-62.83815,-54.96513,-50.61293,-43.28287,-38.98798,-32.12178,-26.9152,-20.21796,-15.77591,-9.36545,-5.480678,0.5230037,5.868421,11.02454,15.66163,22.0041,26.85027,33.61065,38.1052,44.20355,48.67444,55.2354,57.96149,64.4018,66.97208,72.64585,75.14099,79.93401,83.35726,86.52255,90.02442,92.86413,96.2324,97.66628,99.39985,100.4246,103.1213,103.0383,104.8029,104.9137,104.5297,104.6793,103.6594,103.9385,101.4685,102.3164,99.86171,100.3096,98.39125,98.11963,96.43563,95.86805,94.35705,93.20834,91.06091,90.50249,87.6431,88.23325,85.64991,85.90032,85.34716,85.08578,85.17816,85.96884,86.89157,88.05034,90.44991,92.25207,95.82315,97.28385,98.31808,99.93751,100.2575,100.6235,100.4637,99.68371,99.417,99.16302,97.87809,96.87871,95.20461,93.56171,92.21313,89.38228,87.06658,84.88952,81.66327,78.74022,75.04593,72.304,67.65112,64.1357,60.28246,55.76585,51.96889,46.90474,42.09481,37.05734,33.06888,26.82196,22.05376,16.31339,11.68749,6.467496,0.7522192,-4.821729,-9.829428,-14.99997,-20.55818,-25.97987,-31.36103,-36.04976,-41.23649,-45.07679,-50.97944,-54.26361,-60.40764,-63.75327,-70.1847,-73.17365,-79.80679,-82.3098,-87.29489,-90.17524,-92.91968,-95.64326,-97.86802,-99.1794,-100.5011,-100.0688,-101.9984,-100.5897,-101.556,-98.93244,-99.10571,-96.76174,-96.05927,-92.64329,-90.88356,-87.71414,-85.70254,-82.47007,-79.33138,-75.31209,-72.90393,-69.13653,-65.80707,-62.57388,-59.26218,-55.91804,-53.98292,-49.75667,-47.39437,-43.10552,-40.89246,-36.57405,-35.46539,-31.36035,-29.57987,-27.57237,-25.57732,-25.5618,-24.0332,-23.41477,-22.9835,-22.42597,-23.31625,-22.39678,-22.33748,-21.52066,-20.45052,-20.50491,-19.33495,-19.48224,-18.78327,-18.97754,-19.3487,-19.62333,-19.1325,-19.67918,-21.92047,-22.03504,-23.99117,-24.23136,-26.16859,-27.01425,-27.80922,-28.72399,-29.95571,-30.14721,-31.71464,-32.19504,-32.89809,-33.80677,-33.79003,-33.77055,-35.08233,-34.90681,-34.64747,-34.88445,-35.12566,-35.27227,-34.46589,-33.90774,-32.8776,-32.65813,-32.62866,-30.54012,-30.89555,-29.81425,-29.54584,-29.0571,-29.18409,-28.34671,-29.17027,-28.7046,-28.51167,-29.47261,-28.31397,-29.60021,-28.19054,-29.54503,-29.01461,-30.19035,-30.55046,-32.12129,-33.44529,-35.23107,-36.98118,-37.23443,-39.25468,-39.57058,-40.84645,-41.15243,-41.89806,-42.95026,-42.84916,-43.58357,-42.89868,-43.17783,-44.09498,-43.00543,-43.53613,-41.82309,-41.85327,-41.16969,-40.44001,-39.83876,-39.4358,-37.87999,-36.2526,-33.39533,-31.97602,-29.51103,-28.27868,-26.63383,-24.94183,-24.35598,-22.33636,-21.18782,-20.28262,-19.06127,-18.24032,-16.74396,-15.22258,-14.22678,-13.08204,-11.4758,-9.998733,-8.531898,-6.526872,-5.787215,-3.628091,-1.892865,0.530005,2.038765,4.31666,5.356875,8.720209,9.535103,12.21522,12.29796,14.81591,15.19747,17.72104,17.93883,19.96505,20.10767,21.91838,22.41968,23.77871,24.50638,25.28449,27.48358,27.65355,30.07535,30.07597,31.58495,32.58997,34.16472,36.00662,37.08875,38.7795,40.03771,42.48439,44.44177,45.56909,47.57021,50.04963,51.89399,55.15659,56.43842,59.34122,61.95104,63.23659,66.10551,67.36127,69.5141,70.27674,73.08687,73.40403,75.22637,75.33594,77.44518,77.62425,79.38505,79.65668,79.82133,81.34029,80.79333,82.46735,80.96771,82.22325,80.66921,81.38431,80.01619,79.90221,77.76228,77.11201,75.71001,73.70266,71.58955,68.69979,66.55504,63.7669,62.38324,59.34461,57.44721,55.17668,53.82491,52.21827,51.12943,49.24999,48.72933,47.64164,47.83569,47.00759,46.99207,46.42345,48.75102,49.21539,49.06144,48.30248,47.9147,47.00589,46.39472,46.46623,43.87571,44.46559,41.70027,42.18167,38.79004,38.78558,34.88698,34.31889,31.27962,28.98299,25.27641,22.30224,18.42412,16.20288,11.68735,7.545869,4.232577,0.03559622,-3.77793,-8.701541,-12.38056,-16.77563,-20.78989,-24.73824,-28.69032,-32.79075,-36.8109,-40.77537,-44.35036,-48.73721,-52.74523,-56.27121,-59.37438,-61.95854,-64.41312,-66.78399,-68.42603,-71.29229,-70.42702,-73.36479,-72.63162,-73.00235,-73.0204,-71.2161,-70.99752,-69.17226,-68.40763,-65.57547,-64.01079,-61.14634,-59.27941,-56.8208,-53.94474,-50.46686,-47.50734,-44.00663,-40.20209,-36.74369,-32.33562,-27.78716,-24.42422,-19.19706,-15.87536,-10.49903,-5.739313,-2.290863,2.641633,6.250439,10.89182,14.09769,18.12892,20.35324,24.12383,26.41899,29.29099,30.76367,31.64815,32.77444,33.74091,33.4557,32.47558,31.58307,29.84176,28.314,26.30782,23.50341,21.37781,18.02245,15.73381,12.46874,9.517832,5.843779,2.816298,-0.477515,-3.873704,-6.595642,-10.71323,-13.12967,-16.5544,-19.73683,-22.05603,-25.83573,-26.86505,-31.53092,-32.10732,-35.20015,-37.13169,-39.36573,-40.51125,-41.0201,-43.7256,-43.54613,-45.73868,-44.72651,-46.81511,-45.83185,-48.26768,-47.34561,-48.15435,-48.64133,-48.4196,-49.1929,-48.44552,-48.34237,-48.75192,-47.9284,-47.68886,-47.79095,-46.88654,-46.58505,-44.86291,-44.68735,-43.28292,-42.12084,-40.83871,-39.15994,-37.76781,-36.63972,-33.76831,-32.20778,-29.6659,-27.61689,-25.50719,-23.34948,-20.09954,-17.98182,-15.37235,-13.0737,-8.69016,-7.029336,-1.7768,-0.01794354,3.729527,7.239395,11.53676,13.86852,17.55642,20.5855,24.3068,27.62752,29.60892,33.29695,36.46013,39.75756,43.63164,46.72117,50.01945,53.21376,55.9806,59.95507,61.60836,65.97121,66.82584,70.13742,71.18083,72.47131,74.2708,74.35049,76.17897,77.17509,79.28225,79.38143,81.50819,81.47947,83.87221,83.76937,84.46582,85.22954,85.38645,85.02728,86.79588,85.53273,85.015,84.21031,83.21712,81.81654,79.94369,77.03397,75.04804,72.76845,69.65245,66.67028,62.87141,59.6855,56.29692,53.16766,48.23605,44.90698,40.15317,36.84174,32.43785,28.01835,23.45359,19.17413,15.34763,10.61338,6.392824,1.90653,-2.212134,-5.686412,-10.32986,-13.24796,-18.1247,-21.49856,-25.31842,-29.07452,-32.95228,-36.60753,-40.13631,-43.84261,-46.9489,-50.91979,-54.21118,-58.04206,-60.97686,-63.75278,-67.30585,-70.61312,-73.01323,-75.47788,-77.16092,-79.4634,-82.21169,-82.18947,-85.02349,-83.81763,-86.9044,-86.48141,-87.9976,-88.02213,-89.23793,-88.29044,-90.23754,-88.94122,-89.01107,-87.99917,-87.62361,-86.59088,-85.44193,-84.27391,-82.42439,-81.84616,-79.6703,-79.3773,-75.86736,-74.74379,-69.95647,-68.07254,-64.53347,-62.44542,-59.40651,-56.73408,-55.11546,-54.02752,-53.24608,-53.05701,-54.24602,-55.16078,-57.4079,-58.90587,-61.12747,-64.36971,-67.43864,-70.56602,-72.38043,-74.03612,-75.53626,-76.99831,-78.75205,-77.84049,-78.37443,-77.12224,-77.34009,-75.10926,-73.35577,-71.18728,-68.32981,-65.29948,-62.62149,-58.47783,-53.99698,-51.92334,-46.89948,-42.95988,-38.23985,-33.43832,-27.95547,-23.84283,-17.49036,-12.70789,-6.140326,-1.123488,5.227036,10.12925,17.03067,21.99833,28.46474,33.54013,39.55405,44.42414,50.30695,55.52815,60.19449,64.5538,68.82144,73.75518,77.31807,81.31097,84.04862,87.9313,90.70608,93.67335,95.44502,97.69308,99.36536,101.1396,102.7353,103.4464,103.8468,104.2711,104.369,104.6989,103.7203,102.753,101.5629,100.0702,98.75821,96.36641,94.48112,91.70262,89.58585,87.09245,84.05053,81.34559,76.9838,74.98084,70.57121,67.77923,63.00442,60.02547,55.51548,52.67208,48.17699,44.49633,40.78132,37.60783,35.40555,32.40628,30.53196,28.80375,27.9973,27.26482,28.0986,27.98054,30.6356,31.88943,35.17632,35.10223,37.29863,36.96383,39.09026,38.11773,39.34372,36.8342,37.38704,35.43116,35.68112,33.23172,32.78272,30.03908,29.41711,26.83437,27.34803,23.67628,23.56697,20.41254,19.13592,16.49079,13.2388,13.86963,9.755528,9.805527,5.620598,5.040502,1.019226,-0.41273,-3.279096,-5.800155,-8.450869,-11.71299,-13.82425,-16.67939,-18.52831,-21.41374,-24.23028,-25.71177,-28.51391,-29.56581,-32.00725,-33.05034,-35.48352,-35.49261,-37.53917,-37.79397,-39.6747,-39.62825,-40.35447,-40.64059,-42.35695,-42.42055,-43.52559,-43.08497,-44.46396,-44.6884,-44.61518,-44.19715,-43.12713,-42.30098,-41.61407,-41.25461,-39.79478,-40.31614,-38.99191,-40.44144,-40.24725,-41.43644,-40.82791,-41.62488,-42.23374,-43.49767,-42.93281,-44.06208,-43.36787,-44.93445,-43.93907,-44.74901,-42.78061,-43.39675,-42.09009,-42.49967,-40.59906,-40.04432,-38.75476,-38.05165,-37.17873,-35.71768,-34.58347,-33.20653,-31.70938,-30.97854,-29.15924,-27.78262,-25.26376,-24.53071,-21.51776,-20.75738,-16.30125,-15.73814,-11.11419,-10.87291,-5.908009,-5.203607,0.03510355,0.1539285,4.774297,6.273645,10.1287,11.72196,15.39406,16.56466,20.55485,21.99048,26.3113,26.81873,30.72846,31.35495,34.42123,36.3108,38.31842,39.89541,41.53667,43.15081,44.8094,45.48071,46.70346,46.50222,48.02308,48.28426,48.76829,49.32167,47.97458,48.12653,47.56811,47.07976,45.52102,44.91924,43.62878,42.9532,41.36111,38.9541,37.39499,34.98462,33.6991,30.86574,28.24725,25.89021,23.25346,22.18635,18.37748,16.52375,12.98883,12.21351,8.460633,7.369923,2.862601,1.408868,-1.780013,-3.194017,-6.517886,-9.352188,-12.46146,-13.38436,-15.3092,-15.10069,-16.71656,-15.94485,-17.26473,-15.78509,-17.69358,-16.84864,-18.7865,-18.33387,-17.44658,-17.67495,-19.17062,-18.68734,-19.12003,-19.73639,-20.78771,-21.33227,-22.2868,-22.92152,-23.28883,-24.79954,-25.3466,-26.98248,-26.89521,-28.19947,-28.48878,-29.83077,-31.01418,-31.99263,-32.9913,-34.33516,-35.35979,-36.87903,-37.28027,-37.63826,-36.73635,-37.97022,-35.87059,-36.2319,-33.17997,-33.68575,-31.287,-32.34231,-29.0894,-29.55161,-26.94544,-28.45486,-25.57018,-26.79363,-23.84889,-24.79678,-22.20056,-22.91387,-20.19149,-20.45148,-17.3825,-17.01269,-15.03937,-14.03312,-11.40019,-10.27764,-9.185871,-9.015935,-7.782852,-4.865404,-5.659113,-2.689413,-3.626796,-0.7323949,0.8009282,3.849948,5.638929,8.396881,11.94532,15.56766,19.51595,22.75518,26.62967,30.13479,35.36133,38.3792,42.99211,46.17478,50.57791,53.87569,57.77675,59.89251,63.04366,65.99117,67.55142,71.70638,72.39425,75.0629,75.37069,77.22607,76.49776,77.12345,75.40181,75.02118,72.45547,71.69645,67.71043,65.23092,61.51528,57.62762,53.76932,48.55416,45.5215,40.94996,37.05207,33.13719,27.76997,24.75276,19.20117,16.89453,11.30714,9.085727,3.615519,1.331047,-3.308905,-7.191698,-12.36792,-14.42756,-20.6347,-22.41113,-27.44672,-29.46593,-35.07534,-37.16766,-41.82156,-43.25383,-47.52522,-49.86655,-52.87532,-55.03515,-57.61891,-59.92912,-63.04594,-63.96855,-65.96352,-65.87521,-67.17338,-66.37075,-65.79922,-64.15332,-61.21901,-59.70831,-55.53282,-54.70758,-49.46363,-48.28527,-42.54485,-41.891,-36.07744,-34.26227,-28.42631,-25.90375,-20.60091,-18.07539,-13.10368,-9.430672,-5.281538,-2.638526,2.010635,4.345544,10.31699,12.15463,15.53509,17.60025,20.84552,22.07556,22.95205,23.83006,25.00734,26.75069,27.44403,28.57051,29.68955,30.8237,32.23679,33.73626,34.78259,36.0233,36.32043,37.29857,37.9772,38.37883,38.28369,37.71568,38.1606,36.97232,37.85478,34.29949,37.90488,34.10242,37.747,34.80699,36.9367,33.93328,33.69459,32.54905,28.21442,25.44259,20.13985,16.44499,10.89878,6.927659,0.5211245,-3.841044,-10.73523,-14.22071,-21.77074,-26.00257,-32.74169,-38.25726,-43.24154,-48.3743,-53.39828,-58.40865,-62.65296,-66.18468,-69.51922,-71.81931,-75.52404,-77.04342,-78.88014,-79.75955,-80.30077,-81.45373,-80.51264,-79.95256,-78.10602,-77.37017,-75.2558,-73.09721,-70.32472,-66.91328,-64.09658,-60.24874,-56.39707,-51.30719,-47.43929,-41.87584,-37.82859,-32.51414,-27.87123,-21.61882,-17.21075,-11.34038,-6.408531,-0.23917,5.090929,11.94985,16.34386,21.74363,26.88512,32.29205,37.01827,41.43853,46.71557,50.81348,56.88229,59.15761,64.62872,66.90395,71.51975,74.2534,77.1682,79.15208,80.90614,82.90749,84.69934,86.65377,88.37957,88.82605,90.52456,89.91956,89.964,88.36527,86.29493,84.37796,81.28086,78.91548,75.09533,71.71395,67.08267,62.944,57.90042,52.8657,46.74055,42.62449,35.65305,31.53453,23.73117,19.83409,12.44352,8.623145,2.423865,-2.484538,-6.990819,-11.74395,-14.00269,-18.62836,-17.88195,-24.95555,-24.20974,-30.18556,-30.13568,-36.47428,-38.07883,-42.95665,-45.33203,-49.18215,-52.64519,-56.25407,-58.21452,-60.47446,-62.93307,-64.74867,-67.6271,-67.77207,-69.96263,-69.9155,-71.51701,-71.62328,-70.02388,-69.23257,-67.57923,-65.87599,-64.33716,-61.41296,-58.69732,-54.80169,-53.09368,-49.02602,-45.87357,-41.80861,-37.2569,-33.95935,-30.00512,-26.15871,-21.37147,-17.53725,-12.98825,-9.897211,-5.120417,-1.373737,2.497015,5.552314,8.278831,11.75976,14.4553,17.30131,19.39593,20.91556,22.71439,23.81257,24.3468,24.85197,24.28739,23.90059,22.61335,21.57758,18.94259,16.34727,14.4069,12.24988,10.15953,7.356601,3.896429,1.821028,-1.54386,-4.166485,-7.223882,-10.97653,-13.77677,-16.17203,-19.029,-21.1743,-24.12468,-24.59574,-25.56376,-25.0972,-25.389,-25.59788,-24.04921,-23.54705,-22.08043,-19.21469,-19.03944,-14.83679,-13.98404,-9.74762,-8.352168,-4.497799,-2.58145,2.364698,4.571693,9.756327,11.22505,16.34976,18.78677,24.43084,26.2982,31.28233,32.91531,38.95982,40.71835,45.24722,47.21638,50.98462,53.39798,56.93142,58.51574,60.33294,61.99398,64.16374,65.52977,65.75766,66.37703,65.86647,65.62408,65.32574,64.10443,63.00829,61.79409,60.03046,59.02279,57.22042,55.10913,53.49691,49.65581,48.11186,44.83747,42.7376,39.26604,37.72135,34.81752,33.76381,30.15224,30.04463,27.72528,27.72709,25.22345,25.21285,23.42212,23.18766,22.75925,22.28043,20.66951,20.74572,19.66515,20.39969,19.40842,19.42778,18.38226,18.72208,17.98696,18.9206,16.99737,18.95761,17.30581,18.67969,17.98048,17.50105,17.27407,16.60462,17.08657,16.37988,15.38455,14.85778,14.09244,14.42094,12.79322,12.22769,10.05098,9.275321,7.259905,5.34737,2.698874,0.180334,-3.072773,-5.470839,-9.196022,-13.52219,-16.89194,-20.58689,-23.75688,-27.45617,-30.96816,-33.63314,-36.94466,-38.47071,-42.29514,-42.81925,-47.29871,-49.39646,-50.68905,-52.58663,-56.34186,-57.52323,-60.78177,-61.55422,-63.70038,-65.33727,-67.30858,-68.50809,-69.86622,-70.86702,-71.72181,-73.18724,-73.27762,-73.50344,-74.19293,-73.14545,-75.02497,-73.13037,-74.81747,-72.15643,-73.73083,-71.87997,-73.02119,-70.4634,-71.27275,-68.49861,-69.84512,-67.06835,-67.22869,-64.33486,-64.46504,-63.15575,-62.37754,-60.88774,-60.53979,-58.20873,-58.41097,-56.07309,-54.68019,-53.24627,-51.99425,-51.96,-50.94182,-49.40343,-48.33022,-48.2275,-48.31105,-47.51053,-48.06657,-47.4021,-49.11969,-48.84122,-51.36373,-51.17328,-52.50301,-53.54668,-54.80517,-55.27273,-56.26402,-55.65874,-57.02082,-56.9493,-57.55597,-56.65824,-56.29319,-55.68085,-55.50991,-54.28607,-53.46463,-51.3091,-51.8081,-49.77528,-49.26155,-46.27171,-44.22063,-41.75717,-38.97478,-35.78894,-31.5407,-27.09524,-23.38793,-18.31391,-14.39093,-8.840591,-3.886864,0.962206,5.885597,10.61553,15.78907,21.86919,26.67921,31.83799,37.10212,42.76676,48.24508,52.73402,57.91398,61.71604,66.99998,71.82611,75.05779,78.5573,81.54722,86.56801,89.38909,92.60527,92.47251,96.6977,98.77204,100.6561,101.9297,102.1147,103.5587,104.3736,105.6076,104.6443,104.6867,103.1658,104.1458,102.3302,102.3983,98.07895,98.25612,95.1086,94.87646,90.81546,87.17346,83.9502,81.80666,78.9324,74.22287,70.27272,65.28406,63.10819,58.84786,55.08484,49.78868,46.64815,43.49672,40.38318,37.06659,32.57029,30.75912,28.08084,28.59771,26.38478,24.64286,23.96812,24.69081,25.07329,24.66215,24.11351,24.03298,24.68159,25.11491,24.34259,23.61979,23.0491,23.69601,23.78963,24.39791,22.6132,23.12077,23.8816,25.22809,24.86742,24.88365,25.11519,25.49931,27.70531,26.57506,26.77485,26.71126,27.80821,28.31115,27.91883,27.0934,26.33704,26.11181,25.84522,24.41105,23.89693,22.92324,22.65521,23.39168,22.82018,22.23827,21.37554,21.51987,22.41036,21.32113,21.10685,19.74708,20.75399,20.82119,19.75006,18.89791,16.42907,17.41458,16.87585,17.17815,15.75144,15.67072,16.20188,16.777,17.71219,17.10596,17.53237,18.90183,20.82809,20.99355,22.68413,23.49512,26.11342,27.4331,28.36906,29.94103,30.98095,32.5858,34.13505,35.24334,35.13824,36.59346,36.34791,37.58448,36.74168,36.0742,34.80642,34.45525,33.24491,32.55211,30.28021,29.50168,27.57068,26.42044,23.35499,21.63427,18.52274,16.86862,13.49297,10.85133,7.137502,3.883737,1.173943,-2.170237,-5.995317,-9.757808,-13.92305,-16.92371,-21.6892,-24.29023,-30.73463,-32.90584,-38.8878,-40.726,-47.22852,-50.29613,-56.02525,-58.44043,-63.342,-67.10097,-71.48193,-74.92177,-78.61681,-81.4283,-85.25387,-87.95008,-91.90824,-92.98136,-96.79493,-97.91774,-102.16,-102.8795,-105.5619,-105.8038,-108.7876,-108.8952,-110.5261,-110.7444,-110.9244,-111.1145,-111.1025,-111.1826,-111.1249,-108.6725,-107.8524,-105.4899,-103.7481,-100.6183,-98.24168,-94.65823,-93.54011,-91.65357,-91.28211,-89.67498,-91.29662,-91.66006,-93.8877,-94.94334,-97.17772,-99.28469,-102.0566,-104.6666,-107.2933,-109.1402,-112.5167,-114.1367,-117.1134,-117.6568,-119.5854,-119.0085,-121.2416,-119.5595,-119.5749,-117.812,-115.3562,-114.6547,-110.9942,-108.2999,-104.0967,-100.4504,-96.33918,-91.52991,-86.46939,-80.9618,-75.32971,-69.50976,-63.59703,-57.25972,-50.87227,-43.73168,-38.73739,-30.92723,-26.06677,-17.72337,-12.85147,-5.516331,-0.2110573,7.598228,13.63767,21.42986,25.54262,32.56896,37.54483,44.04422,49.27538,55.12472,59.18454,65.32933,69.75107,75.12227,79.07439,82.63672,86.73398,90.39946,93.99783,97.09018,99.41693,102.5976,104.0411,107.4166,107.0404,109.6909,108.3565,111.178,109.5912,109.537,107.1788,106.0992,103.689,101.7826,97.81999,94.58254,89.57855,87.71139,82.07977,78.61782,72.81586,69.88356,64.75517,61.55174,58.04997,53.0214,50.99948,46.38208,44.47561,41.18926,39.27179,36.46901,36.37249,34.93292,35.29735,34.865,37.34329,39.39425,41.82633,44.59949,47.11965,49.01338,52.01594,53.62458,54.66828,55.01881,55.18105,56.41881,55.78177,57.04859,55.20383,56.37887,55.38096,57.74315,56.09307,57.72299,56.39256,58.36177,57.22062,58.25487,56.91857,57.31719,57.66828,57.93676,57.51079,57.81214,56.74027,57.24859,57.55738,55.84465,56.89251,54.44963,55.56552,54.51837,54.39508,52.99543,52.02905,51.23599,50.88297,48.96594,47.97444,45.74035,44.96801,43.11584,41.89935,39.3974,38.12948,35.44258,34.46,31.77708,29.6868,26.75127,24.65651,22.04273,19.54025,17.2941,14.58306,11.96647,9.862651,8.422155,4.346501,3.228407,-0.2877778,-0.2346336,-3.254511,-4.831855,-7.156368,-6.205223,-7.1545,-7.814841,-8.755683,-9.744727,-10.40429,-10.3237,-11.7481,-12.42214,-13.44017,-13.48293,-14.82911,-16.44948,-18.38335,-20.27631,-21.94059,-24.00402,-25.62571,-27.5742,-28.54542,-29.23886,-29.93871,-29.7149,-28.92069,-28.42373,-26.94793,-25.5035,-22.32023,-22.30969,-18.30438,-18.10545,-13.04638,-12.15777,-8.204826,-7.713102,-3.381816,-2.146613,1.983855,2.927957,6.064391,7.011576,10.2536,10.8446,13.26659,12.84931,15.10747,15.27714,16.40909,16.05555,16.30426,15.47319,15.6958,14.76206,13.43243,12.03265,9.967789,9.27216,6.639354,4.936385,1.48102,0.04058352,-2.949692,-5.622701,-8.828692,-12.74298,-15.43573,-19.8884,-22.32203,-27.5864,-31.07642,-35.32961,-38.88091,-42.84107,-46.32828,-51.36753,-54.3294,-58.98135,-61.23272,-66.28816,-69.49637,-73.54812,-76.3153,-80.04471,-82.86897,-86.5615,-88.80064,-91.57192,-92.49434,-96.6795,-96.73589,-101.1194,-99.92558,-103.0478,-102.3749,-105.2334,-104.1691,-106.3985,-102.3201,-103.9131,-100.5798,-100.8428,-96.50191,-95.24233,-92.2873,-90.56001,-88.41192,-86.09065,-83.89289,-82.31852,-80.44185,-77.90138,-77.21958,-75.70039,-74.31309,-74.14425,-72.53154,-72.65536,-70.51197,-71.13237,-69.55348,-71.4341,-69.80776,-71.15294,-70.23361,-71.293,-70.72607,-71.01016,-69.63307,-69.30627,-68.61383,-67.59789,-65.79467,-63.09975,-60.58302,-58.20276,-55.36051,-51.70335,-47.88068,-44.9411,-41.14855,-38.24193,-33.16455,-30.03166,-24.69977,-22.00945,-16.32515,-12.61956,-7.141145,-2.575504,1.707634,6.301354,11.2162,16.17241,21.2031,25.21412,30.52718,34.93252,40.26483,44.77073,49.21909,53.20082,57.9764,62.22429,65.97506,69.75457,73.12741,76.76442,80.48528,83.5275,86.29048,88.92109,90.68829,93.12321,95.33896,95.92796,97.27247,97.80232,98.62173,98.54621,97.85439,97.43329,95.72371,95.68959,93.85945,91.91565,89.84027,87.79063,86.16915,83.16268,81.1557,78.15606,75.44012,73.20307,70.42548,68.07508,64.16378,62.71871,59.33058,57.63572,54.67376,52.53985,50.52549,49.5209,47.33387,47.10715,45.49359,46.51798,47.73679,47.19777,48.01306,47.62167,48.60536,48.4584,49.15263,47.91727,47.3639,47.55482,46.8839,47.41894,46.33868,45.72917,45.06182,44.63116,44.6395,43.4013,43.30168,42.12718,42.62031,41.42159,41.46312,39.74592,40.74578,38.96326,39.71685,38.14913,38.06751,36.35239,37.06895,35.92195,35.95735,34.88537,34.72629,34.97011,34.43301,34.39122,33.16666,33.45078,32.95745,32.48025,31.78331,29.61734,29.47953,26.4342,26.06869,22.47603,21.40393,17.45534,15.43213,12.32808,9.147192,5.753852,3.055552,-0.2866441,-1.513047,-4.401494,-5.998427,-8.886763,-8.80926,-10.5533,-10.18662,-13.53632,-13.33937,-14.65498,-13.9846,-13.86697,-13.20186,-11.94048,-9.855792,-7.38889,-5.17042,-2.614296,-0.5651969,3.316069,6.322363,9.175104,12.28123,14.12734,17.97892,19.9721,23.60135,24.84145,27.99802,29.87252,33.22033,34.06637,36.98857,37.56017,40.24111,40.74871,42.61472,42.21656,43.34194,43.33093,43.7985,43.52743,42.97351,42.68861,41.61947,41.55117,39.44051,38.52574,35.45917,34.22252,31.33678,29.36602,24.8578,22.68249,17.95788,15.89838,10.66889,7.275509,2.264235,-2.095094,-6.369178,-12.35325,-15.33233,-22.95094,-26.64553,-32.83262,-37.50082,-44.62993,-49.53662,-55.71759,-60.4511,-66.49374,-71.60938,-77.72392,-82.33648,-87.49119,-91.56683,-96.81324,-100.7327,-105.0699,-107.3153,-111.2028,-113.4122,-116.8983,-117.0864,-119.2422,-118.7307,-120.9217,-119.8294,-120.1417,-118.2142,-117.1348,-115.3097,-113.7481,-112.4667,-110.5739,-108.8869,-107.1159,-105.2036,-102.9073,-99.43466,-96.67357,-93.69183,-92.29167,-90.66033,-88.46287,-88.24317,-87.65187,-89.42577,-90.17905,-91.94614,-93.36298,-96.10365,-98.03781,-99.61855,-101.9875,-103.4632,-106.3148,-106.4279,-107.4329,-105.9183,-106.1161,-104.0599,-104.1306,-102.1461,-99.58514,-97.04585,-94.80633,-91.74122,-88.93104,-84.49159,-81.18165,-76.51893,-74.36154,-67.7376,-65.29389,-57.56473,-55.70665,-47.77087,-45.4757,-37.13162,-33.97421,-26.2511,-22.66861,-16.23401,-11.35053,-4.033282,0.8121079,6.918758,12.20175,18.64267,25.28738,30.8731,36.24684,41.47778,47.45164,52.70398,57.99671,61.86927,66.89393,71.26885,75.41792,79.73819,83.36663,87.13226,90.28469,93.6605,95.55692,98.407,99.27233,101.5769,102.4454,104.4692,101.9506,104.2744,101.873,103.4325,100.537,100.5042,96.8295,96.89739,94.33005,92.67006,89.36005,86.52684,83.69851,81.76984,77.27981,73.96452,69.34669,65.89125,61.20358,57.27102,51.4777,47.90254,42.07349,38.56118,33.34606,30.65291,26.04139,24.07257,21.76072,19.50028,20.06501,17.69201,19.94307,20.3923,23.22787,24.5001,27.84051,29.74786,33.47784,34.65036,35.9552,36.55879,37.74457,37.5694,38.16103,36.33237,37.85749,36.70864,39.09995,39.97916,40.05643,40.91492,41.23076,42.82058,43.11369,43.20431,44.05482,43.82606,44.3932,44.35374,43.6157,43.60739,43.79798,43.63695,43.27754,42.28703,41.80364,40.48572,40.36012,39.06225,37.7281,37.10464,35.0927,35.5709,33.36044,33.15436,30.4121,29.90142,27.51438,26.19317,23.74603,21.01984,19.80773,16.91541,15.52285,12.02134,10.44947,7.611526,6.464937,3.570099,1.50733,-0.4399669,-2.215566,-3.554006,-5.312832,-7.091335,-8.165801,-9.833302,-10.37734,-11.27176,-12.06466,-13.32831,-13.96857,-14.39147,-14.73659,-14.62626,-16.17355,-15.77955,-15.21762,-15.13876,-14.65719,-14.52926,-13.55211,-12.26042,-11.33891,-10.25807,-9.654068,-7.215426,-5.777117,-4.62804,-4.470347,-4.052739,-3.842102,-3.913393,-3.879344,-3.696868,-3.721828,-3.355616,-3.320877,-2.728085,-2.670235,-2.327934,-2.132537,-1.111421,-0.4154896,0.707285,0.1495475,1.418987,2.007615,2.673292,3.958541,1.03401,5.856733,3.564837,7.290648,5.722068,7.770845,6.573095,7.678193,6.090636,5.005257,2.884718,-0.4768104,-3.50094,-6.997815,-10.64744,-14.87774,-19.97114,-24.3777,-28.54719,-35.63634,-39.33887,-46.41651,-50.47777,-56.42011,-61.74746,-67.47516,-72.64274,-77.44101,-81.06907,-85.26556,-88.2787,-91.99527,-93.88194,-96.41472,-97.81081,-99.24769,-100.7986,-99.86932,-100.3792,-98.38695,-99.33807,-95.97709,-95.44691,-91.02896,-91.82758,-86.62967,-86.66872,-81.38384,-79.21149,-73.2252,-70.99795,-64.64203,-61.14982,-54.30928,-49.76048,-43.00912,-38.4945,-31.03079,-25.734,-18.2584,-12.19666,-5.99003,1.303869,7.564731,15.08747,20.27199,26.60922,32.29433,38.45376,44.81812,49.67542,54.74449,59.56149,65.32435,68.86732,74.25607,77.02196,82.18211,84.55663,88.65601,90.18133,92.80144,93.76395,95.71129,95.64528,96.75588,95.48193,95.86482,92.5153,93.17659,89.90215,88.19356,85.13708,84.53899,81.40491,79.10657,75.46381,72.39925,69.65254,66.26505,62.68144,58.89417,55.19599,52.25759,49.08283,45.75495,43.40582,40.70386,39.37531,37.90634,38.04873,38.41539,36.21264,38.0104,36.29106,36.97779,34.28566,34.75913,31.92996,31.53443,28.63831,26.1965,24.16902,22.84148,20.4381,17.93868,14.90127,12.37377,10.56491,7.646131,4.944273,1.613661,