ConstAcc,0.5,0.085216,-85.843699,-67.661016,-51.555076,-37.394157,-25.051224,-14.403858,-5.3341752,2.2712428,8.5214281,13.5211,17.370742,20.166675,22.001134,22.962344,23.134594,22.598312,21.430142,19.70302,17.486246,14.845563,11.843228,8.5380926,4.9856751,1.2382361,-2.6551454,-6.6484971,-10.698878,-14.766303,-18.813667,-22.806671,-26.713745,-30.505974,-34.157022,-37.643057,-40.942675,-44.036824,-46.908733,-49.543829,-51.929671,-54.055865,-55.913996,-57.49755,-58.801837,-59.823918,-60.56253,-61.018009,-61.192214,-61.088455,-60.711413,-60.06707,-59.162627,-58.006438,-56.607923,-54.977504,-53.126521,-51.067161,-50.119432,-48.797166,-46.795889,-43.593563,-39.698714,-36.057873,-32.453249,-28.745555,-24.627852,-20.288586,-16.522022,-13.379482,-10.782589,-8.3205367,-5.73018,-2.998771,-0.20330936,2.3408288,4.87337,7.5166231,10.31295,13.193051,16.074833,18.919991,21.602883,24.126198,26.254311,27.736707,28.642595,29.243865,29.770169,30.358247,30.83477,31.366835,32.032183,32.619273,33.177276,33.551753,33.662256,33.595507,33.504277,33.396287,33.282106,33.023913,32.817765,32.665549,32.677954,32.747616,32.657523,32.510616,32.414724,32.501402,32.705154,32.896771,33.057632,33.308621,33.789782,34.742822,36.091979,37.687506,39.376905,40.955903,42.154647,42.67526,42.414982,41.589096,40.372444,38.892182,37.249849,35.61999,34.389582,33.654636,33.232493,32.920447,32.54641,32.043725,31.488342,30.842512,30.102764,29.464739,29.099711,29.220057,29.777301,30.571809,31.575998,32.904385,34.467692,36.212074,37.743112,39.256178,40.692862,42.242202,43.848098,45.390593,46.922756,48.594968,50.472997,52.347367,53.997375,55.284951,56.445658,57.567256,58.616463,59.343176,59.457389,59.333113,58.886102,58.23467,57.24593,56.006725,54.723418,53.491133,52.381516,51.259985,50.070543,48.961298,48.083437,47.392354,46.656215,45.714639,44.714805,44.127766,43.767386,43.227765,42.548949,41.879704,41.286446,40.812594,40.270151,39.614954,38.849294,38.088587,37.498265,36.688516,35.528815,34.185678,32.627629,31.052596,29.445803,27.84522,26.050665,24.127249,22.161741,20.319215,18.510187,16.805092,15.529262,14.674378,13.933955,13.390334,13.134,13.167684,13.525268,13.855402,14.125563,14.366505,14.705477,14.964183,15.338148,15.826155,16.596232,17.986476,19.673558,21.601829,23.50547,25.577204,28.059007,30.751387,33.026574,34.436396,35.208462,35.453292,35.252463,34.376026,32.80978,30.741505,28.638226,26.544892,24.32394,21.800129,19.038774,16.074644,12.799348,9.0237419,4.688917,0.099531529,-4.2751051,-8.3878334,-12.296873,-16.285963,-20.000176,-23.022268,-25.267931,-27.801624,-30.75408,-33.9918,-37.573045,-41.230747,-45.152952,-49.309236,-53.588196,-57.622821,-61.175194,-64.478267,-67.654057,-70.46626,-72.833267,-74.753256,-76.377526,-78.017177,-79.589848,-80.993168,-82.225315,-83.630162,-85.33582,-86.927003,-88.21098,-88.96655,-89.458669,-89.885765,-90.146716,-90.051155,-89.329705,-88.082907,-86.613653,-84.807852,-82.438603,-79.452133,-76.152835,-72.785203,-69.242605,-65.265547,-61.169761,-57.308804,-53.436293,-49.794684,-45.998644,-41.459812,-37.059992,-32.669014,-28.469072,-24.213991,-20.026889,-16.404871,-13.349022,-11.448873,-10.027536,-8.8891258,-8.0938124,-8.0217376,-8.7331647,-9.1981953,-9.1582453,-8.5729753,-8.19987,-8.101686,-8.0293981,-8.0432806,-8.0971149,-8.6850507,-9.9399192,-11.832696,-13.7424,-15.520045,-17.366516,-19.108245,-20.413429,-21.130449,-21.450648,-21.731559,-21.966324,-21.966942,-21.823557,-21.62367,-21.536363,-21.397118,-20.887173,-20.468441,-20.002425,-19.774346,-19.827907,-20.062354,-20.243327,-20.413071,-20.8147,-21.473625,-22.212371,-23.034966,-24.0006,-24.960772,-25.679508,-25.941048,-25.464882,-24.409575,-23.23095,-22.020328,-20.787931,-19.15143,-17.142826,-14.904794,-12.620065,-10.264294,-8.0227932,-6.3998161,-5.1141831,-4.3955896,-3.9030569,-3.2237379,-2.4333592,-1.8727531,-1.3253629,-0.81749836,-0.15582748,0.63664548,1.1020629,1.2645373,1.1831162,1.0660694,1.5207198,1.6015947,1.0165872,0.076801887,-1.0078375,-2.3932458,-4.1749916,-6.5428844,-9.1846698,-11.930873,-14.730407,-17.833914,-21.338122,-24.782647,-27.673939,-30.427697,-33.512741,-36.675394,-39.781962,-42.147526,-44.089108,-46.028664,-48.130455,-49.829557,-50.90258,-51.439807,-51.702539,-51.829461,-51.41297,-50.432117,-49.426162,-48.425239,-48.118532,-48.172962,-48.303194,-47.969977,-47.763388,-47.946735,-47.738039,-47.102683,-45.877987,-44.86592,-44.112371,-43.290184,-42.328383,-41.243156,-40.64214,-40.501658,-40.46715,-40.23481,-39.736598,-39.733996,-40.191891,-40.615421,-40.219149,-39.014013,-37.835139,-36.94571,-36.240937,-35.802576,-34.985884,-33.815331,-32.547907,-31.492579,-30.559431,-29.949238,-29.58245,-29.913179,-30.726752,-31.930751,-32.824177,-33.934688,-35.306304,-36.748538,-38.124129,-39.203912,-40.456018,-42.417603,-44.748462,-46.891548,-48.492568,-49.929451,-51.482656,-53.099824,-54.415121,-55.409742,-56.458986,-57.816793,-59.209686,-59.931338,-60.074935,-60.151523,-60.725295,-61.350821,-61.579054,-61.368516,-61.004003,-61.022565,-61.001479,-60.747237,-59.551708,-57.917225,-55.952434,-54.092663,-52.075204,-49.535053,-46.869958,-44.550366,-42.448346,-40.127812,-37.305204,-34.944487,-33.173642,-31.476789,-29.610425,-27.370984,-25.060175,-23.173885,-21.340191,-19.361409,-17.088362,-14.907033,-13.292626,-12.048054,-10.67715,-9.2155382,-7.2152228,-4.9264806,-3.0590665,-1.1820406,0.7337874,2.3920918,3.5556806,4.5407574,5.5849336,7.0312649,8.3338336,9.4547823,10.171744,10.934616,12.410181,14.287023,15.421513,16.008562,16.50954,17.355054,18.249684,18.85073,19.315742,19.8187,20.645987,21.429687,21.918786,22.071428,22.216387,22.76053,23.60038,24.290911,25.063288,26.159365,27.505557,29.205461,30.757783,32.24992,34.016601,36.480929,38.993052,40.780776,42.115266,43.961965,47.095445,50.81661,54.543256,57.375483,60.240701,63.274314,66.24723,68.828238,71.361593,74.316585,78.194033,82.338448,86.113717,89.245157,92.360237,96.031048,99.804764,102.96171,105.53215,108.07659,110.85585,113.70407,116.18461,118.17573,120.1473,122.4156,124.85031,126.83971,128.23678,129.36398,130.67476,131.91556,132.67813,133.04115,133.18209,133.59097,134.10596,134.19688,133.90833,133.60293,134.0529,134.3269,133.94544,132.58735,130.76592,129.45707,127.97882,125.77795,123.16428,120.60832,118.53003,116.64065,114.3556,111.72289,108.73844,106.08707,103.55719,100.87676,97.933321,94.592798,91.853716,89.394508,86.743383,83.662672,80.71305,78.34369,76.719027,74.377729,71.244352,68.277424,66.152153,64.771545,63.173159,61.300978,59.443606,58.24214,57.670457,57.556186,57.178038,56.799405,57.032347,57.185506,56.756016,56.143588,55.554837,55.667152,56.306681,56.827158,56.667243,56.190978,56.191281,56.648041,56.707464,56.57395,56.439809,57.069974,57.900816,58.591667,58.558592,58.3032,58.130116,58.590702,58.708139,57.816645,56.870025,56.354571,55.984386,55.350053,54.55484,54.268138,54.354871,54.885826,55.044888,54.32043,53.363775,52.311641,51.924364,51.917023,51.697343,51.281032,51.276574,51.317898,51.259891,50.506348,49.698821,49.394796,49.472078,49.308069,48.806234,47.920352,47.247158,47.126593,46.733456,45.805123,44.733801,44.048007,43.736649,43.253555,42.325357,41.133039,40.368226,39.863168,39.233772,38.217398,36.754228,35.62802,34.849198,34.160926,33.310638,32.023784,31.010261,30.571691,30.214547,29.426649,28.940286,28.697778,28.487816,28.182377,27.491201,26.461391,25.701108,25.400364,25.052357,24.029572,22.550309,21.053642,19.968831,19.213538,18.178085,16.745917,15.613381,14.822517,14.173184,12.956353,11.686255,10.836362,10.504214,10.273395,9.8247122,9.0670852,8.3867389,8.2829911,8.2025841,7.7377686,6.8606795,6.6183109,6.8741991,7.2360867,6.8344158,5.8145012,5.1056286,5.1715439,5.5909373,5.1747588,3.7270446,2.684735,1.8272084,0.95036242,-0.29078225,-1.8969863,-3.364366,-4.1310949,-4.7601485,-5.2369908,-6.3166404,-7.8093339,-9.7132667,-12.002781,-15.056239,-18.659491,-22.172004,-24.871309,-27.59173,-31.193971,-35.053188,-38.695598,-41.872124,-45.252594,-49.194291,-53.372309,-57.373467,-60.402698,-63.193266,-66.796932,-71.060079,-75.620035,-79.348935,-82.679085,-86.368399,-90.089149,-93.799484,-96.923786,-99.502501,-102.56228,-105.81283,-108.56429,-110.50701,-112.00483,-113.19589,-114.56196,-115.7742,-117.07295,-118.41494,-119.97154,-121.66692,-123.11044,-124.04912,-124.41821,-125.17469,-126.36799,-127.10148,-127.46422,-127.63315,-127.76782,-127.86067,-127.78467,-126.4231,-124.31419,-122.423,-121.29429,-119.46221,-116.59008,-113.30385,-110.07258,-106.94545,-103.77702,-99.338938,-94.792806,-91.484516,-89.555774,-88.142413,-86.014701,-83.67122,-81.898932,-80.72222,-79.791712,-77.989872,-75.685585,-73.819036,-72.548983,-71.594593,-69.677341,-67.36442,-65.420168,-64.092391,-62.762442,-60.669415,-57.910645,-55.361567,-53.363363,-51.177563,-48.219658,-45.45973,-43.641768,-41.728041,-38.75156,-35.090835,-30.84793,-27.242579,-24.149202,-20.786972,-16.474178,-11.782357,-7.5816549,-3.6682054,0.54056586,5.4650882,11.057795,16.906542,21.671864,26.347501,32.222646,38.467002,44.036398,48.318807,51.903141,55.739465,59.958674,64.193411,68.446449,71.156236,74.500827,77.640441,80.200279,82.218456,83.340885,84.484352,86.153469,87.309463,87.493349,86.965373,86.708072,86.211662,84.764419,82.714606,80.224208,78.288764,77.0525,75.135558,71.466352,66.024568,61.085506,57.277087,54.325662,51.424791,48.386143,45.617454,43.258172,40.676918,36.588429,31.445191,26.624259,22.77818,19.055171,14.109146,8.8867941,4.1679992,0.20138458,-4.2046539,-9.2201162,-14.588302,-19.902655,-24.319675,-28.171385,-32.62832,-37.522802,-42.044454,-44.748127,-47.265039,-50.955905,-54.784227,-58.40367,-61.024385,-63.37416,-66.516123,-70.130435,-73.828463,-78.381969,-83.418725,-88.600391,-93.581511,-97.177053,-100.93276,-105.04127,-109.38807,-114.34353,-118.8226,-122.42465,-125.92609,-129.92311,-134.37546,-138.08028,-141.29694,-144.29567,-147.71605,-151.39549,-154.74059,-157.23318,-159.37355,-162.32282,-165.74759,-168.82721,-171.00548,-172.35297,-173.27053,-174.44273,-176.17907,-175.87876,-174.36775,-173.89657,-174.1086,-173.99492,-173.58201,-172.84076,-172.42783,-172.4593,-171.57798,-169.8095,-167.44928,-165.89746,-164.32801,-161.95698,-159.18565,-155.80145,-152.40932,-149.24542,-145.87985,-141.64585,-136.80915,-132.35901,-129.75993,-125.8963,-121.54334,-116.62496,-112.77509,-109.15913,-104.89358,-99.445608,-94.475919,-90.358249,-86.623155,-82.271723,-77.458091,-72.422039,-68.070061,-64.962636,-61.900482,-57.073431,-52.747705,-49.962458,-47.77678,-44.141083,-39.080179,-33.799398,-29.841426,-26.991465,-23.598593,-19.019724,-14.628475,-11.008499,-8.9554663,-7.0472438,-3.5843897,0.73903904,5.0775929,9.0917634,13.22387,18.236083,23.463449,28.746264,33.139602,37.859837,43.726369,49.864425,55.67059,60.87841,66.791776,73.95394,78.967994,83.019648,87.512826,92.485239,98.626871,104.72528,110.00785,114.47675,119.08789,124.34025,130.01158,134.71178,138.50551,142.39577,146.30607,150.84894,154.99208,158.02626,161.29759,165.06991,169.08491,172.4422,174.8544,177.34063,180.29385,183.6425,186.00933,187.29305,188.93918,191.36765,194.22824,196.06498,197.09853,198.25419,200.08833,202.24379,204.07833,204.92111,205.71448,208.05985,209.39265,208.6219,207.32251,205.94373,205.16029,205.13847,204.40061,202.88472,201.34145,200.12439,199.25597,197.70133,195.43829,193.00084,191.20077,190.22433,188.35498,185.53867,182.69819,181.16879,179.5182,177.97072,174.33569,170.28659,167.78326,165.82145,163.46292,160.74539,157.38173,154.96365,152.81882,150.62219,147.99881,145.86431,144.43477,143.72575,142.68397,141.02899,140.09392,140.01084,139.69322,138.46069,136.76522,135.54895,135.09647,135.25842,135.23288,134.5538,133.64286,133.48552,133.54654,133.03026,131.65399,131.20943,132.37107,134.24758,135.16516,135.93941,137.75385,140.99897,144.39052,146.42264,146.68566,146.41971,146.29652,146.45288,145.93118,144.35727,142.40782,140.36389,139.00473,138.50884,137.27035,135.54165,134.48035,134.20163,133.86607,132.49958,131.33289,131.44487,131.5353,130.64005,129.25701,128.10447,127.81566,129.21245,131.65211,133.78685,135.78474,138.61159,142.9717,147.01893,150.5312,154.02624,158.23299,163.32447,168.19542,172.32464,176.46667,180.78036,185.49746,189.95103,193.36309,195.8095,198.44328,201.59353,204.0234,204.75385,205.02272,205.97607,206.24776,205.747,203.40368,200.50578,197.60547,194.70359,191.13558,186.39358,180.44723,174.99682,170.70136,165.27541,158.40615,150.71648,143.32769,136.36815,129.07913,121.19733,112.43721,102.86936,92.619891,82.645171,70.489202,58.21381,46.516153,34.90988,23.191433,10.754946,-2.1489435,-14.580574,-26.199394,-37.555622,-49.776611,-62.582393,-75.677518,-85.616325,-95.648438,-107.52116,-120.55259,-133.07672,-144.04223,-154.84086,-165.93601,-177.29124,-188.09153,-197.50424,-205.63162,-214.14275,-223.19932,-231.86024,-239.61589,-246.572,-252.83259,-258.4066,-262.28089,-264.61308,-266.26614,-267.09241,-268.92545,-270.81585,-271.99955,-273.67473,-275.84263,-278.28572,-280.01867,-280.83713,-281.89299,-283.30479,-284.58012,-286.08709,-286.75812,-287.88829,-290.06644,-293.08688,-296.21124,-298.61306,-301.34958,-305.727,-310.59832,-315.79613,-321.30421,-327.32513,-333.83282,-339.30047,-343.44738,-346.00562,-348.14772,-351.55106,-355.48691,-358.67139,-360.7449,-362.48277,-364.50228,-366.97929,-368.60084,-369.40689,-369.61966,-370.70334,-371.86133,-372.93618,-372.71033,-371.64468,-371.48976,-371.77693,-371.45446,-370.47604,-369.6077,-369.5343,-368.06098,-365.79102,-364.1712,-362.58137,-362.107,-362.10606,-362.55104,-361.80394,-360.30842,-359.33179,-359.47047,-358.81606,-357.43976,-356.38211,-355.54553,-355.11992,-354.39708,-353.09371,-351.15411,-349.88935,-349.77921,-349.98712,-348.46601,-345.98627,-343.95853,-342.26009,-340.18763,-337.02134,-332.57605,-327.96601,-324.51253,-320.6928,-315.54575,-309.38722,-303.82551,-298.89202,-293.01092,-285.60439,-279.62108,-274.60544,-269.58468,-263.68476,-256.46143,-249.27589,-243.34182,-237.94215,-232.17196,-225.43426,-218.4731,-213.38978,-209.24911,-204.85885,-199.73121,-193.69448,-187.10764,-181.32771,-176.33871,-170.23641,-163.09367,-155.96909,-149.97122,-143.74288,-136.4714,-129.22827,-122.52029,-115.73846,-108.86277,-101.4669,-93.651255,-85.959505,-78.982227,-73.494226,-67.639656,-59.713589,-51.659512,-44.581399,-39.09475,-34.127093,-29.807153,-26.678944,-24.279608,-22.853789,-21.193555,-19.395694,-17.482113,-15.754627,-15.076436,-14.307637,-13.042045,-12.467085,-12.283757,-13.136109,-14.388588,-14.726127,-14.674939,-15.24575,-15.965605,-16.142132,-15.628556,-15.593598,-16.410618,-17.264347,-16.855653,-15.724865,-14.702117,-14.620716,-15.127262,-14.490613,-12.757856,-10.827859,-8.4674163,-8.2552205,-8.5759031,-8.5166918,-8.4714782,-8.6535179,-8.8139775,-7.8994876,-6.71893,-6.2139658,-6.7226879,-7.0822332,-6.8596085,-5.7792696,-5.1154656,-4.8882705,-5.318868,-4.9195043,-3.2943309,-1.5677991,-0.76894202,-0.28041488,1.2964692,3.6016355,5.7693836,7.2522763,8.4815721,10.547781,14.336083,17.100034,18.111432,18.666592,20.570376,23.237963,25.047575,26.534872,27.560911,29.003987,31.508529,33.775363,35.341287,36.389819,37.995138,39.787261,41.315427,42.33566,43.569075,44.411162,45.455934,46.281625,46.499365,45.929913,45.234708,46.682888,48.269644,48.020073,47.057768,47.567888,48.671482,49.523476,49.580795,49.541284,50.367953,51.952087,53.842435,55.449278,56.392364,57.800063,60.803647,64.634471,67.684691,70.144129,73.147596,79.037232,83.872442,86.304595,87.476936,89.084109,92.627729,96.512771,99.786842,102.27117,105.01452,108.86565,113.10289,116.47824,119.286,122.61566,126.72314,130.78646,133.74874,135.32092,137.9533,142.78159,148.19341,151.79131,154.74196,157.62002,161.19182,165.31845,168.04844,170.6452,173.61998,177.33899,180.78098,183.1386,184.55718,187.82042,190.91471,193.38683,195.48573,195.91349,197.21726,198.68655,200.19974,201.37065,201.09845,200.66067,200.8097,201.16475,200.87766,200.30575,199.39523,198.43459,197.92435,197.1362,195.27008,193.71702,193.84751,194.04834,193.09385,192.02454,191.5825,191.91666,192.79063,192.44032,190.94143,189.9002,190.22693,190.16142,190.0096,189.45195,189.91055,190.73482,191.48861,192.46515,191.97981,192.67257,194.67244,196.70781,197.96764,198.63343,199.78667,201.81349,203.8007,205.60617,206.82919,207.55865,209.56263,212.20921,213.42865,214.19159,214.42297,216.0546,217.31617,218.0058,217.77812,217.60104,217.78527,218.68465,219.42688,218.48919,217.68463,217.67812,217.95874,217.33198,215.87145,214.32577,213.80243,213.28917,211.67451,209.14478,206.86025,205.50706,204.75345,202.91486,200.46999,197.58133,196.06583,194.85526,192.7826,189.89205,186.98944,184.73364,183.86811,182.31411,179.2804,176.28282,174.59787,173.06973,169.71059,165.50014,162.62579,160.87123,158.95344,155.314,150.78443,147.23746,145.79445,144.9349,141.02466,136.27967,133.71909,132.99989,132.50985,130.62524,127.6296,126.24849,125.96599,126.15498,125.50091,123.20707,122.46402,123.34146,124.65971,124.7796,123.42514,123.01927,124.69177,126.75439,127.06173,125.82819,124.78911,125.97631,128.35175,128.57492,127.93726,129.38458,132.61274,134.38321,134.45791,133.80817,133.76227,135.24854,136.59129,135.82531,133.80409,133.44252,135.87949,138.43077,139.18528,138.97128,139.53895,141.90148,144.37465,146.00786,146.51481,148.20789,151.42096,154.65011,156.65886,157.8233,159.32388,162.34616,165.91078,168.28256,168.78055,169.80196,172.39882,175.42986,176.66921,176.47654,175.63707,177.16772,178.74232,178.48989,176.14253,174.2668,174.28488,174.96528,173.44835,169.8937,166.77475,165.11611,163.42907,159.45652,154.1473,148.97135,145.53408,141.78826,136.6092,129.60157,122.45059,117.01004,112.74807,106.42632,98.233869,90.178435,84.163646,78.476905,71.163524,62.651186,53.8929,48.207078,43.370623,35.719783,26.131982,17.32219,9.7432842,1.7763819,-7.4822444,-16.830788,-25.739217,-34.049309,-42.404856,-51.430138,-61.206917,-70.109895,-78.134367,-86.515783,-96.243852,-105.0756,-112.15675,-118.90645,-125.62347,-133.45313,-141.43408,-148.02753,-153.38462,-158.51485,-164.18418,-170.59908,-175.59049,-179.35545,-183.9592,-188.78505,-193.68716,-197.53315,-199.91305,-202.13345,-205.95409,-208.96868,-211.0605,-211.69129,-212.48889,-213.99121,-215.06178,-215.89489,-217.36369,-218.45056,-219.80584,-221.25018,-222.3882,-222.07308,-223.00713,-223.69831,-225.38186,-225.2967,-223.69789,-222.7056,-222.82162,-222.9542,-222.88217,-221.72421,-220.30045,-219.51615,-218.91535,-218.50751,-216.73953,-214.63348,-213.75453,-212.75389,-211.9221,-209.01732,-206.57907,-204.71534,-203.9769,-201.89889,-198.15204,-194.7698,-192.13602,-190.02435,-187.70052,-183.72469,-179.89992,-176.99506,-174.23449,-170.7463,-166.9437,-163.14107,-159.61366,-156.30935,-153.44829,-149.79465,-145.97197,-142.80213,-139.81539,-136.95229,-132.98184,-129.20557,-125.91989,-124.15532,-120.46921,-115.357,-111.61049,-109.17504,-106.59686,-104.03217,-100.38701,-96.691301,-94.163736,-92.019826,-88.613912,-84.186159,-81.38765,-79.997107,-78.902406,-76.898693,-74.954629,-72.546383,-70.249526,-68.853439,-67.89943,-65.799118,-63.442119,-61.257913,-60.273194,-59.520405,-58.323843,-55.563372,-52.826725,-51.041316,-49.372062,-46.229943,-42.405765,-39.806962,-38.11362,-35.337426,-31.618078,-26.734021,-23.019508,-20.634344,-17.159184,-13.774588,-9.652457,-5.4337077,-1.8676653,1.6250945,5.8522079,10.177431,14.288969,18.105567,21.323674,25.545815,30.183713,34.332615,37.201469,41.588629,47.11824,51.930209,54.890933,58.069164,60.832018,63.8608,66.976402,70.168644,71.553677,72.903945,75.51358,77.933232,81.122548,82.153417,83.00477,84.793635,86.583796,87.815554,88.086085,87.49431,88.682692,89.759216,90.196215,90.285301,90.005225,90.871265,91.171169,91.704971,91.065978,91.109185,91.344228,91.756672,92.190746,91.121137,89.904222,89.945095,90.319903,90.359651,89.737146,87.797063,86.421981,86.702339,86.111613,84.015014,81.43839,79.906113,79.445119,77.591649,74.039691,70.518463,67.413295,64.522797,61.41949,57.782266,54.080287,49.862442,45.073544,41.046083,36.334499,30.967475,25.755199,20.60215,16.195311,10.859624,4.7258832,-2.1777102,-8.2184004,-14.793663,-21.3975,-28.0343,-35.341772,-40.743469,-46.429845,-53.748335,-61.440634,-68.03898,-73.693339,-79.946997,-87.201798,-94.874085,-100.90543,-105.28173,-110.61325,-117.23789,-124.67406,-131.30149,-136.50025,-142.00337,-147.77891,-152.76549,-157.25646,-160.68659,-164.46177,-169.31356,-173.49723,-177.08591,-178.38275,-180.85537,-184.39648,-187.48212,-188.45285,-188.2228,-189.86143,-190.34895,-190.61754,-188.84898,-187.37291,-187.48643,-188.97589,-189.38513,-189.70539,-190.52874,-191.78767,-193.41227,-196.68101,-197.3944,-197.2627,-198.94456,-202.43713,-205.15189,-205.82208,-206.36104,-207.36524,-211.90281,-215.24204,-217.21738,-218.39117,-220.1473,-224.23468,-227.32207,-229.03346,-229.80553,-231.75131,-234.74545,-236.77564,-237.8519,-237.39569,-237.71236,-239.69898,-241.26719,-240.85751,-239.11753,-238.25422,-238.48322,-238.00005,-235.87904,-232.17352,-228.93547,-227.59426,-226.30442,-222.9056,-218.14886,-214.54587,-211.84004,-209.18541,-204.31732,-198.63571,-193.88999,-190.56462,-186.90152,-181.39955,-174.34508,-167.98602,-163.20718,-159.36443,-153.82545,-144.6166,-137.07953,-132.81056,-128.83961,-123.08315,-115.64116,-108.62974,-105.26106,-101.67985,-96.331715,-90.05785,-84.599215,-80.46855,-77.373168,-73.032085,-67.360551,-62.772866,-60.18971,-57.871955,-54.034557,-49.656176,-45.727201,-43.441838,-42.592417,-40.095182,-36.369264,-34.13551,-34.408731,-36.086534,-34.995804,-31.04392,-28.945606,-28.511741,-28.115712,-26.726246,-23.719866,-21.033619,-20.205126,-19.366075,-16.857315,-12.919601,-9.9764525,-7.3959681,-4.3003245,0.31103745,4.9216299,9.020321,13.877792,16.947988,20.406018,23.359086,26.625714,29.335225,32.119931,35.450423,39.031662,41.781278,43.785461,44.818954,48.595386,50.756386,52.982411,54.006396,55.398228,57.313679,59.375095,61.065963,61.323452,62.419609,63.394266,65.302532,66.092575,66.082985,66.684122,66.86407,67.852921,68.034371,67.519139,66.498427,66.446482,66.662841,66.067998,64.602401,63.645617,63.062674,62.688683,61.953724,60.600456,58.902807,57.795797,57.281874,55.737148,53.137196,50.7839,49.015845,48.076271,46.740151,44.299701,42.179162,41.420936,40.607954,40.781554,40.452919,40.00293,39.747185,39.742307,39.621599,38.735452,38.068286,38.811649,40.879901,40.099159,38.399557,37.953592,38.47865,39.145752,39.102621,38.275147,38.350757,38.945272,39.627065,40.533171,40.24573,39.75669,40.49148,41.601948,42.876804,42.9788,42.78516,43.470193,44.551798,46.147667,45.730623,45.384141,46.166444,47.07225,47.582763,46.732664,46.223585,48.002269,49.231599,49.977643,50.697828,51.186734,51.975581,53.579025,55.105179,55.506763,56.061367,58.234537,60.671252,62.832337,64.105867,65.645387,68.162784,69.976765,72.539482,73.350769,74.552293,76.0882,79.250418,81.818782,83.399419,84.527973,86.633697,89.728384,91.613989,93.218207,94.584799,96.318219,98.341566,100.62362,101.61056,102.47702,104.00793,106.23895,108.21294,109.21543,109.88746,110.42767,112.40716,114.03864,114.50765,114.04956,114.10545,114.52938,115.83093,116.11888,116.36807,116.10555,115.26816,115.36109,113.71163,112.38052,110.55131,109.99993,108.72795,106.99835,104.32874,102.21451,101.30925,100.41458,98.480166,96.120901,94.333363,93.248006,91.835442,90.120269,88.543895,87.545825,87.568887,87.836024,86.448425,83.644328,81.71494,81.514792,80.606966,81.003127,80.342987,78.672565,78.292914,78.590067,77.029512,75.696644,74.245164,74.166145,73.614848,72.445709,71.269344,70.869323,71.981663,71.916849,70.621235,69.577388,68.800147,68.288955,68.26147,67.567863,65.889433,65.691045,65.430705,65.17439,63.613294,61.093023,59.044413,59.024484,59.156734,58.320739,57.982897,58.278356,58.597792,60.19782,60.953691,61.095746,61.655832,62.972025,65.566475,67.009203,67.953382,69.988457,72.223698,74.836781,76.371215,77.941511,78.662537,80.285648,82.439184,84.41066,86.12846,87.456148,89.224626,90.714846,91.710483,91.652449,92.011689,92.751337,93.445474,93.558039,92.577093,91.09548,91.487197,91.75197,90.753027,89.253347,88.209737,87.735861,87.618797,86.995357,85.065399,83.933266,83.286666,82.449813,80.710569,79.056571,77.579367,76.835266,76.883272,75.565891,72.604682,69.662057,68.609643,68.3387,66.617324,64.847117,62.454575,61.333791,60.328172,59.181703,56.928308,54.347605,54.232312,54.333176,53.53863,51.930435,49.881085,48.189186,46.299208,45.095792,43.248005,41.02838,39.366492,38.870118,37.666378,36.136959,35.441367,35.242577,34.640238,34.8242,33.171193,31.801928,32.268238,33.425846,33.943399,34.082296,34.40199,36.000717,37.73357,39.962917,41.34828,42.803951,44.193266,44.837899,46.289251,47.522586,48.259382,48.94718,50.182893,50.924544,50.38328,49.599706,48.089433,47.961793,47.114243,45.568441,44.794822,44.808098,44.679024,44.525046,43.117071,42.00481,41.076888,40.756019,40.311368,39.236194,37.703494,37.122737,37.576186,37.056605,35.934446,35.626185,34.950395,35.16345,35.810574,34.921416,34.40218,35.272358,35.747719,37.690646,37.243881,36.634188,37.293447,38.636254,39.666481,39.827087,39.797407,40.817817,42.11675,42.993924,43.587165,43.979026,44.879552,46.582094,47.705326,48.621027,48.588136,49.300911,50.597019,51.210574,50.749228,50.069031,49.330065,49.384612,49.43179,48.833932,47.168951,46.202122,45.717786,45.008923,43.464412,41.608699,39.893636,39.557689,39.60981,37.962336,34.684248,31.860148,30.282907,27.722301,24.392836,20.318655,17.524022,13.294755,9.1550712,2.7805663,-3.8506368,-10.227154,-16.429575,-21.766232,-28.438169,-36.701496,-44.038705,-50.767,-58.127205,-66.107303,-74.056003,-82.217162,-90.389119,-96.765666,-103.19957,-111.38958,-118.72638,-125.01757,-131.21019,-137.66632,-144.4903,-150.74862,-156.13129,-160.66926,-166.0946,-170.89932,-175.50826,-178.97562,-181.74752,-184.55536,-188.54677,-192.32666,-195.64458,-196.58521,-197.7904,-199.60911,-200.61462,-199.94758,-199.51217,-198.84185,-198.64097,-197.50581,-195.29476,-192.86527,-190.35784,-188.02125,-185.50461,-182.79265,-178.9833,-175.37287,-173.04159,-169.59211,-167.19683,-160.99312,-155.9508,-153.21641,-150.92411,-146.64303,-142.75464,-140.65667,-138.02577,-135.96995,-133.69922,-130.52451,-128.98819,-128.11376,-127.12708,-126.02681,-124.29592,-123.74533,-124.03858,-123.00743,-123.20256,-122.5492,-122.00325,-122.45658,-122.88055,-122.34679,-121.83704,-121.67341,-121.93113,-122.18945,-121.92441,-120.77966,-120.24781,-120.02791,-119.43797,-118.7484,-116.87082,-115.46538,-114.40587,-113.26997,-111.46618,-108.52047,-105.85364,-103.22714,-100.40739,-96.188543,-92.572717,-90.491321,-88.169582,-84.726251,-81.100433,-77.520961,-73.863212,-70.819857,-67.86842,-64.419339,-59.485187,-55.927406,-52.061935,-48.775087,-44.78981,-40.16498,-36.062299,-33.586286,-30.138365,-26.219527,-21.552797,-17.256407,-13.378577,-10.170197,-6.4158313,-1.5985759,3.777598,6.512905,9.7954387,13.116029,17.162851,20.592088,23.345596,25.298886,28.215992,30.836882,32.956027,34.260525,34.813843,35.680316,36.587254,36.724192,35.857706,35.202966,34.787612,36.273072,35.788262,34.703165,33.55585,33.043398,32.66857,32.205635,31.163094,29.522945,29.155781,28.625544,28.156864,27.266648,26.450468,25.299596,25.885331,26.96077,26.575708,26.671367,27.140513,30.01738,29.069917,27.616323,27.900906,27.973262,28.259815,28.896321,28.819898,28.776034,28.808399,29.644334,30.697334,30.495741,30.308589,30.858006,31.86645,31.838592,31.739058,31.894086,31.222597,31.820791,32.598029,32.637145,32.611239,32.110498,32.974259,33.675557,34.013346,33.319464,33.812608,34.421717,34.988214,35.005294,34.539253,34.266356,35.300103,35.25568,35.356687,34.39836,34.093432,34.871282,34.921257,34.961081,34.133834,33.683039,33.732139,34.180969,33.453824,32.504842,31.50792,31.561873,31.263459,30.799466,29.297245,28.433424,28.271634,27.67813,26.669317,25.181878,23.644043,22.709385,21.067273,19.535139,19.083937,18.166665,18.039506,18.110101,17.878447,17.716498,17.89894,18.424966,19.629396,19.074937,19.429478,19.4524,20.316787,21.18689,21.717759,21.655499,21.872495,21.954064,22.361739,23.771338,23.861681,23.533672,23.284752,23.637806,23.354156,22.361039,21.347183,20.480616,20.370714,19.944862,18.27705,17.166001,16.652685,16.389168,16.098017,14.403523,13.368449,11.825532,11.793963,10.714291,9.0016549,7.0949303,6.1653538,4.9332732,3.129886,0.75532934,-1.4282031,-3.9491344,-5.4648814,-7.4269602,-9.5519219,-12.893712,-14.62951,-16.234743,-18.352273,-20.588504,-22.971951,-25.285925,-26.677273,-28.811067,-30.228962,-31.426239,-33.553468,-35.669811,-36.670313,-38.746584,-40.478385,-42.557006,-42.989564,-44.003908,-45.647127,-47.373524,-47.916072,-48.284441,-48.444007,-47.734738,-48.243456,-48.304892,-47.353238,-46.610279,-46.02549,-45.293915,-44.392496,-42.423942,-39.715199,-38.537239,-36.309384,-33.998518,-30.639443,-27.453656,-24.482828,-21.089789,-17.33549,-12.857165,-8.370605,-3.7454211,0.59071374,5.5459697,10.972809,17.159296,22.537441,27.605279,32.798775,39.258057,45.401549,51.356692,56.347497,62.490432,68.772877,76.376481,84.460739,90.65489,97.883696,105.37347,113.03355,120.45347,127.21206,134.46582,142.50856,149.89718,156.51843,163.0742,168.3799,173.92694,180.965,186.8262,191.03085,196.26942,201.59432,207.20313,210.23425,212.93309,215.33464,218.207,219.93535,220.89583,220.88074,219.72473,219.65683,218.27563,215.94168,212.91904,208.93336,205.59662,201.90566,196.92074,191.52713,185.35618,179.22812,172.56638,165.83776,157.76098,149.22054,140.92751,132.74886,123.37926,112.51722,101.9843,92.225768,81.379301,70.504098,58.466999,46.720427,35.501999,24.178032,13.168781,1.1710322,-10.697952,-20.595633,-31.35461,-41.818466,-54.05456,-67.438136,-78.788637,-89.864937,-101.71629,-113.97373,-126.23395,-137.32877,-147.43808,-158.12767,-168.41356,-178.59471,-187.41198,-195.53145,-203.03484,-212.55368,-220.85502,-228.28887,-233.59971,-238.64629,-244.36799,-248.85828,-251.71679,-253.80356,-255.78642,-256.86657,-257.59162,-257.33647,-255.92364,-253.64341,-251.60402,-248.2131,-243.92575,-239.85883,-234.85992,-229.56207,-224.31501,-218.24997,-211.07315,-204.18836,-197.66512,-190.05307,-181.8826,-172.79491,-164.12966,-155.27026,-146.20654,-136.26757,-126.18216,-115.71387,-106.67747,-97.606136,-87.496547,-76.987236,-67.164648,-57.452716,-48.379847,-39.956273,-28.274631,-19.08652,-11.23749,-3.2544417,6.3886087,16.388147,24.375629,31.565024,39.585743,47.783533,55.945996,62.647163,68.195443,72.256126,76.665927,80.772726,84.063272,87.75705,89.885272,93.215517,96.080267,99.197975,101.16,103.2929,106.67703,109.15559,111.79243,114.20321,115.48003,117.24644,120.33309,122.98852,124.85867,126.31676,128.20429,131.08211,133.89734,135.85976,138.5386,141.4758,144.45147,148.54237,151.93212,155.32451,159.87948,165.25579,170.59043,175.18633,179.69878,185.11158,189.83479,195.67745,199.41602,203.58527,208.2225,212.75774,217.98379,221.60159,225.3853,229.31804,234.33413,237.78975,241.12515,242.66704,244.05181,245.45064,246.46235,246.25037,244.88807,243.65873,243.90386,242.19427,239.266,235.84397,232.14466,228.16668,223.42193,218.03983,211.28232,203.22527,196.13341,188.13031,178.71782,168.38157,157.11873,145.28909,134.23028,121.14922,107.13902,92.938331,79.428163,65.435819,51.969414,38.114478,23.276063,8.789139,-6.0204303,-21.116689,-37.025747,-52.499764,-67.858954,-82.986229,-98.302838,-114.37849,-128.44439,-142.8339,-156.72419,-169.64351,-183.19711,-196.31617,-206.46815,-219.75016,-230.54954,-241.30025,-251.55355,-261.13051,-269.69051,-277.40738,-285.41075,-292.83984,-300.14481,-306.97122,-313.18189,-318.94446,-323.5695,-327.45561,-329.55585,-330.56334,-333.10849,-334.47647,-334.59304,-333.89063,-333.28933,-331.88819,-330.96283,-329.07177,-325.566,-322.64633,-320.87382,-317.53388,-313.75063,-309.42778,-305.63305,-302.17698,-298.39434,-293.70307,-289.31455,-284.34677,-280.77852,-277.02078,-272.81517,-267.93383,-263.88946,-259.78688,-256.47115,-252.26355,-248.18832,-244.17467,-240.75279,-238.2902,-233.96583,-228.77607,-225.0076,-221.0772,-218.15711,-213.67538,-209.22829,-205.05656,-201.14301,-197.31978,-193.15841,-189.35248,-185.4929,-182.31273,-179.09377,-175.1665,-171.09293,-166.20763,-162.76177,-159.30395,-154.32508,-149.73518,-145.26407,-141.09909,-136.83512,-132.98444,-127.7654,-122.93981,-118.93399,-115.63307,-110.8707,-106.04177,-101.65501,-97.213592,-93.031664,-89.025404,-83.829231,-79.058479,-74.316647,-69.4615,-64.123283,-58.024687,-51.359177,-46.76207,-43.478906,-38.731084,-33.592906,-28.39199,-23.685258,-19.971386,-15.436973,-11.195745,-5.3896069,-1.1403624,3.8197848,7.6129714,12.601799,18.350129,22.197953,25.789282,30.329246,34.558383,39.397195,43.107156,47.132537,50.768192,54.344877,59.116179,61.884791,65.750398,68.618356,72.702158,76.84129,80.500654,83.86679,87.49493,91.68638,95.247553,98.847513,101.60308,106.73904,110.94256,115.36581,119.02302,121.87144,125.92256,129.73901,133.30375,137.20023,139.68132,141.7092,145.39117,149.202,152.34634,156.03322,158.78551,162.63827,167.23101,171.03584,174.07473,178.54353,182.61353,187.52538,192.03507,195.34571,200.07299,204.2811,208.81147,213.5949,217.41037,223.09752,227.462,231.57123,235.92962,239.31896,243.73627,247.99276,252.40576,256.33714,259.70005,263.15014,266.15629,270.1424,273.7916,275.92506,278.24213,281.28407,284.95193,286.56904,288.30733,290.8028,292.91026,294.32869,296.52683,297.47991,298.19809,299.68179,301.24269,302.16206,302.32474,303.47119,303.45424,304.51207,305.98123,305.62048,306.04596,306.7542,307.85183,308.92971,309.06871,309.31942,309.9085,311.49746,311.47805,312.12014,312.66289,313.28522,314.58354,315.32119,315.4336,316.16747,316.16568,317.84186,317.2946,318.15003,316.73022,316.72379,316.75298,315.38664,314.13488,311.88521,309.10055,306.87229,303.47215,299.33691,294.06143,289.18976,284.49637,278.70362,271.70364,263.16828,255.44467,247.17654,238.48265,228.41007,218.08338,206.91569,196.02924,185.26007,172.91984,160.34732,146.27528,132.33353,118.29689,103.81124,88.064053,72.513359,57.275758,41.477969,24.304313,7.6351562,-7.7314287,-23.991218,-40.123311,-56.067456,-73.26689,-88.493089,-103.23155,-117.92935,-132.93469,-147.52116,-161.58921,-174.19767,-187.63467,-200.03464,-211.67644,-224.38431,-233.97943,-243.74253,-253.71233,-262.54427,-270.88785,-278.21915,-284.22827,-290.78654,-296.25222,-301.56935,-305.30356,-308.31136,-310.9255,-313.66147,-315.45007,-315.50272,-315.18391,-316.12455,-315.09417,-314.42296,-312.35285,-309.97225,-307.40021,-304.71769,-301.92067,-298.58525,-294.04561,-289.77827,-286.24487,-282.25118,-277.01139,-272.58895,-268.35719,-263.70412,-260.08757,-254.7793,-249.65488,-245.17796,-241.41871,-237.36136,-232.09927,-228.1178,-224.13615,-219.32703,-216.17485,-211.23325,-207.15133,-202.39683,-198.69516,-194.58175,-190.52407,-185.23478,-181.31945,-176.95757,-173.57091,-167.95517,-162.94095,-157.19498,-152.98331,-147.50761,-141.6659,-135.99275,-130.66251,-125.67291,-119.10349,-113.05487,-106.77185,-100.86673,-95.535327,-90.14503,-85.261315,-79.411223,-75.128916,-70.363713,-65.934674,-61.505401,-56.482854,-51.788273,-47.934755,-44.300538,-40.016909,-35.567224,-31.226277,-27.200969,-24.313853,-21.221356,-16.977659,-13.752386,-11.171189,-8.1515144,-5.5340507,-2.3693777,0.33143618,2.3909196,4.8866067,6.5005842,9.8614813,12.030599,13.671657,14.569633,17.204111,20.140145,21.382465,23.669289,25.526983,27.847456,29.846238,33.083529,35.021756,36.743244,40.315106,43.316858,45.529827,48.335821,49.911194,51.515604,54.116651,56.242968,57.663102,59.000549,61.078223,63.011082,65.195655,65.751032,67.066925,66.85335,68.34579,70.082227,71.037954,72.055504,73.627101,75.725952,77.255455,79.035427,80.515833,81.307211,85.918358,88.416705,89.313957,91.325046,93.401681,94.647211,96.872069,98.659456,99.797927,100.35307,102.18319,103.74947,103.42574,104.16845,104.50106,104.55583,105.98193,105.85038,105.21767,105.638,105.79591,106.12753,105.76561,105.41178,105.07822,105.26155,104.66448,107.28695,107.03266,107.45884,107.83583,108.58282,108.87037,108.67017,109.17341,110.14641,111.4865,111.88131,111.3818,110.67278,111.44785,112.06645,112.88304,113.54704,114.00567,115.84594,116.57544,117.04855,118.11428,120.36818,122.35241,125.83151,128.39581,131.41901,133.93519,138.03639,141.54022,146.05353,147.21475,151.16859,155.19287,158.73542,162.49903,165.51245,168.04777,171.61777,174.99053,177.47928,179.98384,181.86591,184.44928,186.47093,188.90527,189.76396,193.2146,193.89276,196.42986,199.07026,199.71196,202.13112,203.00773,205.48634,207.40348,208.5148,209.65266,210.47488,210.65529,211.94701,211.04169,210.47718,210.75093,210.19377,209.87264,208.20938,206.76535,205.60041,204.07068,202.37909,200.21813,197.91502,197.89759,196.58145,195.38338,194.74002,192.80541,193.53878,192.71197,194.13891,193.74312,194.52247,197.14709,196.50353,199.01658,200.42165,201.46357,203.39862,206.60068,209.15768,211.34983,213.33048,217.17675,220.54843,223.7194,227.68831,230.64026,235.19202,239.09782,243.31411,247.56283,250.78129,254.62218,258.09431,262.56944,265.06213,267.35032,269.54799,271.67546,274.13607,271.98972,270.54244,269.05978,267.52948,263.08708,258.02821,251.79525,244.1304,234.75998,225.09311,213.99935,202.02771,188.45497,174.89672,159.54427,143.19747,124.28386,105.39804,88.097901,69.755228,50.818652,29.626703,8.0458297,-12.689233,-35.179466,-58.126776,-81.358012,-105.65339,-129.33994,-152.5475,-178.76945,-202.9406,-228.30074,-251.11099,-275.67277,-298.90684,-322.84697,-345.64203,-367.50164,-388.33314,-409.29672,-429.90781,-449.28327,-467.06112,-484.14811,-501.25427,-516.34658,-532.3221,-544.93687,-558.56243,-570.28352,-581.81192,-592.76124,-600.36411,-608.69486,-615.22818,-621.12878,-626.49221,-630.30547,-632.23322,-634.70901,-636.00962,-636.44989,-635.67356,-633.85014,-633.23662,-629.96405,-628.26245,-624.36666,-620.2567,-616.32958,-612.27129,-608.05187,-603.37954,-597.40508,-591.87383,-587.33801,-581.32747,-576.28148,-569.36639,-564.29094,-558.47083,-552.43736,-547.5653,-540.16338,-535.57016,-530.21444,-524.32357,-518.697,-513.00425,-507.17081,-501.85181,-496.47344,-491.28265,-485.13845,-479.39585,-474.70924,-469.47687,-463.4494,-457.66425,-452.04898,-446.9475,-441.10959,-435.82296,-428.76731,-423.91626,-417.89287,-412.66147,-405.94048,-399.7348,-392.55987,-386.02171,-380.03895,-373.1236,-367.52455,-359.91712,-354.12643,-348.00907,-341.21947,-333.23647,-326.99576,-319.91528,-312.88857,-305.43133,-297.59286,-288.68256,-280.97922,-272.0799,-262.19673,-254.76375,-246.4671,-238.7487,-229.94159,-222.27845,-213.48808,-204.6862,-197.25772,-189.85351,-180.77653,-172.45252,-163.4917,-155.61407,-146.68608,-137.6925,-129.4215,-119.85025,-111.65494,-103.09645,-93.929604,-84.945965,-76.162242,-67.464928,-58.72987,-50.431615,-41.753885,-32.577747,-24.597481,-16.614365,-8.6500471,0.018955711,9.1306139,16.653773,25.65311,33.827221,41.834537,52.126666,59.217955,67.628951,75.692304,85.204849,93.191202,101.3379,109.01804,116.90072,124.84711,132.70929,140.39492,145.04633,153.39566,159.54554,166.54745,172.9867,178.90298,185.22805,191.70694,198.12681,203.01098,208.9941,215.18197,221.54968,226.49209,231.7299,236.26244,239.54938,244.67529,247.92945,252.38156,255.09013,257.43442,260.38768,263.25497,265.381,267.1284,268.69551,270.95851,272.63574,274.08454,274.81443,276.29124,276.29041,277.65305,278.16117,278.4992,278.61317,279.0551,279.02446,278.6846,277.8723,277.91277,276.4058,277.66524,276.36958,275.31728,274.88843,273.46995,273.90009,272.92533,272.38435,271.72813,270.95636,271.29278,271.35377,270.37948,269.95046,270.44056,270.50987,270.71145,271.0468,271.06026,271.03099,272.32899,273.8822,272.84792,273.32231,274.51803,275.2994,276.41011,276.89327,277.24629,279.43799,281.54187,282.56564,284.527,282.67924,283.89062,283.325,283.17155,282.68819,281.47456,281.22576,281.00791,280.58884,280.45428,278.90547,280.21474,280.42594,280.16522,281.17425,280.05379,280.68008,281.45191,282.34949,283.01085,282.60658,283.88341,285.4061,285.522,287.41923,287.24179,288.18257,288.85974,290.52644,291.18167,291.07755,291.35748,292.0624,292.60606,291.98536,294.09591,293.11939,293.95648,294.77835,294.74895,293.88663,294.40687,294.49184,294.20881,293.56811,293.1175,289.47434,287.69582,285.64506,282.63847,279.24024,274.92896,270.60439,266.13396,260.0327,253.04048,246.59284,239.68668,232.2614,223.38594,214.48794,205.34496,195.92446,186.20728,175.34732,164.47882,152.73485,142.0161,130.58018,117.139,103.53015,90.294317,77.808699,65.147231,52.983369,39.994869,27.032756,15.206389,3.4745947,-8.9965052,-21.4971,-34.422593,-44.6178,-55.691561,-66.619099,-77.343643,-88.007323,-95.280007,-104.76389,-113.76976,-121.84321,-129.86691,-136.75714,-142.6881,-148.56033,-155.20834,-160.12812,-164.22808,-167.44421,-172.06019,-174.16383,-174.61668,-176.19705,-176.6475,-177.48802,-177.87114,-176.76357,-177.44405,-176.98087,-177.16011,-178.52898,-177.07875,-176.24051,-175.369,-173.01513,-172.92569,-171.19457,-169.06564,-166.15576,-163.52624,-161.49474,-158.44923,-155.64145,-152.36062,-148.27997,-146.06419,-142.23836,-138.46142,-134.21395,-131.10329,-127.13038,-123.46213,-119.28461,-114.74932,-110.50124,-106.5701,-102.94937,-97.802794,-92.07482,-87.115277,-82.00218,-76.115407,-69.783475,-61.929924,-54.907248,-46.907048,-40.260494,-31.121662,-22.283196,-14.063566,-5.9722122,3.4213733,11.494277,21.542499,30.498398,39.78245,47.046382,57.389044,64.995056,73.423943,79.893052,85.209823,91.292884,96.568638,100.61831,103.21383,105.55897,105.75836,106.01986,104.90465,101.87974,98.394821,91.850498,86.542824,78.627364,69.342564,57.720627,45.952149,32.647515,18.035244,3.2126086,-11.964942,-29.83497,-45.949478,-64.371803,-84.127801,-104.16744,-124.70268,-144.7732,-165.967,-187.10475,-208.54527,-228.01764,-247.8608,-267.9432,-286.69947,-306.19583,-324.19365,-342.92133,-359.42995,-376.04898,-391.65223,-406.48855,-419.59481,-430.7971,-441.95312,-452.34523,-460.73201,-467.78074,-473.5811,-478.27465,-481.85317,-486.13233,-487.3427,-486.81915,-486.32178,-483.91821,-481.24414,-475.94977,-470.51585,-464.49062,-456.97876,-449.32445,-440.64271,-430.06272,-420.23985,-408.97863,-396.92456,-384.02844,-370.47402,-357.53307,-343.92503,-329.77721,-315.25474,-300.22676,-286.15321,-271.62651,-258.12923,-243.154,-229.19786,-215.68904,-202.86624,-191.21296,-178.68769,-166.62625,-155.39707,-143.44057,-134.69884,-123.24757,-114.85698,-107.16554,-100.52565,-93.956007,-87.047677,-82.125882,-76.587718,-72.550275,-68.386208,-65.512064,-60.982639,-57.822223,-54.476228,-51.259018,-47.115054,-43.702334,-39.169691,-36.651877,-32.872794,-29.621422,-24.853598,-20.563781,-16.971975,-12.591949,-8.0121478,-3.0946833,1.6168441,6.1257751,10.189384,15.454995,21.00445,25.976571,30.95034,35.03465,40.953632,46.144328,50.888721,55.741394,59.922952,64.854918,69.629191,74.430883,78.460165,81.68413,86.787585,89.757653,93.841539,96.865827,100.06723,103.35129,107.36188,111.01552,113.89144,117.30391,120.40346,123.51753,126.73241,129.01626,131.62207,134.6903,137.4613,140.56521,143.62648,144.86766,148.94408,151.8446,154.10619,156.10625,158.38811,159.85287,162.98002,164.80385,166.33351,168.30094,168.94099,172.00579,172.26773,174.27437,173.46417,174.51149,174.82583,174.93046,174.55428,172.96189,172.87444,172.31209,171.93103,170.43723,169.78279,168.38412,167.99049,168.7349,167.30846,166.54138,166.22864,165.56386,165.42733,165.11041,163.29876,163.58567,162.51538,162.88509,162.24984,161.6206,161.52249,162.3157,162.72834,162.03545,159.4412,160.25997,157.64976,157.92873,156.51257,155.81307,154.62118,154.09746,154.27561,152.52388,151.91514,150.34009,151.62352,150.6026,151.052,150.17233,149.99109,150.39652,150.68744,150.00628,149.87755,149.55357,149.92478,150.80807,150.06767,150.63205,149.77725,150.16134,150.48871,150.5968,149.95418,150.04686,150.16019,150.5203,150.91926,150.14567,150.10284,151.14393,150.95489,151.48917,150.07754,150.9398,150.54492,150.41617,150.08105,149.30992,149.13817,147.90899,148.50479,147.61459,146.1935,145.687,145.32313,144.61774,143.75771,142.28348,140.86523,140.1501,138.63346,138.43239,136.4286,134.20464,133.73165,132.45386,131.0448,128.46821,127.51287,125.43801,123.76546,122.35916,119.70971,117.31673,115.36542,113.70588,111.0243,108.70975,105.83667,104.13982,101.29368,99.738639,95.647718,93.582339,90.905388,88.878634,86.721083,84.414729,81.607431,79.519219,77.591375,75.592475,73.683725,70.547896,69.760339,67.701837,64.357138,62.254066,59.27212,56.577634,54.207614,52.296925,48.953179,46.113046,43.468703,42.000685,39.383073,36.307773,33.657618,31.790143,29.771646,27.122473,25.518346,22.100302,20.329677,18.631625,16.011041,13.990269,10.636364,8.574911,6.5305285,4.0555596,2.2776143,-1.1161212,-2.3286471,-4.995919,-6.4978841,-9.2550248,-11.5772,-12.657712,-15.41144,-15.317122,-17.171918,-20.172865,-21.220794,-22.580219,-24.312038,-25.260955,-28.509143,-29.122863,-30.978912,-31.772616,-34.031633,-35.503064,-38.144108,-38.830777,-41.00194,-43.974507,-46.666274,-49.063701,-52.15582,-54.635106,-58.382428,-61.445422,-65.909203,-68.366142,-72.004763,-76.100513,-80.298667,-85.173194,-87.692245,-92.502368,-97.086569,-102.09578,-106.01246,-110.73308,-113.82697,-118.86724,-122.47416,-126.18828,-130.16586,-132.31899,-136.56924,-140.10235,-142.73396,-146.1378,-147.74632,-150.84442,-153.39104,-156.15858,-159.30405,-157.49675,-161.05998,-162.77876,-164.74662,-165.53062,-167.10223,-168.27455,-169.75894,-171.82655,-172.3317,-173.1047,-174.41287,-174.67179,-175.97018,-175.32588,-176.34144,-175.4856,-176.89153,-176.06667,-175.87305,-175.01886,-173.42297,-173.8455,-172.27261,-171.12068,-169.79731,-165.50492,-164.26876,-162.54514,-159.26227,-156.77387,-153.21872,-152.191,-148.48373,-145.80255,-143.08874,-140.97319,-139.52108,-136.12776,-132.91319,-129.62519,-126.19848,-123.34171,-119.47244,-116.54054,-111.73817,-108.67276,-105.19046,-101.33028,-97.091951,-92.045152,-87.894048,-83.150831,-78.756435,-73.965938,-68.12697,-63.394633,-58.084121,-53.365622,-46.916948,-39.065258,-35.064281,-29.867072,-23.639497,-18.393784,-11.855031,-6.0503774,-1.2235326,4.5850139,9.48384,16.330215,21.074804,26.462626,30.448276,35.195018,40.547012,44.605483,48.820345,52.207779,54.854958,60.046842,62.773024,66.316975,68.82587,72.453599,75.266328,79.203294,80.955043,84.209009,86.308437,89.171382,92.648656,96.099636,98.702884,100.5601,104.21264,106.92083,108.94717,110.6146,113.06997,115.24975,117.77623,119.74231,121.40779,123.94982,126.81174,129.02904,131.33062,133.30753,135.87604,140.77175,140.20138,143.51294,145.20529,147.87996,150.14947,153.0576,155.5426,156.74896,159.77668,163.07012,166.31146,168.74777,172.11029,174.96775,178.68906,183.86603,186.1663,190.25613,193.27853,197.65645,203.16574,206.27181,210.79934,215.66712,221.19843,227.98358,230.10074,235.17391,239.46694,243.11361,248.9109,250.91667,255.26528,257.93506,261.22136,264.66146,268.14794,271.51704,274.10279,277.62635,280.44143,283.55942,284.81816,287.33873,289.7357,292.21241,293.77963,295.97952,296.38364,298.51655,300.52557,301.65602,301.81648,302.28412,303.74693,305.01512,304.80137,305.60964,306.4828,305.50369,304.86819,304.68992,302.36545,301.40527,299.85438,298.67981,296.58048,294.04204,290.92052,289.46554,285.92744,283.56363,279.68206,276.15972,273.25894,269.77157,266.11148,261.85832,258.09277,255.80674,253.04886,250.64514,247.95324,246.01511,244.46746,244.01357,241.93115,242.41759,240.80867,241.78106,242.89523,242.45348,241.87899,242.12225,243.17375,243.42492,242.50055,242.53633,242.18537,241.29913,241.23162,240.37752,239.09047,237.4165,235.462,233.13781,230.30648,226.01384,222.93006,217.79337,214.30856,208.18404,201.31,193.9853,185.27509,177.6791,166.72955,155.1708,143.21531,130.46942,116.64368,101.60807,85.967274,66.574011,50.340088,30.32697,10.980759,-10.709174,-31.971762,-52.130278,-72.576732,-95.828236,-118.19705,-141.27853,-163.81791,-187.01082,-209.93465,-233.40308,-257.33467,-280.02804,-301.68572,-324.44388,-345.6997,-367.14018,-387.4435,-406.67967,-424.97317,-444.41228,-460.97694,-477.98846,-492.75145,-507.16048,-520.9883,-533.02647,-544.24757,-553.7918,-563.89434,-571.48172,-580.9282,-585.42551,-590.97668,-594.85337,-598.32437,-601.28101,-600.90541,-601.72249,-600.61812,-598.75179,-596.65465,-593.69521,-589.02567,-583.87176,-579.03879,-573.71341,-567.4927,-560.38752,-553.21761,-546.17232,-539.51375,-530.80354,-523.42887,-513.88391,-506.97526,-498.65295,-490.74037,-481.5495,-473.96934,-465.30786,-457.83047,-449.45879,-441.08949,-432.85253,-425.341,-418.28387,-411.00159,-403.10721,-396.03866,-388.75205,-383.09685,-376.43322,-369.24247,-363.43141,-356.63137,-351.88999,-346.44053,-341.2636,-334.88608,-329.86494,-325.25837,-319.95712,-314.25392,-307.95551,-302.87612,-297.78097,-292.62393,-286.56485,-280.3921,-274.01538,-268.19645,-262.81107,-255.60276,-250.41096,-243.12644,-238.49232,-232.41799,-225.8019,-220.56135,-214.38406,-209.57111,-203.83109,-198.75993,-193.42622,-188.83482,-184.63519,-179.59406,-175.18916,-169.34587,-165.21566,-161.04929,-156.93448,-153.85706,-150.88549,-147.114,-144.82318,-141.89513,-139.02555,-135.74146,-132.71208,-130.65642,-127.451,-124.65076,-121.12619,-117.24255,-114.63932,-111.30659,-107.87123,-103.68002,-100.35787,-96.675871,-93.173881,-88.815852,-84.153602,-79.355087,-76.020396,-71.49984,-67.819187,-63.282895,-58.264489,-54.316083,-49.739975,-44.882385,-39.849647,-35.288389,-30.626779,-25.569411,-21.800572,-15.077328,-11.124395,-6.0650506,-1.5432988,3.2835017,8.9914739,12.814417,16.866357,22.146203,25.507138,31.334343,35.289161,39.297191,43.358122,47.518456,52.514655,55.466608,60.258799,63.001473,66.6082,70.24676,74.813233,76.622716,79.346014,82.183034,85.810893,87.808188,90.066816,92.1667,94.064251,97.251867,98.37263,100.56393,101.47041,103.53036,104.94434,106.72566,106.25914,107.95523,109.3836,110.77029,112.02895,113.49092,113.91791,115.4367,116.68819,118.53228,119.08295,121.04495,123.14985,124.13212,125.73478,125.68581,126.68608,126.70663,128.19536,129.1668,128.7242,130.41558,129.61302,131.37617,132.39604,132.24865,132.99195,132.89687,134.01969,135.19229,135.24916,136.02334,135.73655,137.54656,137.12834,136.80838,137.15763,136.79593,138.35164,137.93945,139.27225,138.0922,138.85547,139.37647,139.71719,139.99694,139.1422,139.1997,139.45546,140.36992,139.41115,139.25762,138.97855,138.06166,138.31204,137.51879,135.89624,134.89672,135.20554,133.45738,133.45853,131.28981,130.60356,129.63038,128.51239,127.53431,124.67178,123.98706,121.76486,121.81186,119.42984,117.51777,115.70599,114.64522,114.056,110.78323,110.59537,106.54561,106.98638,104.16992,103.13265,100.69049,98.213569,97.961989,94.508852,93.654128,90.899617,88.429058,86.480209,84.420953,82.932109,78.612246,77.080822,74.651061,72.971594,70.032126,67.26729,64.405004,62.218764,59.814244,57.59754,54.016148,51.19334,49.185215,45.114313,43.031513,39.407897,35.755615,32.926698,30.741211,27.517626,25.609127,22.095533,19.779733,19.151097,16.401388,13.717103,12.351339,10.467676,9.9009519,8.9112435,6.6361836,4.2730792,1.4271589,0.61795297,-2.0322196,-3.4457887,-6.8866317,-7.5634608,-9.5101213,-11.274514,-12.748456,-15.995444,-16.192283,-17.654775,-19.72326,-21.103209,-23.541909,-24.794436,-25.251181,-26.974363,-28.639139,-29.907223,-30.725917,-32.501096,-32.79874,-35.032963,-36.625447,-38.352228,-38.813246,-39.834928,-41.908859,-42.85258,-43.684835,-44.234069,-44.357665,-46.858395,-45.693839,-47.069957,-46.300674,-47.745354,-48.148926,-49.602587,-51.611796,-50.04403,-52.073187,-53.319665,-54.392833,-54.684872,-56.031072,-55.285639,-58.012413,-57.525347,-59.399845,-59.081258,-59.311982,-60.487068,-60.494373,-60.882551,-59.964558,-60.011182,-60.358377,-59.878467,-59.555576,-58.344329,-58.947511,-58.083736,-58.718291,-56.682662,-55.826748,-54.696542,-52.173257,-52.245959,-49.653519,-48.479333,-44.063395,-43.711167,-41.386044,-39.109867,-36.242964,-30.874007,-30.493452,-25.961228,-23.85707,-20.498022,-16.448103,-15.074251,-11.576531,-8.9973482,-5.4441485,-1.476108,0.24544496,2.8819274,5.6484348,7.1443286,12.211435,12.493935,14.83478,17.646246,20.173343,23.752996,25.561201,27.660829,30.278008,34.040708,35.327466,38.76851,40.376164,42.930746,46.592618,49.436679,50.910463,54.266676,56.13,58.7832,63.956377,66.089977,67.461351,71.299336,73.741856,77.027979,79.678109,80.433256,83.367973,85.212586,87.954346,89.297032,90.695584,93.290394,94.192379,97.219661,98.154973,99.599275,100.70212,102.77445,104.67508,105.7321,107.00696,108.21047,111.83799,112.93017,115.65664,115.82584,118.44209,121.30414,123.82083,127.07584,129.37298,131.20129,134.46489,137.3695,141.16917,142.4118,145.73383,150.27243,152.38075,156.57269,158.55612,161.84648,166.04309,169.35067,172.83669,175.734,178.80441,182.0639,186.20256,189.21741,191.46471,194.32464,198.14569,200.48542,204.47718,207.74312,208.96048,212.54732,215.10396,217.36682,220.5707,222.70632,224.56476,228.32092,231.35382,231.25907,234.57592,236.32828,240.35196,241.08255,244.93215,246.35342,249.51537,253.33176,253.24497,255.09684,257.21116,259.076,262.70505,264.26822,266.83956,269.3636,272.10925,275.76679,277.45434,280.51567,282.86232,286.1257,290.85363,292.3547,297.13208,299.31006,303.4042,307.94667,310.39448,313.89022,316.86872,320.66245,323.45198,328.11165,328.14332,332.03894,335.25703,337.15407,340.64792,341.08241,343.82346,344.60554,348.02168,345.76873,346.3843,345.06684,343.73881,341.45134,338.81353,334.43768,329.8902,324.60275,318.97468,311.12708,302.93114,292.9776,282.34825,273.02952,259.71531,247.01346,232.42156,217.44517,203.46152,185.26844,167.76075,148.29029,131.4344,111.76579,91.400289,69.818192,49.843314,29.652629,9.2850886,-12.009463,-34.896151,-55.708341,-76.695744,-96.141595,-118.33343,-140.41911,-160.71204,-179.91856,-199.8262,-219.5826,-239.35747,-258.49089,-274.97369,-292.32401,-308.79843,-326.21572,-341.8504,-356.04941,-368.23833,-381.81825,-394.46118,-405.13341,-414.92417,-422.70867,-430.3982,-440.34429,-447.68629,-452.15537,-457.41213,-461.6368,-466.57919,-470.51118,-472.61915,-471.27015,-473.18024,-475.03895,-474.67686,-473.62697,-471.48653,-471.52423,-469.98356,-470.63034,-467.84047,-465.18508,-463.27259,-463.17597,-459.07365,-456.35848,-451.55782,-448.74218,-446.08112,-442.65903,-438.3958,-433.84995,-429.3536,-426.44621,-422.8298,-417.42442,-412.75553,-407.46797,-404.61108,-400.43297,-395.44602,-389.57759,-385.62318,-381.97138,-377.95895,-372.72738,-367.76918,-362.15798,-359.25864,-353.04758,-347.98758,-341.69895,-335.20191,-331.46547,-324.11853,-319.29736,-310.05775,-304.38147,-298.25606,-292.43393,-284.80732,-277.27873,-269.77181,-264.18232,-257.99185,-251.20681,-243.61831,-236.46009,-231.95898,-225.53371,-218.77529,-211.91367,-205.21306,-200.59968,-194.92666,-188.74312,-182.19987,-178.10882,-171.30283,-167.36785,-159.56036,-154.57292,-149.37249,-145.36381,-139.61604,-134.7015,-130.266,-125.11105,-121.83597,-117.00501,-112.84958,-107.82487,-104.45552,-100.38381,-96.019536,-91.430181,-87.352061,-83.824657,-79.50019,-77.215611,-71.49253,-69.271029,-64.375471,-61.486647,-58.387779,-53.511911,-49.849038,-45.857913,-42.783855,-39.285359,-36.536729,-30.781675,-29.334552,-25.34395,-21.872539,-17.386018,-13.898115,-9.9722112,-6.3128772,-2.4330808,2.3382906,7.7649735,9.7058325,12.151383,16.177025,19.795419,22.244111,26.597349,28.232397,31.18964,34.472711,37.83416,40.593947,42.584726,45.936374,48.459225,52.021403,53.647428,56.3007,57.782033,61.429981,62.144828,66.414895,66.084042,69.757081,71.239948,74.253637,75.944097,77.397399,78.762039,81.498159,83.537175,84.439099,86.203341,86.876781,89.162246,89.95944,92.024498,92.243612,93.086714,94.094668,96.502466,96.355092,97.667817,97.611825,97.767426,99.680943,98.998286,98.930095,98.786027,99.256469,99.126982,99.770819,98.203915,98.706684,97.968903,99.168565,99.07949,97.359229,98.816477,96.493434,98.514334,97.428708,96.708612,96.846747,95.84811,97.000421,96.660105,97.053166,96.119088,97.622668,96.840068,96.310403,95.098149,93.679255,92.715141,92.282899,92.697899,89.515917,89.731441,88.959764,87.648965,88.206545,85.72325,86.521374,84.684619,86.026335,84.336018,84.969246,83.000533,84.883495,82.918844,85.659344,83.338591,83.738642,85.071255,84.881566,85.817239,86.246058,85.222535,86.734811,87.862219,87.967962,89.493927,88.892261,90.284745,91.040642,91.728522,92.926399,91.407119,93.020419,93.380207,93.149238,93.992141,93.846022,94.307024,94.233846,95.995263,94.341003,95.122473,94.818695,95.489459,96.387785,96.029351,95.71193,95.913274,97.414759,96.273532,97.115401,96.102558,95.473436,93.90487,96.115671,93.644145,94.023913,93.459227,93.37342,93.55393,93.865034,92.097281,93.408092,92.737269,92.880273,93.188884,94.152357,94.295498,95.027207,95.153757,95.374315,94.242976,94.0863,94.051422,93.491406,92.566347,90.768426,90.198612,89.906364,89.5269,88.235824,86.921632,85.781458,84.51669,84.272804,81.927492,80.929099,78.497392,78.603485,77.367033,75.418139,74.540316,73.384296,73.781408,72.326035,72.352659,70.954623,70.628417,71.700585,71.062089,71.665193,70.120414,70.722848,69.103581,69.488954,68.414175,68.100764,67.17588,67.908113,67.414905,66.739814,66.895221,65.82853,65.287097,67.329767,65.320887,66.340816,65.396428,67.249655,67.736365,68.628897,67.955152,69.191455,67.567536,69.172051,67.372116,68.060238,66.927102,66.173244,67.454439,66.264157,65.772627,66.121848,65.8018,67.146945,67.127737,65.820106,65.080913,65.49264,65.802608,66.116037,65.538422,66.621314,66.552176,68.695851,68.001364,68.955714,68.958355,70.236288,71.239919,73.106677,72.891851,73.713315,74.593606,76.560461,75.76925,76.544449,75.926682,76.624379,75.973307,75.799665,73.531317,73.043088,71.929337,73.615356,70.892299,70.582206,70.367785,68.414535,69.394564,68.65651,66.879185,67.006614,66.183072,66.464568,66.720654,66.337331,63.314305,64.002791,62.0874,63.626786,59.581706,60.152261,58.749756,59.438729,57.331396,57.793629,56.390386,55.995137,56.738357,54.737983,54.723908,53.353731,53.235969,54.587626,52.597639,53.272289,52.743061,54.820647,54.612629,56.010603,56.680921,56.677218,57.631156,59.034469,59.905521,60.847401,61.144291,61.619502,64.878312,65.398439,65.495007,66.515665,65.833357,66.871922,66.423891,65.691182,63.480874,63.547077,61.615207,60.115836,57.736584,54.820493,52.192377,50.144149,46.662966,42.805782,39.214447,34.664903,30.387044,24.375875,17.426692,10.297735,1.8802455,-4.6871068,-12.136289,-20.781038,-29.581713,-38.010025,-46.432885,-56.905922,-66.429434,-77.920672,-88.348401,-98.148024,-110.41156,-121.39555,-133.26886,-142.63651,-153.47459,-163.02634,-173.55236,-184.5117,-193.47468,-202.82802,-212.37342,-220.59749,-229.80511,-237.39663,-244.01793,-251.52426,-259.12658,-265.97653,-272.07267,-277.08256,-282.4984,-286.7366,-292.00298,-295.43259,-298.20568,-300.83872,-303.20126,-304.38888,-307.28452,-306.36779,-307.50998,-306.56684,-307.16577,-306.81698,-304.12734,-302.67812,-300.74313,-298.95714,-296.58452,-292.91153,-289.64144,-286.37599,-283.45877,-279.01015,-274.84363,-269.62809,-266.61837,-260.79465,-257.84357,-251.32399,-247.2495,-241.75927,-237.85326,-232.5156,-227.18148,-222.03777,-216.69023,-212.02767,-207.47445,-200.85137,-197.48868,-189.44092,-186.56602,-180.02606,-175.60676,-167.54256,-163.29575,-157.88478,-151.62409,-147.56362,-140.41643,-136.30842,-130.15944,-125.4073,-117.39526,-114.89673,-108.35385,-104.70798,-99.028138,-94.835907,-88.161787,-84.144716,-79.407584,-74.998047,-69.249168,-64.864362,-58.853109,-55.546097,-49.831075,-45.81129,-40.137295,-37.175926,-30.864806,-28.548801,-22.87858,-19.041756,-12.291807,-9.0437876,-4.1969176,0.76633004,5.7464193,9.4011131,13.726644,15.674904,19.358456,21.9108,24.120155,26.782912,29.189107,32.610542,35.035624,38.699459,40.144128,43.502179,45.543317,49.97636,50.758411,54.374341,55.810995,58.749712,61.667351,64.20291,65.719395,68.002027,70.424252,71.808747,75.11597,75.634209,77.4629,79.781307,81.388303,83.916858,84.809029,86.480852,88.801038,91.111495,92.797333,94.743047,95.227798,96.914322,98.436625,98.613746,100.00293,100.80508,100.81363,103.29981,103.48532,104.66932,104.94635,107.37465,108.21545,111.10242,111.20985,113.24247,115.43359,116.61756,120.26738,120.32184,122.86228,125.79455,127.69527,131.36469,133.10959,135.66064,138.30263,142.02766,145.12586,149.04774,151.37311,156.68197,160.32073,164.96215,169.15293,173.24046,177.78137,182.76023,185.60127,188.90205,193.47766,196.37592,203.3328,207.02489,212.86337,217.10322,223.08357,227.67124,235.18451,238.32723,244.60144,246.92712,254.49115,255.93537,260.97918,263.02019,265.54923,268.20252,270.64552,270.69127,270.82435,270.98435,270.76353,269.83493,267.6005,262.7964,260.39656,256.29693,251.94602,243.64398,236.49005,227.02293,219.16805,208.18872,197.40109,184.17979,171.5442,158.36737,145.11359,132.04006,117.57335,102.82266,87.971175,72.696753,57.364836,39.984903,24.869443,8.3865594,-7.1275756,-23.834954,-40.397304,-56.223588,-71.917536,-87.709772,-102.59765,-118.06004,-132.44801,-145.34494,-159.30517,-173.03276,-186.42873,-198.81705,-210.65213,-221.58712,-231.99844,-242.96294,-251.51231,-260.77671,-268.46117,-276.83807,-283.69647,-290.71133,-294.40788,-299.13426,-300.84258,-305.23735,-307.33241,-305.63446,-307.73367,-305.50881,-305.42238,-302.56226,-300.96138,-296.73034,-294.07735,-290.01013,-285.86297,-281.33442,-274.39817,-271.00886,-263.2312,-257.86671,-250.93295,-243.49439,-237.68198,-231.2741,-224.29887,-217.6407,-210.58693,-203.51734,-198.1107,-191.46652,-185.62388,-180.00368,-174.59364,-169.67706,-164.03621,-159.54368,-153.36192,-147.20286,-141.20935,-135.57878,-128.75719,-122.47108,-116.39096,-110.00786,-105.34731,-98.390093,-92.096463,-87.29401,-81.720829,-77.208922,-70.061558,-66.970154,-59.467358,-56.43107,-51.363528,-46.095869,-41.145475,-36.189434,-32.066526,-27.453843,-23.952803,-19.63266,-17.373078,-13.106469,-10.533762,-7.4550153,-5.1047576,-1.8131279,-1.1830775,1.3353337,2.7215719,4.5002139,6.4972895,7.0351964,8.5498683,9.9193448,11.815873,13.957833,14.39296,15.208606,15.890888,18.747338,18.869372,20.856838,21.402292,23.046826,25.363638,26.170694,28.342772,29.384535,31.173243,34.299437,36.517633,37.206852,40.378029,41.217407,43.162246,45.513336,45.918236,47.910902,49.437415,51.585258,53.939817,55.391776,57.562374,58.803948,61.988276,63.846301,67.047807,67.930454,71.819591,73.663844,77.526822,78.411429,81.612825,84.521037,85.500178,90.152275,91.085582,93.381621,95.158849,98.082868,100.03583,101.97794,103.11085,107.49008,109.55792,112.18704,114.30068,116.04825,116.89026,118.95433,119.46044,120.33624,120.99836,121.24063,122.53538,122.46333,121.86847,121.78379,121.81189,121.12327,122.18049,122.67466,121.4858,121.29115,122.50187,122.47201,122.36574,122.35233,121.96478,122.70204,122.31369,122.9591,122.44143,122.56429,123.53725,123.2842,123.55667,123.64229,123.09933,124.03591,124.20928,124.32726,124.18123,124.26611,125.29617,125.61003,125.97784,125.56617,125.87739,126.01132,126.42981,127.47864,126.10655,126.63386,126.97462,128.25307,127.15019,127.58439,126.55807,128.30658,127.6574,127.79585,127.5921,127.15524,127.74709,127.62668,127.36034,126.99646,125.38643,126.73131,124.74666,126.69375,123.35699,124.64737,122.71001,122.55785,121.74345,120.14646,119.10619,117.84279,116.48635,115.0404,114.0221,111.3138,110.81874,108.26688,106.87389,104.0082,102.85944,100.04399,98.932261,97.214159,94.495913,92.63088,90.397834,89.694274,87.038791,85.130743,82.719538,80.97191,78.887091,78.027987,75.00093,73.242944,71.330815,70.932877,68.06858,67.594094,64.072279,64.38125,62.392398,62.267325,60.370725,60.802867,57.253944,58.028721,56.738745,54.090206,52.381248,52.607334,51.900942,50.522648,48.256133,47.456455,47.155529,47.497048,46.505943,44.93548,44.749109,44.634064,42.558183,41.900405,39.538053,38.716899,38.20612,37.795351,36.978112,35.555209,34.424748,35.304534,35.119343,34.927668,34.916317,33.352763,36.829894,36.104862,38.07505,36.062695,36.757959,37.36212,37.830647,39.131476,38.003897,37.77274,40.442642,39.962476,42.584582,40.279599,42.852207,43.630533,44.987041,47.402291,46.380691,47.712663,50.133891,52.267822,53.141288,56.087341,56.396051,59.346714,61.11334,63.491457,63.99213,65.335398,68.419038,70.836374,74.513557,72.411908,75.361608,76.142259,76.872337,77.753457,76.03383,76.142775,76.636948,77.628533,78.597516,78.12342,78.879203,79.608199,82.445332,82.576293,82.723009,83.848614,84.793014,87.915354,89.007644,89.905451,92.556372,93.428991,98.48343,99.620715,102.52616,103.22182,107.56041,110.72285,114.3876,116.22467,119.0108,120.76648,125.47088,125.81345,127.89324,128.1355,130.68102,132.77293,134.42601,135.80242,134.65122,138.96217,139.03279,142.03374,142.63936,142.59225,145.19534,146.96456,148.85073,147.63558,151.09419,151.11416,153.44983,154.35398,155.90176,156.95713,159.83633,161.26411,162.31971,164.17908,164.76997,167.67961,167.47691,173.00569,172.28786,177.13269,177.5644,182.86456,184.13286,187.19157,188.92933,192.58338,194.13615,197.33611,198.1457,199.19598,201.53239,199.39932,199.50632,197.32969,195.55232,193.92653,192.02418,189.1578,185.41945,181.03588,177.08112,171.2333,167.50912,159.19349,154.45173,145.36133,138.88561,130.41613,121.42953,112.01289,102.8467,93.41545,82.843335,72.519894,57.930053,47.150178,31.984303,22.33484,6.5021947,-6.9163303,-23.519196,-39.840292,-58.697204,-78.70644,-97.936795,-118.84074,-141.09655,-160.54447,-184.23596,-205.24773,-227.28612,-248.47088,-269.44299,-292.42986,-315.08233,-337.13738,-359.87304,-382.60819,-405.61127,-426.8019,-448.80642,-468.23564,-488.96666,-507.7573,-526.25247,-543.43462,-558.82802,-574.41972,-586.9845,-602.33916,-610.95152,-624.47071,-632.77164,-643.28497,-652.71051,-659.99201,-666.13564,-673.07604,-675.52627,-681.92185,-681.72733,-684.64062,-685.67144,-684.16218,-686.42109,-682.13256,-682.21587,-677.44521,-676.00691,-672.13613,-667.3151,-663.58356,-657.2376,-652.51407,-646.28762,-640.78924,-632.90028,-625.02733,-618.624,-609.47696,-601.26206,-592.39225,-582.08182,-574.22233,-563.48515,-553.65665,-543.59836,-531.99589,-522.2946,-510.7547,-502.03933,-488.65796,-480.34602,-468.47924,-459.57793,-449.42567,-439.85709,-430.47195,-421.36153,-413.28454,-406.48059,-398.03952,-390.07744,-381.99014,-375.77629,-367.23305,-359.93297,-351.76672,-344.89014,-339.54255,-332.86717,-325.99324,-320.30964,-313.91612,-307.96947,-302.95528,-295.04742,-288.76774,-281.73846,-274.71711,-268.77507,-259.03248,-253.13987,-242.69905,-237.44539,-226.33813,-218.56206,-206.16476,-199.96771,-190.40624,-183.00842,-172.62837,-164.46812,-153.73977,-146.60493,-135.24326,-128.56677,-115.43313,-108.4606,-96.929511,-88.2246,-77.829399,-68.676646,-61.030152,-51.746795,-44.855592,-35.988629,-28.125934,-19.779367,-12.952822,-4.0437987,2.8586037,11.209483,18.412395,26.266718,32.619814,40.819675,47.248533,54.778999,60.753326,67.98285,72.890554,80.908609,85.820111,90.49495,97.063442,100.63188,107.30841,112.17762,116.75597,121.97986,124.90899,129.45622,133.85455,135.23585,139.88849,141.23125,145.76964,147.24769,150.89313,153.10982,155.042,159.26329,161.72134,163.9599,167.19742,170.20423,172.95151,176.1957,178.82356,181.29289,184.30896,188.49327,190.53737,194.74216,194.51712,200.51889,202.26206,206.66295,208.74778,213.00934,216.38518,219.25517,225.2678,227.33317,231.04473,233.44242,237.24183,239.96637,240.73239,243.41339,246.24701,246.38173,249.04313,249.85541,252.0781,252.23392,254.13583,254.41911,254.34813,255.01083,255.00399,255.51607,256.2827,256.26291,254.66124,259.19952,255.628,257.80433,256.73165,255.03645,256.03887,253.1179,254.64773,250.08982,250.44537,247.13455,245.76485,242.99623,240.40834,237.32784,234.47211,231.62665,229.60014,225.6809,223.07726,218.40696,217.50069,212.75158,210.85914,206.25053,203.42626,200.89935,197.03445,194.98895,190.26542,188.84793,184.42945,183.31546,178.91032,177.99598,173.23414,172.77051,170.13189,168.38947,165.33533,164.88913,161.50785,162.47824,159.84448,157.90223,157.16336,155.37279,154.5673,154.30966,152.58812,152.08459,152.61886,151.83438,150.91934,149.41447,148.31574,147.60442,147.71805,146.48254,145.23982,145.19703,144.60083,143.11337,142.68397,142.0234,140.04443,141.4651,140.2721,140.5554,139.32725,138.81915,137.83463,138.75485,137.02262,137.58134,135.51055,135.95469,134.5595,134.36618,132.54121,133.50102,132.09511,133.01128,131.70611,131.81513,130.58728,130.59698,130.88877,127.66436,126.42445,123.80837,122.28952,119.98867,117.49862,116.0267,111.63265,109.23925,107.42081,104.84889,101.10922,98.69448,95.949837,93.526988,90.223019,87.064971,83.657924,81.493736,78.71524,76.961038,73.058665,72.7565,65.401079,67.108912,61.483847,60.398827,55.893511,53.294198,51.41222,47.571344,45.098376,42.169746,39.159897,37.097405,35.456308,32.04089,30.081628,27.610207,26.243378,24.122328,21.896113,19.92734,18.504034,16.896294,15.731552,13.283641,12.378105,10.807168,9.3503682,9.2304411,7.1076823,6.175934,4.6411077,5.4798572,3.2915599,4.2926526,1.9181706,2.3703335,1.4194515,2.3813355,0.49022958,1.7976644,-0.46792931,1.4928959,0.2528851,-0.20721455,0.23452901,-1.0205664,0.83516873,-0.26113641,-0.76827651,-0.60279267,-1.7076564,-1.6216954,-1.9226725,-2.5947121,-3.0979337,-4.4716383,-4.2866217,-5.9879415,-6.3896452,-8.1988985,-10.638314,-10.774763,-12.006135,-12.853653,-15.435733,-15.863441,-17.55085,-18.634454,-20.900276,-22.232837,-24.210438,-25.037687,-26.817741,-28.130614,-30.481786,-32.681979,-33.360417,-36.029115,-36.992849,-39.874613,-40.981464,-43.228657,-43.811434,-45.984777,-47.256591,-49.657569,-50.140741,-51.716368,-52.346071,-53.980586,-54.355903,-55.353631,-55.202375,-55.93336,-58.387985,-58.451184,-59.476503,-59.99979,-60.89434,-61.27291,-62.666257,-63.021508,-62.68798,-63.997359,-63.76754,-64.706523,-64.882534,-64.169377,-64.964138,-64.237098,-65.828564,-63.982777,-65.368884,-63.160673,-65.450813,-64.274187,-63.768215,-63.547648,-62.115524,-63.106177,-62.376527,-62.376463,-60.814237,-60.925686,-59.837966,-59.939729,-58.386258,-57.774515,-57.707849,-57.624046,-57.433371,-57.038011,-56.393436,-56.341218,-55.822163,-56.134237,-55.774945,-54.757236,-54.499139,-54.144455,-54.254269,-53.395449,-54.108268,-52.691985,-54.536254,-53.979068,-53.9094,-53.148034,-53.402334,-52.780195,-54.212024,-52.408501,-52.751927,-51.72177,-51.584964,-51.234046,-50.568442,-49.631881,-48.761297,-47.872567,-47.592462,-45.980122,-45.136342,-43.485933,-43.640911,-41.844604,-41.220877,-39.632578,-38.205261,-37.543174,-36.725576,-35.381129,-34.510234,-32.820844,-32.287949,-31.893301,-30.184682,-29.416016,-27.547485,-25.400785,-25.648271,-24.400781,-23.214941,-23.023024,-22.493807,-22.858828,-22.756246,-21.501081,-22.119533,-22.069211,-21.852818,-21.869691,-21.126177,-20.80077,-20.723615,-21.699616,-20.782964,-20.965064,-19.245762,-20.565639,-19.426423,-20.728659,-19.223328,-19.705412,-19.694203,-19.830253,-19.516566,-20.562577,-18.912276,-20.091575,-19.284809,-20.399018,-18.621076,-19.563123,-18.209445,-19.584509,-17.306584,-18.643084,-16.849483,-17.463785,-17.29807,-17.20625,-15.739505,-15.791982,-15.002164,-14.322433,-12.692652,-12.845301,-11.261419,-11.794326,-10.734014,-10.81727,-9.6382447,-8.9864555,-9.2616904,-8.0920633,-9.8588102,-8.7031471,-9.3081675,-8.4766551,-9.2046796,-9.0884652,-8.4234586,-8.8497756,-7.9042878,-8.8412316,-9.0501325,-8.009486,-9.2762812,-8.4898606,-10.405696,-10.15598,-11.33336,-10.629624,-11.836393,-11.75597,-13.025865,-12.422314,-13.484423,-13.290867,-14.069057,-13.960155,-14.585685,-13.688246,-14.496843,-13.946225,-14.020023,-13.665902,-12.695615,-12.729315,-12.565771,-12.275724,-11.753907,-10.858733,-10.874477,-8.7082366,-10.201497,-7.4261536,-6.7604809,-5.3462148,-4.6748749,-3.7472208,-1.772388,-0.014186068,2.1069253,3.3631169,5.531383,6.953178,9.6107335,11.392665,11.365808,13.258392,14.054305,15.529234,17.148386,17.58165,18.86686,20.446875,21.699937,23.100001,24.716964,24.239965,26.897269,27.424963,28.717878,29.327958,31.163642,31.053527,33.971733,33.045989,35.409369,34.62485,36.017499,36.676833,38.410477,36.989627,39.149725,37.119356,40.602861,39.274603,41.239532,40.076963,41.287091,41.70185,41.478188,41.07355,41.272581,40.415156,42.37832,42.157069,43.136011,42.977717,44.735083,44.951097,47.547112,47.191273,48.360612,47.797183,49.452263,49.854745,50.07658,50.191843,50.403142,51.106506,51.457061,51.516517,50.124317,51.289779,50.802537,52.237277,51.6351,50.738665,50.438378,49.011413,50.134019,47.271851,46.989065,45.623519,44.223633,44.367543,41.710689,40.982505,38.457724,37.962678,35.987702,35.314502,32.079579,31.704748,29.607265,28.874767,26.623723,25.194021,23.28471,21.873923,21.074198,18.847249,17.961847,15.11042,14.932417,13.13462,11.682017,10.50713,8.086421,8.1465362,6.8701388,6.5882817,3.3518011,4.9549008,1.9898511,3.5632324,1.1583383,1.1411041,0.48685387,0.34167511,0.11292986,-0.67458481,-1.5996398,-1.9109632,-2.1478655,-1.7598936,-2.5270175,-2.9850189,-3.700101,-3.3478941,-4.0050929,-3.2497545,-4.3739726,-4.9127848,-4.5686915,-5.5425249,-4.4218289,-6.2287016,-4.9143846,-6.0272256,-4.5603425,-5.0656652,-4.839686,-4.9978601,-3.3148783,-4.5000685,-3.2675671,-4.4761153,-4.5522022,-4.8166454,-3.9813538,-6.331209,-4.5527736,-7.9478063,-6.4100238,-7.9219282,-7.9231433,-9.6205809,-10.635928,-11.975546,-12.149036,-13.216838,-12.829096,-14.081546,-14.463676,-14.146291,-15.067942,-15.633876,-16.315278,-16.601217,-16.480519,-16.726104,-16.056499,-17.650265,-16.384483,-17.052106,-16.217077,-15.385485,-14.550092,-14.860749,-12.868429,-13.690721,-11.832139,-13.46165,-11.465178,-12.030644,-11.934493,-12.612139,-12.917454,-13.522027,-12.107306,-14.158175,-13.039673,-14.901453,-14.339108,-15.586756,-16.429454,-16.686581,-17.84514,-18.498485,-18.007482,-17.483333,-18.629263,-18.266615,-18.417279,-18.0576,-17.232132,-17.187894,-17.081897,-16.32617,-15.587337,-14.704477,-13.339558,-13.491365,-12.780019,-10.756278,-11.948631,-9.0477602,-11.137469,-8.9437967,-8.7621663,-8.3229645,-7.569208,-6.6739651,-6.8592246,-4.8843967,-5.467724,-3.9995985,-3.5978726,-3.9546495,-2.0833867,-2.3496935,-1.3317951,-1.5250979,-0.75144404,-0.32378109,0.42870232,0.24876665,0.63693905,0.85258586,1.4223213,1.7596531,1.6591151,1.6395936,1.356213,1.86455,2.3584606,2.816258,3.7009017,3.2831293,4.2179842,4.1388337,4.5878022,3.5793955,2.8462671,1.8452725,2.2492227,0.030694926,-0.095016207,-2.4157559,-3.2556263,-5.9813118,-5.4024264,-9.3674007,-8.6519658,-10.438519,-10.996223,-12.126819,-13.426163,-14.560845,-14.569179,-15.515958,-16.111188,-17.451054,-18.020076,-18.336108,-19.177853,-17.032164,-18.297709,-17.13573,-17.257593,-16.274103,-16.358667,-16.229451,-15.62013,-15.140835,-13.350565,-12.497751,-13.226502,-14.676487,-12.293266,-13.627295,-11.817483,-13.005954,-11.887331,-12.046513,-10.804496,-10.46506,-10.695273,-9.6512366,-9.8887189,-8.5911107,-8.3543103,-8.16703,-8.5893861,-7.6278949,-6.7562046,-5.655423,-5.5653175,-5.182678,-2.8999102,-2.5000388,-1.0133625,-0.45217939,0.15181598,1.4153239,2.1266101,4.2264264,3.6900231,5.6480645,5.3174154,7.1801824,7.1164286,7.2146095,6.9879418,7.0586094,9.0059772,8.7282757,8.0566117,8.2428981,7.7934808,7.1147622,7.7595321,6.268795,5.2422216,4.811172,3.8361234,3.9109511,1.7474799,0.57263006,-0.27256624,-2.3807996,-2.3030637,-5.0377568,-5.8863947,-8.0419452,-8.7021904,-10.000563,-11.210277,-13.035787,-14.109762,-15.518244,-15.501636,-17.114051,-18.347044,-18.936625,-18.955549,-19.064687,-19.919695,-21.859248,-21.902372,-22.620115,-22.532736,-23.818671,-24.112582,-24.661053,-25.316183,-25.20783,-26.183951,-26.555291,-27.27577,-26.25379,-25.240181,-25.918588,-24.374458,-25.148266,-22.792596,-22.671258,-20.483833,-20.635703,-17.719121,-16.928058,-14.704197,-12.193801,-10.875365,-8.0811161,-6.0327716,-2.0867026,-2.2172487,0.45120836,1.4748838,3.2379667,4.5497843,6.6569039,6.6117627,8.0891725,9.2366006,10.389292,11.12926,11.611971,13.985455,12.768677,16.028803,14.800584,15.963442,16.078768,17.416972,17.421136,19.985353,17.852737,19.84061,19.861386,20.629115,21.207235,20.404067,21.398272,20.491759,21.453993,21.279545,20.57308,21.022879,20.042528,20.688567,18.819302,18.062907,18.002265,17.167032,18.222611,17.055713,17.923877,16.705646,18.033618,18.709752,19.006291,19.678784,20.07319,22.133486,20.41337,22.81679,21.273771,22.676437,22.587048,24.163451,23.789713,24.357491,24.78633,24.90525,25.577826,25.494091,25.792274,25.156825,25.427055,25.84253,25.290635,25.46834,24.252427,24.938644,24.404067,24.564588,23.203707,23.354967,21.711665,22.559985,20.86806,19.987088,19.307896,18.128642,17.843469,16.548978,16.014649,14.018924,14.709294,12.070009,13.13394,9.964231,10.235938,7.6531018,8.3305999,6.2883253,6.2281221,3.6045515,3.6120482,2.5440302,1.5780909,0.39574454,-0.86317373,-1.883082,-1.6408657,-2.4899349,-3.7606216,-3.940183,-5.3181678,-4.7473367,-5.3404306,-6.5433844,-6.3251017,-8.4355165,-6.5090361,-8.7800222,-7.4700014,-9.7607214,-8.6454728,-9.9154035,-8.0420172,-9.8500663,-8.8992093,-9.0949342,-8.6119513,-8.1405288,-8.0394196,-8.2985042,-8.2635492,-6.0815577,-7.2144271,-4.9743779,-5.9966742,-4.1572033,-4.7935111,-2.1752112,-3.9283494,-1.6776708,-3.0269927,-1.2359645,-1.2492315,-1.0749886,-0.52332876,-0.97829518,0.22781784,0.05618808,-0.18015654,0.21465394,-0.67124023,-0.099229544,-0.78926344,0.67484161,0.60210227,-0.035146649,2.2222088,1.3179002,2.957552,2.9095493,3.0339539,3.7265029,4.1348576,3.4237162,4.7779409,2.6651674,4.864257,3.9592326,4.3938625,4.5438869,4.0992048,5.0555727,4.5966171,5.7733005,4.9271677,5.7992859,5.5883891,6.8030232,6.4920818,7.3753652,6.6410939,7.4433305,7.7983304,8.1270847,7.7963135,8.2274613,8.8733875,9.0670161,8.9883641,9.9368595,7.6635705,10.165148,8.7315053,10.450074,9.3147837,9.5368747,10.02878,10.02536,10.895194,9.0346679,10.555975,7.9958783,10.8525,8.4936393,9.483519,7.788057,8.7425967,7.7853372,7.9497031,7.1283728,6.6687967,6.1668955,5.352427,5.9374965,4.0624947,4.1319196,3.6689198,2.6272894,2.9843241,1.663205,1.359718,0.39999083,0.88188312,0.27631752,1.0660913,-1.8071318,0.12344892,-3.3628937,-1.2134275,-5.184155,-4.2360821,-7.4706189,-5.9797034,-8.5509828,-8.4734436,-10.130127,-10.740995,-10.941065,-11.439523,-12.455201,-12.720598,-14.058428,-13.494531,-13.58403,-15.295783,-15.244302,-15.942323,-15.49013,-16.305994,-16.751127,-17.671666,-17.580043,-17.279205,-17.014297,-17.711359,-18.050781,-17.712409,-18.094383,-17.327706,-16.962506,-17.86744,-17.261612,-17.149841,-16.818437,-15.177531,-16.829397,-14.639925,-16.795426,-14.233407,-16.774454,-16.522967,-17.811641,-17.741958,-19.193125,-18.930609,-21.750003,-20.506283,-23.270768,-22.154572,-24.319645,-24.894249,-26.41354,-26.904466,-27.763236,-28.119875,-30.489744,-30.168558,-31.548495,-32.181523,-35.26243,-34.410645,-37.311393,-36.386772,-37.471045,-37.6902,-38.350078,-38.690398,-38.832373,-38.247016,-38.346283,-39.32325,-37.660178,-38.185547,-37.719754,-37.09673,-38.060979,-37.511977,-36.229945,-34.862168,-35.970903,-34.109658,-36.196657,-33.394657,-34.610837,-34.290072,-34.687398,-35.165101,-35.436462,-35.2906,-35.260349,-36.618008,-36.794762,-37.135953,-37.144118,-37.778938,-38.322867,-39.13432,-38.370572,-38.678447,-38.434362,-38.749571,-39.115846,-38.283736,-38.862467,-38.343325,-40.891466,-39.638915,-42.405057,-40.111751,-42.430234,-41.490391,-42.517706,-42.122591,-42.047857,-42.045091,-41.815937,-42.588483,-41.869904,-41.355601,-41.274005,-41.376503,-41.434592,-39.560267,-40.789599,-38.475132,-39.153628,-38.086809,-37.997674,-36.328176,-35.028194,-34.664703,-32.733553,-31.421267,-29.973565,-28.009639,-26.298289,-24.807877,-22.290103,-19.192745,-17.348859,-15.322434,-12.636463,-10.45532,-6.9069909,-4.1045612,-3.1103092,-0.31251496,1.7635734,5.1347323,6.9040704,9.5814766,11.243993,13.684292,15.795711,17.770303,20.311784,20.378957,23.147414,24.202213,26.173341,26.731851,27.830362,28.392427,30.263926,29.943955,31.386652,30.950559,31.340258,31.501363,32.126531,34.50505,31.447952,34.937635,33.6748,35.863369,34.203947,34.65604,35.28317,36.012519,37.090052,37.720545,38.442668,39.90465,41.183945,43.936269,44.492911,47.478025,49.298331,50.469218,52.580864,54.343812,55.023868,57.244977,58.948084,60.079114,62.577209,62.57143,64.745944,65.828666,68.126966,68.088334,70.183649,69.926013,71.994802,72.952444,74.108662,74.726864,76.135155,76.465943,79.198896,75.434261,75.961901,76.218353,76.764631,76.525682,77.46934,77.434501,78.456156,80.348503,81.293739,83.019896,83.360509,84.955004,86.112959,88.383519,85.351314,86.543716,86.92944,88.425145,88.841652,90.438053,91.749995,92.203602,93.976827,95.766321,96.714208,98.144615,98.464178,100.82515,101.04343,102.00207,102.13482,102.16837,101.97498,102.43124,101.38125,100.77156,98.862634,97.249779,95.040323,93.241381,90.440704,87.50184,86.555175,82.429497,79.884566,74.740542,73.773477,68.697026,68.839815,61.305355,58.873914,53.841993,51.53758,45.464311,40.663562,34.272513,30.123429,25.315972,20.184375,12.765867,7.2315249,1.3499948,-2.8560967,-10.373629,-14.33628,-24.328281,-26.517852,-33.687755,-38.604829,-45.38611,-53.069433,-56.325269,-62.907423,-67.275449,-74.415572,-78.493977,-82.687328,-85.286464,-89.970987,-92.923566,-97.842704,-98.387366,-101.2764,-101.95803,-105.21809,-106.19668,-107.05395,-106.71837,-105.43597,-107.96136,-107.01733,-106.21685,-103.75391,-103.2161,-100.77443,-101.66221,-97.231827,-95.617152,-91.729383,-91.286711,-88.137747,-86.154045,-81.154618,-79.337495,-76.662583,-75.568255,-72.704595,-69.753672,-68.258938,-68.885772,-64.527469,-61.57252,-58.276181,-55.600686,-52.22198,-51.300658,-47.495523,-44.89262,-42.034384,-40.925682,-41.148087,-38.063272,-38.065201,-34.893629,-37.70059,-32.187083,-31.940112,-28.665118,-25.88505,-24.839608,-23.324888,-21.592019,-17.946144,-16.118905,-13.900071,-14.394268,-11.321373,-9.3162872,-6.6906133,-6.5138682,-5.417056,-4.5457828,-2.3129827,-1.2123054,-0.32449951,-1.0449646,-0.4577857,0.9557865,2.7455163,3.5468928,3.2336162,4.7929774,6.1302502,6.8889588,7.3492288,8.811081,10.303297,12.2121,14.044967,12.291711,15.010409,14.85229,16.433067,16.175893,16.922747,16.488657,18.677437,17.968486,18.746269,17.512734,18.235538,18.003565,19.014589,17.426649,18.515552,15.702936,18.317355,16.66761,17.835664,15.757125,15.598524,15.849697,14.658652,14.053467,12.779778,11.537069,10.798047,10.524548,9.2670443,7.6654166,6.2961064,5.4804048,3.7485415,2.591854,-0.3123744,-1.0602293,-3.1492995,-3.8436727,-5.945759,-8.4216436,-9.3883873,-10.80307,-11.609367,-12.874384,-14.142755,-15.31021,-15.727876,-16.782069,-16.902899,-18.790453,-18.366684,-18.786103,-19.098758,-18.966428,-18.796907,-20.516442,-20.163774,-19.422776,-19.013123,-19.714266,-17.186816,-17.185109,-15.295285,-13.656359,-12.986123,-10.567695,-9.6168916,-6.8140932,-4.7370774,-3.7178755,-1.4059448,1.6898032,2.7596601,7.0767933,5.8527542,10.878144,10.563274,14.337596,15.853851,17.008309,19.048076,20.903231,22.472481,23.906871,24.918297,24.254435,29.544881,27.849803,30.608951,28.827585,30.73802,29.525428,30.564405,29.883736,28.913329,28.175178,26.471012,26.712107,24.649604,23.284198,20.557088,19.535752,17.143393,16.385676,12.082385,11.413115,7.9500156,6.8357596,3.978486,1.6868526,-1.0378001,-2.8718836,-5.0452504,-7.2391994,-10.020269,-11.722855,-13.237946,-15.711097,-16.502017,-19.624603,-19.269295,-21.958386,-20.908713,-23.592855,-22.424924,-25.015153,-22.6594,-23.343046,-22.485401,-24.393749,-22.033283,-22.768037,-21.392182,-20.764429,-20.146229,-19.149055,-17.794012,-15.399752,-15.23688,-14.769151,-12.996109,-12.808305,-11.117864,-10.251153,-10.377371,-8.0578039,-8.3255327,-6.0979265,-6.1358204,-4.9687524,-3.8729682,-2.7152958,-1.9049003,-0.99376751,-0.048101731,-0.13828934,1.4719849,1.4640177,1.7620127,2.051648,2.2987391,2.691047,2.7881772,2.7401739,1.9292353,0.64999441,2.0020242,2.1996236,2.9469521,0.93838577,4.1445303,1.4145368,4.2705916,3.0260946,3.0403914,3.4215476,2.4681168,4.5473851,2.5646786,3.2729971,2.5099507,2.9652572,2.8754302,3.1525076,2.1142747,2.5276613,2.917022,1.9508918,3.1826848,2.5649837,2.5207976,2.9254053,3.3371128,3.7678666,3.8014996,4.2233435,6.5773728,3.5490594,6.2030624,4.6639037,5.5517544,5.749939,5.7861566,6.835782,5.1423415,6.3625835,4.9639982,6.6297071,4.7546408,5.7943236,4.8112346,4.3138812,4.7153095,3.7255575,2.9574667,2.8140469,2.3300473,1.9336111,2.3860736,0.302211,0.73049327,-0.53033392,-0.037561545,-1.439763,-1.0221989,-1.815037,-2.5300424,-1.2776553,-3.434535,-1.7086828,-3.5156629,-3.134894,-3.7678363,-3.7933383,-3.5345672,-4.441541,-3.355796,-3.2473712,-3.0818744,-2.9604355,-2.6353516,-3.4724459,-3.5524525,-1.9884187,-2.7182111,-0.73439653,-1.2527141,0.32635159,0.046063044,1.4434156,1.5092355,1.946298,2.9112743,3.9275095,4.1076126,5.3167529,4.998045,6.6240843,6.4052386,7.7350365,7.7098071,7.7671344,8.378017,9.2212506,9.6087471,8.6961488,10.57704,7.6940898,10.460436,8.8756545,9.8201851,8.7410604,9.1709291,8.9246574,9.6676599,8.3956391,8.3883724,8.4545828,7.776597,7.4720504,6.8497259,5.5657147,5.8908488,4.6177513,4.7529731,3.8726731,2.8578774,2.6697187,0.87312455,2.2859439,-0.58560413,0.53940558,-2.3134402,-1.3140671,-3.1272957,-3.4381636,-4.16353,-5.5849442,-5.2863144,-6.556147,-6.6955101,-8.3989846,-7.7689225,-9.5049699,-9.2349427,-9.8165076,-10.892248,-11.279316,-10.674522,-11.379189,-11.438087,-11.363899,-12.222826,-10.966692,-12.609414,-10.987176,-12.572011,-11.229815,-11.98684,-11.003675,-11.948423,-11.79604,-10.435993,-12.29412,-9.6564254,-11.775759,-9.8199309,-10.222389,-8.342105,-10.063,-7.7932889,-8.05553,-4.9824623,-6.2560927,-2.8618395,-6.2815314,-1.9621868,-2.9984523,-2.0044766,-1.6175939,-1.4569192,-0.74142388,-0.80755556,0.12152192,1.9919832,0.14473567,2.9322443,1.866303,4.116984,3.6254671,5.5652902,5.2495556,7.6630625,8.2940612,8.4057539,8.5482921,7.6861376,7.9660397,6.6559103,7.6204838,6.491396,6.8442194,6.7455367,7.4061224,7.3176944,8.7582388,8.1103664,7.3516964,9.5489419,9.5528662,10.677122,12.172817,12.047069,14.472344,15.780294,17.155735,19.419765,19.055868,22.801556,23.516108,26.675396,27.703917,29.392485,32.041865,32.907616,35.276593,35.856434,38.399569,38.923741,41.156345,42.473983,43.780387,45.00166,45.213377,47.352371,47.523975,48.375902,49.110535,49.630687,50.181921,50.007387,50.365939,49.352467,50.001174,48.872245,49.754956,47.682621,48.257889,45.38015,46.920632,44.585066,43.473331,42.753618,39.975852,39.611018,38.392241,35.913253,34.983414,32.591256,32.016809,28.378537,28.515708,24.680764,23.831907,20.561647,20.940493,16.978023,17.109063,12.012588,12.417318,8.8825866,7.3769086,4.4189108,1.7971298,-0.368006,-4.6875729,-3.9271301,-9.1946101,-9.2050902,-12.868646,-11.813167,-14.799727,-15.25787,-19.048561,-18.78374,-21.874541,-19.566082,-23.427904,-22.047074,-24.920337,-22.349584,-25.102776,-22.359264,-23.198459,-21.040498,-22.371765,-18.762349,-18.937888,-16.211828,-16.722842,-13.082307,-15.395063,-12.520286,-15.26714,-13.975009,-15.144045,-14.940446,-15.039896,-16.518401,-14.745492,-16.669083,-15.334983,-16.942741,-17.011324,-18.034567,-17.052586,-20.849399,-18.465054,-20.489385,-19.770263,-21.018265,-18.316079,-21.938763,-19.10521,-21.736705,-20.80559,-22.719131,-23.030035,-23.563133,-24.724909,-24.768979,-26.873036,-27.32216,-27.753339,-29.178556,-30.738579,-31.687548,-32.820351,-33.744282,-35.899045,-35.572773,-38.830795,-38.369088,-40.546046,-40.152412,-42.463597,-42.205911,-44.484074,-43.805931,-46.629803,-45.38292,-47.807703,-46.93899,-47.598655,-48.234239,-47.763038,-48.765602,-47.931266,-48.388266,-47.319465,-48.298164,-47.602387,-47.284235,-46.695383,-45.155155,-45.031401,-43.031774,-43.327782,-41.012223,-38.109164,-38.560772,-34.773336,-34.586254,-31.162587,-29.959527,-27.297616,-27.115069,-24.995724,-23.921471,-21.316094,-20.679395,-19.906022,-15.384769,-17.318157,-14.809971,-15.065185,-13.321582,-15.149928,-12.778823,-14.289925,-13.791764,-15.137165,-14.507564,-15.500684,-14.876273,-16.279562,-17.063338,-15.632365,-17.57102,-17.64988,-17.408721,-18.452686,-18.368737,-19.699587,-19.868557,-19.660674,-20.346845,-21.343305,-20.94366,-20.093861,-20.107599,-20.93122,-20.833585,-20.328745,-19.752807,-19.099584,-18.982444,-18.361207,-18.061733,-16.841101,-17.171388,-15.161705,-15.860791,-13.693564,-12.688456,-11.596205,-11.534765,-8.307598,-8.5866543,-3.5338299,-2.8893104,1.6543819,-1.0968974,3.7525809,1.9218365,5.2995877,3.4611637,6.3478689,5.35159,7.8232149,7.7266016,7.7853891,10.067974,9.3620987,11.022494,10.76059,12.308948,12.877122,13.516002,13.625389,16.073893,14.215738,17.225478,15.95037,17.389007,17.415303,17.620294,17.537073,19.11256,17.801227,20.606998,17.109225,20.890065,17.515514,19.128724,18.176246,17.993214,17.211069,17.448301,16.083596,16.379816,15.594142,16.627106,16.210954,15.716463,15.428981,16.028518,13.832936,16.847231,13.227334,14.614287,12.468682,14.404577,12.789722,13.273357,13.453759,14.097427,14.356422,16.703056,15.288612,18.114294,17.260317,20.258894,15.696398,18.692329,15.982979,16.21571,16.901738,15.634015,15.697464,14.182173,14.420385,14.474421,12.907322,12.26532,10.636868,11.418356,10.154254,8.3691975,6.9979832,5.6291018,4.509733,3.0447687,2.2501702,0.23109768,-0.95546331,-3.3822274,-2.6232583,-3.224788,-4.8465709,-6.6031265,-6.4419291,-7.4417033,-6.9233916,-8.7019826,-8.545393,-9.2711816,-9.077929,-9.5725596,-10.815286,-9.9885895,-9.8452766,-9.6517642,-9.5296643,-9.8360937,-8.9867457,-7.6391202,-6.254838,-5.5186472,-4.7238732,-4.13719,-4.5313562,-4.3063537,-4.3824338,-4.8830209,-4.773343,-4.877095,-3.6650916,-4.4925124,-4.0951599,-4.6899458,-3.6629744,-2.993533,-3.6214762,-2.5433519,-3.7571835,-1.7121824,-1.7113915,-2.3900881,-1.0418754,-2.2736276,-0.35149675,-0.10640409,0.080122659,0.089487675,-0.24184643,1.418302,1.1821163,2.2473524,1.4098434,2.0984707,1.488308,4.0508313,1.9108075,4.2511806,2.6243385,5.4199889,4.4691985,6.4525728,4.7621865,6.8977256,6.7211711,7.9413071,7.0774535,6.3814383,7.0905214,6.6634582,6.8789318,6.6946044,5.1533191,6.5753805,5.1883921,7.0969744,5.5160431,6.300037,5.9303769,6.4974635,6.511596,7.3250293,5.5037259,7.4312457,6.6277451,7.5964056,7.4341517,8.0577294,8.5633494,8.6728772,10.128617,9.3102505,10.573467,10.54479,11.583209,11.386053,12.641272,12.137478,13.114065,13.947361,12.440639,14.296435,11.466793,13.519739,11.245831,13.688735,12.723456,14.368058,13.985918,14.967296,16.792819,16.75092,18.439704,19.009615,20.143203,21.695823,23.066281,24.895189,25.053266,27.08332,27.208976,29.834179,29.858576,31.858304,31.554373,33.529842,33.723998,35.495792,35.29554,36.486008,36.786318,36.988861,36.151601,36.576093,36.082097,36.400732,35.135385,34.362429,33.063333,33.335005,31.732103,30.790542,29.094569,27.332002,27.053507,25.194118,24.091098,21.599157,19.644126,18.840289,16.697694,14.572722,13.149535,9.9734378,10.644264,5.8490051,6.5837314,1.5856211,1.1420138,-0.25183651,-3.9670844,-4.3102301,-7.7687457,-7.919709,-11.477494,-11.538854,-14.284813,-14.632329,-17.042653,-17.859972,-19.938594,-20.214884,-21.156564,-21.703257,-22.463251,-23.174762,-22.642995,-23.863219,-23.238292,-23.23174,-23.273655,-22.780008,-22.887367,-22.823332,-21.583868,-21.643658,-19.99975,-20.737066,-19.130257,-19.024624,-16.734996,-17.09929,-14.458794,-15.769889,-12.459936,-13.031543,-9.260202,-10.77751,-7.584625,-7.3356403,-5.7636134,-4.9375236,-4.3623788,-4.5194052,-3.7304371,-3.1943312,-2.6485578,-4.084365,-3.9073301,-3.9902137,-6.3190786,-4.9030572,-8.0866756,-6.858989,-8.3686299,-5.7172088,-7.5913217,-6.9443512,-8.8674632,-7.5349593,-7.1655068,-7.4131132,-7.5242039,-7.7930548,-8.1398512,-5.8675545,-7.3871102,-6.3026266,-7.8974127,-5.3402488,-6.1831225,-3.9181861,-5.9524012,-4.4939062,-4.5242091,-2.4618266,-2.8124082,-2.3099358,-2.9038403,-0.9680849,-1.2420004,-0.6574382,-0.66688325,-0.11981105,0.90819307,1.3402431,1.7428427,1.6237998,3.1060413,2.6818775,4.3765606,3.7656837,4.4620684,4.4424959,6.7805158,5.5342155,6.3688643,6.1153398,6.1979378,7.5422295,7.0399829,5.8672632,6.9411946,5.5246186,7.0794336,5.2229036,5.1099401,4.0549354,3.6287759,4.5239347,1.4300865,2.2493961,-0.078071524,0.20381591,-1.5920077,-1.1666282,-2.8289959,-2.1802906,-4.7471414,-4.0643898,-5.5601097,-5.0738856,-6.4843623,-6.682104,-7.6149293,-8.4756791,-9.2038471,-10.553098,-10.441575,-10.68894,-12.114362,-11.660533,-13.579347,-12.500388,-13.082418,-12.71777,-13.303021,-13.807393,-12.701886,-12.326978,-11.429235,-12.353025,-10.898958,-12.44671,-8.1386536,-11.115849,-7.1622019,-9.7744146,-7.1597007,-6.7100575,-8.31232,-6.1818915,-6.6108168,-6.4836306,-5.052077,-5.9558516,-4.8368036,-5.6521198,-4.0343167,-4.1822363,-5.1283924,-3.1654768,-4.6157524,-2.8989941,-2.7078159,-3.0169271,-2.5980297,-2.5683819,-3.4403412,-0.95494003,-3.9571437,-1.711029,-1.9384671,-1.442321,-3.6003076,-2.6656882,-3.9570046,-1.9024022,-3.8457465,-3.5118668,-6.159292,-4.8266901,-5.4397026,-5.1066491,-7.1089287,-8.0125725,-8.2997835,-7.6070143,-8.6047281,-9.550576,-10.981173,-10.730459,-10.218912,-10.875878,-11.33751,-12.811239,-12.433159,-11.515965,-11.611755,-13.040667,-12.22705,-13.417149,-10.764956,-11.080896,-11.22012,-12.324802,-11.393141,-9.5069312,-9.9447386,-9.4075153,-10.921072,-9.3443674,-7.6657497,-6.9770495,-7.065471,-7.6487993,-6.5535737,-3.4032998,-3.5975341,-2.1554697,-4.3324574,-0.75434688,0.10513756,2.3369784,1.889452,1.9985599,4.1195828,5.5793334,6.0402308,6.5527442,5.6653396,7.4891362,8.0389643,9.705703,7.6085424,7.6611633,8.7765198,9.6807595,10.94512,10.048243,8.9657335,10.261705,10.306664,12.387895,10.498363,10.447308,10.25622,11.872463,12.471404,11.59229,10.280197,10.795355,11.33781,12.326009,11.151206,9.5880829,10.638665,10.960718,11.472626,11.321432,8.5391506,10.841103,9.684238,11.227369,9.6691376,8.5417759,8.8266865,9.1709237,10.552219,8.4823764,7.8326178,8.2773039,8.9166933,8.5260672,8.4857952,7.1282876,8.5127095,8.4822432,8.9828702,9.5427241,7.2748806,10.106564,9.1431408,9.6943918,8.382894,8.7198347,9.2587683,9.9492911,9.4091122,8.5601029,8.2129358,9.4402516,9.4233341,9.286603,7.7057275,7.9530593,7.9167999,8.9529566,7.6449094,7.0667072,6.5184592,6.7594444,7.4159467,6.5581515,5.679556,4.9630796,5.4262754,5.906239,5.3376667,3.789123,3.8179671,3.6166765,4.7355738,3.365097,2.6126677,1.6234912,2.0519609,2.8540339,1.6729131,0.80204771,0.13279626,0.36826776,0.79773524,0.61151336,-1.1834351,-0.68597198,-1.0976467,0.56300315,-0.67621492,-1.2464512,-1.9823518,-1.0467547,-0.84642349,-0.71328417,-2.0356673,-2.1006342,-1.7650591,-0.91748155,-1.2692232,-1.9241196,-2.7116601,-1.7870967,-1.2062395,-0.88007841,-2.0568566,-2.0443096,-1.5681681,-0.74200717,-0.25779716,-1.418047,-1.5859793,-0.9502886,-0.10150511,0.53027125,-0.42642566,-0.44363132,0.17569233,1.2912651,1.3459782,0.91909717,0.30431014,1.1260133,1.1151772,1.7782026,-0.14879164,0.26845869,-0.078291874,1.5053576,0.85232652,1.7092762,0.28098587,1.7587202,3.0398659,4.2922543,3.7941301,4.523183,5.676718,8.3585706,8.7814787,9.1254347,8.7234559,9.7047395,10.714398,11.043879,11.237969,9.6677282,9.6247664,9.6734357,9.6620986,8.5945036,6.9557591,5.5962905,5.9146903,4.4288646,3.040228,0.3838566,-0.55579027,-1.3711696,-2.5769149,-4.8555377,-7.1694315,-8.6562767,-9.3830175,-10.959077,-13.11484,-15.42301,-16.869925,-17.490366,-18.769985,-20.640221,-22.554035,-23.911377,-23.872762,-24.722848,-26.094164,-28.282305,-28.519397,-28.571,-28.626456,-29.77113,-30.551515,-31.24748,-29.724654,-29.966225,-29.316347,-30.887088,-29.128329,-28.557947,-27.164395,-27.001825,-26.481167,-25.729687,-23.492098,-21.791656,-20.530968,-19.946932,-18.71393,-15.499326,-14.292004,-12.073235,-11.473049,-9.5416613,-6.7842792,-4.4243839,-2.8691429,-1.6614939,0.24870996,3.1119129,5.3271156,7.2591384,7.9947817,10.258988,12.096954,15.511194,15.559194,17.486808,17.907959,21.006584,22.09445,23.144477,23.368496,24.029015,25.598515,26.687749,26.673554,26.040656,25.372977,26.03771,25.552048,25.088489,22.443506,21.46696,20.196029,20.236254,17.96681,17.004224,14.542658,15.056541,14.160652,13.905576,11.272255,11.415802,11.212441,11.816066,11.056496,10.395411,9.6701778,9.93956,9.9198889,9.4116775,8.3868719,7.4984661,7.7115454,8.0161473,7.4002345,6.2905501,5.3089011,5.5197017,6.2627099,5.0753957,4.4148813,2.8231309,3.7642538,3.7147043,3.4843691,2.1289223,1.5090897,1.7266755,2.2259323,1.8786532,0.92602068,0.083515366,0.63215216,0.67951624,1.2345465,-0.26310141,-0.90903844,-0.54717837,0.37078344,-0.12596481,-0.58146858,-1.9259931,-1.0183394,-0.86934644,-0.61620033,-1.8320721,-2.1126159,-2.1557786,-1.0227465,-1.5623762,-2.2329799,-2.9062981,-2.5354473,-2.0520588,-1.9208048,-3.0488247,-3.1098014,-3.5903215,-1.920878,-2.2459866,-2.4647856,-3.8533415,-2.6193941,-2.7107341,-1.530946,-3.3585747,-3.1852017,-3.6288922,-2.550636,-2.1528193,-3.4532495,-3.6976656,-3.9235662,-2.8663951,-3.0360308,-3.5410193,-4.9731054,-4.2734897,-4.0401562,-3.4050481,-4.4725305,-5.0119636,-5.3589536,-3.8322364,-4.4517991,-4.1170734,-5.7066603,-5.1256619,-4.616622,-4.0943025,-4.6593945,-5.7016661,-5.492167,-4.5711642,-4.3659669,-4.7009664,-5.6662612,-5.5429857,-4.6457463,-4.1580406,-4.7728392,-5.8488181,-5.3531514,-5.2572538,-3.9370834,-5.2450443,-5.4284216,-5.9267797,-4.6515174,-4.1332816,-4.7413824,-5.0896206,-5.2718745,-4.2077154,-3.6916558,-3.809752,-5.3154244,-4.5886681,-3.7422498,-3.3928005,-3.3582573,-4.5944461,-4.3751585,-3.7472874,-2.4493937,-3.4075797,-3.7865914,-4.143034,-2.6555286,-2.6662672,-2.2696802,-3.6326814,-3.2672812,-2.254196,-2.1031237,-1.6839248,-2.8538424,-2.7482591,-1.8537073,-1.2051448,-1.507759,-2.0418025,-2.4900455,-1.133542,-0.60732634,-0.60856481,-1.7386498,-1.0503742,-0.83013663,0.53358176,-0.45663985,-0.70815692,-1.0642064,-0.20834029,0.89327791,0.27814798,-0.48191977,-0.8230695,-0.034745827,0.43699439,0.57373116,-0.68059957,-1.0173101,-0.10002348,0.54888445,0.59465207,-0.44276879,-0.63438816,0.37291872,0.80083737,0.90013299,-0.0051248141,-0.052449791,0.05122502,1.7351599,1.0387277,0.5862418,-0.16122528,1.0715865,1.5382389,1.5782447,0.76299402,0.28002279,1.1291626,1.4095211,2.0877655,0.41920784,0.38090707,0.095767049,1.2435857,0.40548066,-0.12526373,-0.93994897,-0.063145161,1.2438587,1.5180149,1.2040852,1.3631604,3.0998884,4.9172375,6.1147319,5.7318188,6.60234,7.4689665,9.1646318,9.7057064,8.9214152,8.4893705,9.4269502,9.9294901,10.006822,8.7681365,7.895335,7.3960876,8.3460234,7.277453,5.9422124,4.4401534,3.89767,4.058192,2.9222949,1.5322981,-0.66176548,-1.0324059,-1.4677961,-2.3555663,-4.2723851,-5.9512809,-6.8526097,-7.4835063,-7.8921818,-10.159297,-11.565535,-12.424171,-12.095821,-13.273384,-14.380488,-16.272152,-15.857825,-16.547886,-15.946157,-17.555104,-18.53406,-18.449478,-18.048497,-17.395837,-18.614336,-18.777065,-18.511267,-17.468721,-16.603391,-16.727267,-16.803956,-15.894338,-14.64619,-12.710899,-13.188944,-12.292009,-11.810336,-8.7961436,-8.2596173,-6.4776986,-6.8424935,-4.7714599,-2.9355882,-1.3055915,-0.20673413,0.19001388,2.096948,3.9125923,6.5081389,6.6565104,7.9251274,8.77466,11.234116,12.899806,13.542631,14.176029,15.126083,17.108729,18.590049,19.309048,19.007356,19.839156,21.467075,22.472515,22.083524,21.62939,21.716553,22.066879,22.678326,21.322639,20.140028,18.780211,18.648298,18.150942,15.741639,14.27773,12.109175,12.285917,11.753673,10.674025,8.7923035,8.3273333,8.7449898,8.6844592,8.4321377,7.0121255,7.0392088,7.1266025,7.7973852,6.6897107,6.027752,4.9105587,5.7500218,5.647384,5.2811087,3.8433816,3.6868395,3.8645495,4.621702,3.942209,2.4903844,2.3695241,2.7206754,3.3487133,2.0930272,0.80139832,-0.63604879,0.38583977,-0.25937117,-0.22193164,-1.9581318,-2.1570274,-1.7956691,-0.76599698,-0.72004914,-1.6583719,-1.2743851,-0.135933,1.4619752,1.8613207,1.4457441,1.8963959,2.7286481,4.246518,4.4207708,4.0947001,3.3854485,4.0130918,4.8209821,4.4526037,2.6798224,2.6245008,1.8550357,2.1668793,0.78963398,-1.3165974,-3.2725956,-4.4594638,-5.7095414,-7.2810026,-10.53176,-13.676013,-15.062021,-16.740541,-19.923465,-22.560549,-26.497906,-28.331309,-30.756127,-32.77745,-36.737238,-39.882192,-41.890229,-43.470141,-45.690797,-48.582711,-51.215967,-52.711401,-53.447773,-54.954415,-57.008353,-58.480134,-58.81995,-58.414615,-58.724919,-59.268392,-59.822479,-58.865505,-57.083557,-55.635621,-55.581894,-54.101411,-52.57216,-46.440556,-47.595552,-45.235284,-44.277953,-38.290069,-34.339304,-31.520154,-30.388773,-26.369741,-21.211011,-14.359207,-11.860625,-8.659341,-5.6155041,2.4368178,7.8168978,12.20695,14.552503,19.591751,25.582519,32.564958,36.028372,38.80186,42.299951,49.233245,54.772334,58.695659,59.892511,63.188843,68.704519,73.35044,76.165376,76.201125,78.208558,81.622305,84.908332,85.463228,83.922074,83.472298,85.023775,85.938553,84.289296,81.026803,78.915656,78.953277,78.885781,76.593399,72.404486,69.075886,68.921428,68.169513,65.781708,60.800127,57.764206,56.528185,55.780825,52.788346,47.61674,44.128069,42.205819,41.69717,38.635752,33.616963,29.561754,28.646191,27.593058,25.258768,20.142498,17.453519,14.778773,15.530121,11.74486,8.2071603,3.594402,2.7574567,2.0183642,0.42755911,-5.0487101,-8.129267,-9.2740006,-9.6066002,-11.878924,-15.578881,-19.675936,-20.16771,-19.925942,-21.759036,-25.697459,-29.144051,-29.558668,-29.159493,-30.418966,-33.650339,-37.127474,-36.72123,-36.297321,-36.476751,-39.996304,-41.697682,-42.685728,-40.756214,-41.41189,-43.774269,-46.274745,-45.771322,-44.01744,-44.056612,-46.10853,-47.982987,-47.785678,-45.163701,-49.283702,-47.876644,-52.348226,-45.437697,-49.886811,-48.689633,-52.414916,-48.52168,-47.763826,-44.810398,-47.416389,-46.279321,-44.488928,-39.533206,-38.700231,-37.800256,-38.175991,-34.598087,-31.58817,-28.645653,-30.060689,-28.924335,-27.516164,-22.42824,-22.341609,-21.409874,-23.081975,-19.761374,-17.292513,-15.388013,-16.302681,-17.076626,-15.48557,-12.049748,-10.963643,-11.314228,-12.862246,-10.573074,-8.2987208,-6.4672782,-7.7464936,-8.5937534,-7.717745,-4.0526216,-3.3491269,-3.9450275,-5.7032221,-3.839817,-1.3626613,-0.044792059,-1.0757865,-2.5511895,-1.2547701,1.0299576,2.4659422,1.1327161,-0.26671193,0.45729292,3.0645784,4.0992266,3.5039999,1.489096,2.2949611,4.8727537,6.0238708,4.9837821,3.4652442,4.2242663,6.354228,8.3860483,6.7349258,5.8336106,5.8033229,8.603557,10.179064,9.1634007,7.3220045,8.245926,10.671254,12.452765,11.508076,10.066009,10.538858,13.182419,14.678871,14.515879,12.317189,13.254481,15.738857,17.815375,16.62817,15.511732,15.475287,18.533592,19.782632,19.210495,17.483745,17.575425,19.574262,21.631695,20.307661,18.141917,17.953926,19.512434,20.544245,19.279013,16.127471,15.082388,15.630095,16.488538,13.764174,11.406871,9.1652116,12.817682,8.7590849,10.249864,7.1462317,8.9366461,8.4855648,9.3215062,8.3246648,8.1450209,8.7184617,10.087161,9.7368531,9.7322309,8.782398,9.841803,10.17658,10.957839,9.6382935,9.6557254,9.3544069,10.794631,10.562139,10.293798,9.1044811,9.9540184,10.575062,11.017601,10.689043,9.2826554,10.439031,10.402919,11.57296,9.8623954,9.5518169,9.6740396,10.288554,11.16935,9.8266376,9.4676417,9.1535113,10.998321,10.085706,10.429672,8.6744626,9.7550318,10.081524,10.92545,9.7607098,9.3832241,9.0447816,10.469672,10.105126,10.436513,9.1278449,9.5994185,10.370119,11.253174,10.887673,9.6222626,10.567254,11.196874,12.023592,11.698477,11.269279,11.597427,12.490357,13.596997,13.203252,12.372747,12.984409,13.369843,15.020513,14.07004,13.756865,13.914573,15.133075,15.664827,15.668021,14.834282,15.238578,16.447419,16.607577,17.5861,15.389987,16.995602,16.924245,18.377875,17.578813,17.609227,16.893739,18.292195,18.906235,18.324595,18.205966,17.430488,18.777289,19.004532,18.763757,17.125267,16.945082,17.04648,17.544217,16.77393,15.302728,15.236584,15.629917,16.546535,16.192667,16.374256,16.597798,17.741527,19.266012,18.819496,18.935726,17.910438,19.981493,19.652829,20.783602,18.236147,19.121082,18.187167,19.542106,17.999748,17.457138,15.492917,16.150741,15.55328,14.838811,12.346947,11.441806,10.836599,10.416011,8.9195781,6.7182433,5.2020126,4.339082,3.4107827,2.7050861,-1.0753825,-1.3393162,-3.9401458,-2.7797786,-6.2529315,-6.8124848,-9.9790119,-9.7159493,-10.949496,-11.770048,-14.401155,-15.437513,-16.298357,-16.211483,-17.112703,-19.176828,-20.015764,-20.305349,-20.219699,-20.637923,-22.279202,-22.99499,-22.71732,-22.26351,-21.609352,-22.900758,-23.408767,-22.145091,-20.698197,-20.59738,-20.47009,-20.363293,-19.273996,-17.180839,-16.450582,-15.992648,-15.707412,-14.281828,-12.18598,-11.105278,-10.812893,-9.9056444,-8.7882488,-6.0198743,-5.3240161,-3.978683,-3.9594005,-1.7877038,-0.024249224,2.0001646,1.7296674,2.9926478,3.6844439,6.226083,7.2523905,7.434649,7.6943308,8.3195486,10.09282,10.854171,10.187585,9.6847733,10.269156,10.852378,10.560974,9.8910964,7.957486,7.5847491,7.5543407,6.5505095,4.6537299,2.8312798,2.0668507,1.3284118,1.1784549,-0.68705437,-1.6441122,-2.6339699,-1.6634014,-1.9350476,-2.677775,-4.4192616,-5.0035083,-4.3570338,-5.0052324,-5.9416173,-7.9428592,-7.5315221,-7.9599868,-7.6087565,-9.0386658,-10.18121,-11.104754,-10.181744,-10.670409,-10.995841,-13.327165,-12.476059,-13.439247,-12.515416,-14.236752,-14.942874,-15.63786,-15.634495,-15.103912,-16.591602,-17.190155,-17.808198,-17.462117,-16.811824,-18.322176,-19.160997,-20.021214,-19.27867,-19.293056,-19.927985,-21.244677,-21.136492,-20.989335,-20.349686,-21.276037,-21.868719,-22.551632,-21.474624,-21.898364,-21.921887,-23.078638,-23.83566,-23.151759,-23.060846,-23.484101,-24.605894,-24.898193,-24.357785,-23.982561,-24.418496,-25.80448,-25.252276,-25.692967,-24.806065,-25.368901,-26.666967,-27.101707,-26.949819,-26.319986,-27.125069,-28.221461,-28.837623,-28.764179,-27.863865,-28.52322,-29.425041,-30.237764,-29.401318,-29.20323,-29.186634,-31.045475,-31.026004,-31.231391,-30.379117,-31.07077,-32.065316,-32.963974,-32.144042,-32.58257,-32.043585,-34.42053,-33.932217,-34.667125,-33.382029,-34.696704,-34.908023,-36.397649,-35.967592,-35.429409,-35.650911,-36.776702,-37.696209,-37.137179,-36.935656,-36.872226,-38.235888,-38.994298,-38.801315,-37.821684,-38.285075,-39.118455,-40.116314,-39.373589,-39.091498,-38.986948,-39.853009,-40.75442,-40.311631,-39.716004,-39.6144,-40.74318,-41.327301,-41.495633,-41.267493,-41.142524,-43.089038,-42.719228,-43.624881,-41.728383,-42.475203,-42.306852,-43.115752,-42.400354,-40.930363,-40.29456,-40.592549,-40.189626,-39.896788,-37.577975,-37.399004,-37.294935,-37.820024,-37.673397,-36.723529,-37.076137,-37.925315,-39.26364,-39.746487,-39.613613,-40.4941,-41.906924,-43.924599,-44.884745,-45.31892,-46.581524,-48.411506,-50.54624,-52.380812,-52.614223,-54.014391,-56.005583,-58.43235,-59.454524,-60.514552,-60.932316,-63.668725,-64.838217,-66.86816,-66.557505,-67.852671,-68.876952,-70.972126,-71.647524,-71.673409,-71.90427,-73.106538,-74.107192,-74.233647,-73.69334,-73.197415,-73.644609,-73.842634,-73.597606,-71.406949,-71.134509,-70.058358,-70.362486,-68.659619,-67.570132,-65.026723,-64.727626,-63.149604,-62.171408,-59.243615,-56.983909,-55.642069,-53.976214,-52.478169,-49.210404,-46.579322,-44.63294,-42.866843,-41.222323,-37.517946,-34.888046,-32.812783,-31.185232,-28.801945,-25.68683,-23.072788,-20.776969,-19.629627,-17.286013,-14.486803,-11.791687,-10.207709,-9.0762908,-7.2460076,-5.040303,-2.7184997,-1.6809103,-0.9447844,-0.010070408,1.7308829,3.1233942,3.6031516,3.3920135,3.4806372,4.5525834,4.8289729,5.061823,3.6510582,3.3792694,3.3683677,4.6014322,3.5519712,3.4576351,2.629841,3.6922764,4.5391478,4.8058029,4.4308723,4.7133178,5.7833647,7.4838569,7.9061077,8.4383089,8.5246644,10.412908,11.547365,12.416788,12.695884,12.446738,14.201337,15.392734,16.506317,15.76386,16.726727,17.315972,19.355194,19.591639,19.297569,19.254504,20.107922,21.50358,21.977573,22.281603,22.161522,24.224147,25.466243,27.60014,27.729136,28.810057,30.711149,33.491664,35.07332,35.813442,36.684172,38.660494,40.588119,42.068099,41.712252,42.486042,43.395532,45.031484,45.73241,45.244312,45.247648,45.70121,46.378104,47.130981,46.113848,45.820636,45.486271,46.433677,46.358015,45.71601,44.059579,44.735968,44.969192,45.064321,44.40583,42.838212,43.563007,44.214412,44.233971,44.13292,42.530389,44.154265,43.647222,45.746242,44.168954,44.950618,44.463675,47.206314,47.002907,48.266564,47.162802,48.919833,50.340568,51.935418,52.3738,52.871091,54.036095,56.84846,57.991351,59.565908,59.864324,62.025908,64.15463,66.854637,67.89889,69.181664,71.08507,74.046548,76.742157,78.756621,79.782151,82.357701,85.315647,88.626666,90.010206,91.957569,93.696897,97.61621,99.328244,102.5184,102.88806,105.89332,108.64784,111.6243,113.45119,114.39909,116.78793,119.54135,121.9745,123.89914,124.25064,126.27289,128.32749,130.58168,131.21061,131.52416,132.61009,133.96822,135.61934,135.43835,135.51906,135.1319,136.1842,136.41102,136.27251,135.09456,135.18311,136.36963,137.18369,137.65718,136.80337,137.85277,139.20557,140.93382,141.62417,141.4046,142.67181,144.07603,145.95071,146.03981,146.72892,147.03119,148.80046,149.90524,151.08443,150.89847,152.0685,153.13617,155.10326,155.78401,155.96056,156.30681,157.77317,160.00721,160.07427,161.05871,160.35995,163.08187,163.51788,165.22606,164.21909,165.69583,166.15362,168.30411,168.77036,168.41879,168.35884,169.54102,170.21391,171.11093,169.98154,170.94374,171.31649,174.15742,173.79342,175.13836,174.93719,178.26052,179.27362,182.3452,182.04637,184.15257,185.39229,188.29733,189.63608,190.01962,190.71543,192.51388,193.49705,194.95262,194.65756,194.50125,195.23895,196.64554,196.7185,196.02149,195.69929,195.99891,196.67084,196.92454,195.46767,194.90815,194.81622,195.19012,195.02637,193.29929,192.36879,192.03362,191.89737,192.07555,189.74839,189.166,187.83959,188.40516,187.37266,185.88599,184.50892,183.45648,183.99136,182.74241,181.16783,179.77312,178.6547,178.89228,177.94354,177.04031,174.87216,174.77678,174.63163,174.18393,172.72461,171.1986,170.38673,170.91541,170.1914,169.06778,168.02751,167.2267,167.55829,167.29551,166.07927,165.32688,164.19867,165.30965,164.73671,163.93561,162.85954,162.20387,162.76805,162.35693,161.86673,160.17035,159.65552,160.29097,160.08694,159.09502,157.64509,157.01961,157.2575,157.32598,155.70601,154.31262,153.46154,153.24554,152.94988,151.44924,149.16755,148.23574,147.32874,146.63641,144.43245,141.73611,139.747,138.11018,136.85525,133.16544,130.82434,127.88784,126.78369,125.03397,122.91542,120.34761,118.61575,117.66469,116.84362,115.75018,113.34737,112.57108,111.91408,111.81795,109.90665,108.04025,106.74023,106.88268,105.59345,105.11261,102.62753,101.74571,101.30519,101.24641,100.15435,98.101946,97.272227,97.218165,97.396261,96.16384,95.525298,93.810493,94.613412,94.637329,94.062507,92.826507,91.939009,92.339767,92.866814,92.326812,91.356452,90.391055,91.055572,91.429058,91.090427,90.091069,89.460258,89.692647,90.685394,90.013977,89.415581,88.017961,89.318226,88.530246,89.487879,87.496885,87.23881,87.105634,87.76197,87.323778,85.79949,85.146529,84.714995,85.281057,84.443776,83.199185,81.508194,81.566277,81.384729,81.311135,78.958641,77.5625,77.793265,77.185341,76.553116,74.699614,73.323434,72.774202,72.405022,71.326668,69.396211,66.938169,66.486545,65.44734,64.822064,61.793058,60.286559,58.932789,58.310871,56.973816,54.652494,52.189314,51.377705,49.703762,49.035374,45.955149,44.26413,42.25358,42.327868,40.042017,38.194696,35.27116,34.42215,33.340025,32.453551,29.547381,28.005762,26.130953,26.379163,24.457805,23.390649,19.934071,20.359909,18.53155,19.022409,15.636402,14.631062,11.921239,13.115493,10.598761,9.5215522,6.4701332,5.703665,4.9033018,4.3307361,2.0675472,0.048737589,-1.1409326,-2.0578928,-2.4271806,-5.1482583,-6.7246191,-8.4550054,-8.632043,-10.045685,-11.916764,-14.30234,-15.708548,-16.116954,-17.560362,-19.271421,-22.143651,-23.0258,-24.524986,-24.853888,-27.578403,-29.428895,-31.326395,-31.579472,-32.983599,-35.031392,-37.513737,-38.758465,-40.104469,-40.03398,-43.182027,-44.794556,-47.190583,-46.974937,-48.320879,-50.035432,-52.545019,-53.685797,-54.303672,-54.926993,-56.944887,-58.979343,-60.897647,-60.602511,-62.025585,-63.3305,-65.91328,-67.188478,-67.898067,-68.660972,-70.856054,-73.600414,-75.916759,-77.607286,-80.058186,-84.076414,-88.148223,-91.557488,-94.648821,-95.824881,-98.968717,-100.90959,-102.70559,-101.34544,-100.23888,-98.558828,-97.873185,-95.088248,-92.655676,-87.942522,-86.400966,-82.829704,-80.886379,-76.195747,-72.959627,-69.489533,-68.663451,-65.155844,-64.392692,-59.98719,-60.587296,-59.017736,-59.225645,-57.391748,-57.598485,-58.483896,-62.460568,-65.67008,-70.523769,-75.076074,-82.986438,-92.035283,-102.79099,-114.39066,-128.35045,-145.28629,-165.55898,-187.41178,-210.87526,-236.89088,-267.54871,-302.45616,-341.5444,-381.68921,-425.99321,-470.71727,-516.88774,-560.06093,-597.07579,-639.27887,-676.36738,-708.93266,-743.07681,-774.15253,-804.77447,-835.22189,-866.27216,-897.74442,-927.47432,-957.98477,-989.09724,-1022.1068,-1055.5096,-1088.3237,-1122.0769,-1157.274,-1194.654,-1232.5632,-1270.076,-1307.4276,-1346.437,-1385.9788,-1426.0227,-1463.6271,-1501.5129,-1538.5016,-1576.792,-1613.3091,-1649.1141,-1681.5116,-1715.9756,-1747.4473,-1779.6028,-1806.4439,-1833.217,-1856.9785,-1880.2893,-1900.8921,-1918.0474,-1932.6671,-1944.448,-1955.4002,-1963.2389,-1967.376,-1969.1086,-1967.2923,-1966.1283,-1960.0186,-1953.3198,-1941.532,-1929.9291,-1916.0898,-1901.5279,-1882.9158,-1861.7851,-1838.1069,-1813.3561,-1786.0043,-1755.73,-1721.3522,-1685.7555,-1648.1509,-1609.1435,-1567.1206,-1522.3562,-1477.0669,-1430.7887,-1384.7717,-1334.9684,-1283.6503,-1232.0929,-1179.62,-1127.8825,-1072.4841,-1017.0511,-959.93607,-904.98926,-847.40312,-791.09105,-730.01677,-671.85577,-612.19892,-555.27107,-496.35408,-438.68505,-381.20116,-326.98464,-273.71034,-221.62983,-169.95664,-122.05815,-77.376193,-37.312848,-0.076814914,34.408492,64.354038,88.651901,106.52871,125.12509,133.04554,140.89366,139.10211,140.18142,139.36295,138.80976,140.908,140.63892,146.66452,151.83039,155.67237,163.75141,171.41888,173.53638,183.46827,189.92871,196.68152,202.94591,211.02607,220.87572,230.52797,238.50718,246.64388,255.32354,266.66363,275.94418,284.94751,293.47509,304.06415,316.06211,326.35298,338.67747,347.04397,360.65273,371.69072,386.26468,393.96977,408.08012,416.02174,430.66382,439.34592,450.86946,458.07998,469.41902,477.63614,488.91063,494.40025,504.02255,508.8902,518.72342,523.88747,529.87306,532.94849,537.39925,541.71089,548.36465,551.12196,553.5498,557.97235,560.88169,566.58627,566.7274,569.62286,570.15809,574.36745,575.80626,578.12025,577.24435,577.79675,580.40358,580.64017,580.83773,581.83769,578.28462,581.87643,579.25621,580.62468,575.13454,575.13871,572.72475,572.53597,568.12951,567.55087,561.86973,563.47017,558.26175,558.45898,550.93106,550.06917,545.53739,545.69306,539.72077,537.39678,531.94619,531.09005,528.3012,524.57542,521.03769,518.78387,515.75343,514.7136,510.2612,506.97266,501.89667,500.25306,497.16925,493.52701,487.59362,483.14033,481.54472,473.71331,471.68764,463.58425,458.94632,454.47798,446.98379,445.71525,436.58162,437.75656,431.41916,430.74125,425.192,424.66601,420.96323,422.73425,418.01258,418.51507,415.61085,416.8757,415.55799,414.78251,414.16112,413.79655,414.59183,415.29903,414.58671,415.99481,415.42227,418.26597,417.52018,420.63214,420.3543,421.15038,423.22467,422.90239,424.7582,421.75766,427.74652,423.8823,429.41386,423.40145,425.66061,420.44328,419.15486,414.98335,412.1653,404.62301,403.26042,394.21278,391.09639,382.17487,377.24084,369.66166,364.98925,359.03335,354.37868,346.73554,342.14382,336.1668,331.36922,325.19099,319.23101,315.88023,309.74552,306.77409,300.9859,297.36228,293.03008,289.60058,287.57358,282.56088,282.76295,280.31581,277.35293,278.58278,275.22258,275.8546,273.90128,275.68278,274.95555,276.53472,276.43823,279.46718,278.64342,282.6547,280.94018,285.3491,284.469,289.07425,290.22944,294.23675,295.16586,301.45376,302.84187,309.07225,311.67762,315.81678,320.84517,325.50596,327.66749,335.54577,335.19847,341.83328,343.42053,348.77537,348.96463,352.10897,350.73951,353.0051,351.19464,350.75749,347.3623,345.31376,341.9239,342.05769,335.5276,336.84065,328.96298,329.95365,323.17425,321.28218,314.5787,311.81388,305.97189,302.81127,295.4719,292.04096,283.7387,282.05558,274.63602,271.4307,267.87046,262.83718,259.73521,255.64255,252.65547,247.77571,243.97793,242.83905,238.04664,237.70703,230.97454,230.57606,228.13136,225.98646,225.83577,222.36801,223.35552,220.22304,220.0055,215.78456,216.07067,212.51323,213.15474,213.09914,211.67989,211.32759,210.66584,209.8349,211.33733,211.11948,212.25807,211.78047,214.49653,215.10762,216.60842,217.81555,219.52888,220.73747,224.00594,225.27195,226.77149,228.65195,229.1288,232.11323,232.49554,234.12486,235.17961,235.8533,238.62343,238.86923,240.62683,240.12608,241.42579,242.48481,242.39998,241.68222,241.71169,240.94692,239.72061,239.99262,236.51908,235.07916,232.39434,230.37437,228.17098,225.04115,221.92747,219.18537,216.29111,213.97496,209.62978,207.82909,202.64703,202.06193,197.32109,196.32766,191.62254,192.249,186.37932,189.01506,179.95976,182.67986,175.59303,177.16206,168.58867,170.60468,160.88574,163.3685,155.37332,156.42714,147.98854,148.76691,142.05126,142.27462,135.82594,136.97124,128.18716,130.17258,124.1593,124.99971,119.10657,119.936,114.62122,115.90733,111.44722,112.25964,107.93248,109.38952,107.35118,108.55351,107.57884,105.09587,104.0156,104.33644,102.14642,102.10847,99.689662,99.938667,96.883108,98.621973,95.828049,94.585294,94.045401,91.592641,92.3081,88.659551,88.502496,86.608881,85.713891,84.443046,82.963266,80.162637,79.489544,77.517384,76.566723,72.001584,71.853074,68.434288,68.020916,65.150132,64.913839,60.194041,60.38129,57.441981,56.376591,54.847044,52.262438,50.151645,50.510421,47.083391,46.661041,43.483869,43.122856,40.600021,40.278563,38.9257,35.736372,35.973498,33.288033,34.935493,31.617061,31.801947,30.0796,30.860338,28.921373,29.440584,27.891557,27.368782,27.263375,27.67224,26.464061,26.466194,25.775899,26.068388,26.66737,26.071258,25.527995,25.788704,25.51191,26.709519,26.336128,26.228432,25.535626,26.565516,27.041772,27.84644,26.313412,27.874704,26.369414,29.958901,26.996412,29.7212,26.788683,29.344228,27.116503,31.028317,26.007456,30.485454,25.630595,30.008733,26.045214,28.181482,25.294757,26.453185,24.456141,25.599311,22.248958,24.034464,21.925051,22.702659,20.716681,20.533977,18.410873,18.257784,16.879951,17.706069,12.908287,15.432935,10.003617,13.503275,8.0292376,10.141431,3.8613229,7.3666381,1.8536637,4.5772953,-2.1290267,1.1359496,-5.5541008,-1.4425184,-7.3731909,-6.4917848,-9.9378259,-10.405075,-12.572054,-12.619127,-15.821906,-16.741037,-18.875314,-19.180047,-20.864903,-22.573811,-24.270283,-25.009514,-27.528057,-27.886423,-30.283185,-32.193954,-33.963007,-34.633581,-36.362902,-39.386521,-40.500478,-41.871277,-44.266662,-43.972845,-47.656764,-48.589348,-50.575801,-53.257402,-52.845481,-56.973943,-58.007268,-60.585353,-61.844711,-63.239033,-67.511736,-66.821059,-72.420974,-69.104405,-76.104674,-73.828386,-79.46844,-78.622782,-83.41206,-82.507414,-87.067459,-88.09878,-90.572445,-92.696806,-93.749515,-97.574075,-98.871797,-102.04071,-102.05885,-105.35028,-106.41715,-109.493,-110.4051,-113.40793,-113.37693,-117.84781,-118.43108,-121.24433,-121.54815,-124.19504,-125.03712,-128.53958,-128.40283,-131.56986,-131.04202,-134.76146,-134.8114,-138.23362,-136.91053,-140.05521,-140.23216,-142.72985,-143.17565,-144.66216,-145.08676,-146.30124,-146.83626,-149.04069,-147.50767,-148.84608,-147.79729,-150.2841,-148.74923,-149.38634,-149.57794,-148.46745,-149.80242,-149.0833,-148.83019,-148.7328,-149.2921,-147.79323,-150.43531,-145.98765,-150.19964,-144.96477,-150.64165,-144.82432,-148.68978,-144.68717,-147.23061,-145.11628,-146.66526,-144.11767,-144.74186,-143.79836,-144.95488,-143.64813,-143.90694,-142.23197,-142.63871,-142.18436,-142.09822,-140.78514,-140.5397,-139.99855,-139.9046,-139.73562,-139.99311,-137.64355,-140.12796,-136.70713,-140.0283,-137.06657,-137.93938,-136.46673,-137.53186,-136.46441,-137.10492,-136.09092,-136.78628,-136.92869,-138.13636,-136.39448,-137.88766,-136.48024,-138.00374,-136.72139,-139.16298,-135.6875,-139.6635,-136.12871,-140.79658,-136.419,-140.86882,-137.19382,-142.00093,-139.34777,-142.55173,-139.90518,-142.34174,-141.66802,-143.64424,-142.40769,-142.96713,-142.14312,-143.24548,-143.46977,-142.16464,-142.62058,-141.07788,-142.21486,-140.90966,-141.92802,-140.60178,-140.43172,-140.68868,-140.06751,-140.08462,-137.95402,-139.02387,-137.4488,-138.13295,-135.94646,-135.70311,-134.25707,-133.8926,-132.46235,-132.29077,-129.59168,-128.5961,-128.25846,-125.61605,-126.37826,-121.96698,-122.0988,-120.09898,-119.59138,-117.05947,-116.04335,-113.40641,-113.96171,-110.91671,-110.94898,-108.77475,-107.02756,-107.29703,-105.02583,-105.68493,-102.80102,-102.9872,-100.96731,-102.06709,-99.992851,-100.19584,-99.473707,-98.781484,-99.4331,-98.135559,-98.704595,-97.42756,-98.252193,-97.488012,-99.113876,-96.949396,-98.801273,-97.425112,-98.678478,-99.126212,-97.58129,-98.237094,-97.85935,-99.632401,-98.040469,-98.979335,-97.999474,-98.518684,-99.916016,-98.176927,-99.442951,-96.907249,-99.04541,-97.635228,-98.691545,-98.043157,-97.158279,-98.567962,-96.990443,-98.851473,-96.558899,-96.303752,-95.562984,-96.013904,-92.639357,-95.324839,-89.662637,-93.063372,-90.849999,-92.059239,-89.554476,-91.494607,-87.647,-91.95583,-86.691313,-90.712913,-86.165716,-89.090881,-85.866496,-88.64294,-84.759814,-86.924003,-84.186743,-85.284898,-83.931648,-83.701154,-82.530158,-82.445613,-82.42688,-80.50536,-82.025861,-79.041872,-80.944195,-79.877483,-80.466789,-80.139588,-78.629528,-80.429653,