ConstAcc,0.5,0.49198,87.07605,71.2172,57.44188,45.58432,35.4861,26.99597,19.96973,14.27008,9.766476,6.334999,3.858199,2.224959,1.330351,1.075497,1.36742,2.11891,3.248375,4.6797,6.342108,8.170014,10.10288,12.08509,14.06577,15.9987,17.84211,19.5586,21.11493,22.48195,23.63441,24.55081,25.21331,25.60753,25.72244,25.55021,25.08607,24.32817,23.27741,21.93735,20.31402,18.41579,16.25327,13.83907,11.18779,8.315738,5.240904,1.982751,-1.43791,-4.999056,-8.677602,-12.44954,-16.29009,-20.17382,-24.07481,-27.96679,-31.82328,-35.61773,-36.81439,-38.13715,-39.45861,-41.05083,-42.61065,-44.41256,-45.61543,-46.75563,-48.33208,-50.27425,-52.11963,-53.76886,-55.25183,-56.75961,-58.59094,-60.6449,-62.63783,-64.04877,-64.599,-64.10851,-62.53539,-60.01612,-56.76947,-52.97724,-48.76927,-44.20934,-39.51141,-34.83003,-30.17876,-25.49334,-20.80462,-16.08105,-11.35299,-6.530411,-1.618243,3.029638,7.065507,10.3981,13.03255,14.99092,16.15047,16.36458,15.82466,15.06062,14.52984,14.19639,13.89616,13.48773,12.94298,12.31574,11.62418,10.68412,9.525949,8.249341,7.102712,6.187612,5.687204,5.509981,5.573989,5.819643,6.178984,6.555724,6.862228,7.228326,7.707538,8.286384,8.876988,9.42014,9.990438,10.69723,11.5268,12.38844,13.27931,14.32672,15.54543,16.8976,18.30895,19.81107,21.26479,22.61385,23.78618,24.65629,25.44801,26.16112,26.96179,28.14537,29.67123,31.47868,33.71916,36.52916,39.85041,43.43426,47.01339,50.46477,53.76338,56.94789,59.88858,62.53185,64.83175,66.92617,68.92576,70.82199,72.57439,74.13492,75.59559,77.0125,78.27867,79.35232,80.22612,80.96097,81.54664,81.88939,81.85508,81.29507,80.20919,78.94184,77.63404,76.32987,74.96457,73.47316,71.76474,69.65841,67.08017,64.18699,61.18577,58.27385,55.47628,52.78896,50.1503,47.57553,45.13375,42.76656,40.39556,37.84971,35.16568,32.44047,29.72611,26.8139,23.70101,20.52499,17.41357,14.60603,12.08637,9.694412,7.137548,4.512979,1.866054,-0.9186769,-3.819141,-6.710128,-9.535505,-12.32344,-14.63672,-16.6044,-18.28206,-20.22868,-22.34242,-24.81375,-27.37027,-30.18563,-33.06247,-35.95499,-38.98959,-42.22005,-45.19746,-47.99193,-50.46771,-52.95672,-55.56125,-58.24518,-60.94714,-63.92662,-66.64375,-68.69045,-70.16296,-71.13297,-72.09525,-73.24015,-74.85033,-76.87901,-78.99529,-81.19284,-83.27795,-85.55144,-88.07754,-90.81397,-93.61272,-96.57932,-100.01,-103.3333,-106.3592,-109.1262,-111.4453,-113.3666,-114.8291,-115.7729,-116.2278,-116.227,-115.8739,-115.1074,-113.7015,-111.9152,-109.9876,-108.0158,-106.1399,-104.1728,-102.1026,-99.95995,-97.87116,-95.62452,-93.16693,-90.09842,-86.42057,-82.65936,-78.89174,-74.99753,-71.15744,-67.32264,-63.57213,-60.21899,-57.02767,-54.12832,-51.49114,-49.01921,-46.30361,-42.80593,-38.64286,-34.16372,-29.80808,-25.72764,-21.86872,-17.9821,-13.88057,-9.655376,-5.398805,-1.042499,3.484635,8.09614,12.5814,16.90143,21.12408,25.22422,29.19133,32.86069,36.29885,39.60158,42.98299,46.32359,49.57511,52.34727,54.85573,57.33982,59.66119,61.42137,62.74337,64.00389,65.25883,66.3685,67.2748,67.87769,68.26182,68.68942,69.34661,69.82187,70.02206,69.70171,69.19043,68.40969,67.17931,65.90113,64.71183,63.31807,61.57329,59.50101,57.20006,54.54478,51.87559,49.1725,46.37076,43.54341,40.96159,38.68564,37.3114,36.20263,34.6859,32.62781,30.09769,27.56939,25.00212,22.55952,20.29017,18.03131,16.00088,13.9282,11.67555,9.235104,6.979875,5.248692,3.980793,3.23028,2.452281,1.642046,0.8569305,0.008021869,-0.9357254,-1.878571,-2.56875,-2.881442,-2.772052,-2.371056,-1.811143,-1.301329,-0.8589724,-0.4228106,-0.07870494,0.2387555,0.6587505,1.211877,1.896054,2.648491,3.359361,4.21354,4.90424,5.145474,5.113359,4.79938,4.298152,3.801474,3.118738,2.082896,1.001651,-0.0008970913,-0.5415674,-0.6876144,-0.4671623,0.07147758,0.7478958,1.334534,1.786785,1.92907,1.81416,1.722077,1.719979,1.555988,1.322463,1.102044,0.9180911,0.8438948,0.8264186,0.7467456,0.540248,0.1625393,-0.2957525,-0.8194086,-1.499027,-2.356462,-3.363948,-4.419686,-5.564004,-6.839655,-7.934919,-8.717664,-9.250362,-9.738931,-9.969143,-10.17043,-10.51587,-10.79717,-11.02152,-11.21474,-11.33505,-11.33538,-11.09021,-10.62414,-10.23583,-9.998765,-9.698219,-9.141618,-8.412196,-7.2951,-6.671695,-6.605493,-6.745971,-6.769294,-6.702719,-6.516364,-6.172111,-5.791818,-5.3275,-4.73661,-4.14329,-3.753745,-3.270104,-2.792155,-2.396388,-2.056896,-1.700092,-1.329092,-0.9749686,-0.7629137,-0.8510624,-1.155127,-1.477724,-1.709871,-2.068927,-2.362379,-2.397321,-2.053173,-1.468323,-0.9547164,-0.7515601,-0.8514115,-1.019868,-1.21767,-1.546845,-1.97626,-2.558187,-2.947486,-3.240648,-3.539363,-3.862151,-4.200669,-4.518983,-4.583158,-4.548548,-4.666113,-4.744222,-4.796628,-4.797299,-5.114416,-5.45984,-5.887354,-6.285487,-6.660259,-6.996963,-7.447616,-7.968198,-8.451589,-8.654814,-8.525553,-8.530812,-8.604224,-8.812274,-9.054843,-9.133594,-9.167362,-9.302037,-9.489375,-9.602832,-9.99555,-9.812231,-9.201922,-8.59641,-8.276267,-8.172441,-8.115576,-8.15415,-8.194707,-8.272717,-8.47268,-8.988144,-9.779427,-10.47688,-10.88633,-11.1993,-11.49508,-11.7618,-11.92222,-11.99398,-12.00667,-12.16266,-12.38452,-12.75147,-12.93892,-12.83669,-12.72911,-12.67451,-12.60569,-12.51354,-12.3688,-12.16309,-11.83906,-11.43946,-10.88607,-10.37319,-9.75399,-9.04167,-8.195964,-7.3183,-6.475292,-5.49571,-4.475509,-3.348174,-1.978006,-0.6056797,0.7710939,2.091172,3.419701,4.923123,6.620205,8.395606,9.967666,11.38919,12.60196,13.72321,14.89247,16.101,17.33425,18.62072,19.89771,21.05423,22.13304,23.03862,23.89158,24.66279,25.37626,25.89638,26.53896,27.18346,27.75659,28.26963,28.62966,28.93059,28.99819,29.1412,29.25456,29.24297,29.17206,28.79001,28.41237,28.12696,28.08072,28.22156,28.50565,28.9456,29.35914,29.70565,29.87212,29.87389,29.77521,29.91855,29.89568,29.74947,29.57162,29.59848,29.72156,29.73669,29.81596,29.98197,30.01973,29.80224,29.50188,29.17836,29.00835,29.10614,29.37786,29.54531,29.5826,29.57448,29.76002,30.44022,30.62938,30.20284,29.35093,28.54775,28.01157,27.24413,26.16653,24.97151,23.88379,22.7918,21.89907,21.02748,20.11151,19.09428,17.99147,16.78636,15.18159,13.49554,12.04288,10.59184,9.192123,7.741401,6.367468,4.867674,3.370006,1.745094,-0.02564256,-1.87549,-3.804353,-5.525525,-7.114357,-8.910648,-10.56626,-12.15785,-13.35707,-14.57177,-15.9338,-17.42845,-18.55267,-19.57039,-20.8575,-22.31725,-23.47938,-24.1929,-24.52818,-24.62309,-24.8818,-25.26585,-25.55367,-25.6624,-25.84146,-26.00066,-26.2917,-26.45092,-26.39015,-26.29374,-26.16412,-26.10522,-25.75682,-25.19792,-24.67821,-24.41965,-24.31578,-24.00571,-23.43857,-22.88545,-22.3618,-22.00831,-21.59579,-21.18563,-20.7519,-20.48452,-20.39559,-20.21528,-20.00624,-19.81297,-19.87339,-19.91654,-19.53498,-18.63253,-17.75025,-17.15903,-16.83241,-16.35004,-15.66761,-15.00947,-14.74062,-14.64605,-14.31134,-13.59931,-12.90721,-12.55039,-12.37449,-12.07464,-11.61427,-11.27044,-10.82302,-10.45549,-10.02839,-9.421065,-8.709505,-8.025547,-7.664711,-7.262845,-6.552104,-5.90838,-5.520938,-5.327541,-5.06006,-4.589569,-4.002933,-3.662196,-3.547714,-3.325176,-2.876036,-2.395658,-1.842608,-1.507992,-1.218253,-0.7578664,-0.05743292,0.3393547,0.5264047,0.7647497,1.196399,1.762191,2.084592,2.454686,2.920703,3.300916,3.781671,4.01515,3.953746,3.983277,4.340952,4.829363,5.100597,4.981076,4.857441,5.283389,5.915127,6.35504,6.620912,6.631965,6.819587,7.254664,7.643071,7.765029,7.981493,8.012639,8.275846,8.898017,9.689366,10.1794,10.62996,10.99968,11.0315,10.98313,11.0292,11.33157,11.63764,11.89072,11.57926,11.36243,11.25415,11.44126,11.74451,11.95082,12.25942,12.38655,12.43266,12.55359,12.62564,12.71288,12.93021,13.24183,13.50139,13.68794,13.81811,14.03292,14.54924,14.95653,15.18066,15.25128,15.37579,15.68415,15.90643,16.02659,15.99357,15.95451,16.11636,16.29395,16.55936,16.57152,16.70856,16.65914,16.71785,16.95748,16.84427,16.17395,15.47317,14.96731,14.96437,15.19484,15.49779,15.80323,16.14259,16.35226,16.45748,16.61067,17.07288,17.31344,17.49905,17.7612,18.08444,18.4682,18.70495,19.01373,19.27326,19.47405,19.79703,19.97312,20.09539,20.01506,20.04545,20.02901,20.02509,19.64301,19.21848,18.86172,18.82242,18.64169,18.23911,17.58893,16.8646,16.06422,15.35401,14.46765,13.27755,12.03117,10.99411,9.941195,8.899885,7.778906,6.335128,5.022062,3.889333,2.793072,1.589534,0.2187549,-1.144395,-2.415163,-3.741568,-5.12866,-6.4281,-7.467738,-8.602236,-9.858592,-11.11261,-12.55314,-13.68957,-14.42035,-15.38331,-16.63905,-17.85912,-18.91864,-19.86204,-20.71171,-21.68385,-22.62317,-23.48502,-24.17377,-24.8972,-25.73875,-26.81334,-27.65328,-28.02386,-28.25694,-28.66467,-29.47921,-30.15685,-30.15375,-30.07177,-30.12315,-30.18244,-30.38586,-30.48941,-30.2854,-30.15544,-30.06208,-30.00078,-29.95128,-29.7306,-29.64318,-29.58762,-28.85893,-27.5137,-26.30103,-25.93088,-25.9512,-26.17393,-26.34974,-26.39534,-26.85554,-27.44872,-28.30471,-29.2273,-30.37136,-31.70073,-32.8048,-33.49734,-33.7002,-33.98487,-34.5965,-35.3503,-36.01155,-36.45189,-36.65115,-36.89444,-37.12813,-37.26596,-37.57378,-37.2539,-36.84731,-36.31492,-35.69186,-35.27746,-34.63921,-33.94313,-33.27475,-32.37375,-31.30719,-30.0843,-28.85603,-27.75508,-26.88569,-25.77387,-24.24382,-22.60331,-21.00839,-19.42819,-18.11555,-16.68146,-15.07963,-13.7702,-12.27229,-10.49607,-8.666416,-6.795522,-5.08133,-3.432091,-1.66268,0.1800429,2.041502,3.829332,5.819465,7.81305,9.355282,10.84109,12.22935,13.80369,15.63534,17.42148,19.21555,20.60502,21.76339,22.95246,24.21745,25.28564,26.46573,27.67449,28.61052,29.45947,30.17375,30.67301,31.02897,31.27799,31.51961,31.8505,32.06032,31.76469,31.47202,31.29519,30.92363,30.51124,29.78705,29.18594,28.54518,27.91728,26.93884,25.97698,25.33535,24.55645,23.82652,22.77222,21.65858,20.89198,20.33228,19.67434,18.91346,18.25972,17.80733,17.85436,17.85578,17.9735,18.41499,18.11827,17.14851,16.01472,15.3668,14.62869,14.2483,13.97697,13.80712,13.3238,12.43285,11.65162,11.34622,11.20226,10.56102,9.671183,8.999,8.307381,8.145712,8.0832,7.569258,6.907539,6.382744,6.120051,5.890139,5.173514,4.512651,4.360438,4.457317,4.257132,3.656302,3.010328,2.828301,2.978723,2.629694,2.077936,1.500546,1.229803,1.103296,0.9003786,0.6309421,0.5281033,0.7209832,0.5475092,0.5334146,0.1663218,-0.3180888,-0.5278534,-0.4026381,-0.5003981,-0.492356,-0.7736951,-0.891707,-0.9201305,-1.103636,-1.266643,-1.491729,-1.492604,-1.384381,-1.339693,-1.640403,-2.027872,-2.324986,-2.176092,-2.017004,-1.886565,-1.829161,-1.857152,-1.959574,-2.138448,-2.36886,-2.666684,-2.826155,-2.911355,-2.661055,-2.884515,-3.313129,-3.616065,-3.841964,-4.050945,-4.376087,-4.677404,-4.888934,-4.896922,-5.263218,-5.842028,-6.228279,-6.521794,-6.694529,-6.797675,-7.24992,-7.572144,-7.74013,-7.730839,-7.954009,-8.358077,-8.721882,-9.018259,-9.190475,-9.377126,-9.562128,-10.27474,-10.8418,-11.20857,-11.40719,-11.78285,-12.58783,-13.40452,-14.04635,-14.33794,-14.82312,-15.44791,-15.9638,-16.45436,-16.71109,-17.02877,-17.28552,-17.57556,-17.7871,-17.93028,-18.40814,-18.75001,-19.4628,-19.0472,-18.09548,-17.67303,-18.01821,-18.50524,-18.6863,-18.80516,-19.36078,-19.82715,-20.31306,-20.67767,-21.05042,-21.70302,-22.24411,-22.7998,-23.14573,-23.52069,-23.82464,-24.19443,-24.72519,-25.34876,-25.75546,-25.8389,-25.76402,-25.69943,-25.48996,-25.17116,-24.85699,-24.68137,-24.35734,-23.88384,-23.05778,-22.21339,-21.51164,-20.70645,-19.56763,-18.51694,-17.41764,-16.35034,-15.163,-13.73334,-12.1119,-10.51782,-9.075446,-7.627754,-6.12643,-4.28503,-2.642936,-1.126006,0.1933996,1.728477,3.254486,4.929257,6.170249,7.421846,8.542892,9.994044,11.1666,12.26395,13.30126,14.36109,15.84572,17.14872,18.08689,18.44295,19.16367,20.12325,21.03213,21.92739,22.48475,22.93629,23.4936,24.09543,24.70233,25.29196,26.00254,26.89692,27.45198,27.94969,28.08275,28.33216,28.6295,28.98252,29.56883,29.33118,28.61691,28.29472,28.60099,28.61007,28.75668,28.58311,28.69064,28.67843,28.70155,28.88613,29.26131,29.46904,29.52447,29.5448,29.71161,29.94845,30.44066,31.31593,32.02085,32.35548,32.97136,33.67851,34.09759,34.74878,35.37575,36.43628,36.53,35.98411,35.76184,35.7892,35.61636,35.2558,34.97552,34.67006,34.30864,33.78554,33.04186,32.41733,31.76726,30.83645,29.82666,29.03979,27.81654,26.69678,25.50089,24.16238,22.79031,21.28207,19.94221,18.44694,16.91029,15.19728,13.61418,11.93139,10.31915,8.672305,7.229875,5.874551,4.257689,2.972686,1.573006,-0.02438693,-1.39285,-2.495964,-3.530934,-4.752362,-5.991088,-7.012046,-7.800689,-8.861933,-9.61095,-10.44188,-11.23991,-12.04686,-12.76214,-13.45817,-14.17973,-14.48983,-14.80664,-14.64112,-14.8547,-15.1426,-15.25912,-15.42348,-15.43573,-15.12647,-15.04632,-14.97304,-14.91735,-14.77239,-14.18415,-13.61366,-13.15435,-12.77167,-12.31504,-11.73186,-11.38862,-10.8865,-10.06027,-9.62909,-9.391482,-9.348284,-9.464095,-9.215819,-8.967747,-8.908587,-9.119285,-9.289315,-9.326015,-9.816519,-10.0205,-9.423302,-9.035425,-9.169343,-9.139864,-9.120954,-8.73154,-8.666972,-8.644258,-8.509885,-8.675688,-8.949283,-8.722127,-8.357799,-8.053909,-8.192908,-8.207572,-8.096983,-7.933513,-8.027522,-8.018525,-8.232437,-8.598372,-8.732155,-8.940901,-9.043526,-9.260741,-9.027207,-9.050064,-9.214437,-9.680707,-9.936427,-9.863836,-10.03155,-9.785364,-9.861444,-9.849561,-9.411317,-9.374535,-9.3016,-8.987404,-8.720208,-8.536627,-8.181148,-8.142592,-8.208254,-8.030896,-7.53836,-7.169322,-6.80637,-6.705719,-6.643401,-6.129972,-5.558862,-5.016999,-4.586833,-4.42164,-4.102965,-3.563462,-2.987282,-2.783637,-2.651827,-2.324761,-1.5971,-1.30322,-1.227704,-1.228086,-0.7459975,-0.3649594,0.04336808,0.6608951,0.5856913,0.6049581,0.5987147,1.242816,1.740256,2.136898,2.652151,3.229407,3.575637,3.299207,3.182261,3.386939,3.537385,3.923158,4.382133,4.222651,4.343027,4.420954,4.623827,4.443661,4.172577,3.968786,4.089069,4.354422,4.137352,3.641718,3.408318,3.173582,2.83766,2.495125,2.340438,2.010461,1.846393,1.601438,1.493249,1.273107,1.118569,1.125187,0.9003495,0.5672562,0.607457,0.1313725,0.1983866,0.3778654,0.3468936,0.04176638,-0.4441487,-0.628816,-0.4695576,-0.2556373,-0.5345105,-0.4606229,-0.4878366,-0.2067314,0.0393714,-0.182719,-0.09578057,0.2000288,0.498246,0.7458651,0.7543705,0.6015344,0.5964198,0.9385072,1.095131,1.218018,1.190701,1.04223,0.9723413,0.832177,0.6377759,0.558648,0.3317668,0.4904936,0.5281623,0.4286543,0.1212918,-0.2400983,0.0005818944,0.1788391,-0.08416882,-0.6496808,-1.063578,-1.084138,-0.892541,-0.9089396,-1.410873,-2.008236,-2.335815,-2.487001,-2.668803,-2.901343,-3.239249,-3.833067,-4.009379,-4.199727,-4.425599,-5.060016,-5.40224,-5.711392,-6.030352,-6.594351,-6.997472,-7.555076,-7.851056,-8.068053,-8.047514,-8.158127,-8.632105,-8.943268,-9.203286,-9.470609,-9.583401,-9.381184,-9.636439,-9.512345,-9.55167,-9.811662,-9.995375,-10.13481,-9.920715,-10.15883,-10.30233,-10.09589,-10.23029,-10.63646,-10.63247,-10.65566,-10.52722,-10.5043,-10.3613,-10.11168,-9.819325,-9.906245,-9.869718,-9.673718,-9.423739,-9.533976,-9.615067,-9.276646,-8.503747,-8.184695,-8.12394,-8.195913,-8.197179,-8.464027,-8.697384,-9.013194,-9.561377,-9.86009,-9.99499,-10.54016,-10.91996,-11.41192,-11.85609,-12.41402,-12.82266,-12.99243,-13.13909,-13.22504,-13.45083,-13.23481,-13.17225,-12.96456,-13.03792,-12.95814,-12.38851,-12.01232,-11.74345,-11.40388,-11.09079,-10.51088,-10.04824,-9.410489,-8.722871,-8.025546,-7.895293,-7.388741,-6.782863,-6.230305,-5.452624,-4.736658,-4.07195,-3.294792,-2.729108,-2.199847,-1.120022,-0.3561086,0.5577227,1.237442,2.08807,2.941752,3.89029,4.575172,5.354923,6.424021,7.000853,7.530889,8.498933,9.806265,10.48371,11.1437,11.9323,12.6331,13.60514,14.46106,14.78491,15.38691,16.27962,16.9843,17.41626,17.7607,18.51981,18.97367,19.45697,20.03321,20.5303,21.00465,21.10086,21.71514,22.07622,22.32318,22.07442,21.66872,21.86135,22.45996,22.26605,22.01106,22.03335,22.15915,22.48174,22.43888,22.57393,22.72031,22.39185,23.01779,23.82617,24.01966,24.33872,24.45777,24.61643,25.02945,25.25647,25.32607,25.60325,25.9554,25.94803,25.70695,25.98839,26.6174,26.87776,26.57913,25.69215,25.081,24.69733,24.65532,24.13687,23.31648,22.42364,21.53948,21.10472,20.14326,19.19587,17.89078,16.87718,15.66268,14.76779,13.99178,12.76682,11.5771,10.61368,9.850463,8.826265,7.600111,6.127265,5.328401,4.663989,3.639627,2.091268,1.1386,0.2009898,-0.3522395,-0.8186517,-1.33078,-2.188269,-3.153961,-3.933282,-4.568341,-5.183672,-6.087334,-6.606617,-7.252623,-7.98052,-9.00025,-10.0101,-10.46035,-10.57132,-11.31785,-12.0311,-12.66528,-13.31178,-13.71096,-14.22722,-14.54684,-14.98296,-15.17648,-15.42197,-15.77579,-16.15549,-16.03867,-15.97951,-14.95891,-13.48039,-12.90261,-13.05971,-13.4137,-14.15519,-15.04498,-16.53844,-17.96254,-19.19975,-19.82525,-20.94322,-22.40649,-23.34074,-23.96121,-24.66275,-25.21627,-26.03069,-26.8674,-27.56226,-27.85173,-28.58106,-28.72754,-28.2593,-27.94736,-27.56844,-26.98294,-26.41794,-25.63273,-24.91082,-23.72431,-22.91316,-22.0498,-20.61296,-19.08038,-17.26066,-16.1338,-14.92875,-13.74645,-12.15135,-10.3059,-8.731246,-7.281806,-5.876225,-4.530818,-2.911941,-1.317058,0.3218699,2.238406,3.857495,5.379691,6.791259,8.265707,9.794236,11.31333,12.36857,13.98895,14.54604,15.29693,16.41569,17.00104,18.15981,18.63763,19.12436,19.31198,19.77889,20.18937,20.33235,20.03597,19.91356,19.97669,19.5083,18.91838,18.43053,18.0458,17.38752,16.43185,15.54312,14.58185,13.78436,13.38533,12.57445,11.1939,9.527664,8.231881,7.119611,6.024499,4.826901,3.437503,2.364216,0.8654339,-0.3918016,-1.423615,-2.670934,-3.825545,-5.084081,-6.122363,-7.023353,-7.897313,-8.576331,-8.697419,-8.789129,-9.097002,-9.549063,-9.374983,-8.726457,-7.709926,-6.648816,-5.304798,-4.499301,-3.403301,-2.925874,-3.530112,-4.15571,-4.912701,-5.292194,-5.773663,-6.107417,-6.296548,-6.627908,-6.908694,-7.368532,-7.643903,-7.599998,-7.99079,-8.406005,-8.551096,-8.644454,-9.068351,-9.22587,-9.542702,-10.11639,-10.58595,-10.51047,-11.01465,-10.6303,-10.42817,-10.29251,-10.21086,-10.89387,-11.14364,-11.95641,-12.16557,-12.68254,-13.82848,-14.53016,-15.78407,-16.52151,-17.40849,-18.39256,-19.40852,-20.5533,-21.65678,-22.52421,-23.47693,-23.97278,-24.6831,-24.95798,-25.24129,-26.28444,-26.92967,-27.40448,-27.72405,-27.66264,-27.95887,-28.13212,-27.80222,-28.40151,-27.8172,-27.5602,-27.03073,-26.39966,-25.9473,-25.20929,-24.40062,-23.31239,-22.49242,-21.58186,-20.4546,-18.97434,-17.7552,-16.50017,-15.42548,-14.06192,-12.5415,-11.02872,-9.819971,-8.176011,-6.741278,-4.876316,-3.17062,-1.488282,0.389094,1.812432,3.620312,5.050932,6.744283,8.313718,9.868477,11.2909,12.73616,14.46471,15.94438,17.15509,18.44037,19.93741,21.64579,22.92675,24.35405,25.55367,26.75965,27.85758,28.51942,29.47243,30.3229,31.34176,32.3797,32.67111,33.09426,33.74897,33.61805,33.05532,32.57604,32.44814,32.68863,32.93364,32.85956,33.04597,33.39238,33.94337,34.3037,34.42047,34.68575,35.63833,35.91882,36.40381,37.02737,37.57074,37.6919,38.25019,38.63448,38.95444,39.74404,40.7599,41.37438,42.56286,42.50065,42.81538,42.64525,42.47984,42.48912,42.04705,41.66927,40.99441,40.47737,39.80463,38.57601,37.66004,36.73094,35.54787,34.13539,32.74923,31.55185,30.44139,28.85413,27.33663,25.40731,23.53647,21.76729,19.37981,17.49216,15.35606,13.60136,11.43486,9.292878,7.415559,5.425361,2.928878,1.399863,-0.5720602,-2.515917,-4.736089,-6.280831,-7.934106,-9.688784,-11.36634,-13.31392,-14.49749,-15.71944,-17.29353,-19.00546,-20.28839,-21.83114,-22.59508,-23.42529,-25.02371,-25.82966,-26.14782,-26.31499,-26.84674,-27.03191,-27.40123,-27.89542,-28.24238,-28.2289,-28.354,-28.02129,-28.17369,-27.84073,-27.37092,-26.62006,-26.59303,-25.81486,-25.15299,-24.55451,-24.024,-23.49126,-22.77075,-21.63127,-21.12934,-21.09533,-20.98027,-20.44582,-18.9126,-17.82036,-17.64951,-17.91132,-17.98461,-18.27206,-18.95945,-20.00512,-20.48714,-20.25296,-19.91762,-19.54412,-19.8915,-19.87153,-19.58264,-19.16402,-19.14835,-19.3653,-19.35267,-18.78964,-17.87615,-17.72793,-17.02705,-16.66696,-16.12758,-15.56488,-15.01459,-14.55999,-14.28544,-13.70033,-12.85292,-11.91596,-11.35753,-10.91496,-9.908127,-9.020785,-8.108266,-7.372025,-6.700045,-6.105312,-5.488415,-4.920454,-4.384966,-4.258,-3.735384,-2.951181,-2.428406,-1.584333,-1.341015,-0.7775859,-0.2777824,-0.1136774,0.3356198,0.6668352,0.9832191,1.249826,1.400203,2.098762,2.156568,2.077575,2.290147,3.081372,2.98639,2.871752,2.926736,3.627154,3.600281,3.698933,3.881524,4.36959,4.438712,4.487958,4.516142,4.335286,4.700457,4.581719,4.655382,4.733334,4.80313,4.820009,5.028304,5.201588,5.60339,6.513256,6.452525,7.009633,6.943488,7.309915,7.207534,7.626816,7.99766,8.476289,8.956834,8.923217,8.790921,9.203743,9.817631,10.02537,10.05607,10.55505,10.4749,10.81382,11.73497,12.69874,12.93828,13.53813,13.45055,13.76314,15.09368,16.26492,17.1059,16.99162,17.03463,17.13242,17.6382,17.53313,17.72445,18.36123,18.6524,18.54119,18.68766,18.63964,18.12931,17.73978,17.50505,17.40526,17.31989,17.79796,18.29424,18.58204,18.88376,19.14204,19.86518,19.849,20.17476,20.59447,20.93184,21.57593,21.52593,22.15881,22.30806,22.68274,22.77291,23.31236,23.63258,23.6214,23.72483,23.92475,23.76744,23.51558,23.16632,22.89688,22.64971,22.15078,21.77231,21.54328,20.87102,20.15061,19.13699,18.41986,17.33935,16.5215,15.7716,14.79601,13.27008,12.3296,11.28189,10.19161,8.369239,7.016322,5.655201,4.160068,2.576947,1.558445,-0.1929197,-1.600845,-3.234665,-4.306724,-5.646977,-7.365705,-9.124093,-10.84949,-12.09741,-13.25798,-14.31758,-16.12544,-17.35203,-18.42362,-19.31146,-20.25344,-21.40409,-22.2641,-23.17635,-24.32771,-25.20092,-25.71829,-27.01746,-27.7416,-27.98129,-28.5748,-29.60034,-30.17402,-30.78398,-31.38756,-31.73133,-32.14351,-32.44698,-32.75738,-32.66167,-32.94535,-32.95815,-32.78486,-32.15175,-32.06892,-32.17336,-32.15507,-31.55085,-29.85711,-28.67274,-28.30586,-28.21989,-28.10049,-27.72972,-28.08183,-28.07382,-28.39711,-28.74243,-29.01804,-29.78354,-30.74091,-31.3459,-32.88984,-33.46345,-33.88042,-34.02131,-34.49041,-35.0192,-35.14964,-35.5656,-36.01595,-36.17342,-36.2053,-36.25249,-36.34686,-36.06851,-35.83739,-36.02829,-35.83005,-35.6915,-34.68328,-34.73013,-33.64337,-33.06431,-31.90188,-31.23116,-30.3238,-29.10593,-28.02772,-27.14942,-25.55233,-24.66814,-23.27223,-21.69797,-20.33176,-18.67667,-17.25275,-16.04585,-14.28566,-12.39116,-10.82036,-9.185339,-7.830445,-6.105691,-4.550478,-3.072239,-0.9306708,0.3640037,1.869941,3.301545,4.871681,6.296062,8.017788,9.321008,10.51981,11.84174,13.26777,14.16969,15.41862,16.3036,17.33764,18.06437,18.48409,19.59005,20.49164,20.92718,21.01146,21.44867,21.88636,22.24252,22.09736,21.87432,21.56174,21.1141,20.71285,20.50689,20.2718,19.89737,19.49313,18.87078,18.04718,17.55146,17.07798,16.29767,15.48613,15.03217,14.69917,14.24493,13.82189,13.26674,13.3677,13.60973,13.43037,13.55595,13.52726,14.18316,14.77337,15.45932,15.64447,15.14374,15.44097,15.47123,14.91564,14.86506,14.78746,14.98763,14.83496,14.79489,14.70381,14.70399,14.62955,14.40989,14.18521,14.66151,14.52104,14.30828,14.40389,14.47858,14.62982,14.56865,14.40317,14.1979,14.20169,14.19137,14.0006,14.00191,13.82498,13.74075,13.76659,14.07287,13.96905,13.64853,13.77246,13.36929,13.37697,13.19112,13.44382,13.28041,13.01653,12.58703,12.87178,12.71377,12.45694,12.12929,11.71407,11.89388,11.64858,11.42362,11.30124,11.00453,10.65628,10.26903,9.993184,9.904452,9.661777,9.56369,9.740444,9.606904,9.246322,9.376052,9.249208,9.642216,9.430886,9.747187,10.14337,10.21095,10.40066,10.69296,10.80502,10.90913,10.94295,10.8315,10.84356,11.33837,11.11948,10.93028,10.91503,10.70425,10.89746,10.74425,10.56014,10.50568,10.17367,9.888293,10.15663,10.25481,10.67845,10.38901,9.880772,9.826878,10.23008,10.37589,10.12417,10.04902,10.13092,10.81557,11.0155,10.93476,10.97117,10.17333,10.28556,9.940108,10.13498,10.26107,10.78469,11.40981,11.80928,11.98471,12.48835,13.04339,14.06923,14.17273,14.4692,15.11562,15.69749,15.84226,16.2605,16.78865,17.00202,17.12888,17.26369,17.69956,18.19346,18.38076,18.32712,18.38957,18.90026,18.82819,18.51758,18.35621,18.06238,17.98243,18.10992,17.65734,17.0434,16.83339,16.45124,16.08405,15.4606,15.02552,13.81107,13.34975,12.83433,11.81344,11.10008,10.09986,9.1977,7.834694,6.483422,5.260032,4.053415,2.968714,0.9582927,-0.9938567,-2.846639,-4.434372,-5.971978,-7.464168,-9.100307,-10.00784,-11.0554,-12.38155,-13.91025,-14.98586,-15.97111,-17.02062,-18.10418,-19.16986,-20.92015,-21.68204,-22.71196,-23.50179,-24.53101,-25.19002,-26.94951,-28.10755,-28.95394,-30.14266,-30.93651,-31.57903,-32.54827,-33.3451,-34.24917,-34.72915,-35.61966,-36.27748,-37.05388,-37.03742,-37.79499,-38.41697,-38.62099,-39.30898,-39.77081,-39.90505,-39.47331,-39.255,-38.50802,-38.52165,-39.00227,-38.83257,-39.3757,-39.94527,-40.59203,-41.30681,-42.29921,-43.1031,-44.50975,-45.63949,-47.14696,-48.78895,-49.09382,-49.86903,-49.73819,-50.05397,-50.52659,-50.93132,-51.00967,-51.10749,-51.06376,-50.99813,-50.6281,-50.95049,-50.65073,-50.03309,-49.27006,-48.66302,-47.41634,-46.43994,-45.69916,-44.51902,-43.2527,-41.78761,-40.29345,-38.86097,-37.07808,-35.47147,-33.46322,-31.87055,-29.82195,-27.77879,-25.74016,-23.52243,-21.53333,-19.45858,-17.5709,-15.26731,-13.27276,-11.32483,-9.204284,-6.895686,-4.985671,-3.080787,-1.148901,1.091275,2.516137,4.072287,5.887962,7.323089,8.510263,9.958277,11.07236,12.07571,12.4453,13.5862,15.12424,16.55981,17.84445,19.00672,20.20117,21.4404,21.77044,22.42228,22.50898,23.54748,23.81264,24.20536,23.95427,23.76918,23.59115,23.69614,23.24183,22.81186,22.56335,21.8353,20.92967,20.87567,20.16675,19.67513,19.37736,18.18156,17.18728,16.51122,15.72609,15.25278,14.94943,14.53272,13.68123,13.66681,13.09321,13.66693,13.91353,13.8191,14.87149,15.42781,16.33355,17.14275,17.05514,17.18156,17.45275,17.98522,17.7173,17.84687,18.00608,18.3161,18.58693,18.69195,18.21952,18.48301,18.41205,18.76156,19.01941,19.63587,20.48647,20.43229,20.44844,20.77593,21.06585,21.40073,21.58739,21.69933,22.0708,22.15546,22.78106,23.13681,23.59481,24.03103,24.13159,24.48111,24.25019,25.05767,25.49284,24.66299,24.85639,26.00353,26.23282,25.68499,25.09911,25.13212,26.3358,26.4211,26.00715,24.91013,24.39218,25.50641,25.72685,24.87025,23.3996,23.26234,24.21632,24.24604,23.54524,22.11993,22.07251,22.79253,22.5093,21.86135,20.92535,20.12861,20.61079,21.38772,20.59221,19.79903,18.88888,19.79534,20.48314,20.10304,19.41994,18.79862,19.45091,19.8981,20.01441,18.77714,17.88483,18.97502,19.81092,19.61999,18.34226,17.43962,18.53038,19.80569,19.7637,18.88483,18.1414,18.55685,19.711,19.70109,18.64599,18.33906,18.8007,19.55064,19.65131,18.59466,17.50319,17.6192,18.3179,17.60233,16.28299,16.20738,16.98288,18.16967,18.49203,17.82296,17.67315,17.9538,19.5169,20.46471,19.7554,19.61656,20.35776,21.49546,22.12292,21.51078,21.41591,21.97054,22.36266,22.77346,21.82221,20.98443,20.88047,21.55854,21.55842,20.5128,18.45267,17.72634,17.90557,17.63625,15.90894,14.07846,12.70378,12.51623,11.83745,9.820519,7.543724,6.239236,5.844584,4.645132,2.356923,-0.06923022,-2.01914,-2.77052,-3.883258,-6.720162,-8.389047,-9.957989,-11.65459,-13.02422,-14.64092,-16.6554,-18.3498,-20.0367,-21.70355,-23.44074,-25.04868,-26.37515,-28.0302,-29.68431,-31.35116,-32.15122,-33.90173,-35.56954,-36.66871,-38.11288,-39.34138,-40.53439,-42.07467,-42.80237,-43.58354,-44.56804,-45.09778,-46.10971,-46.22884,-46.44662,-47.01656,-46.99096,-47.24646,-47.12061,-47.03863,-47.38676,-46.81117,-46.73607,-45.97399,-46.25349,-45.73723,-45.37296,-44.58256,-43.59962,-42.18109,-40.88571,-39.36865,-39.14279,-39.02378,-38.51083,-38.32405,-37.93051,-37.76048,-37.90601,-38.39191,-38.75341,-39.81429,-40.50305,-41.54813,-42.71108,-43.74967,-44.85652,-45.0337,-45.49121,-45.81225,-45.79267,-46.37576,-46.33695,-46.65911,-46.57879,-46.5952,-46.73941,-46.27423,-45.84672,-45.8769,-45.51226,-44.60463,-44.01236,-43.19541,-42.32739,-41.05224,-40.38751,-39.52579,-38.07526,-37.29333,-36.26136,-34.71566,-33.34836,-31.59992,-30.095,-28.76173,-26.62025,-25.11958,-23.22022,-21.72671,-19.73843,-18.30297,-16.17854,-14.41845,-12.51352,-10.39925,-8.434101,-6.043233,-4.114306,-2.140888,-0.1209593,1.809256,3.663673,5.937514,7.557865,9.627172,11.57792,12.87081,14.29823,16.03773,17.25445,19.04937,20.29198,21.62968,23.40326,24.51744,25.57119,26.44836,27.32697,27.98917,28.96591,28.73199,29.29247,29.79606,30.34745,30.39104,30.43853,30.27441,30.47682,30.29394,29.88828,29.55565,28.90324,28.97448,28.20351,27.4534,26.53921,26.11509,25.6381,25.00594,24.29999,23.94036,23.18672,23.14647,22.81941,22.8134,22.98827,23.54011,23.95385,23.98568,23.40441,22.82276,22.30626,22.54178,22.20612,21.56879,21.43969,20.77074,20.33867,19.71379,19.48236,18.717,18.57643,18.0666,17.82642,17.48997,17.07566,17.46687,16.93708,16.54127,16.40423,16.00068,16.18326,15.5716,15.21919,14.69409,14.29531,14.09153,13.67929,13.40145,13.13209,12.91758,12.30354,11.97731,12.18686,11.88997,11.32408,10.96286,10.49542,10.53841,10.20601,10.0847,10.04239,9.834359,9.562186,9.727268,9.669939,9.28537,9.206343,9.477258,9.612445,9.568431,9.839932,9.905569,10.1482,10.38568,10.72983,10.74365,10.26033,10.58788,10.65035,10.29077,10.28646,10.25323,10.29104,9.903279,9.762548,9.231538,9.339705,9.644079,9.275794,9.756297,9.199119,9.335804,9.531634,9.29054,9.044198,9.085217,8.968632,9.019383,8.582128,8.717466,8.899475,8.650131,8.651358,7.877266,8.045627,7.562387,7.47795,7.39486,6.938833,6.871742,6.741545,6.379485,6.314164,6.034448,5.789101,5.627116,5.191924,5.360728,4.895858,5.244346,4.751537,4.707331,4.436254,4.039557,3.765112,3.381743,3.837731,3.573855,3.579699,3.693133,4.055523,4.399589,4.351443,4.449605,4.267113,3.916118,4.819515,4.695044,4.752002,5.14029,5.474826,5.951121,6.062641,6.613168,7.270942,7.767403,7.966793,8.966445,8.937616,9.594527,9.863146,10.1295,10.35401,10.6861,10.85051,11.19955,11.28389,11.22382,11.02052,11.40193,10.92369,10.89388,10.4039,10.12719,9.556715,8.739983,8.139488,7.949667,7.000194,6.203445,5.53289,4.589436,3.806371,3.470122,2.373691,1.605186,0.7310822,0.08844246,-0.7849632,-1.713993,-2.722541,-3.692347,-4.292927,-5.204672,-6.220752,-7.130026,-7.878659,-8.763368,-9.748075,-10.47475,-11.13218,-12.17166,-12.50761,-13.36146,-13.58503,-14.48381,-14.79032,-15.39405,-16.04143,-16.29347,-17.01293,-17.1373,-17.41524,-18.2235,-18.47967,-19.02693,-19.27741,-19.80338,-20.6057,-20.20944,-21.19047,-21.67667,-21.72205,-22.27626,-21.94485,-22.4663,-22.14428,-22.31403,-22.12928,-22.01907,-21.9819,-23.04983,-21.16715,-20.57252,-20.4869,-20.31093,-20.43858,-20.20028,-20.66554,-20.46765,-20.9192,-20.97727,-21.15329,-21.7534,-21.74353,-21.89168,-21.85487,-22.62565,-22.70086,-23.19078,-23.33772,-24.00366,-24.93783,-25.14861,-25.65443,-25.73337,-25.5987,-26.69126,-26.70739,-26.36149,-26.70934,-26.56576,-26.57228,-26.04223,-25.68965,-25.49643,-25.14273,-24.73805,-24.70351,-23.80016,-22.87808,-22.57567,-21.93656,-21.18993,-19.9682,-19.18421,-18.12137,-17.27533,-16.15129,-15.05249,-14.5007,-13.13813,-12.10382,-10.71607,-9.919884,-8.779398,-7.776108,-6.665455,-5.709887,-4.868754,-3.526414,-2.536723,-1.423973,-0.5766234,0.3275881,1.476286,2.03861,3.181821,4.255644,4.729992,5.912389,6.260463,7.075645,7.916848,8.757244,9.797777,10.34168,10.83108,11.5546,12.15587,12.69539,12.85097,13.29112,13.65866,13.70216,14.08315,14.34472,13.88412,13.98398,13.65146,13.85915,13.4614,12.65404,12.40194,12.06998,11.59071,11.41237,10.44864,10.17382,10.32161,8.767844,9.031161,9.120274,8.404757,8.165109,8.014535,7.909603,7.394874,7.051382,7.014168,7.202468,7.352168,8.572263,7.480168,6.939375,7.11516,6.937127,6.982371,7.266409,7.947336,7.388183,7.230267,6.280865,6.173168,5.928774,5.85815,5.258917,5.005882,4.627635,4.513896,4.600353,4.562222,4.301197,4.672283,4.686565,4.718793,5.116611,5.080512,5.435736,6.273432,6.314705,7.116734,7.432928,7.446141,7.982893,8.226204,9.137009,9.805341,10.02573,10.61918,11.18323,11.51195,12.114,12.77329,13.56106,13.57129,13.97283,14.24088,14.52132,14.59743,14.86028,15.83101,15.55536,15.4594,15.6916,15.91923,16.02488,16.37883,16.0246,15.84325,15.99148,15.8393,15.49173,15.05726,15.27144,14.81307,14.62689,14.43174,14.01159,14.28161,14.04082,13.43137,13.62021,13.78958,13.04279,13.16554,12.63016,12.49715,11.81333,11.75446,11.31101,10.94293,10.45694,10.49081,9.305954,9.569464,8.839288,8.043674,7.718919,7.544034,7.146215,6.895893,6.345745,6.44495,5.356688,5.630034,5.164573,5.132311,4.87351,4.64484,4.413601,5.125752,5.154444,4.158426,4.338079,4.343612,4.246626,3.95072,4.0329,4.094785,3.921397,4.220601,3.453891,3.12721,3.126609,3.681138,3.779787,3.618782,3.760081,3.323728,2.58925,2.669732,2.49795,2.715404,1.9417,1.990568,1.50906,1.809672,1.578725,1.298473,1.516954,1.49843,1.285789,1.304665,1.257294,1.151321,1.259378,1.275706,1.47419,1.17256,1.233522,1.235261,0.9954521,0.904179,0.7430204,0.7142083,0.6977101,0.4689555,0.2956815,-0.3956128,-0.7671493,-0.5918303,-0.9012221,-1.067066,-1.830712,-2.479011,-2.799,-2.98564,-3.505283,-3.905171,-4.218228,-4.338704,-5.343259,-5.625811,-5.712803,-6.022093,-6.746693,-6.842962,-7.648906,-8.079387,-8.402687,-9.114236,-9.263631,-9.422033,-9.776335,-10.35981,-10.19093,-11.00179,-10.73442,-11.15992,-12.30198,-11.95045,-12.39769,-12.08455,-12.85027,-12.49926,-12.92489,-12.60912,-12.82395,-12.63285,-12.91081,-12.65917,-13.10437,-12.71719,-13.05355,-12.93243,-13.09567,-12.76252,-12.84104,-12.7195,-13.38178,-12.72547,-13.13563,-13.12957,-13.20193,-12.87337,-13.08784,-12.94922,-12.74728,-11.94995,-11.87999,-12.2014,-11.7585,-11.80383,-11.83829,-11.41071,-11.94437,-11.81085,-11.45473,-12.604,-11.96235,-12.80877,-13.51393,-13.39339,-13.36093,-13.80227,-14.67054,-15.52021,-15.2539,-16.06349,-16.40504,-17.01658,-17.03978,-17.5678,-18.16006,-17.81798,-18.22096,-17.66657,-17.92859,-17.95896,-17.52006,-17.5125,-17.05486,-16.36623,-16.0817,-15.45133,-15.101,-14.052,-13.19965,-12.61433,-11.42814,-10.97055,-10.18861,-8.924414,-8.077161,-6.959924,-5.774645,-4.403967,-3.252075,-2.663739,-0.8059738,0.510422,1.906668,3.262894,3.744879,5.295338,5.99664,7.147907,8.494173,9.308094,9.916479,10.96595,11.76604,13.00828,13.69211,14.79358,15.11651,16.44517,17.06792,17.56476,18.16764,18.53463,19.57861,19.95807,20.34817,20.34486,21.04036,21.0871,21.55173,21.27174,21.41218,21.78379,21.40307,21.68225,21.45176,21.33766,21.39642,21.18471,20.69916,20.63907,19.62939,19.12085,18.5167,18.27476,17.17794,16.66689,15.66869,15.33225,13.91957,13.38215,12.7471,12.2695,10.79009,10.38702,9.928872,9.116097,8.642994,7.770977,8.20527,7.585385,6.545059,6.154852,6.061089,5.659424,5.285099,4.867,4.429674,4.269523,3.661308,3.687731,3.509133,2.653411,2.262949,1.558064,1.367441,0.6911951,0.158727,-0.5057478,-0.4180182,-0.9364359,-0.9125457,-1.692757,-1.889009,-1.854765,-2.224386,-2.142127,-2.778002,-2.197691,-2.846358,-2.586186,-3.184542,-2.764016,-3.045597,-3.082907,-3.632537,-4.176447,-4.538982,-4.879549,-5.614665,-6.489806,-6.996681,-7.164278,-7.855199,-7.804868,-8.934763,-8.501036,-8.571486,-8.830367,-8.320987,-8.832124,-7.979663,-7.965266,-8.339747,-8.491037,-8.298428,-8.014325,-7.9919,-8.021766,-8.097738,-7.870848,-8.119302,-7.539744,-7.515073,-7.175109,-7.385981,-6.50087,-6.833913,-6.722296,-6.531323,-7.156075,-6.506973,-6.075279,-5.882777,-5.855465,-5.960258,-5.631517,-5.516686,-6.271627,-6.602182,-6.696174,-7.181604,-7.12881,-7.948138,-7.832329,-8.133631,-8.51642,-8.6823,-9.355741,-9.856184,-9.713811,-10.5755,-10.68004,-11.21256,-11.73402,-11.76286,-12.08012,-13.03562,-12.7989,-12.56373,-11.66682,-11.94769,-12.86227,-13.22918,-13.628,-14.17752,-15.23022,-16.61174,-17.64731,-18.27337,-20.43087,-21.16327,-22.39365,-24.04715,-25.08671,-26.47991,-27.90785,-28.03788,-29.68989,-30.46521,-31.33043,-32.53415,-32.89704,-34.43091,-34.34959,-34.98163,-35.39689,-35.47882,-35.56524,-35.23758,-34.71399,-34.1631,-33.34705,-32.28546,-31.25059,-30.4785,-28.16297,-26.70877,-25.07838,-23.46584,-21.77346,-20.24253,-18.19384,-17.53032,-16.19419,-15.47469,-13.91824,-12.659,-11.56377,-10.28753,-8.893429,-7.283399,-5.070799,-4.287247,-2.402746,-0.6156558,1.919509,3.862026,6.042873,7.935995,9.743985,12.44128,13.82236,15.9895,18.26245,20.18427,21.91557,24.28754,25.39942,27.45418,28.96809,30.49962,32.90329,34.04102,35.4842,37.19727,38.70483,39.47277,40.59148,41.6142,42.77839,43.69839,44.4844,45.35158,45.45164,46.00712,46.87484,46.43136,46.50474,46.27562,46.38203,45.23867,44.78585,43.20057,42.91434,41.77077,41.93941,41.46448,41.47079,41.04304,41.54987,41.45282,42.332,42.91559,43.98579,44.81688,45.60545,47.09693,49.08468,50.06623,50.30129,50.60646,50.93482,51.5004,51.14929,51.15861,50.686,50.37578,49.9994,49.18509,48.54458,48.28888,47.16974,46.09409,45.13202,43.80973,42.57899,41.22196,39.23418,37.47408,36.02478,34.27909,32.10411,30.2592,29.25721,26.45841,24.80554,23.37105,21.0759,19.39201,17.48107,15.43419,13.36983,11.79696,9.530249,8.00281,6.460404,3.923945,2.049103,0.5185608,-2.443933,-4.446616,-6.354128,-8.273932,-10.19652,-12.56562,-14.21066,-16.59852,-18.33754,-20.624,-21.93211,-23.51763,-24.21497,-25.88887,-26.61557,-27.49169,-28.84013,-28.96559,-29.91333,-30.3385,-30.4861,-31.03157,-31.26668,-31.20351,-31.31485,-31.15624,-31.01097,-30.81882,-30.58612,-30.0217,-29.75998,-28.73441,-27.94541,-27.28385,-26.38787,-25.1165,-24.66604,-23.58771,-22.48359,-21.44042,-20.16526,-19.68009,-18.31699,-17.25904,-17.11669,-16.06238,-15.85164,-16.35712,-15.84415,-16.57058,-16.91003,-17.63169,-17.67322,-17.4779,-17.08913,-16.97125,-16.76354,-16.82505,-16.84231,-16.14602,-16.15023,-16.1251,-15.15308,-15.60673,-14.85112,-14.53457,-13.97329,-13.43161,-13.24379,-13.57158,-12.87487,-12.71597,-12.43183,-12.67116,-12.90415,-12.36116,-12.61501,-12.78468,-12.80213,-12.29437,-12.15981,-12.17587,-12.5296,-12.64862,-12.83382,-12.17745,-12.63636,-12.79246,-12.57171,-11.93578,-11.95818,-12.85989,-12.35763,-12.2457,-11.70312,-12.55477,-12.51869,-12.45337,-13.15247,-12.63885,-12.43811,-12.97201,-12.89492,-12.92164,-13.20287,-13.10015,-13.85252,-13.73037,-13.29885,-13.49264,-14.15723,-14.23768,-14.06209,-14.12757,-14.66641,-15.29128,-15.41755,-16.1258,-15.81797,-15.622,-15.14214,-15.70737,-15.28739,-14.9896,-15.39471,-14.86775,-15.29906,-14.49796,-14.89837,-14.64178,-14.71704,-14.90034,-14.84289,-15.53045,-15.60139,-16.38704,-16.61034,-16.47224,-16.72484,-16.8307,-17.06086,-17.12666,-17.17653,-16.88988,-16.6619,-16.00738,-15.91918,-14.51405,-13.68467,-12.66122,-12.32186,-12.5097,-12.35313,-12.96465,-13.23972,-13.43036,-14.50374,-15.08165,-15.64655,-16.60305,-17.00238,-17.69851,-18.69424,-19.62071,-20.90122,-22.02615,-22.78876,-23.725,-24.47664,-24.82453,-25.5777,-26.23349,-26.04803,-26.82994,-26.39897,-26.58866,-26.94489,-26.5817,-26.93847,-26.71126,-25.84495,-25.74879,-25.28948,-25.25649,-23.66556,-22.65579,-22.46923,-20.93235,-19.6807,-18.03315,-16.93334,-15.92174,-14.51237,-12.67194,-11.12594,-9.159142,-7.983838,-6.325814,-4.044135,-2.752517,-0.974122,0.311915,3.044377,4.885494,6.869721,8.281598,10.54467,12.32997,14.36822,16.71474,18.89986,19.84508,22.28295,24.06116,25.67113,27.95012,29.28617,31.63219,33.51154,34.39909,36.80655,37.96954,39.78306,41.02828,42.0909,43.02048,45.11837,45.84007,47.47069,47.99228,49.25929,50.13185,50.81825,51.78145,51.86187,51.21896,50.27297,49.83696,48.89685,49.23089,49.14698,48.69699,48.05716,47.9567,48.5396,48.6126,49.57581,49.72079,50.45805,51.08693,51.76764,52.89886,54.44594,55.75102,57.29147,59.41893,60.55712,62.33494,62.98464,63.73929,63.93375,64.31311,64.62237,64.14491,64.79464,64.13749,64.13373,63.4383,62.92411,62.29146,61.55705,59.86731,58.78262,57.08751,55.60127,54.35475,52.38503,50.73356,49.01755,46.99735,44.93027,42.34809,40.74459,37.76035,35.60105,33.57279,30.88233,28.4798,25.16727,23.11509,20.45651,18.0286,15.51645,12.66119,10.67666,7.779207,5.545301,3.579919,1.02354,-1.520191,-3.110194,-5.485614,-7.002826,-9.398315,-11.83158,-13.09492,-15.26266,-17.15901,-18.56538,-20.31698,-21.08101,-22.63536,-23.06486,-24.72605,-25.50951,-26.608,-26.72726,-27.7214,-27.85103,-28.44806,-28.40856,-29.0412,-28.54724,-28.82978,-28.5616,-27.93611,-27.60732,-26.73029,-26.37853,-26.1908,-24.76381,-25.03509,-23.81931,-23.5341,-22.84494,-22.36582,-21.11642,-21.44106,-21.20349,-20.79033,-21.29994,-21.21337,-21.84207,-22.56094,-23.55088,-25.19064,-24.61058,-25.40522,-24.99497,-24.56717,-24.93778,-24.87824,-25.11884,-24.8801,-25.17071,-25.6382,-25.33822,-25.84314,-25.5783,-25.93609,-26.28448,-25.69641,-25.72772,-25.55384,-25.61325,-25.52826,-26.06814,-25.61212,-25.52845,-25.8457,-25.81261,-25.90732,-25.17013,-25.75984,-25.39974,-25.42341,-25.11898,-24.89123,-24.48321,-24.8573,-24.9556,-24.52259,-24.45353,-24.38742,-24.16227,-24.10422,-24.01608,-23.10424,-23.54379,-23.83102,-23.42089,-22.68188,-22.7204,-22.50109,-22.24417,-21.87182,-22.23104,-22.39023,-22.24831,-21.81686,-22.23512,-21.81298,-22.49781,-22.54309,-22.55527,-22.78725,-22.48801,-22.75291,-22.96018,-23.26258,-22.67515,-23.85562,-23.93266,-24.26926,-24.95897,-24.63847,-25.38875,-25.32806,-25.73945,-26.06933,-26.21319,-26.60382,-26.68815,-27.21598,-26.96306,-27.87964,-27.58152,-28.00744,-28.03093,-28.21633,-28.54885,-28.86198,-28.80179,-29.14825,-28.70694,-29.10401,-28.81029,-29.23208,-28.74784,-29.22648,-28.86774,-29.83309,-28.89017,-30.055,-28.11994,-27.60895,-26.56027,-26.28491,-26.52215,-25.65217,-27.09659,-26.13046,-26.95848,-27.24018,-27.46357,-28.62325,-28.63078,-29.38899,-29.24083,-30.21784,-30.9818,-31.3739,-32.26905,-32.13932,-33.16182,-33.60578,-34.02437,-33.90077,-33.56997,-33.97626,-33.8611,-33.22284,-32.96367,-32.24227,-32.21843,-31.32784,-30.85294,-29.68332,-28.67474,-27.47975,-26.42872,-25.23547,-23.17648,-22.77818,-20.70126,-19.1223,-17.24057,-15.34611,-13.60205,-11.74469,-9.691004,-7.412065,-5.094255,-2.602178,-0.008802026,1.937002,4.483594,7.022936,9.599466,12.19473,14.84427,17.35338,19.53395,22.9133,25.22261,27.73602,29.90039,32.25759,35.88593,37.38497,39.9034,41.81944,44.04556,46.50091,48.41859,50.52466,52.27078,53.80833,55.42319,57.40922,58.47492,59.74625,60.78734,62.47606,62.66672,64.31464,63.97718,64.96118,65.40387,65.67247,65.76155,65.34451,66.05864,65.49469,65.81075,64.06216,63.26819,62.47478,61.3284,60.80849,59.96749,59.85479,59.67735,60.19998,60.44777,60.38971,60.36889,61.54723,62.25714,62.84162,64.115,65.65682,66.65807,67.98082,69.59776,70.07739,70.84727,70.92202,71.89638,72.56122,72.18426,73.01735,72.63497,72.74005,72.36578,71.86681,71.45919,70.38126,69.60098,68.0397,67.20919,65.79806,63.44612,62.7408,59.39912,57.8923,55.52878,53.55385,51.14374,48.29627,46.54523,43.72893,40.8771,38.2808,35.31779,32.64401,29.40678,26.60259,23.69813,20.59598,17.38903,14.4121,11.54651,8.260725,5.727468,2.746291,0.1950325,-2.893715,-5.376529,-7.829313,-10.38751,-12.48722,-14.8908,-17.22434,-19.08069,-21.74885,-23.48825,-24.87299,-26.56777,-28.16184,-29.52723,-30.34979,-31.5902,-32.09333,-33.00036,-33.60849,-33.85042,-34.70137,-34.30108,-35.30844,-34.43645,-34.80807,-33.94655,-33.21719,-32.06048,-30.72392,-30.2056,-28.46664,-27.69712,-25.78679,-25.0584,-23.43499,-22.53778,-20.87127,-20.41678,-18.76659,-18.75835,-17.45554,-17.05543,-16.79598,-16.19956,-16.14059,-16.16278,-16.98841,-17.37237,-18.79801,-18.87918,-18.96728,-19.47802,-18.9221,-19.21158,-19.2934,-19.49875,-19.60641,-20.31826,-20.44762,-20.69991,-20.60269,-20.96003,-21.43597,-21.66775,-22.05752,-23.33024,-23.27439,-24.20578,-22.87896,-23.6776,-23.8468,-23.94958,-24.3844,-24.24991,-24.22398,-24.53191,-24.33128,-24.84127,-24.29489,-24.78608,-25.04133,-24.10016,-24.6355,-24.09381,-24.43543,-24.80149,-24.327,-24.94371,-24.25489,-23.92826,-23.73682,-23.64939,-23.27591,-22.72433,-22.66258,-22.44599,-22.28281,-22.36328,-21.64704,-21.6879,-21.31391,-20.97315,-20.69013,-20.51313,-20.32947,-19.8154,-19.78921,-19.17462,-18.88228,-18.32092,-18.88878,-18.48544,-17.99347,-18.0323,-17.45063,-17.75972,-16.60715,-16.74744,-16.39332,-16.01031,-15.67879,-15.60538,-15.57777,-15.57239,-15.17351,-15.78128,-15.76754,-15.97235,-16.18402,-16.46728,-16.78914,-16.45262,-16.74553,-16.29088,-16.42308,-15.16346,-15.33046,-15.10708,-14.73917,-15.00453,-14.06557,-14.83871,-14.46081,-14.38323,-13.67248,-14.04881,-14.30515,-14.32077,-13.66802,-13.96761,-13.56159,-13.76735,-13.40459,-13.20533,-13.07231,-12.82461,-12.98823,-12.43985,-12.05638,-12.07126,-11.61877,-11.87846,-11.34059,-11.16288,-11.61843,-11.15026,-11.5244,-10.90043,-10.49945,-9.768762,-9.787424,-9.713497,-9.331339,-7.819292,-7.779932,-7.517206,-7.705299,-7.536584,-7.400183,-9.158295,-8.710053,-9.524462,-9.799159,-9.931456,-10.87116,-11.13137,-11.74276,-12.44263,-12.75027,-13.41676,-13.52873,-13.98103,-15.30565,-15.5408,-16.54043,-16.809,-17.8376,-18.03081,-18.78512,-18.62444,-19.41321,-19.5981,-19.85725,-19.77405,-19.81866,-19.67848,-19.87092,-19.26137,-18.7218,-17.72412,-17.04463,-15.94487,-15.02149,-13.88541,-12.25937,-10.93677,-9.695655,-7.922786,-6.27019,-4.786594,-2.902743,-0.591667,1.014562,3.612438,5.857065,7.85302,10.38002,12.00019,14.1883,16.3994,18.58298,20.56093,22.58933,24.95748,27.00125,29.27721,31.59784,33.54847,35.37392,37.1335,39.09293,40.21628,41.55058,42.70977,43.99733,45.30489,45.4722,46.34608,47.0876,47.2002,47.70334,47.28801,47.58349,47.60932,47.47569,46.87126,46.54564,46.0097,45.44125,44.45799,44.40978,43.06356,43.00156,41.47818,40.91696,40.34488,38.80514,38.32813,36.80071,35.39666,34.85419,33.40321,32.63446,30.49755,29.33681,28.49214,28.07364,27.45415,27.37055,27.18658,27.14909,27.67984,28.25258,28.91139,28.13895,28.8433,28.95235,28.99652,28.57621,28.94341,29.99615,29.7817,30.82914,30.93022,30.80762,31.94325,31.64327,32.20353,32.02599,32.11536,32.0577,31.48962,31.10609,30.38076,29.48402,29.16426,28.25319,27.18502,25.89382,24.98883,23.61413,22.35984,20.5668,19.55936,17.78633,16.9125,14.8065,13.58888,11.68497,10.62239,8.999378,7.326679,5.689272,3.895112,2.017675,0.9349118,-0.9252435,-2.748946,-4.540362,-5.932448,-6.870929,-9.225083,-10.80801,-12.34227,-13.9966,-15.0971,-15.75747,-17.45141,-18.83742,-19.80509,-20.73309,-21.12795,-21.41891,-22.48062,-23.32719,-23.85502,-24.72305,-25.8899,-25.84205,-26.23949,-26.72109,-26.73527,-26.704,-26.45461,-26.28525,-25.92684,-25.95668,-25.97087,-25.43857,-25.04041,-24.45112,-23.71444,-23.6972,-22.68099,-22.13772,-21.43595,-21.56287,-20.94013,-20.40967,-19.78255,-18.42362,-18.57107,-17.38361,-17.64522,-16.50258,-16.31342,-17.11619,-16.2901,-16.77974,-16.81233,-16.45966,-16.91628,-17.60449,-18.28207,-18.06547,-18.0462,-17.18976,-17.82895,-16.79417,-17.00032,-16.46609,-16.2026,-15.70242,-15.29475,-15.58508,-14.62929,-14.46333,-14.36457,-13.68942,-13.41393,-12.82872,-12.37101,-11.86245,-11.59396,-11.38889,-10.28772,-10.89326,-9.913826,-10.134,-9.656685,-9.481102,-9.097242,-8.869565,-8.51132,-8.345827,-7.967087,-7.601642,-8.137499,-7.166245,-7.406149,-7.18783,-7.12892,-6.508941,-6.528416,-6.077583,-6.233115,-6.158458,-5.609168,-6.024796,-5.283323,-5.463904,-5.488839,-4.935136,-4.944114,-4.805407,-4.15361,-4.884592,-4.179527,-4.000629,-3.454183,-3.665996,-3.761577,-3.231129,-3.279326,-2.619078,-2.312762,-2.307711,-2.925988,-2.730775,-2.524329,-2.384765,-2.534873,-2.464027,-3.415602,-3.093715,-3.357181,-2.453357,-2.788774,-1.50966,-1.927636,-1.355081,-0.7393225,-1.068978,-0.2842528,-0.1967663,-0.2975828,0.416819,0.8674837,1.657814,2.121024,2.736792,3.261115,3.754192,4.856513,5.038074,5.442123,5.988994,6.574984,7.417938,8.223454,8.833286,8.679206,9.223342,8.777413,9.822576,9.289861,9.660924,10.46699,9.99682,10.38885,10.47611,10.5162,10.63765,11.13972,11.54769,11.12683,11.37322,11.36866,12.20835,11.95935,12.67433,12.9318,13.46594,13.90754,14.69574,15.20867,15.90032,16.19001,17.28172,17.58522,18.30495,18.49032,19.1473,19.6423,19.61835,20.36559,20.37225,21.34935,21.14241,21.85864,21.75941,22.32058,22.33301,22.78341,22.86663,22.68164,22.80436,22.35843,22.45642,21.44664,21.33601,20.93632,20.19999,19.71487,18.88155,18.35191,17.55764,17.00736,15.84709,15.34404,14.19047,12.85024,12.1179,11.3841,9.976504,9.196257,7.504121,7.121883,5.953671,4.936734,3.430831,2.694409,1.586777,0.579567,-0.1184866,-1.735606,-2.677785,-3.848213,-4.771935,-5.280345,-6.600621,-7.74926,-8.780293,-10.00885,-10.4152,-11.94124,-12.07069,-13.69962,-14.3626,-15.57981,-15.86062,-17.38837,-17.58929,-18.06171,-18.43296,-19.18177,-18.9451,-19.89767,-19.84991,-19.63914,-20.42244,-19.80693,-20.02115,-20.21468,-19.66636,-20.613,-19.92552,-20.01908,-19.57553,-20.10052,-20.25947,-20.39407,-19.69299,-19.62459,-18.19614,-19.22725,-18.59227,-19.61705,-19.63647,-20.57442,-20.84688,-21.71108,-22.4371,-23.52273,-24.56481,-26.05057,-25.9978,-26.56414,-27.20648,-27.79293,-27.77673,-29.03,-28.58608,-29,-29.19105,-29.60683,-29.52821,-29.02095,-29.50027,-28.80942,-29.59218,-28.59973,-28.69235,-27.95518,-27.56463,-26.58637,-26.07123,-25.51363,-24.37694,-23.39912,-22.35474,-21.56665,-20.28022,-19.61486,-18.22124,-17.75703,-15.80739,-15.29687,-14.14111,-12.49764,-11.17623,-10.12037,-8.709008,-6.953794,-6.113038,-4.438363,-3.402786,-1.419909,-0.8593188,0.5326658,2.056961,2.638556,4.917466,5.704478,6.381503,8.016526,8.644963,10.3071,11.48294,12.14667,13.61565,14.35372,15.32449,15.68585,16.52892,16.65151,17.48018,18.25764,18.57199,18.93708,18.59943,19.59913,18.63397,19.51098,18.66219,17.97477,18.74912,17.88025,17.86289,17.72488,18.14175,17.36663,17.80505,16.49072,16.87087,15.78412,16.2247,15.45353,15.28971,14.59296,14.35286,14.26353,13.22898,12.80808,12.70198,11.88021,13.11724,11.69628,11.7033,11.7453,12.03616,12.473,13.21302,12.11911,12.6794,11.27887,11.63904,10.29844,10.09095,9.016268,9.101321,7.853941,7.696224,6.514165,6.388332,5.727731,5.347443,5.002671,4.641859,3.929064,4.227231,3.241601,3.389949,2.771149,2.383996,2.028516,2.159527,1.897914,1.034075,1.63708,0.523307,1.139827,0.9251406,1.204158,1.078979,0.4305299,0.8631225,0.5368134,1.09566,0.9514746,0.8017168,0.8142733,1.018747,1.308489,1.457669,1.575,2.215709,2.118887,2.411424,2.980945,2.606849,2.952472,3.795799,3.420748,3.936491,3.954482,4.476718,4.630043,4.569796,5.221555,4.908867,5.160111,5.562874,5.112178,5.448048,5.651527,5.722997,6.212986,6.043721,5.537343,5.646893,5.399418,5.457338,5.113189,5.168691,4.395334,4.731753,4.681291,3.852459,3.660116,3.360158,2.927925,1.652768,2.021345,0.7659912,0.7927088,1.288131,-0.1766131,0.3061895,-0.5987873,-0.1701128,-1.371268,-1.665902,-2.187906,-2.060413,-2.580281,-2.702301,-4.041209,-4.30024,-4.674877,-5.089888,-6.068938,-6.549138,-6.924612,-7.034533,-7.171007,-8.144207,-8.86498,-8.331507,-8.702912,-9.087933,-9.615945,-9.833527,-10.20356,-10.34292,-10.76182,-11.08662,-11.04611,-11.72141,-11.16372,-11.19604,-11.49457,-11.39817,-11.72878,-11.44981,-11.98992,-12.42211,-12.70384,-11.74137,-13.81716,-12.53723,-13.81504,-13.67205,-14.00905,-14.28976,-14.30549,-14.70946,-14.77372,-15.0344,-15.13253,-15.5083,-15.25286,-15.32781,-16.17248,-15.48747,-16.69179,-14.79764,-16.23923,-14.9935,-15.72447,-14.82325,-14.69139,-14.7878,-14.09391,-14.39687,-13.31331,-13.43476,-12.24725,-13.04775,-12.07772,-11.48112,-11.33512,-10.3193,-10.03837,-9.146463,-8.835993,-7.931361,-7.378162,-6.627493,-6.108917,-5.293643,-3.914658,-3.800098,-2.647364,-1.592601,-1.003275,0.1178334,0.5013764,1.65165,2.673093,3.626491,4.731873,5.452027,5.941355,7.494332,8.218568,9.84169,10.21078,11.18077,12.31131,13.14381,13.76191,14.9999,15.63766,16.07887,16.93911,17.9687,17.69015,19.08532,18.91158,20.09511,20.2009,20.33845,21.40188,20.78591,21.1895,21.16194,20.3904,20.61156,20.67625,19.73353,20.15657,20.01792,20.38218,20.4148,21.00783,20.47838,21.6523,21.2611,21.74438,22.14333,22.33831,23.19599,23.52678,23.63755,24.48665,24.92446,25.21735,25.53111,26.12405,26.23793,26.10942,26.50916,25.87591,26.25459,25.5342,25.78775,25.63845,25.65043,24.25727,25.21146,24.1356,23.43354,22.86545,21.88184,21.20637,20.57248,19.72889,18.53702,17.81902,16.86417,16.07105,14.90079,13.63492,13.25239,10.92792,11.30999,8.311248,8.221919,6.243923,5.351526,3.593659,2.15811,0.7718119,-0.6010448,-1.955297,-3.248971,-4.816915,-7.189998,-7.842916,-9.061488,-10.88762,-11.41176,-13.40762,-14.58771,-15.75304,-16.89321,-17.99415,-19.14025,-19.88524,-20.72903,-21.31388,-22.74877,-23.08889,-24.00501,-24.32584,-24.56691,-24.57177,-24.59997,-24.80795,-24.95793,-24.63567,-24.23586,-24.60286,-22.96506,-23.66357,-22.28316,-22.51888,-20.84032,-20.97081,-19.83563,-19.84622,-18.98171,-18.82686,-18.11823,-17.31298,-16.82396,-16.87094,-15.89379,-16.03311,-15.08923,-15.3054,-15.13937,-14.76109,-15.44127,-14.65292,-14.94221,-15.21746,-14.70111,-14.88932,-14.66789,-13.63449,-13.7353,-13.53058,-13.6113,-13.02479,-13.09899,-12.6078,-12.4913,-11.77116,-11.83162,-11.25262,-11.21844,-10.78642,-11.0962,-10.3657,-10.2971,-10.25158,-9.554664,-9.794165,-9.146575,-9.116043,-8.319688,-8.728829,-7.545281,-7.816976,-6.801314,-6.732123,-5.914253,-5.726233,-5.494679,-4.800629,-4.596465,-3.73255,-3.892924,-2.659181,-2.444086,-2.081514,-1.288603,-1.237735,-0.2251571,0.3234699,1.013854,1.743568,2.391542,2.387291,4.167742,3.599449,5.250576,5.251778,6.111508,6.951614,7.504152,8.278885,9.340027,9.283782,11.12459,10.72884,12.0404,12.25015,13.55755,13.44498,14.54817,14.8532,15.6317,16.23988,17.1481,17.59915,18.23722,18.63034,19.55638,19.65053,20.54512,21.06478,21.41451,22.53868,22.49559,23.73032,23.27691,24.15539,23.98188,24.82389,24.64663,24.92432,25.35829,25.20708,26.09358,25.59961,26.63051,25.53459,26.19203,25.60687,26.81236,26.3504,26.18212,25.82227,25.58432,25.11566,24.58833,23.75848,24.51608,23.46555,24.74673,24.62139,25.75359,26.24948,26.18839,27.69919,27.70342,29.16213,29.45136,29.9954,30.48478,31.47901,31.66309,32.48342,32.90689,32.99206,33.47314,33.67082,33.45865,33.80076,33.04175,33.79657,32.87066,32.79224,31.92131,32.165,30.85373,30.24,29.87092,28.71599,28.09542,26.31996,25.67286,23.88312,22.9755,21.13438,19.43654,17.73455,15.62284,14.33151,11.90496,9.918875,7.731402,5.631788,3.72955,1.58936,-0.555437,-2.79753,-4.578519,-7.366676,-9.017279,-11.25172,-13.47148,-15.77033,-17.26092,-20.21238,-20.6846,-23.55682,-24.77301,-26.27609,-27.99869,-29.19538,-30.65048,-32.16195,-32.78288,-34.99367,-35.21869,-36.9076,-36.97301,-38.61415,-38.14443,-38.59174,-39.47594,-38.68653,-39.42597,-39.37858,-38.68093,-38.75201,-37.71398,-38.42528,-36.61828,-36.9607,-34.96179,-34.98168,-34.25608,-33.24944,-32.92209,-32.506,-31.94589,-31.31976,-30.62918,-28.34331,-27.56258,-26.38173,-26.32367,-25.63393,-25.83164,-25.3461,-25.56106,-25.99965,-27.31564,-28.48205,-30.28286,-30.8472,-33.29056,-34.01945,-35.89919,-36.37572,-37.08866,-38.75353,-38.70956,-40.08372,-40.41375,-41.72608,-42.45638,-42.61825,-43.49695,-43.76788,-44.75513,-45.01025,-45.22602,-45.45326,-46.00523,-45.90505,-45.89233,-45.92904,-45.30998,-44.5431,-44.52747,-43.36039,-42.45931,-41.12879,-40.30979,-39.25062,-37.2664,-36.06992,-34.63543,-32.76128,-31.2918,-30.41203,-28.12652,-26.9113,-24.48609,-23.15101,-20.87568,-19.86941,-17.08985,-16.15465,-14.09037,-11.75449,-10.86248,-8.284963,-6.65047,-4.951065,-2.540124,-1.443876,0.2138655,1.831482,3.849258,5.47575,7.188916,8.228798,10.01771,11.13989,12.81142,13.53459,14.84671,15.45788,17.10272,17.59593,17.74133,18.94287,18.77226,19.78601,19.3625,19.63368,19.47348,19.58666,19.61482,19.40481,19.29095,18.49958,17.89299,18.40638,17.13468,17.36166,16.51878,15.62103,15.67476,13.97438,13.84225,12.31676,12.51171,11.21342,11.39067,10.86838,10.8063,10.4776,11.9245,11.25351,12.85061,12.87054,12.36975,12.14042,11.38003,11.90315,11.60234,11.92175,10.81911,10.27042,9.820031,9.854904,9.020309,9.507912,8.202234,8.813918,8.017569,7.884977,7.872586,6.927898,7.795977,6.440993,6.9256,6.530705,6.229983,6.173024,5.721885,5.296811,5.380339,5.030689,4.767186,5.514742,4.798804,5.31928,5.104149,5.827208,5.281385,6.325831,5.953021,6.876368,6.830094,6.751505,7.586777,7.395413,8.500119,8.234711,8.985755,8.626744,9.563374,9.926117,10.13518,10.98796,11.06875,11.58879,12.10712,11.74039,12.89287,12.1378,13.784,13.57766,14.03715,14.25351,14.67865,15.06828,15.48282,16.22201,16.35082,16.51296,17.43955,17.08389,17.7144,17.44158,18.46287,18.41766,18.27319,18.9051,18.20288,19.57753,18.87108,19.30996,19.11624,19.83153,19.30833,20.01248,19.81673,20.62169,20.21606,20.70779,20.50869,20.62118,20.69929,20.86696,20.82767,21.33138,20.90046,20.81408,20.36987,20.26817,20.20001,19.39204,20.13017,19.94432,20.9196,20.84184,21.18537,21.17648,21.82957,21.22441,22.61568,21.47362,22.64315,22.14842,22.69618,22.61916,22.60277,23.61605,22.69665,23.31485,23.0669,23.42594,23.68852,23.65584,23.72431,23.9292,23.61928,24.28444,24.00516,24.12489,23.5832,22.44416,23.74831,21.45104,22.39277,21.41247,22.02639,21.59443,21.5759,21.78762,22.13049,22.16789,22.69584,23.41606,22.62378,23.43032,23.19894,24.3577,23.18815,24.76842,23.96117,24.36914,24.62687,24.26468,24.83437,24.45049,24.84996,24.05473,23.9797,23.62131,23.09833,21.93967,21.00065,21.04871,20.0202,19.22558,18.67356,17.10149,17.22483,15.43256,14.92874,13.90718,12.43712,11.59052,9.878603,8.898094,7.468393,5.933763,3.944172,2.015228,1.109027,-1.393824,-2.438015,-5.512474,-6.059474,-9.151486,-10.79438,-12.52065,-15.33783,-15.979,-19.26479,-19.91312,-22.79285,-23.87063,-25.5554,-27.24534,-28.3641,-30.24235,-31.94332,-32.96141,-34.18363,-35.41507,-36.33363,-37.62033,-38.60558,-39.40862,-40.37419,-40.98183,-41.65433,-42.34628,-42.5763,-43.49839,-43.23656,-43.92491,-43.73118,-43.94987,-43.76702,-43.95222,-43.41867,-44.42777,-42.28284,-43.40507,-42.20536,-41.96702,-41.2002,-41.21499,-40.56055,-39.8768,-39.62111,-38.88148,-38.30965,-37.91572,-37.43527,-37.40084,-36.13902,-35.34985,-34.7341,-34.09998,-34.87051,-34.39046,-35.96617,-35.09627,-35.70259,-37.34212,-36.50429,-37.67871,-37.26181,-38.73208,-38.27364,-38.77471,-39.05437,-39.3994,-39.86729,-40.26979,-40.80265,-40.52353,-40.91201,-40.31409,-41.49463,-40.44875,-41.72288,-40.48187,-40.84293,-40.53302,-39.83368,-39.47166,-39.57921,-38.56927,-38.35178,-37.1948,-36.99909,-35.59438,-34.4211,-32.9455,-31.57752,-30.54765,-28.54259,-27.5562,-25.35223,-23.48902,-21.94792,-19.85121,-18.94001,-16.59974,-15.43263,-13.19503,-11.35283,-9.816774,-7.682128,-5.959521,-3.669206,-2.140953,-0.07769148,1.26873,3.556719,4.685349,6.327498,8.304078,9.514165,11.086,12.2425,14.7532,14.91229,17.04717,17.77431,18.8024,20.20817,20.6639,21.85999,22.27668,23.06428,23.49483,24.08723,24.73305,26.03309,26.1881,27.47543,27.03555,28.29819,28.41841,28.83445,28.92525,29.49912,29.13071,29.70453,29.08993,28.90556,28.63866,27.98339,28.30975,27.84336,26.7516,26.36406,25.93746,25.6432,24.10628,23.8909,23.21007,22.90604,21.8549,22.42175,20.71407,22.27258,21.16886,22.52495,21.56059,20.95858,20.27497,19.7372,19.27067,18.21612,18.21623,16.7329,16.26665,15.99308,14.68884,15.21292,13.41848,13.84352,12.15286,12.10583,11.24952,10.7318,10.25393,9.390325,8.927454,8.370229,8.025215,7.089668,7.141444,6.312619,7.2027,5.298178,6.949802,5.481173,5.928711,5.420743,5.913987,5.458421,5.841576,5.815866,5.279489,5.795489,5.247292,6.536551,5.503621,6.213531,5.903031,6.533968,6.849667,5.911085,6.81474,6.623742,6.682642,7.473139,7.191488,8.853265,8.250272,9.109951,9.312505,9.898473,10.23286,10.50534,10.56353,10.77701,11.62225,11.27292,11.8296,10.83703,11.12777,11.51927,10.96634,9.851441,10.38413,9.508682,9.804414,9.104634,8.575018,8.030678,7.37129,7.869935,7.045598,7.839013,7.056349,7.98119,6.944066,7.265476,6.77096,7.425271,6.816191,7.162218,6.165414,6.268406,6.137506,5.660442,5.184976,5.157728,4.731431,4.390074,3.966146,2.634314,2.739778,2.283962,2.103101,0.4457079,0.04005026,-0.7400208,-1.327951,-1.790433,-3.441401,-3.118676,-4.611361,-3.998743,-6.248748,-5.244132,-7.05237,-7.071827,-7.494332,-8.80087,-8.799569,-9.662111,-10.15259,-11.41562,-11.63375,-12.57854,-13.18816,-13.23238,-14.32508,-14.23676,-15.3897,-15.22005,-15.70678,-15.88181,-16.32053,-17.23018,-15.53171,-16.17913,-16.21397,-16.49877,-16.43338,-16.4256,-16.3326,-16.8073,-16.22173,-16.77021,-16.81538,-16.68628,-17.10091,-17.2452,-17.75066,-17.38868,-18.63171,-17.35892,-18.25669,-17.75596,-18.63939,-17.62543,-18.3804,-17.36534,-18.43053,-17.63971,-17.75012,-17.23731,-17.51341,-16.52139,-16.94896,-15.1684,-15.92649,-14.6266,-14.27174,-13.46945,-13.54059,-12.56981,-12.21152,-11.37558,-10.8043,-10.86192,-10.24987,-9.339793,-8.605084,-7.479852,-8.256768,-6.430932,-5.167706,-5.023262,-3.707436,-3.280225,-2.095452,-1.13834,-0.2895702,1.229898,1.667054,3.627848,3.217234,5.141195,5.405845,6.554754,7.771805,8.610907,9.586061,10.0674,10.70017,12.48335,12.65427,13.79574,14.81199,15.17092,16.13289,16.94674,17.27758,18.45969,18.93427,19.53792,19.59152,19.59582,20.39409,20.38442,21.15143,20.59058,20.07295,20.33876,20.68459,20.05472,20.95649,20.65689,21.06588,21.32695,21.53708,21.07191,21.85948,21.16906,21.65614,21.78756,22.29675,21.93678,22.56183,22.97511,23.123,22.70803,23.62369,23.38012,24.44253,23.78984,23.9991,23.94722,25.00757,23.72746,23.84097,23.80667,23.45042,23.41264,23.04597,22.46414,22.61812,22.02905,20.19337,21.23482,19.54592,19.6125,19.04386,18.15951,17.58502,17.46662,16.46404,15.55045,15.29621,14.43108,13.65591,12.82281,11.50038,11.16007,9.312832,9.460148,7.537634,7.902906,5.841276,6.054806,4.655263,3.778936,3.082657,1.720437,1.12608,0.2428163,-0.7558517,-1.921305,-2.736111,-3.539204,-4.153526,-4.765255,-5.986419,-5.888137,-7.204045,-6.963731,-7.286857,-8.835175,-8.517539,-9.100459,-9.146074,-9.710452,-9.578768,-9.726563,-9.856335,-9.757512,-9.966142,-9.91328,-9.665048,-9.247196,-9.494673,-8.863174,-8.934959,-8.124302,-8.383571,-7.851876,-7.836596,-6.541603,-7.193902,-6.262839,-6.02332,-5.921338,-6.022935,-5.308506,-5.933317,-5.419666,-5.860636,-5.773722,-5.959988,-6.172361,-6.804103,-7.04952,-7.76749,-6.811875,-7.152618,-7.994678,-6.92746,-8.461494,-7.013277,-8.025057,-7.594039,-8.251589,-7.596454,-7.759873,-7.256007,-7.376233,-7.342769,-7.370851,-7.524412,-7.072085,-7.238917,-7.690446,-7.001517,-7.816659,-7.903284,-8.35728,-8.526506,-8.238751,-9.210194,-8.464156,-9.762569,-8.830398,-10.27947,-9.433075,-10.05903,-10.40942,-9.985168,-11.56746,-11.24252,-10.14473,-11.72812,-11.09148,-11.61997,-12.20072,-11.5955,-12.06198,-12.48348,-12.45751,-12.81864,-12.54301,-12.87964,-12.78439,-13.07131,-12.72845,-13.37527,-12.02207,-13.58728,-12.53297,-13.86065,-12.89518,-12.7978,-13.15413,-12.71381,-13.35503,-12.98654,-13.24887,-13.10087,-13.34875,-13.52264,-13.41734,-14.07232,-14.28208,-14.12464,-14.64667,-15.25775,-15.55418,-15.74634,-16.66703,-16.25942,-17.18921,-17.10171,-17.47283,-17.182,-17.7385,-17.45182,-18.11317,-17.78509,-18.75245,-18.16598,-18.64593,-18.83057,-18.97706,-19.20631,-19.68634,-20.17012,-20.07347,-20.18568,-20.38166,-21.09787,-20.05525,-20.48968,-19.92004,-18.84864,-19.13463,-19.33126,-19.44045,-20.09434,-20.45565,-21.07329,-22.15243,-22.34504,-23.89374,-24.81612,-25.04354,-27.52042,-27.38911,-28.93843,-29.56342,-29.86886,-30.63005,-31.13964,-32.27983,-32.0072,-33.22186,-32.40864,-33.53518,-33.28172,-33.51557,-33.02747,-32.62147,-32.11407,-31.63401,-30.72889,-29.72016,-29.2313,-27.725,-26.51495,-25.32867,-24.15612,-22.0974,-21.1747,-18.3846,-17.93797,-15.33856,-13.44724,-11.75884,-8.71635,-8.112786,-4.389363,-3.117078,-1.235483,1.353181,2.9514,5.742311,7.641785,9.785588,11.98208,14.21033,16.1274,18.85122,20.51509,22.50205,24.30697,26.17068,27.86816,30.38473,30.76988,33.62095,34.70533,36.63236,38.52816,39.04555,40.75024,41.66344,42.78858,43.60154,44.29199,44.6054,45.3895,45.88407,46.14618,46.95649,46.92471,46.46335,46.90094,46.34626,46.58795,46.45776,45.68117,45.96599,45.71499,45.69866,45.13255,45.16001,44.22423,44.39407,43.62073,43.42959,42.66436,42.91156,41.61932,41.10997,40.31149,39.48731,39.44698,39.68232,39.88961,40.93141,41.88031,43.66033,44.93387,46.20551,47.37486,47.38202,49.50598,49.95128,50.97847,51.7115,52.73788,52.91695,54.38617,53.56148,54.87116,55.25466,55.33217,56.67311,55.853,56.14657,55.2255,54.95944,54.62479,54.59899,54.2073,53.04233,51.42147,48.77631,47.59575,46.41406,44.8457,43.09026,41.12889,38.32263,36.39969,34.45652,32.76326,30.90838,29.01073,25.9766,24.45266,21.57008,20.58707,18.16201,15.73848,14.2384,11.6388,10.0389,7.391517,4.381307,3.305583,0.07628986,-0.8653961,-4.226256,-5.073833,-7.630791,-9.885408,-11.27368,-13.50559,-14.93828,-16.70533,-17.69985,-19.70995,-21.05778,-22.12575,-23.73399,-24.11712,-26.27185,-26.78982,-27.90674,-28.67872,-29.79861,-30.49098,-31.3093,-31.94335,-32.69367,-32.69106,-33.2403,-33.31379,-33.56924,-33.23122,-33.62529,-33.05461,-33.01789,-32.76148,-32.19244,-31.78548,-31.38255,-30.52676,-30.44803,-29.2836,-29.17964,-27.95451,-27.96927,-26.76421,-26.98965,-26.65001,-26.23037,-26.66371,-26.64157,-27.42232,-27.46485,-28.83674,-28.8667,-29.75698,-29.89219,-29.12082,-29.30666,-29.59822,-28.42145,-29.18748,-28.39314,-28.42251,-28.45763,-27.81161,-27.66262,-26.81162,-27.04167,-26.19237,-26.31408,-25.43994,-25.74248,-24.13712,-24.90799,-22.49431,-22.51794,-21.23517,-21.51223,-20.73023,-20.51007,-19.53944,-18.76832,-17.56286,-18.02556,-17.82975,-18.53559,-18.50535,-18.15849,-17.7665,-16.51887,-18.26305,-16.9685,-18.3538,-17.67637,-17.23131,-16.68967,-16.59366,-16.95645,-16.92342,-17.19101,-16.51707,-16.73621,-15.72251,-16.77803,-16.41238,-16.72653,-16.95205,-16.41577,-17.51992,-16.84768,-16.52938,-17.19126,-16.67866,-17.67204,-16.25668,-17.36585,-16.99664,-16.81823,-16.62774,-15.93315,-16.44024,-16.18626,-16.49882,-16.15676,-16.28824,-16.23231,-16.19731,-16.51376,-16.41519,-15.8843,-16.23657,-15.92781,-16.04662,-16.64287,-16.34361,-16.37826,-16.39189,-16.49238,-16.95142,-16.18093,-17.41041,-16.43729,-17.22748,-16.90715,-17.59576,-15.29871,-16.08331,-14.72732,-15.18588,-14.87795,-15.04496,-15.64365,-15.23745,-16.18669,-15.97468,-17.52196,-17.4444,-18.89003,-19.37761,-20.7255,-21.12317,-22.06343,-22.55317,-24.09871,-23.58516,-25.35229,-24.29362,-26.59649,-26.20848,-26.59838,-27.23672,-26.84126,-27.30799,-26.99953,-27.03483,-26.73052,-26.67361,-26.46212,-26.04797,-25.71114,-24.43171,-24.44325,-23.14467,-22.69982,-20.89705,-20.34351,-18.63602,-17.65031,-15.78834,-14.27219,-12.39671,-10.71901,-8.951507,-7.074186,-4.545426,-2.879485,-0.5992749,1.37771,3.277779,6.473837,6.845624,10.99714,11.18507,14.54028,15.91622,18.96636,19.97038,22.87849,24.14154,26.63897,28.52135,30.71882,31.8946,33.86003,35.37979,37.21037,38.74045,39.90389,41.21376,42.51397,43.5996,43.8966,45.30845,45.81358,46.18905,47.15325,46.74862,48.13182,47.20644,47.87733,47.09575,47.3614,47.11827,46.59911,46.17782,45.98706,45.17811,45.0987,43.3376,44.69287,42.00946,42.17179,40.19002,39.91295,39.13701,38.82132,37.10247,35.99664,33.8784,34.02261,32.9116,33.48325,33.25242,34.28408,35.43969,36.88433,35.96871,37.87235,37.15364,38.956,39.22531,40.38381,40.89349,42.10467,41.76018,42.61013,42.64888,43.63884,43.53919,43.52456,44.02491,43.62792,43.62251,43.26011,44.04926,42.95303,44.57806,42.92337,43.77803,43.00256,42.58639,41.77806,41.19012,39.86336,38.84004,37.80563,36.56713,35.18377,34.17936,32.16526,31.01227,27.96932,26.7097,24.21609,22.39693,20.3661,17.77072,16.01396,13.01385,12.16517,9.269595,6.885699,5.01479,3.479191,1.028044,-1.273495,-3.610426,-4.807915,-6.794101,-8.180488,-11.35321,-13.25959,-15.32891,-16.77121,-17.99294,-18.82916,-21.17398,-21.83328,-23.67715,-24.35127,-25.31037,-26.32948,-26.87489,-27.21312,-27.90955,-27.63422,-28.32431,-27.93412,-27.77386,-27.65548,-27.20411,-26.93612,-25.8203,-25.87268,-24.97271,-23.69228,-23.39555,-22.11519,-21.84368,-19.95658,-19.44438,-17.80973,-17.59054,-16.07221,-15.35824,-14.16021,-13.22863,-11.749,-11.5751,-9.910258,-10.3094,-9.591869,-9.048395,-8.991963,-8.671921,-9.51593,-10.34724,-10.41345,-10.91864,-9.820226,-9.786197,-10.33183,-9.677581,-10.3262,-9.356254,-9.924036,-9.105182,-8.976473,-8.856452,-8.667203,-8.828534,-9.203483,-8.558657,-9.038713,-10.02605,-9.387507,-10.52648,-10.38627,-11.11632,-11.41626,-11.46994,-12.11781,-11.81719,-12.36308,-12.08633,-12.06368,-12.45625,-12.66851,-12.44324,-13.26659,-12.87534,-13.42686,-12.92436,-13.71909,-13.50972,-13.313,-14.13746,-13.65793,-14.11628,-14.53075,-14.29189,-15.38996,-14.79922,-15.52489,-15.05027,-15.56294,-15.58856,-15.30001,-15.19718,-14.53359,-15.71623,-15.16508,-14.86571,-14.83255,-15.31749,-14.71016,-15.01937,-14.14369,-14.65123,-15.13895,-15.4828,-15.44243,-14.52755,-14.79157,-14.40411,-15.04943,-15.69809,-15.50546,-16.11112,-15.68222,-15.8039,-16.14899,-16.02496,-16.80001,-16.19333,-16.53938,-16.53739,-16.36799,-16.69052,-16.82067,-16.96146,-16.71323,-17.14518,-17.1715,-16.95833,-17.13027,-17.13674,-17.4276,-17.22126,-17.09936,-17.05146,-17.3795,-17.54397,-16.97271,-16.93533,-16.81167,-16.1066,-16.44752,-16.06495,-16.21667,-15.3743,-15.84881,-14.80444,-14.8033,-14.6059,-15.1277,-14.12117,-14.67846,-13.74163,-13.18354,-12.30342,-12.54571,-11.40158,-11.21749,-10.10878,-10.5368,-9.884315,-9.681032,-9.677228,-9.369785,-10.03162,-9.00038,-9.48739,-10.02681,-10.31281,-9.745692,-10.63186,-10.33103,-10.82398,-11.14085,-11.23593,-11.69748,-10.95902,-11.70394,-10.93063,-11.31008,-11.23773,-11.54397,-11.607,-12.01246,-11.37224,-12.17055,-11.74422,-12.35733,-11.69454,-11.51655,-11.00837,-10.35264,-9.880838,-10.01342,-8.498487,-9.002972,-7.64577,-7.590791,-6.605674,-5.773918,-4.990559,-3.409102,-2.743812,-1.71989,-0.8333838,1.374496,1.72046,3.975723,4.851717,6.419569,7.204546,9.703813,10.2927,12.2776,13.10607,15.18887,16.30109,18.24779,18.76635,20.38546,21.1827,22.75438,23.42335,25.32351,25.69475,26.80661,28.2784,28.81562,30.22243,29.9674,31.68211,31.5743,33.09568,32.84588,34.20821,34.57295,34.92677,35.83865,36.24637,36.68226,36.8338,37.43426,37.63867,37.01395,36.63455,36.12848,36.1671,35.92166,35.2191,35.41563,35.2513,35.25987,35.28044,35.34445,36.11893,35.29506,36.63529,35.88686,36.3667,36.42357,36.72977,37.49764,37.90509,38.02669,38.99718,37.66673,38.97507,38.08078,38.30997,37.86015,37.52169,37.30763,36.78989,36.51608,35.39251,36.09432,33.842,34.51236,32.6572,32.27801,30.73392,30.22781,28.96321,28.22544,27.31996,25.72831,25.74697,22.66045,22.95687,19.5378,19.26911,16.86679,16.01363,14.2701,12.75877,10.81577,9.742252,8.327424,6.742042,5.924431,3.565665,2.74565,0.870177,-0.9446655,-0.7685513,-4.285039,-4.118924,-6.032932,-7.161733,-7.743218,-9.341797,-10.08971,-11.63219,-12.18164,-12.84714,-13.79292,-14.89482,-14.88982,-16.31774,-17.50203,-17.04937,-18.26779,-18.15332,-18.53082,-19.62985,-19.18615,-20.85322,-19.92669,-20.49343,-20.13705,-20.23946,-19.99391,-19.75989,-19.50799,-20.0243,-19.27229,-19.26345,-18.95881,-18.73374,-18.32524,-18.17115,-18.14549,-17.14882,-17.54282,-16.39308,-16.72742,-16.00727,-15.78455,-15.60101,-15.89613,-16.01891,-15.70593,-16.40555,-16.89396,-17.48565,-16.72804,-17.37257,-16.5213,-17.81737,-16.14357,-17.36625,-16.62758,-17.13838,-16.75737,-16.43442,-17.3746,-16.34299,-17.20509,-16.50713,-16.91479,-16.53934,-16.15574,-17.01977,-16.08586,-15.96319,-16.45255,-15.76589,-16.4279,-15.47238,-15.94944,-15.46393,-15.19502,-15.14194,-14.4534,-14.61241,-14.13631,-14.87027,-13.506,-14.64396,-13.71779,-13.86972,-13.55272,-13.15981,-13.38381,-12.87264,-13.5585,-11.60639,-13.69053,-10.96047,-13.69251,-10.57423,-11.90628,-11.32412,-10.94674,-10.96934,-10.62382,-10.10759,-9.809748,-9.386025,-9.206824,-9.373111,-8.332956,-8.778259,-8.307485,-7.571543,-8.698027,-6.464032,-7.750331,-7.380562,-6.828311,-6.730627,-6.392164,-5.568167,-6.270694,-5.259626,-5.485063,-5.030609,-4.856656,-5.599812,-4.691092,-3.861091,-4.365338,-3.349491,-3.479545,-3.228125,-2.43627,-2.290989,-0.7647318,-0.6202879,-0.3570031,0.1550805,0.3467403,1.0785,0.9090934,1.622201,2.212849,2.15168,2.881339,2.913206,3.29198,3.04529,3.776739,4.296293,4.703755,4.263326,5.716613,4.334374,6.371556,5.531277,6.36895,6.618738,7.476478,7.344854,8.206898,8.225515,9.20969,8.091492,9.237239,8.355575,9.530692,9.007381,9.311741,9.867366,9.914122,10.59109,10.22977,10.84183,11.29432,10.82369,12.05231,11.22941,12.40652,12.0397,13.00718,13.20118,12.79062,12.47979,13.06847,13.31615,12.61348,13.58273,12.31338,13.07201,13.28349,12.45117,12.91327,12.42533,12.85367,11.92469,12.516,11.79256,11.76564,11.71865,10.52107,11.36872,10.05226,10.7923,8.919178,9.938748,7.975535,9.375048,7.382283,7.711775,7.292158,7.028214,6.822238,6.574322,6.248071,5.83185,5.643882,6.190541,5.135027,5.706942,4.823291,5.722581,4.213738,5.32869,3.583576,4.428904,4.484816,4.146475,4.161995,3.362247,3.367643,3.210186,2.961586,2.704675,2.173656,1.838712,2.646913,1.714926,1.788344,1.211459,1.618082,0.3775979,0.9165954,0.09613479,0.1998579,-0.6371604,-0.4045856,-1.714343,-1.723009,-1.381495,-2.166285,-1.998878,-2.952058,-3.345462,-3.795914,-4.45865,-4.884977,-6.07069,-6.166358,-7.669331,-8.100512,-9.613206,-9.010519,-11.42323,-10.64928,-12.94937,-13.14388,-13.80793,-15.19923,-15.5925,-17.16638,-17.54236,-19.15565,-19.87811,-19.68247,-21.27693,-21.37717,-21.82713,-22.24371,-22.42467,-23.44534,-23.33942,-23.21995,-23.53874,-22.71409,-23.40538,-22.17475,-22.39773,-20.53389,-21.3242,-20.71293,-20.77207,-20.93943,-19.62198,-18.66217,-17.60274,-17.10917,-15.03053,-14.9431,-12.96289,-12.37438,-11.0988,-9.815204,-8.877937,-7.356596,-7.124124,-5.12021,-4.747969,-3.554921,-2.779106,-2.100684,-1.219625,-0.9351043,0.01626488,0.01193568,0.7361471,1.012756,1.781583,1.864072,2.557954,2.614042,2.622436,3.453314,3.221281,3.564581,3.567885,3.915026,3.733385,3.458866,3.644319,3.592956,3.134322,3.422229,3.426076,3.172159,3.048058,2.877807,2.504443,2.540746,2.154162,1.57751,1.520232,1.141067,1.389849,0.3317776,0.3203813,0.2755077,-0.5936706,0.2253565,-1.524025,-0.5335176,-1.426153,-0.2529521,-1.37254,-0.3610865,-1.25355,0.3732072,-1.078975,1.011307,0.893586,0.8943464,1.510589,1.409703,2.268853,2.522498,3.173752,3.747561,3.861198,4.881001,5.010497,6.072415,6.714768,6.367599,7.737297,7.359687,8.456567,8.642671,9.431884,9.149273,10.22421,10.20061,10.8731,10.53592,10.88962,11.62945,10.72219,11.64227,11.33938,11.99159,11.32406,11.61749,11.92537,11.9236,11.6777,12.12261,11.13506,11.94016,11.04867,11.58998,9.487951,10.4183,9.230634,9.858223,9.91053,9.60295,9.766029,9.204629,9.467373,8.91103,8.792139,9.175483,9.003074,8.965563,8.594465,9.255961,8.180352,9.175442,8.462413,8.528404,8.478036,8.616057,7.994149,8.970447,7.732984,8.984355,8.238,8.645859,8.453318,8.880805,8.536055,8.454635,8.810925,9.369408,8.407759,9.818462,9.025926,10.21947,10.00037,10.53636,10.6779,11.38395,11.271,12.34982,11.60423,12.54908,12.48003,13.1774,13.25999,13.11598,14.34268,13.3084,15.21218,13.93476,15.87159,14.33775,15.63836,15.48255,15.84488,16.07671,15.17342,15.6732,14.49748,14.57701,13.17409,14.1116,12.88563,13.54332,12.7729,13.90765,13.11439,14.15557,14.14073,14.71909,15.74855,15.56654,16.49008,16.74843,17.57629,17.57114,18.65845,17.59156,19.16235,17.77731,19.86647,17.84715,19.44892,18.1191,19.06544,17.46141,18.5465,17.23124,17.3333,16.73472,16.19739,16.23222,14.85182,14.36739,13.86757,12.87056,11.48776,11.0917,9.725647,8.815181,7.816154,7.064534,5.105601,4.974217,2.470098,2.62339,-0.07529901,0.2439322,-2.70742,-2.91966,-4.582864,-5.899492,-7.382522,-8.772736,-9.570277,-11.26267,-12.5011,-13.7401,-14.81845,-16.57153,-17.32674,-18.58698,-20.32465,-20.32543,-22.16557,-22.37021,-23.86298,-23.96248,-25.85507,-25.13103,-27.34827,-26.42073,-28.33759,-27.62474,-28.93072,-28.27689,-29.31953,-29.27852,-29.11924,-29.76575,-29.58395,-29.12914,-30.11034,-28.60153,-29.90255,-28.40034,-29.34181,-28.19031,-28.27315,-27.81642,-27.80392,-27.07082,-26.71941,-26.49489,-25.50258,-25.88703,-23.94152,-25.03463,-23.15097,-23.46924,-24.01673,-20.89423,-21.72622,-20.57558,-21.20888,-21.31105,-22.7919,-23.04368,-24.09785,-23.95158,-25.48063,-24.95282,-27.26705,-26.46843,-28.36614,-28.31093,-28.60488,-29.22904,-29.77164,-29.99172,-30.73816,-31.66888,-31.39417,-32.49178,-32.31774,-33.27235,-33.3254,-33.914,-34.13897,-33.76224,-34.48472,-34.10655,-34.56994,-34.19479,-34.08119,-33.55959,-32.4509,-32.2616,-31.71909,-31.00675,-29.87169,-28.77322,-28.04803,-26.23879,-24.87435,-23.22757,-21.7198,-19.61306,-18.56812,-15.82632,-14.4503,-12.60305,-11.26833,-8.567875,-7.61379,-4.618741,-3.743178,-1.105774,-0.08436893,2.069944,4.342149,5.39962,7.817439,9.018538,11.112,12.22047,13.81434,15.77254,17.06748,18.04152,19.82458,20.28101,22.31748,23.61284,23.75726,25.86424,25.70158,27.36252,27.4316,28.55753,29.08223,29.23747,29.97555,29.50626,30.16253,29.98227,30.22664,29.49492,29.67094,28.62216,28.60672,27.86624,26.93504,26.70616,25.20119,25.70386,23.48937,23.57309,22.64494,21.66284,20.99077,20.35294,20.01334,19.16241,19.16266,17.78968,18.79446,17.58134,18.417,18.03864,17.73662,20.94251,16.68172,19.04606,17.11077,17.69708,16.54943,17.14712,16.19333,16.64732,15.94534,15.79933,15.92361,15.78009,15.46598,16.03293,15.99184,15.20664,15.93468,14.99785,15.91827,15.07768,15.6161,14.66518,14.82922,14.47899,14.10886,14.32014,13.2173,14.1204,12.49765,13.33557,12.06131,12.90652,11.53122,12.40931,10.93707,11.68788,9.732174,10.86502,9.518884,9.887921,10.00538,9.047728,9.265435,8.54346,8.269767,8.292337,7.277131,7.6651,6.145407,6.919986,5.977632,5.340973,4.59674,4.434452,4.214643,4.256762,3.029708,2.99505,2.647616,1.500238,2.056659,0.5524737,0.6853467,-0.2049322,-0.3848669,-0.6811842,-1.677048,-2.553337,-1.818998,-3.265641,-2.785973,-4.025157,-4.467992,-4.735908,-5.658721,-6.351022,-6.780519,-7.300706,-7.671809,-8.586825,-8.653399,-9.244864,-9.57397,-10.8734,-10.43172,-12.0537,-12.58971,-13.6899,-14.37629,-15.05404,-15.87898,-15.82104,-16.40888,-17.35482,-17.49223,-18.13494,-17.61861,-19.55923,-18.92756,-20.44718,-19.98939,-21.31932,-21.47664,-22.03407,-22.96707,-22.61885,-24.63945,-22.45779,-23.96596,-22.2032,-23.89595,-22.90375,-24.54296,-24.10957,-25.75138,-25.92292,-27.17732,-28.096,-29.17804,-30.14051,-30.97461,-31.78696,-32.89673,-33.45522,-34.26515,-35.04466,-35.89219,-36.53795,-37.22493,-37.98655,-37.80381,-38.50351,-38.35115,-38.47453,-38.00851,-37.72783,-37.5012,-36.52892,-36.20072,-35.16631,-34.55191,-33.37,-32.51189,-30.65377,-29.66336,-27.87735,-27.28124,-24.42058,-23.96653,-20.55118,-19.6408,-17.49627,-15.35885,-14.07019,-10.8628,-9.339168,-7.252847,-4.950842,-3.337151,-0.5692813,0.5101053,3.323861,5.470854,7.694632,10.00284,11.32852,13.76655,15.45573,17.73725,19.07346,22.0042,22.46461,25.40553,26.86623,28.92395,30.30295,32.128,33.7595,36.09723,35.87449,38.40346,38.42386,40.36452,40.63784,41.27038,42.38227,43.45641,43.51976,44.55097,43.74163,44.55957,43.96753,43.87807,43.93493,43.06183,42.56524,41.66833,41.46728,40.90246,40.3056,39.79404,39.35095,38.25083,37.26672,37.22299,35.85581,36.22145,32.66362,33.424,30.17107,31.04458,29.46356,29.56766,29.53314,29.17098,30.66124,30.88956,33.29959,32.34434,33.57883,33.4042,33.99256,34.06234,34.74443,33.91129,35.25348,34.91763,35.59673,35.75425,36.38593,36.24354,37.46816,36.25275,37.37952,36.27291,36.71507,35.67072,36.15062,34.75932,35.301,33.57107,33.39542,32.56365,31.52284,31.22697,29.31824,29.24742,27.64039,26.4663,24.9572,24.2163,22.40411,21.40743,19.71968,18.18452,16.24078,14.59594,13.49318,11.11597,10.64609,8.219362,6.82071,5.159303,3.352197,1.806834,-0.2813923,-2.295936,-3.84361,-5.868864,-7.396063,-9.483407,-10.74137,-13.77973,-14.51817,-17.58204,-18.28365,-20.23471,-22.34685,-23.09113,-26.08174,-25.6404,-28.79062,-28.3038,-30.4388,-30.75845,-31.9437,-32.71899,-33.11297,-34.18716,-34.26176,-35.59492,-35.33129,-35.52159,-36.16186,-35.48392,-35.97829,-35.66302,-35.97658,-34.71046,-36.41998,-33.60545,-35.12871,-32.96549,-33.61789,-32.80763,-31.81314,-31.582,-29.56516,-29.502,-29.17608,-27.4264,-27.78235,-26.36784,-26.37706,-25.86487,-26.12391,-25.86987,-27.15165,-24.9173,-26.55012,-24.14444,-24.57364,-23.36527,-22.90911,-22.70636,-20.95702,-21.04678,-20.34672,-19.94292,-19.2937,-18.19011,-18.45945,-17.40606,-16.94825,-16.36488,-14.90693,-15.19979,-13.2038,-13.95312,-11.6461,-12.54122,-11.05327,-10.98765,-9.864116,-9.622653,-8.593914,-8.704233,-7.630163,-7.46426,-6.729233,-5.985912,-5.639529,-4.795802,-4.548991,-3.804476,-3.850816,-3.343741,-3.291028,-2.94052,-3.069434,-2.283575,-3.273309,-1.920157,-2.973523,-1.648564,-2.771562,-0.7042168,-1.575488,-0.5761527,-0.2680462,-0.292442,0.3514333,0.583537,0.169155,1.103832,0.9627328,1.021358,1.704465,1.822359,1.863531,2.08671,2.459756,2.22479,3.488391,2.612293,4.15967,3.2337,4.151123,4.19806,4.280326,5.102407,4.340205,6.254674,5.201884,6.293578,5.911413,6.782444,7.149509,7.15101,7.613525,7.149173,8.417225,7.882154,7.687601,8.949198,7.643303,8.944916,8.353439,8.898616,8.300229,9.344248,8.675998,9.654778,9.570761,9.67933,9.56181,10.4448,10.16006,10.27206,10.83255,11.81691,11.72524,12.71889,12.74388,13.24285,13.93035,14.7866,15.15816,15.68115,15.9814,16.82865,16.73006,17.39522,17.46832,17.75795,18.3991,18.17885,18.70929,18.15172,19.26908,18.22244,18.62005,18.24161,18.47823,17.69451,17.79201,17.15109,17.21186,16.17292,16.43601,15.29403,15.20069,15.24058,13.68088,13.86484,12.70357,12.04901,11.986,11.45311,10.28536,10.97793,8.780159,9.400741,7.240653,7.784708,6.193512,6.111764,5.163993,4.518672,3.66236,2.732748,2.01627,1.143918,0.1142804,0.02720794,-1.676171,-1.318015,-3.414406,-2.963513,-4.601719,-5.311881,-5.82689,-7.135239,-7.549286,-8.032585,-9.092548,-9.410516,-10.62245,-10.27641,-12.05851,-10.98273,-12.3026,-12.4183,-12.92963,-13.4474,-13.27824,-14.31863,-13.15708,-14.6283,-14.00726,-14.84075,-14.36724,-14.06815,-15.30158,-13.70629,-14.88585,-13.59215,-14.697,-14.53252,-14.22462,-13.70548,-13.20518,-12.95836,-13.39642,-11.86614,-13.51216,-12.45146,-13.39847,-13.45251,-13.5439,-14.88398,-14.45801,-16.19622,-17.14841,-17.94965,-18.40886,-18.53793,-19.96724,-19.32269,-20.23707,-20.91058,-20.77737,-22.03052,-21.16083,-22.50256,-21.471,-22.23512,-21.90194,-21.9523,-21.37192,-21.65225,-21.58389,-20.74071,-20.91776,-20.65468,-20.09799,-20.08827,-19.75262,-19.40075,-18.56429,-18.78807,-17.29605,-18.05374,-15.99949,-16.89041,-14.36409,-14.78567,-13.70565,-13.12308,-12.09383,-11.17993,-10.39815,-9.191404,-8.905063,-6.909195,-6.444607,-4.61729,-3.159965,-2.322182,-0.9671701,0.8080621,1.475407,3.698526,4.365841,7.231881,6.728243,9.658327,10.0886,11.88142,12.76961,14.03608,15.52437,16.33765,17.46341,18.63248,18.97011,20.58215,20.73691,21.42516,21.72407,22.6875,23.01734,23.53688,23.10881,23.95094,23.41746,23.96303,23.27243,23.81671,22.45249,23.43314,21.57268,21.65669,21.18044,20.24771,20.37789,18.83622,19.16486,16.72594,17.31297,16.01746,15.44211,14.99961,13.5206,14.13412,12.09344,12.82991,11.86649,12.13369,12.51218,12.49434,11.5638,11.96749,10.72416,11.89415,9.414437,10.46319,8.907626,9.102448,8.164054,7.177599,7.068608,6.015017,6.311111,6.121288,5.89303,5.174094,5.399773,5.078009,4.667954,4.290192,4.386999,4.110075,4.379172,3.888204,4.450096,4.028705,4.88551,4.497066,4.494693,4.373563,4.13984,5.075927,3.942307,4.753284,4.273671,4.649319,5.039499,4.568349,4.474002,4.421818,4.122181,4.06665,4.112416,3.561198,3.800214,2.508703,2.691842,2.230987,1.365073,1.400507,0.6039786,-0.2445531,0.006500683,-1.358785,-0.7432713,-2.055077,-2.13251,-3.018192,-3.51124,-3.98638,-4.129975,-5.758627,-5.800176,-6.373019,-7.534531,-6.537214,-8.255169,-8.140622,-8.668918,-9.302136,-9.864992,-10.10145,-11.39947,-10.43828,-12.43222,-11.502,-13.76846,-12.65556,-14.13405,-13.35663,-15.176,-14.43172,-15.55314,-14.91959,-16.45798,-15.84934,-17.73012,-16.58977,-18.15698,-17.34623,-19.07461,-18.02722,-19.02981,-18.81456,-19.64147,-19.88044,-20.45549,-20.4329,-20.82026,-21.39365,-21.70632,-21.94129,-22.55252,-22.16584,-23.48994,-22.70054,-23.81181,-23.77151,-24.99247,-25.15964,-25.78284,-25.94134,-26.87815,-27.18055,-28.85701,-26.57911,-27.49329,-25.90866,-27.18203,-26.24307,-27.7254,-26.82835,-28.71237,-28.67281,-29.79226,-30.90328,-31.56727,-32.43709,-33.7844,-34.16713,-35.66386,-36.00777,-37.21748,-37.8975,-37.97779,-39.17279,-38.90458,-40.55599,-40.04925,-40.61311,-39.81293,-40.23561,-39.74956,-40.08582,-38.82638,-38.52122,-37.74846,-37.23562,-35.93405,-34.58045,-33.43159,-31.83297,-30.35854,-28.65989,-27.21619,-25.24236,-23.83955,-20.81461,-20.58684,-16.31894,-15.70903,-12.58675,-10.28824,-8.309539,-5.462576,-3.893162,-1.125657,0.9978842,3.387265,5.790714,8.523904,9.963745,13.96616,15.58581,18.89301,20.99834,23.79816,26.16557,28.65443,30.87436,33.37091,35.38966,37.03377,39.79511,40.56113,43.48183,44.30118,47.30086,47.65244,50.16906,50.41521,52.8667,52.70515,54.24254,54.38769,55.77262,55.53849,57.10461,55.54105,56.96188,55.89311,57.07938,55.67956,55.94011,55.05665,55.19323,54.24606,53.9106,52.71591,52.98476,51.77527,50.99835,49.58441,48.60678,46.39686,45.59248,43.49361,44.27395,41.96997,43.32183,42.42042,43.0449,43.57756,44.59161,45.65891,47.71372,47.80501,48.83973,48.1019,49.67245,48.83824,50.18471,49.39191,50.90132,49.72359,51.18563,50.09437,51.31548,49.79381,50.73157,49.45543,49.80581,49.28976,47.78274,48.54676,45.76115,46.6071,44.00745,44.01255,42.69513,41.73931,39.60865,39.41818,36.6396,36.94438,34.18745,33.84176,31.3057,30.75524,28.04205,27.6311,24.61968,24.05992,21.05718,20.03955,17.50803,15.96537,14.11104,11.47419,10.32774,7.840315,5.950373,4.293193,1.602376,0.2746653,-1.826594,-3.70064,-5.236468,-6.774542,-8.539632,-9.661218,-11.45605,-12.12263,-13.78882,-14.88527,-16.13392,-16.7445,-18.3293,-18.66088,-20.09809,-20.45116,-21.40342,-21.48536,-22.45675,-22.63806,-23.42938,-23.10405,-23.4873,-22.77216,-22.96493,-22.09819,-21.93558,-21.523,-20.76114,-20.44221,-19.75698,-18.87312,-18.83703,-18.24836,-17.44289,-16.87267,-16.27324,-15.74906,-15.97425,-14.95045,-15.61777,-14.96075,-15.55703,-15.4844,-16.25966,-16.81025,-17.66282,-18.72965,-19.54802,-20.47492,-20.26563,-21.1774,-20.25661,-22.62736,-20.62242,-22.34142,-21.67516,-23.00796,-22.39074,-23.39006,-23.4563,-23.94265,-24.35552,-24.59234,-24.59317,-25.51916,-25.87437,-25.7158,-26.42303,-26.82685,-26.57865,-28.07994,-26.61137,-28.20396,-27.7169,-28.81769,-28.38272,-29.01171,-29.43935,-28.82061,-30.6924,-28.54885,-31.01396,-29.22882,-30.63782,-30.09152,-30.74034,-29.88365,-31.10188,-30.16037,-31.38997,-29.93664,-32.02746,-29.90152,-32.30377,-30.1105,-32.12575,-30.11324,-32.23701,-30.72677,-31.87661,-30.9115,-31.57924,-30.46568,-31.26235,-30.11735,-30.81211,-29.58087,-30.22822,-29.22737,-29.57397,-29.13295,-29.18084,-28.02268,-28.607,-27.74108,-28.56571,-27.11735,-28.06058,-27.39356,-27.46133,-27.37256,-26.87753,-27.39096,-27.39481,-27.15774,-27.91182,-26.90924,-28.79435,-27.59994,-28.73879,-27.35121,-27.95058,-27.09998,-28.0004,-27.25772,-27.78432,-26.62941,-26.65777,-26.15672,-26.02862,-25.23077,-25.82754,-24.62639,-24.58575,-24.63777,-24.00492,-23.56362,-23.94024,-22.62419,-24.0364,-20.35046,-21.06981,-18.50435,-18.92872,-17.50016,-17.76969,-17.09904,-16.96373,-17.0979,-17.16801,-17.54902,-16.81263,-18.16388,-17.3547,-19.12949,-18.56995,-19.81245,-19.11417,-20.78945,-20.14685,-20.98867,-20.21288,-21.12758,-20.8689,-20.99478,-20.88033,-20.1282,-20.53252,-19.67026,-19.72502,-18.74325,-18.08744,-18.00602,-16.95907,-16.16573,-15.18338,-14.01943,-12.9766,-12.15399,-9.972566,-9.012815,-7.738096,-5.267228,-4.723033,-2.238618,-0.8422764,1.006802,2.444922,5.107467,5.759912,8.890063,9.344351,13.2675,13.48517,16.26083,18.13616,19.64286,21.91609,24.17913,25.9229,28.02192,29.70554,32.26248,33.23563,36.09538,36.53236,39.85218,40.02166,42.83182,43.76816,45.67128,47.38438,49.42345,50.0157,51.63178,52.63209,54.8307,55.32939,56.95613,57.29079,59.19456,58.69249,59.74697,60.48994,60.33761,60.59371,60.96707,60.35534,61.17127,60.47992,61.28875,59.67628,60.37898,59.02227,58.373,56.93453,56.96259,55.28449,55.18112,54.70169,54.46431,54.31087,54.77887,54.74375,55.29883,56.37412,56.7315,58.649,59.33971,61.47115,63.59078,62.81214,64.94157,63.66614,65.22688,65.81521,64.72197,66.27851,64.2792,65.9683,64.48229,64.51976,63.02646,62.54789,61.56052,60.71412,58.62104,58.03893,56.17129,55.91937,52.70667,52.27233,48.98333,48.44768,45.09441,43.80189,40.59157,38.47372,35.58044,33.90266,30.35357,28.55067,24.6381,23.27235,19.71702,17.10259,14.36897,11.22942,8.994929,6.444074,3.21982,0.788144,-2.486914,-4.803496,-7.199358,-9.902746,-13.20861,-14.52966,-17.43912,-19.50569,-21.16699,-23.71264,-25.07182,-27.07248,-28.89151,-29.44061,-32.67752,-32.12087,-34.96371,-35.24371,-37.59218,-37.97833,-39.04375,-39.6201,-39.74474,-40.95639,-40.35768,-40.99411,-40.06686,-40.49679,-39.23357,-39.56568,-38.78295,-38.60955,-37.54857,-36.85982,-36.11969,-35.16289,-35.00443,-33.49178,-32.54864,-32.87584,-30.47822,-30.69699,-29.36653,-28.67487,-28.20579,-27.23181,-27.833,-26.54397,-27.8958,-28.13183,-28.40698,-30.01784,-29.8963,-30.42215,-30.84392,-30.56276,-31.28617,-30.17488,-31.66438,-30.37642,-32.14194,-30.10519,-31.96788,-30.60103,-31.54309,-30.49305,-31.85586,-30.51627,-31.90805,-30.60151,-31.71507,-30.59784,-30.7655,-29.93717,-31.21291,-29.88552,-30.70226,-29.45495,-29.68209,-29.59528,-28.76463,-29.55176,-27.62499,-28.63361,-27.43533,-27.26911,-26.35188,-26.09681,-25.79818,-24.74102,-24.84917,-23.44059,-24.10387,-22.17796,-23.27203,-20.7325,-21.53767,-19.63158,-19.77789,-18.5216,-18.66614,-16.87846,-16.66201,-15.80385,-14.01744,-14.30956,-12.85319,-11.54055,-13.04245,-8.698087,-10.2818,-7.249044,-8.063306,-6.561465,-7.025896,-5.898411,-6.418193,-4.875368,-5.963291,-5.387258,-5.282241,-5.309415,-5.621647,-5.32463,-6.00881,-5.196718,-6.065857,-5.159423,-6.104221,-4.127318,-5.44539,-3.461716,-4.241696,-3.501929,-3.306063,-1.909316,-2.332072,-1.343804,-0.7396144,-0.3858666,0.2744323,1.367218,1.817417,2.806322,3.889734,4.644959,5.434044,6.00751,7.949296,8.037148,10.17538,10.01036,11.75268,11.3323,13.06437,13.9871,14.10295,16.0123,15.26482,17.94919,17.75089,19.54896,20.14027,21.37033,22.12382,23.70677,23.57245,26.03936,24.9122,28.1535,26.83928,30.16933,28.3707,31.84437,30.25647,32.75836,31.71614,33.4178,32.91307,34.2916,33.04419,35.12114,33.3336,34.83482,33.09569,34.21794,33.04221,33.66433,32.69117,32.3303,31.62847,30.37871,30.69304,28.64304,28.53275,26.73487,26.33794,24.24236,24.28723,21.86965,21.43491,19.36022,18.24491,17.22559,14.98261,15.01499,12.28234,12.64054,10.68568,9.973361,9.346737,7.810364,7.700629,5.483842,6.19495,3.575337,4.982805,2.518916,2.630005,4.278409,0.1588685,2.003972,-1.246208,-0.9190807,-3.222279,-3.259156,-4.460018,-5.019163,-6.789361,-7.069874,-8.1917,-8.957705,-9.787009,-10.80829,-11.66692,-11.90577,-13.80988,-13.67868,-15.58772,-15.18152,-17.16972,-16.7199,-17.94508,-17.39448,-17.53499,-17.89106,-18.73727,-18.87562,-19.17497,-20.27636,-20.7794,-21.05583,-22.59112,-22.36632,-23.67161,-24.39944,-25.24374,-26.61049,-26.13666,-28.10346,-28.16729,-30.08552,-29.94859,-31.25087,-30.57856,-31.7165,-31.81145,-32.09553,-32.71328,-31.69472,-33.1453,-31.97771,-32.03521,-31.16482,-31.93173,-30.41123,-30.63759,-29.0339,-29.19668,-27.25231,-27.21227,-25.55138,-25.26879,-24.20333,-23.14069,-21.74713,-21.48255,-19.07472,-19.34277,-16.45187,-16.76817,-14.06999,-14.1205,-12.16434,-11.02554,-9.473034,-8.56914,-6.956978,-6.295469,-4.544774,-4.116896,-2.045988,-2.245094,-0.3039178,0.0283386,2.017318,1.350675,3.879097,3.75084,5.283644,5.614762,6.263612,6.909085,7.148644,7.588732,8.942188,8.744701,9.102126,9.102474,9.316817,9.40323,8.954248,9.496451,8.784159,9.47567,8.467736,9.301056,7.465663,9.8161,6.969519,8.383973,6.153489,7.677957,6.057929,6.818878,5.359013,6.140218,4.474128,4.849791,3.614487,3.660515,3.395351,2.201212,2.210372,1.489006,1.654546,0.7240287,1.470402,0.6614589,1.026491,1.338027,1.64112,2.101045,2.172907,1.841971,2.157554,2.08792,2.161714,1.892957,2.302109,2.334034,2.799758,2.518997,2.887585,2.734919,3.310908,3.310262,3.561657,4.464194,4.229615,4.902998,4.92413,5.752212,5.529957,6.507675,6.895757,7.011259,6.908653,7.676823,7.937213,8.086719,9.030588,8.888312,8.882285,8.763711,9.284586,9.131341,10.23204,8.922349,9.842132,9.352012,9.815416,9.253506,9.413968,9.139386,9.220149,8.971193,9.97761,8.722706,10.46743,8.467854,10.36883,9.142195,9.407035,9.982562,9.205257,10.3873,9.272432,10.71175,9.550402,10.13765,10.55488,9.718302,10.97672,9.92205,11.03049,10.08137,11.6557,10.26663,11.17296,10.33085,10.75702,10.99877,10.76735,10.97299,11.14811,10.9351,10.79576,10.53272,10.56759,10.63865,9.826284,10.6584,9.123193,9.915961,8.836921,9.565768,8.660928,9.387709,8.026698,9.47313,7.647893,9.930026,7.135796,8.94853,6.93103,9.059361,7.070767,8.284874,6.838593,7.621979,6.969285,6.922678,7.015114,6.577832,6.614727,6.382202,6.137442,5.336213,5.285241,4.816543,4.236877,4.015251,4.236066,3.105979,3.797446,2.207936,3.138201,1.810407,3.21102,1.456771,2.987132,1.092093,2.936395,1.225026,3.243485,1.750925,3.26773,2.517839,3.545294,2.925618,4.03515,2.739088,4.51603,3.197042,4.99666,3.535116,5.507765,4.707132,6.215657,5.319788,7.100466,5.883323,7.665944,6.607017,7.814515,7.927576,8.470045,7.231162,8.66338,7.987025,8.961551,8.526589,9.128612,8.210339,9.684942,8.561578,9.529233,8.145484,8.861978,7.369418,8.451156,6.838147,7.065627,6.902884,6.054571,5.837747,4.794143,5.203919,3.420063,3.809072,2.701225,2.277421,1.56429,0.9414929,0.411814,-0.9209451,-0.7484462,-1.889195,-2.867579,-2.224256,-4.09957,-3.277587,-5.577399,-4.151681,-6.973698,-6.238102,-8.17518,-8.033472,-8.452032,-9.544031,-10.48665,-10.33275,-11.98886,-11.75993,-12.67519,-13.02343,-13.43624,-14.21095,-14.21191,-15.5859,-15.14286,-16.22501,-15.96431,-16.45153,-16.52101,-16.20844,-17.83367,-16.54921,-17.68458,-16.90658,-17.26219,-16.83995,-17.42543,-16.32139,-17.71975,-16.60426,-17.22023,-17.52947,-17.27123,-18.01579,-15.60567,-16.35858,-15.47695,-16.42996,-15.82001,-16.12236,-16.08913,-16.2898,-16.13952,-17.03409,-17.22604,-17.94051,-17.26719,-18.85885,-17.87554,-19.47691,-18.92758,-20.02666,-19.93757,-21.11845,-21.25081,-22.48196,-22.15456,-22.97967,-22.62466,-23.91824,-23.2607,-24.26421,-23.88489,-24.46218,-23.71489,-24.99939,-22.924,-24.47269,-22.7671,-23.53067,-22.05315,-22.84926,-20.98102,-21.04915,-19.80475,-19.4528,-18.54275,-18.0209,-16.2177,-15.36221,-14.90802,-13.53952,-12.42714,-11.61691,-9.687283,-9.671228,-7.79624,-7.034507,-5.309585,-4.323638,-2.858718,-1.752287,-0.8300705,1.445363,1.354997,3.678249,3.464587,6.005641,6.307481,8.165005,8.997008,10.13231,11.02282,12.90297,12.67781,14.59948,14.17906,15.99856,15.24199,18.08123,16.68265,18.89858,17.86423,19.07356,17.90003,19.02749,18.21376,17.9205,18.37535,15.9274,17.31085,15.18539,16.11991,14.04327,14.79021,12.37231,13.66821,11.7098,11.92391,9.971502,10.36688,10.90781,10.0884,11.03673,9.805825,9.831307,8.515613,7.931788,5.889132,6.788598,3.948018,4.073564,2.831861,3.096439,2.766988,0.6478955,0.8368708,-0.5169912,-0.7325624,-0.649716,-1.723667,-1.284588,-2.006206,-1.505993,-1.484615,-0.7894107,-0.08737397,0.1079682,1.596442,1.535625,2.9544,2.945401,4.197189,4.825829,5.611032,6.029844,7.437826,8.514121,8.561536,10.35684,10.49936,11.62419,12.73209,13.89337,14.24404,15.26315,15.82711,16.22263,16.82161,17.12006,17.42977,18.07381,17.74884,19.47291,17.92894,20.33566,18.9279,20.48383,19.71273,20.1094,18.87931,20.03622,18.69472,18.69957,18.47151,17.2045,17.89609,16.62554,16.74038,15.36837,15.47772,14.03191,14.17948,13.12068,11.96826,11.58287,10.52455,10.34694,9.399903,8.356145,8.021228,7.065798,6.532523,5.720334,4.812224,4.067999,3.099028,2.641795,2.136828,0.9756397,-0.1783476,-0.8807735,-1.745528,-3.356355,-4.246098,-4.920969,-6.25066,-7.321735,-7.520382,-9.332951,-8.297195,-10.29613,-9.355059,-11.33525,-9.87982,-10.79711,-10.15042,-10.24803,-10.04882,-9.685425,-7.936354,-8.331056,-7.93161,-7.976675,-8.917846,-9.0058,-9.65213,-10.08438,-10.15573,-10.32873,-11.1851,-10.62026,-11.57704,-11.03757,-11.95559,-11.82032,-12.54546,-12.4614,-12.95192,-12.32038,-13.10053,-12.65217,-13.3115,-12.41766,-12.92538,-12.7678,-13.15537,-12.07558,-12.30745,-12.36774,-11.95719,-12.92503,-12.19583,-12.40869,-13.12858,-12.99796,-13.0695,-13.92652,-13.93574,-14.30143,-14.85234,-14.99684,-15.27554,-15.92646,-16.54949,-16.03969,-17.70671,-16.73252,-18.37339,-17.48637,-18.27412,-18.00452,-18.6099,-17.68307,-18.86002,-17.11301,-18.9352,-17.35672,-18.62185,-16.9523,-17.57231,-16.12891,-16.34043,-15.30638,-14.78363,-14.22235,-12.81731,-12.84572,-11.05972,-10.76116,-9.411224,-8.59848,-7.489493,-6.642021,-5.139277,-4.378618,-2.585634,-2.131689,-0.007503813,0.6711562,3.344125,3.146506,5.927197,5.763088,8.722364,8.945052,10.9984,11.63846,13.57101,14.52005,16.0065,17.38618,18.73252,18.68759,19.65303,20.36209,20.85041,22.12568,22.8677,23.50009,24.8376,24.42761,26.97177,25.29615,28.38599,26.4653,29.25466,27.46247,30.10969,28.29088,31.08519,28.92995,31.20566,29.78336,30.5084,30.71081,30.10736,30.02146,29.98286,29.49574,29.71284,28.64684,28.47702,27.53905,27.23657,25.95106,25.77701,24.58135,24.67203,23.22779,23.54547,21.12908,21.96095,20.46468,20.25163,19.27188,18.79926,19.03027,16.25602,16.91637,14.20237,14.42873,12.70492,12.2492,10.73586,10.05675,9.00922,7.834401,7.034274,5.853443,4.208545,4.028935,1.641597,1.691223,-0.7883183,-0.5830401,-3.887686,-3.056512,-5.549201,-5.318606,-6.769743,-7.668121,-8.068317,-9.558436,-9.289973,-10.56374,-10.88776,-11.76954,-11.76965,-11.99356,-12.50627,-12.45468,-13.45247,-13.46007,-13.68696,-14.3008,-13.97045,-14.74231,-14.13272,-15.2944,-13.82904,-15.20258,-14.5916,-14.55609,-14.54105,-14.28832,-14.3822,-14.15594,-13.19166,-12.44317,-14.80325,-11.99967,-12.69539,-11.09851,-11.16076,-10.81171,-11.18368,-11.10985,-11.33308,-11.98313,-13.13694,-12.826,-15.17988,-15.24365,-16.22904,-15.36253,-17.13834,-15.37835,-17.35866,-16.41879,-17.29062,-16.79857,-16.48382,-17.36421,-15.65513,-17.13359,-15.61436,-16.68284,-14.63146,-15.64816,-14.2473,-14.52253,-13.05704,-13.66699,-12.38229,-11.85131,-11.40682,-10.81073,-9.255677,-9.935215,-7.498325,-8.193807,-6.140958,-6.332503,-5.142994,-4.483478,-3.538488,-2.942876,-1.323649,-1.907949,0.5822919,-0.9703,1.896767,0.6837474,2.564429,2.134989,3.01243,3.446602,3.351504,4.929802,3.727859,5.651819,5.428251,5.743895,5.995533,6.035443,6.403434,6.067932,6.343243,4.609255,5.583825,5.395227,4.684277,5.21265,4.032843,4.539893,3.784738,4.296335,3.747074,3.478356,3.917143,3.047358,3.527483,2.785051,2.747763,2.885592,1.812139,2.407053,1.676357,1.606747,0.8377304,0.9856304,0.06541895,0.5509627,-0.01301534,-0.5091565,0.5242214,-0.2444945,0.5844287,0.4646053,0.9663756,-0.08435722,2.0044,1.319399,1.761009,3.103761,2.659415,4.875207,4.662849,6.088291,5.268348,9.724102,7.822946,10.81394,8.798959,11.53212,9.910395,12.01139,11.59035,11.92898,12.63512,13.26578,12.47638,13.55538,12.9912,13.70107,13.43147,14.77478,13.91464,16.37175,15.69063,17.68396,17.62041,19.21484,19.21123,20.60077,21.22291,22.73484,22.81709,24.12027,23.73767,25.69009,25.35378,26.03821,26.47279,27.06193,26.72445,27.05114,27.86025,26.49868,28.28306,26.19138,27.75326,25.40584,26.7729,25.02823,24.58886,23.58704,23.28171,20.73966,21.77825,17.9144,19.6767,16.30204,16.66961,13.58346,13.31432,11.3279,10.34281,8.516922,7.287955,5.317153,4.583288,1.607302,1.45709,-1.395843,-2.375129,-4.565884,-5.917401,-7.943659,-8.474633,-10.89353,-11.43985,-13.83785,-14.17319,-16.95108,-16.96215,-19.27781,-19.66126,-21.12703,-21.78037,-23.10846,-23.99158,-24.74549,-25.27768,-26.28335,-27.6859,-28.23006,-28.47486,-29.30667,-29.48968,-30.65638,-30.5108,-30.65967,-30.93793,-30.75228,-31.15122,-30.61579,-31.25263,-30.10336,-31.86742,-30.30736,-30.353,-28.23899,-28.33814,-26.09109,-27.31316,-25.37706,-25.38968,-25.08812,-25.04452,-24.53732,-24.51933,-24.1671,-24.79108,-23.62338,-25.49545,-24.63139,-26.226,-26.30149,-27.34282,-28.06316,-29.1914,-29.25819,-29.20823,-29.70013,-30.2322,-28.6153,-29.81257,-27.82437,-29.47544,-27.38967,-28.03595,-26.80813,-26.70312,-25.52739,-25.66371,-23.82666,-23.73501,-23.04849,-21.81632,-21.37288,-20.05685,-20.24608,-17.58696,-17.91695,-15.98986,-15.28763,-13.01951,-13.10005,-10.59752,-10.41788,-8.227409,-7.446702,-5.841651,-5.219003,-3.800912,-3.034804,-0.9391281,-1.046304,2.414038,1.04231,5.312176,4.66592,7.013819,7.385406,9.720144,10.62056,12.32371,13.00766,15.04528,14.75458,17.5235,16.81395,19.24218,18.93871,20.86263,20.74811,21.98612,22.15771,22.69902,23.61133,23.84859,23.82217,24.45345,24.14791,25.00058,24.26762,25.10066,24.43272,25.24283,23.9742,24.73874,23.3137,24.30089,21.35889,23.49661,20.46023,22.25153,19.61518,20.59885,18.52144,19.11282,17.74505,18.09358,17.20774,15.76468,16.96427,14.78883,16.75923,14.21624,16.73979,14.81373,17.11523,13.93335,15.50213,13.17813,14.11091,12.68577,11.88773,12.128,10.74042,11.02641,9.671229,9.726386,8.659827,8.094656,7.797525,6.366409,7.140865,5.795655,6.253267,4.967147,5.392917,4.517664,5.170176,4.258229,5.342726,2.961217,4.343274,3.071829,4.021916,2.60075,3.235428,2.625763,2.800672,2.07637,2.900635,1.332609,1.837345,2.097151,1.359565,2.056442,0.824181,2.605459,0.6518909,2.272633,1.035136,1.728366,0.03452825,1.473807,-0.3933214,1.349564,-0.6269423,-0.5918775,-0.8657767,-1.61378,-1.078837,-2.005299,-2.20028,-1.905996,-2.670742,-1.720293,-2.770965,-3.234229,-2.452473,-2.892866,-2.225231,-4.011609,-3.332719,-3.741684,-3.928765,-3.819461,-4.560927,-3.829388,-4.819727,-4.052681,-4.954092,-4.805605,-5.125966,-5.231856,-4.881171,-5.873583,-5.452722,-6.109019,-5.581518,-6.415369,-6.073069,-6.92349,-6.796107,-6.658067,-8.172991,-7.217698,-9.484086,-7.830171,-10.81708,-8.540435,-10.81068,-9.671509,-11.17772,-10.50872,-11.35182,-11.38127,-11.11276,-12.14388,-12.19044,-13.49063,-12.0204,-14.05992,-12.68863,-14.59763,-13.20044,-14.88138,-13.91284,-15.21574,-14.81133,-14.33961,-14.61113,-14.0207,-15.50814,-14.02183,-16.31483,-14.11235,-15.9627,-14.40454,-17.04502,-15.11342,-16.85662,-16.44532,-16.9419,-17.71589,-18.1029,-18.47337,-18.98423,-20.03279,-19.10091,-21.95845,-20.13803,-23.03242,-21.3695,-22.16376,-22.50636,-22.05728,-22.32543,-21.96353,-22.14374,-21.1254,-21.13722,-20.55035,-20.21986,-19.37834,-18.97962,-17.45802,-17.71783,-15.5975,-15.69429,-14.02,-13.17393,-12.09464,-10.50861,-9.51039,-7.801666,-7.057601,-5.546913,-4.496323,-3.574465,-2.092346,-1.283069,0.08640913,1.054292,2.601371,3.683387,5.52723,6.070168,7.550586,9.390408,10.14955,11.38242,12.07713,14.38316,15.08358,17.02692,18.01455,19.7484,20.54891,22.08514,23.00964,24.38993,24.77084,26.66066,26.98687,28.94499,28.89001,31.42692,30.61767,32.78094,32.1812,34.05797,34.25923,34.22799,35.37834,34.39287,36.27883,34.42208,35.40761,33.45095,35.27587,33.63786,34.60504,33.02725,34.40017,32.95534,32.87112,33.49852,31.90544,32.81464,31.43161,32.50035,31.38043,32.02317,31.29259,32.09054,30.9596,32.30045,31.11503,32.00699,31.94611,31.69836,31.38583,30.29088,31.10707,29.11405,31.2716,28.62473,30.01997,26.24597,28.41851,24.95233,25.997,22.89913,23.31903,20.22715,20.61884,17.25007,17.14619,14.74511,13.03508,12.57739,9.719693,9.638632,6.156082,5.859802,3.308831,2.495869,0.4159911,-1.429202,-2.041598,-4.893448,-4.481674,-7.809868,-7.257151,-10.29023,-9.916838,-12.3508,-12.33917,-13.72539,-14.63134,-15.17552,-16.77145,-16.15037,-18.29838,-17.91987,-19.84915,-18.16845,-21.52801,-20.07042,-22.28994,-21.6828,-22.09213,-22.56452,-23.20489,-23.0045,-23.7596,-23.23315,-23.92526,-23.31661,-24.64922,-23.51788,-23.56732,-22.9679,-23.286,-22.77212,-22.64929,-21.59914,-22.26594,-20.76575,-20.85423,-19.68,-19.18944,-18.03342,-17.7493,-16.85691,-16.19467,-15.67463,-15.39609,-14.19284,-13.77848,-12.91956,-13.26622,-12.90972,-11.87622,-12.62835,-11.99448,-13.44679,-12.05894,-12.54122,-11.18927,-12.47342,-10.4819,-12.61276,-9.714585,-11.98255,-10.07616,-10.41926,-10.24533,-9.845762,-10.48039,-9.75531,-10.26135,-9.291026,-10.35731,-9.210911,-10.86613,-8.883577,-10.838,-8.512935,-10.77188,-8.156914,-10.17966,-8.085394,-9.47075,-7.762012,-8.362807,-7.422096,-7.560081,-8.152772,-6.587302,-7.385944,-5.31897,-7.090986,-5.185489,-6.776468,-4.790511,-6.271619,-4.665324,-5.910466,-4.534097,-5.407156,-4.885521,-5.099387,-4.72107,-3.875034,-4.615092,-3.466435,-3.924139,-2.73818,-2.734394,-1.848147,-1.82502,-1.100759,-0.4196313,0.1269572,1.137102,1.435031,2.214987,4.117879,3.067096,5.175508,5.125346,7.291632,6.815239,8.567397,8.568405,10.11039,10.01413,11.64605,11.16416,12.73791,12.64659,13.7288,13.30698,14.90422,13.81758,15.33944,14.27157,15.83377,14.48107,16.49146,15.6983,16.51431,16.5958,16.62096,17.64709,17.26354,17.85167,18.23922,19.00293,17.97322,19.8436,17.69523,20.48018,18.3566,20.61907,18.80362,21.1221,19.92761,21.57127,20.18286,21.38761,20.45956,22.02867,21.39213,21.96754,21.86302,22.92557,22.88587,23.42595,22.79686,23.00979,22.23603,22.76191,21.85782,22.82628,22.35765,23.30841,23.17964,23.32771,24.42746,24.03415,25.75824,24.96533,27.30534,26.16456,28.41449,27.94797,29.44206,29.10644,30.66064,29.73492,31.40198,30.2438,32.09444,30.68591,31.79836,30.73096,31.30191,30.93131,30.46631,30.00142,28.4825,28.62358,27.02321,25.89973,24.74242,23.32946,22.27207,21.0535,18.82047,18.41447,15.42153,14.71354,12.56779,10.68842,9.033876,7.186876,5.980928,3.394111,2.725711,-0.6624044,-0.6236447,-4.14592,-4.401019,-7.796357,-8.674027,-11.30706,-12.12491,-15.9599,-15.89539,-19.31673,-20.1343,-22.41491,-24.21957,-25.42113,-27.87366,-28.38912,-31.10562,-31.5479,-33.74372,-34.26353,-36.5446,-37.11565,-37.87647,-39.18285,-40.11786,-40.01234,-40.98969,-41.22476,-40.84989,-41.9421,-41.50729,-42.11928,-41.59561,-41.47197,-41.60528,-40.62202,-40.58159,-39.48184,-39.97471,-37.97057,-39.51205,-36.65369,-36.33588,-34.44544,-33.59903,-33.37365,-31.4897,-31.96648,-30.67242,-31.31671,-30.30872,-30.38706,-30.31983,-30.63972,-31.68468,-31.01223,-33.15833,-33.20235,-35.21669,-35.62648,-37.02044,-36.81426,-37.81074,-37.70956,-38.43086,-38.59311,-39.01323,-39.29591,-39.42004,-39.38595,-40.19601,-39.4385,-39.29181,-39.77154,-39.00699,-39.16793,-38.89645,-38.48454,-37.58002,-37.36398,-36.18356,-36.56064,-34.68965,-34.86368,-33.03084,-32.72869,-31.44385,-30.51468,-29.06151,-28.79192,-25.86373,-26.65603,-23.24159,-23.88875,-19.87864,-20.4831,-16.82172,-16.56714,-14.15382,-12.80883,-11.16267,-9.467137,-6.899469,-6.403735,-2.910539,-2.336878,1.229187,1.061534,5.302858,5.316584,7.517984,8.81947,10.26152,12.13246,12.93233,14.14015,15.27347,16.21185,17.79633,17.84088,18.94522,19.70553,19.64626,21.0472,19.79263,21.89423,19.66165,22.11978,19.85693,21.50385,20.03418,20.98221,19.87143,19.99262,18.81094,20.51858,17.60475,18.58434,16.8243,17.65614,15.82286,16.54798,14.62415,15.66624,14.16744,15.26224,13.70103,14.68839,13.88683,15.42406,14.09187,16.18227,16.23674,15.95269,16.82459,15.0981,16.98459,15.07064,16.78692,15.07943,16.3581,14.75889,16.71711,14.83343,16.0819,15.47089,14.99128,15.28451,15.433,14.94241,15.66866,14.91165,15.60967,14.88856,16.30527,14.91844,16.10406,15.26135,16.55786,15.56955,16.07361,16.32258,17.0592,15.45861,17.26596,15.76904,17.53557,16.51468,17.75912,16.35821,17.39436,17.063,17.1479,17.6932,16.81141,17.87928,16.80561,17.05621,17.24125,16.66892,17.89958,16.24817,18.12918,15.9294,18.69586,16.20705,18.22894,15.87901,17.80372,15.77078,17.65136,15.71698,17.58082,15.54731,18.35143,15.95591,17.6938,16.06529,17.60117,15.21589,16.81821,15.63356,16.53815,15.59901,15.61261,15.77947,15.71053,15.21302,15.35921,14.67484,15.30346,14.2537,14.18498,13.65211,13.52988,13.79794,12.42983,13.09827,11.41018,12.83276,10.78326,11.76596,10.68553,10.8954,10.16468,10.56519,9.350909,10.12225,9.562536,9.963951,9.123716,9.541135,9.704538,9.624312,9.438109,9.99419,9.232263,9.977638,9.115091,9.990223,8.807941,10.04,8.65097,9.796781,8.572383,9.076226,9.060082,8.869483,8.808713,7.920021,8.340357,7.678598,8.363568,6.765651,8.178593,6.824017,8.135944,6.997792,8.244043,7.079404,8.546433,7.512738,9.428709,7.35393,10.59574,7.638939,10.62729,8.999785,10.44267,9.532508,10.39977,10.57145,10.24868,9.638885,10.54454,9.345242,10.66934,9.086506,9.778154,8.833737,9.352211,9.14591,7.922344,8.224566,6.688627,7.055374,5.716363,5.272825,4.937919,3.651322,3.804564,2.272791,1.583527,-0.1002039,0.2815924,-2.383787,-2.23525,-3.797327,-3.787183,-6.241106,-5.358748,-8.040019,-8.454906,-9.785257,-10.07729,-12.45236,-12.52354,-14.03213,-14.69269,-16.19271,-15.92248,-18.13559,-17.54097,-20.37966,-19.69293,-21.05824,-22.23001,-22.52404,-23.90059,-24.16519,-25.60386,-26.16299,-26.96509,-27.78766,-28.17374,-29.46497,-29.83084,-30.28753,-31.37224,-31.01493,-32.39867,-31.28207,-32.5917,-32.11843,-32.6225,-32.37983,-31.70281,-32.31098,-30.91496,-32.62892,-30.53214,-32.19618,-29.91008,-33.19687,-30.62311,-32.60415,-31.16155,-32.59451,-32.2325,-31.68813,-32.91184,-31.46691,-33.20487,-31.44513,-33.05565,-31.54757,-32.85713,-32.08938,-32.92412,-32.7688,-32.04225,-32.37157,-31.27429,-31.4058,-30.08999,-30.78614,-28.67217,-29.59303,-27.42432,-27.7836,-26.15614,-25.89611,-24.36031,-24.72291,-22.14599,-23.01311,-19.89232,-20.01823,-18.84528,-17.19427,-16.41708,-14.5727,-14.74185,-11.6877,-11.93822,-9.157909,-8.678692,-5.951493,-6.214027,-3.151551,-3.428358,-0.8832237,-0.7639187,1.708704,2.168722,3.867801,4.355293,5.960941,6.806733,7.846943,8.26871,9.587266,10.03168,11.58414,11.83153,12.46511,13.49207,14.29191,14.37266,14.94125,15.66591,15.87426,16.3417,17.20916,16.90175,17.42648,18.1606,18.3778,18.47389,18.28205,19.11631,18.01045,18.82849,18.39282,18.62141,18.24971,17.67781,18.38576,17.02983,18.29748,15.96625,17.66968,15.70613,16.33176,15.48847,14.98633,14.70064,14.89621,14.57508,14.4075,14.98691,13.79748,15.06333,13.41098,14.6275,13.60687,14.53385,13.38841,13.83288,12.04126,13.59962,11.6819,12.74045,10.17957,11.87208,10.21223,10.89189,10.34408,10.24082,10.48631,8.984533,11.26101,8.055209,10.22997,7.938747,9.073868,7.752182,8.533841,7.837219,7.73467,7.626011,7.394882,8.478133,7.542183,7.638496,7.028222,7.792554,6.544964,7.397762,6.765963,6.39759,6.749804,6.237554,6.399098,6.501092,6.665608,6.277409,7.25295,5.162574,8.332411,5.386963,7.94561,5.961353,7.59169,6.63801,7.22847,6.452959,6.981724,5.060786,7.711339,5.291368,7.233809,5.760435,6.465763,5.725401,6.089766,5.266012,6.341558,4.517364,5.10645,4.489907,4.580475,3.742414,3.675355,2.796554,2.950245,3.252958,1.871552,2.158909,1.377533,1.509044,0.6123548,0.7807986,-0.5447889,0.1939657,-0.5949919,-0.7189186,-1.279397,-1.832156,-2.122237,-2.693695,-2.761223,-3.526584,-2.766319,-4.833147,-3.245001,-5.171344,-3.751633,-5.827754,-4.669042,-6.378907,-5.019787,-6.661711,-6.322047,-6.720174,-7.172374,-6.789276,-6.925262,-7.785854,-8.246612,-7.496902,-9.469285,-8.513884,-9.784968,-9.627887,-10.10879,-10.16825,-10.11137,-10.8603,-10.43581,-10.94009,-11.21523,-11.27802,-11.57032,-11.22179,-11.82609,-11.14423,-12.05146,-12.20854,-12.41433,-12.70534,-12.37006,-13.93344,-13.10629,-13.61501,-13.49796,-13.80321,-13.69093,-14.36509,-14.09583,-13.86987,-13.69629,-13.56335,-14.54661,-13.73692,-14.09424,-13.66939,-14.40075,-13.14212,-13.71255,-12.78845,-13.8977,-12.37497,-14.00953,-12.29202,-13.52466,-12.97216,-13.19214,-14.09225,-12.65818,-14.9261,-12.39334,-15.21715,-12.87795,-14.32294,-13.86588,-13.41415,-13.6197,-13.20708,-12.04598,-13.46343,-12.56005,-12.77501,-13.1139,-11.6162,-12.39628,-11.58956,-11.72992,-11.14313,-10.54487,-10.0242,-9.962217,-8.864286,-8.535234,-6.720925,-7.462846,-4.341443,-6.269307,-2.940892,-3.950112,-1.314941,-1.605734,0.2663797,0.2781206,2.966286,2.064986,4.261585,4.280424,5.378961,6.086468,6.981877,8.37347,7.670178,10.76807,9.207061,12.07844,11.01611,13.02985,12.74579,14.14141,14.42834,15.39302,16.0428,16.02735,17.71173,17.16063,18.39881,18.88894,18.71424,20.1177,19.61187,21.01367,20.21321,22.85104,20.98024,23.78248,22.18615,24.41352,23.14342,24.30718,23.22095,23.30569,23.41186,23.04455,23.29106,24.11618,23.75527,24.17464,24.62224,24.87066,25.56728,26.16547,25.93177,26.93138,27.1965,27.00747,27.88049,28.06726,28.39606,29.20378,29.12982,29.61012,29.49704,30.65042,29.99667,30.77375,30.44232,30.6533,31.05623,30.7586,29.59171,29.72453,29.34357,28.58877,28.4436,27.47036,26.23555,26.11447,24.16882,24.60468,22.28191,23.1588,20.13566,20.93421,18.11249,18.17276,16.14067,15.11466,12.77623,12.12855,9.796351,8.696718,7.216876,5.032364,5.119309,1.969632,1.995748,-0.7083386,-0.6887885,-3.181066,-3.79743,-5.037737,-6.210311,-7.32081,-7.044081,-10.34273,-8.172057,-12.64281,-10.27852,-13.77344,-12.07526,-14.5567,-13.92789,-14.69474,-15.45043,-16.71159,-17.04978,-17.8286,-18.28644,-17.97855,-18.92866,-17.78582,-18.52387,-17.28044,-18.63558,-17.03216,-17.63824,-16.88206,-17.05644,-16.17129,-15.99829,-15.1464,-15.38023,-14.53098,-13.79899,-14.2007,-12.78012,-13.07802,-12.83998,-11.90881,-12.42265,-11.04829,-12.30082,-10.01871,-12.46458,-10.59377,-12.41936,-10.97415,-13.13938,-12.69528,-13.83797,-13.27497,-13.73878,-13.66157,-13.70805,-13.39285,-14.67982,-13.20284,-15.02051,-12.96352,-15.06918,-13.10525,-14.87552,-13.88941,-15.12946,-14.28513,-14.35572,-14.8335,-13.7916,-14.97079,-13.47176,-14.99107,-13.31363,-14.36542,-14.16539,-14.05038,-13.58051,-14.85096,-12.94188,-14.22194,-13.64445,-12.7436,-12.94845,-12.46194,-12.70114,-11.97915,-12.51564,-10.97219,-12.1647,-10.17046,-11.76856,-9.41336,-11.01103,-9.007119,-10.5755,-8.501634,-9.668317,-7.921709,-9.283091,-7.938019,-8.181673,-7.715696,-6.779926,-6.858336,-5.860492,-6.182255,-4.914544,-5.466793,-4.064298,-4.978863,-3.490139,-4.105612,-3.060993,-3.544394,-2.015893,-3.88719,-1.025373,-2.90512,-0.1183644,-2.853831,0.814582,-1.715811,1.140244,-1.125057,0.9140667,-0.2156979,1.187467,1.742216,2.30736,3.513629,3.16764,5.142431,4.160245,5.830295,4.853943,6.416086,6.010997,7.276028,6.345362,8.365546,7.095001,9.18794,8.085055,10.56723,9.277564,10.83394,11.19267,11.73405,12.34136,13.00974,13.19496,13.99034,14.27656,15.30313,14.34877,15.46162,14.5488,15.78183,14.96712,15.54541,14.91705,16.15884,15.24653,16.82824,15.85626,17.37296,16.16457,18.42293,16.68008,18.8681,17.31091,18.9124,17.53946,19.0822,18.09516,18.85208,18.13292,18.17887,18.19072,17.09144,18.3945,15.98795,17.74338,15.6206,16.96249,14.67408,16.30867,13.98223,15.80795,13.78376,14.2411,13.70784,13.18833,12.13845,13.14224,10.88941,11.91315,10.22777,10.45907,9.564517,8.620036,8.272283,7.54836,6.706246,6.112679,5.139199,4.522642,3.405895,3.021469,1.590027,2.454015,-0.5413134,1.177682,-2.056312,-0.9309383,-4.077246,-2.661436,-5.84386,-4.448522,-7.777282,-6.812139,-9.053469,-8.402438,-10.99472,-9.753879,-12.39489,-11.30214,-12.98959,-13.15207,-14.37504,-13.52774,-15.73432,-14.65876,-16.48127,-14.72023,-17.95069,-15.53778,-17.15965,-16.16202,-18.0293,-17.41906,-18.40764,-17.77475,-18.49698,-18.94806,-18.62107,-18.70265,-19.04025,-18.50292,-17.62964,-18.17868,-16.76774,-17.62832,-16.75797,-16.8608,-15.89111,-16.68882,-16.47286,-17.46956,-17.27711,-18.22966,-18.37764,-18.94103,-19.58585,-19.77541,-20.96384,-20.68963,-21.40861,-21.29101,-21.71628,-21.34881,-21.09894,-21.38208,-20.72594,-20.78522,-21.0556,-20.69081,-20.64232,-20.87748,-18.31663,-19.93685,-18.58699,-18.80774,-17.07956,-18.31314,-15.35852,-16.88797,-14.60323,-15.37468,-12.44818,-12.71777,-11.33596,-10.75919,-9.231353,-8.84819,-7.636572,-6.245053,-5.956181,-4.410145,-3.187514,-2.829498,-0.6829674,-0.9360359,1.267158,1.733538,2.437111,4.303036,4.301945,6.184815,6.154011,8.435409,8.323082,10.49305,9.839985,12.41214,11.29663,14.20492,12.80123,15.43473,14.20676,16.91467,14.2392,18.14323,15.2399,18.35139,15.85399,19.37368,15.52429,19.09993,15.51266,18.43977,15.28896,17.42326,14.4291,16.34405,13.51277,15.18546,12.58194,13.59747,12.0002,11.74147,11.0863,10.21912,10.10127,9.253699,8.223571,8.66907,7.131953,6.904055,5.787473,6.555685,5.40649,5.361726,4.676331,5.380663,4.542359,5.786626,4.518199,6.22183,5.006517,6.128905,5.682907,5.410702,6.111902,5.75615,6.177231,4.757737,5.268056,4.367358,5.288031,4.536546,5.087505,4.602945,5.0212,4.64153,4.410964,4.878477,4.244483,4.953555,4.211385,4.287943,4.436958,3.507915,4.230994,2.794027,3.502653,3.319613,3.382601,3.795492,3.71571,2.539385,3.362678,2.856885,3.338332,2.540764,3.466114,1.792479,3.497287,1.378085,4.451414,1.381922,3.719993,1.098172,3.378458,1.333739,2.48044,1.256444,1.715897,1.405269,1.246059,0.6001395,0.8928749,0.3553432,0.2176766,0.4192552,-0.4300503,0.3241896,-0.9103257,-0.169478,-0.966724,-0.1191334,-1.166933,-0.6032265,-0.8352395,-0.6065934,-1.176662,-0.2617854,-1.538119,0.3357095,-1.888303,0.3587114,-1.747464,0.9653499,-1.366547,0.7530739,-0.5114691,0.6780755,-0.4718912,0.8062875,0.008463414,0.951681,-0.1706768,1.436514,-0.0772122,1.112668,0.4761417,0.8547586,0.6290487,1.010274,0.4526894,0.7185386,0.7170556,0.3967697,0.9523344,-0.4870819,0.437838,-0.7595799,0.5223811,-0.8717875,0.3709921,-0.06893857,-0.3712633,-0.08109581,0.3151238,-0.08360893,-0.2587346,0.576947,-0.09063208,1.29982,0.2339239,2.108897,0.1888985,2.17191,0.645842,1.961608,1.631037,2.07079,2.701627,2.951579,3.654291,3.979827,5.098529,5.39918,6.419713,5.873424,7.983109,7.379963,9.39479,8.259265,10.18044,10.25697,11.35313,11.78864,12.30568,12.80642,14.01925,13.58583,14.56341,13.90538,14.92086,14.7853,14.84303,15.01638,15.29468,14.82927,15.73944,14.49373,16.29414,13.22893,16.57143,12.41763,15.34008,12.12629,13.90108,11.23236,12.46123,10.57674,10.88004,9.889816,8.865501,8.352231,7.137577,6.507581,5.202748,4.45113,2.250969,2.251408,0.4432062,-0.6322514,-1.452418,-3.249167,-3.526441,-5.560007,-6.089508,-8.18614,-8.812642,-9.905876,-11.58089,-12.04746,-13.92935,-13.58419,-15.43838,-15.95444,-17.01743,-17.05427,-18.29007,-18.08218,-19.048,-19.44449,-19.35678,-20.34763,-20.2322,-20.79989,-20.64024,-20.79374,-19.81242,-20.48624,-19.22397,-20.51473,-19.03761,-20.77135,-19.22687,-20.66248,-19.87827,-20.9138,-19.73175,-20.98541,-19.59137,-21.06982,-19.18026,-21.39207,-19.871,-21.15771,-20.23478,-21.05748,-20.71719,-20.85397,-20.99529,-20.86345,-21.66201,-20.92367,-22.27317,-20.72834,-22.20811,-20.21439,-21.79066,-19.06064,-20.17239,-18.95087,-18.65075,-18.0583,-17.36715,-17.57288,-16.27115,-16.5711,-13.84252,-15.11959,-12.4389,-13.41514,-10.23037,-10.84551,-9.440444,-8.177024,-7.592457,-5.26614,-4.96627,-3.295616,-2.50813,-1.255498,0.4539458,0.9785341,3.122113,3.278657,5.70484,5.615628,8.508643,7.852765,11.14084,9.945372,14.2618,12.4108,16.26204,15.60225,17.8026,18.43609,20.29669,20.22123,22.12478,22.34116,23.40468,23.63636,25.02536,24.65899,25.62914,25.55168,26.25539,26.28486,26.36936,26.06094,26.02222,25.63467,26.16792,24.52865,24.80615,24.01622,22.9536,22.92717,21.14171,21.61398,19.33723,19.48796,17.54583,16.4389,16.71156,13.97978,14.70519,12.14498,12.27715,10.92303,10.63287,9.383846,9.717345,7.711423,9.56514,7.118063,8.063878,5.525717,7.001277,4.326508,5.895385,2.639158,4.549008,1.372351,3.437304,0.2364211,2.052924,-0.2967759,1.020273,-1.533142,0.3312071,-2.512713,-0.0657494,-3.67253,-0.5955413,-4.381541,-1.5611,-4.638378,-2.306777,-5.162353,-3.404847,-5.23263,-3.680947,-5.081221,-4.489149,-4.730296,-4.926997,-4.477593,-5.51686,-5.787358,-5.979889,-6.780427,-6.643994,-7.577843,-6.670554,-8.301748,-6.85262,-8.571209,-7.411424,-8.592759,-7.248794,-9.272109,-7.260727,-8.935847,-7.470638,-9.183658,-7.991924,-9.512894,-8.270026,-9.766183,-8.681365,-9.778681,-8.401752,-10.37273,-8.566539,-9.783761,-8.610158,-9.503789,-8.798918,-8.674591,-8.764503,-8.551403,-8.13189,-8.390668,-7.867174,-7.448138,-7.530104,-7.373441,-6.750675,-6.640255,-6.451604,-6.084098,-6.021146,-6.071305,-5.502521,-5.330202,-5.299482,-5.296982,-5.668667,-4.471825,-5.194191,-4.034593,-4.599786,-4.720113,-4.112181,-5.028381,-4.393818,-5.165082,-5.096656,-5.092432,-6.157863,-5.116351,-7.015063,-5.91913,-7.599418,-6.942133,-8.434674,-7.328538,-8.980761,-7.644622,-10.43886,-8.159251,-10.85632,-9.164575,-10.91351,-10.26473,-10.61476,-9.308128,-9.952676,-10.10983,-9.923739,-10.52031,-10.61399,-11.58371,-11.59973,-13.26157,-11.79327,-14.94525,-13.44349,-16.08998,-14.23934,-17.95556,-16.11608,-19.44391,-17.1393,-20.93049,-18.07604,-22.02445,-19.46443,-22.65215,-20.61152,-22.0353,-20.7473,-22.3041,-20.91655,-22.12132,-21.21706,-21.88388,-20.16498,-21.43424,-19.53894,-20.20575,-18.30032,-18.79345,-16.6134,-16.70146,-14.44158,-14.00112,-12.45918,-11.26315,-9.972584,-9.879232,-7.063762,-7.648037,-4.178821,-4.845622,-1.316592,-1.602576,1.405242,1.77703,3.978653,5.26014,7.264739,7.689866,10.89037,10.79846,13.82258,13.76698,16.97001,17.39255,19.38107,20.53375,22.31664,23.00348,24.99291,25.31726,26.85922,27.22803,29.31387,29.39935,30.90616,31.68875,32.00424,33.0161,32.74349,34.04713,32.8777,34.38957,33.2742,34.87979,33.57978,33.70166,32.09758,31.98557,30.52596,31.16249,30.19891,29.8872,29.69017,30.03955,28.94245,30.02032,28.33695,29.74982,28.48498,29.79974,28.9336,30.52718,28.81373,31.34252,29.57617,32.79084,30.66251,34.17946,32.2514,35.46705,34.60118,35.79413,35.2369,36.11798,36.47214,35.20019,36.18323,34.52383,36.4326,34.01057,35.43958,32.53486,34.48385,31.59909,32.63201,29.21587,30.743,27.89641,28.51012,25.56602,25.81508,23.29801,22.67604,21.3924,19.18865,19.0092,15.84277,15.53251,12.79509,12.02982,10.0378,8.670055,7.628434,4.120046,4.362953,1.193541,0.6391346,-1.842241,-2.582647,-4.691492,-5.664487,-8.511385,-9.309262,-11.66098,-12.27087,-14.85469,-14.98827,-18.06798,-17.14908,-19.5975,-19.52897,-21.91871,-22.00917,-23.30063,-23.67921,-24.3533,-24.61836,-25.59396,-24.64535,-26.00271,-24.85121,-26.53025,-24.96279,-26.41578,-24.61522,-25.75783,-24.4751,-25.53325,-23.50777,-24.28915,-22.33281,-23.11154,-20.98492,-21.29427,-20.11681,-20.06728,-19.55292,-19.5987,-18.34727,-19.43421,-18.27218,-18.91915,-19.19324,-19.33486,-19.75466,-21.11374,-20.56698,-21.2607,-20.27042,-20.49569,-20.51999,-20.70619,-19.7688,-20.37904,-20.02637,-19.5839,-20.45327,-18.95829,-19.6957,-19.18209,-18.50507,-19.22508,-17.86545,-18.91263,-17.62475,-18.30387,-17.79384,-16.7641,-18.22042,-16.47191,-17.28896,-16.94547,-15.41434,-16.03903,-14.65936,-15.57969,-13.34736,-15.41011,-11.94075,-14.70326,-11.39974,-13.26872,-10.72524,-11.77012,-10.49995,-10.54653,-9.685267,-9.242339,