ConstAcc,0.5,0.49198,-54.3186,-32.53151,-13.88464,1.865957,14.95364,25.60146,34.02229,40.41909,44.98509,47.90397,49.3501,49.48872,48.47614,46.45999,43.57934,39.965,35.73963,31.01803,25.90727,20.50695,14.90938,9.199767,3.456447,-2.248923,-7.851161,-13.29135,-18.51666,-23.4801,-28.14036,-32.46156,-36.4131,-39.96941,-43.10978,-45.81813,-48.08281,-49.89644,-51.25562,-52.16081,-52.61608,-52.62894,-52.21008,-51.37322,-50.1349,-48.51425,-46.5328,-44.21428,-41.58441,-38.67071,-35.50227,-32.10957,-28.52428,-24.77902,-20.90719,-16.94278,-12.92012,-8.873691,-8.27858,-9.734541,4.802575,10.67395,13.37284,15.52124,17.85531,16.16931,14.50341,14.25467,14.58634,14.60124,14.36353,13.97235,13.33692,12.12449,10.06593,6.98142,3.10228,-1.679301,-5.783034,-9.026777,-11.11109,-11.55752,-10.13951,-5.223271,0.05807833,5.242214,10.13215,14.65913,18.73511,22.10686,24.71947,26.44237,27.14904,25.38072,21.7609,17.15543,12.08805,8.391862,6.232235,6.030637,9.178364,14.65794,20.20075,25.53964,30.27299,34.2147,37.1238,38.89935,39.51734,39.11198,37.82028,35.59272,30.75387,24.29093,18.40353,13.72314,10.5145,8.92278,10.92053,15.41798,20.59263,25.7137,30.16998,33.65017,36.12288,37.63183,38.02788,37.18372,35.2317,32.44549,28.96845,22.87359,15.30953,8.242632,2.64981,-0.9846739,-2.638849,-0.2824482,4.698217,9.936198,14.91594,19.06787,22.0356,23.75411,24.29321,23.73437,22.16524,19.55356,16.07629,11.94221,7.32404,1.795589,-3.349414,-7.267554,-9.125511,-8.65839,-5.206093,0.4274077,6.865175,13.28458,19.06556,23.86326,27.23151,29.18854,29.89643,29.55677,28.40483,26.45258,22.93773,17.38045,11.22475,7.127302,5.36397,5.954131,11.14611,19.4595,27.84463,35.28426,41.35847,45.83458,48.80559,50.28431,50.3333,49.22122,47.20121,44.56932,41.40764,35.31447,28.12311,22.81027,20.03324,19.91623,22.15491,28.8552,35.99781,42.63741,48.06929,51.92602,53.84629,53.8886,52.39204,49.512,45.15273,39.35871,32.10182,25.40018,20.75139,18.75599,19.57457,22.98959,28.74745,36.72624,44.95601,52.08466,57.21989,60.45852,61.87297,61.55726,59.68044,56.52093,52.568,48.03271,42.99865,39.7608,36.08545,33.57384,32.9755,34.38422,37.65284,42.86444,48.17946,52.53454,55.21581,56.06998,55.21421,53.06259,49.65641,45.107,39.64037,33.31359,26.37443,19.25765,14.55288,11.86571,9.669635,6.75374,4.679705,4.29317,3.138306,1.490513,2.436717,4.087506,5.252625,5.180904,3.281129,-0.2874387,-4.98489,-10.50278,-16.54526,-23.00846,-29.78611,-36.54191,-40.69814,-45.46446,-48.97847,-50.35946,-49.29232,-46.64882,-44.66131,-40.38093,-36.09829,-32.75604,-30.91031,-30.6677,-31.68193,-33.76903,-36.40049,-39.20081,-42.18118,-43.88735,-42.94571,-39.63593,-34.33808,-30.52874,-26.33297,-23.39196,-20.75957,-18.03227,-12.2952,-5.920405,-0.1399212,4.625321,8.147564,10.4629,11.70409,12.14495,12.03009,11.64914,13.99655,18.28634,21.82151,25.15003,29.70585,35.91681,40.639,44.47599,50.63144,56.46199,60.32844,61.96733,61.67922,59.77149,56.74831,53.02187,48.58036,44.07002,42.09838,42.9295,46.4978,55.47762,66.83972,78.25861,86.05602,90.3185,91.81348,91.35565,89.89372,87.65879,84.81314,81.66705,78.30795,74.971,71.81754,68.42155,64.65971,60.5007,57.10618,53.49455,53.08711,56.95912,61.11093,68.60422,75.83321,80.62454,82.46896,81.77274,75.8364,68.08038,60.52238,53.90811,48.30343,44.04007,40.90441,38.11943,35.18003,33.05832,33.55681,35.72049,38.86229,42.34649,46.24022,46.96814,45.57299,42.7551,39.02372,35.02007,31.13661,27.32828,23.35732,18.93053,13.85952,8.46807,2.680445,-3.52097,-6.858299,-8.271586,-8.427451,-7.759776,-6.502279,-4.881354,-6.516875,-10.19551,-14.87765,-20.1966,-25.58052,-31.17543,-36.71424,-42.01603,-47.31132,-52.37686,-57.7621,-63.28142,-69.03417,-75.22291,-78.26584,-79.20496,-78.96981,-77.8829,-75.95239,-77.07648,-80.38389,-84.8391,-89.83294,-94.73873,-99.95904,-105.6217,-111.3467,-113.0071,-113.8778,-115.8105,-119.5624,-122.0889,-122.8727,-122.4861,-121.4039,-123.8947,-126.6868,-131.6443,-136.3558,-140.1905,-143.1896,-144.9185,-145.4984,-145.9005,-146.2704,-146.3508,-143.0087,-137.3354,-129.1563,-118.762,-110.3972,-103.3121,-96.74753,-87.35831,-79.07748,-73.71966,-71.24201,-70.9175,-72.0638,-73.97781,-76.4885,-83.04346,-90.13923,-95.94468,-99.97875,-103.3243,-102.9354,-96.24619,-85.30956,-74.93684,-67.65131,-64.22644,-68.07271,-79.74612,-92.78136,-104.3401,-113.9701,-118.026,-118.49,-117.4743,-116.0835,-114.435,-112.9352,-107.961,-103.1898,-100.3806,-99.40657,-99.80064,-100.6728,-101.5457,-102.0056,-102.2231,-105.1666,-108.6444,-110.7715,-111.5127,-111.1233,-110.0455,-108.7242,-104.6621,-98.04805,-91.57543,-86.75988,-83.55707,-81.37502,-79.83229,-78.7311,-77.8609,-76.76606,-75.44755,-73.93173,-72.72125,-71.55065,-70.66563,-69.64998,-72.78367,-75.98757,-77.43428,-76.94924,-74.78207,-67.81363,-60.7154,-55.4977,-52.1691,-50.29609,-49.26811,-48.19074,-46.25623,-43.57879,-40.42676,-37.07258,-33.69204,-34.58164,-35.41671,-34.82416,-31.67099,-26.33034,-19.09453,-11.48752,-6.034854,-3.487344,-3.536406,-5.436712,-8.398284,-11.944,-16.30963,-16.65165,-14.94027,-12.78764,-11.3789,-9.709553,-8.124995,-8.571639,-12.37948,-15.31532,-15.98675,-14.27333,-9.948265,-3.427211,5.516079,18.63938,31.00616,40.81898,47.96156,48.95379,47.34876,45.17147,43.56813,42.20533,41.44767,36.7902,32.06661,32.84119,37.08761,42.6429,51.70201,59.76491,65.0737,63.26876,57.61997,50.53823,43.04471,36.22665,30.10484,29.03906,30.01709,30.8598,30.74484,25.43938,20.02914,16.56625,14.87867,14.5855,15.85285,13.85979,15.02049,15.96691,15.28513,13.08621,9.832795,6.473459,2.693464,-1.691609,-2.278073,0.08295183,3.457797,7.414663,11.38263,11.5429,13.04812,14.7689,15.069,14.89664,19.74087,24.89545,28.44307,30.44962,31.286,31.47969,31.62963,31.54327,31.11622,30.3598,28.98519,27.20717,24.76645,22.05694,21.60838,23.58984,27.44032,32.28315,35.37421,37.60191,37.875,36.98096,35.84098,34.99542,34.32653,33.23631,31.47838,29.21139,26.08784,21.97854,17.76327,15.83056,16.91733,19.83812,23.96996,33.11829,37.05523,37.0451,35.03285,32.51757,30.19942,28.60854,27.36097,25.81671,24.06021,21.32459,17.82748,14.42109,9.791216,4.333024,-0.1435455,-0.8219352,-4.685167,-7.413898,-7.969377,-6.122439,-2.290188,6.103775,10.11503,10.63799,9.102392,7.211346,5.879879,5.148268,4.738717,4.178691,3.564668,2.28097,5.76057,10.82151,15.74846,20.51788,25.03747,24.96334,23.11935,16.57235,11.36855,9.481258,10.03966,11.64324,17.64801,21.78734,22.92553,21.60192,19.01189,15.58172,17.15975,20.44129,24.17861,28.14783,32.23818,36.6851,41.23136,41.27774,39.70269,38.04775,36.9501,36.73491,36.78459,36.84225,36.55306,35.61116,34.11069,32.36838,30.23877,27.59762,27.39298,27.48129,29.52257,33.82253,39.30887,39.85442,38.88805,39.22616,44.80352,49.96697,53.33277,55.06979,56.10063,56.77455,56.78507,56.17064,54.99877,53.08758,57.01364,62.82368,68.45065,73.03335,77.03416,77.6048,75.07224,72.36398,70.10399,68.70851,67.48003,65.50223,62.5437,59.12066,55.28851,51.23145,47.04612,48.17772,46.45254,45.41421,46.55826,49.94366,49.12313,47.49863,46.47314,46.73364,47.89703,54.56577,60.12409,62.82397,63.75024,63.42687,63.00656,62.56669,61.90085,61.00517,59.82135,52.84062,46.16351,47.37657,52.00274,57.78386,63.22341,73.72173,77.91107,78.11792,77.53011,77.51126,78.22815,79.4529,80.57679,81.38458,81.23192,80.33318,74.70522,69.46408,65.82871,64.27143,63.16415,61.75852,61.18987,63.34097,69.82159,75.96113,80.8843,85.43023,90.12185,88.72544,85.98283,78.38893,73.40578,70.36607,69.09469,71.5428,74.60882,75.99876,77.02888,83.03067,88.69991,93.53408,96.00158,97.30886,97.62168,96.87458,95.05834,92.31595,89.35778,86.148,82.40037,77.55915,71.96789,65.96333,59.04053,54.48125,53.43632,52.76009,51.47842,49.66127,48.12481,47.51524,40.81698,31.91865,25.01472,19.81351,16.42953,16.07095,15.52386,13.04294,7.375998,5.408283,9.900537,20.45167,28.43771,32.9517,35.38667,36.79316,34.19545,25.98356,22.77459,16.37445,-5.723673,1.167212,3.498812,-6.605641,3.633982,13.14819,12.90653,-11.89025,-29.94104,-32.40531,-21.93215,-13.1454,5.911145,35.54574,52.72763,52.17914,58.66354,66.98979,66.90063,57.36162,45.02425,35.21504,24.53168,18.01548,15.28404,13.68516,8.410772,0.3368912,-4.264284,-9.109103,-14.49597,-19.94991,-26.15307,-33.31222,-46.8962,-61.00182,-73.57831,-85.42975,-97.39357,-110.1718,-123.5299,-137.29,-152.0552,-167.4007,-183.2175,-193.4572,-203.1913,-212.984,-223.6995,-232.1134,-239.6607,-249.0856,-259.8186,-264.401,-267.2115,-273.0685,-282.1614,-292.0666,-299.9215,-304.8099,-301.9677,-301.6678,-299.695,-291.4631,-289.513,-281.6865,-268.6022,-252.2972,-236.9,-224.3426,-223.2016,-219.6162,-207.3333,-191.8428,-174.2727,-154.6584,-132.8201,-116.0223,-95.67461,-73.43012,-52.48958,-28.62716,-6.442409,9.924513,21.01347,31.12364,43.9787,54.53504,60.33374,56.54382,52.92412,59.92304,66.73267,71.64765,75.23602,82.37828,84.02315,82.91862,83.56166,90.38195,97.41622,98.63779,90.2311,77.76986,62.67117,46.51055,29.03438,12.46992,0.5152186,-17.32723,-29.05622,-19.84672,-48.78248,-72.86763,-74.88513,-100.8267,-131.211,-155.8532,-153.8817,-136.562,-119.5895,-115.2249,-108.8385,-113.5801,-134.8213,-151.124,-150.8461,-156.3958,-165.1225,-174.2009,-181.2579,-181.1375,-176.2112,-166.1252,-157.0053,-145.0491,-138.0675,-132.708,-130.5426,-128.8506,-123.4747,-114.3243,-105.4088,-98.18527,-96.86077,-93.95749,-91.95242,-88.21506,-85.88357,-84.38899,-81.7966,-72.25894,-57.23753,-40.81721,-25.70089,-10.29103,10.70245,29.46103,44.15319,57.60994,68.87798,79.99184,93.39348,105.1761,107.9944,105.2236,102.2308,100.6693,98.85618,94.27695,85.15806,73.42427,65.32658,58.2584,46.07681,39.14791,27.94879,14.41983,-0.8629594,-26.32262,-49.13612,-56.4628,-58.44769,-64.35275,-67.92909,-70.1929,-75.03023,-82.54191,-84.54426,-88.27995,-94.43151,-100.115,-110.0328,-122.099,-131.1335,-136.8925,-148.3644,-161.5494,-172.7922,-180.2691,-178.6412,-176.0978,-170.0192,-165.8947,-163.1883,-159.3299,-159.2033,-156.2608,-149.7887,-142.3422,-135.2687,-129.5874,-123.5416,-123.3473,-119.8239,-111.8761,-101.8397,-86.39526,-73.8984,-64.73188,-57.68331,-55.38661,-55.09127,-41.65836,-27.9075,-21.6699,-11.74763,-0.4200863,12.51172,29.91583,35.60191,30.60178,31.62118,37.76325,45.92884,53.90184,60.94454,67.62696,74.13934,85.30985,92.71233,103.3151,113.6722,121.6056,130.1615,138.0251,136.7249,133.5897,130.073,128.0292,127.2187,121.8576,106.3897,90.51733,76.7486,69.86011,62.65934,58.0893,55.08155,61.90202,71.14025,82.49641,91.04292,96.67865,102.4182,109.7735,116.8189,115.79,115.2998,117.3565,120.5263,122.6961,119.0321,117.0917,116.934,117.401,117.8926,124.8681,128.612,128.6497,127.6684,126.495,125.8006,124.8086,122.52,119.7513,115.836,111.7311,107.8307,103.5126,105.3461,106.2147,106.2899,105.9129,99.74895,93.67577,87.64361,83.58192,80.86067,78.54661,74.86541,77.34495,76.63602,72.13027,65.99258,60.03978,54.96125,57.64777,60.56214,61.87402,55.45803,52.73295,54.48395,51.44653,49.26335,52.00722,55.63947,56.3734,55.38316,53.65269,52.38188,50.75246,49.33833,47.43549,53.15096,53.03106,54.89733,58.56016,55.95519,53.02315,51.23783,56.41411,60.0664,59.97236,57.68249,54.40624,51.19775,48.40995,44.47245,39.6852,33.48469,25.9837,24.98605,19.61133,16.57413,16.02818,16.61347,17.316,25.4885,31.10555,27.12619,23.16653,21.12078,20.16853,19.85824,17.97059,14.66115,11.05665,6.956651,2.664852,-2.278148,-8.266766,-19.69681,-21.02081,-19.70501,-18.48668,-17.83502,-16.30548,-6.736833,0.2049485,-2.067182,-4.161085,-4.282697,-2.768492,-1.16866,-0.6594272,-1.305083,-2.665029,-3.678661,-4.82693,-6.332085,-15.1529,-20.42996,-15.05932,-8.578989,-3.632253,2.224156,12.37664,12.76457,12.20033,14.41746,16.95755,19.74312,21.23805,21.93084,22.32661,22.13534,21.9803,20.84209,13.61016,9.464993,7.577146,5.714074,9.552575,9.423923,13.67177,16.51302,18.24043,19.79979,22.2828,24.84996,28.46704,23.99906,20.31355,19.40375,13.04951,9.789019,8.284601,6.405374,3.298039,0.03209772,11.38225,18.99281,21.92997,23.8934,27.52837,27.64486,25.51573,24.29351,24.06234,23.77263,22.38367,19.98275,16.69664,7.532081,-0.142639,2.98888,6.433736,8.21113,9.386839,12.54457,22.94523,23.66179,20.88229,19.79897,20.56155,21.62637,21.56135,19.64331,17.55483,15.33974,13.07791,9.944397,7.200055,11.20002,7.622538,6.740915,8.546422,12.35004,8.606648,6.515958,13.26771,16.81336,16.76637,15.67679,15.08755,14.37646,13.34022,11.73203,9.495261,6.525391,3.210824,-0.8296378,2.757615,1.340622,-1.240153,-1.110954,1.770346,5.601488,2.066488,6.150111,9.090103,9.420998,9.333816,9.109732,8.345616,7.498458,6.099059,3.891079,1.374898,-1.519774,-4.724594,-7.356521,-6.653266,-4.316531,-1.589171,1.315513,6.768466,8.323635,8.198007,8.619971,9.29858,9.68747,9.539298,8.607936,7.310357,5.86025,4.139319,1.428012,-0.8020166,-1.132447,-0.02702246,2.118989,5.447399,1.373903,-1.168825,6.007147,9.429888,9.102372,7.73379,6.546902,5.852519,4.191695,1.605233,-1.17045,-5.132059,-1.633055,0.8912332,-4.702869,-6.021856,-2.477627,2.018875,-1.297751,2.444159,5.016123,5.925437,5.969011,5.620267,4.473014,3.40271,1.679692,-0.5575252,-3.518772,-7.046262,-11.34774,-8.902839,-13.07281,-14.47513,-13.46843,-11.6477,-8.793064,1.556466,1.070655,-1.163656,-1.46809,-0.4471498,0.1635425,-0.102468,-1.286529,-2.336981,-3.473266,-5.374711,-15.57088,-21.25687,-24.31908,-27.89068,-22.9234,-19.47905,-11.83609,-6.710459,-3.072245,0.8896606,-2.022196,-3.130386,-2.283681,-0.9853899,-0.5151814,-0.7026742,-2.081221,-3.932603,-6.143195,-8.612177,-11.59398,-22.39957,-29.01804,-27.86705,-23.89467,-21.41035,-19.41919,-10.93632,-5.075795,-8.197918,-10.06009,-9.673433,-9.100607,-9.651017,-10.21936,-11.99916,-14.28311,-16.60856,-20.32797,-31.41518,-38.26554,-33.56809,-29.25469,-26.98482,-24.81225,-14.40272,-11.70457,-14.26509,-14.89793,-13.4976,-12.17975,-12.1539,-13.45875,-15.21715,-16.73907,-18.58308,-21.44566,-25.52649,-32.88356,-35.2047,-33.65983,-31.79869,-29.89457,-20.4526,-14.7038,-19.48544,-21.59801,-20.87698,-19.95789,-20.70568,-22.21339,-24.1191,-26.66843,-29.97916,-33.12154,-35.75829,-39.1957,-35.39955,-32.22643,-30.67556,-36.14993,-36.12487,-39.84724,-41.93515,-41.86899,-41.66475,-34.89347,-32.67773,-34.33403,-35.2718,-35.55599,-35.69726,-37.17935,-39.34617,-42.49298,-36.488,-32.11375,-29.91291,-34.39531,-32.3129,-34.80109,-35.32113,-34.25097,-25.55548,-22.56594,-22.59999,-22.8915,-22.86816,-23.35315,-24.66283,-26.35387,-19.03172,-14.32345,-11.67471,-8.147936,-3.626807,-5.209253,-8.700983,-8.705162,-5.856455,-2.763062,-0.4820285,8.466179,12.41296,12.56325,13.03628,14.68117,16.53859,16.92007,16.47226,15.73665,14.56761,21.29923,25.64687,28.00887,26.44045,26.4786,30.08867,27.29127,25.98213,26.47041,33.85787,35.80822,33.95387,32.60164,31.52733,30.03591,26.96836,22.40365,18.52698,23.93736,27.28847,28.41855,28.82778,22.95513,24.12008,20.18317,17.97844,17.32685,24.14778,25.49703,23.45013,22.02286,20.34984,19.05977,17.05696,14.60878,11.36392,8.209493,8.603345,12.87738,15.89395,10.15309,10.46362,6.246165,4.756734,6.105845,5.981199,12.56935,14.25448,13.98019,13.46302,13.28114,12.60591,11.84379,10.35152,9.128845,6.789595,4.428934,0.4536907,-4.442113,-7.223119,-6.502183,-4.368861,-2.456006,0.108612,4.228596,8.23254,9.150288,9.905563,11.44733,12.76733,13.18513,12.94447,11.97106,10.80031,9.443763,7.200946,3.865922,9.555117,13.37483,8.885456,8.496431,12.52407,7.938562,5.890987,6.424023,14.30311,16.38038,14.79465,13.37822,12.91457,11.79467,10.43661,7.439495,4.056413,0.1913841,4.778837,6.633503,6.777978,6.223267,1.283805,3.057742,-1.954273,-4.983809,-4.366694,4.123411,5.878275,3.489429,1.992369,1.579035,0.8620851,-0.7580619,-3.153625,-6.478024,-9.77189,-7.103042,-2.91611,-1.863822,-8.404259,-7.718226,-2.516572,-5.858469,-7.551542,0.1605036,3.47793,2.984238,2.426329,3.115445,3.29136,2.874134,1.970368,1.005599,-1.092949,-3.397206,2.880057,6.896926,1.84967,3.001465,7.621081,4.329167,3.676004,5.135621,14.165,17.09692,16.67827,16.7795,17.2096,16.86498,16.01962,14.06283,11.86039,8.862857,15.26256,18.19046,18.75817,13.24606,14.49956,19.72548,15.2493,12.43896,19.85144,22.46359,21.06039,19.73373,18.03259,16.76603,14.48082,11.85647,8.508196,4.114078,-0.04720868,5.155171,7.456269,-1.072811,-2.499821,1.027653,5.15455,0.07086864,-2.499765,6.251787,8.87335,8.004932,7.04088,6.315476,5.113177,3.868126,1.915329,-0.9685884,-3.953438,-7.78955,-12.53516,-8.686948,-6.475481,-6.88863,-6.086308,-3.863336,-0.6514012,-6.088287,-8.893737,-17.56343,-19.48737,-19.13005,-19.88476,-22.56936,-24.36589,-17.73403,-17.28613,-19.64351,-21.34589,-22.62555,-23.62674,-17.0831,-13.54348,-11.52272,-8.524659,-4.451205,-8.595252,-16.94718,-17.66367,-16.71026,-16.87127,-17.52904,-18.58067,-11.20494,-10.17365,-11.602,-12.97457,-14.19041,-15.28313,-8.077862,-3.977901,-2.111669,0.9328022,5.013444,0.9922443,-8.472964,-9.146296,-7.651179,-8.051638,-9.44772,-3.014927,-2.251752,-4.675155,-6.061091,-7.91151,-9.502168,-12.95622,-5.999697,-2.934775,-1.803064,-0.5156132,2.676745,-0.2512589,-7.013456,-8.061925,-7.627994,-7.604135,-7.81463,-0.1730884,0.1906544,-1.406135,-2.20204,-2.472382,-3.825463,-6.244605,-9.434692,-2.976628,-0.05192692,1.226353,2.380759,5.614945,-7.739904,-11.2299,-10.18845,-11.08905,-13.25679,-15.18386,-8.502893,-8.230904,-11.55039,-13.84855,-15.52297,-17.82053,-20.6068,-14.50645,-11.76681,-10.69659,-8.428094,-4.902914,-0.03135314,-4.963375,-14.03449,-13.78759,-11.73493,-11.26234,-12.23082,-4.245503,-2.24101,-2.371537,-2.188046,-1.733165,-1.0719,-1.183748,-1.048705,-2.222427,-4.822217,-7.78632,-8.896332,-19.15154,-24.16331,-17.22581,-14.28618,-13.20511,-9.826835,1.477606,8.193894,2.867834,3.600164,7.329666,9.261635,8.039756,6.878485,6.70106,6.640402,5.15773,2.922425,-7.291342,-11.61464,-4.225894,-1.193689,-0.3157328,9.88828,15.10845,19.93746,15.97022,15.93024,17.92132,19.46409,19.67433,18.53548,17.216,15.36733,13.61245,11.25086,0.1409873,-4.462631,2.408994,5.154187,6.797771,10.13605,20.97466,17.54339,16.14096,18.17694,19.35389,19.83209,17.97185,17.90068,16.29704,14.17275,11.20278,-0.03821431,-5.192063,1.549403,4.696946,5.000711,7.378077,19.69267,26.17402,21.2634,21.60592,24.24981,26.02267,26.32008,26.09805,25.34952,24.20998,22.27779,20.3013,17.92308,14.415,2.359323,7.236651,10.83146,10.69559,11.50536,14.29646,27.51583,24.58796,23.34689,25.70855,28.05071,28.52284,29.3285,29.50112,29.12354,28.17658,26.74075,18.42148,14.597,13.20822,10.01841,16.10191,20.27557,30.1258,34.18688,37.86277,33.02007,33.97271,35.85684,35.7244,34.58374,32.60666,30.83108,27.78102,24.52518,20.8558,14.34956,3.834669,7.989617,9.621555,8.740067,8.918159,19.0821,22.26493,16.23479,13.97452,14.95059,14.29693,11.72354,8.510319,5.879229,3.430109,0.4454846,-3.769761,-8.127718,-21.57544,-18.05847,-15.67575,-16.10166,-15.37295,-5.941646,-10.51889,-12.59473,-11.86004,-11.62503,-12.79392,-14.63737,-16.83669,-18.89922,-21.76521,-25.25407,-28.86071,-33.10191,-43.40862,-40.42958,-39.14468,-39.1615,-38.05546,-35.10016,-23.94674,-27.62448,-29.27532,-27.35644,-25.91882,-26.0797,-27.83448,-29.08142,-30.87209,-32.79126,-35.86234,-39.38596,-41.19622,-38.66572,-36.30296,-33.63283,-30.10208,-18.57424,-20.25373,-20.06708,-17.09352,-15.25577,-14.44198,-13.98749,-13.97308,-14.42647,-15.79219,-18.35329,-20.26541,-22.57788,-35.30628,-40.22981,-33.50172,-33.03518,-34.05816,-31.92278,-21.01182,-16.37236,-22.81432,-23.23597,-20.0459,-19.0255,-21.31727,-22.45524,-24.18781,-26.62201,-29.91794,-33.35952,-37.93316,-33.35253,-40.08151,-41.58947,-38.91012,-36.36254,-34.19568,-39.12433,-32.52706,-30.79128,-30.97695,-30.7804,-30.24355,-30.41936,-31.60665,-33.13913,-34.76154,-36.71514,-39.43627,-42.59624,-42.18537,-36.91596,-34.52232,-42.51478,-40.16785,-34.35595,-38.58076,-38.6844,-34.60825,-26.9535,-26.41997,-26.3816,-24.54205,-23.15236,-21.99564,-22.0142,-22.62878,-22.95918,-23.76032,-15.22163,-19.95492,-17.03016,-11.16103,-5.86175,-8.547679,1.101166,4.966044,6.337492,8.762541,10.13285,11.76644,12.88807,13.29193,12.98429,11.67211,9.800628,8.101173,13.11152,7.950955,9.43775,12.81267,17.22631,21.82136,19.00283,25.88989,28.10061,28.77318,29.07882,29.91033,29.25125,28.54926,27.22847,25.27561,22.65725,19.16272,25.62602,27.48831,20.73854,20.69277,25.32104,20.24976,17.14031,17.35741,19.94392,25.08455,23.58365,21.43874,21.25972,19.90559,17.81028,15.19911,11.73534,8.455354,14.89111,15.70739,15.2196,17.29223,11.69257,15.86936,11.00131,10.62233,11.63521,21.53533,21.5145,18.88503,19.64185,20.24004,20.18292,19.09369,16.85664,13.90856,11.59482,8.821327,16.126,18.31236,9.185849,10.96541,15.86888,19.0242,14.07246,13.92624,25.50758,26.80154,26.2282,26.93591,27.48937,27.8046,27.72624,26.68743,25.31995,22.84833,20.29421,16.30175,13.07011,20.10551,12.02314,12.18161,14.73069,17.7543,17.84618,12.8515,21.89977,24.01883,23.48133,23.69614,22.96965,22.2266,21.63072,20.31322,17.13888,13.97423,20.97149,23.0408,23.79179,26.51658,21.27643,14.01473,14.67845,16.08806,14.63273,17.93969,20.71499,19.51887,18.71416,18.05142,15.98662,14.33156,11.16984,8.248185,15.85659,16.62542,16.7442,13.65605,13.69815,15.73202,10.96517,10.45268,10.9752,11.21398,19.48511,19.89015,17.82093,17.55125,17.38291,16.26018,13.87453,10.69929,6.780724,12.71168,14.71615,13.96087,14.32924,12.38126,11.29073,11.88592,7.09549,6.501029,7.267923,7.604629,16.71399,15.58245,14.6963,15.06481,15.38165,14.96023,13.84521,11.00786,9.110154,17.94151,19.18988,20.22685,22.66841,18.58822,12.76841,13.09214,13.79206,12.0875,19.38334,18.33724,16.13499,15.3076,13.77353,11.54778,7.987885,4.486489,-0.860741,4.755799,4.058967,3.399386,5.005938,6.19051,0.2977145,-8.1896,-8.586555,-9.081015,-11.62263,-6.991015,-8.027679,-10.69764,-11.97882,-14.155,-16.95211,-20.03809,-22.52583,-26.89038,-31.55748,-25.54769,-25.89643,-26.35403,-24.63363,-30.75634,-27.40693,-33.43436,-34.55833,-33.97814,-34.61306,-27.05492,-27.76547,-28.71519,-28.1918,-29.08126,-30.42071,-31.26272,-33.59435,-36.44092,-39.10155,-31.52052,-30.18017,-37.32975,-33.78626,-28.85812,-29.97808,-33.3564,-22.93561,-21.42759,-22.07831,-20.97043,-21.14017,-20.97004,-21.53099,-23.19261,-24.99946,-28.39581,-24.84303,-20.81602,-19.63453,-27.38922,-23.9536,-18.57848,-13.7996,-20.20406,-15.98817,-9.294967,-8.761141,-8.698075,-8.068647,-8.496287,-9.736758,-11.65712,-13.44017,-16.59823,-20.74563,-25.35578,-27.14606,-29.44839,-29.01169,-28.72799,-27.40875,-24.44316,-11.6421,-18.29277,-18.41293,-16.26897,-15.41393,-17.11845,-15.66431,-16.22466,-17.00003,-19.19259,-21.2901,-24.05133,-27.79598,-31.65088,-24.9256,-23.90981,-32.06609,-29.81951,-25.23005,-32.30494,-32.78184,-30.76162,-22.5681,-23.66329,-24.73557,-23.31485,-23.0667,-23.33469,-25.47733,-26.37756,-27.72184,-29.96867,-32.91344,-25.17981,-23.61551,-27.81301,-26.83446,-21.15019,-26.96013,-27.23122,-24.6702,-22.35815,-12.52624,-11.95564,-11.24874,-8.730454,-6.665657,-6.19426,-5.955906,-6.398137,-7.321967,-8.416017,0.4460879,2.258518,3.833406,8.288869,4.329034,10.09071,5.35629,6.618478,8.951993,9.776095,20.03633,20.31402,19.76368,21.70308,23.77913,23.84007,22.80654,21.43255,30.68189,33.38449,35.22047,38.37464,43.40234,28.60546,30.1299,32.50276,30.98772,29.1688,37.28006,35.72492,33.86574,32.33508,31.35484,28.83214,27.22424,23.1505,30.11593,29.82263,29.5451,31.73157,25.53134,24.0438,20.55822,18.90571,18.42578,16.64073,24.39367,21.72346,19.92942,19.07426,18.25154,15.44187,12.69385,12.96873,18.609,20.06365,21.44681,24.1283,19.56754,13.72651,15.77476,16.39572,15.57203,25.30813,26.09772,24.64096,24.97712,24.70328,24.32963,23.29362,21.43126,19.8767,17.61713,13.96376,10.84206,8.86202,10.16139,10.80268,12.53417,15.51405,19.74433,22.56226,22.50656,23.79027,25.30938,25.7228,24.56003,23.7663,22.04781,20.33168,18.06719,14.67919,10.13012,-2.944352,0.1129152,2.399049,0.4414428,1.271127,13.07065,15.96389,19.1306,13.89929,15.18308,17.04394,16.52965,15.73474,14.8127,12.98315,10.81264,9.918367,-2.427799,-4.17568,-6.639195,-10.51874,-15.23202,-6.647751,2.968338,3.047148,5.922184,12.28816,18.26581,12.88729,14.21419,16.50947,17.12317,17.11538,16.19,14.95914,13.78622,10.39374,1.5197,0.6821097,-2.378972,-7.385175,0.1037605,1.277186,11.87125,14.66673,18.96382,14.77138,17.94228,20.1018,20.29147,19.82369,19.9805,18.58046,16.97077,15.14495,12.84356,0.8328194,-1.395279,7.542606,6.086026,5.960359,19.36535,21.99118,26.28394,20.57347,22.7291,25.12906,25.40702,24.66288,23.21236,21.76222,20.00133,17.9849,5.603938,2.814173,-0.4241261,5.60348,6.393109,15.56844,17.14685,20.01858,13.59839,15.79573,16.18445,14.56737,12.07111,9.855015,7.45416,5.030879,-8.40248,-12.40149,-15.7357,-22.15145,-16.04186,-16.52153,-8.112314,-6.560034,-2.612126,2.353082,-3.37412,-2.117937,-0.353759,-1.632305,-2.728013,-3.973279,-6.644162,-8.737875,-11.49841,-15.00835,-28.25963,-31.10715,-24.10715,-24.79115,-25.46749,-18.27571,-10.7095,-18.81358,-17.58246,-16.00564,-16.70552,-17.92589,-19.61821,-21.31024,-23.8337,-26.27238,-29.98993,-33.45999,-44.21231,-38.60276,-38.31519,-39.07626,-37.65208,-33.52932,-20.17103,-27.57189,-26.44281,-23.52566,-23.13032,-22.68301,-23.26344,-24.21702,-25.5011,-27.40334,-29.45753,-32.50931,-45.17334,-47.99252,-49.30595,-45.15495,-47.34824,-47.94303,-33.67075,-29.91653,-25.06791,-30.56257,-27.98778,-25.98888,-26.38489,-27.31156,-27.97436,-29.63184,-31.76845,-34.2578,-36.93287,-39.59415,-43.53721,-47.5532,-42.22245,-49.04276,-47.61816,-44.47446,-41.56986,-49.57101,-38.09216,-38.02647,-38.51725,-37.75569,-36.97235,-36.9413,-37.65173,-38.48328,-39.72732,-41.75139,-43.76308,-34.9753,-33.61011,-32.22693,-28.36181,-23.37099,-39.32934,-35.89476,-33.46319,-34.80781,-35.12278,-34.6649,-28.56194,-26.48222,-27.50958,-27.45842,-27.48729,-16.79405,-14.48412,-10.76701,-4.662108,2.048412,8.057946,4.485161,8.029076,5.531282,5.39764,7.036611,8.187005,8.066361,9.772656,20.19615,18.89151,18.72354,19.91737,20.08038,19.57674,29.47089,30.55346,32.47803,36.52534,41.63582,40.59664,27.88639,30.95146,31.54079,29.65887,28.21209,35.34421,32.72403,31.20309,30.69169,28.19667,25.14251,21.39477,24.62343,26.64223,26.16128,26.26908,28.05255,22.90179,12.41177,13.03177,11.89196,8.999748,6.646347,4.933806,12.11145,9.121304,5.982387,5.323135,2.853157,0.5058423,8.074938,7.833302,8.970912,12.81856,16.78033,22.26574,13.81493,12.27408,7.209452,8.286535,7.126356,5.011144,4.237594,13.78135,11.07856,9.772726,10.27381,9.856676,9.32454,7.725458,4.913493,2.268004,2.204956,9.068166,8.911535,9.937476,3.928816,9.941459,3.194103,4.318322,4.429199,4.390438,13.78573,12.58962,12.20117,13.07585,13.0016,12.56962,12.06532,10.34102,7.994421,5.29222,2.818019,-1.084225,7.331244,6.45705,6.466273,-0.4692061,4.777118,8.771801,4.006043,2.102174,3.98772,14.72105,12.84006,12.88931,14.37467,14.42943,14.28085,13.45407,12.33791,9.780959,7.566812,12.71377,15.71861,16.84971,18.74909,13.16602,19.79881,12.90098,14.11255,15.48137,24.745,23.03522,22.79325,23.69,23.87,23.29886,22.65523,21.23905,17.91588,27.4382,27.21125,28.48081,33.19218,27.34808,22.64922,23.40615,23.59258,22.49118,23.32353,29.60227,26.81594,25.97592,25.72374,23.67418,20.96496,16.97181,22.74173,25.66697,25.94037,18.22508,23.35785,28.11019,31.00613,23.93588,25.50328,38.23172,36.24718,37.31378,38.98377,39.86461,39.85489,39.59643,38.79136,37.45815,34.93525,32.58707,32.82797,30.84544,30.53504,32.14461,34.41547,38.07853,30.29534,41.96458,40.54796,39.46888,40.22978,39.7316,38.0965,36.84897,33.761,30.5068,26.91644,22.47711,17.51325,14.06821,13.65736,13.04879,13.23475,14.41782,25.28653,14.61485,14.47085,15.64937,14.18998,12.1401,10.90995,8.797839,7.421918,3.899147,0.9054542,-2.620107,-12.6617,-18.08717,-22.56447,-29.12273,-22.88765,-25.64489,-16.06081,-15.78545,-13.9115,-9.350132,-16.5979,-14.74119,-15.16024,-16.98864,-19.46059,-20.82334,-23.11448,-26.35381,-29.35192,-42.88947,-43.50425,-47.70905,-53.01065,-57.56379,-39.54826,-42.67327,-41.66772,-36.95517,-32.76193,-40.28055,-37.72477,-36.8594,-37.8021,-39.88125,-41.12496,-43.03381,-45.03673,-57.29615,-58.22264,-61.08669,-64.94525,-69.19307,-61.21649,-52.5832,-53.01124,-49.54629,-43.82709,-41.03516,-46.73134,-44.32412,-43.81336,-44.72834,-46.70889,-48.8759,-51.42471,-51.77748,-53.92967,-57.48666,-50.05934,-50.77926,-60.05725,-54.43805,-50.61048,-47.96842,-56.08225,-42.36979,-43.71865,-43.74643,-42.20482,-42.19367,-42.24479,-42.85138,-43.95197,-45.90946,-48.75172,-50.90854,-44.30738,-43.32539,-52.10335,-46.55886,-42.36512,-38.51367,-44.89715,-41.67797,-29.60305,-31.54375,-30.07041,-27.02435,-26.65973,-26.00258,-25.58542,-26.68111,-27.96761,-29.68264,-20.67238,-20.83207,-18.0775,-14.74886,-10.78583,-17.69304,-17.39292,-21.61426,-19.87587,-19.83179,-20.5417,-20.58785,-10.14617,-12.55768,-12.12816,-11.89894,-11.92082,-3.887931,0.1248584,2.192643,6.849185,12.10414,19.05988,12.95522,6.122634,11.85063,11.9467,11.72502,12.3198,16.26438,21.76818,20.86369,21.30558,22.12989,21.37291,19.75019,30.96583,30.64347,34.17524,38.12076,32.9352,27.42868,29.88663,30.2399,28.49106,37.00985,33.98,33.4354,32.99574,31.96337,29.4327,25.85658,22.82518,18.77403,26.11876,23.78781,23.65329,25.35956,27.98385,20.87162,15.1832,16.60223,15.22033,14.02401,12.94127,22.1031,19.09205,19.4679,20.79869,20.79762,20.62284,21.05059,19.23258,16.67902,14.12853,11.24818,7.047367,16.27808,14.37701,5.499994,11.85553,15.05755,5.163593,8.264209,9.298884,16.67916,14.158,14.38374,15.34802,14.32487,13.37299,11.86198,9.226312,7.1855,4.528307,12.56674,12.11813,3.001201,9.790158,13.01098,16.7057,9.307854,13.3327,25.64081,23.81918,24.99773,27.09904,27.94431,29.45859,29.85081,28.88127,28.41482,27.62706,26.02575,23.85891,20.94766,17.91759,6.958001,15.852,14.92793,15.20746,17.67838,31.63171,20.8062,23.81621,25.73132,24.98819,23.93773,22.595,21.70339,19.75047,16.72674,13.54033,10.01208,-3.300317,6.70414,4.142557,3.691545,6.35019,10.04493,19.53779,12.59366,15.45446,17.38995,17.09773,16.75861,15.8451,13.73658,12.51931,9.977557,6.966824,15.76187,5.304253,9.595275,13.30115,16.05924,8.35902,21.79762,19.24052,20.26155,20.7012,20.61802,20.33523,19.63033,18.2384,16.8762,13.9422,10.65284,7.409902,4.302539,1.965765,2.494016,1.909374,3.600886,5.981216,9.843359,5.684006,14.72483,14.77315,15.44118,17.36259,16.89456,17.30535,16.70751,15.80126,13.98852,12.40362,9.301944,3.119306,-6.629579,4.272778,0.766872,0.9588766,3.408046,16.93418,16.78147,10.31808,14.35653,14.44706,13.16199,12.32783,9.840105,7.631919,4.336307,1.419818,-2.632258,-7.08904,-22.72773,-12.25113,-15.83551,-17.10257,-15.57039,-3.468684,-2.849715,-10.12605,-6.500594,-6.163899,-7.081087,-7.549951,-9.438359,-11.02649,-13.16935,-15.7356,-19.33458,-22.31043,-25.75319,-30.08199,-35.11563,-37.35075,-36.94375,-35.01894,-33.87068,-21.45928,-33.15731,-29.50875,-28.84683,-30.63528,-31.66342,-33.20107,-34.52746,-37.98025,-41.19212,-44.67433,-48.54744,-56.00358,-54.29389,-53.91835,-55.02028,-52.35385,-49.28743,-44.25781,-41.89979,-42.01216,-37.72506,-36.69255,-30.43222,-29.84961,-29.12687,-29.02361,-29.45338,-30.68939,-32.88498,-35.87664,-26.98076,-28.14761,-26.32715,-32.16273,-24.71929,-33.56808,-30.22055,-28.33403,-28.35235,-18.33543,-18.49036,-17.01045,-14.61954,-13.627,-13.36118,-13.21943,-13.74166,-15.74999,-5.290968,-6.53788,-3.373405,1.291244,-2.513523,4.42191,6.333761,2.607617,6.719276,9.340727,11.81847,21.30046,20.50231,22.75306,25.10465,25.47405,25.17469,24.98875,26.65746,34.69046,35.14661,38.33265,42.16709,45.35028,29.25491,35.8805,34.54774,31.78398,31.33898,40.38428,35.53944,35.07751,33.64848,32.52202,29.75069,26.3389,22.03571,30.1635,27.07863,28.24078,30.68699,32.80183,12.52558,18.06348,15.58856,12.32236,10.19827,7.462175,15.77249,11.17017,10.47324,9.693713,7.713155,6.564979,3.524925,0.9127609,-2.358363,-6.137562,3.644761,2.266339,2.618952,5.491276,-13.7667,-8.793207,-9.850893,-12.91744,-15.55828,-7.913064,-12.25136,-12.5212,-12.9979,-15.78874,-18.78382,-20.65489,-18.89811,-12.82189,-15.18835,-13.04239,-12.69607,-11.1224,-5.282186,-13.05867,-8.003973,-5.922986,8.713405,2.611101,3.807828,3.838639,4.186046,4.805815,3.393493,0.769161,-2.660981,-5.046493,-6.741746,-10.543,-2.695322,-6.446565,-10.51392,-9.057826,-5.353424,-3.503182,-11.90684,-9.80082,1.945802,-1.671372,-2.262506,-1.838334,-2.753934,-2.067946,-3.882846,-6.54923,-10.09346,-13.32064,-16.11594,-9.228489,-11.70792,-22.50561,-16.5729,-13.67705,-11.66057,-10.26783,-16.81138,-2.980068,-4.901901,-3.147031,-1.846196,-2.51203,-2.404207,-1.410977,-2.09207,-3.680376,-7.616223,-9.753405,-9.469414,-0.5531814,-2.679796,-11.19152,-3.808228,0.3661309,-8.06989,-4.400788,4.795322,1.284047,3.004082,5.478037,4.973089,4.174395,2.037607,2.774388,0.8916315,-2.238529,-6.038166,3.296131,1.694352,-5.125113,0.7307974,2.383764,5.654058,-0.7439811,4.335458,13.24539,11.51986,11.41201,14.40027,16.76783,16.77356,15.38797,14.79357,14.83198,13.59092,11.1571,7.356948,16.81473,15.29541,7.737827,14.91692,17.8411,8.265971,11.95409,12.44179,21.8365,17.68507,18.16645,19.34206,18.37869,16.67216,14.80627,12.49974,13.76837,18.76866,19.04284,21.46887,25.41466,20.45564,15.4705,18.50041,17.2985,16.87548,28.13799,23.49656,25.03854,25.74934,25.06254,25.37364,23.85319,22.34402,19.42923,16.91125,21.18457,24.20535,12.61158,18.85485,20.63611,24.00891,16.22069,20.44245,28.55089,28.41344,29.25619,30.57355,30.90614,30.57821,29.88464,28.77148,26.81777,24.6417,21.66144,30.22434,24.97867,20.93147,26.38716,28.82128,31.95507,23.61896,38.8329,34.95671,35.48248,36.40298,36.17325,35.50276,35.27065,32.4515,31.15419,28.5788,24.91534,21.64958,16.59683,13.97735,14.50435,14.20652,15.27879,17.96721,17.40326,17.68709,17.89253,16.6492,15.29387,13.00836,11.37773,8.272291,5.402838,1.481061,-2.981463,-7.782437,-13.29314,-16.48322,-16.80985,-18.15474,-17.82426,-16.4479,-13.2692,-12.04416,-12.01599,-10.95238,-11.47746,-12.06842,-12.80573,-14.21595,-16.19368,-18.82238,-20.13967,-23.8664,-27.66228,-31.65535,-35.09634,-37.61114,-36.72811,-37.98698,-36.5014,-33.26715,-28.81125,-30.56854,-25.19023,-24.77812,-23.6968,-22.58155,-22.27787,-22.84246,-22.70819,-23.34748,-25.85154,-27.9714,-29.96557,-32.93895,-24.05448,-36.83358,-29.72766,-28.54443,-25.70186,-34.59154,-30.13743,-22.98871,-22.85063,-22.25763,-22.54315,-22.68422,-24.03202,-26.62728,-29.89674,-34.28828,-39.43326,-30.51662,-35.54512,-34.60014,-33.29127,-31.87754,-29.81819,-36.59869,-48.33844,-44.73709,-48.43754,-51.8111,-53.52319,-45.15107,-51.7471,-51.61196,-52.93417,-55.9732,-57.67856,-56.62652,-50.76951,-51.12824,-49.01142,-44.46137,-40.46668,-57.63055,-50.29558,-51.25743,-52.54305,-51.72377,-51.35834,-41.17361,-44.49281,-42.8887,-41.90329,-40.83492,-41.6679,-42.62794,-30.45131,-30.9141,-26.3706,-20.16139,-15.92679,-20.66498,-16.60121,-14.50516,-24.76893,-19.24099,-20.8209,-21.14546,-20.99925,-20.87216,-18.08849,-11.96582,-14.82669,-14.13135,-1.0774,-1.850801,2.527383,8.347271,13.12481,19.11705,14.33174,16.95104,7.702981,12.9582,11.33326,9.255266,9.276491,19.25478,13.79261,14.14204,13.68682,11.56138,9.214514,5.148285,14.90903,10.63256,12.28723,14.64347,17.05838,19.60258,3.792248,7.253293,5.367162,3.156342,1.496332,1.140802,7.25969,2.113091,1.919794,1.958029,-0.5399086,-3.755502,-5.968052,-10.27995,-1.398906,-5.823526,-2.712838,-0.1604041,-7.212106,2.119918,-4.087903,-3.763239,-3.057234,8.381081,4.698792,6.227238,8.66581,8.783969,9.327807,9.57731,8.768667,7.736843,6.020239,4.84247,-3.856186,-7.549628,-10.32596,-1.364878,-4.287601,-1.031102,14.00506,14.25995,8.319122,14.98288,15.27144,15.35369,16.43999,15.09952,14.43421,14.06461,12.30535,10.2375,6.670521,-5.894733,6.552391,3.044175,4.645487,7.890354,22.39013,23.10111,17.91599,24.33791,25.07709,26.52193,26.80866,27.29411,26.89022,26.03072,25.023,23.45156,21.43979,8.455246,9.719034,4.647358,-0.2593878,9.788277,11.46154,16.46471,18.98046,24.92645,29.67739,31.94906,27.76916,31.89514,32.18363,32.07964,31.55633,31.89691,29.55504,29.30251,16.32446,18.87935,14.18879,24.07719,21.5641,26.1628,41.55738,41.9007,36.90317,45.08291,45.70807,46.19988,47.37784,47.07889,48.19881,47.42554,46.46023,44.12992,39.85967,29.43388,29.83156,38.64726,34.93089,38.3241,52.53061,52.632,57.33061,52.91351,55.01664,53.15177,40.29831,43.91806,40.7506,40.21501,39.66912,41.41161,52.0357,48.26884,51.3967,67.33939,66.95712,73.58907,78.31475,84.72993,76.92655,82.88222,82.06567,80.2645,77.04197,74.20821,71.39818,66.89866,62.22731,54.88099,43.80153,40.88058,40.43664,35.73425,34.38568,34.37259,45.49336,29.59652,33.54123,29.90533,27.24244,24.4234,21.19201,16.21965,12.81224,7.805363,2.62463,-2.206239,-20.10771,-20.50867,-16.98145,-23.11782,-22.37883,-21.69857,-8.907678,-23.71549,-17.73154,-18.61325,-20.29013,-21.27779,-23.62872,-25.49536,-27.58818,-30.64094,-33.86295,-36.90822,-40.99536,-44.95609,-46.59441,-45.84063,-45.6454,-42.55779,-39.29135,-38.88348,-32.89606,-32.44016,-30.89677,-27.96569,-27.68652,-26.30336,-26.1934,-25.80517,-26.07802,-26.6212,-29.34278,-32.60972,-42.86985,-28.93593,-33.0072,-30.08623,-25.52274,-20.2418,-3.767715,-14.88566,-5.728372,-3.709914,-2.66689,-1.456872,-1.311863,-1.990187,-3.309754,-5.439756,-8.733454,-13.0193,-17.28998,-30.43336,-19.48407,-26.37595,-27.28159,-19.964,-20.95236,-34.09668,-33.08414,-39.70984,-47.06219,-51.58667,-56.48315,-46.24585,-50.8567,-47.56876,-45.72816,-42.04217,-42.83301,-52.06718,-45.78101,-47.83014,-49.392,-47.85021,-37.14281,-39.48394,-36.95184,-34.88667,-35.23736,-34.94069,-37.01751,-37.42063,-39.31794,-41.77487,-45.81635,-50.34273,-53.15764,-51.91605,-49.01641,-50.35526,-59.37748,-52.17511,-51.36347,-60.91047,-56.42718,-52.54109,-50.69906,-51.75972,-50.88607,-50.87454,-51.46969,-53.07412,-54.47758,-56.64679,-59.72967,-48.58702,-52.22717,-47.71789,-50.39291,-47.13223,-40.92277,-49.57695,-43.7048,-42.28823,-40.47929,-28.90935,-31.73924,-27.73759,-23.67971,-23.3212,-21.50336,-20.95535,-20.82586,-21.18603,-22.42976,-10.57599,-13.14612,-7.797168,-4.095245,-8.611695,-3.18214,-8.85463,-4.837357,-4.532002,-4.020432,6.916639,1.792284,4.997516,5.294033,4.168417,2.825551,0.5115637,1.108972,8.221983,6.522174,9.261918,12.52132,3.991918,13.69915,1.813298,6.032133,3.84228,14.01938,7.993075,9.406176,9.27955,7.952328,7.23697,4.398553,2.469324,-0.2582556,-4.447813,5.959514,-3.132682,-3.294588,1.825552,-7.003037,-5.632396,-6.448848,2.753922,-2.809059,-1.376597,-1.786318,-2.539788,-4.505804,-5.778245,-8.286902,-11.03061,-13.95696,-10.27417,-7.745881,-7.588974,-3.905175,-11.01718,-1.080593,-11.18966,-7.658131,-8.091732,-9.051384,2.911666,-2.294467,0.5615754,1.075334,1.522949,0.8448962,0.143133,-0.9030208,-3.131401,-6.112365,-8.379049,-12.50807,-2.689169,-17.60699,-9.252731,-9.288145,-6.642612,-9.563002,-5.763148,-0.7192104,-2.448956,-0.6752657,-0.7336052,-1.041866,-1.781497,-2.987098,-5.236279,-7.1921,-10.70752,-14.40701,-9.57326,-20.10799,-15.5694,-15.79951,-13.31132,-10.95819,-6.598625,-3.639458,-2.802464,0.1902287,0.154672,1.913716,1.750648,2.00645,0.4249603,-0.1666381,-2.297813,-4.75444,-7.052877,-21.18153,-19.13915,-13.49079,-16.94035,-14.66967,-0.7370833,-2.192422,4.422601,-2.446092,3.753537,2.24513,2.477711,2.128158,1.734511,-0.3910013,-2.594069,-4.366124,-6.792024,-10.36653,-15.08971,-14.86502,-14.38826,-13.81918,-11.25561,0.7818908,-10.16304,-3.373567,-2.882836,-2.499274,-3.63785,-4.878169,-6.076314,-8.217088,-11.06925,-13.21562,-16.48441,-13.78733,-9.92052,-10.95216,-6.800505,-5.162497,-0.457681,-8.621566,-2.49881,-3.049056,-3.547895,-2.792901,-3.172876,-3.099685,-2.962569,-4.123973,-3.692825,-4.933297,-6.487285,-7.760896,-9.635422,2.230408,0.2143708,4.891816,10.11744,15.03779,22.00221,14.52713,22.51347,22.24759,24.65126,24.95994,25.91315,25.45742,24.71373,25.51212,25.5719,25.61352,25.08332,23.77556,36.36044,34.3573,41.10672,46.16418,52.23238,52.42826,52.85787,58.3226,59.64073,62.68683,63.66893,64.89527,66.76215,67.01787,66.27961,65.5357,65.22508,62.55073,74.36591,71.19866,75.97121,79.30264,84.258,87.45203,79.27341,84.24059,83.16458,82.80748,81.50392,81.25484,79.38252,77.53502,75.80028,73.25428,70.25309,66.61469,75.58646,70.9284,74.63792,75.82496,79.21781,68.75125,72.94928,70.12033,67.94943,66.16938,63.61535,61.14646,58.92099,54.60198,52.52478,49.34595,46.06997,41.3354,37.75175,33.98031,43.39244,38.12698,42.40349,45.22293,38.74453,40.28964,39.68795,38.01482,26.02044,29.967,26.19045,25.39686,23.72389,24.16282,24.21967,35.75565,30.6638,34.27292,35.97488,36.56604,38.13221,39.24761,39.9388,39.68782,39.84141,28.9125,34.82317,31.66515,31.89193,30.93589,31.24275,31.47178,42.79194,38.63997,41.47175,42.80268,42.51125,42.58163,42.10947,40.72756,39.29996,35.8978,24.80482,26.57649,21.03891,17.67284,14.06117,11.24647,20.61856,13.40997,14.09014,12.3943,9.761765,7.769977,6.071709,2.204159,0.1355729,-8.205321,-13.574,-15.70437,-18.94124,-21.22288,-24.61012,-25.88415,-17.62824,-24.46191,-22.92233,-23.90809,-25.57656,-25.83184,-27.36974,-29.33527,-30.64928,-42.55447,-39.93646,-44.46943,-46.53647,-48.78316,-48.77859,-49.29144,-37.79797,-42.78377,-39.25173,-37.04647,-36.76756,-35.52984,-34.06883,-33.92865,-33.65299,-33.05931,-44.00793,-37.50192,-39.18116,-38.91642,-39.29725,-35.61237,-27.25681,-29.52158,-25.61824,-23.29102,-22.33123,-20.28924,-19.70962,-19.1747,-18.18875,-29.58253,-23.16293,-27.58807,-27.46042,-28.70432,-28.72818,-30.45457,-18.57203,-26.25625,-23.34039,-24.8698,-26.41747,-28.40862,-31.67762,-23.2725,-27.73706,-36.36617,-29.10048,-29.05722,-26.53247,-21.92046,-32.08744,-14.32746,-20.6086,-17.70424,-17.23378,-17.79407,-17.86882,-19.91314,-21.37864,-24.31481,-14.09147,-19.22487,-25.76201,-18.53963,-18.91111,-15.04953,-10.93639,-19.98757,-12.86822,-3.467086,-8.239154,-3.958322,-4.698675,-4.240104,-5.499458,-7.171279,-8.449657,1.409778,-2.663061,-9.190905,-2.611016,-1.200748,1.370084,-7.807235,-2.641768,-4.663685,5.569766,-0.907724,0.8604699,-1.190662,-2.24374,-5.815813,-2.920291,-0.3537756,-1.237493,-0.27385,1.246641,0.9953989,-3.990114,-11.37853,-10.27674,-14.28567,-17.88513,-19.53404,-20.797,-17.00341,-24.30777,-25.42457,-17.07084,-20.94993,-18.09309,-16.9017,-15.1027,-12.34629,-9.642864,-19.01676,-15.16188,-28.49369,-25.08864,-30.44266,-32.54892,-35.80457,-38.25457,-29.2508,-38.1562,-24.00352,-27.05814,-23.24638,-20.56008,-15.45282,-14.36653,-20.93494,-16.09693,-21.99769,-28.87221,-27.6189,-31.93901,-34.3191,-36.32365,-38.07094,-17.26636,-27.55694,-19.3042,-15.44608,-12.18327,-7.639282,-2.640851,-12.64064,-5.841045,-9.532832,-10.27969,-13.02251,-26.66225,-24.32396,-30.46355,-34.21064,-24.28371,-29.11857,-13.5903,-16.12496,-8.803293,-3.353918,-10.21323,-3.893846,-5.276751,-4.896565,-5.973416,-7.122137,-9.011986,-21.98865,-19.31799,-25.57318,-29.72258,-20.03245,-24.99636,-16.2116,-9.094456,-7.702812,-0.6864317,4.341162,-2.838374,3.893673,1.951314,2.003165,1.519196,-0.1816983,-1.850351,-3.562253,-9.548835,-20.92866,-6.325217,-15.00074,-10.43648,-8.953885,6.040311,4.942583,13.18896,5.507473,12.50981,12.14772,13.08931,13.23333,12.81226,12.16735,1.056342,2.906267,-1.666525,-5.011974,-5.486639,1.853718,-1.092744,14.25862,11.208,19.00785,23.86558,26.54464,21.77292,27.43704,25.24368,25.71238,24.81113,23.00975,21.01091,8.013954,11.37112,4.404158,0.6710867,-3.546163,5.424822,11.2931,9.83718,14.90446,18.48266,22.74271,13.22116,19.86496,16.31852,15.14605,13.31102,11.07566,8.730942,-5.55327,-2.233045,-9.913035,-9.026772,-4.657271,-6.176008,7.612081,6.325878,13.10137,16.72131,9.723272,16.15523,13.6964,13.24532,12.11422,10.49912,-2.733145,1.678041,-4.250138,-6.141644,-9.904145,-4.604387,4.0983,1.418409,7.234507,10.37632,15.12135,18.9413,10.83444,17.41899,14.26083,14.75583,12.19936,4.914169,0.8715663,-1.014517,-5.721719,-9.642286,-12.46035,-3.22213,3.210018,1.557879,8.047932,12.12593,17.85346,17.30755,14.6551,17.77641,16.87396,16.40675,15.48027,14.70778,11.75495,-0.1622452,2.498139,-3.594522,-7.007992,-11.55403,-12.42454,6.193217,-3.400674,5.315135,6.922407,12.92859,2.581735,8.996554,5.400753,4.509073,3.802876,1.312895,-0.4103655,-16.45191,-12.03158,-21.36501,-12.54733,-16.73567,-14.46658,-2.515287,-3.301723,3.296888,9.221544,0.9887281,8.365639,7.479,7.055564,6.971642,5.974885,5.008075,2.823851,-0.0822885,-11.41848,-9.646682,-15.87026,-5.43758,-10.86839,-5.843028,8.670689,6.403795,16.28459,8.247587,16.3838,15.25686,16.13327,16.23366,16.21367,14.38354,14.1599,11.12674,-2.528711,1.538063,-6.342879,4.864361,-1.716928,2.784105,16.1924,13.65813,22.02673,13.66645,20.27025,18.50874,17.95862,17.83588,15.65893,14.62788,11.59401,0.2635385,1.406786,9.505553,5.271797,9.801987,13.16399,28.99575,18.11846,25.08556,25.64145,26.41766,27.30582,25.36439,25.84572,23.02409,20.76156,18.03448,12.8452,8.922915,11.0182,11.89297,9.470234,11.55994,12.60223,14.10896,17.34541,6.722699,11.77491,7.737157,5.969341,3.634339,0.6475543,-1.261368,-5.033855,-8.469205,-12.04677,-15.37506,-21.19505,-24.57725,-16.28602,-22.61427,-18.24509,-17.66318,-14.13562,-11.75136,-20.78402,-15.78187,-17.72348,-18.16297,-19.27597,-19.52092,-20.42671,-21.4635,-23.5525,-35.64057,-30.92021,-37.54768,-23.65131,-29.49498,-21.65882,-17.31083,-10.74816,7.369841,-3.439609,9.654121,10.70775,14.32587,16.52037,18.79985,19.4098,20.56518,19.78023,8.929344,12.35821,8.286941,6.584929,15.41555,11.86996,25.58953,24.83138,31.75271,36.83847,28.21246,35.21524,31.52285,30.88647,28.90152,25.64585,22.47136,18.04805,12.09501,-2.393276,-2.73159,-3.875287,-0.2827749,-7.102383,-3.891378,-5.993591,-6.175214,-6.103275,-20.17451,-17.58178,-25.03502,-30.72723,-35.94639,-41.70556,-47.47677,-54.30838,-61.27123,-68.67923,-75.26805,-69.43679,-76.07087,-74.37659,-75.0711,-72.44318,-70.2311,-80.38613,-74.24084,-77.45221,-76.60872,-76.60856,-76.9458,-75.69615,-75.5586,-74.54141,-72.87714,-71.10143,-68.6268,-66.52588,-62.96062,-59.41655,-56.01948,-52.4617,-48.03324,-43.91313,-38.96244,-33.72243,-29.17755,-23.75235,-18.77804,-13.2101,-7.344854,-2.882691,2.270909,7.783026,13.47492,18.61191,23.84135,28.60956,32.42273,38.06892,40.51605,44.74737,46.9949,49.69426,52.8925,55.16489,56.47343,57.20266,57.28584,57.16661,55.65631,53.97377,51.60118,61.24263,57.09462,61.27858,61.40267,64.69748,66.3198,70.0206,72.90343,63.29747,68.44497,63.48764,62.16882,59.95308,56.24668,52.96005,46.55993,33.16926,33.38984,37.85678,30.45449,32.09647,32.70098,35.10433,42.56201,38.10551,40.87753,39.93853,40.56116,38.53673,37.38835,35.53482,33.39342,31.17734,17.30084,21.60032,14.12453,13.3268,23.36899,19.51664,14.26126,29.99325,20.82857,24.33046,22.97099,22.20121,20.47031,19.70986,18.20451,15.80428,3.797437,6.77025,1.209091,-0.3761745,-2.647915,-4.340185,-5.267208,4.681513,-2.586654,0.4386793,-1.257523,-1.7434,-3.292334,-4.710029,-6.000267,-9.149745,-21.53976,-18.28623,-24.89715,-27.20551,-29.27961,-32.6677,-33.00345,-23.05369,-30.97612,-27.15051,-28.37572,-28.31841,-29.30206,-29.05799,-29.82058,-31.5408,-32.23805,-43.53658,-38.88605,-44.29279,-44.80688,-46.2741,-46.58948,-45.91766,-35.53999,-40.89263,-35.36511,-34.24834,-32.03162,-30.52336,-30.74382,-28.61057,-29.22148,-27.60829,-27.8569,-39.54446,-31.84219,-36.7508,-36.1308,-36.56921,-36.73071,-35.88292,-24.37839,-28.75611,-23.72984,-23.49378,-20.72425,-20.32737,-19.91318,-18.25155,-19.91668,-19.24427,-24.27565,-29.36204,-28.03607,-32.53021,-32.6288,-35.21254,-36.97071,-28.08863,-37.09896,-33.52334,-25.01514,-28.24564,-22.77153,-20.28503,-16.45942,-13.28088,-7.610777,-21.17222,-15.53261,-18.10675,-18.33396,-18.89487,-18.86318,-20.43637,-8.606427,-17.57596,-13.05878,-1.015996,-5.123168,2.342748,5.294415,10.71577,15.09916,20.33174,11.09782,8.253754,10.88782,7.845079,7.086994,5.459177,4.544817,3.202597,12.49956,18.02767,18.91453,24.40726,29.03161,32.70532,38.61948,42.98441,35.2719,41.69353,39.34118,27.16568,32.46311,25.23399,23.90582,18.73039,16.73407,36.41219,24.85911,33.70178,36.10418,38.5555,42.36311,45.97686,35.77544,42.14057,37.8934,25.1734,29.52787,22.3644,19.32621,14.73409,19.26164,13.54288,23.76839,18.3709,23.12006,23.69652,26.61038,29.48884,32.01048,22.5805,28.60783,12.97886,18.55218,11.43513,8.003759,5.177655,0.9450877,9.458188,-2.109142,-1.291653,7.371732,1.297401,5.297352,6.522799,7.932711,10.69563,14.1167,3.874368,-2.332248,0.7647408,-5.572604,-6.380503,-9.449534,-11.40029,-11.15632,-7.071196,-13.4706,-7.953003,-3.705908,-4.183851,-0.4417057,2.185363,5.649853,10.06521,0.843212,6.429644,-8.868643,-1.745371,-8.271838,-10.36085,-13.14939,-16.64231,-6.722984,-18.58887,-1.417888,-8.688387,-3.119733,-0.0319232,2.962009,6.354884,11.10301,-0.09678943,8.515326,-7.218469,-1.526068,-7.25325,-9.45949,-11.64183,-14.56203,-17.15062,-9.972755,-20.99644,-3.654648,-9.497609,-4.492148,-2.567995,0.9510587,4.33962,8.132816,-1.300808,4.569893,1.054054,-11.00917,-5.537758,-11.25024,-14.11814,-16.9482,-20.09801,-10.79446,-21.64912,-5.646123,-12.18857,-5.946781,-3.634675,0.6636054,3.398178,-5.489209,0.3409585,-2.905119,-15.96401,-9.981853,-16.253,-18.43306,-19.27431,-22.19188,-20.27065,-4.639109,-11.47948,-1.163752,1.601326,8.169252,2.309272,5.970486,5.700519,6.631299,4.236744,3.967083,-9.003327,-4.336616,-10.96625,-13.13561,-17.22356,-6.048836,-0.1249049,-1.440549,6.868506,9.537179,15.60235,6.327876,15.29832,10.18392,11.51969,9.204761,7.678775,5.979639,3.040152,-0.3964982,-15.96962,-13.03829,-7.010159,-14.38457,-9.264706,-8.930154,6.310967,3.343552,9.072012,4.108507,9.551053,7.596227,9.052744,6.989114,6.831771,3.857581,2.767482,-0.4551059,-15.50744,-11.52915,-7.381715,-12.51809,-8.771117,-6.485364,1.773702,8.720874,-2.16985,8.712136,4.690484,5.598185,5.450135,3.139715,2.184902,-0.1422703,-3.375567,-6.44549,-13.28779,-10.89202,-11.96999,-12.63679,-9.544346,-8.109359,-3.189015,12.43432,-3.155927,11.68574,5.981571,9.483392,8.975827,9.078717,7.282037,6.584296,-0.7500102,-3.680117,-5.135594,-10.06229,1.925222,-4.216766,13.26754,8.851067,18.92713,22.7372,15.46601,24.50045,21.42046,21.6893,20.63409,18.67286,17.2266,2.809105,6.888461,-1.993198,-5.630336,4.530432,-2.549855,11.14986,11.81061,15.93036,21.92734,20.34059,19.25947,21.61684,19.88706,19.65639,16.52674,14.79006,12.10264,9.529216,-6.183877,-2.133457,-13.25142,-2.374355,-10.27154,-5.310931,0.242817,6.928482,8.57348,1.568356,9.008752,4.851664,5.955844,3.37238,2.78545,-0.5209747,-1.602812,-6.221928,-8.988188,-23.90272,-21.12982,-30.75951,-34.15405,-25.91226,-32.72344,-16.72907,-21.89534,-13.82252,-10.38171,-18.96983,-10.69263,-14.13761,-13.83379,-14.31511,-15.59681,-16.67777,-18.34306,-20.5707,-34.61268,-29.58675,-38.57929,-25.95047,-33.27096,-25.85755,-12.48282,-14.31349,-3.463938,-5.313811,-2.79829,0.6479377,1.906007,3.74298,4.370412,4.064711,4.454648,3.895284,-9.059728,-2.387196,-11.27422,-7.965988,-2.029494,-3.134095,12.62031,8.192659,18.96462,23.02189,14.79101,23.93627,20.40802,21.81136,20.79709,20.3306,6.952327,13.88302,4.783151,12.82715,13.20658,14.95058,30.68047,26.5242,38.50891,27.75749,37.3331,32.80119,35.075,32.68889,32.2184,28.66933,26.57107,23.25759,8.909112,11.69668,16.27318,10.14987,14.91385,16.56891,32.47464,28.86933,28.81839,31.47317,32.08723,31.9352,31.66463,29.82399,28.70447,26.99924,23.43381,21.68264,17.33967,2.084614,4.68081,8.580279,2.498338,5.475204,17.72437,13.04381,21.65157,18.65447,17.22218,19.22427,17.79582,16.68805,14.27762,11.73629,9.790325,-0.9586692,-3.338975,-8.234605,-13.05138,-17.74827,-7.9792,-3.22449,-4.852774,0.6096976,3.632155,9.344909,-0.9542539,7.238726,2.699704,3.149472,1.495095,0.3611175,-13.56608,-7.912656,-16.40207,-16.70416,-21.73773,-23.81294,-18.41743,-12.01357,-14.65857,-8.541137,-6.104027,-2.07069,1.603535,-7.601582,0.1984369,-4.967209,-3.368729,-7.324517,-7.459234,-19.5432,-18.25045,-24.83528,-27.8519,-32.35314,-36.07018,-14.09831,-28.74796,-17.22104,-17.56524,-12.31619,-10.06838,-18.15982,-12.58873,-16.56649,-17.85626,-19.20582,-21.11986,-24.23737,-30.0061,-39.8629,-40.49004,-34.3909,-41.55712,-36.09489,-36.35335,-20.63552,-24.84357,-29.57957,-21.72156,-26.26669,-24.49074,-25.96446,-26.75502,-28.70255,-29.57599,-32.78652,-35.08889,-38.67147,-53.05586,-35.44151,-47.44354,-39.51843,-39.19304,-34.1673,-17.02113,-33.03094,-17.13336,-21.20086,-17.7066,-16.80282,-15.88296,-14.97994,-15.84378,-15.15111,-16.61584,-17.35631,-19.69298,-21.89223,-9.908485,-15.36213,-18.08067,-11.54451,-9.602319,-18.83174,-10.16404,-13.29788,-11.00966,-1.393637,-5.287754,-2.001855,-1.776451,-0.9781119,-1.251334,-3.136992,4.389618,5.878849,8.201539,11.99895,15.85932,20.69475,0.7636551,14.92396,5.746155,8.870323,5.76447,6.082086,7.866029,13.44926,7.822917,10.58802,7.217289,20.72541,14.40997,20.93355,22.18391,27.21318,30.81635,22.84952,28.77874,14.31622,22.74857,15.67501,16.52651,13.44523,12.84792,23.31457,14.2421,17.3983,14.19671,12.8527,21.04506,18.04889,21.90338,24.04528,27.20292,30.84651,20.70074,15.74298,20.02963,13.03188,14.29978,11.17646,13.05301,17.8591,12.37621,15.54664,12.00955,10.37822,6.021018,6.469581,11.68307,7.879914,10.87777,11.65242,2.777466,13.44713,-2.365633,5.726883,-0.01393346,11.74499,2.050526,8.554572,4.249633,4.430704,2.247039,0.065233,-2.238512,-5.997434,-9.578575,-0.4982964,-6.425784,-12.68219,-3.918541,-6.377919,-1.199704,-12.09204,-3.016725,-2.443243,3.599438,1.04792,4.875006,5.515074,4.694292,5.980825,3.820722,2.965027,1.746001,-1.043207,-3.584818,-7.96547,-11.77623,-3.358065,-20.81454,-9.024868,-15.18063,-9.772264,-8.52713,-2.912709,-1.821977,0.4278486,2.210537,3.80387,5.012771,4.511714,4.535983,3.303993,2.555565,0.1749293,-1.801936,-4.861938,-8.53489,-8.823695,-9.787238,-8.310336,-6.954301,-4.228933,0.6509409,2.709312,7.121517,7.889055,10.16499,11.70639,11.85851,11.70246,11.34151,10.07803,9.813162,6.145324,5.211339,0.9187168,11.52383,-5.827436,7.875465,2.330282,9.539783,10.59597,14.92074,14.20917,17.42667,16.86233,18.15927,18.12115,16.91024,16.3866,13.56523,12.36992,9.310026,5.888267,5.022117,4.896319,6.198606,8.365691,11.88234,14.96848,15.75664,17.15397,17.63532,19.40475,18.35829,18.39264,17.54419,15.8759,14.03845,11.54657,-2.868389,16.51518,4.386057,12.91977,14.12252,28.13517,14.63363,28.09109,22.22385,26.11497,24.92784,24.08216,23.44353,20.58713,19.40597,14.7269,12.26737,2.51027,9.865659,3.426993,6.273958,6.597069,9.979851,13.6525,23.76745,13.38942,23.22136,19.36443,21.42076,20.6049,19.83422,18.87817,17.61582,14.98984,13.17689,9.362977,6.041153,-8.892752,-6.800181,-1.456595,-9.668061,-3.819293,-4.607663,11.64926,5.894193,4.872097,8.112514,7.318799,6.99268,5.63238,3.612755,1.281513,-0.8671987,-4.498233,-6.673118,-12.48643,-28.01724,-24.96627,-24.37124,-27.8399,-26.06912,-16.06866,-18.34709,-10.55927,-9.799264,-15.05863,-9.784715,-12.40981,-12.1514,-13.12846,-14.08491,-16.00775,-16.9557,-28.91756,-26.8348,-33.20308,-35.92931,-39.20182,-28.15664,-32.89803,-15.66423,-20.21445,-8.207235,-20.27117,-6.878177,-12.89795,-9.162143,-11.13568,-11.21259,-12.39157,-14.36916,-16.47319,-20.06855,-32.55496,-32.35489,-25.028,-33.25111,-26.96478,-27.29346,-11.0872,-19.76912,-17.64847,-14.56029,-15.08226,-15.7972,-14.41609,-16.18914,-18.29495,-19.73316,-22.75423,-25.05228,-15.08873,-22.11661,-26.61954,-18.99532,-20.93822,-26.13946,-23.47169,-24.23152,-12.51035,-20.94393,-15.21528,-17.88203,-16.79186,-18.04043,-19.31561,-20.36238,-23.87337,-20.65031,-17.15441,-19.52997,-15.62174,-14.00516,-22.50971,-10.30547,-27.69291,-16.71039,-23.984,-8.449517,-19.10834,-10.65738,-14.63376,-12.49279,-14.30433,-14.2906,-16.74882,-18.48751,-21.5076,-10.44239,-15.81374,-21.50332,-10.57159,-13.06406,-5.368705,-16.10871,6.84485,-6.182982,4.739923,1.778515,5.614064,4.857144,5.83628,4.779489,4.19682,3.407074,1.124933,-12.31439,7.620553,-5.140303,6.277807,5.674753,12.6194,16.39854,15.7816,20.90643,20.53861,21.8443,21.02668,20.86795,19.79555,18.84276,15.5247,13.89192,10.21241,7.683052,9.884746,8.308807,11.10576,12.87035,17.36117,22.01686,23.29652,25.02762,27.25407,27.98051,28.30531,27.5015,26.35127,24.85727,22.5746,20.47895,16.50011,12.52173,8.157139,4.084926,7.606172,4.218233,7.518871,8.240611,24.94256,5.356709,20.50687,13.66153,16.44726,14.65321,15.48181,11.45814,9.685207,7.14188,4.045273,0.7825658,-15.53889,-11.00293,-22.87237,-10.61565,-19.83872,-12.69815,-2.838873,-3.301246,4.683096,-4.445466,5.409868,1.664006,3.865943,3.867579,4.25135,3.464122,1.264875,0.9205059,-1.958495,-3.262913,-18.15204,-11.83703,-23.0316,-8.329759,-18.00448,-8.390687,1.214228,4.02204,-2.505003,7.693036,4.10791,7.550948,5.831288,6.962946,5.694823,4.931182,2.853514,1.246488,-1.220669,-11.79985,0.9925402,-7.722052,-0.9824914,-0.4031325,4.785644,-3.236275,13.84641,3.620602,11.47578,8.65496,10.85796,8.613765,8.727818,6.285637,4.278448,0.3710589,12.22337,3.454791,10.96593,2.660352,8.341729,9.173782,-1.801101,6.613443,-0.5588204,14.61978,2.740399,11.22547,6.754857,8.521377,6.036057,4.325899,1.056724,-2.038564,6.54824,2.018893,5.713758,-5.28528,6.97283,3.154184,8.352226,-0.5487243,16.99443,8.701748,14.53855,13.42544,14.92059,14.21193,13.90036,12.53672,11.78368,9.143879,6.946169,3.887872,7.376871,1.654006,7.44586,7.305336,11.41725,1.71111,22.29984,9.217974,18.16977,13.86526,17.29419,14.47012,14.601,12.48169,10.66357,7.602591,4.495358,15.54341,-4.57022,11.50582,3.539247,12.14112,13.13164,15.17204,17.98654,18.59969,18.36517,19.92086,18.21266,19.57549,17.84403,17.43069,15.64206,13.79607,-0.4551307,5.123373,-4.928255,9.586515,-0.6904385,19.82779,12.34813,24.28107,26.92919,22.20726,27.90548,25.56363,27.6636,25.81466,24.55809,23.86387,20.7199,9.379771,11.61981,3.735245,1.587512,-3.98148,2.264661,11.8121,5.550775,14.00703,14.59708,21.07863,20.69421,16.0176,20.28202,17.46983,17.77676,14.93039,13.6484,10.2608,-4.13087,1.2346,-8.94265,-10.46875,-16.97715,-8.222946,-12.51992,-6.941441,-7.994119,-4.752286,-2.648564,1.473095,-10.65624,-1.550072,-10.30955,-8.358259,-12.01969,-22.46833,-22.69497,-27.69021,-31.56936,-34.56237,-38.75266,-35.08631,-23.26319,-29.32764,-20.49968,-18.6368,-12.54431,-20.26483,-14.75903,-16.20992,-16.48988,-17.18172,-18.3747,-19.8601,-21.56921,-36.17533,-28.93432,-40.18203,-39.55769,-35.97972,-34.0605,-28.33045,-19.37973,-16.92637,-8.553017,-17.0829,-5.767425,-11.04317,-5.562544,-8.335177,-6.05919,-8.2067,-8.906184,-11.30838,-13.02698,-27.51734,-23.12638,-18.89348,-24.60105,-18.38431,-18.06819,-1.562641,-17.83267,-6.860697,-11.80089,-7.349291,-10.3242,-9.474641,-12.48074,-11.86425,-14.81736,-17.60954,-20.92045,-10.58326,-21.24632,-20.4943,-16.86127,-16.75271,-26.45217,-20.39168,-13.21491,-21.27475,-15.80669,-20.62531,-18.44308,-21.9572,-23.23987,-25.81999,-29.97447,-32.54706,-23.55406,-40.42482,-27.11857,-33.45217,-25.77233,-24.73951,-30.77975,-12.23721,-22.66077,-12.92153,-15.27476,-11.93669,-12.34639,-11.73729,-12.40617,-14.05186,-13.65451,-16.78782,-18.42614,-6.471602,-12.40125,-16.3105,-6.495905,-7.134156,-14.62585,-5.956552,-9.687852,0.4067449,-0.5777005,1.916761,2.879572,3.961667,3.308593,2.901518,1.128385,-0.3180933,6.786507,5.854316,9.018904,11.97887,12.94477,10.14208,11.58817,7.127536,10.44863,8.570024,10.18767,20.41347,12.64776,18.69098,15.83683,17.95018,14.21818,13.64245,9.244161,6.723417,17.36953,9.132601,15.59271,14.28705,7.860523,17.29281,10.66051,9.0616,10.58807,7.969483,20.6744,10.7174,17.98655,14.07245,15.2461,13.92256,11.95238,9.177484,6.458514,2.61026,12.80777,5.032388,12.4743,10.50647,9.50631,10.99933,1.49087,7.41538,2.195337,5.116366,14.62379,7.322947,13.42902,10.8162,10.8958,9.885525,7.823365,5.790212,2.367012,3.199584,-2.432874,2.784081,1.314603,4.882281,19.72065,0.7243578,16.6903,6.414982,11.96637,6.302493,7.607072,3.9271,1.70184,-1.303096,-4.663396,-18.92661,-2.436145,-15.42756,-6.516321,-8.526739,-1.512794,0.9040575,5.344861,5.716962,9.746659,9.931806,12.96088,11.49489,13.39397,11.51848,13.13211,9.894181,9.697302,6.058814,2.978709,-10.18019,8.77083,-5.251191,5.266856,2.967696,10.15344,24.99604,13.98266,24.00078,22.21836,26.07043,25.45696,26.41059,25.87904,25.02036,23.61752,22.30317,19.79282,16.18726,11.58285,0.8498413,14.87083,3.295927,11.47572,9.214872,14.64834,29.45249,11.7931,27.75846,18.93317,25.57917,20.48985,22.29681,18.75909,17.80322,15.14813,12.91599,7.987028,5.56414,-0.2804714,-1.188333,-1.561333,-2.609588,-1.320071,1.438472,5.466453,7.389847,8.244923,10.52388,10.2259,12.05195,10.53128,10.87374,9.687546,7.953492,6.430906,4.54662,1.796818,-1.990951,-17.09672,-4.202638,-11.16033,-7.755849,-6.381914,9.481649,4.985511,3.050817,9.532917,7.361742,9.678513,9.629429,8.901465,7.871727,6.599052,4.294077,-7.680161,12.31766,-0.3103655,11.11114,10.28255,15.1678,14.38356,18.04144,17.60557,17.75109,17.79106,16.61111,15.34125,12.51475,9.595187,5.788273,15.09013,9.012722,1.955411,11.08205,6.266348,13.19585,14.1445,10.4731,21.40196,13.72326,19.77828,16.36163,18.63309,15.12595,16.03105,12.65523,11.5896,7.222475,4.414985,-0.6331622,-0.3144533,-1.814287,-1.520895,-0.6435753,1.870293,5.576705,7.106763,7.593919,8.673714,9.011646,8.489017,7.857476,6.226157,3.90994,2.077786,-1.901234,-4.076287,-9.318547,-13.00526,-16.94073,-16.3787,-24.53865,-19.37578,-22.9682,-20.04792,-17.07009,-28.32115,-7.914272,-22.58436,-12.33933,-18.3595,-14.61685,-17.98065,-18.38847,-20.64148,-22.44454,-25.1994,-27.77077,-32.4498,-36.81555,-36.76382,-37.47854,-37.14935,-35.05074,-32.89407,-15.67925,-35.61042,-16.63059,-26.98772,-19.96542,-23.79499,-21.14846,-23.12359,-23.74252,-24.85233,-27.22983,-27.97315,-43.10031,-37.90916,-33.46902,-38.35104,-31.75023,-29.55964,-13.3818,-30.83256,-13.51786,-20.51964,-15.16505,-18.39523,-17.12197,-19.99703,-20.96167,-22.08726,-25.80746,-27.78958,-17.30026,-23.9486,-16.07923,-16.91259,-23.12831,-26.38761,-22.70145,-27.63221,-26.60709,-28.33661,-16.53544,-25.55156,-18.95531,-22.66654,-21.44934,-23.48083,-25.42265,-27.86411,-15.63033,-25.30398,-14.61963,-17.35358,-10.18868,-15.03554,-14.74092,-13.58965,-25.13196,-17.32207,-24.66866,-22.29612,-25.73639,-24.40092,-14.48372,-23.76334,-17.27525,-19.55049,-7.391654,-10.55589,-2.666926,-0.5881504,6.279109,10.34294,3.168429,13.14993,7.725969,0.132152,7.425846,2.015731,3.691584,1.847017,13.3456,5.202519,11.02304,7.709992,7.72945,4.768724,11.73304,12.47287,13.49697,16.66691,19.64354,23.69118,26.86109,6.252587,23.41084,11.15129,16.95122,11.22601,15.57369,21.18346,16.08159,19.26404,16.88754,16.37398,13.38721,12.80144,21.95871,15.8273,23.12418,22.9298,26.99856,3.425989,20.94476,5.739737,11.34284,3.728183,18.44892,4.295101,12.72976,5.664362,6.472366,2.636412,-0.7161045,11.0471,1.934796,10.68053,9.500849,15.97469,17.50173,-2.325025,14.90467,2.254791,7.810716,4.519547,5.131984,16.36588,7.151494,15.86068,10.88904,13.94591,11.54997,10.67192,8.463786,6.04331,3.486986,14.18976,6.588976,13.90065,1.329045,15.96311,10.91877,5.559795,12.61502,8.544066,17.98776,17.66469,19.42644,20.86388,22.03405,20.525,21.2167,18.56628,18.05986,15.0021,13.18809,8.599484,5.951328,16.10109,-3.578842,11.63427,2.939797,11.03474,11.29319,2.444998,17.07888,12.99264,15.08433,16.08599,15.68148,15.52592,13.90868,12.83565,10.99585,7.851468,5.202758,1.484419,12.15235,-0.713757,4.080728,5.439846,7.013264,-2.489872,4.689578,0.1632702,13.5424,3.133954,10.64458,6.840111,8.743607,5.713352,5.161862,1.762107,-0.4828494,-3.400483,6.7463,-1.596443,5.641448,0.6220564,0.7776033,3.992504,-6.089026,-0.2256668,-4.248344,9.493271,-1.827392,6.944968,0.8813102,3.868541,0.8772209,0.2600956,-2.829569,-5.702512,5.637823,-1.475562,6.063257,5.991147,0.6645894,-4.014414,0.9608727,-4.014032,-2.502657,-4.670254,8.080037,-2.216254,5.175957,1.016257,2.01939,-1.180534,-2.224604,-5.259281,6.451355,-2.2499,6.503401,5.494094,11.33284,1.824675,1.112651,3.249229,0.3087429,1.291635,-0.1125006,10.85655,2.42864,9.01303,5.658128,6.185927,4.104402,2.111341,-0.475014,12.96006,2.936026,12.95713,11.93765,17.10129,9.712711,13.81103,7.933771,11.29028,9.296193,9.649629,14.61053,17.84597,15.35748,19.06335,16.44677,17.1046,13.88886,12.24015,7.972533,19.28513,9.995379,17.99166,15.55101,19.5944,11.33137,15.48954,5.625503,10.84581,5.400298,5.917715,14.9358,5.622108,10.47859,5.535131,6.847787,1.7971,-0.3670398,-5.247787,-2.729556,-2.436204,-4.491964,-1.821091,-13.89042,-0.8176193,-7.214756,-13.63197,-8.792757,-3.028971,-8.273308,-4.625811,-7.160856,-6.755384,-8.812319,-10.39173,-11.96892,-15.13893,-18.34605,-21.84477,-22.48677,-27.60874,-24.4497,-26.13364,-21.92846,-20.25991,-29.28472,-18.32814,-16.15941,-18.64438,-14.16667,-16.42042,-13.58612,-17.52518,-16.27392,-19.95032,-20.14638,-24.3478,-27.02194,-16.79061,-27.15806,-25.89706,-22.79149,-21.85386,-17.46534,-28.82422,-17.09173,-12.14698,-17.53901,-11.08935,-13.60515,-11.34882,-13.27661,-13.44424,-15.17373,-17.61478,-19.86471,-24.1215,-12.57269,-21.41735,-15.69586,-26.01738,-13.7533,-18.39501,-24.49337,-18.12713,-22.79925,-7.972354,-20.09096,-8.223384,-15.09356,-10.14111,-14.87509,-13.80739,-18.05461,-20.57464,-24.01831,-14.56441,-21.83738,-16.25269,-16.60809,-13.60043,-21.75308,-16.64614,-26.54324,-19.78473,-26.61975,-22.73036,-14.87571,-22.61457,-15.53733,-20.52035,-17.4218,-21.10735,-21.94007,-24.04485,-26.81198,-16.4734,-22.48629,-14.85186,-15.64785,-20.50979,-8.766601,-25.58718,-12.05017,-20.57219,-14.07286,-5.449837,-11.62575,-4.10039,-6.409597,-3.833312,-4.355381,-4.992073,-5.955015,6.608345,0.2197053,9.918562,10.9497,17.83193,7.403327,6.284983,9.224061,5.876343,6.059644,5.686914,4.740022,15.99278,6.834298,13.27614,7.548421,10.18393,19.2285,15.64489,21.9829,22.87271,28.61225,30.91817,35.36871,15.27018,33.28954,19.74105,27.34521,20.47696,24.40132,33.03605,24.79614,30.44138,26.43722,26.3836,22.62298,24.83175,29.23085,26.81275,30.31932,31.85222,34.43753,37.86867,13.36334,33.72127,15.20549,23.60179,15.55491,18.98654,25.63596,17.21897,22.96842,17.24419,18.24898,13.94242,11.3596,9.135626,17.88179,10.0026,17.2262,15.79415,8.637379,21.15702,2.478931,17.97413,4.138101,24.554,8.452864,20.70272,12.30499,16.8089,12.78466,12.80549,9.456126,7.371844,3.93583,-0.3716963,-4.033595,5.342212,-14.90187,1.042788,-9.670281,0.222708,-1.711661,-8.854143,10.60576,-3.963146,8.159981,1.065786,6.53985,2.812278,3.491551,1.702968,0.8425638,-2.626734,-4.820297,-8.38511,2.268573,-11.99581,-4.328959,-5.665862,-1.911457,2.122008,-7.644762,6.720236,5.519665,6.687082,9.022127,9.09989,9.999236,9.430781,8.234479,7.088701,5.34113,2.382912,-0.2916318,-3.209853,6.065671,-12.14421,2.593743,-5.65659,1.600402,2.364793,-7.189696,14.30581,-1.821691,11.09495,2.497644,8.388588,2.465074,4.321625,-0.05347513,-1.896737,-4.789143,-9.685719,2.045238,-20.13497,-2.817372,-12.85389,-3.237999,-4.942726,-4.592704,1.373057,-1.733043,1.688891,-0.2908441,0.3850134,-2.152818,-2.059211,-5.33017,-6.802659,-11.17449,-14.03064,-18.82869,-18.77122,-20.12661,-19.02712,-17.75041,-14.13269,-11.5707,-8.888505,-6.311117,-5.769121,-3.93521,-4.07898,-3.802277,-5.295113,-5.853663,-8.054034,-9.843927,-13.07113,-16.55336,-5.074737,-14.46359,-16.574,-10.02835,-11.76633,-21.44054,-12.90134,-20.01486,-4.37496,-16.81439,-7.784965,-13.39377,-10.33448,-14.00639,-14.24024,-17.54126,-19.81745,-23.10767,-12.31917,-21.75807,-24.88506,-17.80584,-18.35804,-12.59106,-23.26174,-11.81218,-5.387208,-8.492496,-1.828851,-2.785675,0.6788311,0.4267378,1.410753,0.5779097,0.1961869,-0.8778578,-3.551546,2.427227,4.72446,-7.072644,8.357898,1.185672,11.96651,8.423542,12.02369,21.81345,17.34038,24.25251,23.35864,24.78312,25.88912,24.54977,24.91105,23.38761,20.71598,17.70577,13.92813,13.20049,13.84174,13.15707,15.79194,17.89257,22.73387,23.04015,25.0555,24.6461,26.18595,24.0766,24.54764,21.61926,19.28667,17.35329,12.2205,9.574064,3.309272,14.42874,3.241521,1.02345,4.261632,2.709913,-3.726863,-3.653282,-5.997842,-6.798396,2.496507,-7.189947,-1.043461,-6.849422,-4.783163,-9.453831,-11.72597,-15.25946,-18.58247,-7.779018,-17.56794,-9.062344,-10.92657,-12.98025,-8.287287,-18.74744,-13.34191,-17.05559,-14.15949,-9.443926,-8.100604,-9.411782,-6.435911,-6.945112,-6.10832,-9.15701,-10.17716,-13.2801,-13.9271,-3.567973,-12.42151,-4.337149,-5.28163,-10.57498,-0.2285599,-17.37943,-5.826889,-14.94667,-9.187455,-1.208492,-10.52751,-4.477584,-9.336087,-6.137802,-11.61453,-12.7621,-16.60534,-4.905308,-12.29343,-3.519486,-5.905823,-0.8833173,-9.155927,-9.7288,-7.658457,-11.48118,-11.34684,-0.536406,-10.13876,-0.9926255,-7.148665,-5.348537,-8.878307,-8.107886,-11.63616,-15.23332,-4.120696,-13.73,-2.817686,-18.41086,-1.269609,-14.38261,-12.52977,-11.76606,-10.30212,-2.659555,-9.774132,-4.806951,-6.331294,-5.493308,-8.682213,-10.55113,-13.88455,-14.36978,-4.621407,-12.26124,-5.086815,-10.40537,-8.735872,-2.429091,-16.0932,-5.383243,-13.50429,4.764291,-8.600654,2.477016,-5.94405,-1.184779,-5.424512,-3.852204,-8.214526,-11.38782,-16.06953,-19.19744,-10.35669,-18.37548,-25.46941,-18.90966,-22.05429,-15.77327,-15.12741,-13.94878,-12.33216,-10.79063,-8.751912,-9.279803,-9.453252,-10.94852,-9.810077,-12.09491,-12.79925,-16.09719,-18.71498,-21.47528,-26.51253,-18.53958,-24.74018,-16.88176,-17.6038,-8.898273,-2.59704,-7.134564,1.825032,-0.003082319,5.012158,3.522701,6.876494,4.603911,7.266379,5.007293,5.094271,-8.849611,-0.9071402,-12.10204,5.560447,-5.172061,16.64794,9.866037,23.96,26.18085,21.23952,32.21969,26.49063,33.30198,29.853,33.02915,31.33918,30.43717,18.45368,26.54077,15.77374,18.50735,12.29409,38.02485,20.10264,40.40385,34.03747,46.48467,31.51927,46.47276,36.22827,41.12171,36.97361,36.51477,33.84003,31.4889,15.47599,22.54936,8.966411,10.31108,17.68476,9.689421,29.68174,18.05547,33.74848,28.4586,27.65351,30.80442,28.53672,29.17155,28.07354,26.58533,25.18966,23.81774,21.68125,6.695448,14.22502,2.350768,8.906567,10.12252,11.49861,24.19749,24.09076,33.30549,21.63529,36.91731,27.40489,34.73881,30.14026,32.31161,29.21839,28.64061,26.49161,23.62198,20.92536,16.85825,13.09613,23.42165,2.410192,20.3002,9.593614,20.03958,4.12921,15.86946,19.13488,14.44283,18.8766,14.71675,17.71685,12.83348,13.80367,9.039789,7.132613,1.955272,-2.595569,8.438247,-2.777623,-7.644471,-1.026458,-4.290727,-0.04269483,-12.67606,-4.320531,1.532083,-6.263063,-1.102611,-4.300961,-5.251943,-6.309719,-9.022606,-11.87385,-14.75343,-4.463842,-12.25921,-3.89711,-5.444991,-12.28265,-11.9312,-14.6351,-14.24287,-16.31811,-16.5288,-6.333037,-13.7279,-8.549401,-11.33492,-10.47242,-13.20747,-14.5282,-2.680559,-10.15361,-0.5446941,-1.270031,5.636631,-6.660861,-6.04682,-7.23935,-9.337366,-10.1841,-12.71089,-12.0482,-2.91367,-12.17209,-7.009265,-11.38196,-11.6043,-14.8939,-2.679402,-12.28153,-2.235456,-5.20183,1.084571,1.885409,-8.468661,-10.73174,-9.641306,-14.74096,-14.92768,-17.77505,-18.44065,-8.564706,-19.77348,-12.27233,-19.12456,-18.50566,-23.57893,-9.77499,-20.05771,-10.4154,-13.427,-6.090664,-5.849737,-9.086152,-7.061668,-20.0295,-10.16417,-19.75544,-15.29164,-19.42123,-17.78906,-7.300864,-16.35938,-8.331464,-13.59507,-10.77169,-13.47448,-14.07919,-18.40104,-19.94678,-9.999479,-17.7132,-9.453402,-11.48291,-4.734922,-5.826035,-23.75654,-7.408231,-22.14975,-13.69085,-22.01944,-16.95845,-9.665958,-17.79551,-11.21879,-16.78228,-13.87356,-19.09511,-19.06086,-8.012397,-16.52819,-7.077282,-8.876886,-1.779786,-0.4911257,-11.06897,-11.29619,-10.47319,-15.31656,-13.15078,-17.30355,-16.0921,-5.382979,-16.36748,-7.993716,-14.82964,-12.19449,-17.54069,-2.407479,-12.9565,-1.304209,-3.781672,3.750419,5.769756,-2.015684,5.096894,-11.08251,0.5197637,-11.05676,-5.789166,-11.60215,-9.679258,-0.562579,-10.38375,-3.97226,-10.06667,-9.380577,0.8776257,-4.930956,2.693261,2.029419,8.836493,10.38515,2.040631,10.3111,3.633704,-5.567245,0.5229602,-8.3787,-5.435416,-11.24722,1.721092,-12.42713,-3.403985,-12.73267,-10.40327,-1.908186,-8.317169,0.5375266,-1.021239,6.200414,8.031785,-0.7102304,8.852151,1.429575,-7.960783,-1.319502,-10.20698,-7.591777,-13.67458,-1.930815,-13.06346,-6.415843,-13.12082,-12.20287,-17.58828,-4.40535,-13.35136,-3.819804,-5.901515,0.6188029,2.787057,-12.11099,-2.764066,-10.30768,-6.747684,-11.22634,-8.47202,-10.50504,3.053148,-8.070861,2.09133,-4.027291,-0.6185305,-4.339153,-4.334241,-5.692551,4.526236,-1.111213,7.23954,6.271101,13.84021,14.03394,-3.234324,14.90089,0.1782804,9.839349,2.620876,8.747469,16.11744,9.664567,16.23108,13.17244,15.10876,12.04895,11.51242,9.13861,20.25891,12.8407,22.68946,19.78854,28.31265,29.10842,12.37206,24.24774,13.60438,18.22945,12.85224,15.59157,14.47007,23.17245,15.17149,21.23936,16.12667,18.01373,12.90841,12.31439,21.5822,14.68763,22.31304,21.09388,26.44064,26.26669,8.896993,24.24228,10.27097,17.29733,11.06095,25.80313,12.72918,22.6475,15.48274,18.33342,15.26556,13.11045,10.9492,7.104998,18.85894,10.33614,7.886119,15.23789,13.5642,5.77382,13.36864,8.31243,23.83033,11.15131,22.92768,16.27468,22.72807,17.60781,19.88544,15.7219,15.93961,11.26603,-2.507967,18.52627,-0.4452687,16.32733,8.077426,20.17912,17.37248,21.15405,20.91627,23.04101,21.72265,21.91912,20.26458,18.33693,16.03488,13.10733,9.27793,4.228531,7.793286,6.051315,5.930261,-6.128586,6.971658,-2.617408,7.405887,-9.93173,3.524073,3.96138,0.1480749,3.630811,0.1455082,1.179534,-2.512478,-2.993132,-7.428255,-9.282256,-14.10357,-18.3062,-21.06811,-13.42332,-22.23645,-27.70157,-20.65292,-23.99151,-18.58583,-32.14551,-20.73494,-17.58228,-23.01768,-16.93446,-21.1063,-17.90805,-22.29456,-21.65477,-24.43914,-26.42404,-29.55782,-33.66106,-36.61688,-32.09519,-33.50997,-44.00794,-32.56825,-39.04223,-29.89806,-32.67706,-35.86957,-17.13314,-31.2595,-16.83803,-24.64045,-16.98889,-21.40847,-17.56215,-21.16683,-18.5902,-23.31295,-22.79633,-23.57534,-14.61782,-19.07456,-23.47068,-12.45502,-15.16003,-20.87552,-13.21434,-12.00228,-6.673724,-7.83522,-5.826001,-4.769729,-5.548705,-5.672826,-6.977448,-9.355641,4.187837,-5.096038,5.931291,1.74588,-0.1880597,8.712622,-7.146064,6.689673,-4.091945,16.30352,-0.5217728,14.1079,4.14647,10.82279,4.487189,7.030476,16.60657,9.779885,21.81313,18.07089,29.38906,16.23501,22.43003,19.833,22.42236,21.28029,23.86108,32.32124,30.57404,35.84926,35.48866,38.45348,36.74893,36.46747,24.93202,24.18957,16.68334,30.4507,21.14418,32.81258,34.72439,42.86484,62.44509,49.40897,69.14508,61.00788,77.33546,75.14058,82.60628,80.5767,81.68249,86.40968,90.66218,85.82863,81.13197,74.42684,65.97133,66.29038,80.02985,87.26721,82.58824,97.59126,98.66986,89.2063,97.01073,85.65589,88.50698,65.75173,74.86333,54.1067,58.25374,39.85728,44.95218,43.12986,20.88721,14.22282,-22.90144,4.126771,-46.09707,-27.75832,-54.47402,-52.70609,-43.66492,-88.43229,-64.46984,-98.35803,-88.65822,-108.45,-107.1053,-125.3907,-124.7806,-140.5029,-145.2639,-160.7271,-168.9522,-179.1526,-200.063,-184.3829,-206.4791,-179.0335,-214.7696,-202.3959,-220.7971,-220.6747,-218.7866,-212.7726,-199.0056,-202.3695,-190.1973,-188.8716,-178.9442,-175.2772,-168.093,-165.0738,-156.8122,-143.1563,-143.0092,-129.351,-114.6138,-107.856,-106.8514,-90.96009,-89.19174,-79.65762,-74.93495,-67.8216,-62.78877,-55.54844,-50.77393,-46.75747,-42.39375,-42.44855,-35.15045,-31.26407,-25.36197,-18.34971,-11.90863,8.158531,-5.998377,10.51874,3.111778,9.595845,2.523622,2.999407,-2.890726,5.03441,2.826119,7.932626,8.730338,12.36024,12.98572,9.785466,21.86929,2.840055,15.29946,7.435847,30.52848,12.72981,25.37733,17.54068,26.46816,26.6344,25.75875,18.53603,21.88852,22.96489,30.51546,39.87065,62.79865,47.74815,55.69181,62.60261,60.64057,60.91224,51.63914,61.18845,55.55745,59.01417,72.41702,67.49257,83.57264,80.20932,95.44229,87.72937,78.51687,87.51072,82.77284,108.0284,85.99383,118.4319,107.4891,125.7542,130.2398,114.3629,155.1527,128.9947,156.3044,142.0461,152.9394,141.3586,148.4845,135.8431,134.6356,123.7685,120.4868,109.5525,101.4571,103.4306,87.08978,84.80419,50.40904,68.01463,54.43516,59.86406,60.59862,60.26997,58.23244,44.72103,51.27888,39.70585,42.35337,34.13458,19.96229,25.14474,11.95987,12.08472,8.172607,10.28018,20.96625,4.201598,18.97062,7.608295,16.17994,9.075809,14.22821,9.034804,11.7014,8.74094,8.399895,5.413706,3.613681,-5.101181,-6.42696,7.172944,-2.609978,12.07962,10.21023,22.92443,11.37968,30.41529,24.25712,37.34957,37.14779,47.24166,47.22824,54.61374,57.37254,63.89791,66.2399,70.02206,71.15693,78.76922,86.89339,90.64841,100.7926,106.4599,128.27,108.0461,131.7623,119.0387,130.1695,122.4017,125.2876,119.0459,117.1194,109.3295,105.1707,95.8333,88.11799,76.31661,65.51403,53.17543,41.00551,25.90817,11.4801,9.825395,-11.10447,-13.56924,-29.61447,-34.55146,-48.30754,-55.14387,-64.97584,-73.00741,-80.45422,-88.77587,-94.22189,-99.76574,-103.5776,-107.2968,-109.2062,-110.8403,-110.215,-109.0421,-106.005,-115.55,-106.6687,-112.2513,-106.2464,-108.3256,-103.5615,-103.0416,-99.64895,-96.55864,-93.00029,-89.86679,-84.28761,-80.64432,-74.35754,-71.07805,-64.52074,-60.38972,-54.45262,-57.93779,-48.68083,-47.77093,-40.45913,-37.49161,-29.58935,-25.69301,-7.198702,-13.03721,2.38639,15.78654,18.54321,32.3839,39.16382,50.37989,58.98188,54.73118,69.43348,64.16286,73.59786,59.31106,70.26159,59.38094,64.20534,57.02511,57.73472,62.86675,49.91204,52.04626,47.96777,49.44395,42.01262,40.28184,35.32199,31.46353,27.74085,23.93376,18.68505,15.82913,9.499005,6.170598,-12.93787,-4.926768,-19.58824,-17.05862,-26.81734,-24.39533,-18.38725,-26.00995,-18.17468,-21.20275,-16.91152,-17.97714,-14.12363,-26.96731,-16.35007,-25.69152,-22.57813,-26.76731,-27.41499,-28.92664,-43.9712,-33.65959,-46.36245,-40.93551,-46.76655,-44.38971,-35.66413,-42.87959,-35.43077,-38.79678,-34.72696,-36.63635,-33.85689,-34.12061,-33.01508,-32.46264,-33.45062,-32.95952,-32.38319,-37.54456,-40.04287,-37.69702,-40.44,-37.45892,-38.98674,-23.4593,-33.56914,-20.83197,-25.32463,-18.01397,-19.94959,-15.77353,-16.06239,-13.73064,-13.81872,-12.3668,-12.73258,-12.27156,-24.80931,-14.37086,-24.57505,-18.68765,-25.10708,-9.068355,-24.73486,-12.71561,-22.42359,-17.8943,-24.88604,-24.23238,-19.59305,-20.18073,-18.16579,-16.9412,-12.87865,-10.5972,-18.77874,-18.47398,-18.52532,-20.54123,-20.02802,-19.48725,-9.425164,-18.40529,-9.671382,-16.1836,-11.91558,-17.57285,-15.85133,-21.38483,-8.548603,-17.02428,-6.810433,-9.588924,-5.577599,-9.529307,-13.82093,-9.194378,-14.09995,-10.28938,-1.332404,-9.470993,-0.476697,-6.675643,-1.682759,-6.188371,-4.3001,-8.713972,-9.805411,-13.97771,-17.07398,-5.593618,-16.33812,-6.327425,-21.94081,-4.686751,-13.81295,-16.24874,-12.43369,-3.408678,-11.52231,-3.426821,-8.436818,-3.735339,-8.713575,-5.917796,-10.68423,-9.559568,-14.71847,-15.64956,-20.54711,-19.07299,-19.82503,-17.75606,-15.2296,-11.87291,-5.997885,-3.694498,-1.714529,1.094195,2.286888,4.411035,4.428773,5.479435,4.553498,4.283991,2.909955,0.990136,-1.035495,-16.66113,-3.432414,-9.481154,-5.081259,-4.488005,12.56975,6.867904,7.044152,12.93365,10.36232,12.53386,11.73777,11.55166,10.19705,8.319165,7.097773,4.982611,1.63845,0.7387541,-3.936946,-4.053662,-4.143166,-3.060559,-1.496428,2.182567,1.857297,3.501816,2.912521,3.87165,1.976912,1.508561,-0.7689655,-1.976762,-5.895972,-7.596747,-11.95138,-14.69618,-19.82762,-20.19994,-21.4596,-20.4332,-19.49743,-15.81402,-14.30799,-9.489337,-10.60697,-6.942202,-7.135074,-4.665689,-5.67464,-4.435877,-5.769493,-5.427251,-7.005009,-8.757478,-11.48846,-20.85688,-4.311205,-16.92321,-2.372997,5.643548,6.830789,3.95948,14.08207,9.710389,15.78911,13.44255,17.41751,15.59002,17.00125,15.80059,16.04874,3.934071,9.634937,0.6403839,2.164566,11.11523,6.015464,28.43551,18.24843,37.55055,18.20769,39.65954,25.03147,37.19194,27.3121,34.31856,27.44468,29.76243,25.5539,11.92408,18.94156,5.849682,23.97094,8.198929,32.38971,21.31326,36.89705,34.22722,30.66198,37.32774,32.79991,35.18028,31.91477,33.01865,28.29474,28.0553,19.37675,13.48256,12.28091,4.120158,17.47793,5.695867,31.00478,15.32337,36.49666,14.71647,35.69912,20.62142,32.63755,22.53155,29.8542,22.74896,27.22065,22.37469,11.45542,18.25505,7.547221,12.5962,2.399177,4.76393,26.02268,8.925095,29.30626,22.3997,35.99757,19.49713,35.4686,24.35993,32.13699,25.06707,28.42947,23.45063,22.52625,20.13384,16.69321,14.62362,-2.902894,5.160474,4.886835,1.386459,5.824657,6.825974,12.32311,28.48014,9.445363,31.45512,18.41441,31.6377,23.51132,29.9993,24.93268,28.00023,24.1013,24.61603,20.24813,19.82318,26.10476,13.62414,27.8485,19.98838,15.64888,19.90852,15.14327,28.84053,15.81341,26.09192,17.98485,22.43097,15.76203,17.74036,9.547751,9.420123,15.26314,10.04648,14.33795,13.08744,14.06716,8.418175,2.118009,4.784865,-2.31825,-1.142358,6.3141,-4.298358,2.831315,-5.248577,-2.688107,-9.686705,-8.560067,-16.70257,-2.381334,-16.29352,-3.963672,-9.67461,-14.74754,-15.19594,-20.08333,-18.31772,-23.11239,-22.35919,-13.96879,-23.6427,-17.25935,-22.59257,-21.56552,-25.69005,-27.33883,-25.62453,-21.97077,-24.33256,-19.07814,-18.69704,-13.1648,-26.20477,-27.0234,-27.34393,-31.83807,-31.60215,-34.23703,-34.59495,-25.14875,-35.42441,-28.28352,-36.11271,-33.28935,-24.83529,-30.08241,-20.89181,-21.62282,-14.17393,-11.86436,-21.13118,-21.2248,-19.4104,-23.0845,-22.11761,-23.84828,-10.18713,-22.46617,-12.66549,-19.91792,-16.34273,-21.42312,-19.556,-25.55307,-26.06146,-33.16035,-19.47379,-32.19095,-20.55211,-38.50032,-20.67755,-31.28557,-17.83767,-36.8331,-18.91398,-21.00513,-19.69198,-18.12082,-18.1443,-16.88743,-18.18693,-19.07609,-20.16741,-23.50768,-24.79515,-29.87863,-27.84372,-24.88145,-28.03756,-36.01448,-24.96674,-30.62176,-21.87911,-35.61881,-19.27854,-21.98749,-19.91729,-17.96869,-17.44564,-17.16575,-16.31062,-19.13618,-18.04253,-22.26575,-21.31357,-27.06617,-24.63322,-27.2803,-28.52365,-24.66989,-24.70006,-18.86615,-31.09353,-5.711523,-25.67407,-7.864626,-19.77058,-8.998081,-17.57003,-11.45653,-18.82692,-15.59713,-21.91435,-21.8696,-11.3318,-33.20657,-10.90769,-25.34421,-9.631417,-14.54768,-17.0742,1.827649,-10.54117,2.178153,-3.483846,2.449282,0.4191464,2.133238,0.6633637,0.5396347,-1.876321,-3.726422,-7.110224,-10.31734,2.069914,-21.45553,0.5947937,-14.77541,0.1878613,-6.079221,-2.299998,2.048411,-1.21042,4.842759,2.242123,5.29659,2.294006,3.370013,0.05747185,-0.8745494,-5.10778,-7.847893,3.446535,-6.485366,4.416481,-12.76811,6.330558,-20.16545,-0.1976173,-17.29447,-6.301271,-5.093039,-8.737007,-5.380363,-8.323541,-8.049732,-10.79325,-12.10501,-16.19419,-18.71005,-8.154687,-17.44938,-6.826515,-23.40319,-4.128469,-14.19608,-14.93744,-10.51326,-13.87255,2.43333,-9.655868,2.495001,-3.584703,2.965119,-0.8662946,1.600993,-1.56169,-1.136705,-4.145849,-5.662444,6.66467,-3.008095,-2.498907,4.824061,3.56303,9.480485,0.8240586,24.73405,6.781135,26.29331,14.05376,25.88983,18.41775,24.53747,20.40811,20.98638,18.33412,16.1499,23.80352,21.46301,13.94496,26.17521,20.31032,31.10847,16.08365,30.9791,31.88578,31.45097,34.11034,34.11617,33.93477,33.76488,30.77226,31.03063,25.89902,24.4177,34.27216,24.81266,34.2928,30.51465,37.66314,25.69946,26.35011,25.27504,24.13075,22.58047,22.47189,32.7576,21.40766,31.73246,23.79644,27.30386,22.40257,23.28997,18.39903,16.69505,28.05931,18.44546,29.51802,26.13515,22.40089,25.80809,19.48353,26.49453,20.12336,25.07872,31.20862,29.08752,32.39049,32.10007,33.42273,31.69348,32.11154,27.97998,26.55985,21.24716,35.69578,22.40845,34.44895,18.7526,36.92807,25.66386,25.95411,27.70074,38.45394,28.82154,37.99712,31.4038,35.99137,31.34349,32.35509,28.48031,27.07973,22.12225,34.67744,23.7222,34.61111,29.38046,24.45041,35.13713,15.4359,30.79162,16.36708,25.73452,28.9346,23.70163,28.07814,23.83136,24.77267,21.4416,20.09665,16.50678,13.1717,23.71105,13.86754,24.51955,18.81549,15.90378,8.842488,13.29113,5.172123,8.387756,13.45579,6.593623,11.27456,6.480818,6.954319,3.131528,1.339649,-3.676904,-5.626843,4.183766,-6.141021,3.547988,-1.109458,6.047811,-6.841121,-3.835431,-7.399385,-6.590335,-8.672704,-8.329191,0.9427966,-4.949209,0.3446727,-2.848451,-0.3579125,-3.478579,-3.527291,-7.509482,-8.910768,-13.75737,-1.665151,-11.96498,-1.713531,-17.25441,-0.5044663,-9.918844,-13.16563,-7.856994,-12.77133,-10.18961,0.05747252,-9.699435,0.01289435,-7.301905,-2.078912,-8.891516,-7.449056,-12.50309,-14.06616,-3.21188,-14.2594,-2.353463,-11.7094,-7.797041,-5.15134,-14.25593,-9.233458,-13.65514,0.1084317,-13.23227,-2.545876,-12.07685,-6.201963,-12.33416,-10.33013,-16.71326,-16.45537,-21.43418,-10.02055,-20.07273,-9.258037,-26.2843,-6.489662,-32.91497,-12.25817,-29.83546,-17.65632,-15.72835,-19.79134,-13.70024,-18.54181,-15.53998,-20.12967,-18.64994,-23.59869,-25.13009,-30.12032,-17.51542,-28.74546,-17.14623,-22.45644,-26.18026,-16.11257,-34.67833,-18.76919,-30.94676,-13.4729,-24.83716,-14.82642,-20.85839,-16.20906,-19.89409,-18.30612,-21.68961,-21.90902,-25.56026,-12.01068,-22.75909,-9.101239,-25.3306,-4.530056,-29.74671,-8.118479,-24.4247,-12.55247,-17.24974,-4.73847,-14.16972,-4.565648,-11.06228,-6.164447,-11.42139,-10.96636,-14.46777,-16.31918,-4.948176,-14.42502,-4.621401,-7.793435,-4.165574,-8.87605,-11.59483,-10.90979,-13.52195,-13.34839,-3.016832,-14.61379,-5.756986,-13.3394,-8.761108,-15.95641,-13.59269,-21.99749,-21.10188,-15.2325,-21.86872,-15.42256,-18.96935,-24.9925,-15.20928,-19.83762,-25.24277,-20.14157,-25.2091,-9.920332,-23.22304,-10.57601,-18.80062,-13.30301,-18.08399,-16.54112,-19.85051,-21.9157,-20.44613,-14.65333,-18.14147,-11.38558,-11.51092,-17.52381,-19.95011,-17.00869,-21.63699,-20.0982,-8.972895,-20.72259,-9.551274,-17.83714,-12.75332,-18.7347,-16.52756,-22.20192,-22.28787,-12.63699,-20.44266,-10.96705,-13.11724,-18.64615,-5.920018,-26.30427,-6.608532,-22.57368,-6.738432,-9.967913,-7.181235,-6.09552,-4.416386,-4.47332,-4.796494,-6.526159,-6.943913,-10.67386,-12.58559,-0.6360789,-10.81034,1.305347,-15.77092,3.737229,-19.28305,-2.339833,-16.37286,-6.343968,-2.220567,-8.350649,-2.154271,-6.565745,-3.677874,-7.378104,-8.561506,-11.06726,-14.87214,-3.27414,-14.20806,-2.441423,-7.892991,0.7695733,-11.09355,1.216228,-14.98244,-0.7982325,-11.78058,-2.664469,-7.648753,7.731595,-2.99784,7.982127,2.277425,7.538349,2.670461,5.945314,1.05816,6.287326,11.04465,9.838397,15.61979,17.79897,17.86645,5.094158,18.27014,6.575009,15.04043,7.66212,26.5592,9.807342,24.89164,13.85938,22.63729,14.33291,18.61339,12.03872,27.97598,15.93897,30.44167,24.12698,36.23878,21.42459,28.58154,24.22731,26.55523,23.93544,39.3946,25.99583,39.46516,31.18971,38.60817,31.30657,36.33981,30.04695,31.82,25.50646,40.77972,28.04296,41.81607,23.50203,45.44145,16.55614,41.2499,20.38029,36.20761,34.54261,33.7408,35.38363,34.59305,33.64802,32.01559,28.55305,27.24736,22.83822,36.20227,24.02282,36.77038,19.4793,39.42223,25.56827,30.1623,29.04887,43.02059,29.73655,42.71778,33.88561,40.65043,33.80665,37.83375,31.70736,32.14001,26.68747,24.50741,35.32261,24.69283,35.44793,17.41942,36.82746,24.93564,23.5329,26.56485,35.58557,25.1612,34.19266,26.58156,31.17223,24.79215,26.3202,20.72623,20.35084,14.74984,11.513,5.727088,15.96997,-8.028638,12.73916,-5.032036,10.52081,1.538909,12.45811,9.188347,13.53331,12.53372,14.04161,13.1896,13.00051,11.05389,9.646353,7.30295,4.971026,0.4060936,-1.188796,-7.400121,-12.63948,-7.855575,-13.65975,-8.149481,-10.00647,-3.179036,-17.30567,8.191863,-12.84442,5.36896,-8.300804,3.347498,-8.249817,-0.3018157,-9.787005,-5.823409,-13.53055,-12.96748,-20.02501,-6.701596,-21.61957,-17.01831,-16.3153,-13.92771,-26.95763,-14.45226,-13.44541,-17.46097,-13.40126,-15.55902,-15.57243,-16.91428,-19.22842,-21.27663,-25.46416,-26.6897,-32.74827,-19.74435,-32.40074,-21.22929,-38.76818,-20.13302,-33.03332,-33.40416,-31.7439,-34.49215,-21.50934,-33.28335,-22.79258,-29.63869,-24.57423,-29.4548,-28.13094,-31.61397,-32.60995,-21.09666,-29.21774,-17.53181,-20.77203,-8.904583,-29.89988,-16.66076,-27.29901,-21.29016,-26.35752,-22.94034,-13.52981,-21.78211,-12.33151,-19.47947,-13.24192,-18.91226,-16.87248,-21.10203,-6.238415,-17.43527,-3.126259,-8.441689,3.734874,-27.0878,2.086903,-23.5926,-5.075331,-21.32382,2.428723,-18.7055,-0.3744689,-14.38556,-5.379554,-14.68824,-11.13468,-18.2743,-2.904467,-15.72577,-2.411383,-9.047703,1.952075,-0.6567464,-19.07896,-1.514352,-18.77824,-8.326493,-18.42299,-9.563704,-8.879552,-11.42888,-8.164286,-12.26625,-10.11668,-15.62814,-16.17136,-9.437702,-12.89455,-8.313607,-8.576824,-4.272764,-2.108486,-10.1521,-9.82027,-9.042632,-11.50179,-10.03611,-12.4782,2.900396,-12.02486,2.194946,-8.520709,-0.234835,-9.013175,-5.466629,-11.28506,-9.349278,-2.627769,-7.959494,-0.3758573,-1.419503,2.704821,-17.93852,1.051908,-17.31851,-5.74251,-16.70524,2.669168,-15.78723,-0.3527839,-12.71854,-4.584713,-13.75965,-9.940673,-17.34843,-17.22578,-8.006355,-15.91329,-6.439962,-9.465366,-2.418087,-2.099324,-9.853142,-14.42803,-10.21642,-17.764,-14.8169,-19.0034,-17.34699,-11.0672,-15.39469,-11.21319,-13.87155,-12.92247,-14.58175,-18.19359,-14.68205,-9.337381,-11.72094,-4.706822,-4.726602,2.529869,-10.55758,4.015491,-21.16851,0.5762862,-20.03187,-5.513577,-18.12198,-6.085708,-8.021872,-7.136964,-6.31542,-6.1487,-7.877952,7.129071,-1.16088,12.47052,10.02423,21.16976,6.429662,23.84774,10.66825,21.43532,1.316567,18.08497,1.525171,12.2772,2.800983,12.54725,11.06904,9.928134,10.82474,8.073199,23.06104,12.61027,26.85792,21.54434,33.39579,28.23985,27.73455,31.18614,27.61781,29.72056,14.32862,25.23079,11.5705,19.02924,8.25387,14.79556,15.69116,10.63103,12.55913,23.03642,16.07918,26.04999,23.58758,31.38888,32.0426,23.21572,33.63978,22.73717,30.37163,21.35721,26.468,6.324171,18.86953,2.918301,9.432317,-0.9611115,10.00668,-0.4458116,7.519368,10.73353,10.52465,15.10479,17.24449,23.00938,11.22221,24.38718,13.5781,22.67445,14.81185,21.45264,3.16956,17.82091,3.530965,11.65062,2.858852,9.007569,12.63874,6.180329,11.11213,5.479127,22.60788,10.29049,25.87375,19.31672,31.53796,29.60168,27.53444,31.15352,28.17593,30.58036,28.10595,15.49301,25.16898,12.47728,18.95041,9.551386,18.69381,14.34461,13.77924,12.53434,8.983683,23.18285,10.97318,24.29576,18.53096,28.09314,22.36434,21.08538,22.80901,20.00435,19.51897,16.60315,15.51748,11.62791,10.86973,-2.67042,-0.9944057,-9.514082,-11.84069,-17.88604,-19.62445,0.9729733,-17.83317,3.113708,-7.219024,8.718512,-1.805315,2.856905,1.176801,1.662042,0.5519718,-0.43513,-1.358412,-3.959198,-4.103528,-8.519712,-8.286505,-13.93022,-27.07836,-20.99252,-34.21168,-16.53732,-32.03063,-4.067359,-22.45253,2.722795,-9.332988,-1.937594,-2.579047,0.0299946,-0.2737193,1.645498,0.3955599,1.227992,0.03937929,0.982056,-1.8772,-2.462033,-4.803958,-7.008515,-9.871536,-13.75309,-0.7248853,-11.82971,-2.686306,-14.31177,1.195104,-16.67203,-4.638484,-2.814202,-6.665979,-2.381446,-5.200757,-3.256083,-5.401101,-5.846691,-7.361327,-10.11114,-12.21433,-15.88755,-19.43112,-7.477855,-19.39996,-7.684955,-13.04918,-3.201648,-7.232133,-11.10659,-6.300435,-11.12051,-8.752928,-11.58717,-11.89662,-13.66279,-14.8733,-16.98398,-18.56349,-20.61018,-24.23911,-25.16735,-29.54519,-32.51495,-19.90247,-31.15632,-17.15171,-23.89547,-10.49128,-19.26103,-13.77656,-14.62983,-12.71463,-12.74001,-11.48373,-11.2695,-10.63517,-10.44096,-9.683908,-9.490681,-10.08562,-9.096213,-11.40115,-10.86286,-12.54775,-14.95095,-15.79801,-19.18591,-9.806305,-12.60402,-6.875009,-4.955724,0.9733364,5.001962,-3.480744,8.755742,0.4420003,8.835396,3.115255,8.685921,4.756691,8.096914,5.124198,7.363863,4.383535,5.393169,1.628422,1.940703,-0.6473888,-3.845871,-5.350037,5.659796,-3.436242,8.743454,5.230119,14.77286,0.1964525,15.77898,4.520227,13.95488,6.045691,12.59894,6.874233,12.29072,6.49357,10.02317,5.662554,7.516851,3.49752,4.538213,1.284634,0.1008022,-2.596566,-3.761538,-7.228179,-9.416947,-14.4043,-12.63625,-6.427444,-11.05904,-2.923055,-3.244125,-11.37022,-1.775093,-10.3924,-3.944966,-10.19186,-5.347959,-9.655511,-6.649026,-8.650309,-8.408594,-8.572918,-9.393313,-8.583596,-7.849011,-8.555733,-7.611382,-9.97539,-7.660997,-10.54327,-8.308513,-11.06496,-8.999154,-11.3157,-10.21046,-12.43299,-10.96203,-13.49519,-12.07934,-14.57817,-12.96034,-15.18567,-14.22743,-15.29868,-15.63584,-15.6326,-16.68685,-15.68585,-16.2328,-16.38448,-16.46132,-16.39944,-16.35718,-15.98988,-16.27563,-16.0008,-15.62125,-15.3004,-14.80001,-14.73231,-13.92601,-13.85185,-12.33441,-12.52734,-10.85637,-10.45699,-8.766223,-8.895348,-6.127596,-7.578251,-4.475941,-5.859793,-1.998054,-4.450307,0.6282849,-2.593973,2.4411,-0.4109561,4.444648,2.233586,5.886262,4.505445,7.898262,6.269676,9.705138,7.31591,11.65757,9.243603,12.40905,11.89203,13.12273,13.45369,15.12002,14.45308,17.10573,15.38057,18.05524,17.14148,18.59642,18.47178,18.8584,19.53823,19.56525,18.66868,20.40518,19.55151,19.96348,19.97116,19.90408,19.4229,19.63993,18.48223,18.94684,17.2301,18.52365,16.48249,17.775,16.25709,16.34481,15.66871,15.04167,14.36636,13.94996,13.51108,12.82885,12.03125,12.52299,11.05984,12.39455,11.7236,12.4505,12.45942,13.12676,14.54473,14.62287,14.42576,15.35,15.04268,15.74905,16.53918,16.21985,17.62953,17.54422,17.85545,19.15395,19.17163,19.94822,19.52432,21.35898,20.64782,21.70799,20.90364,21.23453,21.38655,21.54408,21.21852,21.61072,21.03696,21.00846,21.05181,20.15876,20.01817,19.31121,18.85922,18.69028,16.94457,17.62332,15.41228,16.03754,14.07846,14.75307,12.96485,12.89127,11.03729,11.47033,8.794997,9.831323,7.039991,7.672281,5.840188,6.063056,4.508489,4.034606,3.238951,2.763764,1.287979,1.18817,0.04006648,0.4627014,-1.501168,0.1412845,-3.273325,-0.840511,-4.026925,-2.103743,-4.264864,-2.893189,-4.634723,-3.369463,-4.479881,-4.52893,-4.390605,-4.945818,-4.881963,-3.715892,-5.148672,-2.69922,-3.616976,-2.612657,-2.655317,-1.039386,-0.7687848,-0.3747298,0.6604601,2.037632,2.033887,2.557979,3.664579,3.826877,4.086376,5.564083,3.707127,6.597947,4.581137,6.778737,5.834043,6.804329,5.487782,6.104794,5.958886,4.852561,5.913839,3.256352,4.685956,1.755226,3.609715,0.8569394,3.06916,-0.3650294,2.469663,-1.088087,0.9617277,-1.942181,-0.09145716,-2.189361,-1.3124,-2.638932,-3.102725,-3.455455,-2.470847,-4.567159,-2.582101,-5.245301,-3.49861,-4.584786,-3.738473,-4.738565,-4.512941,-4.556043,-4.947201,-4.964977,-4.750756,-5.137001,-4.570064,-5.171824,-4.499536,-4.119622,-4.448492,-4.252512,-3.310922,-4.453188,-1.807412,-4.458868,-2.230207,-3.049195,-3.46052,-1.690063,-3.426799,-1.422532,-3.302212,-1.071508,-2.567371,-1.58266,-2.606043,-1.26035,-2.601205,-0.9437324,-2.803948,-0.7154988,-2.274128,-1.741454,-1.711943,-2.092557,-2.020601,-3.662157,-1.984844,-3.67133,-2.166008,-4.895498,-2.792808,-4.915886,-4.548223,-4.715228,-5.572995,-6.037195,-5.556594,-7.315194,-5.931755,-8.493325,-7.723678,-8.995734,-8.332208,-10.0317,-7.87148,-10.85414,-8.191982,-10.59516,-8.679598,-11.417,-8.686123,-11.02256,-9.729636,-10.38686,-9.63063,-10.62396,-9.331617,-10.93749,-9.21714,-11.22182,-10.12413,-10.54793,-10.27739,-10.00762,-10.30588,-9.91781,-9.905564,-8.661969,-8.851939,-8.305627,-8.623961,-9.03511,-8.306456,-9.635187,-7.871326,-9.914234,-8.558712,-10.68697,-8.900215,-12.24673,-10.18448,-13.305,-12.48267,-14.21597,-13.36495,-15.39259,-15.37644,-16.36318,-17.09083,-16.74468,-18.45747,-18.0264,-18.86855,-19.11689,-18.82267,-19.52277,-19.18501,-20.9697,-20.3145,-20.49607,-20.28497,-19.37714,-19.32392,-17.35728,-16.62236,-14.60278,-13.00095,-11.0585,-9.442183,-7.445539,-4.707583,-3.568855,-0.0814579,-0.01299527,5.218683,4.529143,8.67287,10.29236,12.7313,14.98191,17.19359,19.33601,21.86459,22.77407,25.32178,26.24448,28.14262,30.61813,30.20259,33.68671,32.94669,35.73521,35.88543,36.45064,38.04191,36.58102,39.33434,37.38878,38.66663,37.41592,38.60319,35.52798,37.95211,34.64279,34.94838,32.37208,32.31579,29.87005,28.88675,26.3336,25.25805,23.13501,20.16021,18.97322,16.01668,13.11906,11.22376,8.091792,5.629388,2.594544,0.9259114,-3.288965,-3.555604,-7.805381,-9.567437,-12.51735,-14.83682,-17.43654,-19.16892,-21.66129,-23.41997,-24.98799,-26.68881,-27.97977,-28.96362,-29.60874,-30.69999,-29.36234,-32.20275,-30.82155,-32.45941,-31.58933,-31.57906,-31.60365,-30.76713,-32.09684,-30.74032,-31.76787,-30.62526,-31.23615,-30.6798,-30.34186,-30.86974,-28.71826,-29.90247,-28.50176,-29.42395,-27.13779,-28.68703,-26.60813,-28.01814,-26.68195,-27.6148,-26.87686,-27.75043,-27.83263,-28.52405,-28.9268,-28.55234,-27.83349,-28.96256,-27.01541,-28.75489,-25.97085,-27.84599,-25.72601,-26.71549,-25.18875,-25.95629,-23.99103,-25.65097,-24.1293,-24.06835,-23.7947,-22.83662,-23.98407,-22.40914,-23.88847,-21.67162,-23.67744,-21.8958,-24.57166,-21.49721,-25.36616,-21.34847,-24.25298,-22.08861,-23.19231,-22.63059,-21.28704,-21.99769,-22.00489,-21.22306,-21.92477,-20.24266,-22.48479,-20.44548,-22.17922,-20.4794,-20.91588,-20.75482,-21.26628,-20.03912,-21.59514,-19.85335,-20.76419,-19.883,-20.29725,-19.80627,-19.75737,-18.99851,-20.18105,-18.63663,-19.29191,-18.65955,-18.86585,-17.38915,-16.17749,-16.26654,-14.55572,-14.98267,-15.24333,-13.92765,-16.63148,-14.22347,-16.24992,-15.80482,-16.14236,-17.34902,-17.28419,-18.23719,-18.48087,-19.72962,-19.13271,-20.49945,-20.12058,-20.38236,-20.66169,-21.08062,-20.93871,-21.69665,-21.87642,-21.4315,-21.95997,-20.96739,-21.72523,-20.10849,-21.45579,-18.93724,-19.62769,-17.3924,-17.65269,-15.04821,-15.01433,-12.30049,-12.41925,-9.695569,-8.621002,-7.057211,-5.251447,-2.849772,-1.803429,1.098799,2.62408,4.439864,7.844055,8.224846,12.1374,12.8856,16.64802,17.61515,21.05398,21.94003,25.305,27.24505,29.6954,32.3397,33.56223,35.94428,38.44884,38.6304,43.21049,41.94856,45.68794,45.59102,48.00535,48.66804,49.82795,51.11785,51.49006,53.36507,52.25047,56.03855,53.06374,57.80034,54.25176,57.45994,56.25367,56.95424,56.15829,56.66408,55.5624,55.76454,54.70723,53.68493,53.70384,51.51775,53.34179,49.32961,51.90222,47.49533,50.13287,45.83893,47.45704,45.08322,44.95012,43.9884,43.25446,42.97138,41.96686,42.69043,41.19364,42.99578,41.63933,43.08894,43.37006,45.58454,42.48554,43.77734,42.04311,42.98708,42.40936,43.37829,42.69675,44.56087,44.14069,44.96564,45.88584,45.35494,47.28981,47.14216,47.96317,48.4662,48.71795,48.91029,49.94952,49.48718,49.86768,49.21275,50.51908,48.78408,50.20135,48.86372,49.74483,48.09704,48.8401,47.178,46.54725,46.39392,44.35566,44.01257,42.78228,41.20279,39.60181,37.86187,35.8062,34.96675,32.60984,30.37933,28.42406,27.30003,23.69686,23.23648,19.86233,18.24324,16.53947,13.56272,12.16862,8.677125,7.63463,4.558708,2.179686,0.342216,-1.953437,-4.142583,-6.62572,-7.907821,-11.39225,-12.68102,-14.55726,-17.41114,-17.91081,-21.07194,-21.57046,-23.71064,-24.85882,-26.1896,-27.73937,-28.80576,-29.89872,-31.57968,-31.69102,-32.49055,-33.31546,-33.8358,-34.10285,-34.13491,-34.4945,-35.07405,-35.2832,-34.564,-35.23793,-33.83626,-34.51538,-33.28358,-32.70278,-32.26457,-31.07035,-31.8917,-29.14246,-30.3252,-27.61214,-29.49152,-25.87314,-27.49739,-25.54795,-25.04383,-24.50021,-23.46188,-23.67682,-23.06656,-21.63215,-23.10987,-21.24062,-23.49438,-22.1704,-23.48415,-24.63096,-23.91538,-24.6112,-24.25669,-24.5373,-24.62718,-24.64795,-25.19699,-24.74852,-24.91185,-24.21201,-24.96223,-23.70607,-25.23958,-23.75246,-24.24418,-23.97209,-23.53904,-23.67674,-22.92084,-22.97542,-23.21459,-21.85505,-22.80077,-20.72775,-21.78761,-19.56563,-21.65021,-18.77613,-20.46305,-18.49235,-18.37124,-18.95999,-17.03091,-17.45915,-17.11842,-16.43779,-16.76868,-15.45605,-16.13744,-15.21614,-15.90063,-14.39245,-14.75913,-14.54607,-13.20042,-13.89896,-12.76524,-13.29529,-12.75036,-12.56047,-12.17179,-12.15269,-12.42134,-11.24817,-12.01563,-10.58564,-12.70043,-10.18294,-12.61029,-9.895317,-12.74644,-10.11123,-13.2971,-9.93905,-12.53355,-10.94017,-12.20356,-12.36098,-11.62668,-12.86729,-12.34768,-13.18966,-12.79985,-13.19404,-13.01591,-13.62814,-13.22759,-13.87092,-13.59394,-14.23127,-13.29826,-14.50296,-12.64819,-14.05499,-11.6536,-14.00119,-11.47272,-13.7026,-11.53251,-13.43435,-10.73938,-12.49107,-10.32478,-12.66574,-9.431261,-11.99279,-10.09937,-11.7632,-10.20421,-11.3587,-9.867148,-11.18915,-10.57202,-9.442471,-11.14735,-8.772795,-11.05358,-9.151857,-9.025711,-9.208873,-7.716104,-7.868902,-8.420101,-7.658109,-8.877571,-8.723301,-10.19333,-9.724502,-11.4341,-11.31288,-14.02246,-14.26548,-16.11362,-16.28076,-18.72831,-19.24605,-20.53312,-21.81469,-22.13599,-24.21785,-24.16395,-24.72492,-25.07581,-25.08183,-26.05364,-25.80986,-24.72582,-26.1349,-24.44333,-24.40065,-23.21579,-23.85441,-22.12271,-23.11497,-20.34059,-19.3751,-18.34059,-17.15305,-16.16154,-14.34803,-13.58109,-10.38531,-10.32378,-7.418223,-5.275022,-3.678306,-0.3170028,0.4362392,2.666038,5.853703,6.694956,12.26361,10.81394,17.3478,14.85805,22.04025,20.46773,27.0074,25.98949,30.61819,29.26811,34.67271,33.8616,37.01848,37.51271,39.78008,40.06647,41.56783,39.75042,40.31089,43.59873,42.75873,42.8507,40.46495,42.60922,44.70519,42.80958,48.8798,44.89277,45.23465,48.54933,48.45997,54.76155,50.8344,55.31033,50.25613,58.61172,49.29158,60.73486,53.08189,61.89645,54.37609,61.10987,53.10933,56.09531,50.95406,48.50557,51.89252,50.70531,45.87971,44.99615,47.37614,43.65067,45.59414,40.4489,46.1331,41.14812,43.89663,40.50629,40.70629,39.13603,35.99675,34.1972,31.25525,26.95601,24.81892,19.81422,17.7954,12.55609,10.39518,4.397071,4.707667,-0.7063283,-3.027085,-6.325262,-8.513781,-10.67902,-13.43064,-15.45518,-18.30257,-19.0143,-20.96847,-22.07493,-24.18573,-25.58818,-25.42609,-26.87869,-28.22473,-27.47653,-29.37055,-28.66212,-29.83131,-28.84403,-28.99698,-27.55784,-28.03385,-27.37492,-26.34929,-26.01223,-24.27625,-23.50763,-20.22875,-21.00821,-17.32931,-16.65161,-14.10841,-12.85023,-10.2092,-8.808898,-5.04235,-3.628655,0.5697438,-0.6835291,6.094137,4.154433,11.50622,9.351092,15.63809,13.42106,16.71637,17.33786,19.1226,19.29045,19.23642,19.54003,17.68092,18.42536,15.85674,15.30598,15.65788,15.52675,10.95738,11.4375,9.099735,11.9216,8.904132,7.137111,9.332604,1.298081,7.03059,6.224007,6.437349,5.813366,1.503743,3.853502,1.361892,5.604072,-0.7224804,8.232643,-2.227609,4.802705,-3.471349,1.289316,-6.329171,-1.632911,-4.778246,-2.503277,0.7053377,-4.040206,-4.976765,-0.639977,1.025243,-1.913856,1.800487,0.1098976,5.278,0.1153349,5.072665,1.385191,3.710263,1.361245,1.189365,0.6194675,-0.4207649,-1.939753,-1.496907,-3.171713,-1.850293,-4.364797,-3.212751,-4.943081,-3.542485,-5.988909,-4.644487,-6.452253,-5.809249,-7.156122,-6.640133,-7.603287,-7.238095,-8.688187,-8.122745,-8.703548,-9.529725,-9.124966,-10.43984,-10.08309,-10.04856,-10.78536,-11.50472,-11.20993,-12.78426,-12.08105,-12.94426,-13.44673,-13.92198,-14.09582,-14.35406,-15.5155,-15.02575,-16.02568,-16.15389,-16.69541,-16.28596,-17.72431,-17.42049,-18.44585,-17.32406,-19.50533,-18.12718,-19.46458,-18.886,-19.17337,-18.86398,-19.55768,-18.47028,-19.70469,-17.97892,-19.37877,-18.44862,-18.78224,-18.84388,-18.74753,-19.04839,-18.94448,-18.84294,-18.70352,-19.389,-19.08494,-18.62924,-20.08579,-19.74023,-19.5418,-20.55767,-19.90631,-21.67582,-19.78768,-21.71844,-19.59263,-20.62775,-19.97471,-20.37893,-20.03471,-19.83321,-19.91821,-19.54202,-19.65532,-19.41522,-19.26999,-19.69612,-19.06599,-19.47458,-18.78386,-19.58482,-18.75404,-19.39287,-19.07183,-20.13732,-18.31134,-20.60947,-18.12758,-19.92792,-18.31804,-19.87813,-18.62241,-19.25601,-19.39571,-19.19322,-19.91947,-19.56709,-20.31316,-20.03509,-19.30031,-20.44425,-19.19691,-20.28346,-19.52143,-19.76795,-18.5451,-17.56536,-18.37009,-17.9201,-17.75858,-18.15599,-17.81897,-19.15949,-18.38595,-18.96831,-19.37131,-19.15424,-21.05368,-19.86869,-21.35724,-21.7409,-21.93562,-23.15015,-23.21922,-23.16958,-25.10881,-24.119,-25.19095,-25.27999,-25.76968,-25.08882,-26.62893,-25.08368,-26.53214,-25.06224,-26.34341,-23.47002,-25.4677,-22.79876,-23.8441,-21.90531,-22.29102,-20.09717,-20.54064,-18.12504,-18.1827,-15.71255,-14.89756,-13.06059,-11.30195,-9.313792,-7.469643,-5.287045,-3.541928,-1.793284,0.7172043,1.224567,4.003777,5.106597,7.213355,9.214691,10.46488,12.37592,13.62782,15.29114,17.42365,19.1056,20.13572,23.03312,23.84067,26.23784,28.14721,28.42668,31.7923,31.32893,34.42801,34.11051,37.60499,36.63781,39.69285,39.41864,41.63914,41.70838,43.06042,43.12213,44.13089,44.65087,45.1787,45.18644,46.02069,44.92905,47.1132,45.00625,47.82911,45.11257,47.35249,44.5669,46.39057,43.82855,45.41436,42.83014,45.0509,42.52023,43.33336,42.01884,42.37249,40.85224,41.79355,41.28989,41.19712,41.45026,42.09225,41.79963,42.46779,43.27944,43.78011,43.59919,43.33837,42.1671,41.80821,40.77859,42.01821,40.51252,42.41141,40.59634,42.97707,41.44729,43.22891,43.09056,44.02944,43.53991,45.29789,44.8791,46.20955,46.47062,45.93491,48.03181,46.42065,47.43176,47.70893,47.86532,47.31978,48.2093,46.23491,48.19148,45.6098,47.59793,44.64279,46.26278,44.01015,44.83231,42.97068,43.30466,41.54768,41.76877,39.38381,40.17421,38.06953,37.53839,35.94256,34.55797,32.85202,30.89796,29.70737,26.49051,25.69547,21.93651,21.57496,18.12035,15.71931,13.74615,10.63436,9.662249,6.411542,5.03305,2.842393,1.050466,-1.35853,-2.887239,-5.522604,-6.84339,-9.28938,-12.04815,-11.48214,-15.99825,-15.1338,-18.45272,-18.46284,-21.215,-21.72109,-23.77993,-23.87995,-27.06983,-25.46041,-29.30208,-26.87648,-30.13648,-28.57782,-30.6689,-29.51406,-30.91714,-30.29598,-30.57616,-30.33384,-31.13878,-30.34356,-30.2478,-29.47947,-29.31891,-28.28285,-28.31045,-27.44677,-27.44561,-25.96123,-26.36104,-25.06118,-25.63208,-23.53969,-24.31627,-23.41198,-22.70749,-23.69686,-21.94179,-22.83211,-21.55495,-23.49353,-22.82458,-24.94436,-26.4116,-25.16365,-26.02962,-25.79276,-26.5683,-25.40125,-26.36425,-25.12906,-25.46562,-24.59509,-24.23668,-24.24204,-23.23907,-23.49909,-22.01814,-23.19384,-21.78421,-21.84841,-20.22098,-21.58516,-19.48555,-20.31929,-19.93292,-20.07853,-19.27752,-20.48281,-18.70413,-21.67258,-19.08358,-21.77321,-19.66269,-22.39259,-22.29314,-23.25689,-23.74162,-24.72213,-25.60134,-26.50131,-27.0697,-28.19136,-29.15675,-29.74534,-30.37973,-32.29904,-33.44711,-33.43465,-36.01009,-35.8485,-38.579,-38.62589,-40.77435,-41.43518,-42.11383,-43.42817,-43.54123,-45.65505,-44.68888,-47.01499,-45.65413,-48.67226,-45.9491,-47.97719,-45.79987,-46.71025,-45.89746,-44.71979,-45.00997,-43.70632,-44.53734,-43.0665,-42.70529,-41.6112,-40.69262,-40.02422,-39.01977,-37.12683,-36.6155,-34.02661,-34.18596,-31.29328,-30.34747,-28.34315,-26.40128,-24.66615,-22.14246,-21.21885,-17.54229,-17.39934,-13.68866,-13.12694,-10.21607,-8.579225,-6.455331,-5.160617,-2.213447,-1.953452,-0.7123323,0.9379329,1.279586,3.484886,3.669703,5.831086,6.082002,7.653538,8.631797,9.486637,9.6033,10.69672,10.06854,10.88781,10.46981,11.54895,10.37145,10.15935,9.085961,11.67278,8.886146,11.67187,7.448624,8.282717,6.454112,4.568445,3.673442,0.3570648,-0.04065334,-4.07514,-4.254815,-8.041857,-9.303106,-13.32491,-13.25695,-17.83103,-17.75752,-21.98783,-22.5815,-25.9493,-26.38883,-29.46017,-30.41152,-32.94967,-33.21174,-35.94427,-35.65111,-37.00172,-37.18694,-37.39115,-37.31389,-36.5849,-36.77154,-35.7435,-34.74838,-32.92471,-31.91935,-30.72738,-29.04842,-26.79866,-24.91136,-23.09748,-20.78012,-18.67618,-15.61925,-14.02343,-10.20977,-8.421341,-4.955504,-1.887705,1.587025,4.852925,8.253423,10.88249,16.31214,18.44487,22.61095,25.5233,28.02186,32.54615,34.26461,38.41751,39.49328,43.787,45.31296,48.51477,50.64003,53.00111,55.35714,56.98273,60.28769,60.74613,63.42595,63.78708,66.65635,66.58833,69.24644,68.16914,69.81469,69.41815,70.43534,69.8697,70.60896,69.90766,69.39987,69.35443,68.21834,67.18529,66.5126,63.82573,63.90204,63.08334,61.61272,60.04828,58.63017,57.28491,57.02567,56.49649,55.78463,56.08645,56.194,56.52782,56.40571,57.41442,57.5639,58.76818,59.70502,60.75718,61.35553,64.83539,62.5822,65.88057,63.70349,65.89536,64.89941,66.28034,65.49483,66.35985,65.49016,65.02985,65.00492,64.72912,64.06291,63.40834,62.87801,60.98746,61.09592,59.16521,57.73079,55.88477,53.84221,52.45344,49.58824,49.1071,45.47192,44.86248,41.73973,41.09737,37.19662,36.77306,31.90836,32.04315,27.83955,27.10154,24.1735,22.56912,20.21313,18.75126,15.65809,14.68992,12.16512,10.05574,8.695922,5.748143,4.296352,1.487063,0.9286312,-2.142575,-3.76929,-6.067182,-8.027781,-9.455488,-12.29577,-13.39855,-15.82919,-17.13933,-18.66851,-19.32666,-22.04766,-22.56318,-24.4075,-24.1934,-27.18483,-25.66947,-29.01197,-27.08763,-29.23716,-28.73858,-30.26054,-29.85628,-30.78965,-30.85828,-30.83826,-31.23388,-30.90432,-31.68353,-30.92228,-31.36532,-30.27782,-31.33953,-29.8411,-30.60639,-29.27734,-30.0859,-29.84318,-29.36628,-29.41661,-29.49406,-29.35901,-31.20882,-29.52393,-31.35527,-31.48188,-33.22856,-32.68046,-33.65515,-32.05728,-33.40856,-32.42007,-32.52964,-33.01842,-32.32934,-32.31494,-31.54421,-33.22108,-32.05186,-32.43356,-31.85608,-32.25411,-31.44248,-32.5475,-30.23594,-32.25088,-30.27212,-31.58921,-30.1428,-31.38086,-29.74299,-31.43497,-29.98243,-31.22495,-29.92558,-30.82465,-29.8427,-31.40217,-30.48822,-31.33073,-31.03601,-32.12191,-31.92623,-32.36833,-32.26785,-32.91924,-32.21342,-33.98969,-32.14573,-34.89333,-32.14803,-36.2097,-33.00924,-37.92303,-32.41544,-37.14021,-32.62059,-37.00702,-33.08318,-35.62695,-32.94577,-34.95874,-33.33415,-34.55165,-33.57549,-33.33813,-34.09094,-32.89673,-34.61802,-32.69368,-34.15813,-32.59215,-33.44007,-33.73263,-33.44124,-33.39323,-32.3695,-32.94916,-32.54017,-31.8591,-31.08857,-31.27597,-30.81474,-30.02532,-29.77382,-29.15359,-28.67284,-28.50518,-28.70814,-28.12516,-27.17584,-27.85802,-26.51525,-26.85576,-26.80363,-25.82546,-25.96819,-25.88473,-25.97974,-25.37952,-25.49396,-24.7162,-25.15508,-25.07096,-24.99392,-25.2169,-24.36959,-25.52185,-24.10884,-25.46499,-23.87425,-24.42428,-24.1204,-21.79026,-23.2003,-21.35146,-21.83423,-20.18279,-22.15852,-20.41531,-21.6805,-21.1602,-21.06955,-22.48789,-21.28143,-22.82796,-21.94218,-23.66971,-22.81822,-24.00706,-23.23817,-24.09223,-23.64074,-23.95635,-23.73253,-23.9747,-22.80086,-24.42343,-22.88496,-24.06107,-23.11005,-22.49756,-22.33562,-21.6131,-21.27924,-20.24442,-19.5681,-18.82113,-17.89357,-17.31328,-15.49015,-14.4293,-13.29525,-11.75071,-10.69642,-8.391517,-6.407084,-5.00436,-2.75585,-1.670152,1.459824,1.73271,6.477053,5.027658,10.69375,10.09084,14.83107,14.84215,18.81612,19.16945,22.53607,24.38587,26.89638,28.5717,30.62733,32.68497,35.0813,37.0967,38.45243,40.79418,41.66103,44.03743,45.23716,45.82638,48.37425,49.31682,51.593,51.60935,53.23201,54.19063,54.60699,55.92113,56.52863,57.07699,57.56578,57.3147,58.3704,58.66524,58.21086,58.73794,57.81241,58.19627,57.86531,57.38433,55.41588,56.07317,54.76437,54.33938,53.69034,52.08665,51.74512,50.96396,50.1534,49.14821,47.72953,47.73169,46.69581,46.9161,46.29346,45.69889,46.05321,46.08793,46.63053,47.93026,44.52185,47.23091,44.06548,45.89096,41.80315,44.77018,41.36725,44.46289,42.88243,44.04366,43.28727,44.36154,44.67755,45.4202,46.18602,46.88552,47.55483,48.53843,50.25261,49.72566,51.46757,51.00468,52.51924,51.72329,53.7781,51.53702,53.95993,52.29164,54.51803,52.10794,54.03248,51.34514,53.04047,50.90501,52.07438,49.20057,49.88876,48.29599,47.55607,47.14594,45.00511,44.77563,41.99426,42.31481,39.20165,38.54669,35.71649,34.63145,32.82868,30.12539,29.06116,26.36723,24.11955,22.56142,19.58931,18.30283,14.93927,13.66938,10.25983,9.179956,6.097847,4.170585,2.604853,0.1447904,-1.26922,-3.665019,-5.732235,-7.510684,-8.695687,-10.80278,-11.72132,-14.308,-15.47623,-17.14814,-18.42123,-19.67798,-22.09177,-21.93977,-24.46954,-24.16739,-26.71482,-26.45375,-27.86932,-27.8431,-29.50371,-29.7624,-30.45947,-30.73122,-31.77447,-30.95609,-32.38663,-32.43453,-32.30166,-32.57518,-32.00291,-33.11287,-31.95131,-32.92278,-31.11179,-32.9557,-31.29881,-32.51722,-32.05183,-31.54037,-32.1997,-32.03371,-32.5298,-32.88982,-32.56451,-33.68974,-34.68193,-34.29407,-36.91555,-35.30486,-37.10411,-35.10804,-38.31633,-35.95239,-38.49405,-36.09078,-38.47058,-36.82572,-38.19439,-36.74814,-36.89272,-37.08395,-36.52739,-36.00897,-36.00619,-35.16421,-35.0858,-35.34543,-34.41152,-34.92008,-33.9282,-34.06145,-33.33683,-33.92819,-32.09408,-32.87298,-30.58532,-33.18939,-29.96188,-31.42061,-28.92413,-29.87942,-27.82473,-28.34802,-26.96171,-25.93911,-26.1156,-25.26517,-25.35524,-23.42423,-24.58286,-22.56741,-23.44769,-22.69954,-22.90008,-22.30362,-22.52454,-22.05011,-23.2354,-21.53718,-22.56893,-21.49006,-23.30303,-21.85095,-22.93543,-20.89154,-22.70546,-21.18621,-21.9733,-21.31311,-21.39846,-20.84378,-21.2552,-21.1982,-20.04132,-20.72443,-19.61552,-21.00609,-19.88509,-21.72382,-19.54999,-21.58537,-20.25095,-21.63544,-21.10832,-21.4781,-21.4258,-21.74373,-22.40987,-21.88975,-22.34954,-21.98925,-21.959,-23.59871,-21.11387,-23.36187,-21.36409,-23.79999,-21.40391,-23.43053,-21.41471,-22.65,-21.09544,-23.03477,-20.68458,-22.91153,-19.61726,-22.80099,-19.3985,-21.63261,-19.32041,-20.023,-18.04873,-17.98054,-15.79353,-15.86327,-14.29744,-14.0432,-14.49282,-13.65785,-14.53401,-13.35681,-15.66343,-13.54093,-16.20406,-14.04892,-15.90109,-15.1254,-16.04207,-15.71866,-16.25865,-15.71582,-16.3588,-16.25989,-17.3222,-16.31762,-17.36145,-16.67889,-17.74153,-17.54329,-18.12759,-16.21272,-18.54039,-16.38094,-17.69198,-15.63899,-16.83297,-15.72236,-14.7862,-14.81542,-13.84518,-12.78075,-12.34713,-11.34008,-10.16764,-10.11139,-7.833612,-7.935186,-4.790813,-6.233366,-1.543484,-2.548231,0.9405629,0.2113678,3.854283,2.863157,6.929228,5.75144,8.365122,9.209652,10.55907,12.01652,13.09538,14.7751,15.86887,17.86179,19.00969,21.19256,22.35556,23.61311,26.03088,27.4302,29.99131,30.03404,33.43918,32.67434,36.45645,35.84899,38.79806,38.15963,41.87233,40.82171,43.91101,42.8095,45.04825,45.02632,46.37615,46.46266,47.5758,47.48225,48.12752,48.56651,48.9539,48.12002,49.27723,46.92774,49.04256,46.62237,48.47522,45.50038,47.94928,45.08245,47.79558,44.37595,47.23918,43.95248,46.85381,44.38317,46.66691,44.96179,46.56853,47.23538,47.17171,48.78212,45.96469,46.71718,44.28366,45.48051,42.62003,44.32488,41.79776,44.03755,42.2812,43.90253,41.93176,44.18176,42.87254,44.50173,44.22046,44.31328,44.41867,45.03243,45.64612,45.44718,45.76744,45.54083,45.86934,45.56294,45.98804,45.12236,45.96831,44.9342,45.39704,44.29233,45.13675,43.07974,43.29791,42.61589,41.84606,39.82121,40.46179,38.19356,38.74667,35.81925,36.34431,32.30961,34.64111,30.67834,32.24371,27.32808,29.76877,23.99776,25.50057,21.68492,20.50843,16.81261,16.61771,11.83489,12.90324,7.628796,7.351224,3.925279,2.741459,-0.1858324,-2.199197,-4.367504,-7.097592,-7.389706,-10.52036,-11.62876,-14.04479,-14.77084,-16.99459,-17.64806,-19.86801,-20.72687,-22.19555,-22.6036,-23.95988,-25.42663,-25.37918,-26.81344,-26.84585,-27.47376,-28.18836,-29.03644,-28.69292,-29.23479,-28.28363,-29.68776,-28.65428,-28.61476,-28.16642,-27.91143,-27.43809,-27.83039,-26.55367,-26.10596,-24.90322,-25.22161,-23.1712,-24.00439,-21.28145,-23.49488,-20.21449,-22.50626,-20.1149,-21.19237,-19.17016,-20.53929,-19.65407,-21.02343,-20.87741,-21.11116,-22.45549,-21.97145,-23.27352,-21.37499,-22.8311,-21.04602,-22.94029,-21.31922,-21.94788,-22.45202,-20.83744,-22.80966,-21.17516,-22.55499,-20.75566,-22.57267,-21.046,-23.02091,-20.13244,-22.94206,-20.35945,-22.71807,-20.66019,-22.08184,-20.09138,-21.32871,-20.48165,-21.3639,-19.56948,-20.8678,-18.69838,-22.07532,-19.24632,-21.3015,-19.31059,-20.79477,-19.30794,-21.29844,-19.21092,-21.27927,-19.14131,-21.77829,-18.93113,-21.74181,-18.97059,-21.72606,-19.14225,-22.33173,-19.70884,-21.88475,-21.23253,-22.0109,-22.01043,-22.70016,-21.64689,-24.04841,-22.19297,-25.2199,-23.80747,-25.48466,-24.56338,-25.72542,-26.18851,-25.61863,-26.58127,-25.6283,-27.23695,-25.94526,-27.19798,-26.38141,-27.44173,-26.89405,-28.31703,-26.62655,-28.22218,-27.06682,-27.9988,-27.99108,-28.34574,-28.03523,-28.15167,-28.74787,-26.99546,-29.98871,-26.32666,-29.50485,-26.24453,-28.87056,-27.03885,-27.69088,-26.88931,-27.06574,-26.80982,-26.12825,-26.76008,-25.27624,-26.59182,-25.53827,-26.08771,-25.49191,-24.76012,-25.03375,-24.23923,-24.47758,-22.49213,-22.88787,-20.55122,-22.12268,-19.36663,-20.55251,-18.64176,-20.55927,-19.04403,-19.54019,-20.26579,-18.65077,-21.47119,-19.13265,-22.57214,-19.67348,-21.50038,-20.54006,-23.24135,-20.50442,-23.07995,-20.38354,-23.69919,-20.99587,-23.48168,-21.23901,-22.77601,-21.33623,-22.05622,-21.49106,-20.61146,-20.51372,-19.64233,-19.57852,-18.49593,-18.51106,-16.0369,-17.20244,-13.53876,-14.71751,-11.1714,-11.72466,-8.430092,-8.941006,-5.994432,-5.722385,-2.452375,-2.048889,0.9565555,1.64733,4.58496,5.565481,8.440106,9.079848,12.01138,13.21095,16.56148,17.90028,19.70973,21.39702,23.47065,24.81838,27.74008,27.60916,30.90945,31.27798,34.35278,34.38059,37.60526,37.29653,40.94187,40.3109,43.12728,43.045,44.70272,45.33559,46.80805,47.42612,47.69189,48.93911,48.49007,50.64637,49.12238,50.81237,48.87509,50.78785,49.56038,49.98005,49.92513,48.41362,48.96116,48.29479,47.48133,47.95297,45.91435,47.1068,44.58695,46.22982,43.11114,44.74771,42.27936,44.08758,41.10242,42.70014,39.77701,41.07253,41.02273,42.25178,42.4542,42.71675,45.43325,44.46432,48.23742,45.6979,49.49827,46.88854,51.47716,49.48597,52.64833,50.74705,53.44306,53.72434,54.32037,55.86154,54.8452,57.58719,55.70445,59.14134,56.05026,59.94485,56.05059,59.25387,55.5566,58.69911,54.34094,58.22186,53.27795,56.91376,53.05121,54.02484,52.07181,51.48087,50.75554,48.59118,47.94121,45.77517,45.14226,42.79011,41.51937,39.14354,36.83963,35.70914,32.1676,31.46644,26.88809,26.04621,22.58423,22.20373,18.29123,17.61914,14.21984,13.72774,10.77472,10.38997,6.763774,6.118163,3.260639,2.309199,-0.4366687,-1.644991,-4.157082,-5.111751,-7.631367,-8.610959,-11.6669,-11.7551,-15.2568,-14.34047,-17.66285,-18.04168,-20.20547,-20.94216,-22.34057,-22.50583,-24.53263,-24.26837,-26.27805,-25.17404,-27.26474,-26.25089,-28.43325,-26.84549,-29.6106,-27.49165,-29.90033,-28.93138,-29.97504,-29.5608,-29.21397,-30.33428,-30.35604,-29.74409,-30.68561,-29.22068,-31.88665,-30.75262,-32.38112,-31.69062,-33.17847,-33.76612,-34.69134,-36.29491,-36.26846,-37.38743,-37.8694,-38.19001,-37.90258,-39.33662,-37.85151,-40.53077,-37.85619,-40.55717,-37.18393,-41.24391,-36.71455,-41.13682,-36.35506,-39.7829,-36.49237,-38.83556,-35.59783,-38.07049,-34.23418,-36.60477,-33.35965,-35.56642,-32.10778,-33.81291,-31.48593,-32.41693,-31.36572,-30.51804,-30.06161,-28.94771,-28.53835,-27.34418,-27.98502,-24.77785,-26.32168,-23.93815,-24.97784,-23.75605,-22.48112,-23.01814,-22.11972,-22.57632,-22.69583,-20.85851,-22.22407,-19.80684,-22.56665,-19.14815,-22.22452,-18.32511,-21.5075,-18.02148,-20.81051,-17.18534,-19.10189,-17.01567,-17.39309,-18.28332,-16.45063,-18.37077,-16.54411,-18.42165,-16.82604,-17.97432,-16.5929,-18.2038,-16.95743,-19.30481,-17.70202,-18.87075,-19.40259,-18.46456,-21.20365,-18.74688,-21.53504,-19.36866,-22.53703,-20.13848,-22.9871,-20.51866,-23.46023,-21.90969,-24.1085,-22.58459,-24.45104,-23.32452,-25.05042,-24.79142,-26.15985,-24.28695,-26.14282,-25.368,-25.33853,-25.5958,-24.19019,-24.86936,-24.50382,-24.49324,-23.82092,-23.69994,-23.64051,-23.77079,-22.43054,-22.35312,-20.64701,-21.51359,-20.0957,-21.58026,-20.52574,-21.66127,-21.06289,-23.39354,-23.26964,-24.94344,-23.70452,-27.19839,-25.11054,-29.46049,-27.45959,-30.95921,-28.23943,-33.32265,-30.37063,-34.75959,-32.18349,-35.52937,-33.54693,-36.57301,-34.25238,-37.37002,-33.59765,-37.3762,-34.11803,-36.67962,-33.26971,-34.88713,-32.82638,-32.69277,-32.78045,-30.08711,-30.38793,-27.66514,-28.81321,-25.15118,-26.54039,-21.66922,-22.84794,-18.90877,-19.02465,-16.21554,-14.55462,-10.9351,-9.441461,-5.720955,-4.405219,0.9582786,1.767419,6.55875,6.894467,12.15268,13.27698,17.45077,17.88548,23.03775,24.04871,27.63002,30.53816,30.77682,35.90126,36.49204,41.53303,41.23923,46.16274,46.50015,49.71305,51.3919,53.53276,54.30815,56.97574,57.48802,59.96381,61.16701,60.83601,63.3023,62.33623,64.36489,63.12777,64.46402,62.52632,64.50511,62.40712,63.36206,61.92087,60.77515,60.25793,59.83603,58.07135,57.92991,55.9511,55.25058,52.68672,52.53203,50.60815,50.16977,48.8944,49.95678,48.40187,50.20482,48.47268,50.57055,50.56779,52.99206,52.54724,54.12658,53.95319,54.99477,55.6425,55.03482,56.29533,55.57939,57.26957,55.27745,57.64378,56.01668,57.21971,56.50698,57.26137,55.70271,56.62315,54.56805,55.92211,53.4681,54.53201,51.61882,52.66174,50.07626,51.17398,48.25928,48.39539,45.96258,46.50817,43.35194,44.10858,40.45681,40.66373,38.34112,37.81263,35.00063,33.96287,31.64617,30.11417,28.81822,25.85165,24.82793,22.24852,22.46251,19.10668,18.71263,14.46356,15.68053,12.27677,13.01809,8.609115,9.468804,5.821896,6.802387,3.497136,3.385048,-0.06262199,0.361553,-2.216654,-2.082736,-4.6388,-4.105381,-7.466427,-6.087775,-8.222247,-8.014499,-9.920758,-8.725502,-10.99004,-9.42718,-10.20204,-11.16404,-11.64222,-10.43443,-11.8878,-9.760616,-12.68568,-9.718936,-11.52605,-9.466865,-11.03396,-9.522907,-10.89341,-8.828502,-9.437945,-7.616397,-8.228949,-7.677725,-6.771035,-7.260306,-5.350426,-7.521914,-5.037663,-7.164825,-5.166315,-7.066403,-7.067326,-8.998895,-6.996794,-8.938845,-6.350181,-9.473096,-6.948201,-9.211711,-7.110006,-8.433825,-8.235119,-9.223394,-8.270455,-8.597594,-9.091133,-8.674336,-9.749295,-8.803757,-9.282405,-8.589087,-8.94774,-9.201796,-8.376032,-8.840171,-7.570709,-8.289371,-8.163048,-7.807076,-7.752712,-7.1035,-7.412969,-7.435067,-5.549585,-5.050455,-5.0188,-4.598178,-5.367772,-3.894661,-4.623058,-3.66655,-4.73071,-5.197633,-5.941367,-6.051422,-4.825416,-7.562166,-5.625116,-7.741455,-5.76219,-7.587327,-6.073521,-7.660975,-6.050091,-6.112603,-5.236643,-5.513928,-4.625148,-4.843938,-3.75216,-4.011886,-3.434632,-2.72495,-3.373892,-1.765792,-1.464499,-1.221708,-1.281881,-0.3434811,0.247574,1.121567,0.366244,2.159416,0.7340651,3.762671,1.825769,4.216018,1.680886,5.09216,3.04899,6.192242,3.389681,6.477875,3.449506,6.574796,4.789678,5.445035,5.108692,4.852971,5.2614,5.303356,3.940792,5.544982,2.020211,4.678293,2.252301,3.713808,1.631472,2.643626,1.548171,3.065114,0.2532861,1.691108,0.3502211,-0.002601662,1.76528,-1.222175,0.9418077,-1.850071,0.4260142,-1.707484,-0.9361888,-2.250183,-1.48429,-3.383535,-0.9744371,-5.187495,-2.20788,-7.245464,-2.904218,-7.970065,-5.586592,-8.725751,-7.237807,-8.418042,-8.388809,-8.329729,-9.291541,-8.423755,-8.870383,-8.483404,-8.639827,-9.164965,-8.450703,-9.84304,-7.195429,-9.578059,-8.414192,-9.794453,-8.688001,-9.437042,-7.718045,-8.949207,-6.586256,-8.518186,-6.502314,-7.088012,-6.373099,-6.767387,-5.611791,-6.584449,-4.89203,-7.22264,-5.374497,-6.765729,-3.875761,-7.04312,