ConstAcc,0.5,0.49198,-25.16426,-37.43802,-48.10906,-57.2694,-65.00828,-71.41213,-76.56471,-80.54703,-83.43749,-85.31185,-86.24331,-86.30251,-85.55761,-84.07431,-81.91587,-79.14318,-75.81476,-71.98685,-67.7134,-63.04614,-58.03459,-52.72613,-47.16601,-41.39742,-35.46147,-29.39732,-23.24211,-17.0311,-10.79764,-4.573225,1.612451,7.731471,13.75765,19.66651,25.43523,31.04259,36.46897,41.69631,46.70801,51.48899,56.02556,60.30543,64.31769,68.0527,71.50214,74.65889,77.51707,80.07191,82.31982,84.25826,85.88573,87.20178,88.20689,88.90248,89.29089,89.37529,89.86596,92.51746,93.81387,92.43149,90.25874,88.60416,87.28755,85.45216,82.65109,79.07931,75.37394,71.73953,67.76587,63.40315,58.43574,53.32948,48.13794,42.85482,37.4591,31.98065,26.5369,21.33312,16.28966,11.34631,6.601014,2.225095,-1.587849,-5.257394,-9.003926,-12.97068,-17.10121,-21.30559,-25.62273,-30.01938,-34.42118,-38.81562,-43.0901,-47.19858,-51.09799,-54.67406,-57.91787,-60.8025,-63.18994,-65.28576,-67.25538,-69.16221,-71.0933,-73.10131,-75.13028,-77.18169,-79.18556,-81.18547,-83.15367,-85.08821,-86.87878,-88.54545,-90.08279,-91.56575,-92.94378,-94.10926,-95.10256,-95.97489,-96.76654,-97.45343,-97.91572,-98.14728,-98.24277,-98.27336,-98.22123,-98.03208,-97.68005,-97.20786,-96.72584,-96.25675,-95.66465,-95.0082,-94.37884,-93.84747,-93.24574,-92.46333,-91.54808,-90.57392,-89.56371,-88.51721,-87.47239,-86.41991,-85.38662,-84.47638,-83.71524,-83.15148,-82.80278,-82.71288,-82.9483,-83.46321,-84.02274,-84.55055,-85.01458,-85.40477,-85.72037,-85.8355,-85.72213,-85.47115,-85.1593,-84.82213,-84.46967,-84.06408,-83.69075,-83.39105,-83.25907,-83.11932,-82.89354,-82.64465,-82.44007,-82.58706,-82.70464,-82.61073,-82.30024,-81.87662,-81.38591,-80.76053,-79.94582,-79.06943,-78.41826,-78.10164,-78.10383,-78.47395,-79.25115,-80.51447,-82.26122,-84.32965,-86.48975,-88.54824,-90.58143,-92.54179,-94.33108,-95.80984,-96.97432,-97.78337,-98.3379,-98.63563,-98.59373,-98.28726,-97.78022,-97.14842,-96.36354,-95.42118,-94.17578,-92.65882,-90.96522,-89.06627,-87.12283,-85.08924,-82.8541,-80.5254,-78.03052,-75.30102,-72.34728,-69.16947,-65.87383,-62.50874,-59.06332,-55.56567,-51.87598,-48.22671,-44.64814,-41.1155,-37.56825,-34.02947,-30.53696,-27.08481,-23.61222,-19.83382,-15.68921,-11.51918,-7.584703,-4.008223,-0.8026894,2.057026,4.513451,6.532794,8.219377,9.662615,10.90585,12.01384,13.01701,13.87868,14.77617,15.72181,16.58515,17.23727,17.77025,18.32192,18.89579,19.32279,19.58816,19.91793,20.02411,19.44929,18.36347,16.9976,15.73613,14.87108,14.46062,14.45306,14.69355,15.16212,15.92189,16.96209,18.05817,19.1417,20.14778,21.17945,22.1704,23.02541,23.8181,24.69068,25.68578,26.89487,28.22116,29.76375,31.4977,33.49543,35.8006,38.2736,41.28628,44.48263,47.85519,51.33153,54.79569,57.97686,60.6817,62.82995,64.37364,65.3201,65.67102,65.5453,65.07203,64.39152,63.63617,62.73631,61.80644,60.87328,59.86082,58.83968,57.74153,56.58596,55.44025,54.34483,53.10535,51.65328,49.96483,48.0494,46.00717,43.80648,41.36672,38.72235,36.11211,33.60196,31.14049,28.7361,26.31948,24.15241,22.24334,20.40357,18.64313,16.92837,15.27856,13.80861,12.31162,10.84588,9.371508,8.08304,7.105803,6.312221,5.789475,5.788583,6.249729,7.053684,8.068234,9.19523,10.40326,11.64985,12.738,13.61093,14.28693,14.73987,14.95729,15.12098,15.18907,15.06353,14.83967,14.66494,14.7586,15.39095,16.53102,17.89159,19.34972,20.53187,21.08654,21.06808,20.39735,19.19308,17.60857,15.87615,13.99619,11.90335,9.428307,6.912817,5.110509,4.123018,3.732463,3.744408,4.148982,4.715294,5.259157,5.905627,6.567939,7.467225,8.441829,9.51595,10.71436,12.083,13.61441,15.50921,17.6876,19.9614,22.06791,24.02453,26.10957,28.52963,31.32142,34.72677,38.77028,43.40945,48.65564,54.23516,60.06706,66.09856,72.2819,78.42833,84.42858,90.30405,96.10498,101.8282,107.62,113.4126,119.0213,124.4094,129.4754,134.1154,138.4786,142.5215,146.3152,150.0297,153.5609,156.7536,159.5564,162.0006,164.081,165.6579,166.714,167.277,167.4502,167.1276,166.2816,165.1515,163.9387,162.5494,160.9528,159.1864,157.2066,154.7994,151.8451,148.5627,145.01,141.2349,137.2284,133.0066,128.7344,124.711,121.0135,117.2469,113.0926,108.5128,103.6743,98.56473,92.9806,87.01683,80.97821,75.08177,69.39631,63.87688,58.63316,53.81264,49.26065,44.73426,40.01462,35.33877,30.97777,27.14219,23.94705,21.54737,19.86788,18.90017,18.31023,17.55618,16.66394,15.44638,14.05597,12.88825,11.93753,11.40198,11.344,11.65518,12.25241,13.20613,14.35439,15.70881,17.3197,19.00449,20.66872,22.23127,23.60987,24.89609,26.40229,28.15432,29.9388,31.85806,33.62224,35.24156,36.72149,37.85893,38.67141,39.26076,39.47172,39.38794,38.99779,38.61138,38.53321,38.84407,39.59283,40.69508,41.78581,42.8378,43.86406,44.67985,45.18757,45.43192,45.4788,45.38947,45.14735,44.80072,44.29008,43.6372,42.95206,42.17708,41.16473,39.74874,38.1257,36.66357,35.30505,33.8477,31.68189,29.43989,27.4073,25.7435,24.39477,23.22306,21.98397,20.69849,19.28093,17.63461,15.7809,13.82601,12.09676,10.72757,9.627841,8.391997,7.231694,6.181132,5.185597,4.18225,3.205291,2.495734,2.017668,1.77193,1.780506,1.929718,2.281267,2.412839,2.028779,1.647634,1.685894,2.084464,2.530893,2.493444,1.721999,0.1490844,-1.815432,-3.889609,-5.805581,-7.555815,-9.294661,-10.98463,-12.6521,-14.40925,-16.1859,-17.67682,-18.75352,-19.54869,-20.0916,-20.4569,-20.83003,-21.03015,-21.09073,-21.03517,-20.98523,-21.0343,-21.12558,-21.01535,-20.72765,-20.35177,-20.10476,-19.71459,-19.14873,-18.27412,-17.39652,-16.60093,-15.98624,-15.31986,-14.57365,-13.77292,-12.88121,-11.73783,-10.35264,-9.018872,-7.580566,-6.028939,-4.560425,-3.162902,-1.628129,-0.08834372,1.535785,3.011858,4.455949,5.852896,7.28253,8.71813,10.18849,11.72233,13.33365,14.78161,15.98956,17.11729,18.0888,18.89591,19.72546,20.57282,21.44177,22.17696,22.86302,23.48016,23.88935,24.05305,23.909,23.65596,23.13037,22.35945,21.55628,20.58238,19.23789,17.83234,16.37552,15.75832,15.43071,15.12545,14.69675,14.09903,13.34158,12.40366,11.35361,10.48167,9.753493,9.122622,8.532366,7.906325,7.386213,6.643802,6.055639,5.499932,5.053295,4.896377,4.812012,4.845826,4.861732,5.006817,5.372244,5.848375,6.562885,7.225047,8.479588,10.5525,12.43596,13.24763,12.96304,11.95291,10.74559,9.791762,9.384627,9.378857,9.793141,10.24313,10.58166,10.75122,10.72564,10.60606,10.44138,10.26035,10.1716,9.946243,9.696779,9.391624,9.278331,9.178806,8.960029,8.649785,8.257471,7.962356,7.608032,7.226965,6.774245,6.438844,6.136242,6.001192,5.668497,5.326664,4.80071,4.359639,3.965835,3.596469,3.2459,3.023418,2.977672,2.803204,2.44392,2.028728,1.891382,1.951352,2.095088,2.08583,2.13905,2.074055,1.976188,1.782857,1.660548,1.571856,1.646742,1.791038,1.924619,2.04168,2.121041,2.107467,2.296447,2.578666,2.725852,2.894362,3.21683,3.662116,4.030861,4.30413,4.642816,4.834422,5.028764,5.130459,5.064494,4.963817,5.02956,5.170009,5.290857,5.213556,5.201889,5.337808,5.42834,5.499806,5.135705,4.808553,4.705847,4.762039,4.700907,4.416577,4.173438,3.896931,3.620813,3.366436,3.081463,2.826655,2.635758,2.325284,2.156246,1.773351,1.374749,0.883899,0.4674172,0.09343652,-0.3381308,-0.7536496,-0.9254643,-0.8334687,-0.6645403,-0.7731905,-0.7263644,-0.7072207,-0.5637804,-0.6183188,-0.8220234,-0.9377127,-0.9079138,-0.6633145,-0.289159,-0.04492509,0.2326039,0.2885512,0.4081409,0.605043,0.7753239,0.8756494,0.8773072,1.012347,1.282681,1.428763,1.45648,1.496617,1.75349,2.162121,2.432568,2.680086,2.799775,2.807312,2.849913,2.868641,2.997807,3.19967,3.298925,3.433848,3.328302,3.116622,3.07478,3.38833,3.827422,4.04561,4.183485,4.041237,3.971742,3.808733,3.799096,3.949408,4.27112,4.49009,4.527577,4.393974,4.146293,3.830196,3.612811,3.54774,3.521873,3.414622,3.203195,2.938623,2.90244,3.03267,3.022813,2.872835,2.711625,2.599685,2.32376,2.210919,2.078478,1.959822,1.729776,1.452984,1.058097,0.591434,0.5666389,0.5467797,0.4776444,0.316657,0.1533112,0.006220643,0.07703555,0.07338068,0.06411422,-0.1720162,-0.5399461,-0.5753716,-0.5109184,-0.4829413,-0.7327257,-0.923767,-1.211205,-1.362757,-1.554464,-1.945189,-2.194779,-2.221314,-2.355436,-2.531019,-2.976045,-3.345273,-3.579933,-3.850958,-4.159758,-4.695202,-5.116886,-5.490754,-5.850126,-6.168876,-6.438302,-6.625726,-6.702181,-6.81893,-6.80742,-6.936787,-7.216245,-7.598862,-7.958231,-8.033926,-8.200514,-8.369595,-8.410234,-8.565566,-8.654418,-9.085893,-9.343395,-9.478442,-9.59988,-9.852568,-10.25691,-10.29932,-10.22622,-10.26971,-10.55128,-10.65789,-10.61778,-10.6145,-10.81175,-11.08609,-11.26686,-11.38427,-11.59867,-11.78837,-11.86621,-12.14511,-12.34895,-12.54623,-12.64348,-12.82514,-12.83175,-12.91014,-13.17502,-13.64052,-14.08127,-14.36859,-14.49389,-14.53174,-14.43117,-14.43666,-14.57897,-14.88,-15.13849,-15.3343,-15.68171,-15.93696,-16.18902,-16.24319,-16.22228,-16.44061,-16.54453,-16.51876,-16.32173,-16.28079,-16.69462,-17.18815,-17.41696,-17.2806,-17.16463,-17.28186,-17.69976,-18.32284,-18.90075,-19.32356,-19.45159,-19.61357,-19.78435,-20.16704,-20.39341,-20.52854,-20.53429,-20.33866,-20.15666,-20.06684,-20.11486,-20.5199,-20.69388,-20.34795,-20.03298,-20.01241,-20.01551,-19.87599,-19.73592,-19.53135,-19.38082,-19.31757,-19.06335,-18.63386,-18.43238,-18.20935,-18.09981,-17.88012,-17.69931,-17.49015,-17.47246,-17.67786,-17.85747,-17.74628,-17.45874,-17.03838,-16.73697,-16.35016,-16.10384,-16.07999,-16.13573,-16.22671,-16.44078,-16.36071,-16.35761,-16.27882,-16.44776,-16.4202,-16.16886,-16.23913,-16.36884,-16.7325,-16.83491,-16.76271,-16.51488,-16.5009,-16.70679,-16.90913,-17.22227,-17.7613,-17.96589,-18.03713,-18.36016,-18.67317,-18.82705,-18.75502,-18.55802,-18.80542,-19.04093,-19.0187,-18.87153,-18.85073,-18.89692,-19.15959,-19.24827,-19.45514,-19.38975,-19.56436,-19.62473,-19.3602,-19.13692,-18.78898,-18.61496,-18.36823,-18.09354,-17.71716,-17.51775,-17.32853,-17.03999,-16.63038,-16.28739,-15.78356,-15.39038,-15.17674,-15.18373,-15.49745,-15.23461,-15.00258,-14.87517,-14.77757,-14.85876,-14.74472,-14.60016,-14.71219,-15.07731,-15.59971,-16.03179,-16.44492,-16.68528,-16.8518,-17.03751,-17.35291,-17.78688,-18.00968,-18.01926,-18.22536,-18.46889,-18.89326,-19.41782,-19.97084,-20.52362,-20.35129,-19.84872,-19.09084,-18.64317,-18.74322,-19.22855,-19.70482,-20.34804,-21.0231,-21.41179,-21.75323,-22.1923,-22.62261,-23.05206,-23.16129,-23.30078,-23.48727,-23.56709,-23.55543,-23.37078,-22.98307,-22.4791,-22.1431,-22.10357,-21.98433,-21.86555,-21.53543,-21.23879,-20.89546,-20.44976,-19.71899,-18.98241,-18.05362,-17.28798,-16.65817,-15.90282,-14.92719,-14.08477,-13.49009,-12.54481,-11.47387,-10.49532,-9.585182,-8.638343,-7.861413,-6.993914,-6.010043,-5.120925,-4.108717,-2.9003,-1.716999,-0.7511808,0.2042549,1.207513,2.505977,3.939079,5.104365,5.980943,6.798346,7.447698,8.442642,9.562393,10.27465,11.30531,12.37061,13.54539,14.23238,14.7102,14.9076,15.25477,15.90311,16.31969,16.63795,16.99161,17.85407,18.66133,19.42538,20.01846,20.33763,20.53476,20.99548,21.37438,21.5227,21.56845,21.88101,22.84225,23.23435,23.40997,23.25442,23.20053,23.52554,23.78928,23.78268,23.60518,23.51559,23.79468,24.21631,24.27408,23.95361,23.95665,24.41842,24.73966,24.79779,24.72857,24.74014,25.16758,25.74004,26.24923,26.73153,27.55703,28.8472,29.44936,29.7035,29.26357,28.61182,28.19266,28.25392,27.78914,27.28885,27.16208,27.2487,27.41805,27.66984,27.91644,28.14444,28.2659,28.68211,29.15588,29.5716,30.1108,30.31584,30.31692,29.97599,29.79507,29.88731,29.92329,30.12488,30.37325,29.9783,29.12356,28.66921,28.51989,28.25783,27.6491,26.94309,26.68969,26.50496,26.05699,25.32796,24.52154,23.93027,23.39697,22.94437,22.49485,21.88004,21.5458,21.15208,20.65279,20.07107,19.35697,18.77921,18.32984,18.03524,17.44869,16.74919,16.55143,16.0603,15.55088,15.02593,14.64021,14.73585,14.54149,13.98717,13.68694,13.04525,12.36453,11.29043,10.39526,9.430264,8.831314,8.36958,7.961752,7.617613,7.059721,6.57694,5.783513,4.92617,3.990394,3.128431,2.284202,1.580352,1.014631,0.06920311,-0.6163586,-1.365644,-1.999801,-2.675793,-2.998518,-3.588643,-4.021254,-4.676664,-5.454266,-6.110435,-6.763405,-7.302305,-7.769554,-8.428624,-9.766191,-11.12696,-11.76793,-11.983,-12.16628,-12.41631,-12.38883,-12.41546,-12.18793,-11.85204,-11.46309,-11.16301,-10.70285,-10.27543,-10.06659,-9.82662,-9.671318,-9.698347,-9.72566,-9.72369,-10.16379,-9.889445,-8.386213,-6.360598,-4.567352,-3.305249,-2.880309,-2.951857,-2.747716,-2.142873,-1.928589,-2.226468,-3.266762,-4.838334,-6.084671,-7.15281,-7.918985,-9.374593,-10.96938,-12.59342,-14.18665,-15.97089,-17.71859,-18.972,-20.03667,-21.15676,-22.39547,-23.88085,-25.28347,-26.31064,-27.07854,-27.79373,-28.62456,-29.17124,-29.83993,-30.31416,-30.42844,-30.76421,-31.10063,-31.37419,-31.26001,-31.02234,-30.78751,-31.15191,-31.36475,-31.3303,-31.13288,-30.34481,-28.83284,-27.49692,-26.28363,-25.02585,-23.23329,-21.46611,-19.53346,-17.45058,-15.28085,-13.26385,-11.29848,-9.227087,-6.616866,-4.155159,-1.266977,1.409411,3.873191,6.250096,8.861277,10.98666,12.71804,14.35464,16.22056,18.4075,20.19079,21.86813,23.36159,24.84409,26.36229,27.48169,28.37603,29.27305,29.92808,30.23415,30.25622,29.70317,29.19845,28.75844,27.83626,26.62151,24.76845,22.7086,20.50352,19.09726,17.96612,16.87983,15.16942,13.3491,11.71893,9.842999,7.917545,6.179479,4.780727,3.319593,1.707666,0.1688197,-1.141087,-2.249383,-3.186316,-4.006633,-4.619053,-4.871333,-4.304039,-2.762957,-1.197454,-0.3647853,-0.46318,-1.014852,-1.473086,-1.405375,-1.166308,-1.085751,-1.307773,-1.490552,-1.587921,-1.400996,-1.083928,-0.8804455,-0.9613019,-1.82313,-2.612768,-3.519481,-3.288852,-2.686494,-1.80517,-0.4130724,1.093104,2.689973,4.376734,6.194376,8.288443,10.55219,12.82445,14.7916,16.53838,18.37286,20.02556,21.88151,23.46909,24.51789,25.204,25.56819,25.9953,26.12995,25.73175,24.92295,24.55714,24.27096,23.87081,22.94322,21.59225,19.78714,17.97199,16.48144,14.56662,11.66538,9.641714,8.303706,7.225956,5.920277,3.867145,0.997576,-2.565368,-6.509984,-10.4889,-15.03886,-19.66969,-24.53355,-29.88725,-35.76236,-41.54733,-47.07628,-52.01227,-56.84521,-62.20699,-67.61012,-73.09782,-78.1632,-82.97986,-87.47596,-91.84762,-96.30739,-100.5636,-104.4718,-107.9331,-111.1955,-113.8836,-116.6896,-119.9357,-122.4236,-124.5138,-125.6371,-125.8258,-125.3264,-124.6954,-123.5186,-122.0959,-120.2539,-117.9603,-115.0208,-111.4715,-107.6297,-103.5866,-99.32518,-94.56781,-90.1575,-85.66319,-80.4037,-74.56149,-68.36418,-61.69919,-54.65191,-47.27729,-40.24741,-33.92877,-28.11658,-23.03343,-18.05507,-13.25345,-8.82309,-4.9527,-1.432149,1.426396,3.516167,5.026852,5.8266,6.312857,6.21349,5.971083,5.70856,5.545412,5.537147,5.948521,6.096941,6.274676,6.020322,5.414969,4.853375,4.426106,3.85506,2.942955,1.80481,0.6668837,-0.5236952,-1.579467,-2.343329,-3.300905,-4.122054,-4.593285,-4.872933,-5.24812,-5.374314,-5.248419,-4.832452,-4.206085,-3.710817,-3.186373,-2.543388,-1.317155,0.03867556,1.961442,4.104752,6.505249,9.16514,12.04523,15.58092,20.20906,24.26665,27.58394,30.38175,32.61485,34.81017,37.11335,39.88965,42.82791,45.76331,48.25262,50.27933,52.38352,54.49629,55.94099,57.60092,59.1148,60.1213,60.75168,61.39856,61.92506,62.22531,62.86626,63.60566,64.66029,65.14014,65.52216,65.30679,64.78428,63.97466,62.72755,60.94787,59.31338,58.2687,57.12043,55.87914,54.26192,52.12326,50.06534,48.18385,46.12578,44.03242,42.14667,40.31383,37.86534,35.23422,32.49488,29.93964,27.49776,25.21511,23.80038,22.91744,21.84166,20.93296,20.26198,19.74973,18.73106,17.11106,15.40729,14.04132,12.78571,11.29834,9.09723,7.085938,5.218967,4.044206,3.199472,2.398632,1.62861,1.122932,0.9075608,0.4025111,0.04218915,0.1055948,-0.0481824,-0.03994886,-0.1076576,-0.3624328,-0.6055268,-0.5687048,-0.6946828,-1.011493,-1.644182,-2.392975,-2.824652,-3.331074,-3.388864,-3.556175,-3.669815,-3.497455,-3.388691,-3.157416,-2.934025,-2.892389,-2.816,-2.282269,-1.884509,-1.408808,-1.073647,-0.8825068,-0.1039526,0.5637238,1.373799,1.789042,2.50929,2.964343,3.269459,3.609952,4.110512,4.428742,4.900632,5.058758,5.102519,4.904985,4.535479,4.397894,4.242206,3.907631,3.22992,2.232347,0.6547863,-0.6345306,-2.123694,-4.120067,-6.317929,-7.799924,-9.581722,-11.41137,-13.22335,-14.74904,-15.83547,-16.80306,-17.15907,-17.94158,-18.41839,-19.85048,-20.96604,-22.7035,-23.53935,-23.54186,-23.31891,-22.74835,-22.64874,-23.06183,-23.32333,-23.52468,-23.76327,-24.22636,-24.7771,-25.5347,-26.37406,-27.31926,-28.61441,-30.01182,-31.14681,-32.32709,-33.4594,-35.01379,-37.0525,-38.8184,-40.51427,-42.05553,-43.23484,-43.87233,-43.73083,-43.52634,-43.22785,-42.52687,-41.81415,-40.70524,-39.8133,-38.57199,-37.12094,-34.57175,-31.54407,-27.98905,-24.9464,-22.5023,-20.33098,-17.37733,-13.75207,-9.742376,-5.363322,-0.9443201,3.029165,7.157618,11.38031,15.74044,20.13146,24.34824,28.30531,32.83722,37.44209,42.0571,45.71446,49.08239,52.37129,55.17918,57.71436,60.01451,61.68385,63.19423,64.79556,65.95023,66.44517,67.07678,67.37215,67.57,67.53571,67.32865,66.82691,65.61113,64.45783,63.05266,61.72356,59.78647,57.53475,55.32403,52.99144,49.61956,46.09999,42.97809,39.93016,36.6046,33.25548,30.16935,27.05253,23.45456,19.90486,16.51566,13.26895,10.4235,7.353,4.46384,1.16021,-1.573492,-4.333297,-6.650755,-8.74274,-10.6096,-12.73375,-14.65273,-15.72725,-16.56053,-16.77662,-16.90086,-15.89221,-14.96313,-12.85694,-11.05302,-9.512293,-7.967614,-6.722396,-5.300185,-3.5392,-2.206803,-0.8307514,0.2454958,1.337307,2.109366,2.810277,3.352342,4.25185,4.682696,4.768057,3.97148,3.122874,1.952024,0.9364551,0.4267495,-0.3163174,-1.274073,-1.692347,-1.889812,-2.206448,-3.310023,-4.011227,-4.949997,-5.983082,-6.89727,-8.140155,-9.236844,-10.76608,-12.03889,-13.95483,-16.13199,-18.80348,-21.28252,-22.97432,-23.82522,-24.48288,-25.01141,-25.7897,-26.84292,-27.22916,-27.16149,-27.07755,-26.72668,-26.72491,-26.23766,-25.55998,-24.79454,-24.56575,-24.64525,-25.16397,-24.82449,-24.38771,-24.17562,-24.42486,-24.5899,-24.97642,-24.7987,-24.69789,-24.94202,-25.0336,-24.72225,-24.6309,-24.44675,-24.32648,-24.28627,-24.45242,-24.48649,-24.66651,-24.53775,-24.67516,-24.99584,-25.51087,-25.82642,-25.88754,-26.2784,-26.25971,-25.96208,-26.0313,-25.9076,-25.64069,-25.20975,-25.0826,-25.50586,-25.18391,-24.99309,-24.47082,-24.35056,-24.48211,-24.63242,-25.3826,-25.59145,-25.68453,-25.29,-24.9929,-24.72663,-24.69717,-24.1924,-23.09427,-21.97913,-21.14224,-20.43757,-19.72431,-18.9021,-18.42355,-18.00655,-17.13616,-16.41108,-15.72858,-14.86891,-14.16469,-13.72402,-12.87605,-12.20407,-11.74723,-11.38576,-11.03536,-10.56381,-9.790511,-9.696092,-9.459465,-9.61177,-9.266317,-9.115056,-9.073955,-9.161797,-9.120049,-9.011247,-8.878777,-8.951439,-9.388037,-10.18715,-10.03999,-10.16582,-10.59024,-11.13256,-11.57547,-12.4857,-13.41047,-13.54103,-14.52596,-15.4871,-16.57481,-16.68715,-16.21921,-16.08849,-15.93812,-16.11973,-16.47708,-15.92917,-15.22999,-14.82449,-14.98654,-14.60595,-14.63884,-14.12246,-13.72927,-13.2944,-12.72028,-12.16353,-11.67617,-11.18899,-10.60419,-10.52535,-10.15828,-9.350213,-9.040563,-8.216976,-7.292398,-6.473351,-5.67415,-4.875076,-4.252382,-3.521603,-2.723467,-2.108538,-1.470499,-0.5159868,0.382093,1.63516,2.598744,3.487769,4.281266,5.154836,6.354874,6.920773,7.547976,7.787445,8.137102,8.92792,8.720131,10.06322,10.83489,11.00304,11.74918,11.7593,11.84598,11.26036,10.92637,10.4603,10.65115,10.98966,10.92237,10.9613,10.99018,11.06397,10.74775,10.57311,10.61221,10.23649,9.624116,9.291293,9.073839,8.593549,7.933515,7.981817,7.753036,7.285342,7.170482,7.007523,6.928837,6.653783,6.461865,6.261466,5.654745,5.669746,5.657277,5.508946,5.262688,5.012011,4.893713,4.655951,4.715713,4.44194,4.900823,4.932932,5.102735,5.006044,4.707963,4.894639,5.089081,5.353904,5.920582,6.319996,6.709976,7.540463,8.38382,8.785741,9.564242,10.61543,11.01052,11.73232,12.65662,13.88547,14.79831,15.33892,16.20994,16.82589,18.03785,19.22843,19.86184,20.48964,20.9398,21.68714,22.37261,23.05658,23.7353,24.0167,24.17223,24.02636,24.25637,24.88467,25.51726,25.69123,25.89002,26.20043,26.26091,26.35432,25.81266,25.26971,25.4652,25.3435,25.33568,25.67047,25.84673,26.01012,26.42465,26.60424,26.77408,27.03721,27.4154,27.59518,27.54195,27.53839,27.39075,27.41079,27.62,27.46105,27.9291,28.37316,28.59083,29.87048,29.66729,29.09725,28.84941,28.52962,28.5026,28.2658,27.7764,27.32577,27.26668,25.98491,24.74607,23.74593,23.11019,22.71488,22.02851,21.51293,21.16905,20.74697,20.18946,19.68362,18.80421,18.07237,17.50157,16.86571,15.83981,15.04591,13.93997,13.12161,11.9611,10.80868,9.964624,7.949685,6.246496,5.566405,4.792627,3.244831,1.428149,-0.07591137,-1.870022,-3.527763,-4.98153,-6.666797,-8.287378,-10.25788,-11.84553,-13.28115,-14.60503,-16.08259,-17.26856,-18.27883,-19.302,-19.78555,-20.72937,-21.22486,-21.63686,-22.38022,-22.58707,-22.78757,-22.84105,-22.86144,-23.01964,-23.11788,-22.89415,-22.9435,-22.49035,-22.22256,-21.65247,-21.6632,-21.39443,-20.76636,-20.48006,-20.44819,-20.20308,-19.69378,-19.00474,-18.70013,-18.09019,-18.10075,-17.47017,-16.79519,-16.5902,-16.30395,-16.00829,-16.09079,-15.95952,-16.03996,-15.81988,-15.1717,-14.31686,-13.70181,-12.89708,-12.5384,-12.49136,-11.92633,-11.50095,-11.14246,-10.23735,-9.649569,-9.529338,-9.145932,-8.390294,-7.999263,-7.978033,-7.588852,-7.343626,-6.824862,-6.571544,-6.234349,-5.604459,-5.186847,-4.683903,-4.79063,-4.607237,-4.213028,-3.970733,-3.660499,-3.908968,-4.1982,-4.610803,-4.903576,-4.556804,-4.198767,-3.530281,-2.992904,-2.60855,-2.114311,-2.108044,-2.223351,-2.462537,-2.072283,-1.528206,-1.369132,-1.434297,-1.615719,-1.295265,-1.086219,-0.837867,-0.8198352,-1.365647,-1.111711,-1.136416,-1.835444,-1.54387,-1.388341,-1.75534,-2.34542,-2.746465,-2.84353,-3.584949,-4.073824,-3.980301,-4.181325,-4.178523,-4.238424,-4.155741,-4.05584,-3.861238,-4.056148,-3.83977,-3.85589,-3.939511,-3.864738,-3.497372,-3.739834,-4.339801,-4.788918,-4.258797,-3.989859,-3.8599,-3.538663,-3.135724,-2.45311,-1.912488,-1.796891,-1.307103,-0.9826142,-0.5648745,-0.3322615,0.03674634,0.4588466,0.3949491,1.240333,2.119978,2.412282,2.516703,2.946284,3.496041,3.459104,3.773442,3.970243,4.513514,5.230195,5.451449,5.041696,5.100196,5.458652,5.717219,6.285878,6.301106,6.5055,6.649376,6.898363,6.9349,6.906772,6.817213,7.208672,7.041161,6.2863,5.734745,5.819684,5.841625,5.499452,5.523938,6.112978,6.396075,7.196785,7.322236,8.324509,8.688329,9.096341,9.953731,10.55743,11.35345,11.71978,12.1087,12.63914,12.85049,13.32709,13.78838,14.23316,14.57862,14.86396,15.06978,15.21002,15.29166,15.36287,15.39775,15.65092,15.6941,15.78829,15.38,15.25885,15.31044,15.12594,14.85173,14.40389,14.18941,13.3886,12.64873,12.0364,10.98779,10.17329,9.399168,8.710611,7.851565,7.021954,6.154543,5.518474,4.449871,4.052492,3.618087,2.770148,2.113643,1.377526,0.2940337,-0.6253091,-1.101485,-1.881091,-2.996654,-4.189336,-5.353224,-5.741503,-6.173423,-7.652492,-8.684174,-8.950331,-8.696996,-9.177632,-9.85982,-10.23516,-10.70271,-11.4106,-11.89151,-12.52124,-13.28165,-13.94036,-13.81211,-14.08119,-14.53779,-14.7708,-14.75021,-14.4874,-14.35159,-14.33549,-13.91209,-13.46478,-13.60336,-13.65078,-13.61816,-13.49513,-13.40625,-13.54143,-13.68571,-14.2233,-14.7122,-14.8487,-15.19094,-15.1412,-15.75942,-15.75917,-16.26215,-16.96258,-17.84289,-18.26501,-18.64839,-19.67149,-20.91123,-21.16234,-21.1676,-20.9983,-21.28481,-21.57484,-21.24131,-21.01031,-21.51195,-21.51384,-21.29441,-20.11933,-19.75818,-19.27116,-18.67778,-18.29562,-17.47977,-16.54325,-15.78688,-15.14173,-14.21181,-13.12401,-12.23834,-11.49095,-10.71448,-10.00105,-9.413192,-8.869566,-8.019672,-6.750766,-5.642504,-4.853375,-3.339094,-2.23524,-0.7540827,1.229847,2.507373,3.761736,4.911685,6.190812,7.211408,8.067603,9.004872,9.828888,10.2437,11.28459,12.08438,13.15139,13.73346,13.82922,13.84901,14.63181,15.21005,15.47675,15.09661,15.31697,15.7265,15.61772,15.56795,15.82992,15.6814,15.08556,14.75066,14.50403,14.01902,13.95846,13.35411,12.42146,11.57045,10.79946,9.974501,8.868897,7.819704,6.880048,5.540828,4.493897,3.26035,2.298829,1.244751,0.4669096,-0.1714032,-0.8854962,-1.345857,-1.594584,-1.819712,-1.975547,-1.740852,-1.70855,-1.795273,-1.960927,-2.069864,-1.842172,-1.43541,-1.282408,-1.23923,-1.091281,-1.028851,-0.9589521,-0.4915761,0.1864551,0.6721762,1.163411,1.520587,1.979372,2.127722,2.660313,3.042496,4.17,4.710693,4.46991,4.941535,5.798371,6.384629,7.161207,7.488013,7.696494,8.394691,8.562274,9.518664,10.2078,10.9241,11.78159,12.07109,12.38413,12.74271,12.84271,13.34346,13.52355,13.34124,13.4464,13.36359,12.87521,12.62132,12.44536,11.95877,11.14426,10.55106,10.60083,10.44435,10.2375,8.921264,8.210377,8.840335,8.907454,8.60512,8.086965,7.769528,7.454502,6.729977,6.310632,5.475629,5.016523,4.526143,4.116147,3.409942,3.033444,2.258311,1.70053,0.8059304,-0.02060981,-0.3808098,-0.4036049,-0.9304381,-1.751802,-2.101141,-2.221071,-2.860408,-3.495495,-3.51313,-3.814261,-4.48899,-4.9332,-4.928378,-5.066475,-5.361598,-5.18152,-6.160674,-6.810639,-6.798004,-7.318724,-8.156773,-9.04693,-9.371817,-9.859901,-10.41904,-10.9063,-11.98452,-12.35796,-12.59116,-12.71169,-13.33429,-13.17597,-13.17087,-13.19387,-13.46209,-13.74576,-14.62512,-14.7071,-15.32789,-15.77095,-15.99304,-16.28239,-16.90428,-17.57444,-18.05274,-18.60675,-19.05456,-19.08281,-19.42981,-19.79763,-20.68458,-21.04924,-21.30054,-21.6344,-22.14764,-22.42833,-22.80035,-22.72247,-22.97163,-23.33532,-23.17773,-22.95636,-22.76239,-22.52397,-22.2526,-22.01048,-21.19462,-20.78974,-20.15203,-20.02447,-19.53538,-18.82378,-18.19498,-17.54409,-16.82508,-16.08433,-15.26944,-14.32533,-13.4163,-12.29182,-11.17614,-10.30768,-9.106214,-7.861084,-6.46324,-5.28336,-4.373745,-3.413671,-2.457724,-1.123288,-0.4208028,1.509994,3.529644,4.403473,5.241286,6.763652,8.113637,9.080261,10.12687,11.676,12.50428,13.52714,14.11483,15.49623,16.17543,16.82641,17.44647,17.92539,19.14935,20.22503,21.3247,21.91128,22.41324,23.00387,24.03964,24.38086,24.50132,24.91605,24.95275,25.35273,25.58803,25.70254,26.07998,26.17685,26.14864,26.50957,25.65497,25.55271,25.33996,24.79739,24.05018,22.72582,22.20747,21.81187,21.63591,21.25959,20.93637,21.40798,21.6218,22.02331,22.35144,22.83706,22.8372,22.73097,23.07962,23.17119,23.01086,23.85648,23.5412,24.08501,24.66802,24.69288,24.59011,24.74705,24.73375,25.07036,24.92148,24.78446,24.29223,23.92968,23.64367,23.43488,23.15272,22.22166,21.69187,21.92875,21.3575,20.67411,20.32875,19.50708,18.96973,18.31409,17.63027,17.00165,15.78005,15.04098,14.28254,12.77988,11.67196,10.59329,9.489074,8.145677,6.862016,5.680951,4.341406,3.345007,2.234858,0.8883956,-0.6718276,-1.680907,-2.508588,-3.80429,-5.118448,-6.022409,-7.040229,-8.217371,-9.580428,-10.87637,-12.16193,-13.78034,-14.50041,-14.97521,-15.84777,-16.81385,-17.25943,-17.4884,-18.21742,-18.86963,-19.40524,-19.87014,-20.33205,-21.01339,-21.39839,-21.56332,-21.98716,-21.95958,-22.03952,-21.78871,-21.09544,-21.37286,-21.35894,-21.24315,-20.7951,-20.32898,-20.09655,-20.18984,-19.83813,-19.15774,-19.33633,-18.51567,-17.91809,-17.48668,-16.7914,-16.969,-16.53444,-16.11926,-15.978,-15.71588,-16.0292,-16.0324,-16.16791,-15.79685,-14.99664,-14.33211,-14.54804,-14.02531,-13.12367,-12.89257,-12.82335,-12.12084,-11.72696,-11.23816,-10.57657,-10.18633,-9.958553,-9.753771,-9.290863,-8.770096,-8.73586,-7.909956,-7.350975,-6.947076,-6.517834,-6.307516,-5.950882,-5.390379,-5.186586,-4.867939,-4.465027,-4.190827,-3.842992,-3.338794,-2.331697,-2.375826,-1.710169,-1.218652,-0.7609895,-0.07592504,-0.05123654,0.03761382,0.6859384,0.9793718,1.733638,2.036628,2.051028,2.879378,3.414513,3.375778,3.496807,3.618248,3.602512,3.797849,3.774724,4.236663,3.892127,3.983387,3.885692,3.662127,3.886524,4.054367,4.011928,3.8748,3.605011,3.887302,3.699163,3.833572,3.662533,3.582146,3.718358,3.985295,4.381805,4.535745,4.445819,4.649912,4.332182,4.599238,4.271161,4.566905,4.701513,4.486597,4.442067,4.511042,4.760437,5.025482,5.236392,5.073354,4.992147,5.196989,5.311997,4.982166,5.329082,5.800656,5.53073,5.610517,5.296941,5.456513,5.569991,5.817276,5.020661,5.428048,4.892698,4.965826,5.12612,4.198708,4.637037,5.589995,6.364179,5.992222,5.73239,6.229806,6.660462,8.05724,8.756143,9.854701,11.07233,12.66759,13.50895,14.14726,15.33041,16.47787,17.1397,17.73864,18.21016,18.4566,18.8966,19.12103,19.47099,19.67953,19.77014,19.80279,19.83965,19.31118,19.10462,18.49245,18.15239,17.46828,16.75305,15.49887,14.96572,14.06855,12.92496,12.08939,10.85564,9.447123,8.30668,6.713622,5.640172,3.686299,2.467395,1.385322,0.2103052,-1.476149,-2.684342,-3.356163,-4.838907,-6.220931,-7.800218,-8.92478,-10.10286,-11.23831,-12.96848,-13.97114,-14.69848,-15.6225,-16.73515,-17.87379,-18.26649,-18.87257,-19.41633,-20.04803,-20.57604,-20.81405,-21.11928,-21.23699,-21.52983,-21.16404,-21.07108,-20.91591,-20.98316,-21.07523,-20.77376,-20.07239,-19.61358,-19.06491,-18.54533,-17.75785,-16.92767,-15.89393,-15.19755,-14.33326,-13.39981,-12.39371,-11.54435,-10.81036,-9.727001,-8.811927,-8.109546,-7.797615,-6.923543,-6.931549,-5.733216,-5.329622,-5.191548,-4.301311,-3.889262,-3.814222,-3.76108,-4.073051,-4.607495,-5.407491,-6.141604,-6.110495,-6.917769,-8.333346,-7.519362,-7.278797,-8.814295,-10.18918,-10.63714,-10.29962,-9.766267,-9.394155,-10.17108,-10.66716,-10.37815,-10.19683,-10.64169,-11.29058,-11.31368,-10.84591,-11.06915,-10.86785,-10.9681,-11.23896,-10.65429,-10.60289,-10.40597,-9.954002,-10.01863,-9.303913,-8.856194,-8.742234,-7.732989,-7.321481,-6.635141,-6.279373,-5.596834,-4.8676,-3.945658,-3.338586,-2.980865,-2.187537,-1.40333,-0.5376037,-0.108402,0.433417,1.349201,2.181959,3.033307,3.294597,4.593315,5.180187,6.059746,7.183064,6.745365,6.878641,7.768149,9.231023,9.924579,10.4133,10.71374,11.71534,12.92486,13.68254,14.28772,14.72441,15.57232,16.09897,16.87325,17.26088,17.46281,17.87399,18.43994,19.05902,19.46208,19.58244,19.60669,19.7354,19.91945,19.68943,20.00456,20.15131,20.15852,20.00297,19.92987,19.40591,20.03107,19.20029,18.43508,17.7349,17.15083,17.15593,16.88525,15.99044,15.24307,14.29257,13.56725,13.12268,13.14725,12.25873,12.02027,11.36316,11.35093,11.00306,9.644576,8.84624,8.827817,8.311059,7.520741,6.124959,6.464376,5.949667,5.392381,4.897502,4.858188,3.706638,2.863144,2.588802,2.091405,1.087994,0.570582,-0.04992815,-1.064518,-1.163272,-1.30163,-1.372763,-2.226876,-2.398987,-2.298432,-2.491149,-3.114356,-3.642787,-4.125199,-4.471347,-4.30818,-4.847487,-5.31733,-5.109902,-5.827253,-5.738383,-6.109735,-6.542824,-6.234376,-6.727054,-6.709253,-6.676573,-6.671675,-6.904098,-6.781738,-6.817739,-7.682319,-7.765561,-7.687388,-7.982155,-9.073933,-9.547782,-9.685047,-9.923509,-10.31737,-10.54322,-10.92486,-11.80366,-12.35587,-13.01204,-13.81883,-14.25659,-13.8097,-13.94204,-14.26332,-15.07192,-15.44239,-15.55556,-15.18411,-15.50649,-16.48562,-17.10483,-16.92672,-16.79951,-16.90747,-17.62411,-17.82165,-17.74283,-17.4762,-17.76476,-18.10421,-18.33007,-18.30158,-17.8902,-17.92264,-18.18146,-18.02496,-17.84865,-18.11153,-17.53624,-18.1063,-17.85535,-17.63713,-18.3617,-17.962,-17.50453,-17.26843,-17.05164,-17.03897,-17.08847,-16.67157,-16.51269,-16.03604,-15.8343,-14.03333,-13.18521,-12.60955,-11.77104,-11.70981,-11.42732,-11.54793,-11.5407,-12.24924,-12.76498,-13.34987,-13.58129,-13.93004,-15.41766,-16.16355,-16.95774,-17.84742,-18.70132,-19.65659,-20.65714,-21.46511,-21.87699,-22.01849,-22.68491,-23.33586,-22.82184,-22.74799,-22.6435,-23.10202,-23.02183,-22.78677,-22.0944,-21.74823,-21.4952,-20.6863,-19.81133,-18.4773,-17.72409,-16.92255,-15.57796,-14.30104,-12.687,-11.47551,-10.15078,-7.940998,-6.057668,-4.141095,-2.780153,-0.6900714,0.7677967,2.858023,4.061045,5.96732,8.134094,9.711786,11.2577,13.16807,15.78901,17.64342,19.64212,21.77089,23.73801,25.20264,26.91916,28.55506,30.45889,32.71823,33.79194,35.20543,36.57964,37.94122,39.12297,40.35017,41.12055,42.06328,42.31581,43.09889,43.68437,44.40719,44.33171,44.44692,44.20058,44.44219,43.74971,43.42527,42.89395,42.72528,42.04487,41.35416,40.51095,39.82713,39.17242,37.77287,37.13872,35.61317,34.26207,31.98175,31.12704,29.88609,28.7107,28.34814,27.60568,27.00408,26.86158,26.30335,26.28667,26.95547,27.25429,28.33844,29.08607,30.58571,30.63577,30.83167,31.12762,30.64467,31.27056,30.68624,30.56895,30.60434,30.38871,29.9721,29.48367,28.50814,27.82426,27.29767,26.72483,26.0887,25.0417,24.5916,23.57779,22.68839,21.45838,20.54103,19.56779,17.81532,16.51425,15.47863,13.75261,12.11123,10.30802,8.848448,7.810305,5.85872,4.495334,2.478577,1.002123,-0.5026496,-2.625574,-4.131192,-5.825692,-7.365256,-8.813967,-10.26895,-12.07619,-13.36486,-14.67214,-16.20958,-17.40107,-18.83261,-20.4822,-21.43185,-22.88054,-23.57161,-25.16373,-26.36118,-27.0617,-27.72002,-28.54853,-29.30374,-29.61745,-30.55441,-31.36791,-31.79016,-31.9719,-32.05698,-32.25716,-32.46406,-32.75126,-32.44081,-32.06846,-32.40255,-31.56101,-31.41197,-31.34418,-30.94089,-30.37119,-29.4438,-29.25115,-28.82104,-28.22866,-27.58443,-27.14301,-26.14205,-25.61228,-24.37589,-23.63801,-22.96381,-22.21882,-22.06256,-21.15281,-20.35125,-20.27435,-20.31779,-20.09463,-20.01656,-19.75335,-19.25325,-17.90629,-16.85706,-16.31198,-15.50405,-15.11093,-14.3419,-13.04661,-12.4831,-11.6908,-10.71948,-9.881073,-9.087842,-8.265575,-7.526506,-6.112861,-5.635215,-4.872951,-4.456384,-3.49095,-3.302534,-2.323958,-2.086945,-1.199998,-0.785945,-0.473048,0.4199721,1.065997,1.703416,2.48042,2.396035,3.368813,3.903069,4.511436,4.889753,4.920257,5.616014,5.820032,5.708454,6.278227,6.420767,6.393426,6.292295,6.19179,6.428328,6.327087,5.605779,5.812843,5.114816,5.214579,4.919719,4.721353,4.820537,4.576907,4.818566,4.403996,4.069648,3.675535,4.244418,4.452712,3.797159,3.402609,3.73358,4.204824,3.97488,4.04942,4.106064,4.600656,4.989703,5.14075,5.049687,5.280889,5.976471,6.284859,6.063116,6.601305,7.212761,8.127678,8.794119,9.389257,9.534181,10.23616,10.96386,11.76788,12.37969,13.02859,13.43012,14.18083,15.42173,15.99267,16.56421,17.06103,18.14384,18.53954,19.66174,20.15966,20.97965,21.87905,22.44919,22.43305,22.31423,22.66684,22.97335,24.18756,24.76424,25.22026,26.09666,26.98123,28.77204,28.96729,29.87667,31.33691,32.04339,32.87641,33.47902,34.25655,35.02253,36.09263,36.44377,37.01195,37.8579,38.07596,38.29357,38.8354,38.87801,38.79889,38.48468,38.62668,38.16057,38.13041,37.63672,37.1593,36.28798,36.02549,34.86282,34.19415,33.06531,31.53954,30.70574,29.25675,27.58071,27.00317,24.92496,22.81336,19.628,17.29648,16.02787,14.37894,12.74628,10.89262,9.577042,7.847373,6.205218,4.863099,3.403813,1.574485,-0.08303013,-1.515073,-3.458264,-5.088215,-6.949549,-9.067936,-10.89424,-13.14046,-15.13938,-17.95725,-19.96892,-21.90647,-23.39546,-25.64214,-28.21718,-29.74225,-31.2805,-33.30801,-35.2314,-37.20872,-38.98124,-40.4331,-42.41402,-44.27411,-45.77768,-47.04357,-48.09163,-49.22548,-50.78046,-51.28382,-51.98787,-52.72125,-53.49915,-54.21532,-55.00282,-55.19156,-55.42367,-55.99738,-56.43812,-57.01084,-56.71624,-56.42715,-55.51079,-54.73092,-53.87849,-54.15223,-54.048,-54.78341,-54.53069,-55.0473,-56.02534,-56.40519,-57.75321,-58.51813,-59.23695,-59.33691,-59.8695,-59.49574,-59.53028,-59.8257,-59.59093,-59.77635,-59.33848,-59.51658,-58.23525,-58.1399,-57.77922,-56.9268,-56.46476,-55.52857,-54.44409,-52.76744,-51.36561,-49.77569,-48.46321,-46.64439,-44.54867,-42.45691,-41.01456,-38.62473,-36.16081,-34.16112,-31.92468,-29.18807,-27.15846,-24.58862,-22.06103,-19.5916,-17.3502,-15.10681,-13.12418,-11.10875,-8.668897,-6.999091,-4.635432,-2.621915,-1.570964,-0.01063297,2.926796,5.852467,9.071353,11.31041,13.83785,16.51047,19.78896,21.50122,24.04165,26.28603,28.20286,30.46442,32.2162,34.22803,35.47054,37.51897,38.98289,39.9659,41.39513,42.0629,43.73301,44.30787,45.22022,45.94926,46.19133,46.30048,46.60933,46.62488,46.26088,45.63232,45.15352,44.38483,43.99652,42.48875,41.71682,40.47754,39.29833,38.44263,37.3283,35.82376,34.18049,33.70062,32.2307,30.42222,29.53683,28.31829,26.98373,26.39494,25.04587,24.31453,24.02212,23.56727,23.70287,23.799,23.53942,23.11698,21.69208,20.75014,20.51755,19.60763,19.08816,18.85777,18.34218,18.0715,16.99569,16.66522,16.11553,15.6649,15.1582,14.95818,14.13041,13.65847,13.35562,13.17258,12.80075,12.37844,12.38343,11.86989,11.60326,11.3148,10.60503,10.86966,10.72475,10.49771,9.91914,9.597644,9.374448,9.492148,9.039737,8.47922,7.566166,8.073677,7.903217,7.441258,6.990201,6.862468,6.922853,6.984737,6.397138,6.036455,5.841059,5.837757,5.955118,5.432508,6.048197,5.871272,6.262573,5.894653,5.989265,6.149488,6.42044,6.335139,6.508668,6.025011,6.320855,6.037493,5.862667,5.072674,5.451459,5.377316,5.162459,4.927525,4.814838,4.956186,4.727874,4.584144,4.422849,4.020111,4.314687,4.385171,4.144026,3.483065,3.629732,3.023928,2.466119,2.214274,1.956095,1.045713,0.5152615,0.02221361,-0.1108485,-0.7113754,-1.479341,-2.457766,-2.343838,-3.369082,-4.181001,-4.747597,-5.672447,-6.062991,-6.750574,-7.246132,-8.524635,-9.205023,-9.336129,-10.23937,-11.28722,-11.93193,-12.95626,-13.07951,-14.1319,-15.296,-15.88628,-16.69115,-17.42045,-17.76336,-18.54188,-18.72277,-19.22368,-19.83043,-20.22791,-19.80128,-19.42109,-20.01705,-20.30583,-20.23723,-20.68939,-20.31533,-20.55793,-20.88589,-20.91806,-20.69905,-20.6845,-20.57094,-20.93069,-20.65835,-20.18065,-20.39206,-20.50188,-20.52496,-20.40268,-20.04707,-19.87696,-19.5018,-18.97762,-18.76612,-17.67476,-17.31429,-16.85657,-17.02867,-15.85073,-15.04021,-14.30917,-14.01374,-13.59596,-12.18683,-11.28813,-10.54443,-10.16108,-8.993625,-7.754505,-6.787863,-6.068641,-5.530912,-4.014401,-3.534984,-2.336122,-1.550884,-0.5528893,0.01066551,1.368978,2.041418,2.914365,3.341209,4.14434,4.691621,5.660966,6.216257,6.997318,7.871492,8.820628,9.192501,9.852454,10.56752,11.52275,12.14515,13.09455,13.15463,14.31037,14.52823,14.69491,15.36605,15.82856,15.99511,16.50135,16.42626,16.90191,15.94218,16.91737,17.28647,17.70464,17.68639,18.18662,18.01386,18.88842,18.86043,19.58622,19.77609,20.72837,21.05173,21.15764,22.00157,22.37479,22.91464,23.50952,23.36378,23.65843,23.82395,24.23818,24.13626,24.30025,24.4669,24.48237,24.93713,24.47703,24.82651,24.62957,24.63749,24.28577,24.02242,24.2433,24.35486,24.25196,23.22352,22.76312,21.98507,20.99973,20.94957,19.28469,18.3854,17.55174,16.46506,15.10094,14.24925,12.98837,10.99133,9.390859,8.089558,6.939537,5.722764,5.238294,4.001709,3.211348,2.255389,1.139616,-0.1413942,-0.8062882,-2.378212,-3.804228,-5.322797,-5.560043,-6.88646,-7.814855,-8.904686,-9.756461,-10.39033,-11.30239,-12.21699,-13.54283,-14.05613,-14.81612,-15.99543,-16.63983,-17.63614,-17.99082,-19.12731,-19.28837,-19.92602,-20.65994,-21.00978,-21.30483,-21.57334,-21.86329,-22.44226,-22.8293,-22.1543,-22.37725,-21.92391,-22.24012,-21.30778,-21.34795,-21.3122,-20.93521,-19.82045,-19.53523,-19.45622,-18.89966,-18.71468,-18.00949,-17.97128,-17.38406,-17.07906,-16.95487,-17.12312,-17.01979,-16.8716,-16.04718,-15.83623,-14.7255,-14.43235,-14.21014,-13.92576,-13.2398,-13.24025,-12.05502,-11.08203,-11.24389,-10.70261,-9.986453,-9.143607,-8.478131,-7.501077,-7.45511,-6.289282,-5.674248,-5.152572,-4.468029,-4.234944,-3.032135,-2.96199,-1.965526,-1.494601,-0.7078824,-0.1303492,-0.1036901,0.8573848,0.8693886,1.551335,1.990944,2.344225,3.045569,3.541841,3.90986,4.236701,4.23407,4.127816,4.794593,4.666778,4.486466,4.488385,4.664417,4.203484,3.838771,4.279751,3.466289,3.328275,4.437265,4.857046,4.606181,5.350594,5.852073,6.153317,6.275073,6.523824,6.384464,6.612866,6.604748,6.53396,6.550716,6.937379,7.275864,7.459786,7.401609,8.054082,8.088561,8.295194,8.42213,8.595734,9.011635,8.994964,9.73384,9.628835,9.44598,9.319522,9.848637,10.08791,10.20422,10.16799,9.816816,10.67308,10.65293,10.43487,10.63992,10.94253,10.96597,11.55301,10.95435,11.15308,11.12435,11.58081,11.28324,11.29647,11.69427,11.97218,12.10554,11.71869,11.40089,11.26522,11.37194,11.52244,10.50684,10.50361,10.73158,11.19307,11.59308,11.2159,11.52176,11.55497,11.85995,12.14548,12.05156,12.18309,12.5808,13.07621,13.50432,13.66003,13.10122,13.78888,14.30276,14.92825,14.24237,14.34421,14.45845,14.76753,14.41003,14.25648,13.55818,13.73996,13.88299,13.21931,13.33933,12.54046,12.44091,11.82096,11.58255,11.10439,10.27357,10.64765,10.0819,9.574771,9.042263,8.061508,6.911435,6.588988,5.620819,5.182555,4.13881,2.614844,2.61876,1.529357,0.727307,-0.5688092,-1.662746,-1.678425,-3.579816,-4.086634,-4.908977,-5.629885,-6.502025,-6.980507,-7.877024,-8.462345,-9.8138,-10.83836,-11.47743,-12.25922,-13.29634,-13.79168,-13.95628,-14.61355,-15.48445,-15.72632,-16.37062,-16.54165,-17.16887,-18.00591,-17.96805,-18.17607,-18.14953,-18.98115,-18.93599,-19.63486,-19.80674,-19.46897,-19.26382,-19.39419,-19.65307,-19.59248,-18.65627,-17.63636,-18.17116,-17.98176,-17.18312,-17.89522,-17.78271,-18.2552,-18.10169,-18.5371,-18.80382,-18.72067,-19.52779,-19.73035,-19.97794,-21.0735,-21.37934,-22.56246,-22.66539,-23.67121,-24.48695,-24.59707,-25.89192,-25.60955,-26.11969,-26.71824,-26.92217,-27.34636,-27.38682,-27.41202,-27.60418,-27.52457,-27.92424,-27.66272,-27.39804,-26.85632,-27.12962,-27.10577,-26.81476,-25.71919,-25.19264,-25.41887,-24.76996,-24.29132,-23.29225,-22.81536,-22.0729,-21.83033,-21.55168,-19.82684,-19.60156,-19.008,-18.24504,-17.33839,-15.89894,-15.41699,-14.35114,-13.42615,-11.77808,-10.05229,-9.70751,-9.166762,-8.236505,-7.297684,-6.11338,-5.06624,-4.450822,-3.59348,-2.943367,-2.065991,-1.343998,-1.238695,-0.4394648,0.04997561,0.5437825,1.340426,1.269632,2.096097,2.865241,3.513638,3.041013,3.776333,4.396162,4.942773,4.728091,4.701185,5.782355,5.547239,6.221812,6.327567,6.327888,6.238129,6.232049,6.252714,6.306729,5.948735,5.217705,6.040676,6.387777,5.913707,6.069884,5.312721,6.486047,6.903655,7.308441,7.798148,8.428521,9.026488,9.596938,10.13991,11.19404,11.63017,11.49545,12.2281,12.71676,12.78103,13.66189,13.7694,14.83169,14.70145,15.29271,15.96471,15.86798,16.94238,17.00243,17.56249,18.1166,18.34258,18.60914,18.5987,19.24547,19.62184,19.72385,20.00957,19.95581,20.33208,20.64587,20.63742,20.62939,21.18869,20.92513,21.08346,20.9182,21.28691,20.98944,21.13359,20.81108,21.11659,21.51626,21.74628,21.05247,21.06597,20.9821,20.89427,21.06978,20.80871,20.78315,20.51939,20.72853,21.21921,20.50705,20.45756,20.03078,20.24342,19.77282,19.50204,19.69831,19.51683,19.34984,18.94091,18.10084,18.40168,18.04916,17.08681,16.70659,16.73158,16.01475,15.24626,14.85311,14.38403,13.98547,13.55383,13.09402,12.74773,11.89467,11.52559,11.10127,10.73442,10.5412,10.26035,9.634106,9.988154,9.599107,9.695161,9.279261,9.407504,9.412257,8.937349,9.543169,9.289695,9.121622,9.058975,8.935815,9.018392,9.907131,9.159845,9.592205,10.46558,9.841495,10.47482,10.46161,11.14277,11.30748,10.97578,10.68561,10.44664,10.31099,10.33727,11.06727,11.41911,12.13169,12.7105,13.27986,14.16126,15.07578,15.62367,16.52414,17.2445,18.15126,18.47319,19.31423,19.90096,20.59771,21.0562,21.53749,22.21318,21.92641,22.56264,22.47377,22.9587,22.24101,22.58244,22.78333,21.87376,21.49574,21.45789,20.70604,19.81551,18.78783,17.65957,16.39782,15.14007,14.25541,12.77226,11.2088,10.11448,8.567174,7.184308,5.940255,4.166656,2.631345,0.9072375,-0.6641183,-1.496426,-3.709939,-5.103721,-6.716949,-8.60785,-9.988093,-12.079,-13.58586,-15.30551,-17.23046,-18.09007,-19.80404,-20.9964,-22.25965,-23.83283,-25.05736,-25.70282,-27.53166,-28.19481,-30.0599,-31.20725,-31.65893,-32.24916,-33.65571,-34.14792,-34.56651,-35.40754,-36.04841,-36.69667,-36.97065,-37.12941,-37.75728,-37.77941,-38.15862,-38.33384,-37.91267,-37.94424,-37.36234,-36.94173,-36.84499,-36.04211,-35.93352,-34.10352,-33.56715,-31.98104,-31.363,-30.79248,-30.89897,-30.4393,-30.10033,-29.88529,-29.5263,-30.96837,-30.63513,-31.3472,-31.95057,-32.60774,-33.8018,-34.73806,-36.53891,-37.31797,-38.47051,-38.97565,-39.34149,-39.94669,-39.79332,-41.02816,-41.13487,-40.77986,-41.08218,-41.3497,-40.93326,-41.00862,-40.88235,-40.53253,-40.37259,-39.91446,-39.31716,-38.49441,-37.88385,-36.82035,-35.97456,-35.22196,-33.69956,-32.50673,-31.37718,-29.92093,-28.55494,-26.7816,-25.26134,-24.16629,-21.90611,-20.44591,-19.14363,-17.95415,-15.76876,-14.15071,-12.00897,-10.27186,-8.286184,-6.782045,-4.837302,-2.487751,-0.2965841,1.567072,3.368813,5.115951,6.7054,8.848336,10.29073,12.25774,13.50768,15.32316,16.97401,18.36628,19.82925,21.1948,22.83283,23.51036,24.39089,25.44586,26.3345,26.99964,27.57115,28.01058,27.73507,28.76954,28.32605,28.80158,28.29427,28.32968,28.86586,28.49668,27.79418,27.3387,26.9399,25.96197,25.67929,25.16167,24.90252,23.7228,23.22606,22.59139,22.15331,22.13755,22.24099,21.47087,21.62737,21.12061,22.28445,22.24111,22.4688,24.00833,23.17175,23.39379,22.95304,22.53979,21.97182,22.88729,22.35038,22.06548,21.58654,21.33418,21.2875,20.947,20.54637,20.0468,19.70487,19.05854,18.73556,18.34342,17.92832,17.21576,17.1847,16.41844,16.04632,15.1775,15.09868,14.66788,14.03663,13.66221,12.92779,12.1831,11.68173,11.42077,10.23522,10.55624,9.702154,9.339876,8.698682,8.586831,7.455603,7.279986,7.236833,6.364202,6.024412,5.534535,4.540002,4.988328,4.334125,3.73471,3.679861,2.382294,2.1554,1.770461,1.981508,0.781898,0.9569411,0.6654584,0.09658607,0.4830582,0.02726273,0.2407262,-0.1579631,-1.038262,-0.4360654,-1.094727,-1.163614,-0.7739465,-1.426069,-0.8848455,-1.48044,-1.061543,-1.123014,-1.298629,-1.128441,-1.711685,-2.148396,-2.147613,-2.516752,-2.231227,-2.855267,-3.028008,-3.077018,-3.229678,-3.983591,-3.397435,-4.044712,-4.317298,-4.27214,-4.592748,-4.608686,-5.491682,-5.951955,-6.25434,-6.810764,-7.60524,-7.714284,-7.924746,-8.42808,-9.230631,-9.69216,-10.40999,-11.08352,-11.38453,-12.35253,-13.40223,-13.45257,-14.35301,-14.41278,-15.85749,-16.57579,-16.89086,-17.76536,-18.30965,-19.22806,-19.75531,-20.30394,-20.64641,-21.67167,-22.00103,-22.09651,-22.78999,-23.6251,-23.7559,-24.3452,-24.64262,-25.35558,-25.05635,-24.64209,-24.5391,-24.85613,-24.88059,-24.91955,-25.64377,-25.82377,-26.59866,-26.98468,-27.50779,-27.86403,-29.03582,-28.76501,-29.53938,-29.88986,-29.572,-30.74598,-30.40505,-31.14779,-31.39576,-31.55859,-31.74993,-32.36577,-32.09085,-32.49947,-32.22968,-32.63147,-32.48313,-31.96096,-30.64752,-31.65578,-30.56097,-29.71997,-28.89543,-28.29872,-26.77631,-26.07626,-25.02036,-23.25987,-22.40304,-20.7166,-18.7607,-17.7616,-16.0932,-14.42007,-12.79374,-10.53539,-9.46248,-7.058949,-5.746671,-3.350677,-1.683506,0.335439,2.361248,3.750923,6.102452,8.058914,9.378771,12.04848,13.90781,15.31501,17.78834,19.18967,21.31792,23.04723,24.45852,26.42618,28.02745,29.5704,30.75442,32.61227,33.79764,35.14158,35.90883,36.91339,37.9221,39.22814,40.11011,40.84461,41.51507,41.29748,42.06686,42.27055,42.24463,42.64375,42.89022,42.5811,42.31948,42.32317,41.26171,41.27326,40.75909,39.78889,39.26607,37.99255,36.59293,35.97674,35.63718,34.96359,34.61798,34.75493,34.6485,34.81566,34.81112,35.47204,36.04923,36.84921,37.96676,38.68316,40.08523,40.93186,41.4067,41.78948,42.14367,41.94702,42.47808,42.76109,42.99588,43.24194,43.32086,43.05073,43.42089,43.58757,42.57161,42.67777,42.58899,41.24953,40.88071,40.35825,39.21087,37.73198,37.46736,35.8344,35.12986,33.49148,32.79209,30.6231,29.76363,28.37892,26.48495,24.35987,23.41707,21.82727,20.51615,17.8501,16.514,14.03794,12.75646,10.65708,8.657484,7.267242,4.850972,3.193586,1.233164,-0.6286395,-2.833995,-4.632929,-6.360722,-7.829168,-9.744203,-11.16849,-13.53154,-14.02354,-16.00353,-16.5276,-18.68557,-19.5037,-20.87208,-21.17259,-22.91976,-23.49257,-24.09794,-24.15527,-24.75493,-24.9148,-25.57517,-25.71015,-25.64541,-25.40019,-25.27288,-25.32814,-24.9235,-24.78308,-24.46499,-24.10585,-23.66941,-23.52735,-22.95414,-22.87173,-21.81467,-21.95543,-20.51624,-20.42225,-19.92383,-19.43439,-19.55829,-19.38578,-18.76977,-18.90193,-19.08667,-19.30657,-19.34338,-20.24936,-20.37596,-20.2508,-20.42035,-20.28446,-19.64113,-19.46337,-19.38595,-18.87699,-18.91692,-18.52345,-18.36003,-17.69607,-17.69447,-17.61581,-16.57734,-16.38018,-15.82036,-15.31127,-15.90045,-14.90835,-14.30564,-14.00937,-13.30966,-13.28234,-12.45569,-12.79813,-12.12326,-12.08675,-11.79037,-11.36739,-11.21718,-10.35364,-10.48127,-10.77031,-10.53428,-9.315174,-9.60635,-9.41048,-8.931002,-8.689044,-8.124946,-7.987235,-8.003839,-8.083461,-7.832652,-7.626473,-7.43689,-7.614633,-7.13403,-7.166599,-6.708707,-7.51682,-7.306022,-7.555749,-6.591571,-6.387166,-6.875984,-7.281192,-7.860616,-7.658326,-7.933787,-8.298558,-8.518904,-8.784684,-8.686502,-8.850288,-8.723657,-9.205754,-8.868005,-8.510763,-8.65064,-8.689345,-9.146851,-8.765642,-8.263352,-8.315191,-8.292307,-7.836519,-7.456289,-7.15303,-6.785115,-6.569068,-6.18638,-5.708365,-5.701957,-5.042273,-4.791228,-4.950431,-4.306037,-4.505295,-4.06113,-3.864019,-3.68557,-3.962552,-2.519639,-2.59217,-1.868237,-2.526345,-1.805947,-1.984456,-1.327729,-1.382665,-1.372654,-1.264978,-0.6482029,-0.6237047,-0.4880275,-0.7690099,-0.07806255,-0.1433613,0.4342662,0.2379326,-0.2627396,-0.02138172,-0.09764086,-0.1872869,-0.741942,-0.8688006,-1.131196,-1.337033,-1.410274,-0.7458994,-1.25811,-0.9551918,-0.8318944,-1.521456,-1.122554,-1.886285,-2.151258,-1.674296,-2.966516,-3.208726,-3.659309,-4.720735,-4.741159,-6.436956,-6.354406,-7.248488,-7.914962,-8.381749,-9.267784,-9.716111,-10.54233,-11.24491,-11.03432,-11.59525,-12.16271,-12.51042,-12.61574,-12.27403,-12.60546,-12.97537,-12.88699,-12.4661,-12.85774,-11.88419,-11.99908,-11.50085,-11.09633,-10.71315,-9.638926,-9.547048,-8.503382,-7.962893,-7.218504,-7.169433,-7.164189,-6.216193,-5.109102,-4.364391,-3.893091,-3.278179,-1.3645,-1.190576,0.08591236,1.549511,2.785521,3.080013,4.729388,4.991938,6.459084,7.534776,8.555828,9.027524,10.83995,11.08383,12.63945,13.52771,14.43554,15.39897,16.79841,17.38283,18.42451,18.6784,19.32347,20.83677,20.59732,21.207,21.67775,22.0701,22.27828,22.6677,22.99556,23.4854,24.08856,23.88421,23.72412,23.85505,24.0241,23.74938,23.97164,23.20227,23.30943,23.12112,22.53753,22.37983,21.30825,21.40553,21.64442,20.87807,20.54105,20.79992,20.52732,20.53174,19.84691,20.67981,20.07645,21.33476,21.20612,21.6162,22.09223,22.23333,22.38604,22.59165,22.05907,22.64535,22.24413,21.77735,21.86415,21.42272,21.00461,21.61062,20.51516,20.09633,20.09109,18.93273,18.51614,18.44424,17.3425,16.61651,15.86289,15.6565,15.00779,13.92955,13.1973,12.19995,11.72845,10.88366,10.14627,8.780933,8.75468,7.123742,6.727105,5.613513,4.838697,3.675283,2.456559,1.750983,0.751111,0.04919456,-0.8478597,-1.479776,-2.934909,-4.216594,-4.768219,-5.542311,-6.272827,-7.190373,-7.458725,-8.687235,-9.236718,-9.899498,-10.20629,-11.58202,-11.70006,-12.32126,-13.49826,-14.05078,-14.0466,-14.66468,-14.83655,-15.06725,-15.6318,-15.50667,-15.65428,-15.92257,-15.98271,-16.23128,-15.8607,-15.69788,-15.79995,-16.03736,-15.80454,-15.5806,-15.2752,-15.15121,-14.85496,-14.29135,-13.48641,-13.12186,-13.05369,-11.70617,-12.00909,-11.17663,-10.85539,-10.11847,-10.09352,-9.613295,-9.187607,-9.098219,-8.565064,-8.932247,-8.190192,-8.599658,-8.084779,-7.852569,-8.286143,-7.255639,-7.191865,-6.891715,-6.79151,-6.403348,-6.225098,-6.011111,-5.6751,-4.709142,-5.059356,-4.720068,-4.818491,-4.4335,-4.749653,-4.570904,-4.693477,-4.500883,-4.960894,-5.177604,-6.066997,-5.257234,-6.284288,-6.016951,-6.475052,-6.607566,-7.81342,-7.532888,-7.922408,-8.533763,-8.177883,-8.611872,-9.285232,-9.04121,-9.667525,-9.939064,-9.995633,-10.62948,-10.37135,-10.79288,-11.0282,-11.38974,-11.6797,-11.63862,-11.16185,-12.02774,-11.48421,-11.48787,-11.21502,-11.156,-10.58894,-10.54052,-9.950557,-9.678118,-9.053251,-8.72192,-9.12296,-7.499037,-6.727367,-6.459616,-5.733175,-4.837072,-4.06033,-3.740793,-2.69083,-2.402555,-1.701956,-0.7590195,-0.2864451,0.7074167,0.8094421,1.89651,2.13222,2.897927,3.287409,4.102267,4.396158,5.444552,5.646198,5.988722,6.650087,6.607013,7.11609,7.452332,7.683736,7.570871,8.283809,8.808381,8.899914,9.408971,10.21037,9.76108,10.13259,10.14135,10.26636,10.67041,9.375955,10.80746,10.13646,10.23127,10.13729,9.717984,10.14402,10.15966,9.648869,9.373718,9.22063,9.020258,9.230774,8.593794,8.994244,9.174365,8.889368,9.474395,9.034755,9.901712,9.313292,9.622419,10.13028,10.17532,10.21989,10.38977,11.11871,11.5287,11.61507,12.0485,11.94513,12.46048,12.45273,12.35195,12.63996,13.2425,12.13724,13.50081,12.54935,13.35499,12.51413,12.98124,13.18527,13.26807,13.14046,12.54979,13.03871,12.31531,12.32926,11.72817,12.00738,10.89617,10.80768,10.14594,9.501826,8.885437,8.59874,7.849698,7.443086,6.229406,5.85754,5.159956,4.074064,3.878903,2.653561,1.571489,1.12522,0.3145166,-0.4634606,-1.73783,-1.758324,-2.530177,-3.394461,-4.126227,-4.908188,-5.322794,-6.842831,-7.00794,-7.686798,-8.916444,-9.651849,-10.87693,-11.2894,-11.95649,-13.04655,-13.74798,-14.47867,-14.68524,-15.4074,-15.76196,-15.84198,-16.65357,-16.98948,-17.47957,-17.47034,-18.05513,-18.12781,-17.41451,-17.74768,-17.51809,-16.5161,-17.21652,-17.16349,-17.13423,-17.53592,-17.95652,-17.21497,-17.81963,-18.72388,-18.24679,-19.61252,-19.40551,-19.80704,-19.76927,-20.32122,-20.88986,-20.83681,-21.42365,-21.74389,-21.84001,-21.74277,-21.5713,-21.83568,-21.72518,-21.14468,-20.7241,-21.10661,-20.32619,-19.95852,-18.8594,-18.66357,-17.28022,-16.90758,-15.47334,-14.50188,-13.46721,-12.28247,-10.65555,-10.25623,-8.827437,-8.154247,-7.115954,-5.999573,-4.988875,-4.018308,-2.853212,-2.895034,-0.6316092,-0.8365593,0.9225265,1.12943,3.141772,3.589016,4.469917,5.017713,6.543221,6.495466,7.079167,7.913635,8.116388,9.383272,9.400449,10.34936,10.44001,11.234,11.43108,12.04837,11.80026,12.66751,12.58866,13.22595,13.28671,12.80498,13.84026,13.1363,13.34902,13.463,12.96993,13.09567,13.09217,13.14735,12.4183,11.92364,11.86573,11.25912,11.23342,10.65779,10.13227,10.02028,8.685607,8.534742,8.37126,8.160785,7.373088,7.035088,6.623297,6.217669,5.920435,6.072466,6.08446,6.169846,5.837103,6.626764,6.384965,7.134538,7.339304,7.979932,8.643697,8.268904,8.752942,8.565532,8.07393,8.636251,8.804579,8.967316,9.280611,9.370497,9.339487,8.537717,9.645958,8.372145,9.148585,8.847772,7.948127,7.788151,7.672583,7.191501,6.603775,6.543646,5.706306,5.880342,4.943868,4.342854,4.345901,3.933678,3.676409,3.221305,3.641184,3.375119,3.064111,2.651334,2.436834,2.522276,2.675853,2.162838,1.822888,2.3677,1.693403,1.042441,1.132207,0.5134118,0.7491989,0.3064566,0.8207865,-0.01569346,-0.1581946,-0.2069973,-0.07866035,-0.5544566,-0.08314905,0.3590598,-0.366033,-0.2116122,-0.7668278,-0.591659,-0.5683599,-1.521746,-0.8969854,-1.959538,-1.731655,-1.398138,-1.769433,-2.41012,-3.288874,-2.979792,-3.288427,-3.189337,-3.201804,-3.203949,-3.933924,-3.761152,-3.845772,-4.37276,-3.652094,-4.382522,-4.062242,-4.596923,-4.635757,-4.618743,-5.158854,-5.476345,-5.420057,-5.954388,-5.515197,-6.338457,-6.630387,-6.866602,-7.804772,-7.090728,-8.408141,-8.501413,-8.525152,-9.925729,-9.805539,-10.24978,-11.07845,-11.11465,-10.86898,-11.51491,-11.38044,-12.31815,-11.75097,-12.63323,-12.09585,-13.3561,-13.24288,-13.7683,-13.56323,-14.37156,-13.527,-13.60186,-12.85181,-12.70006,-12.72873,-12.83132,-12.79793,-13.17551,-13.37801,-13.9382,-14.15966,-13.85321,-13.75514,-14.62009,-14.76046,-15.10974,-14.78141,-15.23686,-15.54069,-15.87494,-16.4325,-16.45633,-16.98779,-16.93238,-16.39796,-16.66646,-16.71157,-16.11833,-16.44297,-16.57347,-16.24365,-15.74512,-15.9113,-15.26539,-15.32807,-14.60585,-14.71039,-13.80604,-13.63138,-13.29027,-12.17397,-12.21263,-10.63745,-10.59624,-8.695234,-9.200856,-8.260376,-6.37722,-6.334622,-4.383284,-4.057486,-3.103717,-2.59606,-0.6334156,-0.9867166,0.792649,0.8688953,2.480919,3.356669,3.761003,5.335313,6.27644,6.626649,7.67988,8.882106,9.823927,11.56669,11.89426,13.35637,14.14677,15.03622,16.30276,17.06246,18.07852,19.3882,19.65088,20.92333,21.50919,22.96544,23.03692,23.93943,24.25299,25.62694,25.61084,26.82019,26.66225,26.71787,27.60487,27.82934,28.44731,27.53038,27.06771,27.39993,27.3689,27.71919,27.29332,26.99271,27.50997,27.67786,27.07957,27.981,27.49386,28.95148,28.31203,29.54413,29.0569,29.76577,30.55693,31.96741,32.14186,33.85296,33.77824,34.48163,34.34702,34.58961,35.58662,34.95599,35.34194,35.97179,35.83318,35.49858,36.57614,35.03995,34.92153,34.63852,33.61818,33.79685,31.94871,31.58684,30.68718,30.00684,29.05845,28.48677,27.21912,26.53624,24.49206,22.96442,21.89476,20.08872,19.36458,18.41977,16.85224,15.33912,14.87791,13.56907,12.75081,10.3437,10.04955,8.62336,7.493323,6.879933,4.999223,4.667695,2.815241,2.198315,0.3357971,-0.1877993,-1.257807,-2.847064,-3.21705,-5.187277,-5.746123,-6.671119,-7.936491,-8.726224,-9.555185,-9.964573,-10.62981,-11.45024,-12.30122,-12.60836,-13.12132,-14.76012,-14.63183,-15.21745,-15.71892,-15.18154,-16.56402,-16.51497,-16.03984,-16.45433,-16.50441,-16.73617,-16.29098,-15.88192,-16.02683,-16.03765,-16.1711,-15.4059,-15.85833,-15.10421,-15.50608,-15.24835,-15.29648,-14.83891,-15.55184,-15.67965,-15.37323,-16.15814,-16.54668,-16.98954,-17.85703,-16.88769,-17.66685,-17.69698,-18.33066,-18.68516,-18.44703,-18.72899,-18.97778,-18.59293,-18.96729,-19.36146,-19.67122,-19.60478,-19.49846,-19.83743,-19.20035,-19.72345,-19.54502,-19.15693,-19.74059,-19.51821,-19.28123,-18.9705,-18.88115,-19.39093,-18.66384,-18.77252,-18.98991,-18.90376,-18.76926,-19.25603,-18.57844,-18.82273,-19.32641,-19.01748,-19.27742,-18.58944,-19.14414,-19.33248,-19.76251,-19.73401,-20.8738,-20.56698,-21.62608,-21.48983,-21.06845,-21.30973,-20.53935,-21.39338,-20.94513,-21.5148,-20.63594,-21.12094,-21.36223,-21.03182,-20.63133,-20.09573,-20.18029,-19.76216,-19.36739,-19.25634,-18.8128,-18.53036,-17.9572,-17.70989,-17.3831,-17.0982,-17.0112,-17.17995,-16.21761,-16.24778,-16.10575,-15.80868,-15.06912,-15.10164,-15.47068,-14.49917,-15.19608,-14.51189,-14.89039,-15.19023,-13.83804,-14.41772,-14.29595,-13.82745,-14.85026,-13.87057,-14.3115,-14.09152,-14.45225,-14.34389,-14.69261,-14.16992,-15.08986,-14.3623,-14.15509,-12.70885,-13.0859,-12.8106,-12.86739,-12.4988,-12.68498,-12.84779,-13.67547,-13.95076,-15.34373,-16.38629,-16.74351,-17.82403,-19.20426,-18.72433,-21.05476,-20.99652,-22.08849,-22.51049,-22.70904,-23.66459,-24.25729,-24.94648,-25.41052,-25.68295,-25.67984,-26.08487,-25.42685,-26.15693,-25.61275,-25.35848,-24.88274,-24.38779,-24.41121,-23.253,-22.99647,-22.23016,-21.25859,-20.25294,-19.03686,-18.35273,-16.97473,-16.05768,-13.97095,-13.21083,-10.12044,-9.565328,-7.189497,-5.694998,-2.698939,-1.591381,0.3714494,2.414562,4.424474,7.143437,8.818326,11.10918,13.17211,15.81585,17.85536,20.11108,22.72371,23.90934,27.42951,28.31672,31.25024,32.69512,34.92487,37.40955,38.77544,40.96151,41.84613,44.125,45.43776,46.98034,49.12102,49.56241,51.20633,51.87112,52.71739,53.43452,53.71423,54.6318,55.36242,55.21099,55.61952,55.761,56.02373,55.58995,55.55267,55.16469,54.83395,54.48757,53.22108,52.13949,51.45972,49.1063,48.19843,47.21275,45.59058,45.5682,44.77795,44.6761,44.64883,44.63773,45.29955,46.66351,46.99037,48.70172,49.12401,50.24958,50.5494,51.35754,51.36827,52.00399,51.95446,52.0684,51.64644,51.31995,50.89884,51.52073,50.62328,49.9347,49.82919,48.92495,48.56272,47.90072,46.7566,45.99893,44.46726,42.62336,41.60726,40.21667,38.90171,37.2466,35.90937,34.58045,33.1995,30.59812,30.04795,27.43608,25.9861,23.34546,21.11807,19.08416,16.97559,15.10437,12.33246,9.567027,7.706035,5.071062,2.919996,-0.06205379,-1.827098,-4.247242,-6.090443,-9.542846,-11.39676,-14.25692,-15.95409,-19.29285,-20.49136,-23.22282,-25.27782,-26.87139,-29.28432,-30.94041,-32.37783,-33.85299,-35.7056,-36.49187,-38.29034,-39.4087,-40.14522,-42.09791,-41.7646,-42.65164,-43.31646,-43.42135,-44.17707,-43.90809,-43.80813,-43.87782,-42.44632,-42.34119,-41.51682,-41.71976,-40.24823,-39.94145,-39.03327,-38.14067,-37.87756,-36.70331,-35.40382,-35.11353,-33.9375,-33.27215,-32.18692,-31.82133,-31.59252,-30.98563,-30.51596,-31.42313,-31.28922,-30.97497,-31.105,-31.34357,-30.29657,-29.98655,-29.15156,-28.79723,-27.32763,-27.44681,-25.8088,-25.4653,-24.17132,-23.46109,-22.76482,-22.03602,-21.52602,-19.87485,-19.17484,-18.56611,-18.10916,-16.22384,-15.7531,-14.98598,-14.03223,-13.36398,-11.94363,-11.90083,-11.49417,-10.02564,-9.525123,-9.273728,-7.564157,-7.837635,-7.153316,-6.305931,-6.651115,-5.628521,-4.845363,-4.518636,-3.724838,-3.490097,-2.376726,-2.050493,-1.780715,-1.266168,-0.2139077,-0.6978797,-0.04014961,-0.06353782,0.6646888,1.24204,1.339574,1.77961,1.473818,1.722271,2.611968,1.740157,2.142117,1.801367,2.425099,2.408467,2.220887,2.257154,2.24329,2.139685,1.935521,2.171847,2.347093,1.554784,1.819465,1.679408,1.631515,1.5702,1.344194,1.11138,0.7250707,0.9926769,0.9470895,1.046897,0.4244065,0.7449252,1.088426,1.256513,1.310187,2.270605,1.855771,3.206626,3.469824,4.014576,4.867829,4.702548,6.466321,6.09179,7.008284,7.942941,8.251632,9.512975,9.62869,10.40007,11.81745,11.07834,13.16084,13.51065,13.99348,14.11526,15.44249,16.08248,16.67495,17.30073,18.0173,18.47893,18.97012,19.65796,20.21459,19.95656,20.3075,19.71051,20.36643,19.7697,20.221,20.33171,20.84163,20.87388,21.21495,21.66554,21.83669,23.27071,22.98529,23.92674,23.56078,24.46132,25.20399,24.73786,25.81031,25.42267,25.47625,25.99393,26.41889,26.51992,26.0355,26.47984,26.60884,26.68485,24.53426,24.69273,23.99595,23.88879,23.35284,22.25122,22.14204,21.91594,22.01617,21.5109,21.05637,20.9675,20.5138,20.20921,19.83686,19.64619,18.48683,17.99806,17.14117,16.53303,15.24028,13.36737,12.14585,10.28588,9.701314,7.202269,6.450855,3.975143,2.287153,-0.07040824,-1.47615,-4.212277,-6.160288,-8.21209,-10.45982,-12.4339,-14.78014,-16.90742,-18.89116,-20.86986,-23.27616,-24.41447,-27.30869,-28.68775,-30.41475,-32.64801,-34.27147,-36.09303,-37.80429,-38.53913,-40.83763,-41.31873,-43.39845,-43.85136,-45.02633,-46.07109,-46.48197,-46.98535,-47.49556,-47.50751,-46.43997,-46.13954,-46.06627,-45.27929,-45.79747,-45.0812,-44.62516,-45.374,-44.31305,-44.9159,-44.61187,-44.29314,-43.48732,-43.96645,-43.57109,-43.45432,-43.55241,-43.19735,-43.16305,-42.70488,-43.16576,-42.86779,-42.82177,-42.34636,-41.32667,-40.62915,-39.59425,-39.05006,-37.67614,-36.21737,-35.06813,-33.36953,-32.33276,-30.20594,-29.44512,-27.42227,-26.01986,-24.27636,-22.62786,-22.03915,-19.06975,-18.27421,-16.3268,-14.20473,-13.56186,-11.09107,-10.06027,-8.783493,-7.387695,-6.305798,-5.666574,-3.420078,-2.109225,-0.2495761,1.592931,3.355352,5.54864,7.002304,8.613025,10.38405,12.88552,14.75999,17.13905,18.92533,20.51979,22.68091,24.43504,25.82192,27.47899,28.14505,29.72935,30.2246,31.63125,32.18739,33.75618,33.97132,34.24593,34.44812,34.56697,35.06829,35.41606,34.8188,34.69048,34.48693,34.57283,33.87317,33.90429,33.29603,33.04041,32.34661,31.44805,31.19315,29.62189,29.69802,28.47806,27.84356,26.43485,25.5739,24.40493,23.99026,22.33764,22.16143,21.19373,20.10211,19.55539,18.63548,19.02388,17.5279,18.16028,18.40884,17.93246,17.0779,17.53244,15.83378,15.56421,15.07516,14.91549,13.88618,13.4632,12.68543,12.40954,12.27822,11.22529,10.52823,9.882107,9.704053,8.889338,8.79037,8.079399,7.531504,6.615193,6.829792,6.296742,5.543428,5.210325,4.696129,4.544998,3.8788,4.085365,3.131198,2.841175,2.551133,2.494518,1.560013,1.339085,1.11772,0.9449159,-0.3105156,0.1863928,-0.3050588,0.07214143,-0.8521447,-0.9117528,-0.9147703,-1.975322,-1.425644,-2.481985,-2.73786,-2.865159,-3.404657,-3.546882,-3.793816,-3.784826,-3.451718,-4.505073,-4.39838,-5.13221,-4.951399,-4.180674,-4.473731,-4.135904,-4.455023,-4.02045,-4.877505,-4.567767,-4.790543,-5.068831,-5.542854,-5.302867,-5.683595,-5.646488,-6.044685,-6.480289,-6.281099,-6.854843,-7.615179,-8.507153,-7.579794,-9.101365,-8.962614,-9.98591,-10.64983,-10.81224,-10.92726,-11.53951,-11.84258,-12.06275,-12.69733,-12.88135,-13.84316,-14.00651,-13.98404,-14.386,-15.13954,-15.10194,-15.7465,-15.95574,-16.02655,-17.32469,-17.03101,-17.829,-18.43792,-18.81273,-20.1199,-19.76535,-19.47579,-19.88647,-19.56872,-18.7082,-19.60719,-19.69278,-20.16322,-19.91669,-21.12552,-21.31531,-22.23073,-23.05229,-24.62183,-25.25756,-25.63915,-26.92272,-27.26705,-28.95884,-29.063,-29.92524,-30.73232,-31.56098,-32.08588,-32.96697,-33.05556,-33.70915,-33.38999,-34.09356,-34.39865,-33.81059,-33.75834,-34.33959,-33.34115,-33.60145,-32.97581,-32.64905,-32.25623,-30.85666,-30.55956,-29.13914,-28.20947,-26.82624,-25.95119,-24.27188,-22.75174,-21.21108,-20.17483,-17.73851,-16.05378,-14.61272,-12.35167,-10.61711,-8.318928,-5.949018,-3.671562,-1.636153,0.4792252,2.979822,5.550001,7.828623,9.590312,11.98367,14.77249,17.34575,18.62474,21.79157,23.28482,26.05236,27.98704,29.98565,31.89211,34.10598,35.69601,37.61581,39.03705,40.22683,41.78682,42.98799,44.31604,44.79036,45.97331,46.46109,47.64279,47.78351,48.67147,48.60905,47.79537,48.46349,47.33313,47.46248,47.18227,46.98231,46.81904,47.2156,46.98357,47.91535,47.34383,48.13398,48.06629,49.4487,49.4931,49.75936,49.69619,50.21475,51.17855,51.23917,51.63858,53.19199,53.74596,55.14261,55.61978,55.67063,56.89785,56.21623,55.58606,55.53005,54.81372,53.57978,53.39164,51.58965,51.12068,49.21219,48.41448,47.52159,45.98405,44.64065,42.83374,41.52916,40.08045,38.32279,35.80377,33.9143,32.0082,30.41287,28.49475,25.37847,24.19183,21.31059,19.14083,17.05221,14.34098,11.5622,9.790008,7.092633,5.132843,2.5358,0.680682,-1.206445,-4.311335,-5.945454,-8.513641,-10.44166,-12.51905,-14.54962,-15.3006,-17.12517,-18.60981,-18.97148,-19.85102,-21.40315,-21.47592,-22.23403,-22.92786,-23.18727,-23.82984,-24.2287,-24.12714,-24.3624,-24.09815,-24.16254,-24.67458,-23.00501,-23.54478,-22.38491,-22.65543,-20.94648,-21.03187,-20.22562,-19.77956,-18.55862,-18.09637,-17.50596,-17.40968,-16.42545,-15.65405,-15.6318,-15.5129,-14.95207,-14.28196,-14.76035,-14.55736,-15.38769,-15.0052,-15.73979,-16.4589,-18.26826,-18.89073,-19.02254,-19.84658,-19.93167,-20.47726,-21.01343,-20.92426,-20.95518,-21.35457,-21.23288,-21.99576,-21.50453,-22.10922,-22.05262,-22.38553,-22.4585,-22.36936,-22.26326,-21.99235,-21.93266,-21.33244,-21.07525,-21.44438,-20.83272,-21.04701,-20.37751,-20.70828,-20.79549,-20.73008,-19.89311,-20.83536,-21.09183,-19.91226,-20.98772,-19.50273,-20.28235,-19.78268,-19.24331,-19.61753,-18.31688,-18.96561,-17.49068,-18.35723,-17.18716,-17.10772,-16.65075,-15.98182,-16.12633,-15.62527,-15.33951,-14.75102,-15.09727,-14.71926,-14.28119,-14.12068,-14.55198,-14.36518,-14.55158,-14.23923,-14.69382,-14.52486,-15.21674,-15.79481,-14.91835,-16.01101,-14.60467,-16.253,-15.35808,-14.79635,-15.22822,-14.63067,-14.6084,-14.50652,-15.472,-13.88117,-15.11733,-14.65606,-15.06288,-14.78026,-14.63391,-14.63652,-14.75287,-14.57833,-14.67634,-14.34649,-13.99165,-14.65318,-13.82816,-14.1074,-13.36269,-13.30816,-13.86689,-13.03685,-12.87022,-12.65647,-12.11435,-12.52841,-11.57813,-11.17881,-11.51327,-10.39551,-10.24749,-9.64957,-10.57006,-9.186697,-9.484098,-8.140401,-8.680858,-7.939372,-7.784739,-6.168486,-6.809858,-5.951076,-6.309775,-5.769652,-5.399375,-4.4314,-5.303195,-4.560313,-4.82149,-4.672393,-4.327669,-4.572636,-4.860144,-4.179924,-4.55003,-4.767612,-4.319055,-4.77861,-4.650768,-5.240814,-4.260402,-5.222405,-4.401,-5.275445,-4.486094,-4.631466,-4.736278,-4.981551,-4.816579,-5.47474,-4.583411,-4.450521,-4.991682,-4.483549,-4.913595,-3.830898,-3.820413,-3.880122,-2.60804,-2.961512,-1.623161,-2.121244,-0.427292,-0.9421146,0.2522703,0.5779359,1.769372,1.868408,3.418434,3.426321,5.217255,5.530117,6.478062,7.636139,8.495096,9.747013,11.1246,12.20686,13.37584,14.79695,15.30382,16.88934,17.9194,18.29378,20.21951,20.02818,22.18129,22.89089,23.18087,25.10749,25.06036,26.21396,26.40862,27.88845,27.85168,29.55248,29.36679,31.09658,30.26506,31.19769,31.24975,32.15526,31.89002,31.93772,32.43931,32.57751,32.88884,32.42549,31.22264,31.47616,31.13921,30.9082,30.53868,30.20675,29.92788,29.89104,29.83312,29.51694,29.19175,29.50194,29.20423,29.44757,28.94439,29.60321,29.17203,29.83678,29.58683,29.71272,29.89171,29.78539,29.21116,29.83962,29.00106,29.40967,29.35324,28.89756,28.79903,28.62474,27.98023,27.70035,28.05422,26.79528,27.13365,25.70774,25.33141,25.52667,24.18888,23.17199,22.54803,22.14576,21.99252,20.35593,19.9572,18.30094,17.9403,16.97424,15.24556,14.36585,13.41563,12.30864,11.39247,9.900256,8.7416,7.034401,6.685934,4.918973,3.174235,2.249454,0.1336129,-0.7628123,-2.289998,-3.28172,-5.708006,-6.734595,-7.547375,-8.619275,-9.824189,-11.7441,-11.57792,-14.03877,-13.87541,-15.79193,-15.81616,-16.65706,-17.42189,-17.8128,-18.15662,-18.84463,-19.15256,-19.86767,-19.85286,-20.05902,-20.28256,-20.32748,-20.38269,-20.37176,-20.07815,-20.05653,-20.13026,-19.41193,-19.60718,-19.20208,-18.6652,-18.84551,-17.78794,-17.7826,-17.42347,-16.82517,-17.42327,-16.27398,-15.75579,-14.90967,-15.43326,-14.85376,-14.62659,-14.17582,-14.71509,-14.74317,-15.17909,-14.17053,-13.96166,-14.49073,-14.23719,-14.48463,-13.67507,-13.41624,-13.72345,-13.08859,-13.8262,-13.18534,-13.28188,-12.97294,-14.07669,-13.01208,-14.09538,-13.52444,-13.92876,-14.33184,-14.28811,-14.52126,-14.75287,-14.48614,-15.45093,-15.08002,-15.78426,-15.54845,-15.68856,-15.80368,-15.59267,-15.78289,-15.02958,-15.82329,-14.9114,-16.42844,-15.26183,-15.2981,-16.13805,-14.91513,-15.47248,-14.60442,-15.12919,-14.42365,-14.05746,-13.82307,-13.03465,-12.63088,-11.75348,-11.11978,-10.58517,-10.22027,-9.273552,-8.482521,-8.024016,-7.788297,-6.811561,-6.790342,-5.939134,-5.326295,-5.126537,-4.744971,-4.246234,-3.665625,-4.140652,-2.361986,-3.094552,-2.635805,-2.376989,-2.236009,-1.395362,-1.939383,-1.164158,-1.062297,-0.08910548,0.05962745,-0.1876902,1.031612,0.9402371,1.820508,1.465938,1.875478,2.511972,2.529562,3.174699,3.813838,3.395537,3.856393,5.00913,4.28739,4.975068,4.586539,5.281219,5.435925,5.392483,5.469296,5.702415,5.749994,5.925814,6.159656,6.373916,6.836961,6.889999,6.420858,6.460806,6.696319,6.931763,7.824514,7.076139,8.071874,7.911202,8.600679,8.945097,9.167408,10.02774,10.53499,11.41014,12.32984,12.15105,13.13774,14.04272,14.14634,14.7302,15.18946,15.4289,16.78878,15.43264,16.66376,16.28473,16.87404,17.28515,16.97534,16.79878,16.86054,15.94385,16.46963,15.79017,15.63872,14.95912,14.86631,14.53983,13.84036,13.63947,11.93261,12.40737,11.16261,10.9566,9.762117,9.238037,8.885977,7.773962,6.852042,6.183491,5.660583,5.154991,4.494782,3.767556,2.785251,3.202143,2.001739,1.437868,0.9614533,0.8224563,-0.1458793,-0.7629789,-1.23639,-1.879466,-2.160778,-3.037464,-3.262721,-4.043528,-4.855471,-4.829424,-5.549953,-6.31147,-6.069272,-6.737546,-6.813892,-7.231053,-7.935212,-7.199792,-8.976722,-7.812079,-8.950856,-8.073609,-8.665698,-8.976364,-8.076886,-8.982983,-8.875467,-8.905968,-9.0118,-8.02635,-8.431482,-8.029945,-7.645567,-8.170794,-7.489799,-6.920906,-8.054711,-6.765757,-6.800808,-5.709058,-6.019169,-6.653358,-5.836213,-6.425813,-6.240135,-6.747084,-7.243634,-7.237226,-9.086053,-8.006952,-9.874485,-9.291923,-10.01778,-10.36631,-10.80183,-11.81064,-11.79237,-12.12737,-12.56921,-12.25843,-13.09087,-13.45643,-13.02786,-13.16303,-12.96828,-14.09947,-13.59489,-13.65144,-14.28321,-13.49626,-13.44677,-13.7077,-13.33753,-13.17131,-12.50177,-12.10897,-11.80839,-11.0825,-11.10383,-10.05663,-9.924818,-9.265233,-8.501753,-7.704239,-7.486515,-5.83361,-5.913733,-4.454306,-4.362041,-3.273739,-3.120064,-0.9029207,-0.7453222,0.2963507,1.131954,2.235866,3.065656,3.416798,4.445564,5.638647,6.870137,7.329718,8.966791,8.640161,10.3617,11.22736,11.49626,12.25306,12.87618,13.13781,14.16899,14.50894,14.85944,14.9649,15.76889,15.61573,16.21833,16.01262,16.63002,16.44896,16.64047,16.29107,16.61564,15.96337,16.10125,15.31571,15.34151,15.31295,14.35924,14.5183,13.14387,13.58201,12.45979,11.999,11.63417,10.75285,10.81041,10.37649,9.555195,9.528877,8.582967,8.040219,8.152445,6.914406,7.108628,6.579535,6.766121,6.66031,6.810299,6.365319,6.429747,5.927787,6.012749,5.829277,5.429633,5.866669,4.955825,5.804477,4.739567,6.137404,4.102581,5.651236,4.305245,4.935272,4.167133,4.247153,4.245185,3.742551,3.607415,3.185608,2.942124,3.067566,2.909747,1.753458,1.498791,0.9595121,0.5044272,0.5997387,-0.2479751,-0.2895841,-1.095187,-0.5547958,-1.448515,-1.471649,-1.952801,-2.318235,-2.315181,-2.863487,-2.529259,-3.426261,-3.325373,-3.750082,-4.107872,-4.142982,-4.936583,-4.760736,-6.001992,-5.592769,-6.303905,-6.51229,-7.252079,-6.342882,-7.243958,-7.466484,-7.80749,-8.412684,-8.023802,-8.821248,-8.60155,-9.23642,-9.511645,-9.904533,-9.300319,-10.7706,-9.871954,-11.13833,-10.16223,-11.29328,-10.72844,-11.74592,-10.82412,-12.25414,-12.12619,-11.98331,-12.30991,-12.90092,-12.44835,-12.79561,-13.27909,-13.86615,-14.09788,-14.21558,-14.73635,-15.34247,-15.23421,-16.28961,-16.39141,-16.54578,-17.4028,-17.90927,-17.98168,-18.93319,-18.69763,-19.24521,-19.51135,-21.01775,-20.28128,-21.4756,-21.44817,-22.50315,-22.77348,-22.48915,-22.12233,-22.0365,-22.36004,-22.12988,-22.2897,-22.05019,-23.34327,-23.66431,-24.51821,-24.85618,-25.91695,-25.9623,-27.69087,-28.34911,-28.83853,-29.89057,-30.02066,-30.98299,-31.35545,-31.54287,-32.00332,-31.7098,-32.77356,-32.36305,-32.58045,-32.59988,-31.67913,-32.31195,-31.36339,-31.15356,-30.77858,-29.87454,-29.19369,-28.07866,-27.74585,-25.58439,-25.40593,-23.46461,-22.40471,-20.57971,-19.83861,-16.99185,-15.93337,-13.45606,-11.63729,-10.06377,-7.109794,-6.104928,-3.480073,-1.896464,0.6482649,2.940822,4.859816,7.182081,8.940927,11.67371,13.74888,15.56533,18.71912,19.70997,22.6606,24.06889,26.78607,28.01364,30.58051,31.97684,33.62379,35.83932,36.9978,38.96747,39.44001,41.58923,42.26378,43.81584,44.71751,45.21788,46.73956,46.64886,47.81304,47.32772,48.36088,49.32098,48.53156,49.04109,48.58608,48.62046,47.93304,49.00108,46.33424,45.87245,44.48562,44.4362,43.55433,42.22298,41.48783,41.69066,40.81925,40.70913,40.12843,39.95936,40.61838,40.55431,40.4865,40.42319,42.2115,41.90553,43.62664,43.94475,45.28658,46.72483,47.08158,48.29654,47.85758,48.75527,48.79177,49.05055,48.60122,49.02856,48.28891,48.53139,47.65825,47.15737,46.32148,45.66645,45.24158,43.25705,43.80406,41.30863,40.99031,39.49206,37.23787,36.62774,34.33848,33.16712,30.59087,29.091,26.91836,25.11572,23.06441,21.17811,18.65343,16.81966,14.80054,12.49289,9.864583,7.860136,5.717103,3.623272,1.497995,-1.262578,-3.079088,-5.230853,-7.61203,-9.0963,-12.49425,-13.75017,-15.81886,-17.21662,-19.52942,-20.93643,-22.35701,-23.93476,-24.80014,-26.457,-27.88166,-28.09123,-29.8869,-29.79388,-30.95233,-31.99738,-30.85822,-32.34355,-31.16968,-32.36745,-31.7123,-31.71841,-31.66704,-30.5604,-30.18861,-29.8415,-29.10134,-27.88328,-27.37963,-25.69768,-26.24395,-24.44855,-24.15492,-23.12004,-22.17847,-21.51297,-20.56939,-19.97055,-19.38172,-18.26432,-18.65839,-17.88035,-18.01945,-17.83979,-19.3058,-18.21468,-18.45656,-18.44491,-17.69736,-18.3956,-17.29807,-17.75787,-17.27759,-16.93741,-16.65908,-16.20411,-16.51329,-15.45828,-15.44578,-15.17445,-14.73211,-14.68364,-14.42517,-14.15787,-13.80804,-13.61153,-13.75598,-13.45213,-13.49114,-12.95005,-12.91151,-13.02392,-13.34852,-13.29911,-13.36471,-12.96547,-13.95881,-14.04364,-13.75181,-13.73268,-14.06999,-14.11508,-14.62486,-14.44415,-13.892,-14.54848,-15.10068,-14.13133,-15.25251,-14.40785,-15.28542,-14.47726,-15.12587,-14.8632,-14.93129,-14.49707,-15.19374,-14.71553,-15.18857,-14.92712,-15.44366,-15.07916,-15.48448,-15.89099,-15.43231,-15.89369,-16.04136,-16.3488,-15.96195,-15.51078,-15.77852,-15.39456,-15.63297,-15.52748,-15.43892,-15.17663,-15.3294,-15.69389,-14.94967,-15.46325,-15.11375,-14.54779,-15.86688,-13.94774,-15.53454,-13.40894,-14.70392,-14.05548,-14.2748,-14.33898,-13.12481,-13.6979,-13.1671,-12.57983,-11.91813,-11.9062,-11.60439,-11.14944,-11.14796,-10.03107,-10.45987,-9.185646,-9.557654,-8.860778,-8.400117,-7.862365,-7.246048,-7.672256,-6.147285,-6.583814,-6.155831,-5.394818,-5.544277,-5.375583,-4.590629,-4.457627,-3.718143,-3.523068,-2.8512,-2.902211,-0.9387124,-1.271287,-0.1885572,0.1822482,0.8998109,1.643821,1.86989,2.096396,2.607533,2.75207,2.988199,3.659269,2.897851,4.12714,2.984038,3.888628,2.793382,3.891328,2.802732,3.065039,2.699008,2.290093,2.047388,2.028375,1.200475,1.849056,0.5020038,1.077711,0.475073,0.6628624,0.3801829,0.2448912,0.290195,0.3008667,0.07259272,0.2385079,0.5772446,0.3544835,0.9391577,0.8832236,1.257414,1.279403,1.288374,1.957033,2.266247,2.780136,2.881148,3.360835,3.441613,4.325162,4.618634,5.838385,5.452203,6.755893,6.837961,8.190553,7.934603,9.638495,9.297472,10.76136,11.25932,11.95692,12.7148,12.68489,14.23266,14.27371,15.47783,16.09806,16.79806,17.54635,17.48858,18.77167,18.40881,19.9046,18.86731,20.95623,20.44095,21.58271,21.5555,21.56377,22.95635,22.27722,23.94537,23.42423,23.61239,24.21101,23.58526,24.34904,23.28994,24.75099,22.61752,23.51526,22.05028,22.32225,20.92858,21.42537,21.42368,20.32373,21.79308,20.30734,21.13396,21.56907,21.79824,21.30683,22.53856,22.03589,23.00975,23.28455,23.77937,24.44972,24.31975,25.07795,24.82091,25.67676,24.90897,25.08315,25.30179,25.16285,25.84429,24.17882,24.38694,24.74064,23.68192,23.85591,22.65954,21.58878,21.43778,20.93298,18.71229,18.69402,17.04795,16.65548,15.46038,13.93422,12.28156,12.02938,9.324064,8.741451,7.707772,5.946486,4.809093,3.513924,2.268836,0.5663536,-0.5207373,-2.425416,-3.315326,-5.483751,-5.617987,-8.592953,-9.257784,-10.60838,-11.36756,-12.32914,-14.44799,-15.00793,-16.17754,-16.55622,-17.85224,-19.14568,-19.79484,-19.71706,-20.71755,-21.42626,-22.75113,-22.57138,-23.5955,-23.59309,-24.13745,-24.50248,-24.13245,-24.66285,-24.46192,-24.72127,-24.40404,-24.61576,-23.40209,-24.02962,-23.40102,-23.38645,-23.34817,-22.17317,-21.6666,-20.41605,-20.34655,-19.06719,-18.72252,-17.49303,-17.11807,-16.98404,-15.36564,-15.33127,-13.7937,-14.02943,-13.21766,-12.3513,-13.00196,-11.33889,-12.16642,-11.04559,-12.3232,-10.9169,-11.49145,-10.55377,-11.24036,-9.721022,-9.913336,-9.442396,-8.444466,-8.731302,-8.336583,-7.090897,-7.670663,-6.995614,-6.132945,-6.076753,-5.111697,-4.438731,-4.494912,-4.282528,-3.784634,-3.463621,-2.844367,-2.844628,-2.262519,-2.100546,-1.288865,-1.431831,-0.7964062,-0.7143766,0.1479521,0.3136204,-0.02384615,0.9008682,0.8167247,0.08875984,1.651173,0.4344865,1.626887,1.657267,1.294617,1.478174,1.247705,1.963328,1.803076,2.448073,1.452412,2.911796,2.846221,3.116022,2.753595,2.696297,2.881605,2.830049,2.757186,3.080977,2.822077,2.66377,3.427216,2.693698,3.321288,3.665105,2.793273,3.621254,2.915555,3.799914,3.889373,3.640488,4.183415,4.385249,5.313905,4.758702,4.986927,4.122427,5.300613,4.719347,5.605491,4.986574,6.291685,5.335976,7.350722,6.307439,6.657896,6.728467,6.836561,7.668182,7.358411,7.272936,7.790361,7.710514,7.870737,7.114436,7.846425,7.534291,7.45654,7.58838,7.48211,7.609526,7.615103,7.731787,7.970385,8.515473,8.70452,8.810463,9.160073,9.286782,9.775801,9.567613,10.01063,10.30551,10.23712,10.36555,10.7529,10.11352,10.89456,10.28741,10.4367,9.866609,9.752515,10.2363,9.747827,10.24905,10.01334,10.48127,11.03321,11.25545,11.47527,11.14812,11.29565,11.50317,11.50187,11.51884,11.60415,11.088,12.35698,11.21576,11.31076,11.15831,11.36698,10.47138,11.61127,10.04189,10.64149,10.46326,9.410564,9.697007,9.277656,8.591695,8.914836,7.794031,7.572422,7.177106,6.935368,5.908408,6.308978,4.667349,4.823955,4.011531,3.642101,2.599328,1.770885,1.266933,0.4624271,-0.77613,-1.340794,-1.514531,-3.690375,-3.386775,-5.223371,-5.747147,-6.890622,-7.109906,-8.858587,-8.758535,-9.657843,-10.03199,-10.64974,-11.72794,-11.6,-12.90837,-12.60969,-14.59336,-13.83494,-15.53392,-14.74324,-15.8166,-15.45259,-16.59749,-15.58066,-17.28456,-15.92796,-17.52177,-17.18963,-17.84813,-17.69048,-17.56592,-18.60187,-18.6681,-19.13566,-19.83672,-19.32645,-20.02968,-18.74345,-20.35568,-20.17955,-19.08071,-18.77582,-18.49354,-18.79927,-17.89099,-18.3109,-17.20485,-17.71507,-17.84001,-17.29549,-17.54118,-16.75614,-18.33134,-17.04924,-18.58583,-17.15874,-18.6997,-17.95535,-20.01175,-18.32926,-20.45278,-19.33683,-20.79602,-19.65503,-20.49779,-19.54197,-19.9408,-19.01463,-19.68212,-18.32613,-18.89627,-18.01179,-18.52515,-18.51931,-17.92473,-17.96146,-17.13935,-16.58048,-16.40796,-14.51931,-14.58328,-12.82678,-11.64669,-10.87504,-9.158883,-7.299406,-6.689199,-4.466571,-3.943571,-2.773066,-0.4963403,-0.1105032,1.466197,2.889953,3.890597,4.635657,6.63096,7.028549,8.174167,9.638173,10.27369,12.22126,12.11445,13.43929,13.07873,14.75645,15.19336,15.05918,16.47259,16.33492,17.01156,16.90432,17.15423,16.6611,17.10446,17.76044,17.3656,17.4912,16.62006,17.20963,16.49307,16.44835,15.6729,15.12739,15.19766,14.57855,13.44306,14.08837,12.17227,12.91818,11.19363,11.66117,10.539,10.73244,8.487587,9.903594,8.103816,8.296752,7.052561,7.28501,6.326992,6.182624,5.376037,5.54577,4.458564,5.495063,4.155675,5.784597,3.842532,5.864857,5.980546,6.223523,6.081126,6.105206,6.812445,5.617179,7.531269,6.781758,7.758642,7.542596,7.944696,8.486624,8.847574,9.620959,9.322146,10.6032,9.839792,11.05522,11.28344,10.7247,11.69091,10.98282,11.91554,11.6633,11.89577,11.83577,11.17295,11.74978,10.87184,10.86942,10.07602,9.436642,8.662131,8.294594,8.389074,7.072419,7.755881,7.202963,6.612825,6.917465,6.071322,5.834852,5.633641,5.310021,5.091307,4.522946,4.171432,3.36053,2.808063,2.529036,1.924882,1.360401,1.290165,0.6588675,-0.1831882,-0.3559018,0.008912083,-1.625972,-0.7007841,-1.734251,-1.778463,-2.398473,-2.935354,-3.18357,-3.453929,-4.557659,-3.965348,-5.780588,-4.002473,-6.590845,-6.252633,-6.662062,-7.818898,-7.965764,-8.649463,-8.95623,-10.18774,-9.91393,-11.26593,-10.99178,-12.23391,-11.93021,-13.23895,-11.97964,-13.81132,-13.27607,-14.60434,-13.60385,-15.57233,-13.68627,-16.12945,-14.43378,-16.55254,-15.30056,-16.85095,-16.07112,-16.65745,-17.03892,-16.61536,-17.50671,-16.82213,-18.30422,-17.5412,-18.63317,-17.9492,-19.0922,-18.37673,-18.96256,-19.54012,-19.68435,-19.40335,-20.33554,-20.17177,-19.8567,-20.58057,-19.28005,-19.58935,-19.79428,-19.14479,-20.12957,-19.49836,-20.72542,-20.38395,-21.40666,-21.92851,-22.1947,-23.43205,-23.43041,-24.23713,-25.22236,-24.913,-26.82692,-25.88267,-27.60189,-27.28746,-28.66423,-28.54739,-28.76383,-29.65363,-29.24901,-29.75823,-29.85379,-29.77457,-28.92835,-29.62629,-28.86041,-28.59903,-28.17703,-27.06171,-27.15438,-25.69901,-25.5479,-23.98221,-23.12357,-22.72892,-20.80772,-20.45872,-18.40271,-17.08183,-15.18171,-14.17482,-11.94183,-10.54795,-8.318391,-6.889443,-4.303891,-3.483127,-0.9888999,1.010386,2.325085,4.82426,6.204648,8.037412,10.20862,12.00864,13.06306,16.92017,16.09564,19.96989,20.20144,22.86049,24.27842,25.67871,27.48596,28.25601,29.48473,30.42111,31.1304,32.11898,32.93132,33.43803,34.79219,34.27985,35.77874,34.62418,36.51898,34.70039,35.95899,35.49459,36.1895,35.02086,36.31652,34.92752,35.83461,34.87212,35.30171,34.4812,34.39847,34.38556,33.56821,33.2726,32.46367,32.81055,31.7015,32.53944,31.25479,31.94519,30.1743,30.46855,29.50776,31.25428,29.96799,32.38646,32.03275,33.23052,34.53628,34.28552,35.69782,36.83991,37.01591,38.08508,38.43609,39.36663,40.10815,40.78481,41.53383,42.11189,42.69855,43.03259,43.53675,43.19615,43.90395,43.79258,43.70464,43.25385,43.35816,42.39546,42.84307,41.67033,41.39467,40.40143,38.94349,39.05885,37.45304,36.22556,35.28497,33.58236,32.51219,30.69117,28.74256,27.54239,25.66195,23.79083,22.48509,19.38063,20.08643,15.58593,15.9629,12.23443,10.97922,8.667259,6.762203,4.724114,2.39557,0.3917744,-1.346108,-3.404757,-4.864817,-7.123965,-8.603938,-9.767298,-12.52383,-12.65567,-15.32557,-15.69442,-17.30917,-17.90365,-20.24215,-19.26684,-21.22847,-21.38384,-22.81696,-23.26098,-24.35548,-25.4042,-25.80486,-26.29956,-26.84218,-26.87477,-27.2168,-27.94808,-27.67161,-28.47134,-27.91011,-28.57738,-28.05846,-28.33976,-27.62182,-26.96022,-27.52187,-25.56282,-25.88878,-25.64222,-24.52338,-24.67389,-23.37184,-23.69411,-22.064,-22.75346,-22.13595,-20.90574,-21.30128,-20.13615,-20.51777,-20.74639,-20.75565,-21.27009,-21.56816,-21.08791,-21.10439,-20.19222,-20.95551,-19.79978,-20.69643,-19.09827,-19.98771,-18.78692,-18.69624,-18.81386,-19.01619,-18.15587,-18.93614,-17.68355,-18.01787,-17.48358,-17.6427,-17.25071,-17.46827,-16.45134,-17.04937,-16.43344,-16.23353,-16.10341,-16.17315,-16.17406,-15.85341,-15.66724,-15.21444,-15.14944,-15.16508,-14.87709,-14.71919,-13.72598,-14.1537,-13.84854,-13.07918,-13.35856,-12.4572,-12.73664,-11.43963,-12.4839,-10.73266,-11.6731,-10.00894,-10.91662,-9.10207,-10.70691,-8.503033,-10.54496,-8.248942,-8.749847,-8.28476,-8.400241,-7.402443,-7.330698,-7.097826,-6.725439,-6.023755,-6.313335,-5.121757,-5.982792,-4.990217,-4.583093,-4.550081,-4.046162,-4.049642,-3.42582,-3.098921,-2.799929,-2.634382,-2.500099,-2.182939,-1.793532,-1.799545,-1.699602,-1.393726,-1.104611,-1.554108,-0.8083978,-0.9398838,-0.8118849,-1.215893,-0.1172163,-0.804289,-0.47619,0.2823264,-0.1360638,0.1751028,1.136949,0.4168581,2.161089,0.5338449,2.518374,1.562941,3.123674,2.225636,3.366175,3.531347,4.554918,4.628772,6.400914,4.518964,8.489772,5.313013,9.162574,7.66299,9.725048,8.708876,10.56579,9.849535,12.00285,11.34325,13.01662,12.73571,14.3758,14.01687,14.79582,15.45908,15.3549,17.09217,16.98545,17.74532,18.33399,18.8426,19.08684,20.20604,19.70969,20.6116,20.68046,20.37498,21.04358,20.6242,20.86082,20.33619,20.71016,20.30196,20.40983,18.82666,19.68409,18.11517,18.10036,17.7465,17.02755,16.88517,15.80865,15.8546,15.16085,14.64023,13.83748,13.7185,12.67253,12.79449,11.83809,11.6728,10.40753,10.74451,9.270971,8.974709,7.765357,8.265578,6.263311,6.562914,4.790776,5.383348,3.550902,3.540471,2.996842,2.065742,1.174284,1.071656,-0.6033587,-0.6887679,-2.809581,-2.814001,-3.89475,-4.82821,-5.727347,-6.212266,-7.936181,-8.018974,-9.312931,-9.547034,-11.01456,-10.91255,-12.7676,-12.47708,-14.1907,-14.85281,-13.94565,-16.5744,-15.42534,-17.72246,-16.23653,-18.16355,-17.7594,-19.04961,-17.95514,-18.82479,-17.63023,-19.2989,-18.12882,-19.41248,-18.63098,-19.62371,-18.72956,-20.09716,-18.7712,-19.64187,-18.84458,-20.38692,-18.4823,-20.18444,-18.3599,-20.88023,-18.72832,-20.52851,-19.19486,-20.32419,-19.53256,-19.5505,-18.9259,-19.51361,-18.72181,-18.97774,-18.15551,-17.92917,-17.75739,-16.28488,-15.59652,-15.19901,-14.78962,-13.28327,-13.05172,-10.64846,-11.34352,-9.303064,-9.477803,-8.080317,-6.996669,-6.717213,-5.082419,-5.129787,-4.073747,-3.204771,-2.030671,-2.161777,-1.310243,-0.7390021,0.5762897,0.1409801,1.975449,1.940867,3.32503,2.921798,4.34657,4.341641,5.44252,5.122102,6.277124,6.47207,7.598357,6.772546,8.470671,8.182778,9.139348,9.42258,10.0161,9.967919,11.48605,11.13929,12.10134,12.93084,13.31594,14.45296,13.68574,15.1985,15.34075,15.31095,15.46384,14.99689,15.1418,14.29585,14.98536,14.63666,14.13896,13.53801,13.86384,13.35366,12.66089,12.23874,11.22747,11.71571,10.13232,10.12324,8.337027,8.713931,7.88638,7.411719,7.262546,5.547457,6.201493,4.647694,5.343525,4.006409,4.488879,4.08319,5.453668,3.756219,4.189712,3.3247,3.545753,3.873213,2.684038,3.764664,2.393538,3.451786,2.42955,2.618835,2.109099,2.264224,2.13175,1.740933,1.312562,1.945692,1.061429,1.981044,1.03655,1.54298,1.1826,1.292822,1.546317,0.781306,1.052934,1.088148,1.095784,0.2458792,1.026781,0.8375788,0.892241,-0.09886277,0.7254594,-0.0787497,0.8984747,0.417256,-0.8122863,-0.4104437,-0.6791101,-0.8678775,-0.4044749,-0.4854892,-0.6352002,-0.1024113,-0.4519469,0.9928963,-0.2571852,0.2829159,-0.1686303,1.0168,0.3427161,0.409771,0.6569283,-0.05105827,1.300522,-0.7996852,1.029094,-1.458451,0.3101188,-0.9461103,-0.7438932,-1.523389,-0.9783258,-2.189255,-1.215258,-1.890598,-2.00776,-1.87311,-1.416071,-2.158307,-1.095471,-2.085315,-0.8397564,-1.834904,-1.101172,-2.42203,-1.685458,-1.497311,-2.315929,-2.640488,-3.23692,-2.560049,-3.031349,-3.647515,-3.618927,-3.583483,-4.661022,-3.207166,-5.00937,-3.895221,-5.070721,-5.085786,-4.790136,-5.89775,-6.589345,-6.313555,-6.573078,-6.850925,-5.858127,-7.207705,-5.995143,-7.005963,-6.915173,-7.143628,-6.987816,-6.991394,-7.052081,-7.460003,-7.426476,-7.499581,-7.804671,-7.341017,-7.827673,-7.250839,-8.621635,-7.421732,-8.201399,-8.11843,-8.348975,-8.545881,-7.979019,-8.559994,-8.224079,-7.695661,-8.710772,-7.049186,-8.449844,-8.0244,-7.743513,-7.978928,-8.309014,-9.045286,-9.006923,-9.762666,-9.781919,-10.29379,-11.36394,-11.99341,-11.4301,-13.32998,-13.55935,-14.28508,-15.20535,-15.78812,-15.79694,-17.65454,-18.0971,-17.8924,-19.02357,-18.95167,-19.5845,-19.55305,-20.17644,-20.04986,-20.85455,-19.8096,-20.61279,-20.6102,-20.31977,-19.51652,-20.19103,-19.37971,-18.65344,-18.62539,-17.81595,-18.39164,-16.25293,-16.98499,-15.07458,-15.45787,-13.59802,-13.35994,-11.41264,-11.36283,-9.468745,-8.026715,-7.509411,-5.869375,-4.307291,-3.321195,-1.982679,-1.191629,0.7726035,0.6043312,3.515306,3.019072,6.187117,5.644983,8.220147,8.356319,9.68791,11.89176,11.29157,13.99414,13.90131,15.95902,16.15764,18.25119,17.04865,19.81921,19.19376,20.62337,20.97321,20.97813,23.05855,23.23693,24.07895,24.74189,25.94341,25.05366,26.35944,26.18807,26.43834,25.79053,26.96435,25.40177,26.47631,25.55477,26.545,26.26079,26.32935,27.04013,27.3034,27.63204,27.6251,29.05222,29.10705,29.47972,30.69031,30.66668,31.60304,32.34094,32.69837,33.03043,33.65172,34.32542,33.79224,33.95038,34.65886,34.22872,33.56224,33.85221,33.19064,33.46876,31.85777,32.71113,30.834,31.75991,30.18903,30.12204,29.1415,28.70919,28.43461,26.98836,26.24373,25.08187,24.89335,23.22988,22.7991,20.80295,20.65111,18.93393,17.61928,16.00446,14.82289,13.84592,11.72893,10.95849,10.00704,9.07579,7.388821,6.489255,5.614934,3.162796,3.405399,1.593467,1.577948,-0.9172503,-0.3939421,-2.542683,-1.732152,-4.528306,-3.369456,-5.657661,-4.481401,-7.050834,-6.872561,-7.692493,-7.717981,-9.001305,-8.812521,-9.458569,-8.197454,-9.990728,-7.996102,-9.98532,-7.760188,-9.651445,-7.707229,-9.893756,-7.661894,-7.980924,-8.338522,-6.533787,-8.50589,-6.086935,-6.804277,-5.720444,-6.520076,-4.568816,-5.565033,-4.28678,-5.042952,-4.098614,-3.888907,-4.342269,-4.467648,-3.841312,-5.074339,-4.437107,-5.473126,-5.245068,-7.089798,-6.232027,-7.566601,-8.032409,-7.65185,-8.259711,-8.728154,-8.3904,-9.771907,-7.80191,-9.793391,-8.001412,-9.232058,-8.221639,-9.545997,-8.20086,-9.202472,-8.392929,-8.60145,-8.61266,-8.883982,-8.431387,-8.262406,-9.192708,-9.034589,-8.898141,-9.128419,-8.471006,-9.922374,-8.419492,-9.969346,-8.612811,-9.252041,-9.020518,-8.757887,-7.875044,-8.223769,-7.074736,-7.91312,-7.249549,-6.246217,-7.881446,-7.237406,-6.815665,-7.062817,-6.728108,-6.602026,-7.743272,-6.670019,-7.828984,-7.432413,-7.471213,-7.735834,-7.327612,-7.373952,-6.628715,-7.383974,-6.942085,-8.028066,-7.401802,-7.82297,-8.397333,-7.77092,-8.433068,-8.650114,-9.094627,-8.599976,-10.31715,-8.653149,-11.50135,-9.82855,-11.63554,-10.74173,-12.65068,-11.77231,-13.11866,-12.47,-13.25209,-13.04565,-14.4753,-13.65335,-15.85646,-14.44088,-16.29426,-15.74078,-17.41714,-16.98666,-18.571,-17.99162,-18.88302,-19.56193,-19.04609,-20.85706,-19.29023,-21.2916,-20.31066,-22.08399,-20.61699,-22.49039,-22.31636,-22.86009,-22.78321,-23.19188,-24.51873,-23.94358,-24.54143,-25.1302,-25.13359,-26.1671,-24.88327,-26.22002,-25.58394,-25.82951,-26.42335,-25.50008,-25.90524,-26.09213,-25.50723,-26.66396,-24.99906,-26.50452,-24.69167,-26.71811,-24.93446,-26.33932,-24.33863,-26.51752,-23.35149,-24.33421,-23.45168,-22.48296,-22.32265,-21.50442,-22.25129,-21.43117,-21.78505,-22.47934,-22.40576,-23.33537,-23.68373,-24.46059,-24.62556,-25.19791,-25.55415,-25.82368,-26.92648,-26.97881,-27.48953,-28.54238,-28.04067,-29.03867,-29.48217,-29.08947,-28.43978,-29.02351,-27.76625,-29.0322,-27.51284,-27.65249,-25.99075,-26.2893,-23.88091,-23.80378,-21.33604,-21.48127,-19.03674,-18.97645,-16.73402,-15.53974,-13.96215,-11.93191,-10.34788,-8.237474,-5.873523,-4.135383,-1.462245,0.1810932,3.187459,5.127375,6.683008,9.104728,11.43883,13.30243,14.98049,16.42426,18.244,20.27394,21.60925,23.10829,24.73517,26.27974,28.11213,30.37684,31.32532,33.18382,34.76836,36.30341,37.35205,39.1824,40.67884,41.68279,43.30097,44.78433,46.30641,46.87161,48.65843,48.09131,50.38128,49.38438,50.95874,51.504,51.12798,51.74395,51.37102,52.28159,51.5393,51.62388,52.15778,51.72193,52.18425,50.93494,51.0118,49.72849,48.54638,49.53701,47.5633,48.28126,47.03832,47.89108,46.96997,48.16665,47.73975,48.86652,49.40633,50.39061,51.58879,52.22718,54.77176,54.8978,56.3062,56.55679,57.43065,57.15166,57.57082,57.89982,57.17652,57.36975,56.74365,56.67624,55.52504,55.26311,54.15973,52.83441,51.728,49.81311,49.0599,47.20909,45.52556,43.43084,42.80819,39.40786,39.22223,35.46444,34.75569,31.72046,30.47369,27.00086,26.29507,22.83533,22.40265,18.30501,18.2801,14.3013,13.45997,9.711898,9.583982,5.601893,5.691524,2.337933,0.8216616,-0.1997412,-2.586341,-3.529818,-5.503257,-6.888429,-8.405311,-9.887336,-11.20337,-13.39866,-14.78639,-15.86162,-17.08439,-19.09176,-20.1861,-21.73452,-21.89272,-23.68146,-24.83804,-24.88578,-25.94976,-25.62333,-26.80428,-26.73598,-27.0952,-26.99472,-26.94992,-27.66563,-26.88858,-27.21732,-26.45776,-26.05074,-26.18167,-24.85785,-25.37649,-24.62765,-23.71004,-25.17036,-22.08996,-24.39078,-21.37781,-23.65319,-21.63485,-22.57436,-21.38447,-23.01957,-22.23308,-22.64631,-22.74611,-23.28026,-23.19475,-24.25468,-23.47622,-25.62202,-23.49412,-25.01602,-24.39754,-24.77255,-24.81527,-24.79939,-24.64733,-24.52108,-24.39135,-24.58286,-24.00968,-24.12805,-24.38324,-24.282,-23.14762,-23.86355,-22.84892,-23.58613,-22.16307,-22.86983,-21.84751,-21.63137,-21.73832,-21.09234,-20.01834,-19.84559,-20.00436,-19.14362,-18.56792,-18.60099,-16.80852,-17.61047,-15.7642,-16.20862,-13.9921,-14.46044,-13.10935,-13.59296,-11.94266,-12.12841,-10.75605,-10.65885,-9.988047,-9.614703,-9.04543,-8.42225,-7.337269,-8.074928,-6.440171,-7.125,-5.880052,-6.678562,-4.514825,-6.20155,-4.578669,-5.793071,-4.37306,-4.088812,-5.163284,-4.668659,-4.427001,-4.405817,-4.579272,-5.3521,-4.505787,-5.740069,-4.964475,-5.502498,-6.335582,-6.109334,-6.120544,-7.209891,-6.090829,-8.481964,-6.938209,-7.107109,-8.056342,-7.709542,-8.876799,-7.07827,-8.526465,-7.504073,-8.00199,-7.681552,-6.886514,-8.189362,-5.856625,-7.074945,-5.353773,-6.087204,-4.966002,-5.647403,-3.958251,-5.155841,-2.830089,-4.775991,-2.136252,-3.882955,-1.381496,-2.683798,-1.476619,-0.5399666,0.3603199,1.128939,1.259484,3.297976,3.422479,4.947628,5.591188,5.709543,7.860862,7.485869,9.114864,9.153382,10.26469,10.62661,11.99443,11.35674,13.53348,12.45072,14.58336,13.97657,14.99771,14.88581,16.12338,15.27106,17.09711,16.34376,17.36531,16.79331,17.27465,16.82572,17.36626,16.96955,17.40142,17.24778,17.38485,18.97726,19.17489,20.04889,21.2078,21.24389,22.90066,23.35346,24.82285,24.14184,25.74783,25.96619,27.38606,27.66466,28.08086,28.75036,28.87948,30.10785,29.08244,30.80214,29.51908,30.13888,30.05725,29.63271,29.99466,29.16168,29.64501,27.64436,28.4317,27.05848,26.70586,25.10954,24.23805,23.24887,22.38957,20.28247,20.02586,18.27659,17.12663,14.79661,14.26012,11.25999,10.85692,7.824152,6.861265,3.62189,3.130783,0.3546523,-0.494213,-3.882062,-5.593333,-6.960393,-9.278907,-10.67481,-13.30187,-14.21701,-16.20441,-17.38221,-19.201,-20.78115,-21.6748,-23.51567,-24.81676,-26.68129,-28.14825,-29.10747,-30.02841,-30.99771,-32.1151,-32.74322,-33.82826,-33.78324,-35.135,-34.49216,-35.85647,-34.45524,-36.81883,-34.56264,-36.50297,-34.68752,-35.52396,-34.04304,-34.70381,-33.2984,-33.40121,-32.57687,-32.48225,-31.76407,-28.79961,-29.42271,-26.9812,-26.88402,-24.77289,-25.08547,-23.58062,-23.64614,-23.96058,-22.90942,-22.65364,-22.96586,-23.01848,-23.49566,-24.03008,-24.70517,-24.80374,-25.7322,-25.4823,-26.06091,-25.53,-24.97768,-25.84061,-24.30517,-24.99704,-23.70256,-23.75472,-23.29327,-23.30219,-21.70583,-21.65897,-21.15611,-19.12537,-19.19991,-16.79964,-17.09794,-15.11655,-14.90859,-13.62543,-12.79008,-11.67645,-10.11615,-9.487529,-7.790382,-6.323051,-5.475543,-3.5615,-3.014186,-1.559597,0.4464115,2.054041,3.512746,4.27705,6.949424,7.180157,10.42828,10.50766,13.20815,13.43002,15.22778,15.86511,18.03046,18.99378,20.1834,21.8927,21.81602,24.46059,24.04786,26.15447,26.34326,27.6214,27.62021,29.53977,29.58993,29.78502,31.14714,31.40345,32.18324,31.92654,32.79626,32.21707,32.58834,31.96568,31.76276,31.33287,31.51532,30.10464,30.76213,28.78763,29.58329,27.51809,27.52679,26.37199,26.00396,24.09902,24.68647,22.59959,22.2224,20.86452,20.5975,18.46871,18.74706,17.36665,16.01279,15.49725,14.44716,14.28851,13.29961,13.3853,13.73206,14.10067,11.40759,12.96958,11.01359,11.32516,9.985066,10.10805,8.782681,8.214211,8.245712,7.214744,6.215278,6.189958,5.603227,5.002962,3.631572,4.280377,3.104197,3.071516,3.270411,1.328404,2.070055,1.338335,1.473611,0.2630334,0.3913131,-1.097515,-0.3997666,-1.689964,-0.777504,-2.438025,-1.889963,-2.146721,-2.939132,-3.520945,-3.996824,-4.150555,-5.168231,-4.692708,-5.687765,-5.270886,-5.82181,-6.350936,-6.826677,-7.348531,-8.312701,-7.174341,-8.862719,-7.921363,-9.480745,-8.658785,-9.831147,-10.66824,-10.68181,-11.28482,-11.37879,-13.11594,-12.47048,-13.64172,-13.36587,-14.91475,-13.57525,-15.44808,-14.44002,-16.43385,-15.76291,-15.81707,-16.064,-16.52646,-15.88029,-16.37934,-16.70003,-16.69887,-17.7034,-17.2382,-17.64905,-17.37202,-18.78355,-18.44084,-19.04254,-20.16962,-19.993,-20.14702,-21.11203,-20.39376,-22.04737,-21.28186,-22.2124,-21.94406,-21.79679,-22.83612,-21.75356,-22.49995,-22.53008,-22.53872,-22.71031,-22.64558,-22.85624,-22.33869,-22.66888,-23.17977,-22.42391,-23.20962,-23.07502,-22.49631,-23.23943,-22.24727,-23.24071,-21.96583,-22.89736,-21.8885,-22.99656,-21.14508,-22.28088,-20.46494,-22.23884,-21.1093,-21.99194,-20.63247,-21.18956,-20.40812,-20.18643,-19.3165,-19.54935,-19.89051,-19.39427,-19.3415,-18.61733,-20.45817,-18.54152,-22.16318,-19.32539,-22.77503,-21.63487,-24.2946,-23.55879,-25.60161,-24.86529,-27.49205,-26.37876,-28.58677,-27.44159,-28.47431,-28.53952,-29.17457,-28.27296,-28.68934,-27.85335,-27.64624,-27.636,-27.05855,-26.67987,-25.92021,-25.37658,-24.30986,-23.75095,-21.94157,-22.15971,-20.21152,-19.58586,-17.53859,-16.92492,-15.29759,-12.65986,-11.16271,-10.085,-6.711574,-5.717336,-2.603791,-1.980224,0.8968259,3.188151,4.220771,7.708056,7.610299,12.10241,12.97813,15.77265,17.20724,20.59543,21.40245,24.29902,26.13321,28.50541,30.57089,32.36885,34.78805,35.63151,38.43525,38.94946,41.29139,43.54246,44.83007,46.55102,47.50857,49.92764,50.4511,52.27396,52.65611,55.05186,53.96917,56.7913,55.65795,57.50811,57.50815,57.42517,57.86567,56.65907,56.90241,56.60301,55.73001,56.27941,56.16073,56.13569,55.88758,56.55886,56.13148,56.66666,57.83373,56.34771,58.41614,56.55585,58.71501,58.04657,59.14231,58.32919,59.58282,60.49478,60.56019,61.65569,61.08544,61.35967,62.08671,60.61611,61.7987,60.33131,60.15267,59.98571,57.81065,58.25655,54.82782,55.3185,51.84883,52.80342,47.61428,48.57283,43.63522,44.44757,40.04748,40.3061,36.19124,35.73347,32.39536,30.59546,27.87666,25.33509,23.38602,20.26494,18.01596,15.1214,12.27146,10.03843,7.679109,3.858629,2.741894,-1.370311,-2.504774,-6.632377,-7.216984,-10.41273,-11.59182,-13.97003,-15.70888,-16.82005,-19.21114,-20.36575,-22.53347,-23.76993,-25.76397,-26.98886,-29.4163,-29.39382,-32.07185,-32.29211,-34.04947,-33.59496,-35.65448,-35.97374,-35.51938,-36.57097,-36.24879,-36.76507,-36.81571,-36.36478,-36.92354,-34.88785,-36.11883,-34.39831,-34.67441,-32.83828,-32.33162,-31.65084,-31.30166,-29.62251,-29.59821,-27.66486,-28.63221,-26.55532,-26.86864,-24.84276,-27.10139,-24.20283,-25.98073,-24.13591,-25.4656,-25.76756,-25.23916,-25.92258,-24.53775,-24.7926,-24.6288,-23.75043,-23.45382,-23.62097,-23.36509,-22.49497,-24.31885,-22.23378,-23.71595,-23.25136,-22.15916,-24.25694,-21.73363,-23.46911,-22.01173,-22.3291,-22.62973,-21.62448,-23.00404,-21.61064,-22.77121,-21.06328,-22.22703,-21.52605,-20.48428,-21.46022,-20.18392,-20.55213,-19.79284,-19.48895,-19.28731,-18.86448,-17.94805,-18.12957,-17.44617,-16.06465,-16.81618,-13.97202,-16.04341,-12.76518,-13.66677,-11.43192,-12.25507,-10.53166,-10.50728,-8.502575,-8.778435,-7.696841,-7.010299,-5.988239,-5.671512,-4.734993,-4.067228,-3.919713,-1.594942,-3.228024,0.6180818,-1.853276,1.8244,0.1250187,2.890865,1.191966,4.012137,2.673244,4.304214,5.05113,4.109875,5.720293,4.420715,6.539454,4.584781,7.012017,4.218222,7.049614,5.490235,6.799805,5.612748,6.167601,7.02536,5.597559,7.527371,4.861895,6.84495,6.413475,6.182224,7.161863,4.927048,6.702808,5.223888,6.567887,5.286906,5.038582,5.459695,4.738045,5.516726,4.263995,5.749698,4.687198,5.999495,5.236457,5.06902,7.031649,5.431917,7.207505,6.039777,6.919379,8.03115,7.341005,8.702124,7.728457,9.513948,8.547779,10.81616,9.292724,10.84936,11.09884,10.74598,12.5861,10.92958,12.35628,12.15422,11.92819,14.39112,12.79717,15.27519,13.85236,16.44023,15.50166,17.26194,16.51971,18.31145,18.99181,17.93524,20.92952,19.67407,21.43263,21.60342,21.96885,22.80695,23.10095,23.16934,24.65461,23.94716,24.14133,23.70256,23.57372,23.52234,24.24605,22.50058,23.26276,22.28056,22.47745,21.62976,21.78754,20.13005,19.77904,18.76341,18.75406,17.84539,16.79913,16.19487,15.77747,14.86968,13.22448,13.58337,11.12776,12.0719,7.452118,9.863154,5.704246,6.406197,4.095451,3.802433,1.760582,1.383812,-0.8826107,-1.861572,-2.564111,-3.982369,-4.850121,-6.657476,-6.449382,-8.782488,-7.577974,-10.8792,-9.363859,-12.36334,-10.74782,-13.02084,-13.37046,-13.85226,-15.18093,-14.25188,-16.15907,-15.5064,-17.11348,-16.50012,-17.39535,-16.77328,-18.10162,-17.60155,-18.80754,-16.81519,-19.22453,-16.52476,-19.76672,-15.89253,-19.01392,-16.36809,-18.56224,-16.9122,-17.29538,-17.70359,-17.01112,-17.40198,-17.0437,-17.08696,-16.93677,-16.7559,-17.89238,-15.88921,-17.54747,-14.97521,-17.60309,-15.53886,-17.78299,-17.47085,-18.03483,-18.79542,-18.81427,-19.43233,-20.28942,-20.38263,-21.42882,-21.29547,-22.88757,-22.80373,-24.74468,-23.96387,-26.12177,-25.58237,-25.63141,-27.9769,-25.70034,-28.08175,-27.29231,-28.08142,-29.59293,-27.49138,-30.23962,-28.48087,-30.11234,-29.75109,-30.79984,-30.06613,-30.96308,-29.83573,-29.94757,-30.61772,-29.31272,-29.20493,-28.44006,-27.50311,-28.16965,-26.9997,-26.40818,-24.28845,-24.22468,-23.00928,-22.33695,-21.32977,-20.36066,-20.03809,-18.36561,-17.61553,-17.10704,-16.47032,-15.61379,-13.99392,-14.37015,-12.43913,-11.70194,-10.83976,-9.537272,-10.14564,-7.314033,-7.891742,-5.765392,-5.072679,-4.181684,-3.471015,-2.317665,-1.376276,-0.8313559,0.01158034,0.9595049,0.9616222,2.883944,2.094143,3.515687,3.894241,4.138143,5.078419,5.035314,6.015067,5.216901,7.570252,4.986662,8.046109,5.49169,7.087026,6.754831,7.326408,6.767527,7.618814,6.156678,7.630292,6.488024,7.253209,6.960712,7.138521,6.535008,7.783433,6.81998,8.118216,6.928456,8.426551,8.559595,8.182,9.01469,10.18532,10.03628,11.10725,10.94681,11.2197,11.46273,12.37431,12.32973,12.84469,12.82997,13.01475,13.02942,13.49443,14.40739,13.9188,13.66211,14.33171,14.44913,14.89429,14.36961,14.74527,16.06625,13.60609,16.76797,14.51223,15.66415,15.19914,14.83553,16.81356,14.69917,16.5145,15.19333,15.94917,16.03949,15.95837,15.81557,16.19388,16.69177,16.4926,17.65929,16.95583,18.13631,18.17493,18.11674,19.29512,18.92621,20.1584,19.02424,20.62693,19.44372,20.7159,19.35553,20.68824,19.84082,20.34168,19.84449,20.29801,20.23844,20.29137,20.4997,20.55835,20.49699,20.03745,20.85949,19.46796,22.01511,19.64799,22.05955,20.72212,21.53357,20.81889,21.33819,21.37348,20.75851,22.17468,21.3828,22.5396,20.96692,22.47949,21.58464,23.07697,21.72834,22.95262,21.47662,23.68366,22.23291,23.51651,21.74686,23.93072,22.17788,23.97008,22.82357,23.11288,22.95319,22.6034,22.94895,22.38979,23.06978,22.1556,22.34757,21.93074,21.63771,22.0789,20.68147,22.09694,20.53618,21.64947,20.40857,20.64974,21.40677,19.53118,20.35871,18.67214,19.17846,18.45467,19.20758,18.04519,18.43906,18.56043,18.64328,19.46609,19.02846,19.96922,20.28005,20.08279,20.82007,21.02809,21.13295,21.67822,21.12022,22.87223,21.20974,22.16917,21.76873,22.19374,21.09879,21.40464,19.819,19.61273,19.11936,17.96499,17.84549,16.40378,17.46422,16.14329,17.10653,15.84642,17.50684,15.68502,16.76985,16.15467,15.48657,15.32642,13.85532,14.09796,12.65762,11.45839,9.970435,8.835451,7.500866,6.043481,3.58753,2.918346,-0.1966032,-0.2132978,-3.69813,-4.43314,-7.756139,-9.077517,-11.91412,-13.67499,-16.61617,-18.51564,-20.43696,-23.73266,-24.26657,-28.04358,-29.29174,-31.86301,-34.38178,-36.06163,-37.75638,-40.04321,-42.06723,-43.38964,-45.07163,-46.9425,-48.97807,-49.08369,-51.56634,-51.64304,-54.40941,-53.87802,-56.72029,-54.97982,-57.80384,-56.75946,-57.85947,-58.14962,-57.819,-57.82106,-58.61102,-58.19908,-57.83475,-58.18851,-57.07327,-57.72865,-56.13335,-54.97326,-54.63597,-52.11948,-52.38212,-50.9453,-50.81014,-49.94895,-50.16661,-49.29441,-50.9265,-49.51818,-51.34341,-51.37061,-50.81339,-52.33561,-51.11864,-52.47299,-50.87154,-52.48583,-49.81486,-51.86039,-49.08275,-49.86098,-48.22733,-48.68877,-47.59578,-46.88199,-45.76986,-45.11085,-44.35573,-43.31641,-43.1226,-41.50731,-41.95217,-39.45204,-40.14951,-38.52819,-39.43532,-36.86741,-38.20065,-34.67136,-34.78136,-32.19512,-31.01652,-28.72469,-26.89439,-24.59307,-23.20469,-20.1824,-18.9039,-16.52201,-14.10416,-12.52244,-10.14386,-8.398909,-5.951125,-3.922818,-1.669598,0.03096802,3.063874,4.692624,7.162588,8.275652,11.32112,12.70805,15.15086,17.42807,18.27145,21.59906,22.45423,25.34907,25.5627,28.0945,29.12798,30.79799,31.5679,32.47739,34.44353,34.27495,35.61298,36.15954,36.12904,37.20793,37.3512,37.0623,37.05324,37.20094,36.6499,36.66633,35.92253,35.74234,35.1083,34.38679,33.27136,33.31095,31.77269,31.30818,30.80485,29.53656,29.48403,27.88607,27.48303,26.35797,25.61327,25.13952,25.28642,23.51807,25.49907,23.97613,25.49768,24.62402,24.59238,23.8781,23.85931,22.09182,22.4116,21.02727,20.85227,19.65457,18.83584,19.26265,17.17856,17.94893,16.51311,15.55913,15.82061,13.99631,14.92296,12.5875,13.95883,11.92374,12.46678,11.17367,10.59981,10.33968,10.21741,10.05692,9.420156,8.844156,9.987129,8.92598,9.112516,8.814244,9.410035,9.040087,9.223708,8.150531,9.482853,9.171992,9.215651,9.902441,9.181406,9.712593,9.536779,9.33911,10.50834,9.326705,10.0521,9.780083,9.599982,9.375606,9.919819,8.421486,10.02797,8.424267,10.23844,8.337034,9.798503,8.189341,9.65713,8.472067,8.460846,8.216656,8.117454,8.655901,8.325582,8.584578,8.385766,8.776653,8.857954,8.3283,7.770835,8.84205,7.068073,9.020857,6.891009,8.360737,6.892228,6.97229,7.390121,6.868196,6.27155,6.610476,6.430244,6.059275,5.765631,6.168324,5.566656,6.758211,5.381781,6.464997,5.635592,5.56663,6.556943,5.468088,5.853859,5.559253,6.859495,6.09053,6.309696,6.214273,6.110667,6.419279,6.253282,6.997096,7.025209,6.560585,7.782096,6.868284,7.746858,7.477239,7.916234,7.252977,7.133055,7.145311,6.249183,6.968423,6.422753,6.503044,7.108943,7.490976,7.67721,7.552044,8.483268,7.676515,9.905073,8.286478,9.607233,9.202015,10.11583,9.563641,10.26211,9.99883,10.27955,10.7089,10.22274,10.41767,10.55068,10.0251,11.914,9.212991,11.11069,9.163013,10.88805,8.901069,9.730633,8.448587,9.006195,8.411422,8.172049,7.277344,7.644577,6.537841,6.800721,5.674363,5.531883,3.668848,4.519987,2.625527,3.167011,0.9494056,1.656382,-0.9120614,0.05149101,-2.520856,-1.679464,-4.261467,-3.95218,-5.605853,-6.256587,-7.590477,-8.400173,-9.60106,-10.08054,-10.53212,-12.57722,-12.20982,-13.60832,-14.44134,-14.83683,-16.43303,-16.17513,-17.47538,-18.51105,-17.59466,-20.67297,-19.21086,-21.48297,-20.5749,-22.34274,-22.02261,-23.13739,-23.05913,-24.21136,-24.06186,-23.93434,-24.4179,-24.36401,-23.92067,-25.18662,-23.89492,-25.51805,-25.06349,-24.07383,-25.64556,-23.54217,-24.69358,-23.4105,-24.42499,-24.0023,-23.1202,-24.05906,-22.24802,-22.57803,-20.7587,-22.40425,-20.08391,-21.59111,-21.03015,-21.47533,-21.91995,-22.40535,-23.12694,-23.79549,-23.30595,-25.50501,-23.52707,-25.51727,-25.93847,-24.7065,-26.49483,-25.64337,-26.8644,-26.47986,-27.40243,-26.9382,-28.27964,-27.39712,-27.7977,-28.25828,-28.14111,-27.64786,-28.63891,-27.61043,-28.66832,-27.47877,-27.1214,-27.54401,-26.31034,-26.43005,-25.81305,-24.44263,-24.75955,-22.6094,-22.92302,-20.10846,-19.56696,-18.15117,-16.1095,-16.0396,-13.21927,-12.37821,-10.53663,-9.265124,-7.185699,-6.417586,-4.033998,-2.762143,-1.041546,0.3646011,1.318467,4.157791,4.996272,7.008687,8.041086,10.36057,11.20126,13.24528,13.50441,14.96032,16.71759,17.04949,17.90863,19.11243,19.51884,20.97007,21.25034,22.16597,21.61601,23.19086,22.74624,23.1533,23.79603,23.32369,23.87459,22.83433,23.39771,22.49148,23.16419,21.74879,22.16596,20.62477,21.10976,18.93964,20.11851,17.64431,17.98877,16.41451,16.69664,13.65647,14.3574,11.94713,12.49138,11.10584,9.704413,10.08138,7.764312,8.535026,6.367288,7.562534,5.744666,6.562796,7.11568,5.828702,6.296957,4.415335,6.506578,3.782157,5.9022,4.065354,5.007195,4.475547,4.652527,5.141632,4.3254,4.937145,5.000816,5.050005,4.75656,6.385277,4.239636,6.794055,4.882196,5.996511,6.232835,5.599531,7.426697,6.603348,6.841941,6.789316,7.12244,7.726495,7.356202,7.733401,7.547737,7.997147,8.269668,7.022239,8.853592,6.244529,9.197207,7.460543,8.270445,8.106778,9.141448,8.537026,8.6139,8.703264,9.557766,8.295194,10.53852,9.07285,10.27739,10.45971,11.06996,10.33194,11.38408,11.29359,12.13733,12.32404,13.10027,12.65354,14.0419,13.35939,14.75418,14.27472,14.97729,14.95195,15.13874,15.96771,15.81216,16.03444,16.50345,17.49155,16.43679,18.61837,17.38829,18.39089,18.27516,19.64749,17.35565,19.71831,19.62442,19.65035,20.30253,19.60882,20.02228,19.86045,19.83123,18.61314,18.74309,18.51584,18.20227,17.13669,17.81011,17.06354,17.08009,17.14314,16.6579,15.83513,16.72401,15.60918,16.54923,15.69257,15.38671,15.39407,14.02322,14.86449,13.69444,14.51928,13.75697,14.88315,14.80535,15.05211,16.27135,16.17087,17.98431,18.03408,19.10392,19.93007,20.51534,21.51248,22.35822,23.54068,23.74709,25.18524,25.12739,26.96594,26.20274,28.73338,26.89763,29.27739,28.24385,28.99605,29.85133,28.20679,30.26084,27.77003,29.41572,27.61789,27.98931,26.58575,25.83702,24.73872,23.24862,22.08444,19.65897,18.56265,16.69135,14.91854,14.32578,11.10845,10.89308,8.463791,7.596028,4.313941,4.164712,0.9327739,0.3600302,-2.601049,-3.865872,-6.690479,-8.553198,-10.5653,-12.98891,-15.99533,-17.69426,-20.73287,-22.51754,-25.31366,-28.04177,-30.93168,-31.8486,-35.84076,-36.813,-39.81262,-41.23118,-43.4615,-45.27315,-46.82393,-48.36662,-49.92053,-51.24863,-51.76236,-53.8137,-53.34702,-55.26983,-55.52701,-55.76689,-57.03757,-56.76249,-56.51223,-56.88532,-57.54685,-57.04197,-58.62196,-56.99701,-58.2974,-56.22178,-57.33786,-55.11691,-55.78567,-54.5558,-54.72202,-54.28476,-54.63974,-54.5819,-54.43607,-55.52403,-54.25536,-55.77256,-55.90622,-56.5353,-57.34993,-58.57859,-57.89514,-59.76687,-58.81209,-59.64869,-59.36077,-58.29495,-58.87706,-57.16629,-57.91222,-55.28994,-56.91446,-53.38879,-54.25403,-52.00431,-51.25792,-49.55486,-47.6731,-45.74999,-45.64993,-40.88979,-41.4147,-37.75818,-36.21454,-34.05834,-31.13679,-30.29066,-27.18584,-25.88079,-22.45234,-21.04203,-18.63408,-16.20259,-14.30932,-11.93039,-10.40178,-8.188767,-6.680344,-4.409556,-2.593462,-0.4690896,0.6762715,3.140328,5.168217,6.488207,9.174522,10.52647,12.12101,14.86565,15.37306,17.86461,18.84124,20.29569,21.80095,23.65726,24.31945,25.32356,26.66419,26.37135,28.0139,27.66814,28.43635,28.04259,28.93049,28.54249,28.17504,28.48404,27.98526,28.40288,26.88615,27.25917,26.99596,25.58002,26.39205,24.02326,24.53088,23.11551,23.19548,21.44119,21.68851,19.4121,20.3012,19.42311,17.31319,18.21849,16.11962,17.85474,15.03647,16.84663,15.16919,16.56154,16.4156,16.88408,17.03584,18.37459,17.8159,19.17232,18.68254,19.25578,18.48965,19.45659,19.17665,20.23185,19.6271,20.92214,20.33099,21.27101,20.74297,21.66174,21.94244,21.2006,22.233,21.46452,22.46312,22.4521,22.28971,23.56534,22.08818,24.24681,21.8404,24.78309,22.49386,24.14296,23.18056,23.49955,23.92528,24.36145,24.21739,23.8706,23.9385,25.40389,23.03845,24.51697,23.27819,23.99825,21.86911,23.56853,21.16154,23.08635,22.13215,21.35584,22.24138,20.19249,21.6602,19.68354,21.15189,19.197,20.67463,19.14461,19.53224,19.09602,18.96035,18.8186,17.9268,18.13046,18.50419,17.34137,17.70024,17.75021,17.14437,17.40783,15.98568,17.46028,16.35478,16.7672,15.81284,16.16015,15.47361,15.63737,15.49974,14.85127,15.27814,14.84369,15.2991,14.62943,15.1506,15.03086,15.15489,14.33934,14.87607,14.51514,15.08541,13.70596,15.67039,12.81901,15.23179,13.65019,14.78095,13.23077,14.21995,12.93827,14.63696,12.51002,13.60674,13.63154,12.00294,13.5265,12.19214,12.45077,12.42293,11.7894,11.50867,9.645329,11.46639,9.229919,10.84807,9.171295,10.69008,9.555182,10.94787,10.67212,11.18648,11.76779,12.58422,12.33049,13.53214,13.85429,14.26407,15.14255,15.04715,15.02038,16.0482,16.39985,16.34353,17.2194,16.17263,17.50186,16.8993,16.91626,16.35127,16.94091,15.47513,16.33888,15.15053,15.72754,14.33638,14.65175,13.4961,12.71299,12.18903,10.57903,10.38514,7.770061,8.647631,5.889513,5.067817,4.205385,1.708393,1.996073,-0.9485413,-1.855811,-4.111435,-5.75953,-6.514665,-8.572682,-9.94661,-12.17761,-13.35317,-15.5071,-15.98498,-18.16686,-19.57379,-21.98808,-22.79562,-24.27352,-25.74789,-27.69767,-28.75894,-30.29244,-31.37509,-33.41726,-34.49766,-34.23812,-37.59606,-36.66777,-39.59245,-39.4002,-41.0831,-41.12435,-42.42052,-43.3362,-43.55038,-43.94675,-45.03423,-44.65695,-45.56422,-46.39939,-45.83311,-46.02839,-46.43652,-45.43112,-45.45542,-44.61216,-42.91089,-43.23598,-41.36359,-42.15441,-40.5505,-40.76568,-40.43192,-40.90215,-39.55813,-41.10613,-39.83118,-41.40422,-41.20392,-41.35661,-41.97702,-42.95976,-42.92233,-44.48293,-44.61541,-45.21165,-44.53291,-45.95503,-45.00884,-45.50702,-45.08004,-44.82424,-45.04549,-43.99814,-44.0058,-42.98561,-42.79748,-42.02972,-41.21957,-40.64879,-38.75358,-39.19652,-37.54756,-36.14127,-35.0691,-33.29231,-32.93712,-30.63733,-29.60226,-28.21322,-26.71299,-26.04301,-23.60543,-22.53542,-19.72058,-19.57963,-16.89622,-15.24652,-14.12605,-11.18566,-10.84645,-8.640927,-7.204383,-4.758869,-3.253224,-1.814213,1.068031,2.096477,4.814328,6.1434,8.291625,10.19433,11.85919,13.9207,14.92374,16.99363,17.87908,20.3623,20.16419,22.41507,22.66091,24.56495,25.04731,25.42601,25.79984,27.35136,27.14864,28.45041,28.20151,28.73638,28.10801,29.05612,28.45881,28.16748,28.26223,27.42491,27.43084,26.64443,26.62184,25.46875,25.09917,24.20263,23.67414,22.44599,22.29904,20.7613,20.87402,19.44461,19.71484,17.79649,18.62199,17.3064,17.85731,18.44269,16.86838,18.28608,17.45067,17.04632,15.44595,16.28231,15.02454,15.624,13.74264,14.27321,13.87959,13.58333,13.21827,12.7166,11.69692,11.99374,11.72382,11.54285,10.76879,10.83,10.29581,11.22024,9.9065,9.927149,10.02056,9.727689,9.571167,8.992818,9.376156,9.879745,9.26477,9.503153,9.278146,10.16214,8.806607,11.41261,9.008137,11.01296,11.34788,11.78691,12.02124,12.42555,12.70596,13.53404,13.80816,14.05695,14.43456,14.61478,15.3702,16.11402,15.8834,15.82905,17.27451,16.40238,17.46029,17.50026,17.97862,18.24564,18.87069,19.95752,19.03271,20.35089,20.65106,21.43788,21.69681,21.5699,22.89849,22.10151,23.10938,22.54199,22.88483,22.34452,22.44686,23.25231,21.32304,22.52348,21.87182,21.43919,21.45116,20.87911,20.20947,20.79913,19.69797,20.00708,19.28684,19.53318,18.83013,19.0081,18.14032,18.35859,17.97124,18.44468,17.48456,17.81553,17.28694,16.91809,17.11267,17.32024,16.6525,16.26702,16.87718,15.52557,16.74115,14.82697,16.23801,13.88827,15.30436,14.74446,14.55195,14.14406,14.25668,14.19695,13.59689,12.50582,12.23434,13.18463,11.49498,13.05339,11.65675,12.59416,12.81829,13.61635,13.16678,14.12809,14.4591,15.76441,15.78128,15.86677,16.81546,17.37865,17.8146,18.059,17.63688,18.77346,18.41995,19.04996,18.87671,19.05527,19.38865,18.97577,18.39108,17.82784,17.77098,17.44183,15.92667,16.86956,14.25256,15.70949,13.35169,12.75437,11.62148,10.81429,9.552713,8.571108,6.789607,6.646816,4.063209,3.78643,1.505938,0.4773845,-1.047555,-2.183283,-4.453003,-5.69856,-7.193079,-8.011348,-11.06793,-11.61373,-13.69347,-15.07281,-17.1021,-18.25652,-20.22181,-22.11282,-23.61735,-26.56765,-26.6969,-30.96394,-30.09611,-33.98701,-33.9229,-37.34412,-37.21099,-39.71079,-41.05609,-42.11591,-44.04533,-45.15178,-46.40451,-47.52054,-48.98593,-49.00907,-50.18795,-51.24754,-51.21161,-51.76394,-53.61423,-51.81456,-52.97505,-51.298,-52.69898,-50.74739,-52.99553,-50.30713,-52.65955,-50.71471,-52.47517,-51.70552,-52.03465,-52.0344,-52.26265,-52.69817,-52.29363,-52.98017,-53.23757,-52.90676,-53.34072,-53.43331,-54.21995,-53.7636,-54.73127,-55.0872,-55.57356,-56.12416,-55.19328,-55.32816,-54.98562,-55.14321,-53.76883,-54.20937,-51.60762,-52.59758,-50.95039,-50.43618,-48.60148,-48.4639,-46.87139,-45.2296,-43.94603,-42.37044,-40.96293,-39.51447,-37.68288,-35.52605,-33.71166,-31.74844,-30.14146,-27.74964,-26.00151,-23.54444,-22.58934,-19.39175,-17.95973,-14.76957,-14.85901,-9.961399,-10.99729,-5.400809,-6.414225,-1.808724,-2.312065,2.174404,2.401835,5.958273,6.014176,9.348707,10.28396,12.21867,13.40827,15.3432,16.73679,18.18699,19.39026,20.94593,22.2733,22.81052,24.29528,24.6738,26.0399,26.23422,27.26059,26.89923,28.1882,27.11249,28.7438,27.42709,29.21008,27.00167,28.36446,27.16874,27.82028,25.8598,27.31245,24.7731,26.36402,24.32378,24.92429,24.33724,24.20792,24.00052,24.16121,24.09735,23.92379,24.24794,24.37486,23.7661,23.60044,25.39382,23.00538,24.96842,22.30488,24.66677,22.26793,24.14827,21.89157,23.13172,22.00602,23.27436,22.4343,22.07725,22.2694,22.83701,22.7639,22.96838,22.66898,24.06677,23.11207,24.62681,24.53606,25.72849,26.25141,26.56366,27.79676,27.82112,28.85138,28.51093,30.11668,29.5007,31.10808,29.73376,32.14873,30.08517,31.8739,30.83664,31.87909,30.88316,32.82075,30.47222,32.07767,29.98535,31.51869,29.40613,30.89221,29.57533,29.19341,28.05526,28.29853,26.48955,26.90881,24.88428,24.8984,24.14853,22.61792,23.37397,19.83829,22.62362,17.23805,20.95031,14.93539,18.96584,13.9043,16.59695,13.22274,13.9139,11.35604,12.69717,10.85024,10.05947,9.642102,8.917393,8.115225,8.5463,8.099299,7.616979,7.531448,7.151882,8.365841,6.782131,8.625897,7.436319,8.657314,7.911026,9.38821,8.292487,10.79949,9.063503,11.85553,10.17595,12.19892,12.69994,12.49997,13.32659,14.84339,14.05032,17.40935,15.68425,18.96151,18.95329,20.69166,20.56804,22.54752,22.27141,22.85202,23.973,22.75861,22.95293,22.50032,23.1074,22.02872,23.94414,22.28974,24.41613,22.38225,24.26366,22.99304,24.69155,23.51601,24.66631,23.48649,23.80272,24.55775,24.29737,25.01552,23.55979,25.4578,24.39826,24.88438,24.91728,24.91729,25.0806,24.61145,24.1458,24.66964,23.72781,24.02605,23.23062,23.38167,21.97014,22.187,20.54401,21.132,18.45382,18.74541,17.34336,16.53537,15.47973,14.5297,12.15115,12.78123,8.926213,10.49182,6.633233,6.789293,4.165355,3.129709,1.279303,-0.4560234,-2.051274,-2.375702,-5.51564,-5.471406,-8.151889,-9.305356,-10.42779,-13.24524,-13.23098,-17.00318,-16.16022,-19.49713,-19.15752,-22.49425,-22.7673,-24.66451,-25.60775,-27.47676,-27.66107,-30.46505,-30.62683,-32.25391,-33.23631,-33.25396,-34.50138,-34.60886,-36.32706,-36.19079,-37.16552,-36.77957,-37.84616,-38.07878,-38.2,-37.77376,-38.50534,-37.84508,-38.31414,-37.57058,-38.15007,-37.00667,-38.21737,-37.64447,-37.19543,-37.77552,-36.49509,-36.89719,-36.12709,-35.71683,-36.23055,-35.07394,-36.05936,-35.62796,-34.92541,-34.86504,-34.74077,-35.295,-35.31136,-37.30786,-36.62486,-38.62644,-37.91013,-39.9232,-38.80604,-41.89961,-41.35067,-43.30793,-43.3858,-44.84983,-45.5056,-46.50729,-47.38276,-48.22862,-48.4305,-48.84319,-49.59583,-49.67192,-50.82539,-50.04528,-50.9759,-51.0158,-50.32626,-51.03762,-49.75672,-49.97177,-48.80266,-48.48353,-47.4686,-46.28999,-45.57286,-43.78773,-43.09683,-41.31842,-40.48299,-37.60892,-37.48772,-34.92096,-33.43081,-31.9659,-29.63174,-28.09539,-26.27189,-24.77262,-22.95446,-20.39703,-19.4066,-17.90622,-15.10201,-14.16774,-11.93544,-10.10147,-8.063187,-6.468563,-4.775119,-2.731193,-1.207832,0.2169012,1.860949,2.867497,5.364375,5.06845,7.686518,7.760816,9.418182,10.02805,10.26874,12.19385,11.70018,12.8798,12.82213,13.4736,13.31985,14.3101,13.60395,15.50559,12.76981,15.07965,13.25009,14.51815,13.02127,13.58665,12.46148,11.56016,12.0239,10.63648,10.33502,9.720913,9.047261,8.688741,8.269946,7.343275,7.281135,6.107717,6.842659,5.567743,5.98106,4.88763,5.384388,4.011055,5.641309,5.108396,6.012696,6.888382,7.551514,7.435988,8.847185,7.455342,8.863404,7.844393,9.341066,7.750598,9.940313,7.934643,9.936717,7.648041,10.20222,8.725849,9.058355,10.03924,8.751567,10.79219,8.555657,10.95695,10.28748,10.33271,11.01045,9.952447,11.27109,10.00843,10.67334,9.774189,11.42959,9.325663,11.15079,9.831576,10.28456,9.482146,10.56611,10.00017,10.13653,10.78165,10.46511,10.87934,10.51804,10.52504,10.54909,10.44964,10.73859,9.360553,10.56954,9.966759,9.458675,9.125239,9.118638,10.02312,7.964588,9.801031,8.620864,9.171362,8.871714,8.796415,9.106857,9.159383,9.486471,8.751705,10.11497,8.414614,9.808617,8.690496,9.813199,8.8839,9.653694,8.948665,9.282242,8.727972,9.28094,9.299755,9.173354,8.335183,9.335566,8.984308,9.223651,9.234427,9.414144,9.579734,9.364374,10.06191,9.216959,10.04857,8.758522,9.84029,9.283382,9.172039,9.63361,9.181608,10.41585,9.461824,9.920872,10.52096,9.781548,10.29607,10.38113,10.29825,10.21674,10.70945,10.50752,9.932658,10.75503,9.507017,11.08479,10.08967,10.34405,10.65533,9.973823,10.08632,10.32446,8.874218,10.57925,8.497102,10.43846,7.708644,9.859066,7.108403,9.229107,7.166999,7.859084,7.657966,6.726788,7.740793,5.888352,8.166532,5.294285,8.133478,5.761165,6.725693,6.109012,5.862134,7.184224,5.047296,7.461187,6.139645,6.949727,6.32244,7.717628,6.008115,8.089339,6.773085,8.396199,7.768175,8.609308,9.241304,9.57819,9.203865,10.28058,9.594821,10.98229,10.05923,11.71993,10.36187,12.89353,11.13906,12.95451,12.766,14.19353,13.79679,13.86417,15.72484,14.16199,16.3278,