ConstAcc,0.5,0.56926,96.89887,85.29205,74.44489,64.33123,54.92526,46.20155,38.13503,30.70104,23.87524,17.63372,11.95292,6.809655,2.181135,-1.955054,-5.620945,-8.838182,-11.62803,-14.01135,-16.00863,-17.63997,-18.92507,-19.88324,-20.53339,-20.89405,-20.98332,-20.81895,-20.41825,-19.79814,-18.97516,-17.9654,-16.78459,-15.44804,-13.97063,-12.36686,-10.6508,-8.836125,-6.936079,-4.963501,-2.930814,-0.8500197,1.267296,3.409969,5.567257,7.728838,9.884819,12.02573,14.14252,16.22659,18.26974,20.26423,22.20273,24.07835,25.88465,27.6156,29.26564,30.82962,33.12482,34.34238,36.4559,38.82629,40.58355,41.71964,42.69233,43.55465,44.23097,44.78222,45.03501,44.93952,44.68611,44.18244,43.44633,42.42513,41.20617,39.87564,38.41758,36.91336,35.30993,33.60758,31.89296,30.24398,28.78988,27.45331,26.22928,24.97092,23.77074,22.6531,21.64393,20.8768,20.32612,20.03655,19.98735,20.1896,20.52487,20.9037,21.32093,21.74,22.15739,22.55124,22.89907,23.21691,23.5456,23.86836,24.14375,24.37148,24.50323,24.58263,24.62769,24.68029,24.73184,24.81006,24.97744,25.29428,25.71833,26.25822,26.76601,27.20093,27.66775,28.14232,28.63004,29.11963,29.66725,30.31423,31.07802,31.82624,32.58158,33.34786,34.23756,35.18937,36.17047,37.06957,37.9234,38.76105,39.65886,40.47459,41.21935,41.97608,42.72111,43.43437,44.09114,44.66328,45.25399,45.87396,46.50614,47.06169,47.41359,47.82625,48.19299,48.55461,48.76512,48.76143,48.561,48.23454,47.832,47.35809,46.83454,46.27425,45.81376,45.41168,44.9669,44.48167,43.95477,43.4559,42.9344,42.40052,41.829,41.26995,40.72193,40.28719,39.82861,39.38073,38.95833,38.69075,38.52459,38.41412,38.27931,38.23805,38.09086,37.94225,37.72522,37.44803,37.25986,37.13767,37.12472,37.13393,37.23163,37.33705,37.50541,37.78955,38.17848,38.56533,39.02773,39.39378,39.76458,40.05624,40.27478,40.49766,40.82585,41.28285,41.70934,42.07851,42.4175,42.71608,43.06211,43.35411,43.54473,43.67217,43.85184,44.15475,44.4146,44.60521,44.66819,44.78656,44.97269,45.1311,45.24835,45.34491,45.47629,45.66842,45.93724,46.18999,46.36129,46.51426,46.57895,46.50495,46.27657,45.92066,45.65782,45.43609,45.25023,45.10517,44.95131,44.81754,44.65952,44.3337,43.73281,42.95568,42.12919,41.3423,40.55044,39.85774,39.41661,39.11594,39.03436,39.0856,39.16191,39.25008,39.3134,39.43398,39.55111,39.80158,40.10262,40.51102,41.02352,41.55885,41.89714,42.3977,42.80217,43.20232,43.4685,43.68343,43.80645,43.84073,43.78193,43.59414,43.36038,43.00523,42.55672,42.0563,41.41715,40.5465,39.47347,38.24522,36.92547,35.55428,33.97719,32.25606,30.49374,28.75339,27.05405,25.3455,23.45676,21.46553,19.29733,16.96999,14.38134,11.6205,8.783327,6.059995,3.391927,0.9147673,-1.621013,-4.159759,-6.600055,-9.112156,-11.75652,-14.62859,-17.40233,-20.11275,-22.70894,-25.361,-27.95991,-30.53296,-32.79709,-35.03101,-37.2974,-39.38608,-41.33937,-43.14105,-44.8193,-46.42156,-47.83538,-49.23542,-50.58098,-51.95536,-53.21374,-54.38461,-55.29374,-56.04415,-56.67638,-57.18287,-57.59514,-57.66353,-57.40418,-56.8688,-56.2462,-55.56662,-54.78485,-53.84928,-52.84874,-51.9066,-51.00892,-50.07151,-49.10535,-48.13132,-47.2473,-46.51334,-45.86183,-45.23673,-44.72665,-44.27641,-44.0738,-44.00438,-44.17311,-44.56267,-45.12425,-45.70422,-46.31407,-46.6924,-46.92687,-47.20234,-47.58573,-48.07753,-48.52152,-48.95963,-49.488,-50.04335,-50.63436,-51.18528,-51.72488,-52.18115,-52.73933,-53.28665,-53.86386,-54.48597,-55.14855,-55.74098,-56.51485,-57.23842,-57.90085,-58.50173,-59.22187,-59.93846,-60.61925,-61.15646,-61.67724,-62.34255,-63.04947,-63.5681,-64.11466,-64.74782,-65.50065,-66.26279,-66.872,-67.31289,-67.67856,-67.82712,-67.97837,-68.16038,-68.30781,-68.48884,-68.79701,-68.98348,-69.19615,-69.32397,-69.52774,-69.76421,-69.87434,-69.71179,-69.46642,-69.24502,-69.26589,-69.20702,-69.19876,-69.04063,-68.9853,-69.03696,-69.02534,-68.81258,-68.45815,-68.28071,-68.25176,-68.17214,-68.11887,-68.16679,-68.15011,-68.04556,-67.96358,-67.92546,-67.64929,-67.18537,-66.47958,-65.78894,-65.30973,-64.98235,-64.79108,-64.79936,-64.8374,-64.96042,-65.02982,-65.09772,-65.18294,-65.23819,-65.17921,-65.07857,-65.2087,-65.37657,-65.62646,-65.83549,-65.94796,-65.85901,-65.87996,-65.939,-65.98896,-65.95086,-65.97606,-65.88662,-65.73268,-65.4522,-65.16858,-64.62721,-64.16829,-63.68879,-63.32107,-62.5059,-61.20204,-59.53083,-57.90791,-56.09166,-54.57316,-53.46758,-52.46159,-51.64073,-51.05141,-50.73905,-50.46327,-50.29116,-50.27262,-49.95037,-49.47128,-49.00939,-48.83089,-48.86177,-48.89542,-48.72991,-48.2342,-47.70736,-47.19178,-46.46963,-45.28881,-43.8771,-42.50165,-41.11776,-39.64089,-37.86944,-35.98524,-33.96899,-31.8134,-29.44797,-26.83844,-24.08767,-21.35822,-18.88582,-16.15489,-13.00138,-9.363997,-5.544398,-1.61195,2.663216,6.84968,11.03914,14.81868,18.3865,22.0784,26.1668,30.60151,35.34666,40.59217,46.13718,51.87058,57.78019,63.63531,69.70011,75.77913,82.0686,88.011,93.77017,99.42573,104.8757,110.134,115.081,119.8603,124.2134,127.9902,131.4164,134.6646,137.8252,140.7994,143.7763,146.9506,149.9384,152.0598,153.0747,153.1427,152.6445,151.7912,150.6143,149.0151,147.02,144.767,142.2629,139.2718,135.4235,131.2827,126.9395,122.1687,117.1945,111.963,106.4367,100.4972,94.30025,88.01973,81.57221,74.95001,68.46887,61.8223,55.16165,48.78931,42.6501,36.63288,31.20104,25.85074,20.79274,15.94725,11.7388,7.862474,4.05738,0.03384512,-4.065064,-8.521577,-12.7806,-16.78521,-20.62004,-24.30248,-27.66097,-30.3289,-32.80147,-35.01361,-36.88191,-38.62938,-40.39264,-42.20735,-43.61058,-44.70541,-45.33345,-45.33345,-45.10802,-44.84729,-44.52031,-44.09074,-43.9142,-43.98304,-43.95377,-43.83667,-43.5694,-43.27786,-43.07501,-43.02031,-43.16831,-43.36958,-43.97044,-44.79823,-45.67249,-46.0461,-46.28778,-46.80535,-47.78748,-49.04273,-50.67265,-52.51695,-54.1152,-55.47673,-56.49247,-57.13162,-57.5311,-57.49566,-57.21598,-56.9589,-56.79612,-56.61968,-56.22694,-55.58765,-54.62392,-53.64763,-52.62457,-51.82607,-50.96202,-49.89811,-48.70353,-47.17211,-45.85598,-44.5681,-43.43953,-42.28406,-40.92413,-38.97907,-36.75816,-34.51195,-32.32645,-30.33511,-28.55171,-27.02039,-25.48657,-23.77108,-22.06412,-20.11647,-18.10564,-16.15343,-14.25714,-12.38419,-10.63706,-9.080094,-7.703555,-6.177743,-4.757825,-3.451969,-2.020214,-1.054788,-0.4337833,-0.07773729,0.376677,1.162827,1.641257,1.855395,1.802236,1.591786,1.550688,1.56659,1.083015,0.1506252,-0.9056651,-2.208333,-3.463466,-4.781223,-6.153833,-7.753591,-9.169554,-10.79984,-12.4355,-14.02208,-15.33603,-16.85571,-18.49729,-20.37121,-22.28986,-24.23611,-26.10014,-27.77982,-29.45203,-31.35521,-33.36483,-35.21209,-36.48262,-37.80274,-39.11701,-40.3842,-41.74561,-43.20675,-44.93049,-46.14121,-46.91537,-47.59375,-48.54394,-49.8795,-51.12779,-52.3822,-53.45756,-54.42526,-55.42624,-56.50273,-57.71084,-58.55482,-59.21442,-59.76738,-60.10435,-60.1716,-59.65079,-59.21272,-58.90306,-58.50566,-58.21967,-57.98483,-57.80348,-57.52188,-57.02052,-56.45053,-55.82024,-55.1247,-54.3249,-53.46813,-52.29529,-50.90971,-49.41058,-47.96733,-46.67798,-45.29347,-43.37635,-41.118,-38.8463,-36.58382,-34.33449,-31.88448,-29.3111,-26.81544,-24.18692,-21.37561,-18.5302,-15.77763,-13.39808,-10.99884,-8.154714,-4.639495,-1.022925,2.609512,5.931528,9.333481,12.86717,15.93216,18.45732,20.98154,23.88604,27.41457,31.25955,34.92584,38.5398,42.12287,45.66339,49.25209,53.09502,56.44359,59.70924,63.05233,66.06824,68.59273,70.90818,73.04537,75.01419,76.75912,78.19204,79.39801,80.27545,81.37203,82.14046,82.48601,82.44524,82.28196,82.58483,82.4597,82.15192,81.09987,79.48665,77.4718,75.63589,73.77353,71.48037,68.72631,66.31052,63.66107,60.76573,57.72636,54.77088,51.59665,48.22169,44.31961,40.44985,36.68129,33.28373,30.09517,26.68703,23.46865,19.71931,15.63756,11.31231,7.452393,4.077849,0.79429,-2.477823,-5.759985,-8.949977,-12.0495,-14.86894,-17.21866,-19.26545,-20.96997,-22.57292,-24.10083,-25.73492,-27.70605,-29.24315,-30.52765,-31.68694,-32.86324,-33.90144,-34.68779,-35.18171,-35.45393,-35.40894,-34.82119,-34.23005,-33.36401,-32.73139,-31.86653,-30.77465,-29.22417,-27.72686,-26.29887,-24.77329,-23.01981,-21.32974,-19.7856,-18.32627,-16.92863,-15.69641,-14.44245,-13.21127,-12.261,-11.60764,-10.93149,-10.24722,-9.384607,-8.397062,-7.635869,-7.280267,-7.143755,-7.432474,-7.886205,-8.533434,-9.473727,-9.75358,-9.598406,-9.208469,-8.875765,-8.606705,-8.663217,-8.62582,-8.751119,-8.686672,-8.41397,-8.538941,-9.124121,-9.533013,-9.916636,-10.19707,-10.63404,-11.04927,-11.76534,-12.49466,-13.3037,-14.13754,-14.9359,-15.97939,-16.87464,-17.49315,-17.6041,-17.57344,-17.7641,-18.37823,-19.66677,-20.93641,-22.36337,-23.7078,-25.16721,-26.18895,-27.21538,-28.62955,-29.59604,-30.12387,-30.94215,-31.94608,-32.99208,-34.44737,-36.02956,-37.53456,-38.64354,-39.26647,-40.4023,-41.18003,-41.95945,-42.64411,-43.1112,-43.57612,-43.83715,-43.97788,-43.40533,-42.81511,-42.54373,-42.5175,-41.3449,-39.86125,-38.33727,-37.25637,-36.13295,-34.86211,-33.30898,-31.83125,-30.42849,-28.80235,-27.27164,-25.30579,-23.38446,-21.56109,-19.91325,-17.72701,-15.17436,-12.30842,-9.831098,-7.406005,-4.50132,-1.612107,1.317258,3.980285,7.059658,10.50328,13.96427,17.36682,20.64191,23.58985,26.34272,28.92914,31.47915,34.48212,37.69602,41.11733,44.97717,48.67098,52.36133,55.96606,59.80573,63.60004,67.21931,70.58071,73.70556,77.09958,80.26094,83.16196,85.64957,87.95532,90.13996,91.99743,93.24507,94.54477,95.67549,96.57902,97.36468,97.67385,97.46386,96.94289,96.0257,94.94532,93.62087,92.0576,89.97588,87.58816,84.92218,82.23726,79.27635,76.04115,72.9528,70.00463,67.07254,63.72938,60.45311,57.47256,54.39025,50.90816,46.72473,42.29552,37.95791,33.83184,29.5454,24.81749,20.0853,16.25406,12.55913,8.926796,5.33471,1.371733,-2.762365,-6.285428,-9.683435,-12.92185,-16.16128,-19.18963,-21.42726,-23.02,-24.96984,-26.62987,-28.13881,-29.72614,-31.54974,-33.39664,-35.11604,-36.75359,-37.90076,-39.58074,-41.2252,-43.06763,-44.06568,-45.35957,-46.72264,-48.23497,-49.80725,-51.07085,-51.81353,-52.39393,-52.97752,-53.34116,-53.90859,-53.91879,-54.01159,-54.36181,-54.66846,-54.56378,-54.68103,-54.40929,-54.63943,-54.55496,-54.42519,-54.3379,-54.2991,-54.23946,-54.49789,-54.58309,-54.89754,-55.14415,-55.93843,-57.2416,-58.14292,-58.24452,-57.97582,-57.4008,-57.05907,-56.88201,-56.29916,-55.70849,-54.87606,-54.37793,-53.48191,-52.6537,-51.64634,-50.73462,-49.74716,-48.62177,-47.40886,-46.07911,-45.24428,-44.14831,-42.99881,-41.61713,-40.0398,-38.12114,-36.60315,-35.07818,-33.60857,-32.3874,-31.10233,-30.06152,-29.02657,-27.88467,-26.89629,-26.09829,-25.65779,-25.1052,-24.09351,-23.20445,-22.96812,-23.04223,-23.10608,-23.17792,-23.5408,-24.26096,-24.88564,-25.4609,-26.33076,-27.24096,-28.46769,-30.1218,-32.07677,-33.91744,-35.81585,-37.52343,-38.93738,-40.24687,-41.87542,-43.13059,-44.44577,-45.57983,-46.47304,-46.90033,-47.37196,-47.48254,-47.44343,-47.18809,-46.70008,-45.74073,-45.49639,-45.23859,-45.05326,-45.23506,-45.03694,-44.87525,-44.77127,-44.90507,-44.97683,-45.0978,-44.93694,-45.06217,-44.91019,-44.85456,-44.74466,-44.8812,-44.91123,-44.4295,-44.00386,-43.75144,-43.42664,-43.04512,-42.63055,-42.46985,-42.30709,-42.06608,-41.71909,-41.50586,-41.48627,-41.08782,-41.07543,-40.99195,-41.17165,-41.04653,-40.82277,-40.51947,-40.43651,-40.38124,-40.63393,-40.96484,-41.11682,-41.33868,-41.29816,-41.08627,-40.95564,-41.10582,-41.01514,-40.78586,-40.56361,-40.57912,-40.65119,-41.06337,-40.90019,-40.89048,-40.38851,-39.97724,-39.42631,-38.91149,-38.4021,-37.89975,-37.25827,-36.4026,-35.71638,-35.11153,-34.55341,-33.79844,-33.4285,-32.93032,-32.77268,-32.18363,-31.55895,-31.04117,-30.73566,-30.84653,-29.7207,-28.57995,-28.13168,-27.92157,-27.71418,-27.77754,-28.11097,-27.05132,-25.96463,-25.23607,-24.92661,-24.30169,-24.28919,-24.8763,-25.82306,-26.59979,-27.41195,-28.80057,-30.39078,-32.05599,-33.69225,-35.30164,-37.04296,-39.17031,-40.77804,-42.2802,-43.77138,-45.50697,-47.02815,-48.39966,-49.65447,-50.64232,-51.4876,-52.3769,-52.92756,-53.03089,-53.10256,-53.04918,-53.81153,-54.21944,-53.44955,-52.58194,-51.31481,-49.71073,-48.00955,-45.84322,-43.20546,-40.44442,-37.45959,-34.56871,-31.39055,-27.95097,-23.50319,-19.18996,-14.92741,-10.0678,-5.181035,-0.5362897,4.381502,9.287197,14.71682,20.21753,25.51944,30.95818,36.36911,41.40003,46.37666,51.37494,56.26874,60.8203,64.92848,68.74868,72.29878,75.39774,78.03311,80.63079,83.26608,85.36958,86.98792,88.22044,89.1009,89.23003,89.57166,89.17426,87.80306,86.43025,85.06864,83.55997,82.11779,80.38365,78.23575,75.51899,72.52794,69.25265,65.55215,61.58624,57.52717,53.1783,48.73402,43.91828,39.01713,34.01892,29.18634,24.33824,19.3727,14.72085,10.03121,5.562158,1.198194,-2.813197,-6.135837,-9.992948,-13.51568,-16.50178,-18.86495,-20.81598,-22.42528,-22.97288,-24.27445,-25.92846,-27.40951,-28.62397,-29.76882,-30.87795,-31.60201,-31.93222,-32.08766,-32.31803,-32.647,-32.58057,-32.22586,-31.82023,-31.17042,-30.38806,-29.28035,-28.227,-27.17115,-26.05109,-24.58634,-23.21389,-22.25834,-21.04409,-20.0672,-19.09961,-18.54065,-17.69861,-17.09223,-16.86285,-16.5577,-15.59102,-14.22875,-13.31911,-12.68011,-11.53801,-11.06258,-10.62667,-10.02811,-9.912982,-10.10484,-10.4937,-9.612997,-8.431139,-8.108311,-8.214098,-8.536192,-8.663665,-9.125787,-9.283252,-9.408206,-9.514953,-9.923128,-10.32343,-11.0145,-11.29758,-11.3746,-11.15306,-11.52971,-12.18947,-12.66783,-13.54571,-14.32259,-15.03005,-15.47753,-15.95918,-16.83706,-17.4241,-18.02939,-18.35919,-18.60026,-18.87134,-19.37752,-19.69486,-19.19872,-18.83616,-18.5352,-17.77138,-16.84098,-15.87143,-14.65134,-13.08938,-12.14837,-10.95566,-9.509686,-7.690215,-6.304063,-4.794601,-3.124413,-1.123005,0.8560919,2.623957,5.177518,7.450459,9.525662,11.66444,13.79652,15.68769,17.64154,19.53595,21.48016,23.55041,25.16347,27.23996,29.46342,31.20885,32.96351,34.59378,36.01351,37.81855,39.22895,40.65922,41.78487,42.98671,44.30945,45.09667,46.37276,47.16777,47.92631,48.65172,49.09575,49.65997,50.2365,50.60332,50.94828,51.53536,51.60967,51.61588,51.46887,51.16239,51.03995,50.91252,50.14264,49.79715,49.04085,48.90838,48.49374,47.97728,47.26408,46.46735,46.20989,45.58111,45.2692,45.19175,44.62878,44.29779,43.22878,42.07937,41.93728,41.81564,42.02342,42.40237,44.11975,45.1118,45.43581,46.34061,47.21382,48.12605,48.88294,49.44396,50.43639,51.57829,52.10743,52.68459,53.31783,54.48243,55.63253,55.93184,55.25521,55.40302,55.65798,55.52097,57.61963,63.59013,64.03989,62.83195,61.77591,61.12548,51.22461,47.9521,46.21352,43.62188,40.44739,37.78253,35.72277,33.61692,32.11126,30.52787,29.38123,28.29972,27.65884,27.19173,26.19777,25.90252,26.06472,26.4272,26.62743,26.97464,27.99415,29.05671,30.22515,31.32752,32.93139,33.78439,34.83169,36.28228,37.56155,39.07272,40.60093,41.72538,43.7773,45.26785,46.55219,48.04466,49.45971,50.85484,52.34197,53.64424,54.75382,56.0364,57.26274,58.58168,59.61704,60.82202,61.69746,62.3381,63.30371,63.75603,64.64018,65.05522,65.61038,66.26381,67.04722,67.09291,67.4204,67.81637,67.85269,68.03247,67.84493,67.43009,67.50473,67.28951,66.75814,65.82299,64.90029,64.3641,63.168,61.88128,60.49012,58.57683,56.72544,55.05181,53.32589,51.03426,48.20941,45.65907,43.43061,41.51558,40.10301,38.06225,36.75751,35.84764,35.20657,33.61421,32.11883,30.78376,30.17032,29.26195,28.30845,27.81906,27.62269,27.5427,27.37367,27.68012,28.14614,28.61437,29.64139,31.35595,33.21118,35.10733,37.87542,41.11501,44.82048,45.61285,40.49325,38.54903,36.87895,34.17188,29.21665,34.1944,34.46503,32.98049,32.39507,32.20673,32.36018,32.0443,32.0846,31.75965,31.51611,31.12055,30.80786,30.72803,30.78063,31.12241,30.77707,30.54367,30.82966,30.80572,30.98136,30.58797,30.77206,30.90207,31.19245,31.34032,31.15268,31.07003,31.4841,31.84543,31.76112,31.55322,31.85677,31.52709,31.51233,31.48861,31.76108,31.77374,31.54385,31.66175,31.57127,30.97144,30.21124,29.2745,28.57119,27.58827,26.70246,26.23238,26.6262,27.01387,27.2093,27.30755,27.9633,28.86705,29.5561,29.92477,30.91307,31.52884,32.50308,33.72938,34.30109,35.06741,35.79748,36.81198,37.24662,37.40916,38.05515,38.41281,38.59371,38.77974,38.66973,38.48387,38.3736,38.65286,38.15541,37.25959,36.39942,35.71268,34.61224,33.55609,32.30813,30.92155,29.56798,27.89695,26.12309,24.77924,23.08296,21.01714,19.03765,16.7304,14.53453,12.58828,9.853308,7.504607,4.906764,2.619902,-0.01226549,-2.6264,-4.838084,-6.750214,-9.046339,-11.34242,-13.26127,-15.28217,-17.06999,-19.38813,-21.15982,-22.87721,-24.79815,-26.48229,-28.38809,-29.66121,-31.11601,-32.35719,-33.44443,-34.80713,-35.76021,-37.02081,-37.86129,-38.52928,-39.14723,-39.43901,-39.90934,-40.17224,-40.3807,-40.65715,-41.12625,-40.87697,-40.81461,-40.64979,-40.36243,-39.96473,-39.52127,-39.18275,-38.97312,-38.47729,-38.17008,-38.07382,-37.59703,-37.52328,-37.0591,-36.78819,-36.76758,-36.95536,-36.8712,-37.02464,-37.46741,-38.23836,-39.02389,-40.02317,-41.374,-43.07368,-44.69046,-45.99584,-46.85591,-47.90668,-48.29765,-48.73459,-49.45008,-50.53496,-51.31986,-51.94312,-52.92773,-53.01407,-53.37417,-53.20549,-53.84284,-54.70761,-55.11638,-55.92075,-57.05385,-58.02153,-58.81453,-59.91338,-61.40086,-62.21446,-63.04377,-64.04074,-64.84117,-65.71829,-66.27677,-66.51877,-67.31754,-67.62048,-68.02301,-68.74873,-69.50215,-70.02055,-70.48694,-70.18959,-69.5482,-68.53506,-67.68303,-66.53924,-64.98116,-63.19782,-61.70857,-59.76226,-58.00749,-55.85726,-52.45381,-49.21507,-46.58731,-43.72423,-40.74197,-37.89169,-35.56811,-33.56514,-31.61988,-29.61419,-27.82713,-26.30553,-25.04509,-24.048,-22.72394,-21.33849,-19.78554,-14.80682,-9.826099,-9.750743,-9.192289,-8.5307,-8.901957,-9.831963,-11.12199,-19.46808,-23.34122,-24.61033,-26.83737,-29.07556,-31.61951,-33.61286,-35.41279,-36.9291,-37.27446,-37.02504,-36.13507,-35.02341,-33.46922,-31.16454,-28.93618,-26.16156,-22.9947,-20.15031,-16.60966,-12.74298,-9.006197,-4.969499,-0.3310456,3.829057,8.691079,12.98123,17.13729,21.8145,26.42604,30.62889,35.23524,39.70523,43.4279,47.50343,51.86125,55.80948,60.08284,63.91792,67.78278,71.40816,75.27913,78.54172,81.03527,84.17656,87.23039,90.00234,92.43931,95.15463,96.56716,97.31236,97.29626,97.89595,97.65366,96.46522,95.59376,94.55691,93.25508,91.02018,89.28421,86.98206,84.49674,81.43241,78.10021,74.19995,70.08979,65.94174,61.08085,56.12461,50.59569,44.87063,39.21283,34.19134,29.08422,23.78739,19.06117,14.24282,8.998409,4.245693,-0.2443322,-4.654332,-8.680977,-11.74229,-15.35719,-17.77511,-19.78544,-22.3238,-24.9061,-26.94949,-28.72844,-30.42486,-31.619,-32.50217,-32.69846,-33.01557,-31.93596,-31.29268,-28.84242,-25.90586,-22.76235,-19.38964,-16.03538,-11.793,-12.45476,-16.15744,-15.99394,-17.23837,-20.04307,-23.75345,-28.58015,-34.03502,-32.04736,-32.58169,-36.37472,-39.07692,-41.85621,-43.55676,-45.25524,-46.87728,-47.92862,-49.20674,-50.27404,-51.157,-51.65386,-52.72051,-53.4988,-53.65319,-53.95508,-54.25377,-54.41817,-54.42947,-53.92452,-53.36318,-53.03455,-52.65058,-51.68606,-51.08226,-49.76841,-48.58744,-47.89333,-46.52434,-45.1386,-43.85686,-42.67974,-40.95485,-39.21738,-37.59421,-35.72252,-34.41533,-32.60584,-30.89345,-28.97216,-27.09866,-25.6892,-23.9291,-22.50358,-20.66984,-19.7785,-18.3068,-17.76449,-16.87937,-15.81281,-14.8197,-14.30991,-13.53179,-11.80203,-10.70978,-9.263019,-8.405966,-7.739695,-7.297013,-6.462145,-5.210809,-4.329358,-3.764167,-2.906057,-1.516796,-0.6598644,0.002282515,0.7427402,1.585967,2.243375,3.496077,4.178739,4.809081,5.771277,6.635073,7.124404,7.738842,8.175541,8.793572,9.32168,9.907649,9.780892,9.87702,10.1864,11.05499,11.12978,11.65265,11.85232,12.20752,12.7922,13.05263,13.52343,13.68621,14.38997,14.3263,15.88151,15.47164,15.10394,15.2508,15.20181,15.22321,14.64258,14.18254,13.70614,12.78182,12.43822,11.71069,11.45504,11.05163,10.76185,11.14586,10.51362,10.54505,9.535018,8.887284,8.36608,7.375932,6.378282,5.007575,4.074594,3.075903,1.637042,0.01440462,-0.9383814,-1.871148,-3.343509,-4.252128,-5.805949,-6.284283,-7.197987,-8.88778,-10.29843,-10.88916,-11.96773,-12.42014,-12.56979,-12.94401,-12.90087,-12.71175,-12.4329,-11.82173,-10.91548,-10.05637,-9.337284,-7.991015,-6.257122,-4.83046,-3.328262,-1.620189,-0.3430847,1.397741,2.822994,4.307509,5.919122,7.466944,8.620857,10.36253,11.25532,12.79082,14.01211,15.42978,16.79023,17.90432,19.02803,19.70016,20.63935,20.9829,21.48697,21.95246,22.88202,23.67799,24.1553,24.29655,24.92477,25.11536,25.47695,25.67181,26.21389,26.21451,26.13573,26.38689,26.16129,25.84777,25.75045,25.47223,24.89225,24.51622,24.29443,23.6791,22.86546,22.35523,21.69026,21.1734,21.18443,20.65628,19.94731,19.67624,18.9394,18.46018,17.74996,17.18355,16.55972,15.83431,15.31996,14.50009,14.28192,13.46329,13.09757,12.88687,12.25281,12.24278,12.16404,12.0641,12.21302,12.78231,13.73105,14.39247,15.88212,16.30592,17.7454,18.61202,18.77048,18.9658,18.73581,18.84035,19.58984,19.66849,20.39751,20.94127,21.76208,22.47421,23.49852,24.32222,24.94373,25.60267,26.15258,26.68315,26.87272,27.22912,26.69368,26.41588,26.66291,27.20627,26.97341,27.46204,27.33994,27.22002,27.31999,27.00353,27.1106,26.54577,26.56966,25.97192,25.64053,25.28476,24.71254,23.77148,23.08956,22.06835,20.54306,19.46281,18.08772,16.5621,14.81476,12.88578,11.20907,9.562218,8.001746,5.851695,4.139059,1.884576,0.1484651,-1.994089,-4.331517,-6.183434,-8.496999,-10.38653,-12.87317,-15.07813,-16.97534,-19.14724,-21.23678,-23.42637,-24.94582,-27.31667,-28.88425,-30.82085,-31.93994,-34.17554,-36.13518,-36.5957,-37.31313,-38.78633,-40.01166,-40.87572,-42.06983,-42.33819,-42.6847,-43.10848,-44.19208,-44.71691,-45.54849,-45.84743,-46.68845,-47.45032,-48.3719,-48.69367,-49.68603,-49.99872,-50.82616,-51.2376,-51.86145,-51.61114,-51.78262,-52.0722,-51.95005,-51.52745,-51.17643,-50.11122,-49.68503,-49.06523,-48.58561,-47.74929,-46.93931,-45.84072,-45.07778,-44.16571,-42.98021,-42.51849,-41.8202,-41.4878,-40.66154,-39.85817,-38.52219,-36.88415,-35.4648,-33.93068,-31.81392,-30.23875,-28.56921,-26.98481,-25.04594,-23.46688,-21.71336,-19.84449,-18.36157,-17.0679,-15.01332,-13.63123,-12.22464,-10.91291,-9.631555,-8.122299,-6.654198,-5.53339,-4.495883,-3.684562,-2.24401,-1.478471,-0.749299,-0.0140746,0.9580216,1.421389,2.268249,2.557704,2.932089,3.116941,3.751861,3.357527,3.294858,3.083356,2.811608,2.71754,2.203795,2.022052,1.841596,1.184298,0.6908211,0.02536789,-0.456827,-1.246881,-2.078738,-2.827856,-3.53735,-4.20412,-5.286906,-6.284781,-6.898255,-7.484681,-8.0896,-8.676477,-9.169039,-9.223073,-9.302798,-9.701993,-9.430768,-9.351469,-8.756481,-8.459581,-7.907791,-6.235344,-5.984213,-5.700209,-4.48822,-3.094153,-1.935804,-0.4383483,-0.04944935,2.096108,2.095315,3.208392,4.045604,5.016727,5.473951,6.473981,6.639529,7.570592,7.69123,8.568616,8.843829,9.372152,9.434569,10.40924,10.3498,10.6646,10.99003,11.09032,11.14159,11.51662,11.16947,10.8648,11.19229,11.18504,11.38197,11.92668,11.49147,11.71749,11.86034,11.87718,12.28492,12.3508,12.91005,12.86169,13.75325,13.94021,13.92452,14.40794,14.83862,15.0524,15.27382,15.55189,15.6341,16.07259,16.55944,16.75405,16.82619,16.9017,17.60781,17.54118,18.07592,18.1136,18.45893,18.69318,18.91482,19.30937,19.65998,19.3851,19.81939,19.88752,20.06073,20.34515,19.9849,19.89915,20.07307,19.71679,19.60287,19.60234,19.13341,18.87552,18.91158,18.55894,18.37606,18.17833,17.87509,17.89412,17.42752,17.04947,16.61051,16.50471,15.95638,15.92195,14.80753,14.95809,14.14455,13.8285,13.36875,12.6623,12.80338,12.06074,11.97508,11.33881,11.21202,10.49842,10.78248,10.06221,9.789756,9.354752,9.249637,8.92751,8.869581,8.834525,8.503503,8.020725,8.231115,8.104978,8.053929,7.809976,7.680786,8.077252,7.404663,7.509089,7.343999,7.169077,7.256628,7.417113,7.08451,7.559298,7.274389,7.48963,7.567036,7.848479,7.457696,7.821985,7.575057,7.620421,7.948885,7.765186,7.576684,7.859307,8.061949,8.565367,8.588831,8.438296,8.946348,8.80211,8.887017,8.935686,9.063215,9.32561,9.446621,9.571774,9.938145,9.592151,10.15166,9.975967,10.5361,10.52167,10.75724,10.77387,10.89227,11.21524,11.02817,11.44997,11.48837,11.04322,10.4569,10.63498,10.69383,10.44978,10.85676,10.72998,10.66382,10.68942,11.18387,11.44522,11.45837,11.38415,11.77404,12.05647,12.34128,12.38428,12.52632,12.96031,12.93894,13.46418,13.53288,13.67131,13.45162,14.02653,13.97208,13.8895,13.89509,13.42915,13.82992,13.36744,13.01929,12.89055,12.12433,12.15935,11.46717,11.33873,10.34699,10.17833,9.199183,8.800109,8.099641,7.230192,6.596416,5.712279,5.099615,4.364029,3.548262,2.579766,1.815167,0.7183981,0.06710173,-0.6031553,-1.223058,-2.430893,-2.70081,-4.179141,-4.955261,-5.944895,-6.783896,-8.096359,-8.891323,-10.11722,-11.311,-12.5341,-13.05889,-14.63466,-15.2625,-16.3748,-17.34846,-18.04054,-19.19735,-19.83285,-21.01772,-21.89771,-22.5599,-23.22151,-24.25397,-24.51327,-25.49037,-26.2016,-26.52407,-27.35818,-27.6651,-27.90502,-28.39786,-28.48668,-28.8085,-28.42128,-28.60489,-28.61112,-28.30337,-28.53423,-28.82261,-28.55024,-28.95954,-29.00793,-29.26819,-29.77076,-29.61411,-29.8503,-29.64502,-30.13529,-30.23731,-31.01651,-30.98515,-31.45051,-32.14332,-32.82944,-33.40486,-34.26675,-34.37827,-33.96208,-34.47349,-34.62603,-34.00152,-34.25729,-34.27091,-33.79684,-33.58203,-33.24168,-32.90912,-32.20039,-31.43149,-30.74302,-30.1771,-29.02899,-28.22528,-27.25354,-26.37651,-24.87006,-24.21243,-22.61565,-21.3436,-19.68308,-18.56232,-17.00114,-15.46704,-13.90445,-12.14758,-10.84117,-8.852896,-7.452877,-5.832157,-4.280517,-2.928844,-1.156381,-0.07255166,1.822089,2.484614,4.153799,5.147724,6.385093,7.314657,8.584008,9.141909,10.35619,10.90711,11.81011,12.29566,13.18065,13.92138,14.39454,14.70607,14.83967,15.30108,15.10081,15.61826,15.12145,14.87253,14.48401,14.19816,13.91809,13.37795,12.14353,12.01306,10.85434,10.53998,9.144152,8.428106,7.582773,6.283715,5.893451,4.321933,3.417464,2.070466,1.207049,0.2076701,-0.8613231,-2.065505,-2.646799,-3.406879,-3.924859,-4.337907,-4.875026,-4.274531,-4.491504,-4.130001,-4.182317,-4.834125,-4.584559,-4.532956,-4.577131,-4.370897,-4.455856,-4.7582,-4.842599,-4.882237,-4.401701,-4.822442,-5.042983,-5.091302,-5.000853,-6.312914,-5.170382,-6.171784,-6.067199,-6.548414,-5.630094,-6.041533,-5.595885,-4.991846,-4.982227,-4.672256,-3.865855,-3.811765,-3.908729,-3.393422,-2.747388,-3.021653,-1.91696,-2.312893,-1.283616,-1.424773,-0.6743179,-0.3468569,0.2105081,0.6844906,1.807463,2.361581,3.425857,4.08678,5.492319,6.097391,7.065658,7.922064,8.998753,9.944812,10.92339,11.84989,12.59378,13.72753,14.00889,15.18049,15.64301,16.57113,16.99833,18.13921,18.81984,19.00669,20.09672,20.1021,21.10057,21.34359,22.10925,22.2534,22.80616,23.33569,23.54458,24.34716,24.31873,24.52917,24.89921,25.08937,25.49269,24.99019,25.4313,25.52334,25.20713,25.23123,25.01726,25.02623,24.83477,24.06719,24.05436,23.60722,22.75191,22.52567,21.68388,21.14223,20.42759,19.41395,18.93115,17.86629,17.29552,16.02992,15.66331,14.78504,14.02823,13.39885,12.83724,11.75485,11.83173,11.16974,10.61277,10.39091,9.210366,9.563347,8.643425,8.230956,8.612149,8.092122,7.698633,7.802908,6.624942,7.084184,6.269449,5.902328,6.06583,4.608355,4.775338,4.348633,3.800329,3.125865,4.297054,2.667637,3.677617,2.850159,3.817684,3.033825,3.73025,3.55379,3.466202,4.032909,4.256497,3.657568,4.122579,4.235612,4.477021,4.413255,5.233442,3.872068,5.741407,5.490043,6.248577,6.342056,6.374221,7.239703,7.472497,8.040683,8.610617,8.49629,8.391449,8.281078,8.739858,8.98002,9.227517,9.783088,10.35538,11.18473,11.72861,12.45934,13.88087,14.73738,15.63552,16.4107,17.1783,17.80025,18.18359,19.05477,19.12664,19.97255,20.2408,20.66646,20.84626,21.28416,20.74787,21.05035,20.85614,20.93183,20.59522,20.35538,20.40193,19.66889,19.59349,18.71685,18.72697,17.59437,17.13568,16.16301,15.31264,14.3798,13.14876,12.1682,11.25507,9.32384,8.330715,6.983723,5.499184,4.727967,3.009955,1.565877,0.323183,-1.141426,-2.323627,-4.165897,-5.470007,-6.644762,-8.03158,-9.077264,-10.157,-11.68545,-12.283,-13.90734,-14.31551,-15.8336,-16.79774,-17.64793,-18.95721,-19.17967,-19.85927,-20.76711,-21.76505,-21.99228,-23.09563,-23.1234,-24.5956,-24.87942,-25.1814,-25.68456,-25.04071,-25.27143,-25.18006,-24.93687,-24.96904,-25.01161,-25.87233,-26.34477,-26.32951,-26.79715,-27.05841,-27.90091,-28.31844,-28.48842,-28.56285,-29.25145,-29.25626,-29.70939,-29.60445,-29.65161,-29.7159,-30.21101,-29.39203,-30.47854,-30.03121,-30.36287,-30.63233,-30.67994,-30.79457,-31.05985,-31.29186,-32.0424,-32.3956,-31.85558,-31.50123,-31.07484,-30.83062,-30.10681,-29.28949,-28.42341,-27.70663,-26.62118,-25.89647,-25.39012,-24.41013,-23.48963,-22.81273,-22.22576,-20.77386,-19.40082,-18.79477,-17.11549,-16.80884,-15.3082,-14.61461,-13.13647,-12.68385,-11.12014,-10.23482,-8.845985,-7.494089,-7.094154,-5.625434,-5.034048,-3.564647,-3.070926,-1.782118,-1.586457,-0.8527261,-0.4239451,0.2283445,0.603281,0.5693503,1.228397,1.177888,1.530836,1.52911,1.323723,1.400816,1.256026,0.7022547,0.3742808,0.1146269,-0.2530169,-0.7300681,-1.358182,-1.865266,-2.616456,-3.296117,-4.037095,-4.652369,-5.887358,-6.47531,-7.762,-8.548409,-10.17035,-10.42743,-11.86003,-12.76543,-13.44779,-14.39209,-15.00873,-16.5346,-16.22216,-17.24409,-17.50851,-18.06875,-18.24224,-18.49902,-18.07111,-18.46674,-18.89814,-19.33599,-19.5718,-20.42681,-19.99285,-20.7434,-20.87051,-21.49098,-20.90913,-10.3377,-16.29023,-14.59265,-14.9579,-15.70782,-16.43709,-18.91931,-21.35076,-23.51702,-37.79311,-35.85909,-41.29859,-45.06172,-48.15336,-50.44806,-52.50338,-53.73478,-55.44606,-56.61596,-57.19545,-56.47897,-56.50952,-54.86811,-53.588,-51.29397,-48.44473,-34.79738,-35.97389,-30.56383,-26.84252,-23.46498,-20.72129,-16.24157,-23.86775,-16.19919,-13.60395,-11.32653,-7.317937,-3.261773,1.138216,5.711107,11.19983,16.17261,21.72603,27.2843,33.21987,39.04064,44.60796,50.34703,56.50819,61.61575,67.25389,72.82646,77.24704,82.72424,86.81055,91.53639,94.71696,98.22145,101.6133,104.6911,107.3391,109.6749,112.0309,113.2117,114.8147,115.3608,116.1395,116.0432,115.7594,115.3717,113.8413,113.0518,110.8075,108.5399,106.2678,102.7305,100.1842,95.7661,92.2175,88.00671,83.48846,78.69279,73.11425,68.26605,63.12259,57.04533,51.53435,45.57698,39.77957,33.7154,28.00784,21.74781,16.3491,10.19653,5.264308,0.06892544,-4.523716,-8.814069,-12.59017,-16.02194,-17.67641,-19.80357,-20.95853,-21.94602,-20.69768,-20.56657,-18.87641,-16.68829,-13.58346,-10.62543,-20.81401,-16.2933,-18.9782,-20.76999,-23.22358,-27.62303,-30.68247,-35.20559,-41.47692,-33.04626,-39.67177,-39.48572,-40.0532,-40.52811,-40.95889,-41.1274,-41.66055,-40.97025,-39.9539,-38.26812,-36.70797,-34.18432,-31.94514,-28.5176,-25.15295,-21.18687,-30.65902,-26.88162,-29.57192,-31.67426,-34.42362,-36.9118,-42.39516,-33.65478,-38.72142,-39.42407,-38.70849,-39.73844,-39.93218,-40.34801,-40.32946,-40.79584,-41.08346,-41.4173,-41.3018,-41.24869,-42.15709,-42.06371,-42.28584,-42.67279,-42.59544,-41.97892,-42.45783,-33.61256,-34.87409,-34.59511,-33.29693,-34.01732,-34.8481,-36.28552,-38.61029,-40.2493,-54.36652,-52.3868,-57.80083,-61.58822,-64.22667,-67.3651,-69.2432,-71.50222,-72.41142,-73.04096,-74.1097,-74.50306,-74.27412,-73.77718,-61.26933,-66.2751,-61.36356,-59.61489,-57.7958,-56.03823,-54.63144,-53.04006,-63.40347,-57.27557,-58.57087,-58.05251,-56.82051,-55.44273,-53.0023,-50.43997,-47.49517,-43.99006,-39.64017,-35.76187,-30.18134,-15.4295,-15.36371,-7.13491,-1.403976,3.511205,8.509039,12.93845,17.23943,10.41649,19.10242,19.53534,22.20706,25.53625,28.68678,32.93022,36.03287,41.76278,45.06208,49.53547,65.5871,63.75349,70.71726,74.91415,78.34872,81.10801,83.81389,84.87856,75.26317,81.18875,78.66347,78.22047,78.27796,77.78797,77.9903,77.74267,78.40288,77.66824,78.5691,78.13942,89.48381,83.8897,86.98016,86.40665,84.72066,82.98065,80.60103,66.09855,69.12339,62.51216,60.26135,56.81448,54.94497,52.91818,52.34531,51.51335,51.67422,51.88738,53.30007,54.22873,56.55273,59.41584,62.56425,66.54794,71.37556,76.36894,81.42975,87.36938,83.29759,85.65761,86.96913,84.9585,84.41853,92.01167,83.98908,82.67385,76.69578,83.82137,75.76168,74.46229,64.30033,59.8369,56.55428,51.1963,48.17531,45.10214,42.29531,40.53775,39.11983,39.22022,39.0859,25.43335,27.14223,20.39588,14.55143,20.1032,6.6638,2.659482,-6.516573,-1.622953,-11.75563,-15.20333,-19.82662,-24.68777,-40.16936,-38.61318,-45.48588,-48.98352,-51.49627,-53.27021,-53.0256,-53.66919,-64.99444,-63.04513,-67.81982,-71.28212,-74.49706,-75.15145,-73.94553,-81.17819,-70.61107,-75.84576,-73.94379,-73.10732,-72.07393,-72.06647,-79.68137,-72.4395,-73.8802,-69.84238,-65.93533,-75.37427,-68.71004,-70.87553,-70.43416,-70.8012,-71.02925,-72.35734,-64.58486,-54.32184,-55.33641,-49.22677,-44.66126,-41.20655,-36.6158,-33.08798,-40.00928,-31.11527,-29.37697,-26.05031,-20.79024,-30.17956,-24.73005,-27.68579,-30.20343,-31.66573,-34.65353,-38.27279,-28.01369,-33.56695,-18.52875,-23.9651,-19.13237,-18.44719,-16.7538,-16.38985,-15.34391,-16.01364,-27.10743,-22.12044,-25.20083,-26.18629,-25.93456,-25.77957,-24.79126,-23.71688,-21.25432,-19.10144,-16.00235,-12.55266,-7.999103,-3.753497,13.06309,11.8177,8.123533,14.13866,12.06172,10.25903,7.914006,3.843601,-12.75954,-3.494305,-9.13543,-11.60354,-12.11523,-12.80393,-13.02629,-12.68027,-11.26711,-9.912816,-7.275064,-4.270223,-0.5009081,3.702503,8.548871,14.71493,17.92556,19.91467,21.35732,21.88077,21.58305,19.60034,17.00802,12.66187,-3.970018,10.3762,-0.2501379,0.3588427,-0.1154163,0.01361873,0.9716232,2.063315,4.742679,6.971052,11.48563,15.01427,20.76077,25.09383,27.15028,24.235,28.86582,28.14226,28.12714,27.27089,25.73046,23.17261,33.67521,36.03265,35.94463,38.51996,40.07452,41.72185,42.58715,43.85176,33.07967,40.65091,38.73305,40.75448,43.28848,34.42624,36.16496,33.20974,31.02683,27.49861,23.77819,19.41604,14.92491,23.81675,17.42631,24.15405,28.54444,27.80014,30.85075,32.54714,33.69242,35.82598,37.26102,27.78066,35.85454,34.70043,38.26197,26.78515,32.36418,28.15694,26.99824,24.62736,22.4232,18.69903,15.55572,25.39351,20.58498,24.11005,26.43305,28.29492,31.75025,34.735,38.38472,41.95497,46.00225,51.32616,56.48919,62.36114,69.53883,61.83364,70.24572,68.80989,69.01411,68.5265,66.9657,64.52018,60.96372,70.86136,64.54836,67.58404,67.23575,67.78617,68.17891,68.4116,69.49955,69.05575,70.78529,70.96407,72.08422,73.73618,74.91483,77.01032,79.62431,67.63915,70.76069,64.52752,60.23362,53.97887,46.97676,39.23269,30.04943,34.47742,23.17329,19.8645,14.74518,9.837458,4.850134,0.1555223,-4.095449,-8.559672,-12.5146,-16.90187,-20.02054,-23.69856,-25.71457,-28.45328,-30.53904,-31.74875,-32.916,-33.22767,-32.71549,-32.18578,-29.97273,-42.48951,-38.8153,-44.96263,-48.24728,-53.07354,-57.95122,-63.72868,-70.39146,-62.59574,-70.9389,-69.54944,-71.06903,-71.88526,-70.95122,-71.84638,-70.2757,-69.74412,-67.7306,-66.08671,-63.00223,-60.25559,-56.45843,-51.91244,-53.61781,-56.00195,-53.67288,-55.51524,-56.98818,-59.98856,-62.75855,-67.83923,-58.85321,-66.08417,-64.75122,-65.86691,-65.97825,-67.25142,-67.75153,-68.58663,-69.61358,-58.84234,-66.06335,-63.0612,-64.62688,-65.52679,-67.42856,-69.56096,-83.20093,-80.49162,-87.07634,-89.56926,-92.11319,-93.93658,-95.60225,-96.73473,-96.8181,-97.3093,-96.51674,-96.70886,-95.33041,-94.43986,-92.96302,-90.83607,-77.94774,-81.85829,-75.56207,-73.18459,-71.01605,-68.70026,-67.41237,-76.63398,-69.08946,-71.97694,-70.08476,-69.3717,-67.10137,-65.01385,-62.54529,-59.74661,-55.99934,-53.36962,-49.33881,-45.4691,-41.5711,-26.09821,-28.31567,-19.90662,-16.46655,-12.48131,-8.70669,-6.467664,-2.957143,-12.6531,-4.102607,-6.501066,-4.36442,-3.344447,-1.616954,0.1801476,2.01745,4.522394,6.264913,8.577726,10.49323,13.31847,26.74448,23.04904,28.97352,30.0089,32.57982,33.22826,34.4785,34.16462,34.46531,21.41121,27.73434,21.065,20.95377,18.34699,17.13044,16.0391,14.43024,14.26647,13.21529,12.57438,12.34785,12.5342,12.47774,23.86871,18.03825,22.13606,22.85494,23.56217,23.47596,23.85992,20.88803,13.45239,16.4184,12.59969,11.98845,10.49798,10.65271,11.1554,12.17339,13.88982,15.93768,18.5126,22.09474,29.64039,39.4423,41.77384,34.95424,41.87948,37.73337,36.37119,32.14652,21.16073,13.91481,22.02511,11.79177,12.75248,10.44968,10.30375,9.492508,10.07664,10.64445,11.75238,13.46767,15.23434,28.53446,26.45685,33.65163,37.81137,42.09741,32.39509,37.80118,32.96423,30.26723,13.5426,15.10723,4.415417,12.31061,2.930094,4.29461,2.420464,3.12882,2.567047,4.405409,5.415229,8.115659,10.07132,25.73855,22.558,31.78597,36.3827,27.19606,34.94463,30.05154,29.15721,13.92544,16.64138,7.815755,2.049935,10.28899,1.791797,4.241325,3.509128,4.696897,6.143471,7.541113,10.42599,13.48576,29.43169,26.92725,36.54717,41.48154,33.3226,40.79417,37.30196,36.91827,21.75908,25.62939,16.43136,12.51149,5.312123,14.0032,5.036181,8.233628,6.905516,7.930896,9.025499,10.04151,12.72777,26.17461,22.54246,30.27603,33.99868,38.44851,42.6806,32.59345,37.95352,21.86515,25.81973,16.78602,12.75363,6.466943,4.377815,8.336201,2.903469,4.274075,3.927757,4.967539,6.09589,9.383073,21.06124,18.27841,25.79146,28.44969,33.32483,32.45694,27.58229,29.13609,13.5009,16.85508,7.067269,3.019211,-3.776039,-1.638542,-2.766279,-5.125877,-4.253517,-4.005176,-2.925086,-1.721973,6.712671,11.50236,14.00244,19.38342,24.09369,28.51455,20.4758,25.2946,12.93212,13.50858,8.664299,3.662702,-0.6369986,-6.015197,-12.04287,-2.95942,-11.19526,-7.886287,-9.117825,-7.440225,-6.613713,-0.999259,7.315677,6.782335,13.20234,16.40599,20.91644,25.3286,15.06945,15.34774,8.350881,6.90432,1.425579,-3.143134,-8.010744,-13.63995,-5.508357,-13.2978,-10.28041,-10.62868,-9.54713,-2.139528,1.704521,3.305809,8.068376,9.917263,15.35268,17.60226,22.25185,10.60843,4.684361,5.988447,-1.677129,-4.894862,-10.39251,-15.73199,-21.78717,-12.59069,-21.00513,-18.13903,-19.14459,-18.49566,-17.11016,-15.17504,-1.185908,-5.923437,2.297986,4.48947,9.464246,13.88476,3.361783,-1.747486,-0.2233882,-7.220841,-10.62621,-15.37296,-20.77489,-26.33583,-17.66604,-26.17207,-22.38462,-23.81668,-22.60326,-9.18546,-15.52811,-7.099813,-6.731162,-2.164943,0.06624526,4.212565,5.652644,-3.521295,-11.39408,-10.07434,-17.62322,-21.61103,-27.33305,-32.7908,-38.41155,-30.04874,-38.41279,-34.57902,-35.65579,-33.87753,-32.37196,-29.47344,-15.98026,-18.91314,-10.66888,-6.934143,-1.403605,-3.789572,-5.275461,-6.702012,-18.1258,-15.57938,-23.31175,-26.89127,-33.00228,-27.25208,-31.22287,-31.37129,-30.6707,-30.03527,-29.09874,-15.19485,-20.13951,-13.09652,-11.20584,-6.749232,-3.440548,0.774783,0.1806561,-5.327653,-14.21644,-11.60847,-18.7697,-22.11014,-26.27932,-31.29687,-27.77399,-27.64699,-28.60647,-26.05885,-24.63179,-21.99261,-7.104874,-10.29027,-0.6227972,3.133935,9.448293,14.59268,12.98741,12.48266,7.718534,4.348072,3.481807,-1.740085,-4.223034,-8.891605,-12.56611,-2.607056,-9.910833,-4.880246,-4.686519,-2.032814,0.3727776,2.950817,18.05116,14.36109,23.93235,26.60586,32.61777,37.1602,42.39619,32.31336,28.10338,30.07362,23.95566,21.89649,17.16465,12.98055,22.64423,15.48509,20.11273,21.00317,22.82235,25.45622,28.76305,31.72263,36.5802,40.60268,57.9588,56.46956,52.37775,60.66627,56.01254,56.58825,53.21077,45.24668,35.89615,32.28656,22.17373,29.45584,18.43871,19.84824,16.22523,16.71378,14.6338,15.37564,15.21531,16.20998,29.28885,23.77613,31.83319,33.72167,36.76259,26.60337,31.39644,22.33048,12.16738,11.82804,2.634798,-2.662316,-6.913652,-1.077012,-8.399174,-5.377571,-6.916395,-4.90002,-3.846067,-1.36256,1.201425,5.084019,8.994256,14.03787,5.416638,13.66315,10.73062,11.78397,10.82361,9.511196,18.82277,8.336233,9.401338,18.19545,10.92452,13.94564,12.41874,11.67421,3.531622,2.624715,1.548084,-0.125233,0.01508277,0.05833144,2.349571,-11.14104,-5.3588,-13.39662,-15.40455,-20.57647,-24.88197,-28.77681,-25.03725,-29.69206,-26.20948,-30.18858,-29.19961,-31.98432,-32.15537,-45.36546,-39.6974,-44.95833,-45.00548,-45.17917,-44.07861,-42.99293,-39.4436,-51.2258,-44.45545,-50.1546,-50.66381,-53.88064,-56.48614,-48.31968,-59.58892,-43.68405,-52.92748,-47.13257,-48.28567,-46.60602,-45.95786,-57.51795,-48.57595,-53.21437,-50.42432,-48.74373,-45.65457,-42.22905,-37.35034,-32.20806,-25.89785,-34.29674,-24.05273,-27.32226,-13.15566,-21.16836,-16.66047,-20.22773,-15.15889,-10.84687,-12.0656,-21.0344,-11.68542,-15.71445,-11.61655,-10.0227,-7.75568,-3.867499,-0.2132593,4.631798,9.808237,0.1046509,8.593478,15.30517,7.917448,10.95823,5.654545,1.888558,-0.5054598,3.941387,-4.196674,-15.85561,-12.63342,-19.21468,-21.01411,-24.05359,-26.51683,-27.7731,-30.06359,-30.83976,-30.50179,-19.48394,-26.24027,-19.5663,-19.05923,-16.73177,-14.63963,-12.99856,-10.33349,-19.26399,-11.00169,-27.20458,-20.65796,-28.79488,-29.74924,-34.31061,-37.74178,-42.58286,-47.04331,-42.52527,-43.47308,-43.82155,-41.84503,-29.20884,-33.66287,-25.6885,-24.31306,-19.98139,-16.10207,-12.25793,-8.001566,-3.687796,-13.18613,-13.73307,-12.53476,-16.77438,-17.83165,-21.80951,-23.71715,-27.37952,-16.35727,-21.6202,-16.66648,-13.62454,-10.60033,5.587351,3.043591,13.14433,16.71826,23.85872,28.79243,35.21523,41.35086,35.50621,34.80959,38.50396,35.71763,35.6476,34.62285,33.26736,31.23303,29.11115,40.94729,34.53952,41.72552,42.70375,58.36028,53.60153,62.65797,64.48607,69.49833,72.0815,76.0706,78.88194,70.90746,66.71378,67.33603,62.04897,58.78693,53.27503,47.9376,41.44772,50.81492,40.69481,45.47418,43.98888,46.25443,48.28991,51.37929,54.74304,71.99603,68.09074,79.97674,83.25482,75.85781,83.71537,78.92531,78.91121,75.81646,60.31666,63.49588,52.62003,63.31536,54.11725,57.15281,56.41709,57.1936,58.93175,59.85778,63.13468,66.49523,69.70093,69.56064,70.36347,68.39282,66.66874,62.59014,57.39576,51.20232,42.98819,41.19311,30.46473,28.60305,22.30763,19.54995,15.57641,13.24915,10.84888,10.67901,9.643806,10.87719,11.46118,13.67852,15.70191,4.820324,23.03384,8.53149,14.15475,7.611445,4.818739,-0.7861206,-7.226912,-14.00279,-7.814966,-30.41973,-22.54362,-32.01631,-32.51515,-35.33748,-35.49369,-36.33423,-34.8469,-33.47055,-30.45211,-27.68037,-22.35345,-33.04077,-12.36528,-25.25954,-17.48627,-22.27419,-22.3844,-26.50116,-30.20712,-20.61971,-38.81554,-30.25295,-35.45733,-33.41193,-33.18638,-31.35048,-29.29057,-26.72327,-22.43544,-18.41191,-12.8919,-7.270762,-15.91029,-7.295212,1.64497,-5.343096,-1.043059,-5.063467,-7.171012,-12.51799,-3.564794,-13.68344,-23.8195,-21.1212,-28.38326,-28.97224,-31.64524,-31.39342,-32.36866,-30.20062,-28.85975,-25.79376,-22.16164,-18.53934,-2.212547,-3.071841,-8.025123,0.2143271,-4.151702,-3.023781,-6.19321,-8.673255,-24.82942,-22.10738,-33.78026,-23.65912,-34.43507,-31.12826,-32.39395,-32.38905,-30.54824,-29.53965,-27.02429,-24.94923,-9.571634,-12.33492,-2.25659,0.1485065,-5.980109,-0.4407155,-4.302123,-5.406334,-20.96087,-17.3344,-28.38996,-31.80959,-31.21249,-32.45934,-34.62808,-34.16257,-34.23037,-33.21074,-31.73733,-29.37613,-21.93233,-16.0021,-13.83291,-7.901099,-3.57193,1.567246,6.651955,-3.12319,-7.420669,-5.076608,-11.94077,-12.67383,-17.92808,-20.13146,-26.05702,-29.72364,-21.04459,-28.24955,-24.3004,-24.44434,-13.70077,-14.99656,-10.06757,-7.185218,-4.736907,-1.221487,1.440868,5.69713,-1.499843,-7.652367,-5.356497,-11.75318,-13.8629,-18.35186,-21.98235,-27.66609,-32.2524,-25.76426,-31.81963,-29.6029,-22.95294,-22.14419,-20.49157,-17.83102,-16.00779,-14.32573,-11.65444,-10.01086,-19.09309,-8.685512,-11.13203,-21.90646,-15.63941,-22.25975,-22.73697,-26.75383,-29.37541,-33.58657,-36.09001,-23.70042,-21.88009,-21.23963,-16.51087,-15.39866,-12.78795,-11.21655,-9.522543,-7.721898,-5.602942,-15.90915,-5.331078,-22.96224,-17.22079,-24.94925,-27.05986,-31.03555,-35.5679,-39.53459,-44.70629,-34.67721,-43.10567,-37.96505,-38.48706,-23.36446,-29.27916,-20.65819,-18.38694,-13.77065,-10.21677,-4.177048,-0.2419998,-8.704694,-14.19334,-10.832,-17.65202,-19.1011,-23.18835,-26.68912,-30.19298,-19.34086,-26.27602,-19.95259,-19.60804,-14.63042,-0.3493102,-3.467627,7.252973,9.987121,17.24014,22.07374,28.23691,26.87301,14.13748,25.0748,15.8706,17.66736,13.43039,11.81292,8.246189,20.80882,12.96408,21.76196,21.59381,26.92227,42.30706,38.70051,50.12304,52.32947,59.54304,64.13372,70.04377,63.55082,56.14865,61.91326,53.80615,53.93303,48.71691,45.44353,39.49459,48.464,41.52967,45.6136,44.84744,47.00481,48.19475,58.17882,60.07813,63.54667,67.47398,70.86414,74.17959,68.37369,55.60958,61.61026,51.65526,50.20457,44.46471,40.24385,35.0704,45.43674,36.69158,42.14252,42.01163,45.10625,59.75301,54.99034,66.14312,68.54555,76.48247,79.01463,82.77042,74.03759,78.63585,61.31934,67.13264,54.81682,52.17361,43.94013,37.95328,29.33366,36.32475,23.88046,25.76952,22.13863,20.33668,21.38,27.48455,21.98869,25.44212,24.77315,25.1786,25.73672,26.00677,21.05701,4.912433,10.50193,-1.483956,-4.71478,-11.22907,-16.39243,-24.27048,-30.23857,-38.61269,-30.89089,-42.31874,-38.75208,-31.62929,-38.64716,-33.09729,-35.34592,-33.26771,-33.60984,-31.70514,-34.80295,-38.12857,-47.90996,-45.94958,-53.42635,-56.19624,-61.02517,-64.76374,-70.72964,-75.29742,-65.07048,-74.62419,-67.43096,-57.70121,-61.52729,-52.92337,-51.87618,-46.24119,-43.0121,-38.67847,-39.18224,-37.76799,-45.73566,-39.927,-45.51374,-44.77962,-47.24346,-48.58542,-51.40919,-53.98091,-42.85089,-49.40156,-42.63365,-30.79998,-35.41027,-26.0713,-24.79247,-20.51502,-17.23079,-14.73819,-13.39476,-18.88159,-10.13534,-21.88672,-20.90749,-24.44123,-27.63579,-30.96719,-35.02366,-39.06356,-28.23073,-35.61585,-29.21428,-24.07734,-17.25226,-16.03363,-9.005074,-6.547232,-0.7397216,2.837839,8.444778,7.942277,-4.725831,6.030822,-2.82525,-0.8272895,-5.02916,-5.404697,-10.05954,-11.50755,-15.77934,-5.406724,-12.45097,-4.922235,4.612,1.198761,8.777409,9.903008,14.26771,16.77206,20.4372,23.49395,14.66942,24.50381,9.6037,16.99861,9.654245,9.050062,5.245536,2.025666,-1.792599,1.957606,2.825326,2.395116,4.455719,18.739,12.8512,22.68242,22.68564,28.31203,30.85569,35.34954,38.91485,30.09149,28.62157,28.68989,24.53501,23.10202,19.43508,16.73947,12.28774,13.56468,18.27784,14.2806,18.98546,30.51564,26.35627,35.22857,35.12016,41.20481,42.80404,47.96033,50.98595,43.30339,41.03168,41.86731,37.78757,35.91819,32.76589,29.78028,26.07101,28.27883,32.20881,29.4113,33.98555,43.59757,44.59086,49.50256,53.0889,57.2007,60.75161,65.80299,58.69804,70.21283,53.85849,65.17996,56.43467,59.06155,55.4564,54.01894,51.29843,50.736,58.99601,54.71892,60.24707,60.81703,64.86509,66.85781,71.04889,74.12915,78.79796,82.642,87.71305,92.47732,91.48079,89.82408,92.41986,89.49136,88.60856,85.10693,82.24434,77.24514,78.86538,79.23738,75.65671,76.32568,74.61468,74.08396,73.16839,72.88176,71.70009,72.32349,72.24375,72.2551,71.84485,59.2005,62.46972,52.33913,48.26363,40.05193,32.54865,23.04951,13.35697,18.24458,3.010735,2.993326,-5.18792,-8.624381,-13.79088,-18.32445,-22.0809,-25.67832,-28.69138,-30.98167,-32.87598,-33.92735,-48.34951,-46.41942,-56.79397,-61.1678,-69.64717,-77.08122,-85.53917,-94.38966,-88.22336,-101.4635,-99.4282,-104.4854,-106.0316,-107.7917,-109.192,-108.9306,-108.8367,-107.9142,-105.4293,-103.6175,-114.773,-107.9112,-115.7503,-115.4541,-119.9104,-121.8777,-125.9995,-129.0777,-117.0854,-115.1629,-115.7125,-111.341,-110.8619,-108.5888,-108.3934,-106.9563,-106.6129,-112.6257,-112.2482,-111.9233,-122.7787,-122.4193,-128.17,-131.554,-136.9475,-141.004,-147.1662,-138.7392,-146.6421,-142.1122,-131.658,-137.5775,-129.2357,-130.4859,-126.5355,-125.562,-123.0528,-121.4237,-131.2649,-122.1737,-126.349,-122.4653,-120.9378,-118.2,-115.0824,-111.2891,-107.0467,-102.7107,-96.83582,-90.96745,-73.90681,-75.10386,-62.30944,-57.67892,-50.04559,-44.13255,-38.0918,-41.81025,-31.95903,-30.78712,-24.42615,-21.00342,-14.48955,-10.30181,-4.015981,0.8443716,7.120571,12.22673,18.90217,24.2397,35.73913,44.04301,48.09976,56.21131,60.15101,65.41661,69.07963,72.18749,63.71223,72.38742,68.11931,71.63184,70.04253,72.12986,71.8443,72.41231,72.98548,73.21716,73.82376,73.31417,84.20024,77.46604,82.83489,79.53733,80.26545,77.57234,75.7176,73.31883,57.09536,62.84041,51.22021,50.86812,44.26522,42.26416,38.48378,35.80829,33.31985,31.78439,30.06752,29.43414,28.64841,42.02211,33.47523,44.04398,42.28201,48.21862,49.83167,53.92257,56.87787,46.55596,44.80376,43.04099,38.31801,35.39432,30.66731,26.83495,21.53333,17.18535,19.73474,18.93406,17.86315,18.75611,32.03633,23.96906,33.97164,32.80178,37.73654,39.26948,43.37928,45.88365,49.58968,25.11557,42.26858,25.27231,29.4351,20.8408,18.8775,13.12221,9.033318,17.59975,9.832205,15.04882,13.3581,16.61208,20.46814,31.37346,28.81641,37.99094,40.24272,45.88251,48.57647,40.3924,46.48396,27.70411,35.28098,22.7738,21.45364,13.2408,20.87915,13.16384,16.03219,13.61496,16.01207,15.41095,17.9013,18.54358,33.4587,28.29922,39.07944,39.91063,46.62285,43.09774,41.47647,42.36947,28.46107,29.80057,20.62621,16.87375,9.357215,17.36286,8.311056,11.92404,9.320149,11.69631,11.65215,14.03012,15.63461,31.25151,25.65812,37.07896,38.13393,33.00518,36.84256,33.10856,31.71297,27.66125,10.31619,14.91537,-0.3845277,12.66451,-2.167744,4.183614,-0.7700132,1.899211,1.492367,2.810237,4.878144,7.289931,10.73347,26.36412,21.35702,34.1569,19.42565,32.41522,22.37741,26.24698,6.711072,15.01355,1.022038,0.2401091,6.648993,-1.943747,4.04176,1.403197,5.112629,5.557754,9.43105,11.8409,15.99838,32.7787,28.42881,41.82649,44.36049,36.99996,47.33741,39.85236,42.11913,24.65874,31.2838,18.00403,15.83363,7.000228,16.27039,4.243931,9.416993,4.844433,6.597187,5.589792,6.700349,7.2399,21.15793,13.36478,23.86771,22.47476,29.00368,26.34101,20.08166,21.5832,3.116132,8.6082,-5.395557,-7.093789,-18.31272,-23.16281,-17.88253,-28.79193,-25.62785,-30.24651,-29.65595,-31.49139,-29.18544,-18.74454,-24.56599,-16.32501,-16.70094,-11.89982,-9.761435,-20.34827,-16.0337,-34.51125,-27.86406,-41.78559,-42.63075,-52.14315,-56.39381,-52.7783,-58.36145,-57.3322,-58.07218,-57.31552,-55.46071,-42.52295,-48.68258,-38.36359,-38.28502,-32.09166,-29.13099,-23.2998,-35.08912,-37.34096,-36.38132,-41.66518,-43.86436,-47.75385,-50.87047,-55.51373,-59.86314,-49.05842,-58.96595,-51.10874,-53.77807,-49.58293,-35.50041,-41.15234,-29.76433,-30.01805,-23.73316,-21.91021,-17.67497,-15.85448,-27.69058,-20.94631,-43.27125,-34.438,-50.29003,-50.4317,-61.76427,-49.69935,-63.55658,-56.35993,-61.35466,-57.71631,-58.16458,-55.85865,-53.14861,-37.66555,-42.85183,-30.58076,-29.41623,-20.31396,-32.43185,-20.55631,-29.07111,-38.32706,-33.74983,-44.18046,-44.1791,-51.65304,-39.30062,-49.05268,-41.01154,-42.29119,-37.4702,-35.01187,-30.267,-25.83086,-7.986599,-11.75885,3.161716,6.011838,16.53291,6.364143,18.86727,11.43303,5.222721,8.84177,1.724541,0.6691374,-3.836173,8.162474,-0.7472003,7.630031,5.856502,11.34039,13.07677,18.02382,34.01841,29.34075,43.09636,43.79524,54.3982,55.81034,50.03336,57.52583,39.41849,49.94674,36.91958,38.28729,30.49463,28.65518,36.03358,28.1039,34.17151,31.23303,35.13972,35.19161,40.72928,50.5283,48.73101,56.62461,59.00406,63.73319,51.4642,60.38497,46.34301,41.53332,37.82254,29.7903,23.76904,16.52881,24.77567,12.99033,17.53831,13.67873,15.6578,15.24067,17.85331,31.10803,25.50538,37.43014,37.30968,46.07604,48.96866,40.2271,46.94273,30.50962,38.06462,26.21019,26.71755,18.74294,16.4237,9.617389,4.802871,13.66231,3.001055,9.329797,5.210886,15.4113,14.88213,17.94138,20.80078,23.3036,25.75399,28.17801,31.22704,34.28129,8.934497,26.28918,7.332038,12.74988,1.55451,1.173282,-7.47383,-11.04064,-2.710121,-12.48127,-6.420149,-9.197118,-6.453716,5.892414,0.367458,10.22997,9.378674,15.30171,16.77318,21.79956,24.47153,0.7022079,17.82334,0.1691382,5.178478,-4.699666,-5.909186,-12.47083,-15.85802,-7.841394,-17.06635,-10.37812,-13.9702,-9.879926,2.312292,-3.339686,6.940249,6.086623,12.47971,14.23122,18.88116,6.434211,14.62145,-7.947902,2.692022,-14.00552,-12.62239,-23.91612,-27.3599,-21.13303,-31.51974,-26.43658,-30.63994,-28.7339,-28.77815,-27.09091,-13.67629,-21.00953,-9.830461,-10.9793,-4.588637,-5.450377,-12.54042,-8.479031,-28.30361,-20.30725,-34.90336,-35.01327,-45.46176,-44.24977,-43.33746,-48.28031,-46.08562,-47.30189,-46.14178,-44.65974,-30.80539,-37.18541,-26.50759,-26.33834,-19.45863,-17.09606,-27.14093,-18.93665,-40.58192,-29.35864,-45.66345,-42.74603,-54.23942,-53.11261,-50.25457,-55.85919,-52.30258,-54.09274,-50.95691,-50.64396,-35.13644,-42.41569,-30.40294,-31.45979,-23.52724,-20.26367,-23.04063,-22.51945,-22.86677,-34.05969,-33.66976,-41.25425,-45.62216,-52.12074,-58.55069,-49.25969,-61.76328,-55.06519,-60.16566,-57.16522,-58.21713,-43.52522,-52.02555,-40.67721,-42.61217,-35.02976,-34.82604,-28.63112,-40.59701,-43.37237,-44.92876,-50.85889,-53.62876,-58.26426,-63.2493,-66.96947,-57.24894,-66.02455,-57.81683,-59.84263,-54.42715,-52.26714,-36.69462,-38.14818,-26.70363,-22.8201,-14.54851,-8.125714,0.1304313,-8.576971,-8.099364,-4.454276,-7.710164,-6.12343,-7.568645,-7.940928,-9.38493,-11.08937,2.436101,-4.20385,6.223654,5.894246,13.29176,29.1228,26.32141,40.33182,42.40096,52.50375,57.21014,64.80617,71.29615,62.64538,61.29532,63.85463,59.19056,59.08031,55.04381,53.13408,48.5927,61.36753,51.86276,60.92646,58.13037,63.62125,64.46503,81.40586,74.58748,87.33703,86.5175,95.03729,97.14439,87.47207,95.23783,74.52497,83.92821,69.03913,68.95725,58.52088,53.10754,60.12795,48.4388,54.36184,48.99675,52.78338,51.28058,55.49243,56.29209,60.83491,76.7999,73.90547,87.46537,74.60183,89.13494,80.96879,87.05013,82.20365,69.19269,74.97191,61.57001,61.98845,61.80965,59.83156,58.74344,59.27552,59.09048,60.20857,60.85262,62.77371,64.89649,79.66998,74.0622,85.80374,69.62751,81.78347,69.93883,71.64027,62.90057,46.35108,47.5523,31.12358,40.57288,24.8268,28.59788,21.03192,20.95369,18.27888,16.28234,16.3745,15.18958,16.42848,29.24546,21.83356,32.02959,17.06814,24.18093,14.48781,13.5253,4.960234,-12.34305,-11.70225,-27.9991,-17.37665,-35.22361,-29.22817,-38.16815,-36.41963,-39.54905,-39.47631,-39.43356,-38.40298,-36.63926,-21.43927,-27.43661,-14.23416,-30.18668,-15.69448,-26.9182,-22.60323,-29.90498,-36.36329,-45.01966,-48.28545,-57.12774,-47.6913,-59.84308,-53.13667,-57.60833,-53.36795,-54.33001,-49.9791,-48.65955,-44.00824,-39.78536,-23.95425,-26.7683,-12.42209,-26.39683,-11.49616,-21.66179,-16.36097,-29.83279,-31.33077,-38.64405,-44.70362,-37.08846,-48.93492,-44.1835,-49.40728,-47.30104,-48.25618,-46.11824,-44.93922,-42.03158,-27.9122,-33.02063,-20.67965,-20.49959,-11.85891,-8.597413,-17.12258,-14.69968,-23.85989,-20.96682,-29.26694,-30.29509,-36.63442,-40.18981,-29.98675,-40.63535,-31.98006,-36.53442,-30.60933,-31.15563,-14.62768,-21.69776,-9.264777,-9.970362,-2.417203,0.5586391,5.729291,-8.787599,-5.491676,-9.994616,-12.82922,-16.85309,-20.88095,-24.38665,-30.47898,-18.61914,-30.48506,-21.32764,-26.05421,-20.319,-8.41825,-14.13544,-3.026981,-4.300281,3.570514,4.853653,10.55366,10.02971,-6.295884,6.541069,-7.241686,-3.278613,-10.99396,-11.85885,-18.27064,-21.30178,-11.66862,-21.94678,-13.63354,-17.92219,-4.455239,-6.608488,0.5060781,2.199228,7.426059,9.812208,15.08865,17.86624,17.05965,3.710011,14.04285,2.381266,6.374272,-1.503756,-1.526157,-7.284878,-10.19576,-8.933619,-6.712464,-8.795344,-6.609,7.139009,-0.6742841,10.60815,8.296219,15.10298,15.05309,19.80613,22.19205,14.04484,24.62888,7.036686,18.33605,6.517748,10.00185,2.915827,2.7874,-3.387023,2.458672,1.270865,2.816835,3.646691,19.51135,10.94643,24.26478,20.84336,29.19962,29.44629,35.627,36.83274,28.65488,26.25715,26.03653,21.46403,19.45542,15.8769,12.46058,8.38396,11.59483,13.28053,11.60922,15.08569,16.04858,18.82034,34.23117,27.17536,40.23904,39.00394,47.43413,49.14742,55.50779,42.86866,39.87558,39.73909,31.88507,30.47932,22.39314,19.81524,16.01001,21.68148,13.67291,18.494,15.12035,18.20184,29.78851,22.30735,32.83426,29.70005,36.4842,36.28745,40.56805,26.11062,21.70545,19.62879,10.96412,7.07475,-1.407425,-6.814875,-10.28085,-7.522208,-15.5305,-12.18826,-16.64109,-14.47849,-15.9324,-1.652748,-10.4441,-0.1442808,-2.055088,4.107612,4.952089,-0.2812059,-0.8617242,-11.60714,-14.39703,-20.79956,-26.33392,-33.13307,-38.97117,-38.26658,-39.43207,-42.43168,-41.25191,-42.67892,-40.21077,-40.3689,-32.33597,-27.30857,-25.53116,-19.01354,-15.80591,-9.89945,-22.04021,-11.38338,-32.62838,-22.4399,-37.8914,-33.82158,-44.76357,-45.27804,-38.58589,-45.99206,-40.65551,-42.90913,-26.7903,-35.9461,-24.01754,-28.04328,-20.0226,-20.7284,-15.65042,-14.30031,-10.41426,-35.95218,-16.94303,-37.99642,-30.71601,-43.49196,-43.08294,-52.75298,-55.33261,-47.46884,-57.40168,-50.04183,-53.53302,-49.19629,-36.87453,-42.50431,-31.2246,-32.53445,-24.79742,-23.53834,-17.35633,-14.00888,-16.37018,-24.86343,-16.66687,-24.9026,-21.68755,-26.24556,-25.78635,-29.80914,-31.15369,-19.22135,-26.86098,-15.8379,-17.80938,-9.154942,-7.924002,13.22394,6.612874,23.98009,23.93118,36.60559,39.79801,33.99763,44.49019,37.04699,28.79951,33.25933,23.45581,23.76211,15.91996,29.28245,17.30222,27.84575,22.97548,29.47764,28.84646,34.17428,35.41511,43.80444,54.07005,54.24113,64.66472,67.45699,59.68022,67.63128,60.35173,61.31239,42.32609,49.37041,32.43245,32.06791,28.90166,27.31996,22.75208,23.05461,19.75367,20.7175,19.031,20.0328,26.1501,28.89055,30.14939,33.70622,36.46396,32.56239,28.70066,28.61487,10.49914,16.23195,1.529526,1.086368,-9.227488,1.137709,-9.223539,-1.684954,-6.550214,-0.4474017,-1.165134,3.431202,5.50743,22.99785,17.64027,16.90978,22.09728,17.92642,19.60813,14.44812,13.44158,-4.461529,-0.2924034,-13.94578,-1.805241,-16.49918,-8.179272,-14.75749,-10.24936,-12.39803,-8.71049,-8.460305,-4.447832,-2.019861,15.51205,9.178022,24.35009,8.378143,22.65394,11.54644,16.44052,8.041832,-5.033163,-2.54554,-16.58546,-7.793162,-18.51312,-14.9169,-19.65114,-17.74802,-19.72415,-17.91874,-18.49513,-15.48028,-2.136021,-7.99506,3.591136,2.710717,10.56488,12.64891,3.225946,11.85038,-10.73087,2.090531,-16.06317,-11.40343,-24.59197,-25.31095,-35.75829,-23.38917,-38.37255,-28.70197,-36.41959,-30.74378,-33.34908,-16.74793,-26.96161,-13.86169,-17.93084,-9.400668,-9.73335,-3.403988,-5.32133,-23.89757,-9.797106,-26.42805,-21.01591,-31.56965,-31.52643,-39.75754,-42.56776,-33.74624,-44.09307,-36.57913,-40.68183,-22.96307,-34.28435,-19.80043,-25.31242,-16.15937,-17.89649,-11.2204,-11.10212,-26.67526,-19.63128,-29.92985,-28.86695,-36.97838,-38.62747,-46.11803,-49.68072,-41.19282,-50.43712,-44.46074,-36.76733,-40.3028,-33.65981,-33.53747,-29.13233,-27.23341,-23.83234,-22.07931,-18.40645,-16.16587,-41.24402,-22.93557,-44.13503,-36.69607,-50.27186,-49.39895,-59.31,-62.48249,-55.8672,-65.07652,-59.76911,-63.00624,-46.86167,-57.37292,-44.78133,-48.7501,-40.68592,-40.87145,-35.06092,-32.72813,-28.17601,-51.19714,-31.70409,-49.75982,-40.94089,-50.92884,-47.93579,-54.35087,-54.36521,-43.67027,-50.52534,-40.70891,-41.97943,-33.92132,-18.99763,-22.04869,-7.320326,-5.644379,5.910065,10.53414,19.53724,7.345528,14.76616,12.60398,13.63042,12.34561,12.1263,10.71175,8.474453,23.11983,13.56116,26.73083,23.92892,33.62429,41.58724,49.20173,53.78439,62.31627,67.35713,74.58803,80.1236,86.73381,72.06766,80.35467,73.31653,74.36116,69.49847,67.85126,62.76658,59.86916,69.48234,59.73629,68.284,64.02053,68.62479,67.20934,83.06009,73.546,86.38675,82.87617,92.00164,91.89659,82.14346,77.59882,77.57771,69.73746,67.7516,61.46537,57.15552,51.23479,61.58341,49.64017,58.40292,52.76716,58.41133,57.08539,75.34539,65.96763,81.23714,78.24209,89.36465,75.6887,87.60596,78.4033,81.02735,61.94884,69.69105,53.51203,54.4035,42.16326,38.14004,44.32125,32.086,38.00113,30.96236,34.55733,30.65298,33.9791,45.21278,38.04254,48.6638,45.82043,53.55437,37.08439,48.28266,34.68865,24.55687,25.05349,12.17116,9.692553,-1.512598,-5.800444,-1.581776,-12.35104,-7.807253,-14.5776,-11.20527,-1.662961,-9.274345,-0.6192403,-3.755468,0.6695174,0.7985428,4.383931,-6.430894,-9.514824,-11.08171,-16.77435,-19.63548,-25.11949,-28.67421,-34.44755,-34.49164,-30.39585,-36.38836,-31.6303,-33.92155,-15.9277,-27.09167,-12.5438,-16.63212,-5.843771,-7.690696,1.006674,-12.109,-3.312308,-14.69624,-8.505532,-15.51606,-13.7574,-19.30864,-18.38299,-23.75804,-19.12653,-17.20201,-18.31215,-15.34101,-13.03514,-10.62263,-7.706562,-5.423537,-0.1355765,2.640729,8.221535,25.62027,20.36247,37.08055,21.90306,38.38782,26.89835,20.68287,22.90231,14.02809,12.55459,23.4539,11.54315,22.48518,17.6265,24.16851,24.91277,29.14905,33.6601,37.04429,43.10654,46.98405,54.57579,58.75131,51.22895,62.56686,54.83302,59.45155,53.96763,55.12914,49.07397,46.61079,40.39793,49.46243,37.20789,44.70865,35.99163,39.37288,33.81263,35.26556,31.44003,32.16509,29.56261,28.84174,29.0453,27.3914,12.37561,17.16558,2.676934,1.786181,-10.71449,-16.31711,-27.95012,-37.22646,-32.82663,-49.94016,-47.02693,-57.25093,-59.35744,-64.337,-67.8322,-69.90895,-73.86286,-73.56057,-75.82474,-92.06403,-85.66553,-101.7458,-99.82229,-113.1795,-115.0317,-127.1205,-115.7553,-132.1941,-123.3192,-132.8049,-126.4244,-132.0683,-127.3097,-128.7968,-125.8134,-122.9701,-119.772,-115.0956,-109.8518,-121.2725,-109.2259,-117.8486,-113.7828,-119.3327,-119.2602,-124.5841,-109.6191,-121.1101,-108.7245,-112.6237,-105.8956,-105.4398,-100.3173,-98.75216,-94.14203,-91.03158,-86.83921,-81.84822,-75.56008,-73.08841,-65.40516,-60.22302,-52.95343,-47.33503,-39.06619,-32.56249,-40.59096,-27.17436,-35.61728,-29.37675,-34.34566,-32.49881,-20.32289,-27.36798,-16.79711,-18.50094,-11.92458,-9.818104,-5.24764,-1.854552,3.27408,5.341758,11.44257,12.61041,18.25791,19.87546,25.43556,27.26659,32.7577,34.68987,38.70901,42.87272,46.26246,50.37032,53.76532,58.02799,60.54319,65.25123,68.52918,72.17857,75.00086,79.44564,81.8303,85.74122,87.58767,91.55133,92.94719,95.85435,98.3476,98.26417,103.1675,101.5206,105.0454,105.0246,105.9301,105.9782,106.1794,106.9732,105.7596,105.166,104.7412,104.0642,100.1892,101.6531,95.89176,98.28902,91.38621,92.53154,86.44124,84.79337,81.1739,77.68105,75.02644,69.2257,67.29807,61.93643,59.67053,53.40297,51.80882,45.59808,44.16178,37.60471,35.74929,29.42011,28.10537,23.42175,19.90013,16.63515,12.61899,9.453216,6.346854,3.320833,-0.0440985,-1.58285,-6.661543,-6.143431,-10.79172,-11.46968,-14.78935,-15.11531,-18.66866,-18.31299,-21.38737,-20.6917,-23.46766,-23.16053,-25.62302,-25.29768,-28.01006,-28.65813,-29.09865,-31.22996,-31.45075,-32.84462,-33.38398,-33.99154,-33.16615,-34.70415,-34.25365,-34.07647,-33.56451,-21.05101,-31.51716,-21.68765,-29.46873,-23.79279,-29.22577,-29.0358,-33.25022,-47.37127,-41.86957,-54.7951,-52.45828,-62.12646,-61.35125,-67.45952,-67.38065,-71.27438,-72.06434,-73.7756,-74.66092,-61.32347,-73.57163,-61.83145,-69.11376,-62.29293,-67.02121,-61.61446,-66.2542,-62.42613,-77.52726,-65.23884,-76.4662,-69.75454,-73.93997,-69.51113,-69.86887,-66.4699,-65.83079,-61.59221,-59.09733,-55.04275,-50.15071,-39.11513,-34.02085,-27.89076,-22.18755,-15.05497,-12.59787,-5.844249,-3.94437,2.784069,-9.194114,7.450051,-2.689706,11.89569,4.258703,16.11687,12.45509,20.56826,21.2159,26.82786,27.88023,39.3233,43.52945,47.15522,51.63344,54.36025,57.49724,58.05984,60.58759,59.71834,52.94911,52.9382,51.69424,47.79668,48.52796,43.9864,44.85757,40.52007,42.54441,38.14287,39.12838,36.34363,35.05128,33.8091,44.76734,32.95887,41.6881,33.7621,37.05052,31.23943,31.88807,26.0918,11.35537,17.68644,3.982478,7.815623,-1.756657,-0.1295325,-5.870288,-4.489431,-6.911596,-5.625914,-5.908669,-3.533603,11.15396,2.919249,17.06155,14.45911,23.4976,24.14128,15.83958,23.30749,1.316531,14.68785,-4.03253,1.408208,-11.99867,-11.40068,-5.86945,-14.36855,-6.956345,-11.56559,-5.117714,-6.807815,-1.542557,13.15128,8.205059,21.22521,21.55064,31.37671,17.55012,31.99752,19.37921,13.21087,14.16453,5.313066,2.600164,-4.407236,-9.887232,-0.02242095,-12.88332,-4.237913,-10.7044,-6.417483,-8.064336,6.728737,-3.155626,11.1084,5.40627,16.6554,14.0839,22.69421,14.65683,3.255942,11.01363,-0.8532715,1.209448,-7.065084,-8.237869,-14.23043,-18.86484,-7.953181,-18.827,-8.324963,-15.80501,6.47957,-7.922372,10.33037,3.352355,14.52971,13.6269,22.14372,15.33749,3.435208,12.93019,0.3986944,3.138687,-5.090754,-5.604355,-13.22945,-15.16181,-12.96527,-13.85868,-15.41617,-12.26628,-13.89416,3.161085,-8.286041,7.500761,0.6134713,11.51411,9.158556,15.79668,17.477,9.54989,7.545298,7.342798,2.649479,0.3964702,-3.139224,-6.70134,-11.50957,-15.74374,-4.809065,-17.04922,-6.62493,-0.3779388,-4.594278,4.559151,1.910291,8.930961,7.581252,13.25448,13.74381,5.801075,1.641922,2.669217,-4.271572,-5.912525,-11.69661,-14.34923,-20.58361,-25.2752,-15.16355,-27.41687,-17.66956,-24.25897,-4.650592,-18.4548,-2.591344,-9.74709,1.222894,-2.603016,4.99549,4.785456,-0.7664643,-6.924566,-5.273373,-11.95316,-13.31409,-18.63025,-21.38241,-27.18895,-30.89043,-21.25769,-31.93773,-22.843,-26.7417,-9.056829,-16.92435,-3.738006,-6.447084,1.71038,1.940724,7.320931,9.943637,-1.617377,7.614662,-17.12081,-3.547063,-24.46888,-18.18863,-34.00567,-33.72108,-29.23751,-38.49308,-32.93597,-38.52199,-33.94588,-36.57716,-31.41547,-18.73488,-25.06973,-11.43841,-13.91826,-2.956188,-19.40846,-4.746913,-18.30647,-13.08693,-33.34245,-24.3583,-41.83803,-39.16255,-36.27827,-43.51678,-38.66777,-41.1423,-37.24126,-36.98294,-31.87592,-29.62342,-21.73425,-9.308272,-8.839951,3.76213,7.338788,1.651482,12.69465,6.519004,7.971716,-2.745652,2.418759,-7.43825,-6.852263,2.90399,-6.224953,4.532677,0.5125512,9.739538,8.286657,16.65446,18.5043,38.37462,32.94614,50.31164,50.52903,46.78495,56.70151,49.29521,55.02549,36.4095,45.85736,30.19218,31.45368,36.99691,28.21075,34.10875,29.7514,34.01461,33.09195,36.38442,37.34513,40.8432,55.29996,49.87432,62.64894,61.56766,53.69349,60.19038,50.62826,39.58502,40.02294,28.42165,26.40614,14.63172,27.19227,12.60191,22.18185,14.26673,21.0508,18.10224,23.21906,24.44953,31.35921,43.31298,42.69762,55.59799,58.46904,53.06661,61.20457,54.80903,57.69759,51.93171,37.7231,43.81444,27.06228,29.29853,14.24485,28.23319,10.4309,20.84339,10.62068,16.84128,11.10149,15.78562,12.6046,16.70956,29.5002,22.19848,34.86154,32.31215,24.51958,31.20494,20.85957,22.43959,-0.2548801,9.508584,-11.74398,-10.22586,-25.21299,-13.63079,-32.1674,-23.21773,-34.12627,-29.1502,-35.54758,-30.89648,-33.39959,-18.60469,-27.49824,-15.05125,-18.5634,-12.37025,-25.16656,-16.17168,-28.47832,-37.87375,-36.51564,-48.63944,-50.70649,-55.96847,-50.62571,-59.43105,-52.65477,-57.91892,-52.75066,-53.15101,-48.29417,-35.07492,-39.13828,-26.01246,-26.09151,-15.37061,-28.97858,-14.32511,-27.53268,-30.06336,-30.45021,-37.71974,-38.42086,-45.51823,-33.97433,-43.92071,-35.05414,-38.00072,-32.95985,-31.21688,-26.96618,-21.57063,-8.852127,-10.96433,0.7616945,1.603949,10.92942,-3.192602,9.643029,-3.656559,-11.67155,-11.32479,-21.5683,-24.69606,-16.85131,-27.80381,-19.16955,-25.23193,-18.34897,-20.84544,-15.33353,-15.40676,-9.643415,-7.157796,11.92385,5.432383,22.51331,18.33018,20.18213,23.74458,21.85935,21.01294,6.774354,13.80238,-0.8511717,1.957381,-10.33992,4.841226,-11.99241,0.8417052,-9.507453,0.05788291,-4.883148,0.8114762,13.57609,6.817026,19.36086,17.08726,25.45899,26.67958,32.86965,19.75941,18.30365,16.77929,10.7124,7.906287,2.089107,-1.530318,-8.411326,3.564502,-10.35063,1.241875,-7.38865,0.6819328,-3.36443,16.02678,4.299132,20.085,15.09996,26.87801,24.36494,33.0597,19.12832,18.22,17.72179,10.76256,9.839985,3.417361,0.9530734,-5.282559,7.196183,-5.797552,5.543314,-0.795171,18.90449,6.979458,23.84978,16.60906,29.34379,26.31461,35.72814,34.82129,15.15918,32.06903,12.96679,22.83623,9.033097,13.34062,2.209869,4.098724,8.387673,2.522153,8.883762,5.779432,11.23649,10.96024,28.94022,20.40713,36.10878,33.49909,44.07161,45.75282,50.3259,42.56923,37.68344,41.12795,33.11988,32.8897,26.24604,24.14834,17.59612,30.58515,16.38042,27.73584,20.14002,28.09116,24.54733,43.41694,31.11437,47.4422,41.03849,51.19687,49.00349,56.42156,56.01659,33.04242,51.50669,28.60396,38.83541,21.789,25.51961,13.34245,11.71382,17.50736,6.323645,13.59775,6.094743,17.10759,15.36175,18.50121,19.65903,21.74166,22.59691,24.41684,26.83101,3.405166,15.1749,-2.619763,0.9666944,-12.8577,-13.02843,-24.17432,-27.90968,-21.78453,-33.37604,-28.02062,-33.61781,-29.87371,-21.09953,-27.97078,-18.93,-21.92212,-17.21721,-16.58044,-12.98414,-12.81076,-35.84827,-18.15068,-40.43074,-31.00677,-46.2181,-43.06946,-54.35671,-55.12142,-49.17992,-57.66843,-50.89406,-55.717,-36.52349,-50.17664,-32.77981,-38.58387,-27.1429,-28.65881,-19.46291,-34.79918,-20.89146,-35.84751,-42.96605,-43.44412,-54.36362,-57.86659,-67.27129,-57.61283,-72.71739,-63.63436,-73.6841,-67.94563,-72.91092,-68.68499,-58.61783,-63.76548,-53.75681,-55.72083,-47.80395,-47.74949,-40.55877,-54.99903,-55.37098,-57.01273,-62.72197,-63.92457,-70.06773,-71.62777,-78.34619,-63.94945,-76.67028,-64.75498,-69.88948,-60.66883,-48.41455,-51.43885,-38.90714,-37.6197,-27.93071,-23.99812,-16.66749,-10.15431,-32.60583,-8.678628,-28.35911,-14.85367,-26.54995,-19.76526,-27.43341,-24.45396,-14.32672,-21.43098,-9.574635,-12.5556,9.062981,0.02568693,17.78027,14.46961,26.27749,26.54401,35.71727,37.6603,37.71501,21.46819,34.00062,17.88879,23.73501,11.77823,14.00404,2.573364,13.08493,3.813987,10.0737,4.778204,10.77795,20.36334,14.64143,24.61231,21.74435,29.63419,28.19891,34.10419,20.605,20.57079,16.84009,13.0711,9.079657,6.579821,2.309353,-1.744097,-3.940811,5.098258,-3.770409,6.443772,2.232475,9.80039,23.35601,18.70801,32.53153,33.93271,42.65507,47.6834,56.90777,45.6061,61.70205,40.02081,58.61654,40.50978,52.62476,38.25907,45.42105,33.24752,36.52207,42.77063,35.4146,43.14143,39.71707,44.82735,58.45938,50.85846,64.16673,60.55168,69.93316,68.37361,75.7759,61.26757,58.97198,55.64784,49.07005,43.99449,37.22888,31.48094,24.14691,32.80931,18.16315,26.59981,16.82412,22.97121,29.30024,22.88088,30.90983,26.22654,33.04868,29.86823,35.48513,17.69841,15.9452,9.710123,3.010105,-3.281324,-10.44968,-16.35774,-24.52609,-15.21592,-29.01515,-20.05055,-27.42346,-20.38194,-20.65473,-7.30053,-12.8438,-0.8303666,-1.91266,7.701295,8.938599,2.479673,4.609465,-5.401898,-0.6764984,-10.82241,-8.736299,-16.91493,-18.24252,-25.04764,-12.26983,-25.00007,-13.65446,-19.79676,-11.34128,-2.91707,-5.342324,3.391877,3.406726,9.751396,10.66169,15.95727,1.920819,-1.697828,-3.852694,-13.80098,-17.43305,-27.3628,-32.39148,-25.41779,-37.17571,-30.31961,-36.37157,-31.58739,-34.33687,-31.31336,-19.45124,-24.18141,-13.97871,-15.25928,-6.798746,-6.524159,1.25075,-13.59667,-12.54148,-15.87679,-20.59262,-23.20489,-28.67444,-31.51855,-36.87788,-40.68713,-31.53027,-42.90254,-32.35808,-35.05557,-22.86419,-29.62454,-18.42294,-23.55402,-14.34155,-17.38556,-10.65785,-10.59238,-17.96591,-21.69197,-21.24054,-27.63463,-28.24445,-33.66894,-36.19621,-41.18372,-45.66517,-34.17725,-45.77555,-35.59739,-40.64446,-20.79612,-31.73535,-15.59172,-20.72202,-8.896376,-11.02977,-0.4409469,-1.358251,-19.8171,-1.893453,-21.28193,-10.1623,-24.28595,-17.77604,-29.13883,-26.72512,-20.26861,-26.39127,-17.86426,-21.18504,-0.8581576,-12.4212,5.579245,-0.01977452,13.28924,10.83678,21.72449,20.93799,14.29977,15.76103,13.33906,11.77895,9.757818,6.906987,4.398383,0.9395736,4.658353,6.846487,5.500775,10.57515,23.41812,17.02648,30.47386,27.10576,36.35478,36.30131,43.59157,44.43164,37.76322,35.52893,36.11515,31.00115,30.19593,24.36417,23.26413,16.62922,12.64449,23.91374,10.53917,22.79152,13.1441,36.9653,19.11939,38.39303,26.51906,40.31117,32.77577,32.29046,36.36513,38.12955,27.79856,35.64381,27.82479,31.59916,25.01593,26.73986,21.15285,19.87874,30.63575,32.77815,37.21682,39.8824,45.32003,46.83625,50.60508,53.28879,56.10579,59.43893,51.47089,55.9248,43.51031,50.12032,37.84542,41.43938,30.51667,30.62592,21.95929,18.15289,27.3043,13.81974,23.06509,27.22751,22.75568,28.5425,25.52479,28.90887,27.57925,29.25499,29.28692,31.60104,18.47009,17.69846,10.76273,7.296975,0.2971272,-4.100772,-10.75189,-16.31644,-23.43336,-14.71885,-28.08262,-19.51326,-26.65715,-8.444306,-23.19017,-6.625897,-16.14738,-3.58638,-9.132775,0.169698,-1.774799,-22.68208,-5.283451,-25.76587,-15.79013,-31.48675,-25.13763,-38.66676,-35.51781,-30.57016,-37.9082,-29.54592,-34.18472,-13.17008,-26.02649,-7.222432,-15.00408,-0.6308804,-3.050796,7.181607,7.893924,-12.91266,7.766933,-13.2132,-0.6663701,-15.04272,-8.795249,-20.57257,-17.76158,-12.43582,-18.75069,-12.89874,-15.53986,1.899106,-9.676684,5.011334,-2.078237,8.476791,3.091085,11.80683,7.699611,2.097722,-6.374665,-5.179114,-15.4269,-16.46997,-24.5712,-27.25206,-20.66846,-28.31974,-22.77812,-25.19687,-21.17881,-21.2588,-4.460399,-12.9235,2.448787,-1.314397,11.11266,10.43346,7.498895,10.02977,-6.288751,5.142729,-11.69012,-4.903134,-18.4174,-15.95883,-26.68741,-13.92699,-26.41862,-16.44573,-23.35127,-15.46944,-18.22857,0.468849,-9.793434,6.792067,2.169123,12.7992,12.48461,20.93009,5.05503,8.334673,2.728536,1.338504,-4.71538,-6.805993,-12.42127,-16.57287,-22.79702,-11.6737,-25.36573,-14.45202,-22.57447,-1.829068,-17.31037,0.7233063,-9.51924,4.046598,-2.656186,7.833878,3.479236,-0.4665405,-7.075202,-4.876188,-13.6679,-12.46354,-21.07911,-20.92631,-30.28287,-30.83501,-24.91776,-33.41982,-27.2012,-18.14871,-24.72766,-15.80479,-18.53641,-12.14163,-13.56733,-7.439515,-8.488926,-9.542188,-23.75694,-13.79865,-29.21088,-22.83958,-34.76737,-33.45914,-43.06658,-43.86374,-36.953,-46.58894,-38.42919,-44.25238,-37.90089,-26.62922,-32.10012,-20.14304,-21.56746,-13.04691,-12.0671,-5.064113,-19.87755,-7.231294,-22.36526,-15.44823,-41.78733,-28.41063,-53.07203,-46.42267,-50.4354,-54.92963,-54.70893,-57.30381,-56.22385,-57.6704,-55.49814,-54.94598,-38.34938,-47.95605,-30.90994,-36.12186,-21.78713,-39.10811,-22.04561,-36.40972,-40.28939,-39.81499,-47.90821,-49.1923,-57.21683,-42.45466,-57.04777,-43.17904,-51.00403,-40.2605,-43.21658,-34.0047,-19.89523,-23.5655,-7.227025,-8.251605,5.875984,6.827622,3.03134,13.03857,-6.516736,10.13599,-6.29823,3.328866,-8.658108,-1.894872,2.64634,0.326848,7.284224,7.532074,14.34417,16.37283,36.26032,29.23241,47.82958,45.3944,60.24499,61.30071,56.83044,66.06187,46.8044,62.71879,44.3559,53.95394,39.45081,45.50764,48.08155,44.36049,49.15177,49.16581,52.07388,54.51121,70.30386,63.00803,77.45145,75.03878,84.88754,86.11755,76.23673,83.96788,60.72719,74.04375,52.36063,60.35392,42.66741,47.04969,43.10874,45.92735,41.65738,46.52993,43.37482,49.08995,48.36475,54.36855,55.09915,75.17487,66.84765,85.87507,83.32885,99.42513,82.11493,102.9847,87.1281,99.70232,74.17678,91.37986,68.8398,78.49775,61.66607,65.14422,51.25616,66.144,47.63636,60.18954,47.20534,56.94715,60.87142,56.2463,63.75143,59.50653,65.8326,63.42112,67.93366,37.86153,59.84093,30.50081,43.88772,21.44866,27.33846,10.01551,10.13302,11.90672,1.816584,4.999152,-1.313676,13.37013,-0.251121,11.89549,3.381568,11.28478,5.938057,12.23469,9.072142,-14.17596,0.210931,-22.55219,-14.53427,-32.55731,-28.15034,-43.95267,-43.0652,-39.69412,-48.52748,-42.30606,-48.31633,-36.91586,-36.78067,-33.46881,-29.75209,-26.67656,-22.59689,-19.15285,-14.50431,-38.59797,-17.58285,-39.92727,-27.44386,-43.25291,-36.85673,-48.25259,-46.28551,-39.99854,-46.61186,-38.36762,-42.0155,-28.66465,-27.74052,-22.08284,-17.78081,-12.49962,-9.489122,-3.513668,-0.6999397,-22.1479,-5.281283,-24.91134,-17.42546,-31.82602,-29.89542,-42.07792,-42.33216,-37.87438,-46.16148,-39.65434,-44.34237,-29.41326,-35.78806,-25.81067,-28.90214,-21.44773,-22.93653,-16.47189,-17.11512,-20.76806,-14.66383,-14.6126,-25.93751,-16.09291,-27.08675,-21.31427,-29.6806,-26.74327,-33.8852,-33.22077,-41.21006,-17.38531,-34.85279,-16.69959,-27.18675,-14.84855,-21.13642,-13.05218,-15.87495,-20.42409,-14.9199,-16.50551,-12.13779,-26.7573,-14.29536,-29.01594,-20.97856,-32.23556,-29.80244,-37.72904,-22.36856,-23.30685,-20.9411,-17.19426,-15.35057,-12.00248,-10.07813,-7.735565,-6.949139,-13.54911,-1.829364,-8.232826,-12.67564,-9.553535,-15.37557,-13.85311,-20.01122,-19.73416,-26.32872,-28.04382,-20.00579,-14.59536,-17.82012,-10.70221,-11.4318,-7.797683,-5.619248,-4.441087,-1.732376,-11.933,1.425602,-6.481771,-2.416003,-12.19928,-5.666993,-14.91078,-10.90854,-19.80707,-18.21613,-26.47534,-11.97077,-12.26748,-11.71028,-6.490355,-6.13226,-2.103378,-1.731992,2.197608,3.082492,-5.660517,7.157163,0.4636254,3.291347,-4.504498,0.9754621,-6.504073,-4.273413,-10.51948,-11.25232,-16.54204,-5.942669,-14.46644,6.908441,-6.899371,11.66386,2.968796,15.41942,10.5931,20.44239,17.73036,15.00433,22.5218,9.772499,16.27153,7.526506,10.44431,2.656952,3.361166,-3.872262,-4.632929,-0.8675609,-3.30861,1.213372,10.20776,5.708525,15.50905,13.39483,19.78494,19.52597,24.55964,12.03234,27.94068,7.322329,19.2699,6.138289,13.16034,2.654561,6.923052,-2.483177,-0.4160199,4.096729,1.964858,5.872553,7.067045,24.61546,14.61242,32.16651,26.55382,38.58013,38.21448,46.68337,48.23795,26.09315,47.35731,24.00761,37.92112,20.74189,27.68172,15.04061,19.36367,21.33945,16.28988,21.55023,19.08799,22.70944,35.84132,27.21045,41.85056,35.37817,46.73311,43.51569,52.38321,34.90592,35.00396,30.11656,23.8301,19.68576,11.32155,7.306014,-1.265557,8.696273,-6.687795,2.779875,-6.728048,-0.3514245,7.12559,1.036874,8.845296,6.526609,11.80136,10.97062,15.86569,-0.9397697,-1.186429,-7.51197,-12.62402,-18.43049,-24.30705,-30.88548,-36.88272,-28.98453,-42.13493,-33.96588,-35.86048,-29.41657,-33.71634,-27.11357,-29.99573,-24.6932,-25.32183,-20.15049,-31.10629,-16.47402,-39.33195,-22.19238,-40.53792,-30.38753,-42.91923,-37.46168,-47.13239,-45.13334,-38.88201,-44.09142,-37.18222,-25.80432,-30.75633,-19.10089,-20.22187,-12.25918,-11.56539,-4.85434,-2.431672,-10.1011,1.905,-16.7097,-2.107345,-18.2438,-9.572882,-22.65517,-18.16851,-29.59964,-12.17226,-27.58988,-12.85749,-9.240387,-8.657261,-2.629413,-1.070019,3.44032,6.237698,9.65133,13.14437,3.071568,19.94761,10.6867,8.029266,12.36747,5.888624,8.703479,3.235177,3.117525,-1.627478,-3.900221,6.816155,2.564316,15.8574,8.801817,20.07896,16.01952,23.63864,21.62606,26.47412,13.465,29.29084,17.15537,31.5687,8.593682,28.1868,8.342457,21.64472,6.278268,14.5618,1.62997,5.43346,10.94045,17.56306,13.00489,21.2485,18.50106,24.42738,22.59355,26.77557,26.38655,30.14451,29.92784,21.69166,17.43596,17.1797,10.09849,8.441968,3.269547,0.2280023,-5.111578,-9.517048,1.263381,-10.68477,0.7491612,-7.567954,2.034065,6.845022,9.939511,14.1345,18.23234,21.93888,17.97954,17.28184,16.65979,11.61128,-4.327855,1.681072,-15.43463,-14.81695,-13.46356,-20.50901,-18.04075,-20.99523,-18.88067,-19.16553,-16.28313,-15.05973,-12.32739,4.629535,-4.230978,14.39225,9.291429,7.403728,13.04928,6.700351,8.900288,-10.99853,0.2682558,-20.14479,-13.80131,-13.964,-18.8206,-15.70964,-17.30003,-13.68344,-13.94096,-9.561647,-7.76222,-3.160636,14.11827,7.262814,25.69182,6.288055,27.10639,10.00148,22.3584,8.708472,0.890277,0.5730006,-10.77713,3.355048,-14.99047,-1.157512,-12.86415,-2.942367,-9.517765,-1.824462,-4.821433,2.417629,15.11343,9.7397,24.55023,14.55315,19.85422,15.39186,15.09382,8.913253,-7.131252,-2.908882,-19.98246,-2.572196,-25.44834,-8.205321,-23.75321,-10.4498,-19.48377,-9.175245,-13.74143,-4.716372,-5.544336,16.12046,6.748774,26.98747,6.554504,29.17688,10.92303,25.36184,10.1627,5.761685,4.207166,-4.75521,-7.930584,-16.11676,-4.959686,-20.18823,-8.690595,-18.75718,-9.166659,-16.84967,-7.902773,0.7011761,-2.831943,7.662511,6.196775,13.84415,15.41274,20.90099,12.1963,4.638433,9.502708,-1.667328,0.5222965,-8.882255,-9.054677,-17.90532,-19.77724,-11.89602,-22.87957,-13.96628,-20.03481,-13.49506,-2.427122,-9.168296,3.424189,-0.7912159,10.11579,6.646104,16.34724,15.49256,0.7040167,6.93933,-4.004643,-2.563089,-11.64466,-13.40351,-20.29778,-25.73537,-15.07905,-29.39761,-17.89452,-27.58233,-18.526,-17.17166,-9.998259,-11.24155,-3.378155,-4.374754,3.118633,3.258025,9.95301,-13.24053,2.471287,-16.33265,-7.882397,-22.47048,-17.70956,-30.22151,-29.01423,-23.17957,-31.26937,-24.41877,-27.69242,-19.3439,-12.42218,-13.8055,-5.589996,-4.152788,2.009553,4.051465,9.825,-4.141695,-4.010502,-7.286895,-12.85093,-15.76017,-22.52173,-25.91749,-33.41349,-21.66527,-35.9959,-24.11429,-33.93728,-23.52486,-30.41939,-7.374622,-23.19624,-1.822147,-12.61766,3.9012,-1.801913,11.36028,-8.146734,-3.022022,-9.394719,-11.67196,-16.07519,-19.26004,-24.61126,-27.85344,-18.00624,-27.89964,-17.80895,-22.5284,-15.53924,-3.277259,-7.999012,5.390178,3.0539,14.29836,13.91664,23.59444,8.882127,11.19358,8.060473,4.530947,1.710313,-2.789979,-5.868984,-11.37611,0.6424934,-12.62277,0.8809836,-7.648176,2.838255,-1.170195,21.10043,7.678458,29.08792,20.75602,37.66383,33.03733,47.4639,28.62414,35.25393,29.15294,29.47858,22.91032,22.22894,16.10165,13.08399,14.38001,15.71233,13.69829,16.53141,15.98975,19.67139,32.41394,25.4676,38.59494,34.54145,44.8969,42.70769,51.38501,41.64541,46.55198,26.58374,38.4917,20.00108,25.00353,9.19667,11.91105,7.103174,8.908545,4.278501,7.804964,5.653694,10.01251,9.713522,14.26803,16.58356,34.66049,28.48166,45.47864,39.31484,42.12132,43.1693,43.2137,39.51533,38.08799,19.73925,27.50736,7.758811,27.98891,3.968475,21.02482,5.173561,17.53268,7.199593,17.22816,11.47782,19.43445,30.64468,25.84149,38.84931,36.77883,30.13309,37.3931,26.92147,30.7166,6.743175,18.69545,-4.999611,1.377672,-2.322867,-7.15732,-6.371038,-9.277637,-9.094565,-9.350929,-9.313383,-7.284316,-6.527172,-3.49121,11.95212,4.741961,4.418249,7.187595,1.746562,2.722452,-5.354027,-6.42156,-22.8109,-26.69902,-21.60401,-36.60178,-29.65262,-39.87188,-34.42079,-41.0659,-36.06804,-38.79842,-33.96002,-34.46042,-28.96321,-22.18344,-11.68862,-27.87223,-8.44762,-24.96793,-12.55157,-27.28065,-20.15495,-33.3531,-32.18259,-40.75902,-39.14524,-44.70147,-43.47629,-45.67919,-44.8452,-30.8392,-41.46719,-25.65782,-32.33888,-20.26178,-22.62388,-13.06453,-28.36252,-13.2744,-29.08244,-19.19013,-33.06608,-27.59696,-40.43089,-38.88284,-51.78427,-37.2423,-57.4756,-45.18914,-59.10812,-49.31698,-60.03762,-50.97596,-57.94381,-50.1507,-53.9109,-46.20969,-47.82064,-38.82944,-38.06534,-28.47679,-41.4773,-24.84729,-37.14957,-25.65887,-48.51824,-28.12098,-50.1064,-34.07817,-50.75033,-22.97801,-31.12493,-13.66243,-16.17542,-1.473191,-0.08299997,10.87602,16.31604,25.05375,31.90034,40.79614,48.34179,39.643,56.64089,45.61307,57.6245,47.96456,54.55744,46.49739,47.93468,56.7507,34.65233,55.55317,37.22006,53.12334,41.53965,54.01674,60.43228,59.19942,69.60836,69.19044,77.94182,78.72126,87.34679,71.92869,87.15292,58.17688,78.20856,52.93995,64.36522,44.93452,49.33706,43.2836,46.26354,38.92496,42.73758,37.68431,41.10005,37.65144,41.22153,39.07302,42.7531,42.87644,46.29678,48.65391,46.66578,42.13755,45.24579,51.70446,40.58146,46.69171,36.00592,37.75582,26.04276,25.4255,15.83172,17.49775,8.863887,12.41275,6.899303,11.70586,-7.067657,8.038397,-9.737368,1.191035,-11.16991,-4.835719,-13.83981,2.271998,-16.01598,-1.13541,-17.16755,-7.363629,-21.59116,-15.18365,-41.28942,-26.48723,-50.05629,-39.99487,-57.45621,-51.17153,-64.7549,-60.4195,-71.00492,-68.27828,-77.31099,-74.84835,-82.81373,-80.99128,-88.05595,-81.34306,-84.68097,-86.33409,-88.47996,-91.2434,-94.74611,-81.60747,-93.4184,-90.83636,-86.26093,-84.8323,-76.87326,-87.04953,-71.92436,-79.65379,-66.28569,-71.62603,-58.89204,-62.66324,-51.07851,-51.98677,-34.16949,-36.81203,-23.50761,-25.1334,-15.04001,-17.01608,-9.380861,-13.19713,-18.45368,-12.20091,-20.01816,0.6722013,-11.81702,8.3466,2.51568,20.16968,18.50249,18.56164,27.6211,24.20847,30.77518,36.99957,36.34975,37.84831,36.48353,34.24261,46.1013,35.00637,45.25683,23.1716,42.26158,23.09674,36.02857,22.80053,33.44608,23.98399,32.11871,26.1453,32.37783,28.4868,33.10352,31.48048,35.58226,36.30651,41.49688,43.8659,49.57837,54.48867,56.92695,58.22876,61.15553,58.98481,59.20196,55.15644,51.6555,62.53807,36.56232,59.16792,37.98971,54.31725,41.35427,54.13604,45.12159,55.83968,50.42294,59.51054,57.08068,65.71568,49.04599,77.58952,48.04038,70.58444,45.54044,58.94618,36.01,59.16264,30.50889,36.55395,25.37521,25.86041,17.88139,17.85547,12.66655,12.35705,9.044441,10.49867,7.526498,10.82148,9.998858,13.51722,9.266987,16.58531,7.305617,11.66706,1.606799,2.729924,-7.808267,-10.57337,-16.15542,-22.13576,-24.02866,-29.36301,-29.56483,-33.20814,-31.66167,-34.38862,-30.92981,-32.52869,-27.5315,-26.58299,-21.30383,-25.78309,-12.96732,-23.98583,-14.80652,-24.42495,-19.95959,-30.05197,-26.98549,-37.37834,-31.27937,-38.9006,-34.44008,-38.8843,-33.76955,-36.5602,-30.47298,-30.62831,-24.8986,-22.03459,-16.10766,-11.07728,-16.21452,3.691903,-10.80609,3.766208,-8.318826,-0.3528664,-11.73593,-9.404347,-4.49069,-27.08017,-9.711099,-29.9151,-17.07063,-32.34564,-22.95933,-34.16904,-28.32941,-34.33563,-30.97006,-32.81334,-29.50454,-28.5782,-11.58574,-21.09562,-3.727009,-9.002686,5.087043,-13.58918,6.473242,-14.91003,-12.91042,-20.21182,-23.27162,-30.8508,-34.84515,-26.76735,-38.24267,-29.8374,-36.10432,-29.7858,-32.41357,-26.48936,-26.91927,-7.518652,-18.01883,1.33498,-4.951084,11.19183,-8.806417,11.83295,-7.949171,-7.269237,-11.74839,-16.79954,-21.81444,-27.43207,-16.94712,-30.37504,-18.76974,-27.36434,-18.7407,-23.68799,-16.02236,-17.7573,1.847451,-8.98492,10.44099,3.295091,19.36208,13.46779,13.17626,15.14539,-1.997971,9.274202,-8.335968,-2.71845,-16.37004,-1.540306,-15.35968,-3.560256,-12.03689,-2.284245,-7.427557,0.8119379,-1.542151,17.87683,8.877456,26.24336,21.26205,35.09102,29.21538,29.25389,30.51629,14.466,22.99836,6.602604,11.15576,-2.720402,15.08816,-4.889389,10.99402,-1.781382,10.24819,2.206688,13.18875,10.11646,27.66509,18.82991,34.97784,30.1804,43.13903,41.06831,35.71166,30.48048,31.29297,23.97589,23.10566,15.96272,14.04659,6.669332,19.10393,4.524095,17.47559,7.907755,17.33748,11.93858,20.48898,31.23442,25.75666,40.47257,36.25203,48.22585,46.02052,41.13314,46.3296,26.41601,39.39293,19.51534,27.42783,10.89668,15.30888,16.812,11.16461,15.12035,12.80635,15.35274,16.39793,18.43941,34.20674,25.29178,41.93423,36.12005,49.22897,46.56983,39.85306,33.27147,35.70502,25.65341,26.61872,17.41994,16.87183,8.288037,22.4569,7.108656,21.73986,11.3022,23.24619,16.44025,40.87635,24.56875,47.34773,36.28036,53.74244,47.32781,60.76762,41.30033,46.27322,38.81458,37.61273,30.53138,27.77292,20.83404,15.8298,25.62974,12.63908,22.52456,14.0149,21.15821,16.6527,21.14148,33.40837,24.41891,38.42474,32.04819,43.30298,39.41409,32.82863,35.51479,14.57455,25.62281,4.261796,9.751623,-8.406179,-6.85666,-8.109297,-15.01731,-13.88151,-18.5352,-17.66594,-20.53246,-18.53831,-8.290022,-16.53182,-5.331287,-11.23916,-1.802736,-9.976134,-12.80488,-16.74288,-31.65894,-28.4294,-44.43778,-44.32718,-58.92466,-46.63842,-64.19577,-53.76087,-65.05942,-57.74005,-65.14066,-57.98419,-59.20892,-46.57585,-53.80585,-40.92957,-45.00991,-34.12794,-36.13593,-43.758,-46.96092,-49.26052,-54.23837,-56.68866,-60.75922,-65.4239,-68.71166,-59.18078,-69.69568,-60.02482,-53.48573,-57.86038,-48.96263,-52.76715,-45.42104,-48.04231,-42.77034,-42.63838,-52.84483,-38.9875,-65.49414,-45.49455,-70.15373,-57.1444,-76.45417,-68.88921,-84.43394,-64.08726,-84.88728,-65.31539,-79.54726,-50.87221,-71.13773,-45.68345,-59.20174,-39.65682,-48.20541,-32.63969,-37.31792,-36.86978,-43.16473,-36.7434,-45.0695,-40.58772,-47.35881,-44.80805,-51.06736,-51.20085,-40.07307,-49.2501,-36.81418,-42.16991,-18.22865,-33.0502,-9.491957,-20.55339,-1.502151,-9.370877,6.73144,2.173191,1.779614,13.75788,-5.577702,13.72583,-4.055913,9.709537,-4.084424,4.678405,-5.927053,-1.250788,5.252272,-1.019305,7.574181,4.551295,25.12591,11.15293,31.50226,21.01148,36.95711,29.38663,42.84691,37.4241,34.50592,28.59199,30.05183,23.27725,21.76416,15.78413,12.3998,5.453968,3.738308,9.011522,-0.3133444,6.482558,0.1362569,5.796401,1.327718,19.59585,5.894654,23.03587,13.77784,27.3373,20.17949,27.2152,0.08665297,21.9743,-4.988932,10.19111,-11.59168,-1.601833,-18.85107,1.238782,-16.89009,0.1599858,-11.77985,1.568179,-5.268872,6.438064,15.13912,13.93316,26.11324,9.514704,27.69384,9.533916,21.61956,5.395789,12.55304,-15.39799,-2.012205,-11.22816,-11.49574,-14.5003,-13.9483,-14.90029,-13.37729,-13.24065,-10.45836,-7.977702,-5.038302,10.33771,7.391578,21.25487,5.691365,23.68421,8.528978,19.47664,6.726615,-0.09098573,-0.5649478,-11.98196,2.448596,-15.1752,-0.2036146,-13.35782,0.2034838,-9.231204,2.481844,-2.830064,21.30024,6.590366,30.37849,20.61252,40.16906,17.35286,40.96817,18.97207,35.93312,15.89673,27.3333,9.565553,15.46751,16.2702,9.72292,13.11629,9.284145,10.70198,-3.730368,9.065877,-3.833666,7.430294,-0.007611671,10.77683,7.628449,19.20322,18.99921,13.94852,24.62754,31.1988,26.7077,34.81143,29.03418,33.25963,27.03266,44.21548,29.13677,32.53052,32.74811,33.63884,33.88006,37.24836,38.17598,42.92167,44.59697,51.12929,53.38976,61.02678,64.58425,72.98445,61.68166,77.00685,64.973,75.59028,64.72947,71.29576,74.03378,80.76225,76.30299,83.71607,79.56618,84.86518,80.56495,71.71901,80.40898,69.6024,78.00845,70.82214,78.23113,75.21575,81.16119,65.278,78.38867,61.7476,70.47826,55.57635,60.66926,46.31736,47.98718,33.51325,48.53462,40.72647,41.92859,40.58363,39.87705,38.25626,37.17351,36.04823,33.87294,23.19641,30.83802,22.35101,15.07455,13.80381,6.636314,3.033745,-3.677866,-8.438236,-14.94132,-21.39734,-12.20216,-24.52206,-7.951968,-16.06175,-6.376278,-10.73037,-1.723419,-5.461894,3.786321,0.9477247,-1.074911,-7.171755,-2.211462,-9.570721,-6.097262,-10.62481,-8.444206,-11.44292,-10.38594,-12.62844,-11.46688,-13.82415,-9.254639,-7.767193,-11.98678,-10.17559,-16.22183,-18.08002,-25.01907,-13.59085,-41.45932,-19.50416,-43.53025,-25.5053,-42.84397,-27.29995,-39.04679,-26.07865,-32.86593,-20.2439,-40.1333,-20.83543,-40.05452,-25.93394,-29.23493,-32.16284,-33.56543,-38.61063,-26.57333,-41.13286,-29.59377,-41.16433,-46.95788,-43.42581,-51.61726,-47.81372,-54.29118,-49.49957,-54.02147,-48.86292,-50.75151,-45.61128,-45.58661,-40.46981,-37.14125,-18.31026,-24.93186,-22.84281,-19.03062,-22.7038,-22.83194,-27.55845,-32.21032,-38.34441,-31.46098,-56.26078,-39.39694,-61.64957,-49.19326,-65.06433,-55.84775,-67.18068,-59.5333,-68.47104,-60.73742,-67.43577,-60.26082,-61.64454,-46.27628,-54.63819,-37.74586,-42.85237,-44.95922,-39.70504,-46.51521,-50.84516,-56.98168,-59.03374,-66.82961,-68.4816,-62.12934,-70.09624,-63.23565,-66.32798,-60.98353,-60.98368,-55.24409,-53.18972,-46.77831,-29.49693,-33.83017,-14.23782,-17.97222,-8.754279,-13.8079,-4.945774,-11.5399,-19.7822,-13.98131,-26.02415,-21.61394,-17.0307,-22.71772,-14.39734,-17.72369,-9.013177,-11.06523,-1.920137,-2.234312,7.256534,22.15338,19.4528,35.95978,29.48495,35.24277,34.22981,35.00744,31.73265,16.58147,23.47598,6.049096,24.32886,3.118693,19.92921,3.755957,17.4099,5.220589,17.28944,8.403874,18.80119,13.47459,35.73375,21.30614,42.14477,32.81148,32.88168,34.40041,29.36713,27.64798,21.09923,5.23321,7.958881,-9.841245,6.094433,-16.99023,-1.317296,-17.598,-4.709681,-16.56706,-4.249755,-12.56601,0.1038702,-5.010089,21.11026,8.199055,32.73565,8.39499,35.22934,12.59955,30.83118,11.01751,12.20355,5.160346,1.36107,-5.665474,-8.112493,-3.231708,-11.64072,-5.208833,-10.53957,-4.657292,-8.085594,-2.044596,2.926439,10.54012,10.15433,20.31835,20.37519,25.91903,15.35765,25.85187,9.958154,8.85223,3.024153,-2.847452,-8.9462,-6.213346,-9.93773,-9.741265,-10.96265,-10.13264,-9.549467,-9.107887,7.209636,-4.044896,12.99841,5.238867,19.28189,14.84407,26.62646,7.159892,12.73669,4.736152,3.803499,-3.276496,-5.621585,-13.71478,-15.73141,-7.993196,-19.54566,-9.541494,-17.20437,-9.565773,-12.61085,4.311884,-4.991803,10.48339,5.257554,17.19944,14.60925,25.27746,7.647069,12.38599,5.437734,3.953288,-2.057266,-4.552903,-11.21188,-14.46403,-5.446621,-17.12909,-6.384248,-14.15975,-5.008295,-10.12349,11.07695,-2.343727,18.47778,7.935764,25.97653,18.59023,34.22267,12.7224,20.80111,12.41283,13.73425,6.396362,6.147129,-1.133452,-2.836464,-9.519991,1.945951,-11.4444,0.3921741,-8.570359,1.431943,8.988858,4.858914,16.21909,13.20753,21.76577,21.23487,28.06045,29.48419,5.064559,27.57098,1.068853,17.15187,-4.037807,6.070646,-10.53422,-3.69612,-4.039432,-6.712635,-3.507691,-5.145228,-1.045537,12.20812,3.832994,18.68689,12.44403,24.91033,21.6825,31.79439,22.73446,12.99891,21.20878,6.61582,12.18722,0.09181168,2.6378,-8.450795,-4.147993,-3.241222,-6.94468,-2.211173,-5.320105,0.2584477,12.09166,5.541215,19.46298,15.23716,27.088,26.21066,18.89309,26.78633,3.69834,19.97667,-2.820748,7.945385,-11.98037,-4.747976,-5.858316,-10.21994,-7.311177,-10.27854,-6.839689,-7.393209,-4.186807,10.07845,1.387203,17.56006,11.49004,25.28422,20.56701,18.85779,20.45772,3.69895,14.06438,-3.400232,3.424803,-11.97989,-8.233759,-6.455028,-12.7625,-7.327,-11.26741,-6.454344,-7.887341,-2.416072,9.842417,4.156212,18.43201,15.10131,26.48853,25.4477,19.32117,19.27605,10.70386,12.58537,3.030907,3.204945,-5.974954,-7.573762,0.02074841,-10.66708,-1.363201,-8.672918,-0.207226,-4.524332,2.525874,12.21353,10.52126,20.27957,20.45359,30.00791,30.41103,22.01858,31.80151,6.057448,24.52003,-1.20833,13.53932,-8.595202,0.3559454,-1.351547,-5.499709,-2.305821,-5.205456,-1.698332,-2.778688,13.31132,1.998854,18.32234,9.683981,23.15555,17.13874,25.87567,-1.695865,22.76274,-5.096341,12.84052,-9.205878,3.660173,-15.45961,-7.012185,-6.772671,-9.617645,-5.456776,-6.632743,0.9642786,7.181041,6.966348,15.14648,15.41036,22.36699,22.882,30.39042,24.67092,15.77756,24.15331,11.84272,17.46272,6.820842,8.869001,-0.1659357,-1.261578,7.288219,-4.194258,6.55634,-2.417973,17.91596,3.861677,20.80529,10.96204,24.00891,17.06997,27.38672,22.92703,31.84751,-1.169856,26.82437,-7.470794,13.40063,-15.55086,-0.3130936,-25.32094,-14.84422,-20.86323,-21.88869,-23.47491,-23.74075,-24.23673,-24.02599,-9.784406,-20.89308,-5.546777,-14.23163,-1.225771,-7.234291,2.960929,-16.40469,-13.92631,-21.84805,-25.12857,-32.62115,-37.2459,-44.54895,-41.68538,-45.23118,-45.8511,-46.46316,-45.33784,-44.97862,-29.07001,-39.99869,-23.24323,-31.44588,-16.77354,-23.68571,-11.19094,-14.75598,-19.20015,-28.32893,-22.37791,-34.6168,-31.73452,-42.21266,-40.57325,-50.60213,-33.82658,-50.81638,-32.45654,-46.7567,-30.67252,-40.49129,-14.41586,-32.41463,-6.886161,-20.95461,0.3157641,-10.39605,-9.933075,-15.61326,-19.84221,-22.28957,-28.28241,-30.81498,-33.21455,-26.2064,-33.624,-24.92866,-29.48408,-20.89553,-24.45965,-14.65573,-13.02836,3.269814,-1.232027,15.26718,13.27728,22.40329,14.26648,25.13432,10.99277,13.70862,7.64031,5.262606,-0.6084944,4.93252,2.242849,4.312781,4.9707,8.149914,9.596138,13.32858,16.05316,21.06339,38.00331,31.96633,49.77494,46.6159,47.91984,50.48365,49.21592,48.42603,32.29625,41.1343,23.31491,28.27106,11.66926,30.41704,6.84279,25.42572,6.898938,23.06516,7.949484,21.95467,23.57499,23.81414,28.50371,29.49355,32.8343,34.50493,39.06674,23.3296,22.73583,17.12537,12.14873,6.52571,1.250108,-5.51831,-11.18047,-1.118897,-15.83714,-4.568528,-14.10649,-4.405831,3.059808,-0.6199118,10.80872,8.659909,19.28368,17.11306,28.17003,10.20922,14.23381,7.724171,6.455647,0.01056391,-1.357007,-7.420317,-10.57548,-16.693,-4.896329,-18.55522,-5.746045,-15.86529,-4.233892,1.760642,0.009103833,8.809843,8.153495,14.01074,16.67506,20.86321,23.73626,11.95908,10.12466,6.514774,1.418231,-3.462605,-8.906153,-13.57718,-11.88797,-13.29026,-14.49745,-13.16813,-13.73059,-11.9665,-10.25991,-7.620139,6.493485,-1.221268,14.47823,10.2028,22.65239,16.12717,17.14841,14.48528,2.829961,7.944172,-4.98419,-4.009185,-14.95875,-10.5865,-13.47285,-15.70822,-14.36543,-15.93483,-13.74839,-13.4955,-11.47483,3.12304,-5.673233,9.918011,5.253902,17.50778,15.0351,8.790818,15.65529,-6.236165,8.123232,-13.38574,-3.730187,-22.34427,-16.42479,-15.90952,-21.47629,-16.23723,-20.30642,-14.78693,-17.55358,0.8284738,-10.43849,6.94831,-0.3796421,13.56735,8.894813,4.355078,9.341658,-12.14181,2.150244,-19.85065,-9.641573,-29.22644,-22.55373,-23.10738,-27.75937,-24.24467,-27.10037,-23.16929,-24.18733,-20.54994,-7.741682,-13.01973,0.8381515,-2.868585,9.124764,-9.973914,8.431363,-10.50154,-11.87257,-17.64742,-22.60407,-30.44736,-34.41059,-24.9685,-39.32085,-27.59974,-38.01146,-27.61551,-35.62391,-26.20104,-16.56934,-20.31793,-8.855366,-10.76171,-0.3575175,-1.039847,-8.492849,0.2029048,-10.62276,-18.80132,-15.93457,-29.70689,-27.69537,-40.20358,-40.94936,-36.26138,-45.55991,-38.59011,-44.94401,-37.73408,-42.332,-35.33461,-23.80899,-29.17036,-15.3864,-19.06028,-6.936798,-8.151174,1.427854,-12.96272,-9.942793,-13.60015,-15.59996,-19.00766,-20.81248,-25.60695,-25.2799,-18.67976,-24.36993,-16.1505,-19.48947,-10.90058,-13.00729,9.331241,-2.998845,18.861,11.24427,29.23973,24.1563,40.85281,21.47784,30.46406,23.46899,25.77366,19.35592,20.37126,13.8609,13.91815,22.88741,14.31768,25.69524,19.24116,30.46405,39.32406,37.16748,49.40917,47.24312,58.74246,56.91604,68.28572,51.20665,54.84323,49.99476,46.34748,43.00865,37.36311,33.77608,26.35439,38.1807,22.17862,34.84147,23.01504,34.04437,25.3592,36.24071,30.15444,54.01105,38.55356,61.23852,52.06648,70.37345,48.48939,70.11965,49.33602,63.90161,32.58292,54.36548,25.22771,38.99357,31.33795,32.85309,31.0008,33.58895,32.39055,34.30684,36.04261,38.49904,41.20656,45.12529,61.59467,54.97892,55.59582,58.59024,54.90991,54.50577,48.75633,42.54707,28.8307,28.64051,13.23348,26.47601,4.271861,18.51629,1.061443,12.27946,-0.8452419,8.732028,-1.089667,8.046228,3.289697,19.53856,9.042551,25.16905,0.9467638,22.08821,-2.878107,11.57997,-15.81581,-10.47731,-28.55735,-29.60921,-29.13009,-40.05577,-35.80293,-44.01998,-40.45591,-45.40188,-42.42251,-44.20707,-40.8553,-40.71706,-22.7256,-33.24087,-12.90583,-37.41495,-12.24855,-36.00004,-17.90912,-38.93555,-39.03949,-46.76979,-51.49,-42.89002,-55.38946,-45.25892,-53.39928,-43.81675,-48.71463,-39.14649,-41.59847,-31.87042,-21.70272,-18.30619,-8.11871,-19.82836,-3.286591,-16.46492,-6.593011,-18.06448,-25.68319,-25.80145,-36.38677,-23.4274,-40.58319,-26.63015,-40.74555,-28.39044,-39.46659,-27.69669,-35.47092,-25.22298,-29.23823,-5.472817,-19.96715,5.30532,-6.124582,16.02577,-9.032531,18.30459,-5.227741,-0.8818164,-7.355276,-9.062559,-16.33491,-18.51862,-25.63335,-12.81881,-28.44747,-14.23444,-25.9572,-13.78719,-22.02931,-11.36446,-16.93125,-5.778324,3.323034,2.105117,13.81091,14.97825,23.99665,10.86997,26.64808,10.89221,8.025156,5.968344,-1.228512,-4.895704,-8.17451,-2.427061,-11.38466,-2.874986,-10.16067,-2.618973,-7.446523,13.45241,-2.534462,18.75574,6.601339,24.26702,15.13802,27.78162,9.391487,10.92793,5.824564,0.07957175,-3.793356,-9.303689,-15.85168,-14.34633,-14.92059,-18.30417,-15.87414,-18.56171,-1.039228,-15.5738,3.017239,-9.119795,6.230031,-2.28971,11.33686,5.31791,3.615518,-2.886274,0.7382942,-6.741621,-5.027651,-11.43591,-10.77223,-17.2708,-17.88048,-8.055687,-17.03879,-5.906423,-11.56261,-1.873133,8.48035,5.400347,18.21201,17.61902,28.59979,29.38055,40.21267,15.13591,41.3713,15.79758,35.81205,14.95397,29.48647,12.28086,22.65616,23.61174,22.8923,27.57328,28.95138,32.85307,49.48946,40.46129,58.20118,51.386,66.38372,60.52404,73.96629,70.46478,50.94217,69.61637,46.16305,58.73991,38.4876,46.84235,28.64274,32.0701,32.99309,23.84998,27.80122,21.2425,24.08788,31.73365,21.28663,31.33453,22.30398,29.58971,23.19819,28.44775,22.4313,17.35437,22.66184,0.765715,14.09294,-6.778295,1.722162,-15.24168,-10.93754,-26.51474,-24.80171,-21.95296,-31.04946,-20.97721,-21.73512,-21.0038,-17.66517,-17.14536,-15.18957,-13.81992,-11.19481,-14.12312,-31.02515,-18.06356,-37.71352,-28.3389,-44.70587,-38.01405,-52.82429,-49.11252,-45.46983,-51.84733,-43.86855,-48.93273,-33.35094,-37.56313,-26.59163,-27.63183,-18.33405,-18.49946,-7.958451,-25.01622,-6.226375,-38.1489,-12.16819,-42.56082,-23.28995,-50.30806,-36.23618,-42.87918,-42.63064,-43.34512,-43.06885,-42.78251,-36.61117,-33.53463,-33.64833,-28.39813,-28.76912,-24.69118,-24.69655,-20.16041,-30.35381,-34.4303,-33.23975,-41.91185,-41.51094,-49.84094,-50.86587,-59.30188,-45.56538,-61.36106,-45.68162,-57.35822,-41.05172,-40.28681,-34.90459,-30.62452,-24.64342,-20.53005,-14.51854,-9.355172,-16.03934,-15.69133,-13.57101,-16.54475,-15.95296,-18.96328,-17.76312,-22.50868,-22.32535,-10.47654,-20.13615,-7.480772,-13.18589,10.99294,-3.194683,20.19503,9.696305,28.56916,22.52289,37.86784,35.26114,34.50193,29.65106,35.24384,27.8814,31.63327,25.0914,25.0448,20.07603,18.82648,27.82191,17.50804,29.07641,34.25533,31.7183,38.82891,37.3696,43.0847,41.10368,47.67369,42.84664,40.76848,42.29926,28.66763,36.61585,21.6786,27.00813,12.6762,15.14969,2.102686,8.517757,1.804558,4.138297,11.63022,3.658218,12.44909,6.498193,12.62587,8.42514,13.93656,5.656595,8.871267,8.63812,1.056669,2.880989,-2.238525,-2.513433,-6.107507,-7.0312,-11.28954,-12.67563,-18.30088,-2.966191,-7.092562,-2.083518,-1.746367,3.172264,2.492427,6.933581,7.803748,6.715827,4.264294,11.50952,2.340515,3.704973,0.9584591,-0.4953675,-4.25142,-6.03163,-10.42309,-14.22939,-3.754886,-13.36327,5.723306,-5.143793,9.52785,1.437162,13.97423,6.800631,18.37568,12.61506,10.91674,16.35847,12.16572,5.102531,9.469533,0.9391419,2.878981,-5.190134,-4.56197,-13.57877,2.139145,-14.91262,4.529395,-2.162643,7.051052,3.824222,10.93651,8.91857,14.04332,13.45128,8.447484,15.18303,13.64681,3.524998,11.74969,0.485164,6.389991,-2.884705,-1.436187,-8.046874,-10.61712,0.6644644,-11.93546,14.32643,-6.95051,17.72062,1.163022,22.25395,7.364298,26.02972,14.59212,30.70899,8.661216,18.04289,7.088595,11.60575,1.018454,4.285557,-5.148203,-5.552471,-9.987601,-0.1179072,-11.48001,1.881291,-7.757675,17.41491,-1.889865,23.63102,7.97649,29.06768,16.91827,34.9861,24.4192,12.71124,24.06326,7.880966,15.09185,1.432802,5.400115,-6.704922,1.969718,-2.728488,0.623456,-1.278137,1.213418,1.547348,17.41053,6.402743,23.60974,15.38086,30.66602,24.08101,36.18715,3.806008,34.50815,0.3728489,24.72827,-3.406067,14.76223,-10.20533,9.895372,-4.298347,6.919422,-2.011745,8.842073,15.07683,13.04002,22.4695,20.77806,28.6063,28.83419,34.4813,36.2602,15.81169,31.50741,11.34387,21.93721,5.142641,11.85262,-3.233224,0.4634999,0.91117,-2.101121,-0.7233811,-1.938266,0.2122637,12.74606,3.26609,17.83636,9.095527,21.88501,15.30472,25.33949,17.33287,2.485784,12.8222,-6.195218,1.00877,-15.85768,-11.84518,-28.05356,-13.25994,-30.47468,-18.96213,-30.99583,-21.02707,-16.90599,-19.41248,-13.18696,-14.09823,-9.048225,-9.029162,-4.185231,-3.409477,-27.56859,-6.449008,-32.64947,-17.28196,-39.45744,-26.94863,-47.36973,-38.73892,-56.17596,-35.14813,-58.11512,-37.63752,-42.32197,-36.92285,-36.57328,-31.84529,-30.90896,-27.3283,-23.71079,-20.25659,-16.99567,-25.55863,-26.27094,-26.62764,-32.00508,-32.61046,-37.9611,-39.45047,-44.95203,-47.17595,-37.35656,-48.91281,-37.06421,-32.23331,-33.43959,-25.93653,-26.37134,-20.8831,-21.63417,-16.12832,-16.65449,-23.92489,-11.21524,-34.42657,-14.31508,-36.49551,-20.4648,-39.83976,-27.38294,-45.50638,-18.81882,-43.48224,-17.20429,-22.66316,-12.67787,-12.66055,-3.49538,-3.048823,5.596697,6.7399,15.20319,3.74958,8.564888,4.243282,5.836516,1.771411,2.250547,-1.995635,-3.25685,-7.565158,7.05254,-6.165952,9.024483,0.3898701,13.53881,19.88311,20.99345,29.65301,31.6638,38.29125,41.25065,48.60478,38.74942,41.8948,39.77445,38.2051,37.60121,33.6373,32.58041,28.95347,25.75454,38.60357,25.55019,40.26659,42.84569,44.10511,49.73687,51.05116,54.1594,56.44565,58.00944,60.4426,60.23607,37.46416,54.99341,29.34819,42.3274,19.24649,28.98598,7.683837,13.60374,10.41391,5.48422,5.936931,2.441206,11.42163,7.579832,12.50516,11.01161,14.58686,15.21688,17.86329,19.53877,2.451094,7.300593,-3.426182,-2.933438,-11.53271,-11.94365,-20.95814,-21.65147,-32.53372,-17.00537,-35.9477,-19.41107,-33.23277,-7.976996,-25.07035,-3.400946,-15.82831,2.06036,-6.565588,8.742398,3.430194,-10.44682,2.180973,-13.25074,-4.997625,-17.85528,-11.40176,-23.68808,-19.83874,-13.6115,-20.01116,-10.89963,-14.64985,-6.28377,5.594771,0.6441484,15.54217,12.37413,24.88154,22.94965,35.90877,16.91673,24.38986,15.63752,17.48786,9.010898,9.20521,0.534314,-1.432102,6.69691,-5.515105,6.047894,-5.168382,4.682721,3.891821,11.5507,7.680007,15.70388,11.49406,18.40633,15.14194,21.90345,5.28512,8.770869,-0.6551931,-1.380111,-10.14356,-12.32095,-20.16132,-25.11852,-15.71636,-29.27824,-17.80241,-27.04071,-7.816665,-19.34503,-3.03314,-11.34416,2.43659,-4.223181,8.59203,5.169068,-14.49717,4.867284,-19.87055,-4.697562,-25.02389,-14.88932,-31.08482,-24.82176,-36.74747,-21.59623,-38.25006,-23.17353,-35.52955,-8.899941,-30.93933,-5.031672,-22.94459,-0.4834385,-15.20074,4.379626,-6.894806,-12.84137,-10.98552,-17.74927,-18.1299,-23.84418,-26.53818,-31.36092,-35.83072,-36.27153,-31.81009,-39.12061,-31.75239,-38.45042,-14.66971,-34.1773,-11.13346,-25.80511,-6.925425,-18.45468,-0.8974754,-9.688669,-7.935978,-11.9912,-24.20199,-18.67349,-34.05015,-31.47106,-44.62009,-45.08268,-43.53125,-50.24837,-47.61893,-51.64412,-48.42626,-38.16155,-46.09081,-34.11552,-39.84345,-29.81614,-33.49329,-24.98448,-25.85908,-49.12975,-26.85689,-53.75314,-36.70559,-58.04493,-45.35526,-63.8096,-54.56951,-54.90214,-55.20126,-51.70446,-50.17753,-46.31491,-29.66527,-37.09499,-18.79382,-23.76705,-8.538106,-9.802973,4.191022,-4.60282,-8.250341,-0.4123904,-9.653263,-3.184544,-11.4381,-6.595965,-14.45592,5.195176,-10.82096,10.26534,-1.904334,17.69194,9.677681,39.32701,23.11318,52.5894,39.45679,65.18323,55.39386,64.47958,59.7092,53.82436,58.93647,49.5365,53.05291,43.38299,44.34697,52.91235,41.38563,54.26237,44.42484,56.49593,48.71461,72.57917,55.13424,78.1356,65.30508,82.94846,73.83611,89.27377,63.61299,74.62365,58.21273,63.37471,46.52832,49.9565,33.99676,35.47468,37.94567,28.2055,35.27005,28.73234,34.77971,31.70241,37.09009,37.05273,56.0954,44.98924,67.19054,58.4212,79.10686,54.22894,82.53199,57.01064,66.70997,56.2268,60.68695,49.72031,52.52132,41.25813,43.26087,46.82399,39.74273,45.58789,42.00904,46.1066,58.34857,49.90004,64.69283,57.09652,70.43042,63.87304,59.28812,50.9261,49.70803,39.30271,37.22759,26.08774,22.50709,10.8539,22.37201,3.114372,15.03006,0.8342208,9.752684,-0.8491491,20.04034,0.1841673,20.74059,4.531002,21.55385,8.065845,23.50661,-4.023932,3.691753,-11.17462,-10.77428,-22.75868,-24.56905,-36.20953,-39.50547,-34.32266,-46.29995,-38.66606,-47.5779,-40.01402,-46.10731,-26.18212,-42.0637,-20.57752,-34.132,-14.06207,-25.5945,-7.443924,-32.19995,-21.09816,-34.21772,-28.36812,-40.93196,-36.35122,-48.1398,-44.49532,-41.0258,-45.34523,-38.70107,-42.04457,-34.46143,-23.47383,-28.13654,-13.70728,-17.65143,-4.74552,-7.735991,5.321974,-14.64573,-7.713825,-16.27365,-16.20079,-24.18864,-25.78772,-35.2783,-36.56956,-32.52528,-41.58472,-36.10332,-41.25351,-35.45602,-25.88657,-31.9359,-20.34901,-25.27688,-15.61242,-19.62027,-10.67802,-14.1153,-4.359586,-20.85943,-15.31898,-22.1283,-22.74737,-28.33023,-29.28478,-35.20707,-37.0387,-44.13147,-29.57719,-45.81382,-29.95467,-41.00976,-26.98765,-22.87557,-21.81779,-13.514,-12.69634,-4.106086,-2.318132,5.610993,-9.650446,-5.051675,-11.99922,-11.8252,-19.40448,-19.87882,-27.46833,-16.832,-26.79634,-16.59859,-23.73262,-14.79976,-18.51235,-5.402749,-2.656185,2.250578,8.369721,12.31062,18.69622,23.12833,11.73226,13.27452,9.464816,6.222183,3.038247,-1.437169,-5.208693,-11.02059,0.9549794,-13.22046,0.4049772,-10.51028,1.595067,-6.957092,16.91405,0.2643116,22.97624,10.11891,28.74173,18.91171,35.13278,11.82029,19.165,9.358068,9.358104,0.2005949,-0.5179637,-10.45824,-12.0996,-5.832768,-17.29577,-8.623083,-16.46954,-9.546762,-14.53663,5.077749,-10.08454,10.16683,-2.485979,15.23936,5.245559,4.548535,3.94855,-13.81553,-5.239047,-23.20033,-17.91704,-34.59413,-31.43519,-30.49001,-37.35598,-33.08978,-37.13778,-32.63633,-22.88783,-26.00771,-16.53405,-17.58147,-8.836208,-9.850003,-1.809087,-18.02636,-14.6583,-23.43626,-22.87702,-31.69322,-31.81848,-40.85129,-41.79957,-52.2425,-36.34089,-55.2446,-38.63955,-52.89161,-24.84216,-48.61976,-21.14192,-40.18693,-16.62067,-33.20206,-11.92596,-24.4763,-19.14515,-16.63976,-28.86798,-16.83559,-31.11949,-19.72484,-33.01019,-24.6602,-36.44749,-29.3642,-26.18119,-28.67148,-14.38394,-15.77323,-7.019941,-5.773443,1.988731,3.605195,10.11629,12.56582,11.15114,17.71676,13.73726,13.15555,14.28013,11.93008,12.09649,9.464659,8.392331,5.415893,18.0355,7.872109,27.12369,21.99876,33.69667,31.0461,41.43845,39.56272,47.69806,47.9677,45.30033,51.69647,52.30693,42.0767,51.62829,39.7392,46.67919,36.32403,40.06639,30.34541,31.19327,39.47983,27.99395,53.57053,30.72202,55.39821,35.98464,55.92149,39.84677,56.70349,32.02581,58.69417,35.78311,60.94971,27.59816,59.11854,27.3963,52.57384,25.10208,46.42973,21.35534,38.06498,44.86459,38.11461,48.53474,44.22122,52.02801,48.89898,55.28753,53.81553,45.98201,59.26469,49.34992,48.58763,45.62639,43.35688,39.64083,36.04876,32.07259,27.35535,22.32655,31.3091,32.20947,30.78892,33.93426,32.95727,35.20094,34.11402,36.30985,34.70686,30.91016,29.49207,32.20467,13.39374,25.45073,6.700562,14.36127,-1.377474,2.779614,-11.52745,-9.700303,-7.313721,-15.55675,-9.58561,-3.795631,-7.807057,-1.500372,-3.209556,0.7535554,0.7842194,3.688909,4.62136,-4.1607,0.1096648,-12.19204,-5.514922,-18.63357,-12.90402,-26.04569,-21.4697,-34.4132,-20.53712,-32.87437,-21.67691,-29.72335,-6.161397,-23.00461,-0.6925261,-13.26146,5.405119,-4.430235,12.12442,4.908455,0.05263475,0.6519928,-2.751147,-4.247165,-7.976353,-10.02138,-14.58684,-17.73336,-11.10827,-16.04645,-11.68582,-12.96152,4.043357,-8.085419,8.960685,-1.35743,12.68904,4.699498,16.08804,-1.914117,17.20679,-15.52091,10.625,-20.54884,0.3032691,-26.6373,-10.33101,-32.93591,-5.871948,-34.48803,-6.804416,-17.11735,-5.83605,-10.4192,-1.536661,-4.718269,3.7503,0.6130291,6.383059,-3.670837,-5.360136,-7.521323,-11.78168,-14.93332,-19.2878,-23.19247,-27.75769,-33.35465,-21.20724,-36.4897,-21.88123,-23.2436,-17.98787,-16.7309,-13.26362,-10.66506,-7.626711,-4.845085,-1.640162,1.815316,-23.52388,-0.9655157,-28.38085,-10.72991,-34.43825,-20.20197,-41.87107,-31.18072,-43.12221,-30.69442,-43.93343,-31.90201,-41.11285,-17.20295,-35.93565,-13.01091,-27.51286,-8.463393,-20.05045,-3.999602,-12.4998,-10.97325,-20.68241,-14.31988,-25.49776,-20.34038,-31.40995,-27.86949,-38.1877,-36.79943,-30.15797,-38.93298,-29.69637,-22.55164,-26.04592,-16.7951,-19.44451,-11.83788,-13.21345,-6.327493,-6.794055,0.0687966,-13.16136,-9.279994,-16.92265,-13.95551,-23.08602,-20.94914,-28.90251,-29.36679,-36.98738,-21.69725,-39.82022,-21.58707,-35.97207,-6.804961,-30.04022,-1.829227,-21.28109,3.019235,-13.04178,7.94699,-4.788603,-16.18042,-5.914123,-22.71231,-15.20288,-29.45371,-24.99061,-38.3297,-20.41659,-38.19915,-20.71572,-33.52617,-4.833197,-26.17649,1.124918,-15.68022,6.031622,-6.649664,12.43279,2.850759,-11.16485,2.577084,-17.31845,-5.790196,-23.5962,-15.84841,-31.69935,-24.47987,-26.44087,-27.16879,-26.08465,-13.7708,-21.6373,-8.403879,-14.47798,-3.275483,-7.662917,3.501248,-0.6166509,-2.25182,-6.260323,-5.465851,-11.03446,-9.476236,-15.68105,-15.1485,-21.45522,-22.274,-28.55393,-14.20026,-29.27339,-1.331585,-21.91413,3.301352,-13.37705,8.015426,-5.708895,13.62522,2.526736,5.671178,11.81957,11.83175,2.266255,13.14802,1.087502,10.67169,-0.8474734,6.734941,-3.524543,1.249567,8.542276,2.38747,27.45965,9.912371,34.72809,20.90735,41.78451,30.61379,49.07601,40.30622,43.57097,50.13686,34.40025,49.79256,33.17122,45.95566,31.00411,40.64217,26.9524,33.74124,19.58673,41.46391,31.57605,43.38803,36.32273,47.68952,40.5858,49.14605,45.39649,49.88484,33.78004,52.53343,35.14915,52.86994,24.44286,48.85467,21.80644,42.77989,18.09525,35.6685,13.84819,27.34876,23.70389,26.3286,40.7557,31.04731,47.47603,39.64005,54.22311,47.6182,60.6845,56.68503,53.72287,47.86656,50.10908,42.58587,42.17262,36.60224,33.74887,28.85399,23.20455,34.87915,20.07504,33.55787,35.28995,34.57311,40.61111,38.87585,45.98847,43.22632,49.01922,48.42873,25.04537,42.94236,17.31487,30.30874,8.388615,16.86426,-3.689082,2.782233,-0.9067339,-4.525742,-4.833186,-6.28442,-7.050548,6.089061,-6.296581,8.68129,-0.6722724,10.21981,4.353589,13.7805,-4.964337,2.065771,-17.77598,-9.194086,-28.72649,-22.66775,-41.08139,-37.44122,-37.46329,-45.10352,-39.95483,-46.3594,-40.08072,-44.22327,-37.69525,-26.9988,-31.98187,-18.24583,-21.84887,-10.55014,-10.81079,-18.6789,-9.395839,-33.46899,-14.47894,-41.1432,-24.77171,-48.48684,-36.67427,-40.79712,-39.89533,-39.11233,-37.44226,-34.99968,-32.61974,-16.56427,-25.10491,-7.45926,-13.95556,1.718716,-3.483015,-5.757287,-10.6094,-13.59763,-19.05712,-22.81618,-29.04432,-35.28311,-40.66042,-31.51748,-45.98019,-33.95136,-44.99628,-33.94056,-39.26678,-21.84654,-34.26214,-15.82798,-27.37194,-10.408,-20.15453,-4.402373,-15.14374,-25.18603,-15.69388,-31.05419,-24.17347,-37.0421,-33.51721,-44.2682,-44.82302,-36.61239,-34.80438,-35.12391,-30.34266,-30.19479,-26.28228,-25.56835,-22.33868,-20.68399,-17.44211,-14.51894,-10.67871,-24.0083,-10.55239,-27.52852,-16.5891,-34.2346,-25.20944,-42.33741,-37.47445,-36.15868,-41.98085,-38.17647,-42.13382,-38.78412,-40.40309,-36.82426,-37.96342,-32.61637,-32.67072,-26.48921,-24.50356,-16.81689,-30.24999,-13.15768,-27.59454,-15.10446,-25.99093,-18.09629,-26.97426,-22.12424,-23.58178,-15.61809,-19.47639,-10.92595,-13.05042,-3.664999,-4.610296,5.478469,6.141935,15.48288,19.57223,15.71083,32.46537,28.62299,29.95311,37.35358,35.91727,41.89564,41.71466,59.12927,45.10972,63.06799,64.55261,68.89404,75.02978,78.36029,83.96535,88.33927,93.97229,97.25269,102.9715,106.5705,112.4352,115.3392,105.4108,116.2039,102.8006,109.8524,95.73401,99.25398,84.17502,95.3801,80.74199,87.86708,75.9238,82.18744,71.24947,77.23303,67.34496,72.97214,65.20979,70.65011,64.53566,66.11922,38.44978,57.00833,27.7879,42.43099,17.36246,27.95891,6.342707,17.50362,9.231854,12.24914,8.338794,13.73085,10.76804,18.14183,16.75686,26.42438,27.23139,21.32025,32.04889,25.17994,34.41445,28.87587,36.12439,31.71271,37.34879,33.88181,37.99282,35.76743,37.91994,35.57738,37.65655,35.15341,36.32479,33.53548,34.78219,31.37694,31.27488,29.11991,27.82452,24.97032,23.01878,19.63456,30.28411,14.27679,25.07727,8.691157,17.32446,0.1215638,-5.766,-11.15006,-19.70855,-26.24461,-32.89431,-39.54918,-45.51554,-52.72574,-58.82378,-64.49967,-70.87299,-76.71389,-83.39911,-88.44722,-95.77794,-100.4358,-108.9852,-113.2647,-121.9509,-127.4237,-106.416,-131.2228,-107.2784,-126.7261,-106.0541,-120.3649,-113.9801,-111.529,-123.8951,-109.1327,-121.7902,-107.5134,-115.9985,-102.3228,-107.5655,-94.34814,-97.34198,-84.76863,-85.66157,-73.2721,-72.8198,-61.71821,-59.23693,-48.68761,-33.15468,-33.47643,-18.24482,-17.54059,-5.417723,-4.172659,5.053381,-7.8392,12.58097,-2.667679,14.67827,2.507895,16.10683,5.628267,14.67383,5.476843,11.4248,2.561839,5.825833,13.26044,6.094658,15.70916,10.04428,17.9527,14.36378,20.13138,31.13721,22.15668,35.30065,26.36729,35.40343,27.72913,33.95077,13.51982,30.06653,9.214183,23.3647,6.395881,17.61057,3.534927,12.57561,1.247617,8.882186,-0.3159205,6.064747,-1.521207,3.275001,-1.712825,3.36933,11.51204,3.962056,15.27438,7.730582,16.36079,10.58022,17.69907,-0.9998675,16.10777,-0.7346723,14.45148,1.798302,-1.456764,-2.105338,-9.846546,-10.68828,-19.9127,-21.57466,-16.2277,-26.29828,-19.91087,-15.18472,-19.65405,-13.70227,-17.56523,-13.95576,-16.96196,-14.86381,-16.85466,-30.11935,-17.47909,-32.45267,-19.8029,-31.34829,-18.4246,-27.3492,-14.13213,-19.49461,-24.43577,-18.16806,-27.15239,-23.25111,-31.15302,-29.8701,-21.44629,-28.82657,-6.811849,-23.55076,-1.150146,-15.55379,3.26936,-9.405539,7.017892,-17.02187,9.880771,-13.35172,11.48238,-7.042269,16.26058,2.367777,23.92215,13.70738,18.76308,17.7088,19.11061,17.17262,16.6277,26.28316,11.21942,36.71764,12.01215,36.59488,14.02287,33.51445,3.329395,26.55991,1.798684,21.39261,2.459886,18.91866,5.774508,18.7569,9.929649,21.98074,16.44506,27.69435,24.01186,35.93063,30.19227,38.14617,30.92548,35.96956,27.09562,28.7173,17.78414,32.97696,-0.438398,26.58841,-4.078328,18.98161,-6.082016,14.50741,-6.095801,12.96016,-3.605497,13.93735,1.16766,17.73516,8.765553,25.71034,17.595,31.85235,20.86071,32.71936,20.64279,28.44083,15.33404,19.57797,7.695259,15.25303,3.377498,10.69604,1.463879,10.07326,2.529544,12.24354,6.053851,16.39501,12.67225,22.68936,22.09066,31.97991,32.14641,34.70265,35.93492,34.4511,34.39139,30.19894,27.89657,18.94451,22.04998,12.92981,16.08089,9.26289,12.80215,6.899431,11.59333,6.581127,11.79437,8.152698,14.09955,13.19663,18.88525,33.46545,26.37636,44.14699,36.2587,37.81484,38.91057,34.94785,33.54244,14.1553,24.32074,1.120631,25.64307,-4.541485,19.54794,-5.570285,15.80176,-4.871738,14.9658,-0.8954148,17.3723,5.351956,22.81496,14.25364,30.78155,26.16097,24.67116,44.45281,26.21043,45.51926,26.87199,41.54578,22.95978,45.6732,23.62606,30.45841,23.80609,27.11993,22.39313,25.50196,23.69383,27.57337,26.41648,32.01789,32.1957,38.84797,40.29022,31.29379,41.47933,30.34781,50.49588,27.11106,44.63912,22.8809,32.82969,28.43351,25.64928,19.55871,11.18442,13.72087,3.052195,6.949491,-2.341664,2.580639,-5.416016,0.5594783,-5.529732,1.370123,-3.625964,4.487756,-15.85816,0.9394157,-7.622024,-7.78879,-13.39927,-16.62059,-25.03718,-13.93919,-32.30298,-21.09964,-49.60987,-28.03473,-56.08657,-35.45151,-59.69882,-39.72026,-59.87066,-41.2475,-56.09404,-38.88388,-48.92619,-49.25928,-47.61495,-52.11382,-37.45511,-54.93391,-41.08178,-58.75308,-47.4013,-51.23035,-50.1985,-64.88901,-51.17922,-66.73501,-52.67976,-65.78716,-50.74754,-60.97426,-46.79121,-51.14068,-38.347,-39.12878,-30.38613,-33.43371,-27.68053,-32.49185,-29.98676,-38.26393,-37.88474,-48.47657,-47.986,-56.50036,-56.29855,-64.1242,-62.39178,-68.86632,-65.58865,-70.75509,-66.11901,-70.19064,-64.41116,-67.37065,-60.87773,-61.1921,-41.2149,-51.68036,-30.52122,-37.59511,-35.41622,-32.49679,-35.02201,-34.25264,-52.33229,-39.87613,-60.87061,-52.18208,-53.43361,-55.65758,-52.75907,-52.70712,-49.66224,-47.64469,-44.52627,-40.33743,-36.40187,-31.43098,-13.0606,-18.99536,0.7135421,-2.107798,14.84833,-2.82424,20.36392,-11.45128,17.47653,-13.13938,9.574881,-17.75369,6.50729,-10.18832,5.562035,-5.850707,8.482334,0.5967314,13.32211,7.995858,25.60032,24.18452,35.7615,36.16746,46.7793,47.89922,57.89878,41.90487,48.69251,38.59148,40.71554,31.24061,31.46338,21.462,19.78455,26.26604,14.74418,23.50079,14.48447,22.68099,14.4721,23.54151,29.48624,26.53409,34.59654,32.42998,39.09821,37.98351,44.24365,18.73836,34.72477,11.33704,22.67414,1.561184,9.426707,-10.01746,12.92662,-13.46239,10.71184,-11.32494,11.39081,-6.053487,26.68961,6.414305,34.23495,18.08186,43.15162,13.51537,43.606,12.9893,23.47727,8.405816,12.23589,-2.242346,-0.774097,2.51678,-6.683307,0.3020606,-6.594026,0.1674966,-4.640489,1.871461,-0.4806052,19.52225,6.430171,26.79477,17.26922,35.37432,27.15509,28.12179,15.48217,25.1566,9.286608,16.12245,2.441095,6.399916,-7.105776,11.89833,-10.71514,9.955424,-7.276993,10.12837,-2.607467,13.15137,16.61091,18.63312,25.53876,28.04484,34.30621,36.91702,43.08068,29.62644,29.20601,26.68927,20.06807,17.54853,9.443925,6.770772,13.57883,2.239336,12.52477,3.040768,13.32188,4.779066,16.22852,8.952813,33.46159,15.8272,41.52917,25.77133,49.36948,29.22082,44.18202,26.10821,27.3797,19.20094,15.3951,7.372241,2.774666,8.278651,-2.014289,4.952739,-2.937843,3.73926,-2.333571,5.272259,-0.2078832,19.45587,7.640328,25.51046,16.5466,33.29283,25.03993,23.95711,20.62798,10.81963,12.97791,1.51141,2.062605,-9.154026,-0.1625173,-9.305572,-3.053404,-8.851731,-2.146301,-5.991976,0.3962011,9.979053,10.6267,19.10108,21.29597,29.32324,31.59486,24.58142,31.67942,9.047668,25.23055,1.188453,13.27354,-7.846314,0.997827,-0.707894,-3.671451,-0.8021829,-2.310209,1.698243,1.332432,6.831232,6.942603,13.94594,14.47258,36.20182,25.44164,48.20336,22.43086,51.25033,23.19837,46.23946,17.83,24.47482,7.708115,25.55991,0.3676032,19.78953,-1.078389,15.62851,-1.454741,13.62176,0.6754604,14.66155,5.429379,18.11451,12.15648,37.50495,21.01624,30.4749,25.1998,27.65397,20.8881,20.39736,7.403409,-0.1352993,-7.258516,-1.379054,-17.56624,-9.057524,-22.09295,-14.55987,-24.60347,-17.54805,-24.70607,-19.20547,-22.95917,-4.917189,-18.40675,0.5883471,-10.32944,-9.804622,-11.07653,-15.87205,-17.91576,-36.70266,-31.31979,-51.08563,-45.55911,-51.64492,-53.78387,-55.87229,-56.65333,-58.19855,-57.20654,-57.40064,-55.1305,-54.55672,-39.08666,-46.18619,-30.64415,-34.5848,-34.22162,-32.54148,-34.61284,-34.84172,-39.57142,-42.04281,-60.77341,-48.00068,-60.38339,-54.43582,-62.29963,-55.22341,-61.51437,-53.28045,-58.04658,-48.38668,-51.16583,-40.42011,-41.03773,-28.19299,-29.15236,-26.90206,-25.41988,-26.50531,-27.87154,-31.99045,-35.53229,-48.05307,-38.54751,-52.9496,-43.82194,-54.39208,-45.84514,-53.37197,-45.58452,-50.15108,-41.41217,-44.52197,-34.85358,-36.13813,-26.05739,-25.04352,-0.9316522,-9.967258,-3.150876,-0.5038848,0.4928215,1.643101,-0.334324,-13.50233,-5.766604,-20.08667,0.01434372,-21.0349,0.04494457,-16.98429,2.022763,-11.44093,6.308261,-3.951396,12.66877,9.730172,29.78205,21.26578,42.57083,35.26246,37.69578,39.93038,37.80546,23.42562,33.03816,15.19564,21.50166,10.88677,23.14613,7.898347,22.66799,8.71546,23.49613,11.6442,26.31662,16.53571,30.44657,36.48809,37.47262,47.1359,32.14633,47.95202,30.87047,42.04407,24.58389,19.27423,14.34116,3.770729,13.20871,-3.597541,7.32279,-6.110137,4.702353,-6.644745,4.826004,-4.146141,8.458803,1.585011,15.10224,24.00175,25.6402,24.31955,31.29062,28.22494,32.59696,27.09706,28.47467,11.15677,20.13874,0.721652,7.04937,5.502191,1.635304,3.555112,1.229605,3.844099,3.334964,6.617051,6.975082,11.54222,26.49548,18.63714,36.03905,30.14884,44.01914,24.56603,44.758,9.770851,38.17072,2.33858,26.2981,-6.595655,19.99509,-4.281718,14.00045,-3.786587,12.61367,-2.45169,13.56999,1.350309,28.55733,6.138682,34.46268,14.71945,39.38844,22.65497,44.78856,0.3393009,40.91325,-3.462404,29.3692,-9.522792,17.55828,-17.19207,21.54222,-18.39775,18.75859,-15.77144,18.0008,-10.8849,31.6924,-4.603739,36.16328,5.609992,39.78313,14.63998,38.30882,5.382639,24.87782,-0.1827022,12.88265,-10.14171,0.2099299,-22.05515,2.827466,-27.1794,-1.890242,-25.88142,-4.275369,-24.57428,-4.024618,