ConstAcc,0.5,0.56926,22.29589,18.10083,14.14045,10.41333,6.917565,3.650848,0.6104586,-2.206715,-4.804163,-7.185733,-9.355621,-11.31835,-13.07876,-14.64197,-16.01341,-17.19876,-18.20393,-19.03511,-19.69866,-20.20117,-20.54941,-20.75031,-20.81098,-20.73863,-20.54062,-20.22441,-19.79755,-19.26766,-18.64243,-17.92959,-17.13688,-16.27208,-15.34293,-14.35718,-13.32254,-12.24665,-11.13709,-10.00136,-8.84686,-7.680869,-6.510536,-5.342864,-4.184691,-3.042674,-1.923278,-0.8327532,0.2228747,1.237824,2.206573,3.123874,3.984769,4.784608,5.519063,6.184145,6.776218,7.292018,7.502801,7.994176,8.086496,7.244532,6.255685,5.952929,5.658124,5.473841,5.155101,4.89587,4.776021,4.579078,4.057319,3.421641,2.829858,2.264411,1.634269,1.026838,0.3216546,-0.3708765,-1.016231,-1.684314,-2.373437,-3.192453,-4.103313,-5.023892,-5.886654,-6.771834,-7.693212,-8.393392,-8.821297,-9.040225,-9.058367,-8.908694,-8.555342,-7.966332,-7.153929,-6.150921,-4.944861,-3.591157,-2.115903,-0.6044698,0.9546261,2.621097,4.447705,6.46173,8.635934,10.88372,13.21937,15.61803,18.02964,20.43662,22.78861,25.0895,27.35503,29.51201,31.5081,33.34526,34.99565,36.4205,37.57109,38.36564,38.91869,39.19282,39.18521,38.86709,38.21149,37.25369,36.04539,34.5685,32.77541,30.69732,28.40791,25.96661,23.45446,20.94418,18.47577,16.10328,13.84985,11.76324,9.813849,7.990588,6.321169,4.781728,3.37623,2.086185,0.8900604,-0.2341543,-1.20329,-2.033186,-2.727501,-3.385629,-4.110423,-4.846518,-5.628864,-6.483043,-7.432736,-8.46283,-9.512474,-10.56669,-11.64945,-12.75819,-13.87221,-14.97536,-16.03964,-17.04639,-18.06307,-19.1164,-20.17276,-21.07626,-21.76771,-22.25789,-22.47668,-22.36147,-21.94466,-21.32884,-20.4959,-19.58403,-18.72395,-18.07064,-17.60586,-17.38374,-17.38986,-17.58504,-17.93722,-18.50328,-19.23172,-20.10528,-21.16744,-22.49054,-24.15106,-26.0504,-28.00302,-29.87733,-31.47293,-32.66576,-33.40801,-33.66234,-33.41831,-32.70028,-31.57499,-30.12029,-28.39825,-26.44119,-24.29362,-22.05109,-19.87983,-17.8892,-16.04963,-14.31093,-12.58242,-10.77702,-8.693329,-6.247802,-3.401622,-0.1955768,3.382631,7.239563,11.35412,15.66278,20.12107,24.63553,29.15157,33.67853,38.14784,42.36679,46.24743,49.78329,52.99401,55.87361,58.34543,60.51755,62.37221,63.68071,64.66598,65.28014,65.45731,65.17267,64.45328,63.27492,61.6672,59.73988,57.3354,54.26081,50.77618,47.21804,43.66751,40.17598,36.83473,33.64851,30.52008,27.42766,24.29003,21.13688,17.97195,14.7242,11.39638,7.906177,4.309451,0.5722497,-3.292759,-7.306053,-11.47272,-15.73116,-20.06237,-24.39292,-28.73902,-33.00824,-37.15163,-41.17442,-45.05762,-48.79954,-52.33064,-55.57983,-58.54139,-61.23708,-63.56379,-65.41772,-66.86643,-67.9377,-68.68316,-69.14184,-69.26072,-69.13957,-68.88784,-68.43384,-67.89613,-67.52275,-67.33247,-67.28705,-67.26185,-67.31663,-67.49095,-67.76283,-68.18647,-68.85572,-69.78765,-70.96813,-72.33117,-73.77428,-75.09295,-76.01068,-76.51538,-76.61558,-76.37193,-75.80419,-74.95321,-73.95891,-73.0167,-71.88796,-70.58557,-69.28508,-68.10922,-67.1961,-66.60203,-66.46062,-66.72968,-67.24028,-67.81419,-68.3689,-68.61129,-68.49894,-68.04498,-67.27391,-66.39825,-65.48757,-64.64502,-63.87759,-63.28412,-62.81406,-62.44746,-62.24239,-62.11124,-61.9416,-61.77949,-61.60219,-61.40958,-61.15352,-60.97458,-60.88886,-60.83496,-60.61377,-60.34113,-59.92995,-59.20358,-58.32542,-57.32918,-56.26708,-55.21834,-54.34908,-53.56849,-52.87695,-52.31474,-51.63656,-50.44074,-48.67985,-46.58492,-44.28223,-41.76307,-39.12675,-36.39292,-33.63441,-30.84753,-28.03939,-25.29818,-22.62756,-20.11784,-17.49099,-14.71833,-11.92092,-9.273995,-6.795709,-4.596787,-2.700732,-1.0341,0.4549531,1.772067,2.95771,3.979284,4.825373,5.624547,6.355085,7.095116,7.875029,8.59635,9.328216,10.07127,10.73095,11.18146,11.442,11.43173,11.07906,10.39926,9.439449,8.491101,7.748844,7.087106,6.49065,6.021221,5.744943,5.605141,5.442936,5.121962,4.549752,3.843116,3.090886,2.36993,1.715928,1.139454,0.6237492,0.2849032,0.05025201,-0.07781673,-0.1477537,-0.09221719,0.1514365,0.4773266,0.8477348,1.325386,2.20013,3.305651,4.505567,5.795469,7.052857,8.270956,9.359307,10.27585,11.07558,11.683,12.2457,12.86846,13.38746,13.74142,13.92975,13.8308,13.48927,12.92088,12.20274,11.25758,10.18287,8.970711,7.638831,6.263081,4.781822,3.147888,1.407386,-0.6227854,-3.068536,-5.836397,-8.507539,-10.8218,-12.65554,-14.03263,-15.03425,-15.74813,-16.29036,-16.722,-17.11956,-17.5499,-17.96288,-18.05811,-18.07972,-18.05269,-18.04526,-18.07534,-18.08855,-18.14003,-18.12947,-18.00722,-17.73126,-17.25709,-16.67266,-15.87273,-14.90004,-13.76204,-12.40401,-10.8573,-8.991597,-7.216526,-5.664444,-4.352213,-3.09133,-1.861433,-0.6135754,0.5323272,1.528554,2.356462,3.173537,4.073709,5.085267,6.19339,7.279477,8.198998,8.808474,9.189697,9.508631,9.766,10.02492,10.21942,10.26771,10.12732,9.977708,9.953015,10.1024,10.45457,10.84498,11.15482,11.41164,11.57006,11.56674,11.29574,10.75944,10.08403,9.385928,9.001138,8.855063,8.84706,8.80303,8.567404,7.991681,7.069269,5.940607,4.893759,3.925943,3.026925,2.06797,0.9359863,-0.1800716,-1.194118,-2.100076,-2.91613,-3.785587,-4.761248,-5.8754,-7.120695,-8.527195,-10.10927,-11.7727,-13.46141,-15.0183,-16.39782,-17.59141,-18.53729,-19.32151,-20.13994,-21.08415,-22.24688,-23.74483,-25.37978,-27.02305,-28.4072,-29.39158,-29.85668,-29.83943,-29.47907,-28.87092,-28.10512,-27.05581,-25.48044,-23.30999,-20.75473,-17.9191,-14.8324,-11.61383,-8.30849,-4.983816,-1.677018,1.636725,5.034939,8.527587,12.03916,15.43358,18.69148,22.17705,26.01428,30.07438,34.32182,38.46236,42.17787,45.54044,48.33005,50.53448,52.31647,53.74335,54.74418,55.34247,55.35578,54.71342,53.45523,51.91087,50.38739,49.20031,48.28048,47.44523,46.62157,45.70371,44.75775,43.84481,42.76496,41.43919,39.71839,37.61578,35.16397,32.66676,30.33843,28.18381,26.12777,24.12695,22.13691,20.21463,18.26832,16.40013,14.47139,12.48376,10.52163,8.53123,6.559071,4.680164,2.940694,1.506196,0.3114511,-0.5404631,-1.051138,-1.26135,-1.134267,-0.9411262,-0.8773698,-1.044544,-1.435458,-1.952412,-2.404209,-2.510308,-2.406221,-2.335081,-2.408099,-2.619008,-2.955794,-3.314271,-3.707242,-4.098688,-4.394882,-4.66689,-4.983006,-5.300386,-5.699439,-6.247581,-7.024219,-7.926862,-8.823049,-9.819382,-10.90132,-12.23426,-13.73124,-15.43304,-17.39619,-19.71679,-22.29746,-24.90805,-27.20277,-29.10381,-30.64759,-31.70115,-32.45803,-33.17179,-34.10974,-35.20523,-36.44295,-37.76344,-39.04611,-40.21636,-41.47054,-42.41625,-43.19641,-43.888,-44.61799,-45.38176,-46.04269,-46.37072,-46.25139,-45.82179,-45.04339,-43.79695,-42.21943,-40.1858,-37.99604,-35.99257,-34.25931,-33.08532,-32.2399,-31.53363,-31.11741,-30.79935,-30.58023,-30.44586,-30.47588,-30.79747,-31.18776,-31.3509,-30.86891,-29.85096,-28.46444,-26.97134,-25.67489,-24.7124,-24.0289,-23.69923,-23.4789,-23.3906,-23.36609,-23.33086,-23.41362,-23.49558,-23.64912,-23.5562,-23.16839,-22.70379,-22.3393,-22.09096,-21.86122,-21.59914,-21.44496,-21.25865,-21.1351,-21.01207,-20.842,-20.57842,-20.14931,-19.65,-19.07969,-18.6001,-18.25212,-17.89412,-17.61063,-17.35132,-16.98424,-16.59482,-16.17156,-15.80956,-15.50318,-15.15811,-14.63223,-13.86377,-13.11192,-12.20866,-11.30492,-10.46965,-9.611817,-8.764087,-7.858149,-6.899968,-5.868238,-4.77954,-3.703904,-2.401414,-0.9277414,0.7602891,2.457273,4.293759,6.310782,8.372967,10.57396,12.84034,15.15904,17.45623,19.80682,22.11523,24.29452,26.47519,28.79567,31.28762,33.81061,36.61762,39.1824,41.03006,42.11491,42.86509,43.57991,44.49809,45.83659,47.64209,49.81546,52.29315,54.51524,56.52886,58.29618,59.97618,61.62544,63.13216,64.49643,65.573,66.69423,67.7511,68.7085,69.48786,70.41713,71.30211,72.05732,72.63926,73.04123,73.31552,73.40976,73.51643,73.47876,73.35348,73.01685,72.42145,71.82431,71.06811,70.03376,68.50874,66.65571,64.60753,62.45026,60.24932,58.11791,56.02886,54.0405,51.91009,49.80575,47.76837,45.75633,43.67991,41.48592,39.36734,37.25054,34.90868,32.51015,30.15243,28.08225,26.27425,24.78792,23.48675,22.16617,20.73577,19.30452,17.82054,16.23913,14.50075,12.63283,10.75421,9.020151,7.429173,5.975312,4.664039,3.568846,2.521144,1.682333,0.9314815,0.3102274,-0.1242292,-0.4810944,-0.7213866,-0.8463523,-0.8206186,-0.800209,-0.5830651,-0.0001438888,0.8449714,1.725999,2.702705,3.911355,5.381136,7.027398,8.862651,10.9409,13.0012,14.94568,17.02626,19.14476,21.21856,23.31962,25.3415,27.20814,28.92571,30.5625,31.9565,33.18823,34.4876,35.71725,36.71594,37.5011,38.08093,38.23914,37.86474,37.55035,37.75138,38.43381,39.55266,40.98597,43.00953,45.34183,47.51434,49.18985,50.27988,50.97598,51.43084,51.62814,51.69174,51.51414,50.85207,50.0688,49.77986,50.09913,50.90725,51.93149,53.06011,54.15297,55.25456,56.24824,57.13805,57.91966,58.58106,59.15127,59.77328,60.25496,60.70008,61.29383,62.00192,62.66885,63.22438,63.7894,64.55984,65.21119,65.71057,66.18547,66.58151,66.79363,66.79637,66.61226,66.30578,66.03469,66.02909,66.36787,67.01653,67.90591,68.84329,69.82423,70.86,71.91383,72.80423,73.44172,73.78512,73.8693,73.81126,73.78008,73.76381,73.7862,73.79821,74.13806,74.62507,74.81101,74.66073,74.12078,73.31925,72.08857,70.67921,69.12503,67.27928,65.50737,63.73704,61.96825,60.02306,57.93981,55.78073,53.45642,50.97942,48.43244,45.74657,43.01866,40.28431,37.62249,35.03966,32.34069,29.63925,26.99262,24.18708,21.37821,18.73379,16.29811,13.9458,11.66799,9.650016,7.837492,6.14793,4.579157,3.056737,1.731665,0.5037869,-0.4877934,-1.279456,-1.839529,-2.247558,-2.52434,-2.799403,-2.731131,-2.4363,-1.906394,-1.112405,-0.1014856,1.022322,1.735607,2.082207,2.498532,3.135528,4.21519,5.390981,6.604268,7.858397,9.073903,10.51238,12.71541,15.77408,19.02963,22.23359,25.19804,28.24294,30.95157,33.4825,35.87579,38.22836,40.55713,42.81157,45.07456,47.19191,49.24698,51.15148,52.88856,54.31822,55.37253,56.12346,56.5814,56.66259,56.40815,55.90336,55.10848,54.00279,52.58407,51.08022,49.51821,48.11181,46.78922,45.76997,44.60402,43.12459,41.22736,38.90539,36.31592,33.76592,31.31231,28.92088,26.65206,24.32408,21.65961,18.77305,15.94625,13.56777,11.82888,10.66968,9.925983,8.944054,7.516139,6.053592,4.831088,3.972219,3.194779,2.843275,2.677346,2.819435,3.250513,3.587173,3.701276,3.598963,3.635549,3.83482,4.111849,4.547777,5.067862,6.109662,7.521032,8.633147,9.428606,9.927125,10.18371,10.40851,10.64483,10.89559,11.14621,11.29392,11.39743,11.74698,12.45876,13.34431,14.06721,14.31375,13.94965,12.9118,11.43809,9.673756,7.992602,6.195576,4.183469,1.873162,-0.6334536,-3.399989,-6.557162,-10.17378,-13.77573,-17.16793,-20.18871,-22.92407,-25.13435,-26.86548,-28.38436,-29.56879,-30.64467,-31.88198,-33.09446,-34.24643,-35.26153,-35.99705,-36.40644,-36.53456,-36.65057,-36.81017,-36.77995,-36.61228,-36.35776,-35.93748,-35.10675,-34.02934,-32.96539,-31.86015,-30.61889,-29.14624,-27.38369,-25.65571,-23.7941,-21.92522,-19.83046,-17.50122,-15.03939,-12.33479,-9.341499,-6.364324,-3.381876,-0.4354088,2.363431,5.226218,8.176795,11.1588,14.24521,17.52167,20.56307,23.3438,25.9651,28.42026,30.61952,32.64099,34.41037,35.84591,36.98282,37.56217,38.00015,38.65868,39.6928,41.25727,42.73536,43.82489,44.51264,44.78367,44.81334,44.91031,45.00999,44.98713,44.80669,44.83602,44.59859,44.22375,43.52826,43.06503,42.50302,42.14468,41.90287,41.82437,41.75711,41.56272,41.29556,41.09003,40.54254,39.87776,39.26108,38.72124,38.43721,38.1736,38.10544,38.17149,38.32022,38.62046,39.30228,40.48641,41.49335,42.02928,41.95244,41.46627,40.7692,40.14136,39.65723,39.36832,38.9463,38.34717,37.73519,37.02807,36.17921,35.3252,34.45898,33.90146,33.78733,33.90365,34.09645,34.2758,34.46107,34.53775,34.70706,35.46123,35.68344,36.06573,36.80439,37.48792,38.13511,38.68343,38.99696,39.06816,39.06206,39.23716,39.83611,40.55743,41.44956,42.32891,43.3205,43.99893,44.58701,45.22997,45.8928,46.66512,47.58901,48.54115,49.27222,50.06736,50.79464,51.52566,51.96099,51.9731,51.61966,51.16845,50.82935,50.73061,50.84135,51.02066,51.061,50.76949,50.43443,50.22037,49.99396,49.72798,49.39991,48.99663,48.45105,47.87936,47.42714,46.95602,46.37082,45.6527,44.94421,44.24821,43.43568,42.48737,41.55516,40.83236,39.86952,38.61088,37.26142,35.84129,34.11609,32.22644,30.32058,28.33014,26.09929,23.84135,21.52169,19.31683,16.99314,14.52885,11.71959,8.696017,5.473812,2.493044,-0.1983708,-2.61602,-4.810661,-7.018791,-9.404813,-11.7765,-14.24517,-16.74327,-19.05171,-21.07568,-22.98636,-24.85512,-26.86686,-28.70585,-30.33662,-31.84392,-33.13604,-34.15095,-35.24584,-36.41517,-37.65333,-38.97318,-40.2701,-41.24046,-41.92578,-42.60529,-43.40892,-44.09859,-44.90464,-45.64937,-46.09486,-46.48236,-46.72719,-46.84248,-47.0138,-47.09038,-47.08787,-47.1179,-47.43103,-47.38419,-47.33718,-47.63422,-48.05711,-48.61231,-49.1376,-49.34461,-49.18105,-48.99506,-48.7565,-48.6114,-48.49621,-48.41129,-48.48109,-48.55647,-48.66172,-48.4514,-48.27322,-48.10842,-48.1055,-48.41671,-48.95699,-49.71654,-50.60443,-51.37453,-52.33763,-53.22506,-53.91649,-54.38923,-54.85495,-55.45008,-56.1405,-56.81446,-57.55275,-58.1759,-58.50585,-58.59678,-58.62789,-58.65092,-58.79186,-58.99715,-59.21629,-59.29791,-59.28716,-59.34338,-59.42267,-59.39991,-59.29461,-58.99943,-58.72925,-58.38024,-57.61487,-56.93873,-56.8518,-56.93664,-57.02242,-56.98123,-57.02181,-56.99839,-56.8908,-56.93789,-57.07634,-57.20303,-57.52579,-57.87186,-58.45068,-59.05457,-59.49221,-59.81578,-60.11818,-60.29149,-60.51987,-60.88862,-61.25512,-61.76118,-62.00495,-62.27763,-62.68615,-62.96221,-63.28597,-63.51812,-63.90204,-64.17341,-64.42487,-64.47078,-64.43279,-64.61147,-64.79662,-64.96973,-65.27151,-65.62311,-65.8633,-66.10914,-66.32889,-66.61572,-66.89486,-67.09656,-67.31559,-67.61676,-67.94911,-68.09106,-67.96591,-67.7943,-67.62442,-67.63878,-67.93745,-68.19749,-67.98704,-67.30327,-66.38341,-65.7293,-65.41263,-65.68557,-66.09892,-66.62282,-67.20153,-67.70429,-68.34048,-69.0204,-69.65369,-70.33492,-70.83625,-71.24381,-71.86863,-72.41721,-73.23816,-73.62541,-73.97633,-74.18505,-74.57621,-75.04721,-75.35023,-75.59807,-75.39763,-75.25174,-75.01828,-74.73286,-74.41904,-73.92533,-73.37851,-72.7055,-71.60851,-70.2931,-68.99325,-67.74997,-66.4942,-65.04525,-63.48626,-61.95876,-60.3087,-58.62659,-56.71465,-54.69066,-52.60557,-50.45444,-48.30472,-46.00413,-43.56673,-41.14916,-38.8834,-36.67546,-34.3668,-32.09065,-30.06573,-28.05775,-26.01287,-23.91881,-21.7001,-19.45476,-17.41292,-15.52549,-13.70849,-11.66485,-9.886115,-8.106975,-6.693694,-5.237779,-3.825855,-2.578582,-1.390065,-0.1427974,1.102676,2.230254,3.384925,4.263288,4.781211,5.094192,5.420173,5.754474,5.967383,5.985218,5.858156,5.72828,5.596967,5.412946,5.126161,4.790178,4.384135,3.738242,2.818529,1.975097,1.199761,0.7303165,0.3741154,0.2161313,0.007608931,-0.2649037,-0.7038369,-1.001667,-1.155601,-1.173456,-1.266669,-1.339396,-1.475131,-1.269988,-0.8216461,0.02736281,1.053134,1.588387,1.570678,0.8679284,0.008950469,-0.5352507,-0.7960203,-1.088892,-1.520462,-2.125775,-2.675295,-3.078089,-3.500735,-4.121206,-4.66378,-5.357991,-5.957502,-6.532976,-7.097583,-7.501058,-7.956664,-8.600434,-9.267176,-9.710057,-10.27848,-10.91339,-11.50016,-11.93335,-12.2101,-12.59549,-13.04467,-13.44728,-13.9186,-14.32029,-14.659,-14.96352,-14.95983,-15.03335,-15.29076,-15.53127,-15.68754,-15.62172,-15.36009,-15.2647,-15.08566,-14.87097,-14.46366,-14.20682,-14.11865,-14.06473,-13.87718,-13.68313,-13.4727,-13.30774,-13.07669,-12.83446,-12.43985,-12.00909,-11.43579,-10.93934,-10.39587,-9.95329,-9.494565,-8.955431,-8.48692,-7.8815,-7.383937,-6.806026,-6.308478,-5.810772,-5.068411,-4.34071,-3.653046,-3.06814,-2.677563,-2.353677,-1.999317,-1.694765,-1.548942,-1.401492,-1.265522,-1.146991,-0.9197827,-0.8121218,-0.7084029,-0.7237828,-0.6723301,-0.686601,-0.7341322,-0.7169105,-0.9491053,-1.101851,-0.8402487,-0.3420686,-0.03113169,0.2441011,0.4207834,0.5976028,0.5734006,0.6004626,0.8330562,1.380456,1.701367,1.946091,2.092924,2.489293,2.953536,3.642001,4.131037,4.370524,4.381293,4.410138,4.760786,4.991355,5.433098,5.79007,5.992131,6.267182,6.631945,6.840788,7.087945,7.46184,7.908467,8.434991,8.660366,8.910048,9.124447,9.220067,9.508871,9.806144,10.11484,10.44903,10.93662,11.15531,11.08007,11.23189,11.45863,11.84096,12.34043,12.84799,13.05652,13.29226,13.5856,14.04903,14.4424,14.91176,15.52199,15.84628,15.89915,16.23821,16.73443,17.29485,17.7743,17.99382,18.30499,18.63746,18.86475,18.94327,19.20767,19.48023,19.72156,19.82076,19.78433,19.82462,19.88924,19.75343,19.60579,19.47741,19.48825,19.42062,19.41713,19.27909,19.12014,18.92903,18.79336,18.68672,18.32484,18.11225,18.04461,18.1436,18.38938,18.49008,18.03552,17.731,17.28749,16.85839,16.62958,16.45865,16.33312,16.14398,16.08425,15.80487,15.71755,15.55278,15.26796,14.25567,13.53331,13.20068,13.45825,13.6195,13.48582,13.30501,13.18897,13.03314,12.78074,12.66317,12.78012,12.9491,13.28727,13.52828,13.52935,13.49215,13.15199,12.90968,12.77919,12.70456,12.59851,12.55634,12.41804,12.17318,11.83364,11.60695,11.57697,11.50748,11.64377,11.63046,11.68746,11.75298,11.94506,11.81786,11.79897,11.86178,11.78057,11.63432,11.29189,11.24002,11.03033,10.96802,11.06278,11.13893,11.04122,10.93817,10.79334,10.54302,10.46267,10.53299,10.6263,10.77599,11.05001,11.08538,10.89308,11.13887,11.55477,11.92551,12.26015,12.49545,12.80578,13.089,13.55106,14.31256,14.9544,15.45444,15.8794,16.3316,17.08451,17.67849,18.12827,18.67074,19.31222,19.42269,19.24649,18.85424,18.88623,19.48676,20.39471,21.30158,22.48286,23.54273,24.32121,25.22483,26.10548,26.9514,27.88956,29.08689,30.3084,31.45261,32.60979,33.90819,35.23313,36.49782,37.44245,37.81445,37.86964,38.59826,39.22553,39.8575,40.3802,40.58196,40.48835,40.43265,40.23672,39.73857,39.17516,38.27499,37.32492,36.41428,36.31442,35.99156,35.43674,34.34415,33.21753,32.04836,30.92216,29.63561,28.36321,26.9594,25.38442,23.70693,21.78623,19.6798,17.5207,15.58315,13.4033,11.30853,9.310556,7.190112,5.037633,2.576649,0.08748505,-2.22414,-4.35353,-6.268939,-8.216566,-10.22502,-12.08416,-14.14921,-16.16177,-18.14378,-20.10675,-22.00174,-23.76957,-25.59225,-27.4215,-29.08224,-30.54372,-31.84342,-33.13995,-34.19788,-35.01182,-35.90866,-36.71777,-37.41572,-38.33424,-39.13401,-39.62019,-40.00877,-40.4554,-40.91732,-41.18883,-41.40024,-41.24961,-40.79075,-40.4511,-40.23713,-39.84501,-39.53016,-39.03874,-38.55109,-37.97443,-37.3729,-36.52624,-35.56486,-34.99926,-34.91506,-35.06371,-35.49141,-35.93119,-36.51581,-37.44497,-38.39866,-39.06756,-39.54582,-39.70825,-40.12353,-40.73436,-41.3879,-42.04765,-43.17765,-43.96366,-44.42459,-44.85718,-45.15574,-45.6661,-45.98193,-46.18399,-46.2494,-46.25867,-46.27951,-46.29351,-46.28118,-46.3649,-46.5564,-46.58955,-46.23799,-46.01019,-45.76716,-45.35646,-45.12137,-44.83369,-44.04886,-43.32854,-42.7422,-42.15598,-41.24318,-40.03731,-38.65649,-37.50558,-36.6935,-35.52272,-34.10037,-32.64279,-31.1046,-29.65512,-28.12614,-26.42088,-24.87293,-23.17466,-21.46918,-19.74834,-17.85937,-16.00459,-14.09727,-12.56129,-10.74978,-9.006352,-7.312765,-5.55193,-3.936067,-2.282242,-0.5905572,1.029201,2.597474,4.129858,5.506975,6.749418,7.805484,8.908572,9.835694,10.63482,11.53043,12.35372,13.14513,13.69277,13.93627,14.1381,14.46463,14.55113,14.67929,14.61081,14.3908,14.12652,13.63245,12.83586,12.14886,11.54145,10.8186,10.138,9.471423,8.760809,8.083072,7.64454,7.231813,6.723753,6.215526,5.616896,5.365788,5.155221,5.121649,5.262287,5.540761,5.777503,5.682051,5.273316,4.824849,4.718623,4.767977,4.887767,5.031544,5.125457,5.302926,5.411723,5.438726,5.593475,5.661988,5.820272,6.172255,6.427728,6.534749,6.937208,7.263305,7.770715,8.420203,9.154157,9.97946,10.72898,11.42327,12.05066,12.8458,13.47945,14.13983,14.60972,15.23061,15.87222,16.40737,16.79693,17.22159,17.76589,18.0196,18.4759,18.9846,19.31468,19.5521,20.00462,20.3554,20.66271,20.99694,21.07747,21.16444,21.16286,21.2706,21.38507,21.78627,21.86626,21.86842,21.69344,21.49466,21.39278,21.48771,21.7587,21.68928,21.44593,21.39237,21.33003,21.60198,21.55979,21.38701,21.23922,21.07629,20.81814,20.50528,20.35831,20.50735,20.73745,20.51957,20.24003,19.9394,20.09503,20.30855,20.37569,20.33107,20.32056,20.40267,20.41234,20.32022,19.77787,19.27206,19.3411,19.7377,20.03463,20.40401,20.52723,20.85072,21.43995,21.76637,21.98643,22.14769,22.50837,22.65564,22.81708,22.61318,22.81299,23.21955,23.44683,23.63762,23.45521,23.05251,22.21607,21.64291,21.18733,21.27851,21.44209,21.98821,22.29835,22.62756,22.9213,23.4989,24.07773,24.73977,25.24673,25.7692,26.26884,26.51167,27.00026,27.41003,27.63931,27.56553,27.56459,27.65451,28.0257,28.06838,28.12431,27.95071,27.96471,27.51426,27.03495,26.33303,25.77338,25.07411,24.21542,23.23034,21.9666,20.82071,19.53774,18.05616,16.82578,15.6099,14.07216,12.32529,10.79463,9.298443,7.42878,5.669851,4.195402,2.53138,0.9497867,-0.7899708,-2.629666,-4.431261,-5.990673,-7.341868,-8.952449,-10.57897,-12.35964,-13.95964,-15.24796,-16.52368,-17.67822,-18.71803,-19.96019,-21.06281,-21.83822,-22.5845,-23.57438,-24.40337,-25.24885,-26.3632,-27.14165,-27.57996,-28.04932,-28.61054,-28.73332,-29.09112,-29.40176,-29.97795,-30.31082,-30.52508,-30.51218,-30.46428,-30.18041,-29.99588,-29.90678,-30.04504,-30.03628,-30.23587,-30.34578,-29.72538,-28.56092,-27.9585,-27.42918,-27.29894,-27.31012,-26.77813,-26.32024,-26.14009,-25.88838,-25.7011,-25.72715,-26.37547,-26.17305,-25.26609,-24.35358,-24.69813,-25.96972,-27.2904,-28.94749,-30.54157,-31.86082,-32.49028,-33.03549,-33.3619,-34.27248,-35.17702,-36.45855,-37.20142,-37.92176,-38.34934,-38.86602,-39.37759,-39.91509,-40.31953,-40.51945,-40.36662,-40.09172,-39.72838,-39.56559,-39.15688,-38.41245,-37.61883,-36.85382,-35.95398,-34.83915,-33.86269,-32.54456,-31.49347,-30.11872,-28.73242,-27.28269,-26.16977,-24.56661,-22.58137,-20.93456,-19.25083,-17.60036,-15.95469,-13.88338,-12.07259,-10.60998,-8.866502,-7.050366,-5.265327,-3.71843,-1.769412,0.02248361,1.437775,3.16,4.503414,5.65102,6.74065,8.194151,9.363133,10.66276,11.63881,12.41521,13.57076,14.71471,15.44632,16.15898,16.75193,17.56246,18.35291,18.60117,18.50639,18.52462,18.95674,19.18455,18.98102,18.78669,18.89209,18.69574,18.31391,17.72874,16.99752,16.58048,16.23807,15.78049,15.09182,14.22803,13.73624,13.41329,12.86354,12.4395,11.81647,11.51866,11.15505,10.70069,10.10829,9.7588,9.262118,8.932654,8.661803,8.671658,8.654081,8.727526,8.806355,9.000574,9.399948,9.412092,9.629713,10.1462,10.5504,10.3597,9.558004,9.044287,8.450341,9.183658,9.346812,9.522225,9.535013,9.472854,9.63724,9.206517,8.772646,8.412076,8.303781,8.498193,8.329024,7.892113,7.327617,7.072393,6.830949,6.959424,6.775314,6.147355,5.959084,5.57759,5.39199,5.045412,4.873137,4.739862,4.898101,4.78452,4.600858,4.343613,4.179534,4.299106,4.469356,4.398407,4.448752,4.813746,5.177275,5.125315,5.357666,5.856137,6.395342,7.057656,7.53316,7.810545,8.178022,8.799318,9.379117,9.860042,10.47869,10.59299,10.97096,11.52294,11.63125,11.9717,12.1865,12.58522,12.75165,13.15635,13.38633,13.64157,14.18339,14.38346,14.86142,15.13781,15.08971,15.28866,15.48923,15.48813,15.77979,15.92642,15.44544,14.48572,14.29711,14.27089,14.16755,13.7335,13.28217,12.80063,13.04887,13.15177,12.85504,12.12161,11.5316,11.09867,11.20874,10.92817,10.66702,10.39134,10.16396,10.02528,9.451968,8.781887,8.881169,8.86776,8.414384,7.899875,7.105336,6.369477,5.975407,5.659888,4.765571,4.190098,3.293539,2.128279,1.400987,0.8474066,0.9055971,0.4557698,-1.339019,-2.560294,-3.19278,-2.608808,-3.092084,-3.053901,-2.90986,-2.789421,-3.085911,-3.646949,-3.782571,-3.690114,-3.627076,-3.78924,-4.237353,-4.463727,-4.632768,-4.867266,-5.338656,-5.595342,-6.396625,-7.015458,-7.153239,-7.53765,-7.855547,-8.407566,-8.89199,-9.722059,-10.22777,-11.04465,-11.65515,-12.14879,-12.61418,-13.29292,-13.75514,-14.25695,-14.63505,-15.13657,-15.67519,-15.89186,-15.94875,-16.09419,-16.71715,-17.21821,-17.43638,-17.74805,-17.88969,-17.86478,-18.34766,-18.55533,-18.57701,-18.78125,-18.64116,-18.70429,-18.76168,-18.58489,-18.72173,-18.891,-18.4517,-17.98505,-17.82298,-17.72503,-17.45527,-17.24983,-16.89262,-16.79343,-16.46665,-16.09226,-15.82436,-15.89239,-15.75902,-16.05501,-16.15529,-15.68202,-14.64003,-14.10062,-13.75208,-13.19725,-12.42896,-11.81556,-10.92931,-10.68062,-10.5138,-10.23773,-9.734162,-9.078724,-8.106627,-7.596807,-6.714236,-5.814407,-4.911555,-4.135878,-3.519672,-2.812992,-1.608034,-0.9928822,-0.3852117,0.7403276,1.37277,2.39491,3.372266,4.188759,4.813976,5.68283,6.094271,6.840185,7.359015,7.905525,8.076594,8.1719,8.49506,9.845055,11.07371,12.43698,13.2112,13.63933,13.83758,13.61628,14.26677,15.2704,16.53965,17.57323,18.58316,19.57476,20.65246,21.93755,23.09469,24.11962,25.25827,26.32513,27.30757,28.78277,30.0332,31.09899,31.91191,32.49729,33.39943,34.08571,35.01732,35.60656,36.21411,36.60763,36.92048,37.05172,37.03139,36.9845,36.68214,36.14397,35.4964,35.09028,34.63976,33.79953,32.80342,32.00271,31.13114,29.98899,29.18617,28.27123,27.07195,26.06189,25.18225,23.98987,22.88145,21.67529,20.47296,19.21158,17.73174,16.40851,15.3275,13.50452,11.76012,10.56939,9.274696,7.766708,6.305441,4.930433,3.691121,2.286232,0.8538045,-0.8582543,-2.182607,-3.029064,-3.948306,-5.153006,-6.523567,-7.689179,-9.092955,-9.991866,-10.73433,-12.0992,-13.24845,-14.08961,-14.65834,-15.44297,-16.32352,-16.89426,-17.5049,-18.19285,-18.84136,-19.23187,-19.77795,-20.18913,-20.86638,-21.18305,-21.30028,-21.63728,-21.94082,-22.07336,-22.31501,-22.3368,-22.69842,-22.99306,-23.03671,-22.46386,-21.86819,-21.65257,-22.00161,-22.4194,-23.02408,-23.74656,-24.77684,-25.58052,-26.80575,-28.21708,-30.40027,-32.43265,-34.08934,-35.18837,-35.91812,-37.10747,-38.37679,-39.86194,-40.75372,-41.57715,-42.52755,-43.19111,-44.2785,-45.03459,-45.40283,-45.90484,-46.14332,-46.24213,-46.29806,-46.28449,-46.44287,-46.3685,-45.68951,-45.2518,-44.49619,-43.92021,-43.2803,-42.28925,-41.189,-40.41869,-39.76311,-38.74391,-37.80865,-36.8993,-35.47064,-34.08305,-32.47811,-31.12944,-29.55337,-27.75324,-25.64442,-23.56136,-21.08354,-18.83798,-16.7294,-14.62092,-12.51057,-10.74387,-8.473715,-6.392897,-4.474421,-2.837583,-1.177917,0.3181446,1.873594,3.010679,4.503821,5.979155,7.465348,8.651045,9.753665,10.43522,11.15375,11.74626,12.34323,12.86595,13.69461,14.26761,14.17038,14.34675,14.33984,14.53489,14.25791,14.6461,14.66012,14.07832,13.98176,13.86781,13.44508,12.79031,12.21809,11.92922,11.3265,10.5838,9.756786,9.135649,8.487145,7.993885,7.476534,7.376648,7.077132,6.895868,6.512463,6.514522,6.686688,6.872852,7.064294,7.700088,8.635529,9.476214,10.01076,9.821701,9.916945,10.21223,10.81736,11.05286,11.49009,11.74007,11.97422,12.12606,12.39354,12.96126,13.55829,14.26402,14.86859,15.76698,16.25864,16.70412,17.36623,17.95841,18.53382,18.95093,19.14106,19.80513,20.33873,20.75609,21.20379,21.58571,21.88599,22.11455,22.54207,22.84841,23.29557,23.47839,24.16553,24.4098,24.53219,24.4497,24.35014,24.26026,23.9751,23.81683,23.65255,23.73286,24.07983,23.84637,24.14812,24.07982,23.71697,23.77288,24.01614,24.13001,24.06605,23.66124,23.1107,22.96268,22.87201,22.78625,22.78781,22.48851,22.48383,22.49444,22.1937,22.24575,22.31235,22.29847,22.62052,22.65459,22.95523,22.58889,22.78569,22.53309,22.71814,22.7812,23.21876,23.39289,23.49597,23.30203,22.8812,22.62472,22.474,22.59822,23.08611,23.86477,24.37994,24.62553,25.35516,25.96611,26.57679,27.214,28.3532,29.29031,29.9294,30.44161,31.17706,32.1102,33.07654,33.77145,34.35338,34.96497,35.28945,35.6358,35.82293,36.13197,36.19671,36.38597,35.99193,35.69875,35.67252,35.25234,34.89457,34.17504,33.49252,32.44027,31.39638,30.35505,29.32384,28.12048,27.13478,25.62731,24.4711,22.94855,20.92474,19.21431,17.52411,16.08463,13.83343,11.72383,9.756955,7.921657,5.85089,3.511844,1.163064,-0.8381961,-2.97694,-4.780927,-6.605262,-8.540665,-10.43631,-12.22417,-13.69082,-15.35672,-17.03143,-18.69337,-20.03744,-21.86236,-23.34239,-24.46648,-25.64635,-26.95801,-28.52965,-29.5766,-30.3359,-31.26514,-32.34522,-33.06676,-33.82794,-34.97377,-35.93214,-36.42323,-37.04335,-37.71505,-38.65001,-39.41005,-40.11029,-40.08425,-40.22151,-40.4349,-40.84378,-40.99444,-40.57517,-40.42285,-40.63682,-40.37944,-40.78071,-40.63944,-40.52364,-40.70909,-39.71508,-38.95856,-38.2163,-38.5415,-38.88918,-39.19968,-39.39915,-40.2645,-40.71703,-41.50017,-42.6159,-43.14925,-43.51724,-43.72226,-44.00695,-44.90942,-45.65253,-45.96442,-46.2965,-46.91886,-47.33837,-47.76567,-47.90087,-48.42585,-48.8049,-49.03444,-48.90136,-48.70491,-48.3283,-48.16714,-48.20013,-47.80091,-47.41283,-46.91125,-46.36159,-45.8193,-45.41496,-44.62232,-43.8043,-42.65227,-41.36366,-40.38057,-39.28825,-38.23189,-36.98813,-35.99874,-34.43151,-32.94028,-31.45594,-30.06214,-28.57642,-27.44118,-26.20993,-24.77267,-23.62247,-22.2099,-20.94067,-19.52595,-18.38852,-16.84104,-15.22229,-13.81588,-12.59665,-11.29912,-9.636325,-8.021938,-6.806288,-5.607462,-4.302415,-2.897159,-1.697438,-0.2248068,0.7754658,1.754103,2.655622,3.824039,4.554016,5.077382,5.970862,6.547148,7.1011,7.603652,7.936827,8.744042,8.971929,8.927827,8.989656,9.03546,8.745701,8.564667,8.353687,7.898777,7.380193,6.924512,6.36118,5.688645,5.286853,5.189952,4.735828,4.325441,3.73607,3.599651,3.481054,2.883475,2.532293,2.58764,2.639048,3.098606,3.454688,3.870902,5.147745,5.475019,5.023872,4.647015,4.657979,5.204896,5.595727,5.730652,5.622262,5.25058,5.432687,6.035779,6.372952,7.173015,7.206416,7.408006,7.951382,8.419778,8.593377,8.923201,9.685573,10.07411,10.51406,11.15697,11.92397,12.47995,12.45845,12.81114,13.46944,13.41089,13.7549,14.06649,14.22595,14.68138,15.83594,16.48415,16.65796,17.24943,17.87167,18.80963,19.49238,19.72578,19.73348,20.58964,21.10008,21.39408,21.89568,21.87236,22.16403,22.091,22.07609,21.99217,22.37527,22.47714,22.26272,22.71415,22.91887,23.1822,23.19763,23.58199,23.99531,24.0534,23.91994,24.66273,25.52701,25.88638,25.78789,25.74556,26.05541,26.55763,26.93359,27.58669,27.29943,27.28505,27.3948,27.85122,28.57531,29.2839,30.07199,31.10894,31.78239,32.72772,33.13949,33.58079,34.48656,36.05283,36.53235,36.87076,37.63372,38.33068,39.35672,40.30884,41.56365,43.23546,45.27109,47.18336,48.75953,50.76396,52.11638,53.41004,54.00341,55.23318,56.84771,58.4649,60.41133,61.93528,63.31949,64.91364,66.72975,68.38394,69.61294,70.71228,71.51077,72.76189,73.86999,74.96864,75.87141,76.85702,77.64765,78.64761,79.80325,80.73099,81.43308,81.4456,81.53465,81.73525,81.6619,81.08713,80.46222,79.46659,78.81643,77.52113,76.02733,74.52115,72.82847,70.3841,68.13756,66.8337,64.75936,61.84542,59.57749,56.96978,54.46049,51.68023,49.31079,45.72465,41.76752,38.55771,35.65532,32.16501,28.39438,24.44083,20.80871,17.52798,13.64236,10.18095,6.483444,2.564077,-1.247258,-5.129512,-8.304061,-11.47025,-14.92697,-18.90503,-21.68613,-24.32972,-27.15266,-30.1984,-32.9911,-35.31853,-37.42435,-40.132,-42.0853,-43.63322,-45.69042,-47.93616,-50.45861,-52.38192,-53.58732,-54.59458,-55.91714,-57.30635,-58.80709,-59.65548,-59.98522,-60.08023,-60.24869,-60.82205,-61.37949,-61.80163,-62.39858,-62.46708,-63.08906,-63.09241,-63.04586,-63.34999,-64.31656,-64.51688,-64.43563,-64.20904,-64.2903,-63.30488,-61.90933,-60.96315,-60.69727,-61.42783,-62.07911,-62.42362,-63.65813,-64.42701,-65.03541,-64.90677,-65.11252,-66.04675,-66.62907,-67.59241,-68.36412,-69.10659,-70.19088,-71.54847,-72.49234,-72.98928,-73.73233,-74.26292,-75.11905,-75.50146,-75.56574,-75.61597,-75.80064,-76.20181,-76.14471,-75.79403,-75.37623,-75.53716,-74.96172,-74.98424,-74.51935,-73.95918,-73.23285,-72.45988,-71.07252,-69.75043,-68.50792,-67.27747,-65.7823,-64.36518,-62.29926,-60.35406,-59.13899,-57.9197,-56.22468,-54.42914,-52.90809,-51.35151,-49.28415,-48.09526,-46.1396,-43.93105,-41.81615,-40.01353,-38.09717,-36.0603,-33.76788,-31.34876,-29.40756,-27.82457,-26.14535,-24.4521,-22.4708,-20.70277,-18.97968,-17.64747,-16.22743,-14.60361,-12.69649,-11.25569,-10.06314,-9.233723,-7.593781,-6.787945,-5.868458,-5.354959,-4.121617,-3.229026,-2.657518,-2.633762,-2.272697,-1.501457,-1.023936,-0.5926587,-0.6022326,-0.2874829,0.06346281,0.4804018,0.3993286,0.4211014,0.1925726,0.3849239,0.2557981,0.1916684,0.2476552,0.5729402,0.9862407,1.128556,0.7354998,0.7181187,0.8324179,1.104304,1.634932,2.184702,2.483615,4.113103,4.499632,4.484893,4.310147,4.311372,4.679747,5.141751,5.26888,5.270317,5.553474,5.473246,5.721282,5.972447,5.991341,6.137671,6.016277,6.132672,6.361077,6.534492,6.855397,6.937858,6.816206,6.873424,6.869483,7.325325,7.439416,7.481028,7.660877,7.59338,7.828401,8.167442,8.267858,8.025078,8.10919,8.219709,8.563271,8.626506,9.058601,9.445806,9.691809,10.15104,10.07873,10.30896,10.50385,10.74515,10.72114,11.10071,11.23516,11.36901,11.73235,12.2438,12.45808,12.4747,12.82401,12.89739,13.04475,12.98402,13.03057,13.12696,13.10851,13.6924,14.02776,14.55939,14.68872,14.74459,15.3331,15.32582,15.79968,15.7377,15.88173,16.08631,16.73976,17.21871,17.0272,17.4131,17.56294,17.59522,17.55461,17.41287,17.86862,17.89792,18.25935,18.43878,18.13794,17.77964,17.86678,17.83929,17.9976,18.80144,18.91197,19.59858,20.06283,20.43177,20.76718,21.43392,22.22923,23.15617,23.50002,23.69389,24.38654,24.62288,24.75287,24.80254,24.76442,24.76787,25.081,25.36797,25.48724,25.55908,25.14885,25.34286,25.36863,25.57705,25.61214,25.63366,25.6099,25.19269,24.78545,24.79773,25.01178,24.815,24.72302,24.54034,24.47334,24.54846,24.03298,23.99256,24.03574,23.71083,23.63463,23.32067,22.85465,22.98335,23.20921,22.8639,22.97608,22.90121,22.72964,22.39814,22.50222,22.1333,22.22684,22.8215,22.67913,22.47567,22.84648,23.09775,23.12606,23.25495,23.58592,24.1449,24.08812,24.37391,24.75854,25.50715,26.06325,26.90483,27.01695,27.39871,27.98188,28.39544,28.53106,28.8827,29.48334,29.8647,30.07778,30.46394,30.33638,30.25572,30.36005,30.92822,31.66106,32.35422,32.61366,33.13704,33.90399,34.27573,35.19081,35.71166,36.71359,37.32994,38.16358,38.15795,38.24393,38.85964,39.07964,39.01608,38.99772,39.26081,38.85666,38.00008,37.34762,36.58521,35.58362,34.7074,33.89031,33.09356,32.47013,31.95733,30.82136,29.85082,28.571,27.49564,26.62171,25.3001,23.80496,21.74784,20.12652,18.26111,16.71704,15.05306,13.41448,11.31705,9.719357,8.087022,6.366902,4.476133,2.617116,0.8060285,-1.191538,-2.535262,-4.249592,-6.256731,-8.234454,-10.51395,-12.19384,-14.08165,-15.78637,-17.41849,-19.06538,-20.92425,-22.43963,-23.82955,-25.00796,-26.76801,-28.05764,-29.47185,-30.7361,-32.11113,-32.91929,-33.64219,-34.34666,-35.65368,-36.4046,-37.30646,-37.46007,-38.64955,-39.53743,-39.67101,-39.81267,-40.24356,-40.25302,-40.20691,-40.9768,-41.04839,-40.49588,-40.72117,-40.99903,-40.64808,-40.46358,-40.1469,-40.02907,-39.43111,-39.04901,-38.38614,-38.1018,-38.47573,-37.36658,-35.72354,-34.78246,-34.74233,-34.6755,-34.60318,-35.05482,-35.46256,-36.37803,-37.25718,-38.44865,-39.23131,-39.55175,-39.55955,-40.20677,-41.38905,-42.03287,-41.96072,-42.2184,-42.36228,-42.55329,-42.63979,-42.48862,-42.48156,-42.41159,-42.59948,-42.38157,-42.12591,-41.91031,-41.37611,-40.9058,-40.52825,-40.32038,-39.62015,-38.92526,-37.91141,-37.32087,-36.53311,-35.46716,-34.32997,-33.09017,-32.11006,-30.95904,-29.44832,-27.92903,-26.52828,-25.27761,-24.20302,-22.7792,-21.0601,-18.98545,-17.63511,-16.03439,-14.48289,-13.06743,-11.14986,-9.37746,-8.15088,-6.901913,-5.380756,-3.871868,-2.625216,-1.501617,-0.4356156,0.7556621,1.727409,3.045598,4.320295,5.73324,6.56261,7.198258,7.958689,8.700741,9.539933,10.28617,11.21263,11.69604,11.8963,12.47649,12.69471,13.13119,13.56278,13.79542,13.6634,12.94957,12.20659,12.31433,12.02549,11.53817,10.4722,9.824571,9.407506,8.633597,7.564048,6.459741,5.576496,5.036236,4.01593,2.965313,1.421054,0.04105526,-0.844364,-1.13945,-1.534407,-1.860043,-1.578235,-1.730752,-1.38396,-0.786264,0.1245247,1.546259,1.71943,1.535476,1.033319,1.540284,1.932854,1.78765,1.767149,1.935101,2.29968,2.330609,2.106608,2.492702,2.572596,1.635888,0.9598613,1.359659,1.970062,2.035096,2.385973,2.768093,3.503957,3.982659,4.506878,4.819575,5.273467,5.604647,6.220444,6.577891,6.917271,7.123884,7.178445,7.386649,7.360378,7.414548,7.611026,7.443359,7.567455,7.563324,7.428024,7.339961,7.56606,7.718489,7.713511,7.378811,7.223085,7.395387,7.039607,7.215936,7.403815,7.192138,6.708732,6.714478,6.706799,6.631171,6.427733,6.29156,6.159673,5.952874,5.900566,5.926608,5.796651,5.673722,6.092414,6.059703,6.023202,6.274001,6.582482,6.660307,6.757739,6.877765,7.035751,7.242378,7.752296,8.154127,8.403937,8.455114,8.99962,9.761061,10.36408,10.79447,11.03188,11.03785,11.43294,11.92178,12.66696,12.97347,13.3417,13.69626,14.07046,14.66304,14.83762,14.97787,14.86792,15.35695,15.45565,15.544,15.00172,14.73761,14.69033,14.74546,15.37507,15.71295,15.58514,15.66089,15.9743,16.03909,16.3208,16.72784,16.56692,16.3376,16.61189,16.38697,16.36268,16.42308,16.16126,15.69719,15.60433,15.22647,14.59852,13.89481,13.34744,12.93594,11.85768,11.3986,11.29304,11.79732,11.98879,11.94058,12.33489,12.55029,13.13938,13.20854,13.62233,13.92099,14.30493,14.51695,14.89277,14.85421,15.00233,15.50151,15.66264,16.23515,16.70575,17.26234,17.56614,17.89214,18.39282,19.04429,19.3238,20.14602,20.06039,19.32972,18.94332,19.18431,19.80268,20.13291,20.69815,21.64026,22.19081,22.55688,23.40191,24.69104,25.32359,26.17587,27.22458,28.36688,28.86007,29.64714,30.97755,31.40634,31.84369,32.46733,33.2976,33.40816,34.31116,34.61123,34.47611,33.86399,33.3382,33.18724,32.6542,31.94059,31.15768,30.20669,29.27187,28.52412,27.31968,25.93012,24.41739,22.92099,21.23631,19.45182,17.72167,16.03018,14.10812,11.97268,9.999129,8.096414,6.058024,3.876423,1.613476,-0.2310503,-2.065698,-4.024408,-6.531867,-8.175581,-9.981056,-12.18392,-14.27866,-16.71717,-18.24641,-20.3015,-22.18634,-23.90867,-25.25972,-26.80865,-28.27209,-29.80339,-31.08467,-32.09798,-33.32774,-34.47941,-35.204,-36.80168,-37.42244,-38.29218,-39.55916,-40.50528,-40.73903,-41.28822,-41.67719,-42.14513,-42.46815,-42.66815,-43.22233,-42.95517,-42.94825,-42.91732,-42.74614,-41.50493,-40.14946,-39.62016,-39.29044,-38.88271,-38.69596,-38.50767,-38.31284,-37.82602,-37.92844,-37.7434,-37.9053,-37.83806,-38.15981,-38.72646,-39.04514,-39.38424,-40.02323,-40.80985,-42.11183,-42.95397,-44.40526,-44.81617,-45.08365,-44.83358,-45.22092,-45.49407,-45.60973,-45.97223,-45.79459,-45.2363,-44.53661,-44.2855,-43.89094,-43.38207,-42.71996,-41.87519,-40.92964,-39.88114,-39.02785,-38.38196,-36.83433,-35.55893,-34.09782,-33.18982,-31.79135,-30.83685,-29.50841,-27.98651,-26.49485,-24.43383,-23.52578,-21.98388,-20.57191,-18.52853,-16.87017,-16.17811,-15.21603,-13.66462,-11.66175,-10.3222,-9.373436,-7.652981,-6.024956,-4.266136,-2.829332,-1.39442,-0.2333369,1.310713,2.639765,4.022625,5.47606,6.703109,7.562031,8.624396,9.346382,10.16345,10.46633,10.79208,10.89983,11.48389,11.98214,11.93169,12.09892,12.00838,12.21295,12.27165,12.32403,12.22513,12.0904,11.71327,11.17005,10.71752,10.19571,9.586397,9.32865,8.380619,7.540667,7.137763,6.834586,5.802803,5.743348,5.208098,4.953134,4.57544,4.898714,4.798825,4.667067,5.301409,5.789132,6.849179,6.361311,6.028312,5.587199,5.411469,5.614007,5.676788,5.664299,5.841039,5.251385,5.308943,5.331265,5.417961,5.184364,4.869538,5.041948,5.207732,5.120881,5.035636,4.898419,5.010435,5.402187,5.325936,5.075512,5.131931,5.230677,5.547478,5.764139,6.242923,6.856834,6.896698,6.877237,7.278538,7.844147,7.902963,8.258789,8.820629,9.201787,9.158344,9.23622,9.857626,10.24862,10.43981,10.77684,11.38643,11.95827,11.9888,12.26541,12.14287,12.2436,12.59178,12.2616,12.67012,12.65733,12.56264,12.40258,12.06208,12.34606,12.74744,13.12654,13.21014,13.20261,13.60992,13.73767,13.94718,14.14655,13.96412,14.23955,14.54876,14.70752,14.74971,14.70963,14.5088,14.76454,14.99876,14.61623,14.55854,14.59493,14.49377,14.55264,14.95587,14.8936,14.95834,15.02507,15.14745,15.18449,15.40568,15.79961,15.55665,15.39543,15.24004,15.45265,15.5662,15.46864,15.21073,15.26519,14.8411,14.99796,15.11162,15.09086,14.80134,15.11966,14.83325,15.02503,14.46788,14.9904,14.30156,13.64584,13.24265,13.25468,13.56735,13.38545,13.56821,13.41885,14.23922,15.07389,15.15751,15.59121,15.54025,15.53793,16.18534,16.36942,16.17459,16.25599,16.35282,16.53608,16.28089,16.11281,15.94261,15.55513,15.33657,15.35985,14.44879,14.42826,13.83997,13.60242,13.31925,12.72732,12.08836,11.39008,10.79226,10.18397,9.65316,8.766484,7.857062,6.455557,5.840743,5.289141,4.194348,3.820115,3.223072,2.820954,2.370493,1.53336,1.053171,-0.06303042,-0.9316358,-1.615536,-2.294441,-2.79326,-3.580008,-4.681878,-5.824988,-6.678914,-7.462808,-7.461993,-7.736069,-7.355132,-7.287358,-6.811493,-6.943365,-7.243161,-7.3336,-7.726561,-8.516523,-8.963875,-9.941236,-10.65132,-11.64598,-12.48694,-13.39793,-14.07253,-15.36141,-16.1578,-16.81076,-17.6885,-18.4757,-19.47355,-19.75498,-19.79233,-21.00334,-22.38182,-23.42568,-23.44069,-23.28067,-23.26655,-22.64934,-21.87856,-21.30286,-20.44149,-19.38996,-17.81266,-16.99867,-15.39055,-13.9939,-12.24222,-10.40594,-8.447001,-7.176288,-5.784979,-4.180076,-2.569108,-0.991064,0.1653265,1.711924,3.139107,3.856655,5.725549,7.761768,9.562372,11.10902,12.93237,14.30219,15.83412,17.53817,18.49183,19.33046,20.48457,20.97054,22.59003,23.27946,23.45545,24.19967,24.82912,25.54875,25.75553,26.00158,26.20183,26.21143,25.84472,25.58868,25.53113,24.63436,24.3767,23.68315,23.28927,22.1372,21.15055,20.09067,19.08322,17.70463,16.03937,14.77852,13.04602,11.22885,9.607158,8.042227,6.667928,4.768859,3.359395,1.749516,0.3975867,-1.19633,-2.679068,-4.150445,-5.497617,-7.070003,-8.235209,-9.193783,-10.73922,-11.74792,-12.30154,-12.51124,-12.18742,-11.80046,-10.60826,-9.957485,-9.282307,-8.96897,-8.125159,-7.682215,-7.199813,-6.903366,-6.615665,-5.826697,-5.062834,-4.751923,-3.671514,-2.804958,-2.07071,-1.663892,-0.972033,-0.7865002,-0.02160285,0.6261203,0.5430882,0.8585794,0.4041684,0.8352845,0.1694154,-0.9484795,-1.070696,-0.3281845,0.2254017,0.4100361,0.4670271,0.8097089,0.9472069,1.270743,1.543224,1.681755,2.15573,2.454492,3.007937,3.085218,3.353013,3.623916,3.189239,3.292436,3.407612,3.370965,3.185645,3.19459,3.239075,3.222485,2.7455,3.016591,3.522187,2.851076,2.841026,3.069452,2.631079,1.825506,1.473695,0.6340671,0.4519155,-0.5538305,-1.389551,-2.179616,-2.559206,-4.008002,-4.703487,-5.467833,-6.355712,-7.230894,-8.199222,-8.977512,-10.2941,-12.02967,-12.94412,-13.74682,-14.14706,-15.11094,-15.77273,-15.93787,-16.33973,-16.90514,-17.18941,-17.36243,-17.70467,-17.90407,-17.75094,-17.46346,-17.73281,-17.48839,-17.21441,-17.1375,-15.94909,-15.45004,-14.54253,-13.68186,-13.03662,-12.10899,-11.15843,-10.75206,-9.706619,-9.103682,-7.988215,-7.112069,-6.781556,-5.343737,-4.447616,-4.050913,-3.261374,-2.775285,-1.675436,-1.443192,-0.9299086,0.4484662,1.360571,1.348984,1.801249,2.183549,2.724963,3.199269,3.631694,3.879658,4.133629,3.924793,3.831993,3.392354,3.380793,2.938484,2.435436,1.788106,1.12578,0.895471,-0.1196855,-0.7124415,-1.780196,-2.582049,-3.50013,-4.028622,-5.347101,-6.31598,-7.16386,-7.416093,-8.31117,-8.691965,-9.584735,-10.385,-10.7395,-11.19578,-11.90991,-12.25771,-12.90213,-13.21048,-13.3748,-13.50868,-13.96847,-14.05696,-13.53686,-13.33929,-12.89776,-12.88674,-12.18858,-11.54759,-10.96474,-10.46445,-9.734997,-9.21233,-8.842069,-8.311442,-7.678617,-7.641589,-6.697096,-6.682729,-6.187592,-5.704797,-5.198974,-4.890806,-4.203839,-4.102619,-3.628199,-3.715008,-3.655492,-3.690224,-4.115591,-4.191296,-3.326057,-3.289578,-3.307956,-3.404321,-3.432681,-3.152208,-3.365744,-3.645697,-3.977568,-3.909844,-4.363884,-4.394168,-4.305347,-4.417689,-4.749592,-4.666703,-5.13372,-4.955705,-5.148694,-5.286127,-5.27485,-5.86235,-6.177544,-6.190411,-6.385684,-6.754762,-6.812287,-6.972236,-7.264407,-7.723671,-8.069287,-7.755036,-8.209939,-8.612265,-8.353427,-8.255926,-7.981301,-7.977611,-7.495812,-6.742641,-7.308773,-7.087582,-6.283773,-5.71144,-5.185996,-4.969772,-4.351497,-4.120779,-3.859055,-2.966498,-2.732852,-2.126873,-1.589511,-1.299846,-0.8994804,-0.1882711,0.6358369,1.282882,1.375712,1.788708,2.621651,2.971866,3.241939,4.227464,4.484887,5.37391,6.121667,6.758707,7.038215,7.595891,7.96676,8.659104,9.241377,9.804303,10.0105,10.69757,11.36106,11.79232,12.10844,12.80176,13.47046,13.93214,14.27732,14.18123,14.64911,14.7725,15.19187,15.32429,15.73147,16.02896,15.73444,16.07138,16.15065,16.08493,15.97697,15.61836,15.99393,15.69254,15.46673,15.48694,15.56634,15.30463,15.07026,14.50035,14.65843,14.06664,14.24285,14.1076,14.03089,13.95144,13.99742,13.51131,13.67274,13.74045,13.59307,13.34449,13.58845,13.44598,12.9848,13.01072,13.03593,12.86372,13.11523,13.05619,12.83264,13.11536,12.77353,13.10892,12.74557,12.92247,13.05187,12.73615,12.16912,12.31807,12.04199,11.77092,11.99897,11.77298,11.37222,11.25306,11.58562,11.75484,11.35235,11.2007,11.34868,10.98618,11.20378,11.23857,11.08686,11.08906,10.77846,11.04739,9.967167,9.653841,9.26965,9.181037,9.160326,9.218378,9.338824,9.837698,9.511892,10.162,10.11905,10.6865,10.78813,10.94866,11.05926,11.0246,11.36149,11.68532,11.76074,11.51787,11.82458,12.19952,12.07706,12.30964,12.19288,11.95147,11.95782,11.61128,11.37038,11.41035,10.89202,10.63529,10.3379,10.02889,9.610906,8.963412,8.765458,8.383566,7.355557,6.919123,6.201459,5.566728,4.960352,4.706056,3.921698,3.356958,2.547305,1.783639,0.7949567,0.4539605,-0.5024312,-1.743157,-2.661341,-3.35326,-4.125804,-5.156684,-6.076839,-6.964063,-7.894074,-8.685405,-9.386147,-10.16398,-10.80787,-11.51203,-11.71476,-12.51575,-12.79119,-14.01139,-14.03813,-14.41032,-14.31215,-14.88751,-15.37989,-15.58539,-15.66226,-16.56845,-16.70851,-16.83828,-17.04375,-16.9373,-17.1049,-17.13562,-17.43481,-17.74761,-17.75622,-17.62477,-18.20696,-18.27073,-18.28927,-18.63342,-18.87087,-18.72629,-18.28683,-18.14284,-17.85543,-18.23884,-18.18229,-17.33844,-16.50021,-16.86299,-17.21162,-16.86629,-16.6024,-16.99951,-17.18403,-17.35906,-17.88354,-18.64869,-19.34796,-20.14565,-20.92099,-20.68499,-20.96344,-21.42825,-22.1389,-22.1878,-22.1464,-22.60359,-23.10243,-22.8599,-23.69362,-23.80801,-24.26841,-24.5038,-24.46702,-24.48119,-24.31583,-24.56009,-24.55135,-24.21588,-23.59409,-23.2925,-22.9364,-22.84935,-22.1352,-21.66842,-21.21742,-20.70796,-20.25202,-19.55047,-18.69485,-17.83944,-17.26972,-16.67705,-15.66253,-15.13502,-14.42116,-13.92035,-12.97773,-11.6731,-11.14799,-10.61132,-10.08182,-9.938193,-9.637803,-8.315836,-7.430242,-6.743025,-5.809841,-4.845209,-3.564694,-2.703658,-1.380842,0.000482017,0.5798689,1.571092,2.125803,3.112411,3.963145,4.990104,5.809259,6.598347,7.046766,7.74726,8.121985,8.701035,8.711043,8.893726,9.862832,9.707991,9.775206,9.731055,9.82907,9.691596,9.343821,9.397414,9.20578,8.691701,8.560997,8.21109,7.438648,7.214234,6.569425,5.737213,5.669852,4.431127,4.028974,3.562786,2.957238,2.426498,2.224097,1.674401,1.641489,0.8936581,0.8559898,0.5505099,0.6613318,1.441251,0.73607,-0.02651201,0.2403873,0.5221242,0.4068171,-0.08551538,-0.2504978,0.3437666,-0.1531418,0.2441815,0.0731137,0.1770124,0.3610971,0.8194208,0.9922496,0.7683015,0.8561841,1.699334,2.120647,2.014752,2.489192,2.74119,3.128183,4.021695,4.14611,4.545247,5.110292,5.512533,6.013814,6.440014,7.039245,7.624563,7.981439,8.488829,9.514916,9.822226,10.82217,11.07146,11.4808,12.42587,12.79813,13.62671,14.35703,14.55162,15.15283,15.42847,15.72682,16.18957,16.73954,17.12118,17.45301,17.37904,17.19187,16.72674,16.62405,17.02447,17.83351,17.91798,17.88307,18.00667,18.29376,18.39932,18.8696,19.05896,19.00846,19.07389,18.90406,19.04836,19.01282,19.24294,19.29571,19.52165,19.31512,19.3647,18.8997,18.73019,18.63716,18.32023,17.75636,18.1484,18.46317,17.87602,17.88395,17.90953,17.92355,17.51833,17.47703,17.50934,17.18465,17.32482,17.07623,16.49656,16.56812,16.39306,15.80236,15.48114,15.08322,14.85978,14.8569,13.81711,13.39197,13.10369,12.89984,12.21056,11.9386,11.84935,11.59352,11.38125,11.49183,11.83105,11.18698,11.18941,11.45736,11.61346,11.54564,11.51193,11.42645,11.79934,11.71633,12.09809,11.48497,11.86476,11.8548,12.07511,11.4638,11.39306,11.51017,11.81881,11.57593,11.49444,11.89166,11.88054,11.64668,11.29384,11.01074,10.95738,10.31818,9.843282,9.781625,9.315637,8.478884,8.032203,7.11169,6.792489,6.14214,4.854979,4.459899,3.341299,2.151885,1.249785,0.1913025,-1.022784,-2.002738,-3.392867,-4.087169,-5.522574,-6.384235,-7.408462,-8.61271,-9.746513,-10.7754,-12.0198,-12.95844,-13.97124,-15.00873,-15.8882,-17.06633,-17.98368,-18.80581,-19.31924,-20.48546,-20.9824,-21.58599,-22.24745,-23.0675,-23.29178,-23.84283,-24.42512,-24.70287,-25.21756,-25.06567,-25.49951,-25.84572,-25.79022,-25.8441,-25.59645,-25.44677,-25.19229,-24.64218,-24.41788,-24.05684,-24.09265,-23.46406,-23.12181,-22.90118,-21.82659,-20.80852,-20.63035,-20.10677,-19.56623,-19.18929,-18.98269,-18.98272,-18.5322,-18.65472,-18.31535,-18.77337,-18.8813,-19.73802,-19.71472,-19.90088,-20.1143,-20.31396,-20.88258,-20.82852,-20.64165,-21.40149,-21.21033,-21.31642,-21.63109,-21.96979,-21.96111,-21.85414,-22.23893,-22.40703,-22.3593,-22.7683,-22.17223,-22.24985,-22.2597,-22.22634,-21.85621,-21.61058,-21.73626,-21.5179,-20.46245,-20.19415,-19.6565,-19.2781,-18.5873,-17.63565,-17.14735,-16.55465,-15.42734,-14.84851,-13.94704,-13.0104,-11.85203,-10.8392,-10.43693,-9.658557,-8.163568,-7.375718,-6.511788,-5.760472,-4.451118,-3.740729,-3.294001,-2.553592,-1.727319,-0.6458254,0.1420841,0.5643617,1.042829,1.896655,2.346086,3.253489,3.5802,4.036773,4.44675,4.84981,5.675781,6.177645,5.894545,5.410133,5.220999,5.831281,5.986613,5.934826,5.865319,5.988687,6.418573,6.207711,6.364497,6.458943,6.621755,6.571482,6.674927,6.332874,6.128753,6.218434,5.879904,6.067125,6.054342,5.724336,5.555688,5.046821,5.242921,4.884236,4.496025,4.624305,4.761476,5.017764,5.243741,5.460659,5.997158,5.807364,5.64368,6.023315,5.951324,5.672527,5.884011,6.037262,6.439472,6.182903,6.439211,6.254927,6.39338,6.12004,6.546881,5.756163,6.121612,6.08466,5.666581,5.996453,6.105547,5.691283,6.029659,5.40083,5.043673,5.371394,5.461021,4.98326,4.743387,5.12934,5.303559,5.188872,5.668812,5.183111,5.248821,5.654471,5.817615,5.678187,5.368472,5.978987,6.590804,6.476826,7.115701,7.383191,7.518934,7.905062,8.029815,8.346554,8.702767,8.561966,9.068838,9.126177,9.479777,9.664018,9.854641,10.09771,10.60812,10.7741,10.52138,10.73333,11.28294,11.0986,11.6367,11.69681,11.76023,11.96684,11.74678,11.75509,12.19017,12.34589,12.53183,12.55906,12.58087,12.34642,12.42314,12.20108,12.05503,11.55433,10.80002,10.33626,10.79335,11.00587,11.02456,11.14657,11.08138,11.34878,11.63206,11.5469,11.72461,11.76045,11.57721,11.63145,11.81587,11.69418,11.56702,11.60699,11.8559,12.3859,12.277,12.05506,11.85822,11.86884,12.67487,12.55602,12.53554,12.20228,13.14998,13.05848,13.11196,12.41955,11.9816,12.09373,12.36208,12.29003,12.36415,12.52185,12.90454,13.43073,13.89614,14.15099,14.41201,14.84666,15.05669,15.31355,16.03689,15.98325,17.05398,17.25772,17.78105,18.34734,18.20051,17.80468,17.86372,18.07947,17.81112,17.64962,17.1448,16.89685,16.98763,16.2874,15.63292,15.22727,14.39291,13.88973,13.14133,12.47488,11.53581,10.63079,10.16705,10.07848,8.664331,7.500051,6.992462,5.838907,4.424228,3.391909,1.927237,1.283665,0.1946915,-1.243707,-2.471129,-3.485782,-4.353105,-5.551396,-6.569705,-7.968118,-8.627815,-9.774133,-11.00992,-11.84124,-12.453,-13.42054,-13.999,-14.91332,-15.59535,-16.69623,-17.30261,-17.73193,-17.7875,-18.35524,-18.94623,-19.16513,-19.56539,-19.87455,-20.11112,-20.62198,-20.74068,-20.67061,-20.69146,-20.62458,-20.28529,-20.09402,-19.57123,-19.06308,-18.9455,-18.6934,-18.29558,-17.90808,-17.46689,-17.09899,-16.5761,-15.73761,-15.25571,-14.61093,-13.85005,-13.31241,-12.63517,-11.57766,-11.35999,-10.75234,-10.52678,-10.10467,-8.824958,-8.685377,-8.518167,-8.483668,-8.649755,-9.053768,-9.134071,-9.781336,-9.954248,-10.03446,-10.04062,-10.35467,-11.00641,-11.73936,-12.22978,-12.45492,-13.17029,-14.92617,-15.46096,-15.6576,-16.27626,-16.31345,-16.64709,-17.23384,-16.83856,-17.53443,-17.46327,-17.67475,-17.84475,-17.99929,-17.8081,-17.36918,-17.55957,-17.29192,-17.7308,-17.72386,-17.62159,-18.02508,-17.83101,-17.951,-18.62669,-18.22708,-18.21887,-18.11549,-17.98493,-17.69243,-17.57657,-17.33139,-17.95016,-17.46225,-17.25102,-16.96888,-17.05557,-16.66329,-16.24005,-15.84845,-15.31115,-14.99792,-14.44131,-13.85491,-13.50383,-12.71339,-11.8193,-11.66628,-10.95073,-10.46719,-9.89394,-9.392402,-8.868285,-8.54151,-8.329272,-7.624974,-7.584779,-6.87746,-5.991265,-5.713393,-4.815874,-4.589599,-3.729983,-3.511679,-3.084446,-2.390482,-1.860809,-1.095973,-0.7004369,-0.437888,0.3426159,1.138806,1.513503,2.033173,2.319303,2.627547,2.944391,3.525465,3.625243,4.205587,4.438889,5.025186,5.796311,5.831092,6.164873,6.87748,7.39012,7.769859,8.451069,9.442538,9.800626,10.57436,11.33761,12.37099,13.53613,13.62566,14.03632,14.69058,14.87939,15.53784,15.24003,15.77092,16.05494,15.86592,15.92913,15.07019,14.60586,14.76399,14.37842,13.52346,13.02343,12.56069,12.82946,12.95297,12.34674,12.25112,12.65471,12.52733,12.60546,12.34868,12.4479,11.97921,12.10116,12.15417,12.34644,12.5399,12.18086,12.14158,11.72857,11.84392,11.97485,11.72992,11.83832,11.98829,11.79851,12.27833,12.3,12.4501,12.57588,12.39817,12.09626,12.5481,12.27551,12.7731,12.39288,12.68769,12.3696,13.24054,13.52362,13.01814,13.2548,12.89462,13.03801,12.37184,11.99508,11.60013,11.24544,10.39298,9.543703,8.789808,7.988892,7.010064,6.214753,5.758862,4.896575,4.25763,3.082362,2.77543,1.684403,0.5211902,0.03960437,-0.9952661,-1.678346,-2.876802,-3.353999,-4.243522,-5.196457,-5.691839,-6.512816,-7.355794,-7.731739,-7.993747,-8.404053,-8.968152,-9.627098,-9.923358,-9.614029,-9.986712,-9.880292,-9.835785,-9.777911,-9.407168,-8.964808,-8.925205,-8.110936,-7.496563,-6.532258,-5.381069,-4.31648,-3.317196,-2.727509,-1.476953,-0.09917937,1.013137,2.03596,3.006971,4.468768,5.656942,6.781931,7.568774,9.062986,10.59623,10.93207,11.55252,12.27622,13.3069,14.97598,15.70751,16.48588,17.53074,18.79565,19.45832,20.38246,21.54272,22.42488,22.86626,24.01715,24.29369,24.9883,25.65654,25.80313,26.45517,27.03302,27.33581,27.51689,27.52034,27.16348,27.27005,26.76757,26.49725,25.78537,25.68337,24.9499,24.3565,23.42158,22.7148,21.62383,21.30938,20.50321,19.30722,18.33764,17.73411,16.85814,16.18285,15.05845,14.20243,13.05759,12.33498,10.83574,9.19,7.742636,6.321814,4.981169,3.57589,2.167517,0.4941649,-0.8756658,-2.596412,-3.589712,-4.926344,-6.225354,-7.614207,-8.26713,-9.574902,-10.50149,-11.89812,-13.17108,-13.62742,-14.63715,-15.80743,-16.58177,-17.68903,-18.09865,-19.27431,-19.77396,-21.01347,-21.7625,-22.04358,-22.84943,-23.45933,-23.48337,-23.95994,-24.56821,-24.86678,-25.16777,-24.91789,-25.57022,-25.75423,-25.34719,-25.5348,-25.15184,-24.72014,-24.54508,-24.22523,-23.54021,-23.26542,-22.71604,-22.33952,-21.84727,-22.22434,-21.30998,-20.18149,-19.82701,-18.97752,-18.61852,-18.49948,-18.06356,-18.1786,-18.21971,-18.79171,-18.85822,-19.87101,-20.44326,-20.1647,-20.71187,-20.81249,-21.33456,-21.96785,-22.05675,-22.19523,-22.78368,-23.29768,-23.25547,-23.61462,-23.34898,-23.84988,-23.49196,-23.07372,-22.91924,-22.90046,-23.23824,-22.76403,-22.96227,-22.70366,-22.55219,-22.58981,-22.71467,-22.31619,-21.95243,-21.56964,-21.30433,-20.84361,-20.71601,-19.96901,-19.14012,-18.4724,-17.83991,-16.64305,-16.16697,-15.40525,-14.034,-13.28527,-12.38469,-11.5148,-10.27689,-9.876249,-8.71503,-7.819806,-6.719254,-5.640063,-4.75154,-3.784079,-2.72956,-1.526635,-0.3452951,0.6822482,1.96331,2.974419,4.174066,5.035739,6.26438,7.084753,7.985149,8.751105,10.0695,10.97877,11.93669,12.9374,12.97922,13.89481,14.75014,14.89617,15.2538,15.83954,16.44083,16.74824,17.23532,17.43322,17.31593,17.54261,17.48483,17.30436,17.69429,18.17823,18.00523,18.47396,18.26035,18.63956,18.80731,19.19055,19.25207,19.83799,19.65852,19.35288,19.6854,19.48122,19.64047,19.67826,19.41385,19.36139,20.21832,20.31773,19.7515,20.19962,19.74336,19.7863,19.66558,19.36555,18.839,18.37932,18.42496,17.88366,17.37904,16.88832,16.41773,16.17205,15.6715,14.52748,13.43043,13.09962,12.25225,11.446,10.96006,10.76671,10.56272,10.13749,10.00453,10.23641,9.143141,8.575938,8.898817,8.800862,7.601158,6.923609,6.804974,6.179396,4.887595,4.506446,3.40791,2.363106,1.589986,0.6640568,-0.5467597,-2.02452,-2.933172,-3.885788,-5.040381,-5.732917,-6.625989,-6.848426,-7.191088,-7.588707,-7.917725,-7.939048,-8.01064,-8.487923,-8.45126,-8.802271,-9.037721,-8.896429,-9.24877,-9.444742,-9.37999,-9.444722,-9.443698,-9.996738,-9.854213,-10.58647,-10.49598,-10.88925,-11.05896,-11.31267,-11.60876,-11.56154,-11.6343,-11.96846,-12.40537,-12.86497,-13.12764,-12.71452,-13.10757,-13.04027,-12.95158,-12.52872,-12.93253,-12.97433,-13.13703,-13.11339,-13.51371,-12.90359,-12.36993,-11.70405,-11.07951,-10.70926,-10.22053,-9.423591,-9.197791,-8.583034,-8.110821,-7.079667,-6.642268,-6.072218,-6.140573,-5.525262,-4.532581,-4.225653,-3.512239,-3.275418,-2.952786,-1.895156,-1.106002,-0.2674174,0.3183047,1.277238,1.59266,2.562203,3.053479,3.555342,3.98141,4.610058,5.498626,5.548669,6.206332,6.732279,7.17959,7.306854,7.87284,7.464188,8.113803,8.74704,8.986442,9.549182,10.61577,10.99307,11.39021,12.22052,12.64228,13.36877,13.10013,13.91145,14.52694,14.24852,13.75955,14.13569,14.20343,13.50907,13.13815,13.22978,12.29077,11.95457,11.327,10.71045,9.506528,9.196831,9.41171,9.063432,8.79581,8.877617,8.940312,8.754365,8.669673,9.030666,8.714807,9.214076,8.815985,9.066558,8.990621,8.929811,8.880152,9.032415,8.8899,9.095219,8.831285,8.421472,8.060128,7.515836,7.701857,7.365426,7.420784,7.401913,7.811599,7.708584,7.901295,8.362608,8.445571,8.799172,9.375264,9.427101,10.03125,10.34835,10.68094,11.37726,12.12828,11.92645,12.06846,12.37446,12.83909,13.25449,12.93096,13.75037,13.66968,13.50212,13.60473,13.1399,12.94506,12.66106,12.32502,12.22453,11.72953,11.52035,10.64287,10.12436,9.840359,8.987787,8.421496,7.472798,6.7624,5.878479,4.980722,4.153193,3.484564,2.562611,1.53934,0.4538536,-0.7110927,-1.407722,-2.55564,-3.806655,-4.360146,-5.44525,-6.617835,-7.175127,-7.977929,-9.127422,-10.01669,-11.09811,-11.74494,-13.30252,-13.86896,-14.94851,-15.81527,-16.44374,-16.85858,-18.01239,-18.2327,-18.74952,-19.22578,-19.51788,-20.2558,-20.27869,-20.40356,-20.76311,-20.66338,-20.73543,-21.08596,-21.28433,-21.11564,-21.56128,-21.22313,-21.18705,-20.59332,-20.3959,-19.96498,-19.24229,-18.84292,-18.97333,-18.49989,-18.13687,-17.43323,-17.37306,-16.39687,-15.78483,-15.431,-14.97362,-14.01109,-13.12598,-12.87786,-12.37038,-12.03697,-11.93535,-12.23542,-11.77466,-12.47899,-12.38641,-12.37486,-12.48354,-12.08503,-12.13878,-12.35758,-12.03748,-12.73437,-12.83282,-12.70031,-12.5633,-13.12624,-13.37529,-13.4292,-13.3692,-13.09565,-13.11223,-13.1988,-12.97258,-12.976,-13.49934,-12.98247,-12.73116,-12.69143,-12.46633,-12.37881,-12.09651,-12.23411,-11.63016,-11.35821,-11.16367,-10.3834,-9.943303,-9.328347,-8.64911,-8.048478,-7.237199,-6.751994,-6.628161,-6.053296,-5.099722,-4.160877,-3.520579,-2.633842,-1.443831,-0.762299,0.2806486,1.428216,1.627237,2.924237,3.944315,5.149164,5.881222,6.60428,7.511552,8.796189,9.446891,10.09752,11.35275,11.6154,12.56367,12.91684,13.8282,14.44081,15.05682,15.81266,16.37973,16.6572,17.1429,17.54811,18.02976,17.9737,18.4178,18.22224,18.16481,18.07439,18.45006,18.25509,17.47291,17.33694,16.87391,16.31191,16.16505,15.47639,15.34566,15.43637,14.72726,14.69365,13.8256,13.40068,13.01873,12.36266,11.78017,10.94548,11.11267,10.46396,10.07634,10.22634,9.314044,9.42806,9.583767,10.05478,9.101165,8.821525,8.770915,8.804514,8.767956,8.387228,8.530408,8.537484,8.833189,8.097787,7.553438,8.061931,7.885256,8.045722,7.740124,6.699319,7.196585,7.56679,7.537018,6.724198,6.508226,6.914584,7.326626,6.876409,6.522631,5.649147,5.945746,6.055279,6.057687,5.527014,5.185116,5.331583,5.724646,5.557674,4.690512,4.562739,4.63595,4.67486,4.694788,4.587504,3.439614,3.356304,3.490748,3.36267,2.980068,1.742677,1.640438,1.848331,2.512361,2.202754,1.531655,1.506029,1.817877,1.713422,1.592522,0.8909602,0.5256815,1.287304,0.5745598,0.05260457,-0.6978423,-0.763874,-0.6930067,-0.3160032,-0.4039604,-1.111821,-0.535327,-0.3844792,0.03655543,0.05338326,0.08074896,-0.1811732,0.8231637,0.7709582,0.6883248,0.1070366,-0.2540131,-0.189424,0.08454348,-1.108803,-0.7872425,-1.357531,-1.168557,-0.7740092,-0.8452552,-1.540698,-2.102732,-1.505118,-1.244265,-1.873653,-1.808436,-2.657769,-2.345637,-2.062273,-2.432695,-3.007355,-3.561461,-3.146274,-3.170217,-3.873135,-4.854264,-5.456503,-5.062592,-5.484682,-5.825146,-6.592436,-7.738623,-7.330027,-7.464093,-8.216261,-9.215195,-10.16208,-10.57535,-10.9747,-11.31076,-11.72531,-11.5207,-11.17199,-11.41703,-11.03181,-10.31746,-9.257694,-9.149428,-8.618979,-8.710868,-7.678849,-6.613176,-6.311031,-6.633645,-5.566225,-5.33297,-4.919947,-4.368222,-5.09295,-4.869749,-4.888229,-4.399287,-4.942697,-5.534834,-5.729411,-5.48755,-5.216109,-5.308846,-5.989476,-5.815725,-5.535274,-4.875201,-5.15842,-5.133487,-4.919979,-5.154707,-4.382542,-4.165093,-4.35994,-5.077172,-5.215364,-4.479199,-5.18383,-5.444995,-6.168332,-6.384016,-6.547264,-7.293217,-7.380498,-8.377586,-9.274462,-9.389135,-9.554026,-10.89548,-11.08144,-11.71847,-12.394,-12.80818,-13.4612,-13.71311,-13.90402,-13.00502,-13.45264,-13.37585,-13.32455,-12.85646,-12.14164,-11.45861,-11.44359,-11.35583,-10.75251,-9.75821,-8.718615,-7.82613,-7.063046,-5.392769,-3.542365,-2.246206,-0.8384858,-0.3201502,0.8112119,2.85159,4.954534,5.709551,6.594564,8.106256,9.504691,10.92411,12.45174,12.77476,14.00283,15.51444,16.33175,16.76257,17.29563,17.73472,18.34659,18.92057,19.06545,18.35304,18.22786,18.0001,18.35091,17.33282,16.34177,15.71658,15.12832,15.58966,15.35749,15.20925,14.62309,14.38098,14.33132,13.99589,13.54,12.74104,12.76389,11.70476,11.68538,10.88627,10.91899,10.04046,9.222166,8.722937,8.240329,6.261837,5.787403,5.120768,3.49717,2.236208,1.59612,0.1962367,-0.4941901,-0.9867053,-1.970675,-1.976566,-2.269807,-2.604446,-2.998663,-2.661029,-3.197746,-2.572423,-3.137018,-2.418554,-2.587012,-2.295983,-1.800685,-1.939992,-1.676222,-1.832306,-1.465121,-0.8663416,-0.7436665,-0.4108273,-0.04054991,0.3878334,0.4043902,0.7737295,1.55653,1.191637,0.4452411,0.9834481,0.9970999,0.01369171,0.2281972,-1.002932,-0.6934907,-0.3924996,-0.607794,-0.4448444,-0.7087945,-0.3157254,-0.8914581,-0.4270725,-0.8391187,-0.870886,-0.8480551,-1.235787,-1.072689,-1.318713,-0.9085737,-1.504535,-0.2036367,-0.03458241,0.08686945,-0.0372794,0.4166213,0.1659397,0.03905041,-0.3728798,-0.0872123,-0.004421564,-0.2626816,-1.022883,-1.277362,-1.673454,-2.312411,-2.29671,-2.980204,-3.816135,-3.591062,-4.516784,-5.39881,-5.143275,-5.839565,-6.334485,-7.272667,-7.16719,-7.160901,-7.831346,-8.126607,-8.184462,-7.722142,-8.524202,-7.932922,-8.308078,-8.56249,-8.17953,-8.644961,-8.796513,-8.593822,-8.684717,-8.612358,-8.553236,-8.191564,-8.213782,-7.614472,-7.674346,-6.309938,-6.437853,-5.746002,-5.629114,-5.794728,-4.957737,-4.759389,-4.438371,-4.125247,-3.29377,-2.964375,-2.672679,-1.902929,-1.922997,-0.9378377,-0.8971217,-1.009324,-0.2342504,-0.3113014,-0.08398421,0.3860551,0.6023221,0.6224326,0.7650655,0.393705,1.022039,0.6949714,0.9525321,1.13123,0.9785548,1.420907,1.585168,1.93374,2.410753,2.354228,2.806165,2.676101,3.267573,2.82981,2.573117,2.586141,2.139586,1.789984,1.938012,1.2714,0.5938098,1.030373,-0.04052739,0.2255837,-0.248614,-0.8360846,-0.8788926,-1.697065,-1.872482,-2.444841,-2.549446,-3.336098,-3.226474,-3.288393,-3.743273,-3.364795,-3.546902,-3.467229,-3.409722,-2.520684,-3.190821,-3.123112,-2.745364,-2.467009,-2.241553,-2.518969,-2.412863,-2.502487,-2.234531,-2.206564,-2.540327,-2.487905,-2.165191,-2.572285,-2.25703,-2.499097,-2.632872,-2.282251,-3.199564,-2.875099,-2.306868,-3.060325,-2.626333,-3.354822,-3.053821,-2.749754,-3.381201,-3.190439,-3.26251,-3.500822,-3.799963,-2.909206,-3.94606,-3.302137,-3.780989,-3.433069,-3.641728,-3.120846,-3.607604,-3.326549,-3.270173,-2.683423,-3.107467,-2.384776,-2.40837,-1.623654,-1.429406,-1.312115,-0.9771592,-0.6489663,0.1364387,0.3396822,0.7757664,1.028957,1.99138,1.869577,2.117874,2.544222,2.780931,3.388545,2.977258,3.008072,4.232559,3.990404,4.146787,4.421021,4.776453,4.315716,4.431799,4.34817,5.045558,5.331729,6.003749,6.15722,6.399495,6.915772,7.338175,7.626445,8.296386,8.518613,9.231409,9.368552,9.693142,9.770764,10.08422,10.16033,10.67293,10.71432,10.60332,10.95535,10.75489,11.73237,11.08051,11.12853,11.4705,11.1783,11.32107,11.01172,11.37593,11.25471,11.32856,11.35018,11.63223,11.58718,11.20882,11.31417,11.45506,11.47426,11.62485,11.75582,11.90653,12.01843,11.39703,11.48509,11.50631,11.48308,12.0391,12.14573,12.81862,13.09519,13.49761,14.14008,14.93723,14.99142,15.62175,16.17832,16.46366,17.10395,17.50217,18.19804,18.40936,18.40319,19.0523,18.43833,19.2268,19.75465,19.28843,19.8754,19.79448,18.98054,19.84988,19.62299,19.02253,18.87256,17.92873,18.03197,17.10522,17.11521,15.93871,15.22038,14.93772,14.60574,13.27576,12.9403,11.68716,10.93747,10.01654,8.733393,7.52597,6.646245,5.303273,4.205948,3.190816,2.115578,0.8839808,-0.4686223,-1.906541,-2.947334,-4.235918,-5.345123,-6.823728,-7.981856,-9.107585,-10.9938,-11.65519,-12.94497,-14.1672,-15.67957,-16.31351,-17.85717,-18.7154,-19.62847,-20.72228,-21.82853,-22.171,-22.97981,-23.38168,-23.80778,-24.40747,-25.13632,-24.82286,-25.12571,-25.80913,-25.39639,-25.64835,-25.36349,-25.16684,-25.63644,-24.8602,-24.73972,-24.58635,-24.0017,-24.16314,-23.77359,-22.72106,-22.88138,-22.46428,-21.95057,-21.61011,-21.12675,-20.19654,-20.10574,-19.58473,-19.1109,-19.27509,-17.75119,-17.13788,-16.99846,-16.73166,-16.118,-16.15321,-16.26657,-15.96188,-15.25035,-15.8734,-15.28794,-14.78615,-14.96497,-15.96723,-15.34018,-15.38274,-14.96694,-14.99174,-15.20341,-14.89338,-14.5605,-14.44225,-14.49626,-14.14727,-14.40365,-14.2151,-14.09215,-14.31047,-13.76275,-13.7941,-13.65463,-13.73655,-13.35705,-13.5782,-13.79356,-12.99239,-13.0565,-13.06181,-12.73661,-12.80761,-12.23924,-11.68679,-11.13497,-10.83862,-10.25738,-9.747498,-9.119337,-8.8885,-7.929561,-7.631942,-6.766655,-6.685719,-5.575295,-4.74214,-3.503452,-3.175848,-1.723511,-1.430193,-0.02977312,-0.2060518,1.342505,1.889996,2.7584,3.085749,3.71757,4.328991,4.769576,5.528367,6.085178,6.509938,6.770055,7.111082,8.009212,8.327437,8.889561,9.668738,10.34039,10.79814,11.52122,11.94706,12.3016,12.86637,12.41532,13.42697,13.73563,14.34323,14.73096,14.81917,15.57755,15.82704,15.83811,16.31213,16.59755,17.10407,16.80462,16.7759,16.52645,17.10615,17.15629,17.23839,17.02924,17.30158,17.65358,17.51004,17.8796,18.71423,18.84859,19.49853,19.9475,20.58227,22.15347,21.39998,22.08004,22.56617,23.1162,23.12629,23.19657,23.62366,23.4227,23.36349,23.96477,23.64742,23.42844,23.13224,24.50755,24.22306,24.38617,23.98043,24.28735,24.13078,24.26793,24.06595,24.07119,23.61789,23.76764,23.63205,22.55934,22.1994,22.14163,20.94107,21.13438,20.01183,19.45047,19.34506,18.54011,17.91055,17.80229,16.96262,16.8204,15.93914,16.10237,15.73476,15.41212,14.62219,14.25127,14.0176,14.05078,13.46179,12.87399,12.63478,12.36747,11.89526,12.58326,11.93617,11.74992,11.4257,11.51238,10.62864,11.46198,9.922848,10.60761,9.618994,9.321158,8.461025,8.296795,7.995241,7.054715,6.455736,5.901791,5.325503,4.977785,4.518131,4.454862,3.717972,3.33127,3.368613,2.470208,2.447505,2.109624,1.164597,1.132041,0.6478678,0.04613133,0.4317719,-0.3284118,-0.2131105,-0.7966915,-1.44823,-1.778085,-1.984109,-2.768287,-2.575926,-3.719658,-4.122538,-4.515838,-4.806726,-5.491725,-5.621719,-6.078416,-6.717609,-6.928893,-7.339222,-7.815576,-8.37014,-7.949664,-8.205914,-8.714526,-8.976071,-9.040272,-9.080744,-9.22309,-9.886639,-9.285594,-9.634351,-9.660836,-9.928098,-9.744311,-10.42617,-10.5804,-10.82035,-10.8999,-11.12821,-11.32373,-11.5791,-11.87468,-12.31283,-12.54173,-12.88113,-12.7529,-13.25912,-12.94742,-13.45215,-13.19137,-13.7463,-13.58003,-13.88016,-14.1528,-13.90099,-13.77769,-14.32254,-14.91276,-15.33258,-15.16118,-14.87223,-14.82207,-14.6582,-14.52009,-14.44225,-14.44139,-14.06761,-14.31315,-13.86917,-14.41927,-14.86903,-14.89291,-14.35412,-14.9062,-14.92501,-14.8217,-13.68853,-12.60466,-12.13404,-11.60161,-11.27126,-10.53483,-10.61106,-10.89049,-10.43401,-10.41454,-11.3578,-11.14687,-11.85568,-12.46076,-12.62609,-13.72894,-14.30399,-14.86693,-15.38552,-15.78578,-17.18446,-16.77612,-17.93224,-18.47399,-18.83426,-19.31889,-19.53737,-20.63572,-20.30057,-20.90981,-21.49712,-21.71242,-21.86151,-22.21751,-22.23307,-22.50699,-22.49617,-22.57703,-22.72647,-21.95748,-21.71943,-21.76306,-21.03747,-20.82935,-20.37136,-20.0026,-19.77669,-19.67677,-18.48135,-17.86237,-17.27963,-15.77223,-15.10824,-13.66053,-11.94199,-10.43268,-9.090634,-7.078667,-5.623993,-3.859718,-1.648528,-0.5438667,1.106546,2.787712,3.998826,5.312176,6.785457,7.837666,8.609195,10.11355,11.34692,11.92153,12.91114,13.74645,14.35275,14.52331,15.47283,15.83304,15.98639,16.35959,16.10625,16.34147,15.6477,16.17978,15.33312,15.37026,14.90246,13.53044,13.15433,11.80745,10.54442,9.917521,9.131045,7.637309,7.198836,5.737442,4.139952,2.661995,1.506453,-0.6587785,-1.952005,-3.792038,-5.415497,-7.213092,-8.12236,-8.995531,-9.932783,-10.72809,-10.85666,-11.12284,-11.06021,-11.44137,-12.464,-13.00136,-13.25478,-14.04488,-14.01966,-14.39624,-14.43242,-14.59106,-15.24197,-14.9434,-14.86512,-14.64931,-14.77677,-15.18035,-14.01703,-14.06435,-13.82557,-13.40345,-13.33959,-11.90775,-12.20063,-11.68193,-11.03662,-10.62864,-10.41731,-9.82031,-9.388343,-9.432116,-8.580366,-8.758006,-8.079523,-8.04924,-7.56221,-7.080234,-6.848889,-6.481184,-6.234905,-5.656052,-6.285657,-5.992391,-6.199619,-6.19959,-6.687643,-6.494,-6.910126,-6.716377,-6.239535,-6.378376,-5.84679,-5.496442,-6.194283,-5.530413,-5.135286,-5.510655,-5.053597,-5.376444,-5.38983,-5.394689,-5.421899,-5.697595,-5.821771,-4.714344,-5.005135,-4.653327,-4.63304,-4.636831,-4.434112,-4.516128,-4.600027,-4.786351,-4.820836,-4.867989,-5.381931,-5.357894,-5.546082,-5.813044,-6.330025,-6.668886,-6.96934,-7.136852,-7.677602,-7.631385,-8.082709,-8.211809,-8.074315,-8.458439,-7.904058,-8.541182,-8.182249,-8.285124,-8.779105,-8.742037,-8.057408,-8.380202,-7.838384,-7.728711,-7.508779,-7.072958,-6.499112,-6.264312,-6.131471,-5.036101,-4.486998,-4.115134,-3.790331,-2.549566,-2.377229,-1.810394,-0.667481,-0.481053,0.7120931,1.96852,2.82878,3.682121,5.323392,5.84215,6.86632,8.161641,8.640805,10.53502,11.4894,12.63336,13.64859,15.02055,16.63183,17.55428,18.7967,20.14854,20.90753,21.27835,21.51375,22.7575,23.70393,24.28228,25.76015,26.54405,27.43205,28.28955,29.14491,29.61764,30.58888,31.05717,32.08989,31.94804,32.25736,32.21846,32.27078,32.75858,32.33844,33.07479,32.65933,32.97236,32.57886,32.73792,32.08806,33.10723,33.06423,32.10772,31.62303,31.24457,29.77975,29.61329,28.80378,26.91805,25.66257,24.36903,23.93958,22.35389,21.94659,20.98769,20.07142,19.80242,18.15966,17.42779,16.79988,15.85715,14.55717,13.76061,12.24977,11.9738,10.92064,10.07124,8.890368,8.22773,7.548693,6.55221,5.322314,4.790353,3.766928,3.00894,2.540854,1.937581,1.474376,0.7639007,0.3811151,-0.122696,-0.2210797,-0.7564989,-1.297817,-1.151271,-1.644141,-1.405097,-1.66145,-1.581081,-1.588114,-1.421169,-1.435341,-1.344992,-1.800324,-1.232448,-1.490026,-0.7877714,-1.059446,-1.179164,-0.8429218,-0.7954892,-1.041595,-0.9163354,-0.8799927,-0.951476,-0.4942808,-0.797511,-0.638543,-0.6452982,-1.045884,-0.7776157,-0.9558456,-0.7466293,-0.7441973,-0.204929,-0.3901781,-0.1322608,-1.039169,-0.3790622,-0.7471054,-1.416728,-1.176957,-1.89529,-2.060949,-2.616907,-2.263761,-1.779626,-1.929042,-2.133666,-2.132778,-2.834132,-2.870929,-2.811122,-2.98859,-2.823358,-3.31086,-2.895471,-2.810097,-3.53168,-3.306963,-3.267754,-2.582534,-2.362804,-2.713531,-2.073941,-1.937905,-1.500028,-0.8421393,-0.4136093,-0.07763372,0.5485877,0.4257483,-0.09969937,0.5230929,-0.06481354,-0.4140019,-0.3292901,-0.8222478,-1.853893,-1.514801,-1.834836,-1.584748,-2.073851,-1.835162,-1.895366,-1.848808,-2.427185,-1.894509,-2.746077,-2.319773,-3.775509,-3.454631,-3.51528,-3.919378,-3.810033,-4.42373,-4.614458,-4.684433,-4.976995,-5.115549,-5.780747,-5.973717,-6.170414,-6.199408,-6.062749,-6.4739,-6.84105,-6.449225,-6.750506,-6.875717,-6.305744,-6.704273,-6.465061,-6.271507,-5.98509,-5.832328,-5.296763,-5.353077,-4.855853,-4.649378,-4.325632,-4.216143,-3.747517,-2.965941,-3.141862,-2.878592,-2.354711,-2.525783,-2.121717,-2.360184,-2.770473,-2.255416,-2.516484,-2.112318,-2.402151,-2.66366,-2.23532,-2.048832,-2.195481,-2.16794,-1.680505,-1.415109,-1.524295,-1.55761,-0.9196128,-1.75068,-1.527535,-1.783711,-1.132483,-1.531362,-1.192867,-0.6196413,-1.370404,-0.7237351,-0.9446739,-0.8158508,-0.914869,-0.9123457,-1.5213,-1.226115,-0.8245516,-0.9056947,-0.3932153,-0.8940871,-0.2456096,-0.1078319,0.04555711,-0.1193069,-0.43269,-0.4745751,-0.08479951,-0.3531209,-0.8616351,-0.7265363,-0.7841864,-1.473121,-1.839243,-2.013369,-2.682358,-2.78537,-2.694858,-2.566074,-3.127257,-2.977243,-3.001148,-2.235445,-2.944495,-3.116476,-3.007538,-2.790865,-3.120176,-2.963037,-2.517536,-3.036518,-2.925099,-3.536025,-3.203202,-3.966615,-4.100645,-4.056078,-4.695912,-4.42413,-4.783332,-5.605849,-5.816228,-6.13433,-6.606696,-6.950639,-7.236338,-6.599001,-7.447828,-7.85108,-8.0739,-8.227945,-8.825797,-10.09974,-10.1721,-10.74591,-12.2446,-12.49561,-13.11738,-13.93094,-14.11583,-15.03929,-16.0015,-16.14134,-17.32704,-17.17265,-18.29021,-18.11838,-18.97862,-19.08639,-19.09454,-19.29803,-19.98999,-19.53179,-19.72793,-19.76987,-19.56408,-19.77769,-19.52332,-19.08001,-18.62884,-18.20524,-18.18899,-17.42758,-16.37552,-16.10889,-15.47579,-14.70078,-14.23611,-12.97332,-12.71442,-11.47653,-10.25082,-9.983867,-8.132268,-7.428068,-6.349826,-4.707964,-3.677334,-2.488274,-1.790834,-0.1585386,0.6119492,1.605971,2.682656,4.218572,5.245122,6.180573,7.414965,8.435066,9.243852,10.08344,11.88054,11.85284,12.75574,13.13198,14.08685,14.63334,15.00251,15.29591,15.41777,15.6931,15.39079,15.42168,15.89324,15.73181,16.11402,16.38372,17.08326,16.63823,17.23318,17.09856,17.55933,16.70926,17.16246,16.67368,16.76394,16.67289,16.2745,16.2591,16.10421,14.7816,15.16101,14.9625,14.67022,14.33483,15.36134,14.83996,14.81147,15.09069,15.68803,15.68613,16.56647,17.14831,17.98044,18.80708,20.06197,20.41169,20.21291,20.75917,21.36834,21.36386,21.6053,21.38682,21.88476,21.55925,21.32395,21.97196,21.3366,21.60852,20.74287,20.47054,19.8357,19.873,19.09696,18.7867,17.46235,17.35254,16.39202,15.41991,15.04438,13.85348,12.68497,12.19775,11.4173,10.3379,9.576205,8.212283,7.161639,6.688187,5.886014,4.359758,3.406672,2.603251,1.876403,0.8831771,0.1574627,-0.5683307,-1.058153,-1.648235,-1.959361,-2.276361,-3.194005,-3.607813,-3.786856,-4.620011,-4.960086,-5.521945,-5.662748,-6.620455,-7.132176,-7.241008,-8.113692,-7.964003,-8.354908,-8.569865,-8.972223,-9.043771,-8.949801,-9.317613,-9.643992,-9.468743,-9.581034,-10.13782,-9.71597,-9.749161,-9.126754,-9.847347,-9.193326,-8.686999,-8.905973,-9.253387,-9.450248,-8.711639,-9.183412,-8.453375,-7.267974,-7.229587,-6.230416,-6.209329,-4.695587,-5.032192,-3.810342,-3.454862,-2.394164,-2.722487,-1.633477,-1.631651,-1.653335,-1.079079,-1.273339,-0.6916279,-0.379467,-0.03475993,0.05661687,0.7922543,1.182224,0.6246742,1.68457,2.16147,2.134888,2.658589,2.9446,3.390543,3.712488,3.594428,4.178906,3.908783,4.341146,4.398886,5.199035,5.072069,5.714544,5.635381,5.748537,6.164511,6.397559,6.365596,6.10691,6.286602,5.701979,6.132587,5.539952,5.506241,4.926851,4.412655,4.515745,4.263606,3.918614,3.150968,3.695489,2.824239,2.515522,2.77257,2.129377,2.168324,1.577667,1.666722,1.165659,1.385045,0.9042477,0.4226264,0.6268788,0.4088332,0.06890148,-0.2321896,-0.3762709,-0.7984503,-0.6668236,-1.390444,-0.9730867,-1.848075,-2.2102,-1.842027,-2.20972,-2.791461,-2.640365,-2.982265,-2.542593,-3.546452,-3.590869,-3.633098,-3.865604,-4.024835,-3.991185,-3.962103,-4.292634,-3.931416,-4.3884,-4.894115,-4.645805,-4.855211,-4.959196,-5.146377,-5.601785,-5.391516,-6.378486,-6.1715,-6.465207,-7.478009,-8.280411,-8.734095,-8.879614,-8.953401,-9.661259,-9.277986,-9.445941,-9.995723,-9.964399,-9.703284,-9.867167,-10.32229,-9.354895,-9.963875,-9.916781,-9.850235,-9.99405,-9.707126,-9.862658,-10.06846,-10.05694,-10.32076,-10.33117,-10.23857,-10.29971,-10.5805,-10.81084,-11.15462,-10.75835,-11.7259,-11.86187,-12.08888,-12.44458,-12.61767,-14.15816,-13.22688,-14.39016,-14.24817,-14.86068,-15.39561,-15.26378,-16.51384,-16.91823,-17.51886,-17.83591,-17.27757,-18.41777,-18.73613,-19.4303,-19.81992,-20.46176,-20.852,-21.60701,-22.42337,-23.49001,-24.01713,-24.42871,-25.60583,-25.83851,-27.20341,-27.44018,-28.6525,-29.13063,-29.64713,-30.1322,-30.30051,-30.67361,-30.62211,-30.74318,-30.16366,-30.64653,-30.29188,-29.9473,-30.44521,-29.67826,-29.76883,-28.97033,-28.80817,-28.16518,-27.33642,-27.00625,-26.33566,-25.60836,-24.67712,-24.17507,-23.50002,-22.74225,-21.7676,-20.65425,-20.48596,-19.45107,-17.76788,-17.00449,-15.93526,-14.52506,-13.00592,-11.91058,-9.908562,-9.029817,-7.435644,-5.202084,-3.711501,-2.244043,-0.6432134,1.125881,2.567374,3.599599,6.230325,6.435091,8.401745,9.499597,10.7656,11.84347,13.31593,14.42597,16.06074,16.69208,18.18088,19.03743,20.47785,21.44569,22.05424,23.72989,24.20065,24.88452,26.33559,26.59667,27.84171,27.35545,28.39582,28.91889,29.19439,29.52842,29.33959,30.20506,29.57822,30.10063,30.40817,29.95065,30.09199,29.66548,27.70634,26.83459,26.32678,26.21424,27.10117,25.97372,27.37777,27.01298,28.04105,28.68839,28.92715,30.66819,31.73977,32.52414,33.96326,32.95129,34.69354,34.94612,35.63219,35.62292,35.73588,35.87398,35.61906,36.23087,35.41973,35.42098,35.01057,34.59754,33.75091,33.22545,31.86296,31.35516,30.4502,29.84315,29.41402,27.9861,27.11416,26.65439,25.36027,24.30382,23.40824,22.44704,21.4337,20.91574,19.80652,19.04798,18.03431,17.24003,16.50873,15.02153,14.04315,13.28967,11.62555,11.15632,9.7158,8.892579,8.352995,7.205697,6.532851,5.906051,5.317689,4.247019,3.530722,3.220864,3.129495,1.937848,2.138277,1.657097,1.22012,1.747548,0.9698728,0.4463397,0.9168122,0.2747706,0.4105119,-0.05973,0.255948,-0.5568333,0.1989716,-0.3361287,0.827714,0.4575101,1.533531,1.40235,2.441014,2.403477,3.490975,3.877906,4.57607,5.075476,5.102299,6.35492,6.343705,7.060302,7.825839,7.729664,8.638157,8.093904,8.896382,8.844499,9.059011,8.694244,8.66064,8.550591,7.547969,7.628066,6.125262,5.383532,4.069734,2.626303,1.590937,1.555726,1.949526,1.749719,1.41127,1.541035,1.278571,1.462066,1.350901,1.038273,1.295976,1.776542,0.83589,1.042591,1.668937,0.9789895,1.383651,0.9330175,0.7716833,0.7459627,0.6478328,1.199189,0.5333214,0.9916275,-0.2141644,0.4683929,-0.5011437,-0.7833572,-0.9304446,-1.70946,-1.746652,-2.208642,-2.478289,-2.841338,-3.370416,-4.049251,-3.936635,-4.037102,-5.095128,-4.901382,-5.288121,-6.327516,-5.760921,-6.55843,-6.613053,-7.082049,-7.178918,-7.821353,-7.863882,-8.250666,-8.54211,-8.359529,-8.906701,-8.355123,-8.74239,-8.473199,-8.614078,-8.450731,-8.680183,-8.533747,-8.473032,-8.631263,-8.815801,-8.390581,-8.64169,-9.143701,-8.627832,-9.02364,-9.409598,-8.892169,-9.799872,-9.80661,-9.640565,-10.49926,-10.57542,-10.90384,-10.91625,-11.14537,-11.06204,-11.29675,-11.09421,-11.93293,-11.60026,-12.05894,-12.29637,-12.27431,-12.53613,-12.97949,-13.63899,-13.60216,-14.39502,-14.21082,-15.06421,-15.04133,-15.74607,-15.71302,-17.50172,-17.92022,-18.24075,-18.85524,-18.86782,-19.82423,-19.72487,-20.42366,-20.12257,-20.09221,-20.80486,-20.5478,-20.73994,-20.19202,-20.49819,-20.73525,-20.16,-20.47502,-20.20207,-19.79263,-20.10089,-19.78463,-19.71433,-19.44955,-19.05519,-19.00228,-19.33421,-18.67158,-18.43944,-19.03605,-19.10553,-18.74057,-18.46701,-18.61804,-18.54782,-18.33234,-18.69741,-18.27725,-18.67694,-18.4269,-18.98367,-18.23186,-18.55771,-18.60323,-18.3842,-18.96067,-18.94754,-19.04357,-18.94714,-19.12808,-19.08104,-19.78982,-19.79207,-19.67483,-19.74517,-20.39918,-18.99131,-20.42934,-20.08337,-19.34083,-19.10856,-19.06292,-18.58748,-18.6047,-19.12646,-18.55781,-18.69971,-18.67751,-18.57081,-18.48824,-18.75391,-18.45337,-18.55365,-18.56026,-18.64002,-18.66685,-18.41929,-18.18465,-17.922,-17.60731,-17.24365,-16.56939,-16.18411,-15.68206,-15.26431,-14.69991,-14.14968,-13.75216,-13.08242,-12.08827,-11.68304,-10.71348,-9.952238,-8.804135,-8.148153,-6.992115,-6.015563,-4.88929,-4.532999,-2.155557,-2.60243,-1.351742,-0.4874751,0.5941477,0.7782603,2.46041,2.1525,3.702477,3.840376,3.856612,4.31014,5.832645,6.101204,7.370278,8.041104,8.981797,9.425133,10.4639,11.68551,12.16927,13.03068,13.95585,14.88044,15.83079,16.44457,17.46422,18.48356,18.67191,19.98972,20.52741,20.90875,21.85002,22.51327,22.69683,23.86068,23.8188,24.54474,25.2303,25.84564,25.69834,26.24424,26.89453,27.28106,27.62388,27.67653,28.21383,28.25796,29.13482,28.86298,29.28696,29.67008,30.0815,29.4653,30.13083,29.94706,30.09596,29.94016,30.6195,30.37528,30.36396,30.693,30.78417,31.25193,31.07058,31.50223,31.36884,32.17025,31.18086,31.84376,32.40819,31.70629,31.39655,31.01625,30.80999,30.02108,30.26817,29.45203,28.91496,28.48861,27.97304,26.84124,27.13381,25.82118,25.23227,24.59712,24.24673,23.3565,22.77149,22.09882,21.47143,20.85162,20.13212,19.47945,18.29072,17.87169,16.84471,15.99336,15.12134,14.58319,13.83675,13.30894,12.63099,11.78259,11.58313,10.41255,10.06718,9.786112,9.115905,8.65428,8.744735,7.292107,7.577831,7.219817,6.746672,6.66271,6.063308,5.575426,5.467151,4.647282,4.13862,4.065434,3.943279,3.437083,3.070505,3.012,2.536638,2.451384,2.677608,1.963212,1.924567,2.055549,1.641,1.69366,1.963665,1.657912,1.797438,1.950189,1.311722,1.863948,1.38482,1.830384,1.370014,1.305865,1.024195,1.535045,0.5091463,1.37162,0.43492,0.7336486,0.1214091,0.1023478,0.5564228,0.0003025897,-0.1256045,-0.5407008,-0.2026698,-0.517267,0.1459502,-0.9204751,-0.4748292,-0.6086381,-0.9781966,-1.33117,-0.5081195,-1.53896,-1.058747,-1.389072,-0.9382208,-1.636794,-1.779008,-1.697228,-2.071933,-2.637766,-2.426753,-3.285989,-3.282514,-3.609477,-4.428073,-4.367708,-4.950992,-5.812319,-5.395215,-7.002698,-6.853762,-7.987008,-8.118153,-9.089536,-9.568893,-9.462863,-11.00018,-10.94913,-11.31516,-11.7084,-11.78054,-12.06366,-12.95506,-13.45464,-13.49031,-13.61391,-13.98587,-13.83998,-14.24316,-13.61724,-14.11588,-14.28009,-14.60613,-14.31572,-14.25996,-13.95546,-14.43961,-14.27055,-13.80015,-14.47668,-13.70673,-14.26607,-13.14792,-13.4491,-13.3348,-13.25473,-13.04625,-13.48931,-12.98972,-12.97034,-13.05909,-12.93404,-13.61239,-13.52385,-13.69228,-13.61117,-14.42864,-13.96407,-14.06385,-14.91508,-14.38162,-14.8746,-15.18506,-14.80164,-15.20539,-15.22071,-15.45884,-14.91119,-15.15662,-14.627,-15.49141,-15.10042,-14.99786,-15.10156,-15.28918,-15.36337,-15.28881,-15.27311,-16.03993,-15.60704,-15.43874,-15.60032,-16.10253,-15.51445,-16.09157,-15.29467,-15.78391,-15.3497,-15.27821,-15.28343,-14.75982,-14.44673,-14.27318,-14.12435,-13.18212,-13.9307,-12.89874,-12.66834,-12.7229,-12.95313,-11.79729,-12.76591,-12.13095,-12.10271,-12.33366,-12.42972,-12.32066,-12.52301,-12.56835,-12.08362,-12.51569,-12.16134,-12.02074,-12.77376,-10.89201,-11.59512,-11.2526,-11.78857,-10.80152,-12.45728,-12.12394,-12.19158,-12.71263,-13.34145,-13.00154,-13.7067,-14.49382,-13.50372,-14.55299,-13.98466,-14.81667,-15.26866,-16.06533,-15.48312,-15.35379,-15.35732,-15.06187,-14.86698,-14.93439,-14.0228,-14.32546,-13.78487,-13.25279,-12.21901,-11.99733,-11.44615,-10.84663,-9.629107,-9.156479,-8.89632,-7.817121,-6.604178,-5.928002,-5.407084,-4.349462,-3.716899,-2.639424,-2.147363,-0.9679832,0.07013442,0.4177112,1.324679,2.215327,2.434395,4.14853,4.265449,4.999247,6.387509,6.641284,7.517214,8.780489,9.145483,10.68938,10.76523,12.07866,12.5987,13.26931,14.05241,14.66528,15.57894,15.47467,17.0808,16.87717,17.76166,17.70609,18.39314,18.93448,18.86488,19.38856,19.48384,20.27112,20.0769,20.30085,21.36191,21.98911,22.06085,22.65297,23.14116,23.31542,23.96147,24.35261,24.26256,24.55195,24.80038,24.45614,24.21369,24.81029,23.8869,23.8187,23.4024,23.61641,22.51091,21.94341,20.9726,19.5245,18.95763,18.70915,17.99964,18.66701,18.30687,18.44935,19.41021,19.07687,20.13006,21.93859,20.65993,21.90106,21.37141,22.21895,21.76167,21.91761,22.69403,21.56802,21.79524,21.92033,21.5978,21.82999,21.63928,21.36751,21.35653,20.47799,20.06429,19.90723,19.57038,18.93907,18.13517,17.89945,17.04506,16.41416,16.03857,15.08463,14.85697,14.02383,13.28243,12.52117,11.50166,11.06321,10.22662,8.571779,8.279879,7.353902,6.706699,5.358911,4.729793,3.489681,2.863008,1.768969,0.9356159,-0.4218267,-1.299259,-3.362656,-3.200106,-3.963286,-5.615101,-5.461317,-7.360423,-7.696065,-8.177885,-9.041841,-9.699982,-9.974318,-10.61566,-10.99598,-11.90774,-11.58219,-13.0241,-12.84954,-13.08844,-13.34332,-13.53854,-14.3899,-14.16553,-14.71847,-14.03824,-14.79384,-14.26925,-14.13897,-14.26161,-12.98463,-13.51732,-12.20363,-12.3183,-11.21015,-10.05035,-9.532559,-8.877521,-7.860524,-6.929762,-6.166427,-5.257204,-4.143677,-3.480191,-2.140855,-1.581806,-1.116579,-0.05525121,0.4916164,1.126968,1.821483,1.408371,1.768476,1.853565,1.823146,1.367004,1.819835,2.383979,3.254877,2.931897,3.986668,3.748924,4.187886,4.140335,4.171407,4.739162,4.870009,4.438732,5.091577,4.403833,5.696215,5.336432,5.809189,5.539249,6.121464,6.054879,6.318207,6.755725,6.408802,6.048397,6.884447,5.685379,5.381289,5.261104,4.88945,4.421781,3.708885,3.734181,3.444961,2.321764,2.137049,1.895253,1.125769,0.04212066,-0.9910551,-0.9742978,-1.586207,-2.800341,-2.452773,-3.391535,-3.481483,-3.971235,-4.791966,-4.643982,-5.876649,-5.814819,-6.995479,-7.443635,-7.997239,-8.96046,-9.47895,-10.00195,-10.94892,-10.64765,-11.08024,-12.68593,-11.96556,-13.30408,-13.28842,-13.25291,-13.62217,-13.74249,-13.85975,-13.87605,-13.99591,-14.72305,-15.10985,-15.71234,-15.51326,-15.95118,-16.08603,-15.92711,-16.24377,-15.77186,-15.86877,-15.46728,-15.58316,-15.33706,-14.89099,-15.21469,-14.39424,-14.95408,-15.10875,-14.2486,-14.08946,-13.48751,-13.95724,-13.01074,-13.70553,-12.92172,-12.90749,-12.18567,-12.14222,-11.6474,-11.87795,-11.30094,-11.23439,-11.36224,-11.0499,-10.72282,-10.76289,-10.9151,-10.60948,-11.04386,-10.74472,-11.77937,-11.38188,-12.18603,-12.18075,-12.74937,-12.28912,-13.35524,-13.73873,-14.37736,-14.49768,-14.85885,-15.22793,-15.0484,-15.63548,-15.88032,-15.53746,-16.37159,-16.61243,-17.27242,-17.25171,-17.85098,-18.16376,-18.00716,-19.11699,-19.42087,-19.01166,-20.00894,-19.39989,-20.23839,-19.15443,-19.42328,-19.21988,-18.86101,-19.24677,-19.18734,-18.65237,-18.005,-18.12468,-17.56875,-16.3002,-15.43301,-14.38469,-13.79055,-11.9376,-11.74512,-9.767497,-9.923711,-7.86509,-7.097383,-6.29877,-4.69691,-4.091727,-2.37513,-1.717157,-0.7232151,0.9311208,1.597931,2.685015,4.23065,5.102654,5.642143,7.473045,7.919562,9.313803,10.21577,10.97239,11.79645,12.42223,13.4487,13.17402,14.14032,14.46869,15.35303,15.95249,16.40564,17.13172,17.51737,17.60629,18.36668,18.3648,19.02848,19.18547,19.57019,19.27765,19.15901,19.32098,19.38038,18.75853,19.89445,18.80135,19.49952,18.68137,19.44118,18.62675,18.99364,18.67863,19.18641,18.65759,18.78795,17.66868,17.59317,16.95727,16.28504,16.54888,15.83638,15.27518,14.46465,14.79293,14.95807,16.28746,15.62118,17.29092,18.24971,19.34006,20.15864,21.59742,22.11868,22.78149,23.73391,24.48918,24.89363,25.15328,26.27666,25.19108,26.0806,25.96718,25.69517,25.61581,25.58567,25.32141,25.50319,25.13397,25.15129,24.17715,24.07995,23.39401,22.90692,22.71819,21.38129,21.83438,20.23801,20.09071,19.18438,18.13172,17.83099,16.63705,16.35392,15.10159,14.27251,13.32817,12.08206,12.26564,10.15539,10.14815,8.283553,8.036127,5.990997,5.89634,5.022927,3.518523,3.007378,2.05778,1.044681,0.3732346,-0.6498314,-1.008207,-2.422439,-2.296727,-3.030334,-3.494909,-4.189676,-3.918595,-4.371941,-5.104473,-5.025175,-4.814503,-5.224267,-4.982895,-4.937254,-5.192165,-4.230066,-4.4971,-3.753199,-3.602736,-3.056813,-2.611653,-2.364168,-1.519869,-0.6247228,-0.5892867,0.3835976,0.2032785,0.6757313,0.7742156,1.474584,1.833322,3.189945,2.792443,4.696813,5.11162,6.137439,6.541845,7.472185,8.162943,8.534996,8.990367,8.831949,8.673266,8.170602,7.756767,7.009694,6.899083,5.795399,5.567095,4.228663,3.890763,3.556198,3.372199,3.127461,3.031291,2.027698,2.611686,2.166431,1.656042,1.673956,1.571375,1.081431,-0.0443101,0.2905489,-0.9588512,-1.213289,-2.096106,-2.328849,-3.116019,-3.692433,-3.411354,-4.61937,-4.226469,-4.562556,-4.923075,-4.927536,-5.433583,-6.131876,-5.864602,-6.975369,-7.216074,-7.433954,-7.092814,-7.766269,-7.81744,-7.786213,-8.437382,-8.600023,-8.312946,-8.943989,-9.003937,-8.774561,-9.005036,-8.937818,-8.783781,-8.77845,-8.650244,-9.373528,-8.538056,-8.825895,-8.524931,-9.163991,-8.977748,-8.799773,-9.13393,-8.971934,-9.164154,-8.833877,-8.382362,-8.386175,-7.814257,-7.87872,-7.077849,-6.809704,-6.93248,-6.469914,-6.119073,-6.747243,-6.35118,-6.262417,-6.368151,-6.858238,-6.864736,-7.309698,-7.472143,-7.749669,-8.284533,-8.450868,-9.019571,-8.755315,-10.21584,-9.899582,-10.82388,-11.6121,-12.14713,-12.71268,-13.97092,-13.59366,-14.41315,-14.89451,-15.063,-15.26363,-16.17413,-15.26499,-15.93282,-16.0703,-15.96032,-16.17793,-15.8949,-15.98637,-16.61456,-16.73172,-16.2581,-17.06876,-16.55128,-17.41951,-16.90488,-17.48293,-16.78381,-17.71967,-16.91008,-17.67388,-17.48264,-17.48622,-16.90954,-17.49521,-16.58855,-17.24521,-16.94398,-16.82534,-17.25847,-17.0485,-17.50994,-17.93718,-18.62854,-18.64975,-19.00506,-18.65975,-18.64093,-18.44344,-17.31409,-18.18286,-16.599,-17.30672,-15.35347,-14.39497,-15.01297,-13.92496,-13.29526,-13.80478,-13.09431,-13.48808,-12.79878,-13.5684,-13.62348,-13.41694,-14.0346,-13.98291,-14.42846,-14.89051,-14.6838,-15.92552,-15.65359,-16.49509,-16.41827,-16.82892,-17.94479,-17.1585,-17.89674,-18.09228,-18.6093,-19.58063,-18.49509,-18.94642,-18.70877,-18.56929,-18.18539,-17.60516,-17.41876,-16.51733,-15.81741,-14.96171,-14.72137,-12.80281,-13.36589,-11.59899,-11.23352,-10.41954,-9.462307,-8.930236,-7.082183,-6.802604,-5.769591,-4.544934,-3.529029,-2.15695,-0.7361103,0.4547719,2.27379,3.391956,4.656806,6.809199,7.362073,9.12999,10.15804,12.08643,13.00959,15.04513,15.59772,17.22951,18.9906,19.52058,20.49099,21.99065,22.61578,24.28564,24.40949,25.74709,26.72884,27.14045,28.00864,28.18514,29.89367,29.45782,31.45515,31.4061,31.97316,33.01014,32.94143,33.30443,33.87263,33.16089,33.67709,33.69042,33.65811,32.73483,33.46785,31.47386,30.8525,30.30018,29.2731,28.85734,27.13932,26.64742,26.60069,26.3099,26.47663,26.58798,26.63508,27.22256,27.55038,27.41481,28.67911,28.94297,30.24743,30.55588,30.03917,30.76087,30.7463,30.36559,30.747,31.11709,30.82007,30.6445,31.1376,30.51954,30.07165,29.94734,29.45832,29.48574,28.78691,28.30179,28.09894,27.59993,27.78969,26.48522,26.23388,26.21734,24.53017,24.72977,23.26867,22.37169,22.09129,20.17062,20.16767,19.75364,17.98857,17.59138,15.92669,16.21056,14.44423,12.20644,11.36765,9.986872,8.477409,7.679517,6.365093,5.340929,4.468225,3.910949,3.453867,2.165648,1.728296,0.4910275,0.6127378,0.02681676,-0.5228406,-2.03097,-3.012787,-3.344346,-3.795802,-4.511936,-5.410835,-5.160522,-5.318709,-4.748091,-5.136191,-4.226321,-4.881568,-4.683305,-3.809636,-4.755869,-4.091936,-3.464821,-4.02307,-3.183584,-3.625269,-2.822754,-3.170957,-2.923563,-2.745983,-2.722773,-2.036698,-2.801789,-1.991126,-3.624949,-3.911464,-3.315386,-5.834134,-4.234812,-5.57894,-5.047004,-5.531872,-5.450125,-6.436258,-5.825182,-6.551531,-7.283512,-7.684965,-7.284548,-7.980144,-8.156607,-8.88057,-9.281478,-10.31677,-10.20812,-11.52847,-12.66464,-13.94377,-14.52302,-15.23488,-16.25593,-16.49537,-17.1561,-17.5715,-17.60085,-19.07855,-18.47106,-19.19081,-20.06195,-19.61014,-20.71093,-21.35786,-21.43713,-22.21343,-22.79801,-22.78731,-23.32585,-24.0092,-23.99457,-24.57377,-24.09275,-24.58515,-24.03171,-24.54078,-24.58569,-23.9457,-24.38777,-24.18769,-23.75792,-24.06666,-23.26192,-23.2263,-22.56404,-22.69312,-22.02769,-22.33224,-21.89093,-21.64452,-21.30891,-21.6593,-21.55209,-20.0193,-20.30367,-19.11514,-18.40359,-17.69503,-16.45057,-16.14314,-14.90638,-14.31299,-13.38938,-12.69264,-12.34492,-10.9511,-11.80759,-10.69812,-11.80654,-10.66307,-9.075307,-9.244987,-7.378711,-6.747772,-5.27488,-3.525124,-2.933312,-0.8900284,0.4454926,0.8336162,2.749108,3.6123,4.572949,4.911481,6.017634,5.737667,7.079499,6.865417,7.386746,6.953229,7.014782,7.137354,6.86393,5.393205,5.560493,4.254407,3.141375,3.239581,2.747591,2.08641,2.696834,1.785436,1.356229,1.276193,0.540927,-0.7122417,-1.246098,-1.95967,-2.277968,-3.62574,-4.892623,-5.91703,-7.225889,-8.231352,-9.77976,-10.88783,-11.99516,-14.4759,-14.82963,-15.87881,-16.42178,-17.91036,-17.06005,-17.96068,-18.1446,-18.71373,-19.27103,-18.73201,-19.75453,-20.44376,-20.77804,-20.77602,-21.02018,-21.32861,-21.62793,-21.76624,-21.85419,-21.94605,-22.35512,-22.09961,-22.28084,-22.30131,-21.54917,-21.87625,-21.17108,-21.02178,-20.79409,-19.6267,-19.40706,-19.30062,-17.72974,-18.17194,-16.84764,-16.32582,-15.43115,-14.65646,-12.91774,-12.20777,-11.33941,-9.224344,-9.331709,-7.253153,-6.829389,-5.332554,-4.231682,-3.781817,-2.208546,-2.167988,-0.3212045,0.1995376,1.550565,1.754989,3.310756,3.948486,4.801301,5.46861,5.212918,6.945818,6.35185,8.419172,9.292516,9.638634,10.94047,11.04247,13.61162,13.77601,14.69503,16.61814,17.17627,17.71498,19.0457,20.16119,20.81894,21.61749,23.16802,23.20343,25.09563,25.315,26.55813,27.29359,28.1295,29.7869,28.65646,28.35998,29.33729,29.24621,30.58832,31.83848,33.08919,34.70788,35.34581,37.17552,37.62213,39.5918,39.86836,40.87223,42.8449,43.62139,44.42287,44.9536,45.17718,46.56493,46.09198,47.33456,46.46892,46.83982,46.30815,46.27476,46.52806,45.95392,45.94924,45.25831,46.00099,43.99269,44.19907,43.53845,42.9326,41.85304,40.77438,40.24816,39.12486,38.01559,36.87478,35.62214,34.27287,33.4006,31.48422,30.90045,29.07282,28.06844,26.57026,25.7728,24.33245,23.11233,22.07678,21.00315,19.78296,19.29091,17.79323,16.97364,17.03775,15.24772,14.89811,14.28586,13.64683,13.9174,12.01606,11.44134,11.5465,11.04297,10.42957,10.92439,10.08955,11.48961,10.86631,11.36729,12.47674,12.23145,13.42574,14.05615,14.34198,15.00879,15.63898,15.75159,16.51237,16.55465,17.07136,17.28376,16.92795,18.15038,18.22084,18.00796,18.46738,18.86049,19.80718,18.4888,19.46566,18.84296,18.96489,18.21465,18.53452,17.94238,16.73795,16.59848,15.48098,14.78499,13.57067,11.93318,10.66288,9.108644,6.867326,5.844201,2.426876,2.075303,1.051308,0.9318645,0.1819274,-0.559439,-1.444423,-1.695017,-2.688186,-2.977697,-3.859573,-3.897524,-4.771888,-5.059333,-5.01756,-6.527006,-5.754992,-7.131879,-6.85059,-7.72492,-7.956047,-8.080977,-9.013901,-8.601004,-9.051045,-8.779729,-9.844346,-9.196657,-9.348544,-9.440697,-9.106606,-9.91162,-9.204795,-9.555727,-9.537154,-9.912927,-9.656828,-10.64473,-10.24609,-10.96041,-10.91616,-11.44069,-11.54095,-11.31179,-12.27861,-11.67259,-13.19333,-12.70469,-12.6658,-13.26501,-13.82409,-14.4129,-14.51867,-16.25716,-16.55764,-16.80308,-17.68288,-18.09753,-18.79027,-19.67398,-20.81733,-21.08346,-22.34891,-23.16915,-24.42963,-24.33017,-24.65612,-25.64069,-25.36397,-26.48313,-26.03171,-26.77074,-28.00758,-27.92598,-28.55446,-29.76938,-29.5119,-29.535,-30.38118,-30.58192,-31.09464,-31.55772,-31.58696,-32.93264,-33.28234,-34.51766,-34.80766,-35.51235,-36.08281,-37.86408,-37.96564,-38.8323,-40.01532,-40.20075,-40.39831,-41.9523,-41.17631,-42.48731,-42.1227,-42.51397,-42.50291,-42.80776,-42.73149,-42.57348,-42.98717,-42.38257,-42.44551,-41.94346,-41.11934,-40.91196,-40.44283,-40.46508,-39.36868,-38.59292,-38.26719,-37.0688,-36.63778,-35.64341,-34.86237,-33.50619,-32.5505,-31.08196,-30.50414,-28.3927,-27.41148,-25.84364,-24.57012,-23.56624,-21.19671,-20.38549,-17.19764,-16.54446,-14.29612,-12.50215,-11.03591,-9.997494,-8.217344,-6.485365,-5.266843,-4.239175,-2.901279,-2.026583,-0.3062036,-0.0468409,1.352953,1.994474,2.671932,2.944658,4.059443,4.296993,3.864149,4.222356,4.224402,3.478656,3.09527,3.926568,3.499246,4.371695,3.818586,3.904542,4.15555,3.755707,4.388335,3.883186,5.509469,5.818768,6.093126,6.207869,6.825307,7.744496,8.043149,8.631292,8.579816,9.410916,9.322162,9.605108,9.804717,9.510037,9.775971,9.450996,10.32451,9.316707,9.926089,9.56702,10.34943,9.673421,11.44471,10.25207,9.984542,10.08002,9.303963,9.560333,8.503361,7.261937,6.989033,5.71102,5.011031,3.557833,3.464361,0.7053437,1.73484,-0.6491156,-0.7415611,-2.002214,-3.313529,-4.271916,-4.935165,-6.046102,-7.061041,-7.529601,-9.077631,-9.715631,-10.54554,-11.73757,-12.87097,-13.54172,-14.58994,-15.69338,-16.42849,-18.00242,-18.23165,-20.02876,-19.70224,-22.10114,-21.9296,-22.87534,-23.73306,-24.25763,-24.61423,-24.80154,-25.2682,-25.15072,-25.9534,-25.88058,-25.98861,-25.32883,-25.00136,-23.55391,-22.6666,-21.88464,-20.47967,-20.82301,-19.5306,-19.22273,-18.72862,-17.91207,-17.19792,-17.10374,-16.05288,-16.30891,-15.34731,-15.04355,-14.72773,-14.68592,-14.09675,-14.47532,-14.62879,-14.78732,-15.07047,-15.39844,-16.31782,-16.45268,-16.73737,-16.86334,-16.69358,-16.56167,-16.60112,-16.86288,-16.39831,-16.27804,-17.8031,-17.50718,-17.38629,-17.18206,-16.50459,-16.82306,-13.98271,-12.96912,-11.00425,-10.12559,-9.472229,-8.569865,-7.527267,-6.521029,-5.992321,-5.182367,-3.875725,-4.253946,-2.870773,-2.319557,-1.522903,-1.436065,0.09015921,-0.4054213,1.240594,1.020969,2.544145,2.044173,2.844627,3.265794,3.54241,4.801922,3.964267,4.802626,5.347856,5.586396,5.845871,6.07964,6.526017,5.641403,7.089527,5.832718,7.269815,5.964287,7.060544,7.276157,7.083332,8.146235,7.715191,8.207165,7.941307,9.025422,8.122194,8.973001,8.80937,8.940215,9.056325,9.439207,9.589183,9.268747,9.847292,9.84279,10.00242,9.93769,11.0602,10.10611,10.83231,11.23062,11.29413,11.91475,11.70069,12.37475,13.46108,13.56494,15.3897,15.65066,17.46834,17.74829,18.49143,19.58056,19.5344,20.98689,21.54448,22.51643,23.53456,24.06217,24.91989,26.13768,26.7309,27.43269,28.2407,29.03643,29.86777,30.2576,31.18219,31.61685,32.3524,32.82281,31.88002,32.40812,31.30333,31.77352,32.63975,31.90829,32.28631,32.37351,32.92593,32.83401,33.6566,33.38039,33.47377,35.64064,36.27285,37.86413,39.20128,40.87793,43.23976,43.42393,44.49954,45.08776,46.01689,46.9306,47.71065,47.94639,48.4801,48.457,49.07478,48.16173,48.73294,48.49929,47.61978,47.47346,47.20932,45.92451,45.68102,44.34388,43.54666,42.6798,41.15773,40.1472,38.65508,37.74944,36.30986,34.84306,33.67219,31.34665,30.22605,28.37303,26.4328,25.06939,22.74972,21.70368,19.9875,17.61359,16.58361,14.59073,12.69659,10.94539,9.335789,7.346139,5.910685,4.310254,2.555947,1.614574,-0.470715,-1.593098,-3.040052,-3.642239,-5.671579,-6.117577,-7.60859,-8.162969,-9.640132,-9.339749,-10.4412,-11.83262,-11.2477,-12.30482,-12.73352,-12.13969,-12.34897,-11.79022,-12.69979,-13.16044,-11.92556,-12.11767,-10.82965,-11.03724,-9.494461,-8.330631,-7.648179,-4.762798,-4.454345,-2.481785,-1.225422,-0.1913427,1.442461,2.554518,3.346432,4.331033,5.101048,5.785694,5.890808,6.434309,6.012872,5.354502,4.569853,4.076417,2.402072,3.209318,1.670085,2.311522,1.292106,0.8115066,0.4603327,-0.3306822,-1.100278,-1.097516,-1.709101,-3.087251,-3.659478,-3.794348,-4.692799,-5.152406,-5.745214,-6.581706,-7.033651,-6.999544,-7.684216,-7.878597,-8.923345,-9.231792,-9.784555,-9.751854,-10.6484,-10.77619,-11.56169,-11.41773,-12.30393,-12.28291,-13.33648,-13.18168,-13.72759,-14.25411,-14.96295,-14.60911,-15.65024,-15.51949,-15.93943,-16.80211,-16.26568,-16.30272,-16.51874,-17.58714,-16.18702,-17.60248,-16.55443,-17.64606,-17.5291,-17.54885,-18.32238,-17.24903,-18.63688,-18.01695,-17.9873,-18.68399,-18.22511,-18.5054,-18.18194,-18.25073,-18.20246,-17.75769,-18.38962,-17.87709,-17.74014,-18.22002,-18.32183,-17.3875,-18.96984,-17.96178,-18.90604,-18.21852,-18.58221,-18.57419,-19.1611,-19.67533,-18.84853,-20.01053,-19.72854,-19.6464,-20.8716,-21.02396,-22.18143,-21.01893,-21.21371,-21.19093,-21.47781,-20.88485,-20.54924,-20.43206,-19.73312,-20.17279,-19.76402,-19.40674,-19.21698,-19.57384,-18.70793,-18.65552,-18.88569,-18.64594,-18.79101,-18.95237,-18.79926,-18.9206,-18.90926,-18.64284,-18.92476,-18.81004,-18.91132,-18.4069,-19.01021,-18.83628,-19.09688,-18.74073,-19.52762,-19.84278,-19.48606,-19.55921,-20.26043,-20.04966,-19.68743,-19.56401,-19.33795,-18.99601,-18.92713,-19.68213,-19.5934,-19.64093,-20.33722,-20.7208,-21.58565,-21.0778,-22.61805,-22.27902,-23.84337,-23.91327,-24.9222,-25.44612,-26.40199,-26.5315,-27.69717,-27.94109,-28.75915,-28.51718,-29.62379,-29.02148,-30.33256,-29.85561,-30.09912,-30.72664,-29.72643,-30.32506,-29.92471,-30.84257,-28.2653,-29.91729,-27.86662,-28.97056,-27.34779,-27.49183,-23.89561,-24.25975,-22.97056,-20.37654,-19.28511,-17.13495,-15.18122,-13.85345,-11.81449,-10.95969,-8.487456,-7.106437,-5.767265,-3.388476,-1.336753,-0.7490118,2.100232,3.813051,4.882247,7.682061,8.963757,11.1805,13.13728,14.27029,16.65355,17.91584,19.81035,20.77835,22.92967,24.16893,25.72194,27.15333,28.39101,29.56461,31.38826,32.3679,33.59735,34.22095,35.76812,36.11153,37.27958,36.89359,38.49853,38.21243,38.95243,39.12438,40.23855,39.10539,39.57019,39.80758,39.50572,39.22361,39.09499,38.18004,38.69838,37.66818,37.22886,36.79214,36.31151,35.7479,35.49605,33.89488,33.00963,31.71741,30.67462,30.52402,31.11001,30.7757,32.23201,32.9433,33.93423,35.6485,36.50625,36.99553,38.32525,38.48501,40.16997,40.88148,41.14546,42.25419,42.80285,43.8792,43.34203,44.92292,44.40245,45.21645,45.6483,45.5115,45.96984,45.56716,44.9627,45.39472,44.50424,44.05222,42.6428,42.31117,40.58856,39.26414,37.90834,35.75206,34.9468,32.11549,31.40351,28.92138,28.74426,25.40682,24.61501,22.60405,21.59112,20.10825,20.43222,16.61273,16.33576,15.42144,13.42958,12.11648,10.39515,8.362148,6.932605,5.782025,4.541231,2.402631,0.6549927,-0.2676783,-1.410161,-3.148001,-3.018439,-4.906878,-5.419409,-6.015709,-6.62259,-7.087765,-7.318605,-8.045121,-7.616326,-8.485007,-8.006322,-7.937932,-8.115844,-7.60257,-7.436005,-7.269532,-6.825693,-6.735397,-5.461693,-6.010123,-5.186634,-5.202504,-3.895082,-4.129343,-3.28353,-2.472601,-1.655823,-0.7749515,-0.1445416,0.2999374,1.668313,1.322015,2.526707,2.423228,2.68004,3.023906,3.248231,3.14662,3.733234,3.480589,2.832018,2.709453,1.605806,1.334769,-0.6734997,-1.846985,-2.866671,-3.554734,-3.796013,-4.003736,-3.967912,-4.313272,-4.032696,-4.600677,-3.992182,-3.436587,-3.921862,-3.237895,-2.950421,-2.118972,-1.196933,0.1732353,1.016551,1.981532,3.202951,3.579881,3.577558,4.366264,3.530072,3.312927,2.313344,0.5192298,-0.07844592,-1.119112,-2.537018,-3.648584,-5.002956,-5.891725,-7.042397,-8.79104,-9.82288,-11.29411,-12.76556,-14.2013,-15.08192,-17.55,-17.89742,-20.11141,-21.31349,-23.43481,-24.81206,-26.24662,-28.85121,-29.47695,-31.49727,-33.23113,-34.93788,-35.75094,-37.76176,-39.19857,-40.85965,-42.70842,-42.731,-44.27783,-45.15386,-46.3429,-47.05049,-46.5943,-48.21342,-48.36884,-48.20356,-48.47961,-48.25087,-47.61625,-47.86993,-46.55402,-46.32956,-45.42183,-45.37372,-45.24229,-43.80878,-43.14491,-41.68173,-40.73384,-38.98705,-37.41544,-35.5716,-33.52173,-31.11017,-29.50686,-26.4182,-24.41128,-22.05736,-19.27926,-17.03938,-14.55554,-11.76224,-9.907378,-6.990345,-5.045722,-2.196317,-0.3463744,1.667194,3.811429,5.716118,7.759228,8.692378,10.89611,11.50211,12.48512,12.84302,13.74748,13.84915,14.40164,13.1179,14.08286,12.39316,13.09273,11.85323,11.93883,10.87352,10.34634,9.566902,9.037252,8.850364,8.146699,7.640821,8.083115,7.661654,8.675087,8.670886,9.520034,8.093288,7.499242,6.132771,4.506017,2.436672,1.237047,-2.330646,-3.668399,-6.738896,-8.320243,-9.909278,-11.89936,-14.65542,-15.97247,-17.60333,-19.37593,-21.7075,-23.71329,-25.04281,-26.86101,-28.13621,-29.29039,-31.17175,-32.69812,-33.10366,-34.58668,-35.46467,-36.48533,-37.31529,-37.01724,-37.72752,-36.93157,-37.09159,-36.33289,-36.06258,-34.41123,-34.16455,-32.32561,-31.60133,-28.69478,-27.14334,-25.44648,-23.09824,-21.93978,-18.44377,-16.97853,-14.94087,-11.77398,-9.184896,-7.017026,-4.780436,-2.184516,-0.6946264,2.507329,3.431731,5.958013,7.426268,9.376028,11.82861,13.84267,16.15637,17.45808,20.47799,20.91815,23.44825,25.32663,26.42789,27.76997,28.80972,30.26572,30.9082,32.20125,32.8758,33.50599,35.06323,34.48831,36.44004,35.88184,36.96744,37.42338,37.30214,37.5698,37.52482,37.47854,37.18476,37.72488,36.69002,36.72064,35.73762,35.74108,35.01512,34.70549,33.44808,32.92568,31.44249,31.23837,29.63243,29.79717,28.6924,28.36781,28.75387,28.67171,28.76645,29.19527,30.11383,31.71185,31.21528,33.54535,33.98894,34.35254,34.12654,35.55491,36.32481,36.26097,37.10754,37.60813,37.40361,38.35484,38.12615,38.7594,38.80937,38.92689,38.56718,38.73326,38.46646,38.19333,37.59071,37.48815,37.18925,36.57784,36.61533,35.04866,34.50506,33.61966,33.49704,31.87115,30.9653,29.69017,28.94462,28.36532,25.97686,25.86505,24.0779,22.68322,21.00167,19.97665,17.72085,16.84186,14.55592,13.53407,11.50322,10.4714,8.905127,6.912652,5.206028,3.223227,2.530219,0.7282939,-0.335705,-0.9034917,-2.414638,-2.341218,-3.336582,-3.668869,-4.387631,-4.829887,-5.372163,-5.573609,-5.763374,-5.753066,-6.528254,-6.265349,-6.680005,-7.125762,-6.274458,-7.89568,-8.420374,-8.4356,-8.997424,-8.303336,-9.424932,-8.593617,-8.55514,-8.219548,-7.104924,-6.930775,-6.116001,-5.24945,-5.665722,-4.428953,-4.983819,-4.186115,-3.852883,-3.825201,-4.105367,-4.000908,-4.745024,-5.049577,-6.127142,-6.201156,-7.885003,-8.273319,-10.44351,-11.08991,-12.59214,-13.36654,-15.00098,-14.41155,-16.5997,-16.82373,-17.70198,-18.72752,-19.7422,-19.54177,-20.99767,-21.33898,-22.86215,-22.40526,-23.58977,-24.33397,-24.73563,-24.63361,-25.54752,-26.59848,-25.80868,-27.05967,-26.21468,-26.88787,-26.87846,-27.07973,-26.63714,-27.52752,-26.54311,-27.38536,-26.76348,-26.90802,-26.76316,-26.13871,-26.00492,-25.90318,-24.87271,-25.23563,-23.81091,-24.00164,-23.35253,-23.5758,-22.5924,-21.19143,-20.74647,-19.90865,-19.31293,-17.5547,-16.86027,-16.20812,-15.00783,-14.53186,-13.74002,-13.14629,-13.20705,-12.57931,-12.00892,-12.67078,-11.59109,-12.21032,-11.33001,-11.247,-10.63916,-10.39961,-9.904153,-9.452216,-9.68477,-9.065285,-9.878823,-9.111425,-9.461929,-9.672688,-9.311747,-8.99819,-10.19776,-9.745,-11.14255,-10.9343,-12.65624,-13.46883,-14.37366,-16.4573,-15.96122,-17.37903,-17.50941,-18.62549,-18.97244,-19.40236,-19.99751,-20.09146,-20.48239,-21.14313,-21.74446,-20.84342,-22.16323,-20.45361,-21.18599,-19.42441,-19.00044,-17.51034,-17.02874,-15.2495,-16.28521,-15.45353,-16.21815,-16.09886,-17.08881,-17.14479,-18.52976,-19.33503,-20.60786,-21.73324,-22.48327,-23.08806,-25.19518,-25.75179,-27.55406,-28.29396,-29.97706,-29.87426,-32.71087,-31.60409,-33.4397,-34.03018,-33.29333,-35.9957,-33.42901,-35.63068,-34.89364,-34.02536,-34.58849,-33.262,-33.47786,-32.77484,-32.0613,-31.87896,-30.69193,-30.23443,-29.52154,-29.03889,-27.70638,-26.96386,-26.68381,-25.08081,-24.92565,-22.97422,-21.99806,-20.88416,-18.90018,-17.42783,-15.03852,-14.49494,-11.35395,-10.12767,-6.925373,-5.532055,-1.32351,1.114042,4.677673,7.852527,11.65104,15.14156,19.01295,22.17223,26.09457,30.09608,33.74838,36.70017,42.51329,43.89114,48.48016,50.82123,54.31183,56.69923,59.55116,62.11536,63.9845,66.79626,67.52705,70.24248,70.95578,73.10758,73.17868,74.33925,73.89219,74.45605,73.11425,73.47839,72.40583,70.85171,69.75198,67.9927,65.97418,63.59701,61.27331,57.64396,55.76049,52.23936,50.19106,46.9575,44.87145,42.3595,40.33174,38.62639,36.86596,35.42587,33.72724,32.54993,31.01152,29.59227,27.49792,25.47021,22.73419,21.57275,18.44016,17.23479,14.48849,13.11229,10.05655,9.230546,7.57697,5.089137,4.389341,1.605634,1.247788,-0.9651632,-1.698968,-3.347873,-3.210488,-4.768843,-5.22865,-4.980377,-5.863344,-5.526595,-5.134474,-5.861679,-3.250788,-5.694994,-2.034896,-2.692848,-2.473294,-0.6693815,-1.155933,0.348306,0.9046787,1.179642,2.717194,2.628786,2.478369,4.461626,3.305857,4.919198,4.527963,5.055012,5.569448,5.756945,6.019744,5.81301,5.763874,4.888133,4.359785,3.116602,3.973286,2.612453,4.023852,2.008569,4.6911,2.38984,4.178762,3.606189,3.746476,4.233025,3.688059,4.106332,4.065477,3.828718,4.588093,3.693791,4.659355,3.148557,4.189088,2.981321,3.880237,3.533739,3.63536,3.560888,3.381517,3.978547,2.774824,4.457633,3.78549,4.337557,3.490121,4.856789,3.658607,4.836477,4.648894,5.074532,4.270568,4.384297,4.441764,4.699961,3.859517,4.422733,2.75406,3.389334,2.73476,2.978632,2.11312,1.600702,1.810457,0.4799938,0.3145635,0.4028388,-0.0513885,-1.352987,-1.336259,-3.009262,-2.85648,-3.806397,-3.384945,-4.539886,-4.583368,-4.7246,-5.301719,-5.043369,-5.560008,-5.307279,-5.20165,-4.993454,-5.383616,-4.943795,-5.271995,-5.047921,-5.305442,-5.05947,-5.630995,-5.150536,-4.878613,-6.145176,-4.697179,-5.421903,-4.239317,-5.534813,-5.414707,-5.59998,-5.71301,-5.796797,-4.729959,-6.079677,-4.469334,-4.272487,-3.85428,-3.297554,-3.166913,-2.995547,-2.57489,-2.797043,-2.683062,-1.863872,-2.715456,-2.022029,-3.240844,-2.72792,-3.040671,-3.705668,-3.498139,-4.852871,-4.58306,-5.575275,-5.528437,-6.366904,-6.370979,-7.607709,-7.486101,-8.772241,-8.510373,-9.708841,-9.846321,-11.09993,-11.29339,-11.97761,-13.2062,-13.13386,-15.2269,-14.76261,-15.37323,-16.14341,-16.39681,-16.74619,-17.43913,-17.51078,-17.1275,-18.64411,-18.16363,-18.63036,-18.87268,-18.53857,-18.7145,-18.47448,-18.92319,-18.28187,-18.24585,-17.76733,-17.00293,-16.59427,-16.39079,-15.19482,-15.8446,-13.55116,-14.02428,-12.84224,-12.55401,-11.54505,-12.21566,-10.36778,-10.523,-9.944527,-9.75877,-9.182245,-9.024532,-9.009776,-7.883733,-8.266829,-8.884837,-8.635503,-8.969139,-9.721669,-8.36538,-8.730854,-8.48267,-8.831797,-8.957648,-8.236263,-9.499937,-9.285022,-9.420659,-9.881832,-9.150701,-10.52808,-9.912421,-10.64672,-11.41063,-11.36759,-11.98475,-11.86867,-13.68248,-12.66828,-14.38373,-14.39466,-15.388,-15.85779,-17.20336,-17.47593,-18.49727,-18.05508,-18.81692,-18.48619,-18.62433,-18.77992,-19.06571,-17.75675,-18.10536,-16.88409,-17.25607,-16.75067,-17.60699,-17.40469,-17.7006,-18.33086,-18.75957,-19.35558,-19.96566,-20.32211,-21.81219,-21.69108,-22.76009,-23.53999,-24.19428,-25.36308,-26.20904,-26.73837,-27.29821,-28.50224,-28.7316,-29.60303,-30.04974,-30.47336,-31.18705,-30.8646,-30.91658,-31.26014,-30.8192,-30.63897,-30.75154,-30.07296,-30.09624,-28.82836,-29.11087,-27.94593,-26.81397,-26.22475,-24.73733,-24.30842,-22.10312,-21.19089,-19.83438,-17.75733,-16.62173,-14.68019,-13.16601,-11.16205,-8.902691,-6.988314,-3.89826,-3.886918,0.06067484,1.285604,3.490306,7.048498,7.510896,11.05421,12.27296,15.1571,16.40294,19.52824,21.14302,23.21937,26.19306,27.5529,29.93804,31.25242,33.64009,34.52473,36.61076,37.64997,39.06395,39.70702,41.25652,41.4132,42.13992,43.20164,43.02988,43.76228,43.61111,43.67544,44.38471,43.34167,44.05828,42.60089,42.95933,41.745,41.63781,41.10361,40.62515,38.78289,37.37826,36.97273,35.22947,34.34665,33.60824,33.43766,32.71515,32.8837,31.94546,32.33052,31.64951,33.31891,32.77789,33.81567,34.60106,36.20037,36.32109,37.52716,37.1241,37.4536,37.67004,37.31555,37.91767,37.01463,38.51128,37.93878,38.29508,38.5528,38.52122,38.66093,38.83454,38.08283,38.1168,37.60432,37.12216,36.54727,36.32294,34.11399,33.90695,32.7228,31.65667,30.4991,29.44896,27.63582,26.76997,24.07072,23.1065,20.31457,19.31344,16.56501,15.1931,14.07699,10.9992,9.946325,8.197638,5.597093,4.385943,2.128769,-0.08235843,-1.810372,-3.634073,-5.568254,-7.304097,-9.01971,-11.15104,-11.81608,-14.07105,-14.89919,-16.83811,-18.59953,-18.41555,-20.49666,-20.59907,-21.77812,-22.45849,-22.37449,-23.06283,-22.69799,-23.0283,-22.47973,-22.28063,-22.28212,-21.43868,-21.44717,-20.6731,-20.21661,-19.31481,-18.9269,-18.05803,-17.00479,-16.09481,-16.17846,-14.74418,-13.71599,-12.66316,-11.93008,-11.24143,-10.10301,-9.189578,-8.562252,-7.395295,-7.424204,-6.261739,-5.461405,-5.517077,-4.907757,-3.871199,-4.925633,-4.64342,-5.29512,-5.050504,-4.590333,-4.712312,-4.135474,-3.666988,-3.836577,-3.662454,-4.032072,-3.672879,-3.499895,-3.873513,-3.555398,-4.307505,-5.118878,-4.185229,-5.812551,-5.196861,-6.383763,-6.952983,-7.320506,-8.084288,-8.843703,-7.638677,-8.95881,-7.497991,-8.646214,-7.434847,-8.083456,-7.399749,-8.146246,-7.208287,-7.476177,-7.385462,-6.606934,-6.31578,-6.264306,-4.809775,-5.439901,-3.493757,-3.664184,-2.56967,-2.102458,-1.085163,-0.8426313,0.673929,0.272266,1.076043,2.280145,2.223304,2.773969,3.840273,4.291239,4.140245,5.051602,5.257094,5.717834,5.688877,6.27585,5.949406,6.858248,6.625657,6.170185,6.666704,6.154299,6.788962,6.198981,5.770702,5.660787,4.980915,5.360596,4.75913,4.452302,4.162636,3.589348,3.655131,3.251809,2.532081,2.109823,1.491537,1.338957,0.4323041,-0.2111888,-0.2180508,-1.209663,-1.177592,-1.754811,-2.51425,-2.416478,-3.239793,-3.221339,-4.165369,-4.700294,-4.875596,-5.022888,-5.33608,-5.768269,-5.637181,-6.131783,-5.961128,-6.237482,-5.918833,-5.931369,-6.704629,-5.876724,-6.224488,-5.730785,-5.55203,-6.168844,-4.993211,-5.52655,-4.625947,-4.353937,-4.22099,-3.479609,-3.352846,-3.095263,-2.35485,-2.124776,-1.479389,-0.9202654,-1.532175,-0.6476772,-0.8372976,-0.5249508,0.2943868,-0.3614016,0.5755027,-0.1309191,0.6702647,0.4074359,0.4417765,0.826353,0.8394951,0.1938023,0.7604567,0.1841651,0.7006881,-0.5949247,-0.7594227,-1.36287,-0.6983213,-1.930703,-2.107738,-1.704736,-2.95425,-2.689842,-3.220889,-3.61479,-4.352017,-4.447496,-5.121763,-5.361877,-6.362459,-6.824166,-7.538532,-8.427764,-8.896126,-9.562013,-11.07778,-11.02036,-11.84097,-12.549,-13.45533,-14.15198,-14.6471,-15.27562,-16.33199,-16.76703,-17.37816,-18.27121,-18.27054,-19.65254,-19.95613,-20.92147,-20.75171,-22.28262,-22.40141,-23.5015,-23.80911,-24.61094,-25.55735,-26.32858,-27.12682,-27.89886,-27.99811,-29.2547,-29.98109,-29.31345,-30.05578,-29.48602,-30.5743,-30.17045,-31.60372,-31.23714,-32.41826,-33.36482,-33.68115,-34.73467,-36.00426,-35.99643,-37.55343,-38.31506,-38.93524,-39.4114,-40.23687,-41.19998,-40.98608,-41.83948,-41.47694,-42.26999,-42.25011,-42.80108,-42.85702,-42.95612,-41.8469,-43.13631,-41.83915,-41.57338,-41.15253,-40.35939,-39.40777,-38.39833,-37.66405,-36.44653,-35.4487,-33.87228,-32.52675,-31.37644,-29.22035,-28.41025,-26.24246,-25.05615,-22.47171,-20.97788,-18.63473,-16.42391,-14.56307,-11.94149,-9.573901,-7.084467,-4.787401,-2.389922,-0.1718707,2.139937,4.673793,6.731896,9.789297,11.26892,14.21741,16.28785,19.08886,20.64853,23.28603,25.67371,26.90912,30.34717,31.26316,33.87512,35.20562,37.21369,38.62673,40.15268,40.99706,42.97405,43.02629,44.97462,45.20883,46.15972,46.72057,46.92766,47.46528,47.53469,47.73725,48.03114,47.56063,48.04951,47.33445,47.0642,46.99249,45.82243,46.30848,44.52134,44.36211,43.90267,43.54717,41.2288,40.91053,39.4814,37.9422,38.14104,37.15621,37.48212,36.97623,37.61275,37.85614,38.01227,39.70332,40.33517,40.51727,41.56152,41.54875,42.42278,42.18349,43.39345,43.15772,44.00953,44.45246,44.38304,45.29885,45.26131,45.56752,46.30928,46.24701,46.43824,46.3678,46.49788,46.88114,46.17517,45.92519,45.4339,44.82231,44.68621,43.45371,42.91531,41.86764,40.84561,40.23897,39.3862,38.49817,36.63456,35.19276,32.83292,32.17806,30.36111,28.6498,28.04462,25.26965,25.65962,23.14076,21.96818,20.60614,18.75498,18.53903,15.6172,15.45192,12.62113,12.05563,10.19965,8.493336,7.844661,4.684834,4.378972,2.320671,0.9482641,-0.06705793,-2.288362,-2.527139,-4.602825,-4.905641,-6.6703,-7.3518,-8.679122,-9.844732,-10.30854,-11.85706,-10.84787,-12.76394,-11.33324,-12.65816,-12.10255,-11.12187,-11.25136,-10.27763,-9.518454,-8.588916,-7.584947,-7.272293,-6.011382,-5.423088,-4.24263,-3.380929,-2.566593,-1.305221,-0.9844396,-0.2467258,0.4863109,0.9669325,0.8082938,2.194105,1.42418,2.220957,1.086184,2.139422,0.9345903,0.5886371,-1.475,-0.7696471,-1.902265,-2.239684,-1.739988,-2.238065,-2.459107,-2.741059,-2.097827,-3.083346,-3.039544,-3.123721,-4.097465,-3.780533,-3.924482,-4.781449,-4.028701,-5.355117,-4.421174,-4.712228,-4.261639,-4.723734,-3.168664,-3.898764,-2.839708,-3.203911,-2.945902,-3.653305,-3.432589,-3.83051,-4.272228,-4.796743,-5.646523,-6.205908,-7.399111,-8.381302,-10.07456,-10.52774,-12.16869,-13.25721,-14.42611,-16.48057,-17.27845,-18.97401,-21.08379,-22.06847,-23.37404,-23.10859,-24.60636,-26.26254,-25.75414,-27.47055,-26.48132,-28.55871,-28.56252,-29.24169,-29.73017,-29.77293,-30.77429,-30.651,-31.67539,-31.1807,-32.20273,-31.73714,-32.60677,-32.99889,-32.47208,-32.70326,-33.3294,-33.03314,-34.22825,-33.17203,-33.6645,-33.99928,-34.25026,-34.66564,-34.21061,-34.06541,-33.79515,-32.63576,-32.78504,-32.19953,-30.55085,-30.39315,-29.57565,-27.59631,-28.63352,-25.94997,-25.81397,-24.51782,-24.47485,-22.86003,-21.62809,-20.87282,-20.74676,-19.91193,-19.19909,-18.18703,-17.68252,-17.50801,-17.0513,-16.8475,-16.60009,-15.55938,-16.71676,-15.99539,-16.64073,-15.86603,-17.3385,-17.07356,-18.15571,-17.66777,-18.13954,-18.57673,-18.66384,-19.36321,-20.5702,-19.77027,-21.13418,-22.27407,-23.18683,-23.60921,-24.38557,-24.18269,-26.15711,-25.94311,-27.08788,-26.36227,-26.19136,-26.86431,-26.13462,-26.80777,-25.82554,-26.11166,-26.08909,-27.54041,-24.61419,-25.79556,-24.05352,-25.13837,-25.12562,-24.97564,-25.09515,-25.43557,-26.15038,-26.36431,-27.69851,-26.95132,-29.16181,-28.48717,-30.92221,-30.44472,-30.45,-31.52724,-31.81417,-32.58733,-32.71533,-32.60302,-32.70561,-33.90893,-32.70965,-33.8187,-32.86501,-32.5465,-32.23016,-31.86564,-31.58553,-29.84002,-29.81431,-28.93218,-27.61108,-26.66488,-25.77642,-23.25582,-23.33526,-20.42359,-20.11615,-18.08779,-16.791,-14.21335,-13.41679,-10.32527,-9.259431,-7.068354,-4.642831,-2.610376,-0.4413301,2.073835,3.57437,6.452068,7.705013,10.27003,12.44504,14.63594,16.14602,19.45155,19.9872,23.19265,23.88044,26.30883,27.53512,29.4544,31.42311,32.32927,33.69593,34.85023,36.97922,37.41768,39.07415,39.19876,41.33092,40.51306,43.37021,43.11214,44.29784,44.07807,45.49769,45.53046,46.09978,46.25842,46.87874,47.14597,46.82289,46.36632,46.25842,44.99845,45.51912,45.35232,45.18587,45.18889,45.70904,45.32161,45.56564,46.46928,45.18079,47.23881,47.10437,48.67656,48.55484,49.37967,50.33498,50.80304,51.76133,53.04884,53.79045,55.09278,57.19413,56.15672,58.37377,57.83,59.13811,59.41372,59.11218,59.52186,59.49155,58.97765,58.86597,58.43245,57.62905,57.67211,55.66037,56.09757,54.74559,52.82644,52.61244,50.62333,49.77643,47.21732,46.82946,43.82917,43.39227,40.61636,39.39478,38.14665,34.63803,33.52685,31.6096,29.78486,27.28103,25.70178,23.50311,21.5295,19.77727,18.20737,15.42951,14.14246,11.53779,9.573872,7.86,5.736079,4.297784,2.703839,1.174764,0.6225144,-0.4143368,-0.7359215,-2.531963,-1.249109,-3.499907,-2.855995,-3.572692,-4.121276,-3.90297,-4.239389,-4.213482,-4.043958,-5.188842,-4.470045,-4.867475,-4.748723,-4.494434,-4.461118,-4.583636,-4.534856,-4.149395,-4.549314,-3.341863,-4.994877,-3.069352,-4.444004,-2.23082,-4.21352,-1.826425,-3.399226,-2.793524,-3.303274,-2.528934,-4.089205,-3.019148,-4.23106,-4.401459,-5.563629,-6.975122,-7.372386,-8.035623,-8.525105,-8.142862,-9.092514,-9.2976,-10.44277,-10.2665,-11.84639,-10.75427,-11.07789,-11.72932,-10.49559,-10.60564,-10.62992,-10.0158,-9.619188,-8.562077,-8.982827,-7.452708,-7.667427,-6.272205,-6.610224,-5.665662,-4.957703,-4.503942,-4.352084,-3.920983,-3.925497,-3.650925,-3.127753,-3.445511,-3.432217,-3.133011,-3.397526,-3.58285,-3.588364,-4.290547,-3.377368,-4.790158,-4.474197,-5.07435,-5.576045,-5.665507,-6.995599,-6.253181,-8.429444,-6.833411,-9.599711,-9.010151,-9.841909,-11.08416,-11.2352,-11.71282,-12.94577,-12.9782,-14.22955,-14.7301,-15.05369,-16.70773,-17.42538,-18.92341,-19.97441,-20.96678,-22.14117,-22.53526,-22.65008,-23.63072,-23.29708,-23.8258,-24.05031,-23.75979,-23.95146,-24.30659,-23.94165,-24.62483,-23.82309,-24.39581,-23.89118,-23.94412,-23.60272,-23.80242,-24.21855,-24.25835,-23.65312,-23.89526,-23.32487,-22.54885,-22.35918,-22.14655,-20.51581,-21.11747,-19.39442,-19.41218,-18.4767,-17.269,-17.57598,-15.80001,-16.86102,-15.51803,-15.37245,-14.93954,-14.2563,-14.40463,-14.0459,-13.56966,-13.97068,-14.04021,-13.77376,-15.1816,-14.5886,-14.86979,-15.82239,-16.21935,-16.96147,-18.46282,-17.77152,-18.74172,-19.05832,-19.3216,-19.62562,-20.34057,-20.4306,-20.17651,-20.43591,-20.36695,-19.91613,-20.45232,-19.89304,-19.89232,-20.32266,-19.02773,-19.80923,-19.39208,-19.19043,-18.87698,-19.27839,-17.87552,-18.80106,-17.68839,-17.637,-17.75611,-16.61718,-16.99919,-16.74274,-16.14957,-16.19956,-15.96485,-15.265,-15.44709,-14.67592,-15.02706,-14.28914,-14.39266,-14.51255,-13.80781,-13.68515,-12.47401,-12.77077,-11.49305,-11.48192,-9.639824,-10.73285,-9.272187,-9.871652,-9.373248,-10.50006,-9.652147,-10.91271,-11.41476,-11.52878,-12.19673,-12.04168,-13.49935,-12.95464,-14.08655,-14.39826,-15.25665,-14.43399,-16.56902,-15.34196,-16.24227,-17.01183,-16.47904,-17.5706,-16.98437,-17.79057,-17.65996,-17.72358,-18.11291,-18.07452,-17.48114,-18.06224,-16.36303,-16.91799,-15.11038,-15.75805,-12.80522,-13.69429,-11.29003,-11.05007,-9.548898,-8.303751,-7.650066,-5.805901,-5.407375,-3.776256,-2.166238,-1.264818,1.016,2.102997,4.814456,5.603666,7.65192,9.239208,11.06958,12.79053,14.65043,16.56397,18.2007,20.03171,22.26415,22.20287,25.47359,25.69467,27.42196,28.38235,29.43816,30.1286,31.13159,31.8622,32.3318,32.77781,35.1223,34.10896,35.80322,36.2065,36.56381,37.41212,36.54247,37.31111,37.06106,37.18845,36.69453,36.2134,36.21597,35.09576,35.43479,34.03399,33.8182,32.57583,31.87967,31.30404,29.42341,29.147,27.37975,25.93522,25.4146,25.27388,24.62828,24.18951,23.83087,24.81594,23.94809,25.77533,26.28354,27.57714,28.03919,30.1522,29.50101,31.36594,31.61754,30.65475,33.67011,31.56975,33.91565,32.55805,34.03017,33.14924,33.88801,