ConstAcc,0.5,0.56926,-84.95989,-74.91801,-65.86999,-57.75347,-50.50831,-44.07661,-38.40265,-33.43284,-29.11572,-25.40188,-22.24397,-19.59661,-17.41639,-15.66183,-14.29333,-13.27314,-12.56531,-12.13567,-11.95181,-11.98298,-12.20013,-12.57582,-13.08418,-13.70092,-14.40326,-15.16989,-15.98094,-16.81795,-17.66381,-18.50276,-19.32033,-20.10329,-20.83963,-21.51854,-22.13033,-22.66642,-23.11933,-23.48257,-23.75067,-23.9191,-23.98428,-23.94349,-23.79487,-23.53734,-23.17064,-22.69522,-22.11222,-21.42345,-20.63135,-19.73895,-18.74981,-17.66802,-16.49815,-15.24519,-13.91454,-12.51198,-11.42861,-8.202612,-7.280149,-6.750177,-5.826031,-4.603891,-3.455923,-2.327946,-1.17241,0.06976811,1.483714,2.996695,4.575138,6.188409,7.978485,9.930634,12.11712,14.28312,16.23229,17.98184,19.48311,20.88627,22.18834,23.36947,24.47651,25.50431,26.46855,27.47819,28.45589,29.38109,30.23424,31.00837,31.72562,32.36712,32.95276,33.45766,33.84428,34.13578,34.39127,34.66053,34.98705,35.38099,35.82989,36.43425,37.0061,37.44158,37.6637,37.65262,37.44381,37.17448,36.90086,36.829,37.07507,37.72971,38.82362,40.27724,41.97574,43.95094,46.08516,48.39161,50.78817,53.21445,55.69402,58.17556,60.72233,63.32348,65.8192,68.2291,70.66076,73.09146,75.35196,77.42462,79.18087,80.72782,82.00756,82.98193,83.66752,84.03752,84.09275,83.85954,83.32518,82.62566,81.71364,80.69209,79.48623,78.11662,76.61666,75.04553,73.49258,71.783,69.86626,67.76556,65.44943,63.04233,60.53621,57.95386,55.19914,52.23778,49.07381,45.7608,42.30152,38.71883,35.03818,31.27404,27.45082,23.67086,19.93749,16.36316,12.84459,9.555824,6.199496,2.779818,-0.6202946,-3.964731,-7.261022,-10.48371,-13.6486,-16.69579,-19.67493,-22.57136,-25.4921,-28.36442,-31.10536,-33.61535,-35.95608,-38.05595,-39.88187,-41.6212,-43.32736,-44.8121,-46.1626,-47.26333,-48.19088,-48.96809,-49.5933,-50.14582,-50.48557,-50.67104,-50.72427,-50.56249,-50.25982,-49.87201,-49.43793,-48.80843,-48.10221,-47.37024,-46.72414,-46.10612,-45.67176,-45.20154,-44.7861,-44.50763,-44.37445,-44.36597,-44.68562,-45.411,-46.3033,-47.39242,-48.43756,-49.25744,-49.82856,-50.20288,-50.53009,-50.78055,-51.05461,-51.36776,-51.81394,-52.31443,-52.89587,-53.41604,-53.91127,-54.48168,-55.16325,-55.96078,-56.59837,-57.2178,-57.88366,-58.44157,-58.92985,-59.60234,-60.5648,-61.7768,-63.32229,-64.94563,-66.56949,-68.22749,-69.91573,-71.61966,-73.26058,-74.76113,-76.03461,-77.06547,-78.1523,-79.23166,-80.36864,-81.51262,-82.51298,-83.37751,-84.18076,-84.93065,-85.56623,-86.06791,-86.38855,-86.42947,-86.31035,-85.95433,-85.48577,-84.85284,-84.21767,-83.42981,-82.50983,-81.38415,-80.14097,-78.75702,-77.16934,-75.43238,-73.60159,-71.65755,-69.76225,-67.77063,-65.65137,-63.33807,-60.87841,-58.28639,-55.63404,-52.84218,-50.02303,-47.23684,-44.66398,-41.93318,-39.0695,-36.10804,-33.09611,-30.06369,-27.12795,-24.11666,-21.28861,-18.5249,-15.72593,-12.65716,-9.682034,-6.911979,-4.633636,-2.731687,-0.9753894,0.6394063,2.24248,3.758579,5.234503,6.623187,7.88443,8.931425,9.741847,10.53943,11.092,11.71267,12.38932,12.93101,13.13669,13.04556,12.83244,12.64134,12.51215,12.60568,12.89792,13.28065,13.84394,14.26433,14.84256,15.53742,16.26336,16.93778,17.6211,18.47876,19.32602,20.38203,21.29551,22.32218,23.48776,24.39285,25.79889,27.50963,29.0036,30.50199,31.9167,33.26425,34.62239,35.89742,36.83022,37.4788,38.10363,38.848,39.65017,40.31386,40.77722,40.93159,40.92716,41.15305,41.71504,42.2172,42.6957,43.10045,43.19018,43.1798,43.3257,43.46193,43.7479,43.73654,43.66227,43.67041,43.54441,43.08394,42.41898,41.83601,41.12266,40.44206,39.66167,38.76774,37.47716,36.39381,35.35459,34.14199,32.83288,31.42616,29.82786,28.10267,26.32703,24.39147,22.25886,20.25551,18.48773,16.76108,15.09539,13.5421,11.84335,10.14946,8.64771,7.04164,5.622214,4.637701,3.783034,2.81391,1.971744,0.8710368,0.2061109,-0.1238244,-0.191533,-0.05688765,0.08463675,0.1634984,0.006268267,-0.08037563,-0.1674769,-0.17843,-0.038693,0.3249687,0.6365524,1.205456,1.823679,2.233185,2.678873,3.05942,3.839931,4.474671,4.826326,5.26207,5.545629,5.435456,5.024169,4.72858,5.080216,5.925686,7.160076,8.647339,10.04154,11.24462,12.40234,13.37789,14.60611,15.64481,16.72731,17.82283,19.00234,20.07092,20.95077,21.84394,22.65384,23.70564,24.55262,25.17306,26.10636,26.56935,26.62358,26.68481,26.64508,26.70307,26.66202,26.51876,26.30274,26.03944,25.67769,25.23355,24.59155,23.60857,22.57518,21.7131,21.25119,21.25125,21.0392,20.4029,19.85265,19.47264,19.21867,18.96845,18.76969,18.49688,18.45037,18.2026,18.31973,18.22792,17.93174,17.52593,17.39039,17.54549,17.61849,17.7333,17.88245,18.12534,18.33431,18.75645,19.00262,19.0702,19.31173,19.47247,19.64559,20.10031,20.69607,21.28804,21.84327,22.62736,23.19839,23.54376,23.97463,24.36902,24.44815,24.67589,25.20919,25.75138,26.37839,26.79556,27.00688,27.00721,26.93893,26.81672,27.16336,27.43842,27.76505,27.95707,27.95421,27.93448,27.98199,28.0916,28.22102,28.17673,28.104,27.93117,27.6645,27.52192,27.3942,26.9651,26.62382,26.19503,25.88118,25.05363,24.34248,23.65509,22.99197,22.13583,20.84595,19.66277,19.39575,19.64362,19.80281,20.00932,19.84583,19.54095,19.2389,19.28178,19.40907,19.34944,19.37994,19.20517,19.2839,19.28624,19.4046,19.2805,19.49035,20.01107,20.22747,20.13325,19.72654,19.23132,18.82892,18.48481,18.00898,17.23954,16.42499,15.75383,14.97558,14.04458,12.94235,11.82633,10.78621,9.568407,8.317419,6.924459,5.591501,4.258609,2.734487,1.051444,-0.5179146,-1.875978,-2.992619,-3.973045,-4.767295,-5.60171,-6.3651,-6.957765,-7.367431,-7.873326,-8.409835,-8.749796,-8.893512,-8.993928,-9.09551,-9.213036,-9.176204,-9.054826,-8.935067,-8.887554,-8.960259,-9.092396,-8.783006,-8.416232,-7.998751,-7.522697,-7.305758,-7.139393,-6.955206,-6.766337,-6.894178,-6.784303,-6.338378,-5.881824,-5.549508,-5.281833,-4.951731,-4.77353,-4.770698,-4.866312,-5.040697,-5.366413,-5.617558,-5.6801,-5.629947,-5.671217,-6.033098,-6.54242,-7.199429,-8.015641,-8.771829,-9.414752,-10.07182,-10.92956,-11.88836,-13.03629,-14.23609,-15.38626,-16.48806,-18.00931,-19.49871,-21.21487,-22.88506,-24.52072,-26.57538,-28.92049,-31.14412,-33.53593,-35.89137,-37.5144,-38.44821,-39.84836,-41.72176,-43.32384,-45.24814,-46.93425,-48.65752,-49.46672,-49.88995,-50.05889,-50.43697,-51.30688,-52.32548,-53.26818,-54.02245,-54.75478,-55.37328,-56.14779,-57.17562,-58.19715,-59.43752,-60.45629,-61.23901,-61.68377,-61.9684,-62.37825,-62.59785,-62.89894,-63.24592,-63.38149,-63.61333,-63.91644,-63.95513,-63.98689,-63.94207,-64.04725,-64.10546,-64.09538,-63.90157,-63.45572,-62.7506,-61.77024,-60.67537,-59.49555,-58.24014,-56.98759,-55.48428,-53.84891,-52.13587,-50.25189,-48.48022,-46.43737,-44.42477,-42.27419,-39.87791,-37.50515,-35.19222,-32.84847,-30.42574,-28.14272,-25.90526,-23.60896,-21.23692,-19.03759,-16.67149,-14.45319,-12.45883,-10.33387,-8.008408,-5.58363,-3.166425,-0.7378326,1.442712,3.441164,5.319066,7.12985,9.114796,10.72397,12.35024,13.86771,15.23842,16.39945,17.61257,18.79687,19.93558,20.80288,21.24229,21.70739,22.2698,22.87124,23.41378,23.79557,23.84344,24.00414,24.16341,24.12009,23.98637,23.49279,22.91702,22.59837,22.57338,22.27973,22.02079,21.78565,21.35279,21.2417,20.87117,20.86937,21.18731,21.65536,21.96202,22.1593,22.37593,22.73731,23.61259,24.80209,25.82191,27.14646,28.0501,28.30365,28.21478,27.74059,27.37205,27.51503,27.55402,27.3966,26.95928,26.50314,26.10476,25.87339,25.28135,24.90675,24.44381,24.12657,23.88369,23.48398,23.04455,22.43563,21.94013,21.75816,21.36127,20.76856,20.16154,19.48511,18.91488,18.42794,17.96783,17.45893,16.98968,16.58594,16.01639,15.32461,14.7734,14.31497,14.01013,13.56982,12.88068,12.28175,12.04262,11.64614,11.33793,11.22931,10.99864,10.93677,10.74527,10.73985,10.75448,10.56897,10.30725,10.20296,10.40373,10.38879,10.26338,10.22442,10.3031,10.34634,10.48663,10.60233,10.83187,11.07584,11.15548,11.28956,11.21161,11.24257,11.10816,10.92947,10.97654,10.84539,10.87631,10.79789,10.77637,10.59518,10.25792,9.923875,9.660839,9.245336,8.576509,8.124725,7.65047,6.979887,6.311742,5.747361,5.05653,4.332505,3.498002,2.454713,1.420766,0.1685005,-0.6115493,-1.106243,-1.635292,-2.386884,-3.214329,-3.934669,-4.475279,-4.884234,-5.314892,-5.42734,-5.841689,-6.381353,-6.728272,-6.979102,-7.363997,-7.752695,-7.761675,-7.886665,-8.222259,-8.698882,-9.079107,-9.354589,-9.550206,-9.923294,-10.20717,-10.21663,-10.56658,-10.72268,-10.85993,-10.93934,-11.12272,-11.21845,-11.5753,-11.89318,-12.1325,-12.19066,-12.14469,-12.13363,-12.39036,-12.88767,-13.17357,-13.38852,-13.76192,-14.23254,-14.75343,-15.08191,-15.09156,-15.27418,-15.76527,-16.3745,-16.89709,-17.26049,-17.60658,-17.83324,-17.92724,-17.99748,-17.95007,-18.14251,-18.31826,-18.55901,-18.33196,-18.24411,-18.30141,-18.38324,-18.88944,-19.33123,-19.78579,-19.73925,-20.119,-20.51479,-20.73483,-20.75581,-20.75152,-21.02717,-21.33832,-21.63714,-21.54858,-21.14546,-20.86575,-20.90419,-20.81661,-20.58846,-20.23241,-19.43492,-19.13615,-18.72947,-18.49969,-17.95786,-17.00846,-16.29411,-15.69026,-15.11543,-14.32607,-13.5761,-12.75062,-11.63121,-10.69739,-9.846419,-8.787213,-7.70357,-6.797692,-5.740508,-4.403173,-2.935946,-1.85127,-0.8714813,0.2111841,1.437256,2.47949,3.526446,4.568547,5.72751,6.888951,7.863929,8.793298,9.791757,10.71549,11.65505,12.47179,13.24428,14.02056,14.74421,15.61758,16.36362,16.8418,17.36177,18.18723,19.14864,19.70405,20.03437,20.58133,21.0934,21.68986,22.46115,23.02625,23.48119,23.7462,24.23386,24.7481,25.04854,25.12237,25.29978,25.5411,25.90674,26.25675,26.33917,25.81826,24.93778,23.99868,23.26174,23.01449,23.02523,23.13262,23.46484,23.7038,23.8309,24.18038,24.04418,24.93175,25.76939,26.47343,27.22149,28.24833,29.30498,30.76621,31.91999,32.64395,33.24027,33.9902,34.53078,35.35687,35.3754,35.22179,35.32999,35.0038,34.65868,34.19437,33.69014,33.06789,32.49191,31.75392,30.74377,29.74516,28.68236,27.40262,26.05316,24.92535,23.68221,22.10146,20.57426,19.04858,17.47768,16.04307,14.65341,12.8013,10.86768,8.716396,7.052127,5.329285,3.436331,1.520789,-0.3637691,-2.132865,-3.827423,-5.255596,-6.907378,-8.770311,-10.44401,-11.96685,-13.41892,-14.84582,-16.17302,-17.26111,-18.18115,-19.38519,-20.80746,-21.72481,-22.46285,-23.27701,-23.94157,-24.71124,-25.08799,-25.61896,-26.10188,-26.2151,-26.33266,-26.5783,-26.57025,-26.26633,-25.85209,-25.29471,-24.77611,-24.16452,-23.50288,-22.75862,-21.84836,-20.81424,-19.89417,-19.05087,-17.97334,-17.01014,-16.22606,-15.11032,-13.96734,-12.97624,-12.01985,-11.38189,-10.4575,-9.390091,-8.757058,-8.315868,-8.062002,-7.661825,-7.529284,-7.788858,-8.441722,-9.389412,-9.887941,-9.980831,-9.85589,-9.62701,-9.646099,-9.524708,-9.636161,-10.4094,-11.45257,-11.27058,-11.11603,-10.43342,-10.50337,-10.28589,-10.14011,-9.91708,-9.47669,-8.732494,-8.533357,-8.428354,-8.211359,-7.952468,-7.691533,-7.392064,-7.320737,-7.219961,-7.336977,-7.209876,-7.379763,-7.690414,-7.966276,-7.838084,-7.577642,-7.373479,-7.671046,-7.688238,-7.640968,-7.550923,-7.267753,-6.932783,-6.920461,-6.773472,-6.572461,-6.290161,-6.207982,-6.109599,-6.023062,-5.887891,-5.788541,-5.504355,-5.227744,-5.222123,-4.734675,-4.236364,-3.871546,-3.820906,-3.343038,-2.786315,-2.756259,-2.492907,-2.273125,-2.108349,-1.492219,-1.143454,-0.8279265,-0.5324552,-0.2941909,0.059004,0.4760867,1.334984,1.488517,1.803418,1.970493,2.303156,2.644602,2.844729,3.234907,3.764466,4.197133,4.585042,4.950914,5.495239,5.746561,6.261053,6.491389,6.523942,6.657268,7.055693,7.379649,7.876307,8.052061,8.14256,8.425641,8.850177,9.563695,10.11376,10.34606,10.67263,11.16989,11.65147,12.02495,12.14148,12.29224,12.70981,12.95051,13.0529,12.82149,12.92151,13.127,13.2516,13.22026,12.93439,12.87918,12.80296,12.59912,12.32216,11.43622,10.93093,10.95209,11.58385,11.48605,11.4983,11.49592,11.63035,11.41379,11.3361,11.51434,11.61427,11.75912,11.77497,11.77037,11.71294,11.76649,12.00701,12.14922,12.14626,12.05911,12.19208,12.06951,12.16735,12.4401,12.69308,12.94915,12.62424,11.92475,11.47769,11.45308,11.81221,12.06684,12.32897,12.44006,12.69814,12.96949,13.42044,13.80824,14.01696,14.52133,15.05244,15.62831,16.08038,16.42283,16.79735,17.3786,18.1223,18.54572,18.59926,18.87389,19.40161,19.62302,19.79331,19.75578,19.55922,19.54695,19.21408,18.92785,18.50017,18.17766,17.85648,17.40784,16.6309,15.25759,14.53992,13.39952,12.78619,12.10529,11.31501,10.27801,8.934324,8.040268,7.08629,5.841057,4.735514,3.482974,2.314215,1.059361,-0.3175657,-1.701276,-2.639151,-3.469019,-4.572698,-5.78663,-7.023572,-7.940453,-8.714991,-9.671114,-10.91753,-11.82366,-12.72929,-13.4556,-14.10733,-15.12541,-15.88142,-16.48477,-16.85568,-17.4637,-18.08693,-18.76965,-18.68053,-18.69592,-19.04602,-19.3489,-19.60187,-19.74611,-19.71534,-19.597,-19.63279,-19.68644,-19.55184,-19.54186,-19.1944,-19.0772,-18.8755,-18.79766,-18.42411,-18.0933,-17.74896,-17.2031,-16.98673,-16.06757,-15.11447,-14.62472,-14.13957,-13.74376,-12.51711,-11.35815,-10.52355,-10.39388,-10.05185,-9.766308,-9.6533,-10.01583,-10.57258,-10.9254,-11.85824,-12.51482,-12.75021,-12.82494,-13.14526,-14.19333,-14.71689,-15.15858,-15.7021,-16.19751,-16.52514,-16.55923,-17.01274,-17.10058,-17.45131,-17.51904,-17.19433,-17.23842,-17.22522,-16.89196,-16.67457,-16.56882,-16.39438,-16.08236,-15.62234,-15.72143,-15.48475,-15.11316,-14.92841,-14.81601,-14.50544,-14.00715,-13.65374,-13.30036,-13.25374,-12.952,-12.70634,-12.06433,-11.53441,-11.28245,-10.59043,-9.870209,-9.473672,-9.002665,-8.696153,-7.803965,-7.048648,-6.29152,-5.716052,-5.496682,-5.012302,-3.993467,-3.2094,-2.850572,-2.172266,-1.481081,-1.093429,-0.4476352,0.1164033,0.4110575,0.825425,1.452743,2.203195,2.426965,2.452196,2.83211,3.195551,3.031954,3.099683,3.139689,3.254111,3.264313,3.419606,3.326882,3.462664,3.560402,3.426636,3.52195,3.264782,3.073821,2.901222,2.455688,2.168818,1.631288,0.9523237,0.3714238,0.1015879,-0.4451256,-0.8452206,-1.692546,-2.261436,-2.67594,-3.161159,-3.590252,-4.231336,-4.377652,-4.755476,-5.45902,-5.655732,-5.581677,-5.273971,-5.509586,-6.015581,-6.672254,-6.866372,-7.028874,-7.400593,-8.274522,-8.948671,-9.507443,-10.01212,-10.4806,-10.6377,-10.92496,-11.70545,-12.10068,-11.7049,-11.61945,-11.65817,-11.9778,-12.07279,-11.63965,-11.57691,-11.76446,-11.62843,-11.62343,-11.4011,-11.71446,-11.63295,-11.27601,-11.50217,-11.32522,-11.27214,-11.21462,-11.0786,-11.12269,-10.82942,-10.50863,-10.54837,-10.75868,-10.66515,-10.25314,-10.23734,-9.845276,-10.07838,-9.751612,-9.66894,-9.261396,-9.39649,-9.324877,-8.804888,-8.112266,-7.774756,-7.246968,-6.59405,-6.068226,-5.262266,-4.438097,-4.138117,-3.373655,-2.559718,-1.706397,-0.9422068,-0.4568765,0.4401358,1.327728,2.36235,3.175559,4.308759,4.850285,5.772976,6.732358,7.58972,7.842538,8.401632,9.011068,9.335105,9.901775,10.51824,10.97355,11.72759,12.35987,12.98115,13.44581,14.34097,15.06111,15.45456,16.20993,16.80618,17.35077,17.84129,18.40525,19.44701,19.73572,20.07776,20.55539,21.06462,21.68315,22.19983,22.19133,22.63799,22.85445,22.91955,23.11586,22.98406,22.84403,22.62778,22.70489,22.85683,22.66291,22.23776,22.22297,22.33125,22.13001,21.68796,21.41157,20.95329,20.60774,20.52274,20.63932,20.3712,20.02798,20.14426,20.09968,19.67855,19.69536,19.54943,19.36376,19.36093,18.94357,18.95698,19.06864,18.75156,18.61672,18.60115,18.15975,18.08206,18.1257,17.88708,17.81546,17.16007,16.97472,16.94983,16.88315,16.69811,16.29762,16.18594,15.93924,15.86187,15.69888,15.3793,15.55114,15.26396,15.14982,14.43303,14.24837,13.61403,13.88994,13.75051,13.30668,13.26658,13.09094,12.65575,12.60158,12.43616,12.09254,11.90969,11.73637,11.59543,11.55764,11.16132,11.12481,11.16337,11.05456,11.23825,11.30275,11.31526,11.25067,11.24931,11.09518,10.84176,10.54303,10.30325,10.12709,10.01818,9.638954,8.787168,8.306395,8.019511,8.0445,7.990838,7.555066,7.534057,7.941006,8.410936,8.572508,8.953164,9.798258,10.77547,10.90384,11.49899,11.89782,12.38365,12.33359,12.66421,12.89368,13.111,13.33987,13.42498,13.1463,13.25456,12.86581,12.46746,12.29918,11.99014,11.49052,10.8019,10.62104,10.03449,9.703078,9.052249,8.369911,7.641319,6.836237,6.320545,5.480959,4.616528,3.676723,2.848382,2.012921,0.9376163,0.009047222,-0.9854953,-2.00346,-3.292147,-4.362694,-5.697021,-6.776575,-7.622908,-8.722614,-9.880908,-11.06892,-12.38707,-13.48332,-14.77964,-15.89706,-17.1065,-18.26695,-19.70033,-20.57301,-21.83042,-23.00172,-23.91043,-24.91278,-25.86454,-27.00194,-27.92866,-28.61903,-28.9926,-29.92816,-30.54086,-30.90979,-31.8449,-32.04598,-32.43053,-32.70337,-33.2065,-33.40993,-33.0345,-32.84437,-32.54343,-32.49389,-32.61695,-32.33996,-32.2233,-32.11453,-32.61529,-32.39527,-32.3152,-32.19303,-32.23008,-32.34966,-32.39723,-32.11464,-31.89977,-32.21598,-32.17192,-32.37068,-32.63133,-32.18206,-32.82512,-33.4799,-33.67386,-33.72502,-34.15467,-34.81283,-35.22757,-35.1168,-34.59947,-34.30113,-34.06504,-33.6948,-32.90742,-31.96422,-31.06653,-30.04236,-29.14852,-28.00672,-27.11518,-26.37496,-24.91541,-24.06306,-22.62304,-21.32352,-19.8421,-18.49423,-17.03621,-15.46359,-13.88368,-12.48025,-11.09713,-9.691092,-8.449898,-6.990533,-5.566201,-4.444731,-3.350795,-1.867726,-0.7271602,0.613812,1.304288,2.418336,3.378707,4.576792,5.442471,6.189208,7.067193,7.659108,8.21947,8.904845,9.552041,9.947937,10.15868,10.5821,11.0507,11.36691,11.53062,11.86566,11.8157,12.30639,12.19773,12.30768,12.0314,12.12259,11.99876,11.80048,11.42641,10.86557,10.45059,10.17229,9.311281,8.882011,8.367581,7.592834,7.361466,6.811371,6.539397,6.14323,6.108018,5.624092,5.308792,5.108873,5.010073,5.289978,5.143775,5.701581,5.738773,6.349113,7.239907,7.513691,7.517381,7.63033,7.933095,8.085465,8.787763,8.942666,9.165478,10.01928,9.916614,10.4438,10.75014,10.98226,10.99606,11.45392,11.51529,11.88537,12.20159,11.94213,12.04327,12.34935,12.00696,12.1741,12.52605,12.60945,12.39885,12.57592,12.70282,12.29018,12.39837,12.27701,12.49461,12.07156,11.79731,11.60537,11.59468,11.30267,10.69761,10.35182,10.27424,10.23967,10.05683,9.970335,9.810343,9.369595,9.198098,9.012495,9.032128,8.63895,7.767482,7.498776,7.415544,7.088135,6.100684,5.973811,5.983269,5.876113,5.689458,5.417364,5.073442,5.03072,4.951418,5.423795,4.804675,4.823318,4.613859,4.653096,4.57649,4.361685,4.316886,4.588827,4.716532,4.956604,4.769544,5.214561,5.516451,5.613889,5.598807,5.595352,5.958448,6.658678,6.468799,6.843948,6.925301,6.98787,7.155643,6.987372,7.29712,7.115511,7.131103,6.97153,6.764056,7.015828,6.780287,6.497689,6.300538,6.42202,6.124842,5.70367,5.570515,5.278095,5.280613,5.106164,4.560828,4.126262,3.965812,3.470551,2.732108,2.679269,1.983124,1.703684,0.8587369,0.7209497,0.135307,-0.4133086,-0.8364796,-1.357038,-2.167025,-2.86533,-4.00335,-4.485568,-5.089342,-6.166355,-6.844688,-7.387888,-8.020367,-8.541582,-9.183206,-9.841637,-10.2862,-10.61194,-10.82172,-11.4033,-12.10655,-12.88481,-12.99156,-12.84374,-13.5216,-14.27889,-14.10312,-14.24076,-14.04327,-14.52596,-14.7689,-14.92344,-15.0209,-15.24955,-15.5564,-15.90946,-15.31933,-14.95895,-15.2073,-14.88921,-15.53146,-15.58562,-14.75436,-14.47667,-14.91128,-15.65697,-15.71286,-15.43041,-15.71846,-16.38629,-16.72651,-17.17292,-17.63961,-17.71323,-18.56053,-19.36952,-19.80396,-19.98028,-20.26184,-20.82563,-22.04688,-22.14762,-22.69264,-22.85532,-23.04695,-23.66401,-23.82847,-23.68688,-23.56279,-23.36294,-23.48687,-23.44699,-23.18859,-22.78498,-22.10671,-21.55059,-20.934,-20.19687,-19.21505,-18.22561,-17.46998,-16.77318,-15.58033,-14.54799,-13.01647,-12.12666,-11.0621,-9.456974,-7.945743,-6.461558,-5.110932,-3.894489,-2.315856,-0.4495654,0.9463135,2.399007,3.714617,5.347821,7.092026,8.376423,9.550672,10.63943,12.2899,13.62522,15.03189,16.24785,16.77585,18.1325,19.31402,20.73408,21.19723,21.79341,22.27983,23.44039,24.13644,24.6187,24.71179,25.32963,26.12309,26.42183,26.90304,26.62777,26.86834,27.26455,27.43306,26.93477,26.78179,26.64225,26.74332,25.92288,24.37503,23.30565,22.59299,21.65684,21.02604,21.50772,22.05654,21.37777,21.91691,22.00843,23.03554,23.23624,23.93973,24.73351,25.70026,26.46479,27.85114,28.18418,28.82598,29.98515,30.6773,31.52654,32.78493,32.52267,32.92735,33.41874,33.55316,33.48222,33.51093,33.60436,33.17056,32.75774,32.55402,32.41142,31.45069,31.18764,30.53817,29.57651,28.60576,27.53989,26.28563,25.19591,23.83099,22.62455,21.30971,19.70836,18.43218,16.4525,14.9557,13.15441,11.35037,9.38481,7.816821,5.919348,4.567311,2.380157,0.6831389,-1.032672,-2.61567,-4.352935,-5.9443,-7.56556,-9.311851,-10.70953,-11.79235,-13.43425,-14.91547,-16.02619,-17.36631,-18.42365,-19.34527,-20.84843,-21.49284,-22.42665,-22.81158,-23.51455,-23.97739,-24.12404,-23.9237,-24.27143,-24.12922,-24.41121,-23.71416,-23.62306,-23.3638,-22.88649,-22.54677,-21.51804,-20.65738,-19.82424,-19.29225,-18.10648,-17.30144,-15.91215,-14.50998,-14.06947,-12.87054,-11.56437,-10.90158,-9.537006,-8.824367,-8.572909,-7.877368,-7.391701,-7.551216,-7.399403,-7.379419,-7.687903,-8.214539,-9.321296,-10.00744,-9.890774,-10.01033,-9.72525,-8.844059,-8.588903,-9.140607,-9.742907,-8.678216,-8.513347,-8.247906,-8.872545,-8.445009,-8.311359,-8.352406,-8.372276,-8.18701,-8.354023,-7.910136,-8.077139,-7.983871,-8.10672,-8.144699,-8.298113,-8.001497,-8.371229,-8.345336,-8.197993,-7.890232,-7.975503,-8.034856,-7.958261,-8.006912,-7.368417,-7.570112,-7.398237,-6.829106,-7.05085,-6.554002,-6.371697,-5.964137,-5.774403,-5.767829,-5.483639,-5.078125,-5.117031,-4.779824,-5.188264,-4.49161,-4.230551,-4.013723,-3.433849,-3.510775,-3.230475,-2.717217,-2.90967,-2.463517,-2.635396,-2.140891,-2.082253,-1.894753,-1.89599,-2.137818,-1.92326,-1.715521,-1.871909,-1.767377,-1.574176,-1.568314,-1.437837,-1.234738,-1.341852,-0.9749884,-0.8912056,-0.5845015,-0.2485242,-0.1399903,-0.4972242,-0.373887,-0.1597174,-0.2272786,-0.2359372,-0.08515014,-0.07018068,-0.05951347,0.1409471,0.4157931,0.5576159,0.5518427,1.01953,1.144236,1.543971,1.285738,1.905235,2.453502,2.278038,2.582626,2.711914,2.567201,3.10472,2.864025,2.793646,3.028628,2.935346,3.30705,3.621506,3.61412,3.942525,3.922428,4.026794,4.256459,4.108577,4.068211,4.011288,4.111098,3.809535,3.924655,3.995869,4.11458,4.246754,4.149135,4.266241,4.433025,4.391089,4.568129,4.99201,4.85705,4.802475,5.369934,5.235974,5.814527,6.185175,6.003139,6.917063,6.98321,7.404019,7.707271,7.871934,8.452121,8.597123,9.166401,9.804413,10.17966,10.70896,11.06858,11.53509,12.99283,12.44101,13.18037,13.39071,14.04334,14.31632,14.70479,15.35562,15.76163,16.24525,16.72379,16.6052,16.94009,16.45466,16.61586,16.81683,17.06687,17.5565,18.11573,18.7251,19.83605,20.12378,21.42192,22.0253,22.96943,23.9572,25.13455,26.09545,27.4032,28.3821,29.63723,30.77476,31.59199,32.85498,33.78847,34.45199,35.31216,35.76309,36.2786,36.91554,37.2329,37.1698,37.75504,38.38573,38.15192,38.47692,37.81453,37.76539,37.17279,37.05481,36.4866,35.89504,35.0135,34.32161,33.28904,32.54246,31.36519,30.21833,29.06608,27.56415,26.46629,25.04912,23.47759,22.3794,21.13891,19.46532,18.00834,16.3132,15.00078,13.51005,11.97611,10.23938,8.518602,6.602806,5.169922,3.314953,1.631054,-0.6174509,-1.777621,-3.537889,-5.165282,-6.862366,-8.648383,-10.33521,-11.88569,-13.23239,-14.98551,-16.22068,-17.36961,-18.82095,-19.69738,-20.68832,-21.28903,-22.05041,-22.2976,-23.23366,-23.69337,-24.13399,-24.66864,-24.76479,-25.05018,-25.38372,-25.54989,-25.58589,-25.63756,-25.57644,-25.73013,-26.18852,-24.73298,-24.10199,-23.21088,-23.19307,-23.31444,-23.43861,-23.15347,-23.82246,-24.33156,-25.21795,-26.63341,-27.51284,-29.31294,-30.98369,-32.38697,-34.2274,-34.77932,-36.12628,-36.99263,-38.51,-39.82289,-40.45505,-41.17063,-42.33358,-42.90688,-43.76811,-44.16222,-44.14976,-44.75513,-45.10338,-45.14063,-45.28302,-44.46972,-44.47912,-44.14038,-43.69001,-43.39709,-42.6546,-41.91918,-41.3267,-40.51358,-39.51924,-38.01778,-37.21756,-35.73535,-34.35731,-32.9539,-31.39497,-30.17437,-28.5108,-26.76077,-25.15136,-23.36192,-21.6196,-20.08135,-18.40417,-16.57162,-14.54609,-13.20181,-11.64977,-9.968327,-8.386453,-6.537353,-5.190178,-3.566599,-2.391679,-0.8786551,0.3909182,1.575879,2.645022,3.709689,4.732922,5.70502,6.330077,6.864207,7.246592,8.003228,8.130209,8.505297,8.579867,8.804973,8.485978,8.525589,8.222848,7.420229,6.79464,6.444652,5.856823,4.920693,4.352034,3.217459,2.253501,1.867518,0.538911,0.2520768,-0.9682073,-1.890982,-2.820781,-3.448474,-4.675023,-5.505212,-6.193428,-7.103901,-7.782282,-8.151394,-8.478222,-8.861624,-8.573289,-8.335988,-8.155758,-6.502319,-7.066226,-6.837578,-6.536329,-7.090048,-6.616855,-6.480929,-6.586945,-5.987024,-6.213961,-6.071001,-5.694915,-5.702367,-5.068069,-4.854623,-4.914175,-4.451942,-4.398573,-4.07832,-4.051848,-3.835924,-3.501716,-3.482014,-3.128375,-3.428033,-2.83261,-2.78521,-2.62612,-2.653979,-2.158619,-2.234298,-2.252456,-1.895752,-2.217567,-2.480185,-2.704094,-3.239725,-2.843606,-3.517784,-3.534537,-3.847427,-3.658648,-3.885509,-3.898116,-3.963387,-3.991978,-3.727037,-3.999535,-4.031277,-3.775813,-4.105666,-4.251322,-3.82011,-4.096312,-4.556393,-4.496793,-4.266956,-3.988403,-4.038002,-4.247932,-3.985556,-3.476032,-3.272615,-2.823263,-2.971465,-3.001129,-2.160428,-2.388375,-2.222629,-1.840912,-1.775661,-1.370011,-0.8612974,-0.6335233,-0.3151063,0.1408702,0.6560641,1.010976,1.298337,1.923351,1.901218,2.621651,2.720523,3.335549,3.377099,3.840727,4.334461,4.649529,5.495523,5.670512,6.117323,6.503327,7.607484,7.815686,9.07002,8.880545,9.692032,10.14326,10.43222,10.82943,11.08179,11.32895,11.50881,11.9841,12.44814,12.45363,12.61594,12.72917,13.55174,13.56564,13.88417,13.94099,14.32536,14.5815,14.72493,14.72651,14.5384,15.10313,15.19396,15.17651,15.27847,15.29925,15.49243,15.64811,15.45996,15.21473,15.22403,15.09592,14.97643,14.78486,14.47566,14.69012,14.35406,14.20129,13.6606,14.0289,13.19187,12.9925,12.89291,12.55743,12.19525,11.64016,11.14606,11.03802,10.5122,10.36019,9.471279,9.624728,8.806116,9.053166,8.132466,7.873725,7.792024,7.661075,7.190374,7.058356,6.593517,5.950846,5.907672,5.654371,5.385104,4.933569,4.665226,4.722591,4.38256,4.811231,4.587522,4.527274,4.548819,4.464331,4.894354,4.898357,5.078072,5.125971,5.092116,5.328629,5.686543,5.119561,5.539993,5.837023,5.561115,5.908503,5.926434,5.936813,6.243822,6.053956,6.357475,5.855272,6.220575,6.735533,6.23151,6.101678,6.20044,6.151352,6.155277,6.104043,5.768745,6.012225,5.900917,5.707644,5.635128,5.795405,5.737275,5.120385,5.428166,4.499705,4.187204,3.848946,3.232642,3.239693,2.740446,2.602843,2.546165,2.358378,2.257412,1.80311,1.455831,1.142629,1.457418,0.7702774,0.6255519,0.002915062,0.1756432,0.07685818,-0.2750871,-0.8412015,-0.7794304,-0.9724035,-1.057856,-1.121456,-1.654543,-1.90777,-2.247461,-2.398269,-2.419209,-3.083208,-2.855866,-2.790246,-3.241851,-3.241391,-3.690607,-4.096148,-4.276319,-4.67081,-5.112032,-5.657591,-6.373266,-6.949719,-7.377358,-7.990444,-8.35445,-8.724002,-9.571956,-10.0333,-10.68509,-11.19786,-11.94224,-12.46994,-12.92296,-13.33119,-14.31449,-14.39779,-14.98934,-16.09515,-15.94906,-16.42004,-16.82296,-17.24035,-17.57626,-17.66103,-18.18231,-18.58194,-18.59905,-18.73395,-19.18455,-18.73475,-19.11865,-19.02531,-18.52974,-18.2243,-17.74119,-17.26112,-16.72459,-16.8337,-15.65229,-15.57422,-14.73031,-14.55561,-13.20183,-12.77943,-11.8491,-11.26673,-10.40643,-9.409295,-8.473698,-7.697866,-6.428835,-5.705736,-4.428032,-3.514537,-2.713648,-1.490443,-0.3242465,0.4969558,1.791325,2.516997,3.810029,5.103984,5.763263,7.521151,7.938016,9.031035,9.454415,10.2931,10.98077,11.4076,12.56706,12.58823,13.69182,14.53411,15.05995,15.27007,15.59859,16.01861,16.28807,16.26189,16.075,16.46664,16.51295,16.63069,16.85754,17.11226,17.51203,16.72553,16.95301,16.90908,17.14516,16.47676,16.99342,15.98391,15.30401,14.69883,14.11744,14.03455,13.69468,13.9409,14.1268,14.29282,13.74444,14.35887,14.23254,15.42694,15.55825,15.44766,15.90037,16.1964,17.04879,16.99212,17.6762,17.90402,18.56636,18.70419,18.44442,18.37552,19.00196,19.3548,19.16473,19.25299,19.20633,18.82179,18.83487,18.85815,18.53887,17.98226,18.3082,17.64597,16.94548,16.62609,15.94054,15.24915,14.70372,14.36709,13.05262,12.47572,11.74706,11.10479,10.26855,9.489199,8.59492,7.645311,6.798576,5.686741,4.621106,3.246566,2.466768,1.203752,0.1547406,-1.168069,-2.12361,-3.978319,-4.549504,-6.318156,-7.104013,-8.379166,-9.585053,-10.17204,-11.42304,-12.69773,-13.71359,-14.69001,-15.56546,-16.25169,-17.18252,-17.73057,-18.7913,-18.98952,-19.4822,-20.43487,-20.72824,-21.26791,-21.70556,-21.46455,-21.92857,-21.83024,-22.2732,-21.8138,-21.58396,-21.86151,-20.74329,-21.03337,-20.55424,-20.27862,-19.72458,-19.64463,-19.07502,-18.70554,-18.26447,-17.22035,-17.3746,-16.64825,-15.91178,-15.6475,-15.61413,-15.90673,-14.99524,-15.10325,-15.16326,-15.71617,-15.57322,-16.96101,-16.77861,-16.97768,-16.94885,-16.7663,-16.78134,-15.99676,-16.34261,-15.42081,-15.57064,-14.86428,-14.73918,-13.85321,-14.26594,-13.64792,-13.37908,-13.079,-12.65408,-12.96995,-12.64153,-12.60502,-12.1286,-12.12894,-12.01209,-11.75824,-11.33129,-11.03318,-10.8454,-10.66488,-10.50078,-10.45292,-9.699265,-9.728317,-9.678376,-9.465855,-9.162069,-8.767816,-8.782154,-8.196331,-8.544333,-8.133399,-7.667692,-7.603463,-7.703255,-7.128067,-6.828705,-6.401596,-6.212771,-5.850649,-5.872337,-5.401889,-5.140348,-5.218817,-4.764576,-5.068053,-4.451352,-4.604873,-4.313499,-3.960718,-3.688152,-3.42574,-2.985297,-2.629134,-2.29486,-2.118975,-1.828649,-1.271638,-1.133038,-0.7930931,-0.6315412,-0.3007758,0.2846535,0.7232866,0.9450537,1.254496,1.619229,2.168575,2.571258,2.812556,3.847729,3.966736,5.173838,5.574876,5.95032,7.043697,7.156511,8.097871,8.61145,9.312243,9.855336,9.518251,10.70566,11.21742,11.32016,11.95825,12.64136,12.90915,13.47118,14.06663,14.17046,14.83245,15.35921,15.46052,15.97259,16.23221,17.18694,17.07867,17.79392,17.75022,18.45576,18.31074,19.20124,19.19617,19.84366,20.4522,20.58299,21.19112,21.55624,22.47302,22.31231,22.47489,22.99289,23.5082,23.65907,24.23123,24.17038,24.46397,24.5067,24.97788,25.03633,25.49648,25.60264,25.85475,26.30334,26.32726,26.79887,27.4401,27.52778,28.17377,28.42767,28.69506,29.04131,29.05829,29.8864,29.70781,30.5473,30.09749,30.19019,30.95311,31.10475,31.46575,31.3183,31.97745,31.93639,32.59333,31.73541,31.53485,31.07978,31.17864,30.81326,31.28822,31.09212,31.42332,32.08209,32.15082,33.14005,33.35839,34.21995,35.0633,35.23561,35.83255,36.09575,36.82631,37.01984,37.33524,37.75025,37.75197,37.98087,38.08266,38.16156,38.47498,38.58415,38.37597,38.47106,38.21964,37.92148,37.11018,36.93908,36.50319,35.72482,34.92273,34.33519,33.40865,32.53027,31.33208,29.84361,28.18251,26.95658,25.43853,23.77977,21.91254,20.80678,18.58595,16.84761,14.95988,12.71368,10.41888,8.852788,6.23297,4.189143,1.855589,-0.5412691,-2.462469,-4.89063,-7.326823,-9.834931,-12.18317,-14.61349,-17.29319,-19.26389,-22.08004,-24.35234,-26.84296,-28.78735,-31.40285,-33.77995,-35.41266,-37.72713,-39.17525,-41.44828,-43.33973,-44.44435,-46.53491,-47.5276,-48.69861,-50.68894,-51.02956,-52.35436,-52.90601,-53.84915,-54.08032,-54.59026,-55.19448,-54.96221,-55.16774,-54.81788,-55.09137,-55.17684,-54.4426,-54.42043,-54.07022,-53.6516,-52.41184,-50.86699,-50.04871,-49.36142,-49.24168,-48.21938,-47.95072,-48.18877,-48.56012,-48.90816,-49.1416,-50.44156,-51.20891,-52.6533,-53.17803,-53.7109,-54.22032,-54.46921,-55.31136,-55.96484,-55.95168,-56.34492,-56.68384,-56.71385,-57.39429,-57.28386,-57.40441,-57.85489,-57.27636,-57.39718,-57.02772,-56.67078,-56.24515,-55.63134,-55.37526,-53.81067,-52.96431,-51.98021,-50.93111,-49.86746,-48.9039,-47.64597,-46.37651,-45.20275,-43.62256,-42.14079,-40.27719,-38.9,-36.70877,-34.77626,-33.19381,-31.49421,-29.01803,-27.16598,-25.01326,-22.58841,-20.32689,-18.12952,-15.87825,-13.57727,-11.4117,-8.983803,-6.61742,-4.344581,-2.12998,0.4668054,2.19306,4.986249,6.716994,8.601896,10.45424,11.85067,14.01251,15.21748,16.90496,17.63001,18.7526,20.39195,20.59666,22.02221,22.48611,23.22378,23.95719,24.3219,25.18765,24.72563,25.5156,24.90446,25.05333,25.22599,24.68903,24.74435,24.16937,23.90183,23.46787,22.88596,22.61818,21.87503,21.6262,20.66576,19.97532,19.89871,19.51839,19.10806,18.52325,18.66891,19.24963,19.11958,19.41071,20.2676,20.75506,20.69836,20.86834,19.90855,20.58216,19.51995,19.62345,19.50716,19.08179,19.19867,18.7074,18.35861,18.41319,18.13895,17.84536,17.67152,17.34927,17.36231,16.6109,17.23723,16.71366,16.62906,16.31856,16.60839,16.15741,16.15379,15.9602,16.26415,16.47508,16.20143,16.0338,16.38912,16.1199,16.71244,16.35354,16.81956,16.41223,16.56827,17.0721,16.2893,16.39271,16.712,16.23367,16.69685,16.37227,16.07163,16.66943,15.69397,16.47387,15.66065,15.58342,15.39452,16.02202,15.18175,15.58543,14.75193,14.8001,14.49612,14.43583,14.16329,13.97606,14.02594,13.3716,13.3568,12.93931,12.83673,11.98058,11.98119,10.72762,10.41225,9.843303,9.339246,8.775656,8.167893,7.684269,6.841467,6.58828,6.443446,5.412484,5.586319,4.601407,4.21851,3.903251,3.350121,3.474005,2.147776,2.333091,1.659507,1.938471,1.21001,0.9093852,0.5655856,0.3105659,0.3962319,-0.7129623,-0.3800074,-0.591323,-1.485499,-0.8347578,-1.336227,-1.390793,-0.9495119,-1.037281,-0.639609,-1.246125,-0.4520549,-0.9487241,-0.9854821,-0.9331922,-0.7465511,-1.015504,-1.327046,-0.5677374,-1.286519,-0.6075041,-1.273518,-0.8797262,-0.8030755,-0.693201,-0.07183502,-0.3830167,-0.2168158,-0.01615829,-0.02946012,0.338318,0.2508292,0.3674458,0.6942638,0.6109556,1.011632,0.2318386,0.6899081,0.3633104,0.919546,0.4936938,0.5181975,0.8784444,0.564356,0.7137473,0.7443111,0.2612114,1.079851,0.325783,0.7306039,0.6663032,0.5886384,0.5835306,0.3423367,-0.3046024,-0.9473508,-0.6533623,-0.7394643,-1.400281,-0.4967397,-1.056566,-0.5099765,-0.5125022,-0.6659412,0.3378251,0.2078825,1.334928,1.17897,1.956469,2.239319,2.74554,2.648941,3.363029,3.601046,4.019453,4.472818,4.502602,4.640477,4.845904,5.228548,5.041003,5.211703,4.702441,5.266749,4.715273,5.262632,5.020455,4.819044,4.978902,4.90133,4.588551,4.625293,4.407991,3.64039,3.624958,3.423546,2.809297,2.137503,1.906039,1.725688,0.9956477,0.4541807,0.2608242,-0.6753831,-0.6958941,-2.118939,-2.061239,-3.097764,-3.672738,-4.002657,-5.145602,-4.899158,-6.125247,-6.851316,-6.876054,-8.113835,-8.336363,-9.177889,-10.13436,-10.64863,-11.89692,-12.0974,-13.28423,-13.47185,-14.45886,-14.83398,-15.58548,-16.05581,-16.49328,-16.87636,-17.3208,-17.74057,-17.83553,-18.25225,-18.21319,-18.76644,-19.1104,-19.37673,-19.71368,-20.13211,-18.52999,-18.80782,-18.46848,-18.21515,-18.57978,-18.22695,-18.12628,-18.51944,-18.35747,-18.46771,-18.77934,-19.00775,-19.1207,-19.76592,-19.69833,-20.17798,-20.58935,-20.76165,-21.64797,-21.76398,-22.19609,-22.89553,-23.39068,-24.01734,-24.15853,-23.98132,-24.4537,-24.69696,-24.45366,-23.62458,-23.57797,-22.45293,-22.47138,-21.12236,-20.40116,-18.93619,-18.12261,-16.95989,-15.95431,-14.51917,-13.79788,-12.17548,-11.20304,-9.866284,-8.859152,-7.384383,-6.531626,-4.712793,-3.874433,-2.274633,-1.095737,0.4154961,1.30586,3.042817,3.817697,5.539592,6.723255,8.273557,9.163373,10.65878,11.38977,13.07681,13.05371,14.42514,15.12335,16.05808,16.30337,17.08775,17.96189,18.11797,18.91732,19.19013,19.42613,19.61724,20.00927,19.58128,20.64476,19.96461,20.09873,20.28851,19.98963,20.49086,19.56517,19.88873,19.238,19.04291,18.71381,18.25095,17.66305,17.26227,16.78963,16.26191,15.71889,15.32308,14.33865,14.61123,13.87685,13.79176,12.97768,12.99901,12.49863,12.32581,12.15432,11.34251,11.66265,11.36673,12.02475,12.12936,12.48423,13.44454,14.39088,14.31663,14.47791,14.63374,15.13677,15.2637,15.65625,15.77494,16.07963,16.02866,16.42959,16.4217,16.44674,16.23605,16.02783,16.29285,16.41802,15.80033,15.76147,15.69332,15.31934,15.92957,15.41243,15.27271,15.13779,14.62293,14.26994,14.37553,14.63333,14.01589,13.70433,13.91179,13.54234,13.21026,13.31592,13.01968,12.73917,12.81178,12.0436,12.22513,11.42228,11.33297,10.52126,10.14493,9.62743,9.646528,8.751507,9.002977,7.957809,8.070369,7.458878,7.009298,6.959115,6.328542,6.043522,5.686737,5.819879,4.984732,4.644016,4.480329,3.754403,3.802667,2.944562,3.17981,2.118371,2.370393,1.49009,1.165891,0.604749,0.2088351,-0.3449698,-0.5128746,-1.089117,-1.5359,-2.295116,-2.167962,-2.287517,-2.731447,-2.47335,-2.513446,-2.739679,-2.325155,-2.591598,-2.294027,-2.619059,-1.94204,-2.172317,-1.969981,-2.505846,-1.923567,-2.604951,-1.944297,-2.066927,-1.547685,-1.941436,-1.180699,-1.016516,-0.8937839,-0.5701726,-0.2782915,-0.01183939,-0.1133027,0.7324386,0.2164382,1.075162,0.6778097,1.355968,1.477777,1.160814,2.091075,1.69157,2.485382,2.274182,2.439831,2.787108,2.657458,3.333072,3.205589,3.275694,3.23613,2.997537,3.033001,2.631842,3.020891,2.474251,2.825194,2.29057,2.121993,2.563208,2.057404,2.209645,2.238606,1.792568,1.96406,1.337681,1.017537,0.7922159,0.5736654,0.2813841,-0.1625493,-0.1920917,-0.2613737,-0.5659642,-1.154127,-0.949125,-1.530914,-1.526961,-1.772002,-2.09192,-2.573076,-3.043588,-3.254561,-3.283871,-3.451623,-3.458489,-3.436568,-4.163082,-3.592886,-3.899914,-4.243043,-4.120042,-4.891539,-4.188234,-5.163524,-4.68843,-4.743292,-4.696204,-4.973551,-4.509436,-4.41892,-4.579653,-4.367492,-4.228673,-4.264004,-4.293666,-4.455656,-4.707833,-4.637302,-4.891564,-5.118566,-5.919701,-5.641866,-6.646945,-6.678918,-6.905756,-7.418783,-7.657234,-8.201503,-8.44802,-9.308285,-9.408104,-10.01781,-10.42577,-10.73359,-11.47017,-11.89904,-12.91975,-13.42221,-13.70965,-14.44266,-14.95267,-15.30043,-15.89732,-15.98198,-17.11207,-16.97549,-17.56509,-18.4651,-18.51705,-19.44502,-19.76176,-20.46777,-20.35617,-21.50479,-21.1004,-22.09451,-21.5982,-21.92646,-22.42819,-21.49682,-22.92047,-22.0757,-22.51954,-22.42466,-22.45955,-22.64048,-21.99809,-22.42126,-21.9644,-22.63933,-22.33213,-22.47993,-21.9878,-21.78202,-22.09166,-21.79233,-21.79937,-21.42289,-21.12258,-21.57221,-20.78785,-21.42978,-20.91052,-20.59826,-21.12295,-20.4666,-20.64476,-20.02581,-20.49266,-20.24484,-20.28336,-20.43053,-20.07454,-20.53496,-20.78731,-19.67972,-19.91246,-19.48983,-19.76735,-19.66391,-19.70832,-20.03636,-20.06176,-20.37572,-20.4389,-21.13849,-21.28074,-21.93671,-21.87191,-22.82331,-22.50841,-23.74959,-23.16493,-24.19588,-23.70461,-24.4028,-24.48987,-24.19944,-24.05502,-24.04497,-23.10511,-23.48157,-22.74326,-22.52474,-22.25232,-22.01739,-21.62407,-21.44431,-21.34431,-20.13076,-20.63182,-19.36616,-19.37704,-18.56553,-17.96418,-18.10754,-16.49207,-16.76452,-15.63014,-15.09805,-14.27699,-13.71666,-12.62974,-11.76187,-11.12604,-10.37636,-8.977024,-8.344189,-6.461513,-6.058276,-4.416239,-3.706314,-2.369344,-0.9348261,-0.1361002,1.326186,2.160572,3.691035,4.975982,6.197959,7.53059,8.721346,10.23293,11.60189,13.31631,14.46664,15.99844,17.48349,18.84642,20.34737,20.94627,22.86786,23.76234,25.27342,26.031,27.28587,28.49168,29.12208,30.25,31.21838,31.90576,31.94968,32.5475,32.64913,33.30996,33.93574,34.56404,35.6139,36.58015,37.44428,38.7361,39.32531,40.9631,42.19661,43.24087,44.69957,45.41872,46.68718,46.92403,48.57519,48.7484,50.168,50.48553,51.34746,52.58165,53.56385,53.46766,53.668,53.73687,54.24832,53.27705,53.56815,53.18222,52.8596,52.5657,51.67128,50.96544,49.51988,49.6849,48.17573,47.46239,45.70853,45.20738,43.60401,42.89237,41.32998,40.42577,39.24611,38.51436,37.24424,36.48197,34.61719,33.44045,32.21404,30.97684,29.76869,27.97088,26.57844,25.56396,24.51777,22.34879,21.70369,19.57628,18.68308,16.90366,15.5609,14.39373,12.4672,11.75185,10.02887,9.11573,7.861398,6.736087,5.600272,4.539909,3.459032,2.723453,1.814094,1.450484,0.4551606,0.09267401,-0.7995423,-1.213995,-1.553261,-1.757679,-2.323411,-2.345242,-2.634434,-2.382793,-2.674848,-2.459196,-2.668696,-2.343947,-2.052233,-1.875417,-1.522236,-1.819541,-0.9716449,-1.084562,-0.8183257,-0.745146,-0.4234189,-0.4527729,-1.048383,-1.115332,-1.113854,-1.669106,-1.995176,-2.644205,-3.271503,-5.121875,-6.369185,-6.922115,-6.925952,-7.299623,-7.064775,-7.399938,-7.415382,-7.186342,-6.980303,-6.823345,-6.604127,-6.485722,-6.027656,-6.152137,-5.99685,-5.929873,-6.246518,-6.001312,-6.042584,-6.119802,-6.104516,-6.751734,-6.527882,-6.54287,-7.047689,-7.150304,-7.52026,-7.744967,-8.034853,-8.553173,-8.516601,-9.577629,-9.641179,-9.993334,-10.87366,-11.06948,-11.58015,-11.65519,-12.44442,-12.79939,-13.31471,-13.74643,-14.28821,-14.69984,-14.54666,-15.56221,-15.51072,-15.72862,-16.27643,-16.03118,-16.51452,-17.47271,-16.70547,-17.56741,-17.335,-18.02182,-17.56892,-17.83132,-17.58931,-17.64221,-17.55497,-17.62789,-17.75299,-17.28252,-17.35585,-17.16857,-16.78875,-16.75076,-16.62638,-15.80074,-15.97796,-15.88908,-15.68133,-15.5642,-14.80765,-14.87107,-14.25833,-14.27835,-14.38595,-13.98143,-13.72619,-13.47304,-13.0677,-12.16885,-12.26959,-11.38159,-11.06419,-10.74219,-10.2097,-9.870846,-9.195043,-8.817755,-8.329429,-8.083584,-7.373577,-7.502946,-6.605853,-7.005669,-6.338904,-6.375532,-6.318329,-6.826199,-6.876296,-6.383543,-6.695946,-7.232422,-7.109713,-7.684872,-7.770653,-8.4539,-7.770611,-8.039076,-7.569665,-7.300935,-7.474739,-6.875196,-7.318573,-6.475089,-6.611435,-6.497836,-6.155262,-6.606782,-5.720589,-6.528955,-5.331987,-5.746324,-5.456383,-5.396959,-4.910768,-5.20961,-4.268258,-4.825237,-4.085083,-3.695227,-3.693734,-3.526335,-3.518227,-3.675354,-3.322878,-3.408973,-3.232323,-3.551274,-3.146298,-3.408729,-3.252327,-2.887175,-3.385319,-2.998187,-3.410461,-3.00912,-3.73169,-3.509256,-3.729187,-3.558455,-3.30596,-3.491939,-3.516361,-2.990623,-3.597425,-2.831967,-3.250978,-3.113509,-2.738136,-3.155434,-2.364005,-2.804311,-2.523437,-2.5516,-2.116377,-2.13166,-2.160298,-1.951623,-2.284632,-1.757434,-1.914109,-1.653469,-2.16927,-2.158156,-2.31943,-2.300336,-2.60077,-3.051732,-2.934904,-3.540323,-3.334488,-3.802625,-4.723613,-5.228438,-5.814196,-5.408704,-5.756507,-6.039731,-5.086897,-5.092759,-4.607742,-4.048311,-4.193641,-4.203778,-3.744001,-4.23893,-3.750282,-4.45042,-4.804872,-5.01642,-4.447799,-5.129468,-5.277497,-6.258755,-6.5244,-7.08083,-7.724777,-8.491133,-8.775934,-9.503748,-10.14709,-10.39483,-11.38479,-11.67036,-12.23691,-13.1093,-12.8188,-14.53241,-14.24116,-15.19178,-15.73683,-15.66612,-16.87479,-16.82292,-17.9224,-17.78121,-18.10321,-18.21523,-18.04583,-18.72292,-17.13794,-17.95683,-16.42957,-17.04919,-15.40646,-15.45334,-13.4289,-13.91883,-12.13212,-11.89773,-10.65414,-9.949185,-8.799598,-7.61771,-6.370022,-5.40126,-3.850624,-2.901815,-1.660222,-0.5645752,0.8562828,1.860533,3.075845,4.236538,5.38452,6.911095,7.860557,10.13346,10.77238,12.57697,14.04299,15.04637,16.22447,18.23259,18.63127,21.03191,21.60546,22.82758,23.32055,23.24684,24.17533,24.62082,25.73013,26.65222,27.83074,28.40639,30.1964,30.48388,32.47087,32.60982,34.25787,34.28273,35.24112,35.92855,36.21418,36.76613,37.01984,37.51317,37.1908,37.18872,36.95492,36.98804,35.86558,36.29039,35.50642,35.53571,35.18939,35.07469,34.95931,33.96042,33.72925,32.51434,31.70135,30.42747,29.83839,28.76509,28.0392,26.95492,26.11884,25.59151,24.58905,22.96321,22.36774,20.41201,20.16145,18.78947,17.69429,16.85803,15.52315,14.48908,13.24873,12.06047,10.71637,9.915262,8.659557,7.071178,6.29931,4.419974,3.582087,2.097086,1.024735,-0.3709251,-1.054023,-2.472308,-3.794315,-4.551751,-5.419444,-6.373677,-7.261225,-8.225419,-7.96144,-9.927769,-8.797784,-10.78946,-10.16441,-10.9884,-10.93349,-11.45786,-11.59746,-11.44709,-11.91151,-11.33246,-11.24113,-11.09158,-11.35329,-11.32362,-10.47294,-11.0067,-10.5961,-10.59337,-10.19745,-10.17624,-9.283234,-9.449192,-9.025123,-8.895712,-8.554359,-8.146471,-8.519116,-7.947653,-8.332857,-8.201563,-7.96215,-8.000004,-8.697437,-8.751893,-9.83786,-10.18994,-11.34047,-11.42656,-11.73943,-11.34462,-11.55867,-11.73408,-11.55788,-12.07506,-11.61231,-12.39477,-11.53805,-12.86882,-11.75185,-12.53461,-11.99616,-12.32219,-12.04388,-11.83539,-11.81152,-11.51233,-11.89465,-11.71206,-11.69557,-12.08283,-11.49438,-12.34836,-12.01979,-12.58923,-12.25025,-12.74613,-12.70496,-13.03921,-13.28845,-13.29982,-13.23932,-13.64274,-13.08327,-13.83461,-13.5898,-13.78922,-13.69097,-13.82966,-14.25228,-14.01831,-14.25583,-14.50552,-13.79314,-14.7356,-14.16352,-14.01748,-14.5414,-13.97499,-14.2402,-14.12631,-13.70599,-13.98439,-13.49068,-14.49638,-13.46517,-13.9948,-13.38647,-13.57514,-13.3596,-13.84991,-12.80722,-13.65281,-13.30849,-12.86422,-12.37351,-12.3162,-11.61523,-11.52573,-11.01246,-11.01182,-9.4945,-10.25213,-9.137072,-8.479127,-8.471165,-7.76781,-7.175835,-6.632164,-6.437217,-5.296573,-5.27344,-4.669525,-4.667451,-3.613039,-3.450662,-3.323735,-2.817167,-2.772756,-2.54851,-1.942168,-2.264989,-1.669425,-1.928142,-1.453892,-1.222606,-0.8939061,-0.920973,0.276164,-0.2317993,0.6425629,1.225385,1.539856,2.004111,2.078745,2.863674,2.989683,3.054894,3.750556,3.081557,4.102757,3.556716,4.314247,4.132973,4.133735,4.355764,4.892165,4.748058,5.459102,5.469117,6.150305,6.498286,7.189225,7.783125,8.218757,8.477672,9.009367,9.765985,9.662616,10.8203,10.55708,11.94954,11.40581,12.92224,12.54717,13.62456,13.74226,15.08961,15.12944,16.50086,16.64896,17.5147,18.36192,18.81732,19.69816,20.14442,21.36557,21.78661,22.53829,22.83375,23.94138,24.35425,25.30336,25.54757,26.34803,26.99636,27.63452,27.89341,28.91418,28.62517,29.0586,29.53015,29.37807,30.09709,29.4482,30.42008,29.9649,30.77331,30.0314,30.71383,29.96623,31.10587,30.20996,30.89295,30.97563,30.99298,30.87122,31.04244,30.83954,30.70732,30.83811,30.43899,30.47865,29.93955,30.30166,28.90467,29.81884,29.01691,28.38941,28.51744,27.7036,27.57018,26.98964,26.41869,26.03728,25.08185,24.75434,23.88003,23.83629,21.64454,21.42948,19.39487,19.51333,18.22105,18.05034,17.76238,17.07037,17.31821,17.16636,16.78008,16.76451,17.44599,17.00335,17.5355,17.14211,17.59542,17.59928,17.41584,17.67301,17.38657,17.45068,17.17404,17.73484,17.41956,17.20373,17.1198,17.03325,16.38487,16.54227,15.77123,15.96152,15.03166,14.95312,14.07675,13.82537,12.99285,12.31886,11.81075,10.82818,10.0798,9.208998,8.345718,7.543155,6.383933,5.364296,4.070217,3.431737,2.001541,0.4263131,-0.2649426,-2.679992,-2.452456,-4.557389,-5.417035,-6.91464,-8.375706,-9.595737,-11.56809,-12.30466,-14.47247,-15.24342,-17.71069,-18.48907,-20.5077,-21.7521,-23.64623,-25.12283,-26.65594,-27.78979,-30.0672,-30.79298,-32.546,-33.86382,-34.81467,-36.36434,-37.0436,-38.5688,-39.25369,-41.65204,-39.73739,-41.79454,-40.92999,-42.06027,-41.84556,-42.60717,-43.10208,-44.05333,-44.52302,-45.47494,-46.14104,-47.2311,-48.16911,-48.49126,-49.88231,-50.11971,-51.22911,-51.63124,-52.98211,-53.16615,-53.67229,-54.62324,-55.14381,-55.74452,-56.39807,-56.5662,-57.85392,-57.96143,-59.61191,-59.89155,-61.46027,-60.66441,-61.06605,-60.24474,-59.83656,-58.82386,-58.01598,-57.44281,-55.53388,-54.85841,-52.70345,-52.06588,-49.64028,-48.62843,-46.59016,-45.00108,-43.02697,-40.93526,-39.45337,-36.8365,-34.87331,-32.55586,-30.10522,-27.72597,-25.59369,-23.49035,-20.95116,-18.82511,-16.99101,-14.27262,-12.40532,-9.730085,-8.093868,-5.744807,-3.312347,-1.637707,0.2989053,2.005219,3.885861,5.458103,6.707785,8.64914,9.136389,10.8896,11.2996,12.74725,13.06844,13.93373,14.37955,14.66283,15.5244,15.31672,16.05381,15.24099,15.41305,14.85332,14.71301,13.8437,13.40357,12.9837,11.56428,11.2341,9.856935,9.390106,8.134005,7.540373,6.658338,5.532378,5.174069,3.524458,3.257426,2.611889,1.698056,1.328261,1.296035,0.7020054,1.012701,0.8284854,1.450656,1.405601,3.888551,2.047933,3.601446,2.932701,3.628247,3.158928,3.704918,3.39281,3.726088,3.746359,4.363081,4.08777,4.688737,4.924759,5.065004,5.566331,5.52284,5.890035,5.801403,6.665818,6.643969,7.694638,7.065324,8.376388,8.1346,8.807769,8.868802,9.513718,9.153385,10.41262,11.19781,11.28212,12.04134,11.875,12.96088,13.18146,13.70073,14.84316,15.19671,15.96232,16.79393,17.25561,18.41855,18.69371,19.603,20.08619,20.92416,21.20892,21.78312,22.47254,23.33581,23.97722,23.8982,24.26536,24.35997,24.62643,24.92614,24.80186,25.06646,25.4541,25.13689,25.95934,25.35867,25.48122,25.44076,24.56472,24.74885,23.96027,23.35015,22.93476,22.41252,21.48889,21.10682,20.09556,19.43155,19.27181,17.6081,17.50333,15.95818,15.08591,14.14164,12.91445,11.94265,10.51972,9.541082,8.283831,7.105796,5.888635,4.539926,3.540939,2.176393,1.704892,0.2042139,-0.3130988,-1.225406,-2.297628,-2.423489,-4.184795,-3.643669,-5.291978,-4.126516,-5.66709,-5.316331,-6.083646,-5.707617,-6.336653,-6.001054,-6.371169,-6.409885,-6.991316,-6.100563,-6.684884,-5.990145,-6.454859,-6.173766,-6.204689,-5.438946,-5.33117,-5.044189,-4.643103,-4.445568,-4.409417,-4.289744,-3.75185,-3.810341,-3.232669,-3.228708,-2.71512,-2.430839,-2.425833,-1.709788,-1.692662,-1.347222,-0.9739779,-0.958977,-0.8656677,-0.3486505,-1.183958,-0.6117105,-0.9596309,-0.724921,-1.471312,-1.197876,-1.212965,-1.034807,-0.9950902,-0.2515042,-0.6108982,0.03194662,-0.3617464,0.1232975,-0.1066045,-0.05616054,-0.2786993,-0.5364168,-0.5018649,-0.879353,-0.8235522,-1.133951,-1.164798,-1.135058,-2.442768,-2.105627,-2.742241,-2.813817,-3.158548,-2.864468,-3.165077,-2.849162,-3.428004,-2.699694,-3.306256,-3.223126,-3.568934,-3.524033,-3.759543,-3.299097,-3.936311,-3.594995,-3.982411,-3.764183,-3.71518,-3.19681,-3.2434,-3.197731,-2.94302,-3.429323,-2.709877,-3.484162,-2.840061,-3.462555,-2.644128,-3.162359,-2.822444,-2.852563,-2.797002,-2.425057,-2.521268,-2.277706,-1.836764,-2.07411,-1.094936,-1.615132,-0.5611313,-1.167372,-0.09146024,0.08386798,0.1318887,1.333033,0.7645007,2.114892,1.503856,2.823996,2.301634,3.579825,3.177991,3.940518,4.777978,4.710122,5.147525,6.411889,6.304796,7.393646,6.299117,7.694505,7.54823,8.463732,8.58389,9.068653,9.901209,9.853477,10.9696,11.25994,12.43028,12.52506,13.47768,13.69425,14.63803,14.88034,15.36803,16.247,16.67588,17.56549,17.56652,18.27006,18.48395,19.1648,19.40765,19.96631,20.35261,20.45876,20.68591,20.90054,21.302,21.17946,21.17788,21.1999,21.26081,21.14834,20.62025,20.86681,19.86176,20.23908,19.54737,18.91449,19.06015,17.57269,18.17661,16.78226,16.8731,15.62785,15.13755,14.91905,13.05976,12.86059,11.49869,10.89198,10.12475,8.682227,8.191507,7.21993,5.57962,5.270452,3.487631,3.280005,1.693801,1.350777,-0.4167443,-0.5119389,-2.259678,-2.467227,-3.59043,-4.333005,-5.10244,-6.430046,-6.682722,-7.848682,-8.154116,-8.645307,-9.247025,-9.760259,-10.16603,-10.7604,-11.60714,-10.49644,-11.92527,-10.98042,-12.2276,-10.19789,-10.87843,-11.24225,-10.11682,-11.60319,-10.56566,-11.35826,-11.26111,-12.28883,-12.02869,-13.00827,-12.96741,-13.8423,-14.08412,-15.06483,-15.47816,-15.606,-16.87842,-16.60374,-17.78819,-18.11365,-19.09197,-19.43306,-21.02712,-21.33939,-22.75256,-22.4997,-23.7119,-23.83205,-24.80291,-24.42389,-25.23568,-25.89031,-25.91966,-26.43809,-26.49182,-26.92175,-27.08318,-27.30361,-26.9268,-27.5978,-26.61483,-27.25961,-26.83023,-26.98868,-26.58651,-26.23297,-26.02495,-25.70311,-25.292,-25.08519,-24.35778,-24.26298,-23.53437,-22.49054,-22.08319,-21.40537,-20.6073,-19.98174,-18.78071,-18.29778,-16.75084,-16.223,-15.31333,-13.62032,-13.14518,-11.80822,-10.78319,-9.814558,-8.453935,-7.700168,-6.556068,-5.700285,-4.829428,-4.287237,-3.681069,-2.396172,-2.053569,-1.0916,0.1206158,0.4504924,1.732619,2.088816,2.688653,3.378791,4.209877,5.120712,5.099572,5.527893,5.945867,5.95831,5.867092,6.329559,5.930917,6.037281,6.258362,5.708716,6.502027,5.573997,6.50434,5.92423,6.105778,6.012172,5.73769,5.957166,5.964246,7.347883,5.678045,7.761243,6.643825,8.636228,6.5198,7.174524,7.301593,5.964271,6.931217,5.688028,5.751864,5.204087,5.565134,4.359031,5.058259,3.430023,3.788505,2.548158,2.659017,1.135416,0.9527859,0.294876,-0.7259145,0.3578122,-1.36801,-0.5913084,-1.449115,-1.49997,-1.928192,-2.301575,-2.155292,-2.727181,-2.852036,-2.815946,-3.772459,-3.540586,-3.960939,-3.814037,-4.380792,-4.443191,-4.691403,-4.769601,-5.118572,-5.429976,-5.473528,-6.100833,-6.304434,-6.775608,-7.055513,-6.555849,-7.939184,-7.152064,-7.573233,-7.639447,-6.863511,-7.499615,-7.145357,-6.870277,-7.38939,-6.90303,-6.636566,-7.520149,-5.957185,-7.34965,-6.218462,-6.370167,-6.566191,-5.864488,-6.239048,-5.573385,-5.920632,-5.243009,-5.91088,-4.788056,-5.325137,-4.757561,-4.223763,-4.299435,-3.266441,-3.338775,-2.426092,-2.36386,-1.232302,-1.431039,-0.3521555,-0.05967017,0.7711086,1.105088,2.229203,2.421774,3.021995,3.130264,4.883321,4.073662,5.771579,6.152638,6.477171,7.842161,8.310273,8.85795,10.23532,9.550061,11.83807,11.10751,13.01433,12.77536,13.80447,14.00353,15.04932,15.72405,16.15601,17.38215,16.95157,17.79326,18.26682,18.74952,19.28707,19.17544,20.05153,20.21906,20.77333,21.02165,21.01117,21.08255,21.20122,20.87254,21.13013,20.90327,21.10102,20.7566,22.12709,21.93707,22.49272,23.38645,23.34047,23.82914,24.25507,24.31689,25.01804,24.95433,25.89816,25.62964,26.36182,26.35496,27.00084,27.79289,27.86957,28.72468,28.62956,29.60392,29.96179,30.42192,30.92846,31.50789,31.66862,32.63912,33.06845,32.99465,34.43885,35.05599,35.15647,37.0242,36.76245,38.1103,38.82557,38.95983,40.58172,40.83449,41.62586,42.4405,43.05574,43.51411,44.29105,43.4278,44.55667,43.736,44.4367,44.57003,44.93456,45.91664,46.06393,47.64015,47.70617,49.35683,49.65007,50.94402,51.85081,51.26312,52.87573,52.62496,53.80456,53.60383,53.8518,53.82052,54.56727,53.98849,54.31607,52.81124,53.50475,52.36582,52.15577,51.17229,50.91153,49.0259,49.13567,47.20718,46.241,45.12095,42.92736,42.12553,40.38409,38.33084,37.04809,34.2899,33.3117,30.75771,28.43257,25.94805,24.14673,21.31907,19.33445,16.33128,13.65314,11.19017,9.075629,5.973953,3.573623,0.4819342,-1.686651,-4.892649,-7.369126,-10.11898,-13.03106,-15.15417,-18.08839,-19.78196,-22.85307,-24.93337,-27.32326,-29.97333,-30.93568,-34.03183,-35.80999,-37.37815,-39.47278,-41.3449,-42.54235,-45.04007,-46.05043,-48.05757,-48.8559,-50.85425,-51.60519,-53.56441,-54.09948,-54.37603,-55.19247,-54.77343,-55.58366,-55.65066,-55.85257,-56.54811,-56.7997,-57.84918,-58.09142,-58.72618,-59.31033,-60.33132,-61.03764,-61.50341,-62.00703,-62.19985,-63.48457,-63.72122,-64.1007,-64.46186,-64.9338,-65.49909,-66.58643,-66.53463,-67.4063,-67.89757,-68.9383,-69.69656,-69.34721,-69.82927,-68.65128,-69.02033,-67.41623,-67.43674,-66.0553,-65.17196,-64.09683,-63.63726,-62.17704,-61.42014,-59.53941,-59.04398,-56.69802,-56.10727,-53.91821,-52.87601,-51.15173,-49.63841,-47.89418,-46.68829,-44.54481,-43.46059,-41.14353,-39.71011,-38.05357,-35.90328,-34.34218,-32.79507,-30.87934,-29.19539,-27.44333,-25.8223,-24.70692,-22.33767,-21.16481,-19.92184,-18.28272,-17.28185,-15.66327,-14.2165,-14.11227,-11.82803,-11.74743,-10.2982,-9.673424,-9.0872,-8.210078,-7.645597,-7.255644,-6.898027,-6.681836,-6.53525,-6.526818,-6.434905,-6.34024,-6.419152,-6.470431,-6.938942,-7.406382,-7.775886,-9.168749,-8.862285,-10.44461,-10.60148,-11.93144,-12.36235,-13.48359,-14.26806,-15.15201,-16.26688,-16.5555,-18.26661,-17.96625,-19.90175,-19.42145,-20.54754,-20.28677,-21.08776,-20.4538,-20.11006,-20.19964,-19.94435,-20.45336,-21.11035,-21.01315,-21.67894,-22.16712,-22.83692,-22.88253,-23.96129,-24.23653,-24.83296,-25.1274,-25.6499,-25.50123,-26.42555,-26.65552,-26.56784,-26.79892,-27.2985,-27.14505,-27.20674,-27.61567,-27.27644,-27.62514,-27.74162,-27.94915,-28.38455,-28.5083,-29.2303,-28.78516,-29.66747,-30.28739,-31.03711,-31.09848,-31.5552,-32.02986,-32.5463,-32.43293,-32.87279,-33.04268,-33.57602,-33.00518,-34.41977,-33.19791,-35.05211,-34.44869,-35.74513,-35.282,-36.21024,-36.27161,-37.16982,-37.14586,-36.80807,-37.63204,-37.05328,-37.37835,-37.6614,-37.23457,-37.63417,-37.53521,-37.59497,-37.41928,-37.34248,-36.80468,-37.36851,-36.41412,-36.50153,-35.54035,-35.05474,-35.20081,-33.5608,-33.66029,-31.86831,-32.2313,-29.93706,-29.61292,-27.67397,-26.86202,-25.14811,-23.77728,-21.96756,-20.49001,-18.21326,-17.1494,-14.65965,-12.85802,-10.78076,-8.730573,-6.641617,-4.855486,-1.835277,-0.663867,2.662702,3.842586,7.405475,8.516533,11.91612,13.90537,16.02424,18.52962,20.52345,23.61613,25.29128,28.06588,30.15011,32.4514,34.67629,36.79498,39.11504,41.29915,42.9887,45.56963,46.61044,49.57836,50.05824,52.90827,53.923,56.49948,57.67541,60.08052,61.46775,63.46397,64.81698,67.13407,68.13202,70.63037,72.26545,73.71707,75.71288,77.76033,78.96098,80.97041,82.13228,83.80403,84.95372,86.04762,88.31376,88.31194,91.26798,91.21384,93.2978,94.22241,96.28438,97.08716,99.83005,100.0089,102.9813,103.0827,106.5029,105.4375,110.0717,109.9415,109.4796,112.8593,112.6474,114.0375,114.992,113.8838,115.2804,116.4413,117.455,119.7187,122.4283,123.6836,129.2545,131.289,135.5736,138.7993,143.2193,148.0569,150.0946,154.9447,159.4365,162.8215,166.8275,173.8014,174.6803,181.6525,183.1165,188.1777,191.5298,193.3013,197.6722,197.9913,201.0683,201.4198,203.0636,203.2895,203.6153,203.1369,202.8759,201.016,199.3626,197.3692,195.3474,191.6847,189.4736,185.9767,181.1873,179.352,172.518,170.1956,164.2303,160.1986,153.8423,148.4803,142.6229,135.7368,130.0989,122.7051,116.5748,108.6499,102.4742,93.6438,87.90673,78.79217,72.77484,64.08869,56.66551,48.74331,41.07981,34.24562,24.69251,18.71725,10.24804,3.988168,-4.835501,-9.457362,-18.57557,-24.96738,-30.61932,-38.29653,-42.66683,-49.26337,-54.93222,-59.8664,-64.29176,-69.63959,-73.02942,-77.4499,-80.8421,-84.63653,-87.49272,-91.09592,-92.79883,-95.72655,-95.78413,-100.0728,-98.32494,-102.4401,-101.4303,-103.1752,-103.9983,-105.2997,-103.5045,-108.0506,-105.0065,-108.6451,-108.0424,-111.0099,-111.2076,-114.9483,-116.7952,-117.5195,-122.593,-124.9567,-128.0631,-131.617,-132.316,-135.3548,-137.1197,-138.2892,-139.944,-141.3663,-142.1904,-144.438,-145.3422,-146.8542,-147.4514,-148.9555,-151.173,-149.5653,-150.0138,-149.8487,-149.6061,-147.1506,-151.8058,-146.755,-150.9948,-148.0769,-150.3951,-150.5798,-150.3253,-151.73,-151.8806,-153.0884,-152.4905,-155.0396,-154.1875,-156.8153,-156.6896,-158.6061,-158.4539,-158.3155,-159.5562,-159.7713,-158.7714,-159.4964,-159.7022,-157.6012,-160.065,-156.2312,-158.6541,-155.4311,-157.3745,-153.8203,-153.8042,-152.2911,-150.4093,-149.3664,-147.1771,-145.8369,-142.3824,-141.342,-138.112,-136.027,-133.2757,-130.5599,-127.4257,-124.5683,-120.7133,-117.7386,-114.4012,-110.3451,-107.2427,-103.6168,-99.82272,-96.16869,-93.36078,-88.41032,-84.23208,-81.38299,-75.93637,-73.21155,-69.36804,-64.78239,-60.68692,-57.80125,-53.42714,-50.14198,-45.97049,-43.61327,-38.75732,-36.34597,-31.34227,-29.13014,-24.643,-22.31517,-19.28154,-16.25256,-14.08221,-10.69397,-9.307542,-5.990311,-4.225115,-3.423596,0.2353937,0.7808243,1.932701,4.597267,4.254328,6.820257,6.792795,8.194443,7.824512,9.159028,9.528973,9.578445,10.12283,10.27849,10.43331,11.19002,10.25289,11.8195,10.88652,12.27988,11.87553,12.64159,13.04891,13.39368,14.40121,15.70266,16.16446,17.08137,16.91243,18.73342,16.93101,19.51479,18.42539,19.17097,20.08327,19.66815,20.75746,21.44217,20.93175,21.9492,22.74081,22.26674,24.77044,23.01892,25.59972,24.96989,26.90185,26.94539,27.79855,28.13345,29.9485,29.18398,31.43661,30.94676,32.47259,32.42723,34.04917,34.89403,34.69295,37.83152,36.55579,38.4623,38.88533,39.71961,40.77426,41.59291,42.66211,43.44282,43.46993,45.6472,44.27804,46.59261,47.29627,46.97302,49.02964,48.56183,50.13833,49.06099,51.2655,50.06111,50.74707,50.92013,51.44811,51.53184,51.67943,51.81202,51.53803,52.27478,51.73801,52.14257,52.27003,51.7472,52.47793,52.01903,52.98095,51.47016,53.12648,52.05799,52.8123,51.6001,52.48839,51.49073,50.67017,52.24398,49.93661,50.95495,50.66695,49.8156,50.28402,49.81206,49.71373,49.52069,48.51008,49.59621,47.09185,48.44227,46.92906,47.6819,46.1323,46.57128,46.51308,44.84833,45.70841,44.3209,44.69724,44.13069,43.31451,44.06194,43.20249,43.17133,43.21658,42.20315,43.43167,41.52822,43.58736,40.64086,42.45173,41.00767,41.03649,40.78968,40.10415,40.18587,39.04652,39.03676,38.91554,37.44001,38.16299,37.17045,36.51136,36.63203,35.46312,35.97688,34.17743,34.49003,33.69826,33.44013,33.11485,32.6098,31.90242,32.25286,31.01646,30.59174,30.4844,29.46547,29.8942,28.05479,29.33852,27.5003,27.55359,27.89218,25.8167,27.08213,25.27563,26.46535,25.30366,24.69866,24.14442,24.06601,22.15565,23.656,20.84328,22.88283,21.5774,19.8932,22.81902,19.03067,21.79047,18.05963,20.75192,17.55908,19.19455,17.46344,18.50669,17.00359,17.48057,16.21529,16.25676,15.85532,15.03831,14.89056,14.37527,13.70393,13.10352,11.99189,12.64996,10.35632,11.06611,9.460196,9.447749,7.707502,8.20357,5.845783,5.644692,4.99196,4.38428,3.883965,4.335097,2.026725,3.530667,1.738567,2.76108,0.9992526,1.923632,0.4004761,1.904729,0.5627337,0.400652,0.9521466,-0.6413709,0.1194785,-1.02685,-1.115404,-1.5235,-1.407068,-2.346961,-2.287305,-2.550295,-2.66818,-3.310346,-3.671447,-3.595117,-4.458112,-3.717394,-5.086398,-4.305795,-5.750887,-4.751213,-6.018094,-6.52266,-6.093461,-7.432615,-7.417829,-8.535684,-8.591656,-9.819348,-10.02043,-10.94568,-11.32205,-12.69193,-12.03435,-14.2424,-12.99013,-15.33242,-14.163,-15.72633,-15.7592,-16.23385,-17.00883,-17.4047,-17.17705,-19.14363,-18.0998,-20.01936,-19.08266,-21.14495,-20.38243,-20.96662,-22.03164,-22.01852,-22.13507,-23.48802,-23.00654,-24.46761,-23.99845,-25.2594,-25.25857,-26.07331,-25.44777,-27.26388,-25.66679,-27.89317,-26.17097,-28.09283,-26.02832,-26.5817,-27.61558,-25.90315,-27.53113,-25.23361,-27.02006,-25.15719,-25.5225,-23.70334,-25.80749,-22.81527,-24.56254,-22.63876,-23.42537,-22.36855,-22.25459,-22.56227,-22.63127,-21.45001,-22.21724,-21.73317,-22.25153,-22.41169,-22.16448,-23.43185,-24.13307,-23.86169,-25.79161,-24.69963,-26.39927,-25.56114,-27.10246,-26.6842,-28.01431,-27.11078,-28.69314,-28.62275,-28.84077,-29.48947,-29.04759,-29.32531,-30.15636,-29.5458,-29.33529,-30.07345,-29.47363,-29.38695,-28.56618,-28.83265,-27.82932,-28.32219,-26.84989,-26.98182,-26.00288,-26.0054,-24.00442,-24.33572,-22.79729,-21.56095,-21.78012,-19.90662,-19.28154,-18.90717,-16.8398,-17.39685,-14.74428,-15.03374,-12.95608,-12.80573,-11.21615,-9.619158,-8.77709,-7.155879,-5.716984,-4.573462,-3.174052,-2.658856,-0.298301,0.1445429,1.735121,3.347696,3.651016,6.028491,5.591124,8.378636,8.514324,9.429206,11.01164,11.42546,12.46887,13.07191,14.63808,14.50552,15.78702,15.48625,17.05342,16.33545,17.78508,17.15964,18.21506,17.90886,17.94604,18.49083,18.6122,18.28327,19.03437,17.93057,19.51326,17.86368,19.61243,17.49978,19.32834,17.94058,18.72605,18.21536,17.90637,18.88441,18.23336,18.50706,17.9872,19.24666,18.05709,19.49164,18.8388,19.90021,18.93737,20.46213,19.59803,21.44273,19.14745,20.99124,19.8813,20.55349,19.2575,19.61879,18.69125,18.89633,17.96169,18.12853,16.38712,17.8065,14.9907,16.28553,14.17958,14.70075,12.86336,13.21214,12.29768,11.44328,10.92587,10.67052,9.838187,9.458782,9.114188,7.784605,8.508401,7.152968,6.915593,6.314027,5.008988,5.04599,3.750885,3.793101,2.60827,1.909028,1.551797,0.08657401,0.09971579,-0.301452,-2.383996,-0.8168377,-3.354808,-2.301144,-3.698788,-3.797103,-4.217081,-3.96528,-4.427448,-3.962581,-4.188585,-4.069557,-4.533869,-3.867691,-4.489318,-4.650602,-5.05367,-3.893907,-5.078454,-3.07518,-4.883569,-3.109056,-4.273413,-2.775393,-3.513556,-2.279104,-2.426223,-1.873152,-1.152534,-1.23134,-0.8086225,0.1715199,0.164406,1.450117,0.9333205,1.697758,2.26127,2.517418,2.997646,2.964249,4.022264,3.302383,4.30611,4.662033,4.333817,5.297521,4.06864,5.865054,4.343098,5.251916,4.897432,4.901542,4.808323,4.362537,4.166888,4.029835,3.101434,4.035949,2.725919,3.281907,2.822234,2.688871,2.376918,2.357767,1.643333,2.034628,1.114099,1.3476,0.07085483,1.069917,-0.9822664,-0.09035433,-1.685293,-1.48474,-2.982776,-1.613187,-4.2893,-3.309862,-4.480043,-4.83973,-5.327598,-5.53098,-7.112842,-5.625932,-7.852383,-7.045178,-8.405009,-8.2369,-9.40826,-8.409197,-10.35139,-8.91835,-11.67828,-10.28407,-12.24463,-12.19795,-12.67256,-14.1254,-13.78901,-14.60041,-15.22121,-14.77896,-16.44234,-15.83077,-17.02187,-17.29563,-16.96123,-17.9645,-17.57178,-18.8641,-18.92397,-19.14719,-20.5371,-19.70637,-22.03389,-20.49183,-23.41684,-21.56677,-24.23076,-22.83109,-25.40702,-24.75459,-25.51239,-26.53731,-26.37646,-27.79491,-26.63308,-28.57075,-27.85856,-27.99069,-28.44716,-28.41593,-28.31281,-28.32464,-28.14861,-27.98643,-27.1577,-27.738,-26.69349,-26.25261,-25.82812,-24.18952,-24.10145,-22.14382,-22.7667,-19.79828,-20.10306,-17.78411,-17.55933,-15.52455,-14.0756,-12.99901,-11.0132,-9.670727,-8.444183,-6.121809,-5.49054,-3.116673,-3.133256,0.4233796,0.1043641,3.265458,3.793561,5.903976,7.166386,8.408394,11.00941,12.19273,13.69922,15.66053,17.36089,18.98689,20.23266,22.01076,23.39525,25.25981,25.8723,27.68852,28.69588,30.25102,30.88796,32.46796,32.86469,33.88263,35.00295,35.62177,35.84769,36.84827,36.86827,37.84789,37.62323,37.55378,37.01403,37.08861,36.6423,36.72188,36.47633,37.02066,36.02121,38.0961,35.54029,37.94004,35.90546,37.80446,36.68177,37.77959,37.76865,37.81326,38.99975,38.67748,39.2821,39.40227,38.97751,39.73978,39.91133,39.31309,40.378,38.75258,39.13008,38.09319,38.60699,37.11896,37.0583,36.11944,34.78605,34.66904,32.86852,33.17334,31.03157,31.34515,28.6197,28.66148,26.65965,25.13795,24.5627,21.6724,22.20174,17.74857,18.93091,14.91163,15.23293,11.24191,11.43431,7.977365,7.286734,4.76317,3.697043,1.309347,0.6071906,-1.78656,-1.989469,-4.066166,-5.427119,-6.80512,-7.945068,-9.342569,-10.69661,-12.11031,-12.92716,-14.61333,-15.08356,-16.7716,-17.60371,-19.06956,-19.10772,-21.16111,-20.4917,-22.58006,-22.06436,-22.99882,-22.87111,-23.59855,-23.48742,-24.47857,-23.62444,-24.45732,-22.18437,-24.68105,-21.98579,-23.34202,-21.16818,-22.32727,-20.12102,-21.17574,-19.22834,-19.21721,-18.41695,-17.81129,-16.85434,-16.0658,-15.54229,-15.25069,-13.84573,-14.54131,-12.43342,-13.46553,-12.2542,-12.8096,-12.52228,-12.65945,-13.13807,-13.35223,-13.06743,-13.34893,-12.30909,-13.27012,-11.77045,-12.29973,-10.95328,-11.68796,-10.29746,-10.64374,-9.729887,-10.28881,-8.643279,-10.00441,-7.617579,-9.371263,-7.136125,-9.231374,-6.492054,-8.250361,-6.259045,-7.589544,-5.803588,-7.102136,-5.678604,-6.170263,-5.492499,-5.702608,-4.583375,-5.632157,-3.82099,-5.370462,-3.696996,-4.540333,-3.225526,-4.131086,-2.974211,-3.411959,-3.05472,-3.208091,-2.364302,-2.801591,-2.448235,-3.101974,-1.886434,-3.549469,-1.919085,-3.26332,-2.288837,-2.975978,-2.114493,-2.992735,-1.824758,-2.852413,-2.199394,-1.460738,-1.875575,-1.272862,-0.8919253,-0.973295,-0.4183115,-0.2095239,-0.02933026,-0.1009228,0.3488753,0.1652387,0.9372854,0.3737973,1.83675,0.3878493,2.261485,1.433323,2.975845,1.782025,3.833701,2.777257,3.78981,4.282426,4.128328,4.35465,5.034572,4.865578,5.330443,5.930105,6.482459,6.051068,7.334454,6.266457,8.161089,6.076357,8.798802,5.799631,8.814291,6.409229,8.179004,7.276568,8.25807,7.249873,8.302123,7.345946,8.603344,7.236125,8.536295,6.999341,8.374134,6.450114,7.390074,6.507517,6.413951,6.078614,5.997052,5.205389,5.502821,5.07469,4.321044,5.032153,4.085961,3.590469,3.876542,2.566288,2.940693,1.965801,2.173309,1.374319,1.678291,0.2987952,0.4689583,-0.4730888,-0.5112707,-1.621524,-1.60531,-2.509667,-2.215045,-3.334228,-3.212379,-3.35273,-4.239804,-4.660872,-4.342895,-6.436131,-4.84825,-7.401775,-6.051975,-8.034474,-7.269952,-8.781593,-8.395994,-8.918705,-10.03752,-10.22811,-10.38958,-11.76961,-11.98171,-12.18254,-13.23371,-13.49266,-14.11773,-14.39151,-15.13852,-15.27081,-16.0612,-16.79639,-16.94326,-17.88384,-17.82793,-17.77584,-19.1262,-18.47804,-19.5344,-19.00051,-19.4809,-19.00232,-19.73091,-19.78716,-20.60167,-20.10883,-20.1004,-20.89068,-20.62065,-21.90651,-20.54606,-22.23461,-21.42347,-22.30481,-22.11717,-21.6712,-22.68273,-21.60984,-23.38987,-22.45288,-23.31009,-22.91142,-23.27048,-23.08343,-23.56593,-23.15492,-23.22374,-23.48611,-22.7012,-23.49192,-22.38656,-23.02758,-21.89642,-22.17265,-21.33095,-20.71466,-20.13131,-19.24157,-18.6601,-17.43754,-16.89558,-15.98596,-15.34321,-14.03099,-12.89012,-13.14516,-9.613807,-10.61191,-8.464378,-7.322622,-6.437168,-4.910812,-3.954897,-2.547646,-2.166657,0.4244325,1.04139,2.946399,3.560841,5.449333,6.538314,7.83896,9.439575,10.0806,11.1693,12.39182,13.65703,14.16811,15.30649,16.5865,17.35124,18.93299,19.25548,20.68609,20.91754,22.23831,22.65446,23.33619,24.32566,24.54108,25.76178,24.87892,25.05425,24.4937,24.46141,24.91783,25.95629,26.06882,26.73101,27.37189,28.16311,28.48195,29.34831,29.74594,29.13905,32.17514,29.2925,33.17208,30.61804,32.94524,31.60474,33.06406,32.62166,32.80338,32.11271,32.97842,32.0943,32.64238,31.56436,32.33691,31.07979,31.7809,29.85464,29.87749,28.76598,28.8886,27.68588,26.22339,26.07384,24.18693,24.3005,22.1377,21.99904,20.31689,19.63587,18.13596,16.83695,15.68774,13.78425,13.01101,11.30075,10.36492,9.103554,7.324253,6.940467,4.892574,4.29685,1.789205,2.253432,-0.8608809,0.250004,-2.343615,-2.294071,-3.808683,-4.014339,-5.07243,-5.623062,-6.7008,-6.674613,-7.891514,-8.264585,-8.365019,-8.821931,-8.528479,-8.757664,-9.364964,-8.353048,-9.641595,-8.652106,-8.656271,-9.255641,-7.767351,-8.50294,-7.452017,-7.247389,-6.492714,-4.633763,-5.853151,-3.206952,-4.178818,-1.433765,-2.35544,-0.1071794,-0.9438791,1.518446,0.5755571,2.666948,1.74033,4.066698,2.817517,4.361527,3.89817,4.966579,4.638616,4.566508,4.726948,4.271682,4.517255,3.254728,3.26198,1.270171,1.188814,-0.03797995,0.6129857,-0.1224302,0.9260347,0.05523082,0.9527742,-0.4683088,0.3289389,-0.315539,-0.4513977,-0.0728017,-0.8867641,0.1392767,0.0809098,-1.327216,0.822065,-1.000706,0.7834787,-0.6792903,0.8903698,-0.4478655,0.1425851,0.2272975,0.6544802,0.9150759,0.7168442,1.443907,1.483332,1.553095,3.086451,1.792272,3.491662,2.586162,4.107695,3.012803,4.796384,4.076875,4.833861,4.06759,4.924346,5.367542,5.388287,6.211064,5.855447,7.690353,6.987012,8.314017,8.625116,8.699186,9.7606,9.490541,9.89281,9.705425,10.01834,10.01974,10.07455,10.36745,9.646923,10.50994,9.018714,10.112,8.832042,10.26492,8.716291,9.876993,8.173326,10.00289,7.283653,9.750257,7.262118,8.223069,6.505952,5.724219,4.986019,4.235275,4.107286,3.755109,3.200229,3.142199,2.795969,2.923279,2.549639,3.033578,2.242675,2.936316,1.320617,2.693743,1.004677,1.71578,0.9831779,0.6541726,0.646981,-0.4544832,-0.278866,-1.847115,-1.227723,-2.223945,-3.065585,-3.091906,-4.262658,-3.416734,-5.149846,-4.765549,-5.776819,-5.091654,-5.815098,-6.737506,-5.327847,-6.99705,-6.020631,-6.897236,-6.261207,-7.328128,-6.72619,-7.573514,-7.418295,-7.846109,-7.805763,-8.282669,-8.737859,-8.158521,-9.332934,-8.810915,-10.01517,-9.770507,-8.921737,-9.865457,-9.627071,-10.21649,-9.381827,-11.66901,-8.915602,-11.51949,-9.61551,-11.67674,-11.03399,-11.42009,-12.58215,-11.9756,-13.66452,-13.20453,-14.75927,-14.50803,-15.845,-15.40155,-16.53555,-16.33557,-17.94001,-17.15596,-17.30825,-17.8562,-18.03613,-17.56994,-18.27215,-16.75776,-19.09585,-16.3929,-18.91583,-16.84397,-19.08906,-17.60585,-18.94577,-18.31783,-18.89002,-18.70084,-19.16764,-18.62713,-19.36048,-18.76416,-19.09176,-18.62684,-18.72383,-18.22322,-19.01361,-18.90774,-19.00743,-19.01331,-20.19964,-19.16119,-21.28959,-20.02802,-21.40855,-20.28023,-21.07149,-19.45376,-20.40805,-18.41202,-20.0205,-17.55492,-20.16865,-16.6802,-19.41922,-16.49788,-18.88568,-16.76635,-18.12662,-16.49782,-17.81564,-16.88972,-16.66836,-17.76436,-17.30105,-18.05852,-17.09639,-17.81441,-16.61387,-17.281,-17.84843,-17.14566,-17.27349,-16.47766,-17.82769,-16.91178,-17.5826,-16.96476,-19.13373,-17.83038,-18.94743,-19.68789,-20.16267,-21.00542,-21.59231,-22.1031,-23.07461,-23.1254,-24.21276,-23.73035,-25.28229,-24.40971,-25.60735,-24.55921,-25.89817,-24.32228,-25.30821,-23.84446,-24.2979,-24.05056,-23.03961,-22.96747,-22.02279,-22.72799,-19.50561,-21.35959,-18.13205,-19.26048,-17.10658,-16.6029,-15.71123,-13.52025,-13.79758,-10.35171,-11.39083,-7.408069,-7.654805,-4.863141,-4.594204,-1.559234,-1.319406,1.762522,2.049814,4.144729,5.979725,7.389458,9.609593,10.9175,11.82708,15.0868,14.27216,18.49112,17.25502,21.81031,20.62617,24.59944,24.7593,27.05175,28.38571,30.26811,31.13612,33.43067,34.21253,35.41718,37.27258,37.42221,39.62069,39.51589,41.32164,41.20408,42.78455,43.3179,43.87752,44.69645,45.27467,44.94606,46.11467,45.77577,45.65096,46.00147,45.52743,44.97535,43.36824,43.34121,41.632,41.70958,40.98028,40.46101,40.42567,40.28436,40.14889,40.72668,40.55988,40.44927,41.41393,41.6907,42.81425,42.75927,43.08301,43.47756,43.78785,44.447,44.73828,44.60907,44.5266,44.58029,44.40798,43.60993,43.53307,42.96791,43.03832,41.1041,41.57558,39.32283,39.36233,37.52335,37.07527,35.03167,33.79642,32.29382,30.68273,29.24944,27.3566,25.38559,23.37236,22.02195,19.6304,18.09936,15.2569,14.32701,11.14521,10.3411,6.962378,6.200917,3.682267,2.284275,-0.3632643,-1.30251,-3.875405,-4.545836,-7.113761,-7.83586,-10.05707,-10.33418,-13.22239,-12.89626,-15.51207,-16.45381,-17.29287,-18.94455,-19.34822,-21.23821,-21.14758,-23.09628,-22.62716,-24.15663,-23.81586,-25.1848,-25.15125,-25.12386,-26.18833,-24.70167,-26.2018,-24.58926,-25.53513,-23.66642,-24.55667,-22.39031,-23.06439,-20.99099,-21.45369,-19.33712,-19.46899,-18.22161,-16.70601,-17.10076,-14.15759,-14.80147,-12.45819,-12.67855,-10.71343,-10.79126,-9.482503,-8.787048,-8.235546,-8.449071,-7.003244,-8.474597,-7.317792,-8.699251,-8.704372,-10.709,-10.29385,-11.43539,-10.38225,-11.63226,-10.74619,-11.85212,-11.38437,-11.93879,-11.72767,-12.58221,-11.71527,-12.55402,-12.41107,-12.90051,-12.16739,-12.85582,-12.44881,-12.73683,-12.17018,-12.88107,-11.55263,-12.91511,-11.07621,-12.34258,-10.34731,-11.39246,-9.519042,-10.22317,-8.605463,-9.669516,-6.970266,-8.535403,-6.136825,-7.215436,-5.331689,-6.445258,-4.003054,-5.076286,-3.323508,-3.649542,-2.436034,-2.615722,-1.138574,-1.581692,-0.3387276,-0.8309334,0.4889054,0.2340181,0.636143,1.438174,1.108981,1.930065,1.528441,2.632796,1.983326,3.216379,2.968949,3.099823,3.69437,3.473076,4.387046,3.498353,3.890912,4.296989,3.600149,4.625789,3.976942,5.012188,4.420165,5.025184,4.935873,4.968298,5.309687,4.561937,5.386046,4.489475,5.085857,4.639802,4.227475,5.331759,4.189709,5.162145,4.091142,4.779387,3.587266,4.715276,2.488057,4.921798,1.920128,4.23716,2.219109,3.226817,2.542382,1.90476,2.990397,1.566002,2.368547,1.068603,1.876829,1.160455,1.693179,2.174103,1.033454,2.598823,1.024255,2.407018,0.8304811,2.2611,0.3263661,2.115478,0.8790275,2.274483,0.865279,1.711053,0.7556376,1.589542,0.5229654,1.411933,0.3272364,0.9082201,0.8660863,0.021472,0.2768001,-0.4079627,-0.4999183,-0.9178624,-1.314966,-1.899489,-1.626206,-3.024339,-2.438185,-4.063791,-2.938771,-5.35139,-3.689111,-5.940575,-4.464306,-6.462716,-5.723244,-6.702563,-6.303196,-7.198209,-7.251095,-8.055054,-7.965494,-8.006593,-8.440709,-8.820841,-9.071939,-9.514507,-9.070324,-10.50992,-9.294159,-11.77768,-9.41051,-12.05126,-10.08533,-12.40071,-11.18933,-12.76868,-11.85,-13.15449,-12.1333,-13.68796,-12.66871,-13.64972,-12.94249,-13.78958,-13.39229,-13.6127,-13.7559,-13.00666,-13.86946,-12.68456,-14.21679,-11.79166,-14.16738,-11.62347,-13.80231,-11.71362,-13.26579,-11.67086,-12.26651,-12.31545,-11.34597,-12.59124,-10.62469,-12.13464,-10.54996,-11.10246,-10.61215,-10.38219,-10.25279,-9.964979,-10.09412,-9.540054,-9.392902,-8.84672,-9.354949,-8.350831,-8.775292,-7.776086,-8.376888,-7.926368,-6.828145,-7.674388,-6.344101,-7.664305,-5.998205,-7.340381,-5.95464,-6.916607,-6.625033,-7.093753,-7.225424,-7.136874,-7.445749,-7.150967,-8.020956,-6.948839,-8.1713,-7.051325,-8.186321,-7.266029,-8.396984,-6.84932,-7.81838,-7.050518,-7.57127,-7.086267,-7.35264,-6.893343,-6.950033,-7.047074,-6.460504,-6.527323,-6.190575,-6.006992,-5.332262,-5.965083,-4.423905,-4.805084,-3.563292,-3.69513,-2.596468,-2.044747,-1.575091,-0.6170799,-0.3268639,0.8382049,1.445219,2.560478,3.366718,4.321649,5.157888,6.464311,6.347141,8.590398,8.199193,10.14505,9.93935,11.83278,12.14406,13.16088,14.16656,14.03305,15.87585,15.49391,17.0971,16.96377,18.5761,18.22579,19.97758,19.72486,21.32363,20.93446,22.68012,22.5825,23.48528,23.44282,24.04128,24.82697,24.2001,25.91035,24.32706,25.44302,22.80789,24.30007,22.02931,22.57637,21.78029,22.7247,21.76088,22.57096,22.41693,22.91754,23.36658,23.35636,24.40068,24.24362,24.57432,24.92318,25.70995,25.26492,25.88514,25.94119,26.43789,26.24115,26.28855,26.472,25.9956,26.66842,24.68067,26.07983,24.5822,24.26415,23.06008,22.70463,21.58597,20.67544,20.06446,18.22434,18.18377,15.80185,15.6804,13.69162,13.00169,11.69693,10.04659,9.546733,7.202549,7.332908,4.883178,4.901897,2.670972,2.621747,0.5608099,-0.08724545,-1.458611,-2.171811,-3.457981,-4.345252,-5.278067,-6.435641,-7.310486,-8.224389,-9.416035,-9.304202,-10.86239,-10.62833,-11.64384,-11.81791,-12.47269,-12.53263,-13.17158,-13.49064,-13.88777,-13.72212,-14.06203,-14.04758,-14.09634,-13.91574,-13.87163,-14.14163,-13.71478,-13.89859,-13.54961,-13.03988,-13.74351,-13.08303,-13.16338,-12.91701,-12.91746,-12.8987,-12.40273,-12.93691,-11.81711,-12.4174,-11.61796,-12.05756,-11.42375,-11.0976,-10.77147,-10.24526,-11.07595,-9.783469,-10.95973,-9.755123,-11.09033,-10.85295,-10.87527,-11.8246,-11.67298,-13.55217,-14.09632,-15.70362,-15.85569,-16.43998,-16.01562,-16.834,-15.77623,-16.21881,-15.90912,-15.8203,-15.48779,-15.24499,-15.10345,-14.17446,-13.56268,-13.93334,-12.62094,-12.71852,-10.85069,-11.75516,-9.895182,-9.886308,-9.437841,-8.514618,-8.142014,-7.07964,-7.294229,-5.611624,-6.214685,-4.275652,-4.436169,-3.360976,-3.09377,-2.309918,-1.679165,-1.461579,-0.7468018,-0.5880287,0.1478526,-0.05626413,0.8963044,1.228175,1.093421,2.185875,1.403102,3.090264,1.325538,3.871446,2.103688,4.275764,2.712686,4.505221,3.227701,4.770192,4.054667,4.782299,4.539978,4.46738,5.398655,4.14733,5.701327,4.178083,5.32205,4.862283,4.79246,5.126007,4.717891,4.662816,4.976709,4.57077,4.674693,3.98848,4.895796,3.856475,4.680641,3.482938,4.861058,3.455167,4.272288,3.768304,3.970801,3.439091,3.21199,3.743592,2.643723,3.335133,2.564125,2.404014,3.122599,1.737928,2.977473,1.252965,2.726364,1.107257,2.326426,1.428032,1.702984,1.939447,1.533897,1.747187,1.275905,2.186671,1.424505,2.338091,1.193343,2.197871,1.965768,2.114678,2.393172,2.269631,2.691567,2.735913,2.953789,3.477067,3.50851,3.910572,4.178085,5.045226,4.570203,6.084758,6.096008,6.931951,7.240539,7.837062,8.399763,8.395219,10.06125,8.848739,11.60039,10.05458,12.6154,11.49087,12.80507,13.24897,13.5979,14.22642,14.1847,14.84447,15.134,16.31116,16.35364,16.23413,16.41812,16.35799,16.91354,16.1346,17.96697,17.38527,17.999,18.74217,19.72448,19.93683,20.70505,21.56136,22.2643,23.06191,23.60419,24.7533,25.01709,26.23898,26.32624,27.19459,27.39003,28.32056,28.21965,29.0697,29.31326,29.17634,30.14445,29.46584,30.0306,28.88821,29.56047,28.33514,28.42196,27.49809,27.51139,25.39246,26.15162,23.40926,24.12002,21.33126,21.74454,18.85814,18.91533,16.82758,16.07616,14.01035,12.81502,11.77507,9.862591,8.809795,6.807217,5.315043,3.216859,2.123735,-0.00672236,-1.296204,-3.541752,-5.254612,-6.576432,-8.929549,-10.32022,-12.45256,-13.24029,-15.20867,-16.6563,-17.52907,-19.71219,-20.27446,-22.24519,-23.18748,-24.17003,-26.79381,-25.92657,-28.54327,-27.65418,-30.59571,-30.17907,-31.63351,-31.90763,-32.77255,-33.31905,-33.318,-34.13062,-33.65059,-34.47384,-34.45763,-33.53685,-32.81276,-32.04718,-31.97046,-31.82949,-30.89496,-31.30971,-30.59163,-31.11286,-31.25156,-31.11502,-31.99312,-31.77048,-32.76466,-33.06711,-33.78157,-34.54103,-35.05202,-35.65381,-36.59702,-36.34916,-38.23025,-38.84431,-39.6566,-40.71304,-40.54187,-41.33945,-40.49024,-41.43833,-40.27152,-41.42833,-39.37142,-40.19279,-38.86457,-39.17792,-37.69708,-37.48003,-36.68105,-35.78723,-35.09657,-33.54689,-33.44028,-31.40514,-30.58244,-29.30943,-28.06532,-26.03368,-24.58394,-22.72097,-21.42821,-19.61003,-18.10024,-16.91116,-14.26512,-13.84424,-10.99464,-10.50537,-7.452603,-6.873342,-4.591895,-2.990396,-1.602684,0.2547134,1.964519,3.057816,5.174795,5.968311,8.009045,9.053883,10.76514,10.86276,13.08296,12.82143,14.57364,13.98306,15.50105,15.14054,16.16037,16.04598,15.66721,16.28937,15.99215,16.14689,15.70585,15.99881,15.33654,15.10515,14.36395,14.3921,12.80928,12.67321,11.4272,10.75242,10.43517,9.084804,8.162258,8.186586,6.378976,6.361384,4.355056,5.203498,3.406423,3.601451,2.523603,2.680859,2.100314,2.113014,2.290176,2.757909,2.933588,5.048142,3.587264,5.374402,3.652844,5.520229,4.997086,4.843104,6.237351,4.885211,6.25547,5.313714,6.204013,6.34221,6.297429,6.642569,6.291763,6.854853,6.844357,7.36015,6.805482,7.77173,6.853934,7.904318,7.784633,7.986166,8.67426,8.029977,9.71698,8.393423,10.62424,8.685435,10.50563,9.160722,10.21479,9.418322,9.921973,9.485104,9.141728,9.862037,8.992135,9.523077,8.614489,9.227852,8.853161,8.262291,8.710025,7.911111,8.023859,7.338075,7.343534,6.537533,6.885222,5.733198,6.502121,5.310146,6.307265,4.908184,5.80264,5.111426,5.511862,4.748153,4.964347,4.918078,4.892004,4.209899,5.358955,3.63554,5.068388,4.066741,4.515325,3.689632,4.18142,3.782599,3.815961,3.542068,3.054022,3.187942,3.03026,3.169385,2.469446,3.930494,1.744818,3.483466,2.139188,3.298801,2.163674,2.479642,2.567202,2.724445,1.8767,3.062738,2.17644,2.990442,2.752257,3.386379,3.341445,3.902328,4.188187,4.082295,4.934712,4.810634,4.841925,4.628749,5.689984,4.808768,6.40802,4.906696,6.679363,5.221684,7.208633,5.498336,7.677502,6.059467,7.625414,6.878674,8.067547,6.695103,8.642498,6.702218,8.688876,7.474661,8.819058,8.15093,8.717855,8.804545,8.897697,9.34768,9.357933,9.19486,10.17821,9.813941,10.5787,10.32033,11.19554,10.87497,11.72428,11.22436,12.71256,11.4923,13.38499,11.90692,14.07469,12.80882,14.75781,13.94183,14.94772,14.78897,14.16367,14.90975,14.40589,14.8112,14.69351,15.23445,15.74505,15.66783,16.85539,16.76288,17.94214,18.46835,19.20662,19.91267,20.69408,20.83626,22.25904,22.51534,23.3702,23.8027,24.05785,24.97537,24.66515,25.57498,25.31832,26.04852,25.66721,26.36612,26.717,25.57707,26.17356,25.47484,25.39867,24.38082,24.20288,23.50708,22.62351,21.90244,21.43739,20.06981,19.47367,18.3409,17.13971,16.43146,14.70121,14.08935,12.27214,11.33431,9.813847,8.069054,7.447894,4.792517,4.429017,2.293305,1.287327,-0.4037626,-1.352117,-2.55618,-4.168104,-4.767663,-6.920644,-7.756773,-9.784745,-10.46468,-12.05001,-13.3099,-13.97801,-15.65234,-16.04813,-18.15559,-17.59804,-20.21011,-19.25161,-22.07085,-20.68325,-24.04589,-22.28291,-25.50721,-23.6753,-26.41656,-24.6611,-27.37358,-25.55719,-27.44256,-26.15648,-28.01657,-26.99239,-28.67126,-27.20648,-29.80755,-26.57411,-29.28875,-25.56925,-28.656,-26.1124,-28.6619,-26.96486,-28.82999,-28.03492,-29.94789,-29.20882,-31.19174,-31.11025,-32.50511,-32.56577,-34.71874,-35.23943,-37.19399,-38.00389,-39.977,-41.38812,-41.8773,-43.61773,-43.62327,-44.97824,-44.90867,-46.03404,-46.16971,-46.31879,-46.667,-46.48965,-45.60935,-46.65802,-44.92105,-45.60334,-44.07718,-44.2023,-42.72419,-42.58279,-41.02765,-41.24628,-38.70239,-39.38324,-36.66969,-36.43188,-33.92325,-33.65789,-31.54074,-29.87771,-29.00773,-26.46138,-24.84952,-23.11138,-20.77576,-19.06367,-16.67926,-14.62804,-12.62277,-10.06049,-8.936378,-5.278804,-4.505922,-1.233837,0.2344278,2.188259,4.044844,5.984853,7.740637,9.419387,10.7646,12.68893,13.47971,15.64763,16.39086,17.81998,19.57259,19.40667,21.95902,20.96262,23.63852,22.15128,24.01189,23.66628,24.75097,24.58037,24.66415,25.10971,24.63226,25.05483,24.56955,24.35344,23.8764,23.65451,22.94407,22.43152,22.56224,21.43355,21.10753,21.10232,19.95832,20.13987,18.71099,19.1002,17.46749,18.50451,17.13427,17.1106,17.64461,17.2208,17.82642,18.82043,17.29347,18.94369,16.87686,17.8988,16.64307,17.19502,15.99455,16.31803,15.67596,15.74805,14.92765,14.91143,14.63365,14.67752,13.2276,13.43597,12.91252,12.48432,12.09274,11.19709,11.24994,10.31274,10.74987,9.554414,9.742369,8.625105,8.775168,8.657726,8.064748,8.556243,7.489276,7.674645,7.203109,7.267025,6.840272,6.652202,5.896248,6.197856,5.073487,5.349683,4.353882,4.133616,3.904886,3.687806,3.270629,2.431994,2.868013,2.321621,2.237543,1.991835,1.784772,1.482262,1.251776,1.141572,1.255912,0.6729287,0.1006439,0.705384,-0.02737082,0.3402581,-0.3616946,-0.5253928,-1.000286,-1.646133,-1.320951,-2.625197,-2.19919,-3.145494,-2.918919,-3.474354,-3.9037,-3.548435,-4.496177,-4.33085,-4.684018,-5.478073,-5.030168,-6.452055,-5.311469,-7.248902,-5.86241,-7.432732,-7.157906,-7.344136,-7.639881,-7.867109,-8.268222,-8.179994,-8.613811,-8.585925,-8.54877,-9.185913,-8.218397,-8.96026,-7.803423,-9.368239,-7.552918,-9.126281,-8.083008,-7.948552,-8.297828,-7.369685,-7.501033,-5.868881,-6.786441,-6.085265,-4.826233,-6.188466,-3.59539,-5.446164,-2.851307,-4.179881,-2.261658,-3.182885,-1.031035,-1.914272,-0.5176789,-0.6245147,0.2011076,0.3878928,0.737056,0.7987625,1.249068,1.818997,0.9991831,2.552149,2.229278,2.261049,3.001958,2.326754,3.724434,2.382388,4.078765,2.677301,4.077837,3.251283,3.807117,3.825525,4.082209,4.037394,4.185808,4.598326,3.341416,4.921397,3.355867,4.386397,2.935366,4.48548,2.322032,4.152256,2.26694,3.298002,1.945029,2.979887,1.707582,2.717671,1.943832,2.346801,2.536171,2.086947,2.825963,2.258088,2.926945,3.049244,2.895063,3.801255,2.85287,4.709125,3.552727,4.455914,4.476343,4.648316,4.923885,5.54896,5.61025,6.496869,6.284022,7.342694,7.357313,8.655212,8.039376,10.27819,8.647886,11.51962,10.45206,12.37549,11.32209,12.48452,11.76796,12.69749,13.12532,13.44544,14.70692,15.14717,16.45329,17.2814,18.41796,19.60494,20.53529,21.97988,23.14069,24.19386,25.60665,26.2554,27.96499,28.81106,30.30243,30.62961,32.1199,33.30281,33.54588,34.8383,35.01364,35.84591,35.76761,36.60815,36.38858,36.44771,36.65657,36.62297,36.21893,35.4609,35.6587,33.70738,34.74068,31.81121,32.74747,30.22306,29.77836,28.29106,26.74559,25.81426,23.92341,22.94258,20.60466,19.74265,17.20186,15.5415,14.06385,11.87317,10.65281,8.283951,7.102298,4.364859,3.868595,0.759593,-0.1810648,-2.300535,-3.832107,-5.969513,-7.24463,-9.672683,-10.56738,-12.62051,-13.93275,-15.8714,-17.21952,-18.58838,-20.95142,-21.49803,-23.56399,-24.74819,-25.93569,-26.94563,-27.86312,-28.66717,-29.39068,-30.22602,-30.491,-31.25623,-30.75312,-32.20345,-31.34052,-32.61358,-32.07288,-32.06389,-33.18869,-31.68242,-32.25231,-30.91134,-30.44317,-30.29124,-29.9568,-29.84809,-30.33367,-29.64655,-30.89173,-30.21632,-31.36952,-31.27574,-32.61684,-32.38347,-34.60767,-34.30575,-36.56712,-37.5683,-38.93569,-40.61855,-41.14621,-42.07635,-42.55133,-43.19082,-43.79274,-44.33685,-44.54948,-45.21074,-45.1191,-45.39211,-45.8282,-44.95144,-45.4775,-44.39632,-44.3364,-43.41136,-42.67682,-41.23353,-40.5601,-38.80495,-38.26188,-35.84173,-35.81443,-33.0777,-33.0926,-30.404,-30.0749,-27.33399,-26.7694,-23.98661,-23.20171,-20.70251,-19.35918,-17.22929,-15.29713,-13.88544,-10.92023,-9.950707,-6.622573,-6.338786,-3.237238,-2.178288,0.2401625,1.282659,3.049819,4.379726,5.309,7.327294,7.355338,9.842082,9.631249,10.57353,11.06138,12.26146,12.27478,13.7869,14.03206,14.85536,15.04246,16.61481,15.5094,17.95896,16.16878,18.35837,16.98966,17.71946,17.7995,17.2704,18.0521,16.84924,16.82398,16.57867,16.28339,15.58652,15.86288,14.4896,15.19544,13.26376,14.60954,12.48744,13.50284,11.82115,12.20841,11.37665,11.58736,10.95502,11.04258,11.43579,11.38111,12.48663,12.22547,12.85631,12.69249,12.51807,12.38069,12.46263,12.28378,12.78798,12.26606,12.18108,12.67696,11.84929,12.45862,11.75066,12.28578,11.51291,11.81801,11.03012,12.0939,10.11374,11.43588,9.953556,10.41732,9.533231,9.145334,8.517105,7.92727,7.926542,7.280965,7.043846,6.3709,6.74158,5.814348,6.550391,5.358151,6.394028,5.095386,6.459433,5.097044,6.434565,4.746899,5.969516,4.602155,5.957164,4.393238,5.923227,4.260288,6.042414,4.579636,6.287602,5.289374,5.934041,6.546117,6.21776,7.328038,6.725308,8.307658,7.484425,8.664886,7.914072,8.521405,8.194887,8.06676,8.121722,8.222683,7.018282,7.567651,6.80621,6.422784,6.062885,5.253447,4.247991,5.423679,4.569672,4.959902,4.644133,4.640975,4.233181,4.643318,4.359708,3.815449,4.791689,3.471371,4.557915,4.199722,4.508478,4.406417,4.101838,4.583653,3.71556,4.670543,3.400977,4.232878,3.517323,3.81072,2.937589,3.850055,2.33823,3.860488,1.944561,3.197378,1.745576,2.527601,2.191479,1.824694,2.262575,1.600702,2.341702,1.310031,2.359069,1.619871,2.535441,2.113569,2.72482,2.883341,3.536312,3.62049,3.877524,4.41552,4.345293,5.644514,4.429638,5.980043,5.333154,6.155856,5.910742,6.33357,6.76885,6.778097,6.673615,8.255168,7.462153,8.367443,8.056721,9.1618,8.649907,9.508117,9.653103,8.843775,9.117972,8.839879,9.060793,8.701594,9.62891,9.545388,10.46112,10.12422,11.31441,11.43207,11.89874,12.87184,12.50713,13.50345,14.0733,14.58928,15.2421,15.56665,16.36275,16.85941,17.6086,18.05728,18.33111,19.5316,19.09281,20.17847,20.22931,20.85882,20.5139,20.87379,20.71397,20.54354,20.77549,19.22899,20.62099,18.18165,18.75641,17.62734,16.65312,16.30725,14.80173,14.71086,12.10658,13.28551,10.21135,10.45671,8.625999,7.632027,5.990216,5.979478,3.423404,3.530908,1.191834,0.6302174,-1.300423,-1.458238,-3.657507,-4.505876,-6.132941,-7.377952,-8.341227,-9.938807,-11.84532,-11.88443,-14.11802,-14.77397,-16.08529,-17.12824,-18.71013,-19.2794,-20.74767,-21.42933,-22.75223,-23.4833,-24.19038,-24.88073,-25.66863,-26.41718,-26.67152,-27.43866,-26.81238,-28.09834,-27.61363,-28.47423,-28.2406,-27.60337,-27.88542,-27.12545,-27.52858,-26.69191,-28.0309,-27.01217,-28.89385,-27.43691,-29.28049,-28.2567,-29.26491,-29.13108,-29.12713,-29.57252,-28.78238,-29.0301,-29.8181,-29.78218,-30.15801,-30.75797,-31.09476,-31.91181,-32.68655,-33.60323,-33.30213,-33.31171,-33.79268,-33.59834,-33.62316,-33.48535,-33.83198,-33.59476,-34.17018,-32.88707,-34.46301,-31.68919,-34.06165,-31.09549,-32.16532,-30.55594,-30.26473,-29.64427,-28.83078,-27.53162,-26.86474,-25.10759,-25.67188,-23.11721,-23.03919,-19.90121,-20.25906,-16.7717,-16.63019,-13.52502,-12.79909,-10.14905,-9.070052,-7.050518,-4.507134,-4.10692,-0.9177645,-0.7841547,1.97998,2.324822,4.127577,4.900412,6.355633,7.922792,7.906585,10.04544,10.57852,10.98723,12.71212,12.53319,13.88541,13.92732,14.84826,14.72808,15.22115,15.30078,15.05194,14.90141,14.61252,14.33268,14.38813,13.39911,13.42625,12.90797,12.29134,11.37264,11.7179,10.2019,9.804955,8.878016,8.256807,7.199564,6.829715,6.248401,5.421191,5.449309,4.526786,4.775549,4.478193,4.170739,4.485402,4.037345,4.202841,4.760186,4.795973,5.894504,4.607303,6.448072,4.44414,5.547144,4.468047,5.843061,4.539482,6.342416,4.880504,6.979436,5.731026,7.882427,6.915296,8.547907,7.81267,9.328663,8.640062,9.816439,9.942236,10.28665,11.25781,11.39651,12.43485,12.57214,13.48453,13.51702,14.26595,14.63653,15.18395,15.44483,15.97997,16.28536,17.03995,16.94977,17.34381,18.21586,17.72794,18.02369,18.01305,17.84035,18.33413,17.28282,18.18287,17.17223,17.38894,16.67041,16.88973,17.01026,17.08913,16.97825,16.86117,17.66572,17.13921,17.85023,16.91386,18.1137,16.89055,18.2025,16.83143,17.38798,16.75608,17.27005,16.56084,16.6078,16.15821,16.65213,15.94793,16.94754,15.02236,16.91873,14.97544,15.89923,15.45094,14.58343,15.51871,14.06749,14.41579,14.17986,14.0972,13.77635,13.62463,13.93263,12.81156,13.67993,13.09962,12.93637,13.38975,12.61307,13.50419,11.9159,13.76336,11.7194,13.01547,12.53347,12.70781,12.68921,12.9101,13.09273,13.39544,13.35266,14.16707,13.80024,15.1183,13.41588,14.87313,12.44974,13.97735,12.70689,13.46402,12.65035,13.53816,13.21446,14.03896,14.03379,15.42186,14.93794,16.37078,16.71129,17.21127,17.99903,17.91652,18.76963,18.34291,18.94351,18.60284,19.43108,18.89221,19.88783,18.96385,19.37795,19.22223,19.18156,18.49094,17.83431,17.18276,16.59304,16.29919,15.41547,14.13505,13.69558,11.93277,11.35412,10.04962,8.447111,7.375979,5.439672,4.347962,2.285036,1.383621,-0.7654735,-0.07310322,-3.259696,-2.978807,-6.122859,-6.208673,-9.319712,-9.809395,-13.76475,-13.9508,-18.03781,-18.3808,-22.63587,-23.19704,-27.23297,-28.66538,-31.64151,-33.64754,-35.57878,-38.17873,-39.76275,-42.10309,-43.25217,-45.51293,-46.83084,-47.7572,-49.46516,-50.37334,-51.41324,-53.73072,-52.78489,-56.00015,-54.38952,-57.21151,-55.82478,-57.07904,-56.62651,-56.60908,-55.5497,-55.89874,-55.05749,-54.83371,-53.76022,-53.27788,-51.51313,-50.83239,-48.84695,-46.88816,-45.28153,-43.32964,-41.75055,-39.69388,-38.32045,-36.36144,-34.43149,-33.32886,-31.30314,-30.34282,-28.25738,-27.1273,-26.46847,-24.1965,-24.48715,-22.14393,-22.94725,-20.31837,-20.97982,-17.69718,-17.95539,-15.08238,-15.30541,-12.09521,-12.39021,-8.604258,-9.254637,-5.671271,-6.897483,-3.333022,-4.153784,-0.8563151,-1.177924,1.002747,1.734352,3.727794,4.366116,6.468095,7.695739,9.175525,10.39995,12.0712,13.4018,14.66529,15.45847,16.59292,17.41233,19.06784,19.15292,21.00244,20.4955,22.27014,21.90307,23.24959,23.43985,24.72677,24.7767,25.93993,26.15413,27.64694,27.77751,29.5149,29.6737,31.65282,29.60436,32.17937,30.79098,32.16436,31.2729,31.6073,31.01727,31.37011,30.55372,29.94459,29.66751,29.12826,28.51172,28.1915,26.7796,25.96346,25.04709,24.11032,23.58673,22.30289,22.8622,21.36968,21.48993,20.60376,19.02969,19.3835,17.49848,17.62718,15.80261,15.98209,14.42777,14.3032,13.14776,13.02379,11.05714,12.15412,9.528444,10.79661,8.677604,8.729128,7.531015,7.730255,6.99065,7.567143,7.092049,7.268059,7.26006,6.915775,7.119306,7.39178,7.315093,7.621387,8.037723,7.469039,7.714839,7.41648,7.439182,7.174084,7.117008,7.017476,6.577156,6.43878,6.570406,5.824349,5.812268,4.827313,5.179029,3.921943,3.746251,3.221346,1.829412,2.287642,0.2433215,0.295185,-1.898087,-1.960016,-1.943664,-3.258509,-3.571924,-4.812568,-4.658576,-5.873908,-5.907153,-6.655736,-6.497496,-8.042162,-7.017745,-8.096491,-7.979726,-8.92733,-8.837843,-9.585287,-8.84704,-9.874231,-10.18079,-10.07949,-11.00202,-10.19113,-11.58012,-10.68382,-12.40605,-10.98816,-12.79836,-11.76294,-13.22414,-12.29182,-13.20985,-12.71558,-13.17019,-13.37298,-13.69204,-12.81531,-13.66353,-13.01311,-13.88284,-14.01344,-13.57351,-14.67026,-13.7019,-15.15757,-13.94458,-14.73264,-14.68885,-14.79929,-15.86143,-14.56847,-14.64097,-13.57379,-13.44624,-12.9698,-11.37715,-12.28333,-9.980912,-10.81024,-8.617763,-9.266466,-7.402114,-8.085524,-6.466516,-6.303426,-6.258746,-4.872446,-5.729378,-3.934262,-5.498593,-3.433341,-5.231574,-3.394741,-4.891442,-4.490047,-4.755941,-3.898356,-4.297507,-3.350445,-3.62061,-2.329908,-2.793334,-1.661302,-1.604567,-0.7526157,-1.488779,-0.2056092,-0.9509277,-0.05382601,-0.7955264,-0.1612173,-0.5418873,0.0008101358,-0.6121348,-0.5402771,-0.6171596,-0.6219739,-0.2631434,-1.428365,-0.3916982,-1.918234,-0.7410476,-2.431298,-1.774241,-3.080382,-3.244016,-3.389964,-3.894431,-4.458323,-5.01525,-4.76935,-5.1307,-5.911141,-5.265259,-6.486051,-5.764894,-6.908929,-6.801492,-6.960716,-6.765978,-8.146974,-6.55511,-8.998361,-7.222969,-9.654844,-8.097846,-10.23185,-8.998387,-10.66076,-10.1357,-10.91652,-10.84925,-11.05715,-11.62075,-11.75472,-12.15587,-11.59846,-12.49369,-11.67784,-11.62576,-10.84964,-11.5286,-10.55989,-10.90617,-10.51743,-10.11893,-10.01921,-10.12985,-9.377546,-9.843115,-8.877006,-8.460501,-8.784251,-7.073583,-7.857381,-5.922447,-6.340563,-5.247364,-4.71002,-3.681438,-3.436179,-1.970742,-1.973997,-0.5177172,0.03890928,1.382597,1.391099,3.456682,3.337586,4.901643,4.857904,6.622914,6.330647,8.48584,8.15583,10.21407,9.845742,11.20803,11.93814,11.85463,13.48478,13.02669,14.67228,14.37603,15.56943,15.72084,16.99062,16.46373,18.16484,17.80144,18.99622,18.2051,20.31051,18.99821,20.70742,20.27804,21.07702,20.67812,21.6425,20.81497,20.9228,20.20653,19.18736,19.35044,19.8612,19.45672,20.5354,20.07748,21.3511,21.42324,22.20031,21.86405,22.61906,23.49064,23.75566,24.65478,24.89198,25.3176,25.38032,26.13603,26.54698,25.88266,27.43219,26.2541,26.8591,26.64154,26.30928,26.4504,26.33687,25.27478,24.80757,24.13325,22.84089,22.83385,20.82876,20.36261,18.85808,17.86314,16.84905,15.50256,14.74832,12.89757,12.30444,9.693565,9.853788,7.389916,7.218554,5.158902,4.9174,3.418035,2.007145,0.5605226,-0.1634448,-2.295099,-1.852151,-4.681476,-3.97511,-6.368398,-5.600394,-7.629037,-7.415855,-8.560738,-9.279007,-9.063146,-10.31707,-9.72684,-10.921,-10.58236,-10.62117,-10.64285,-10.499,-9.49641,-10.06103,-8.822055,-8.840911,-8.345477,-8.492607,-7.217444,-7.907948,-6.283427,-6.142749,-4.724742,-4.539853,-2.689528,-2.299357,-1.06637,-0.2849475,0.5899715,1.954678,1.975717,4.172285,3.724654,5.815227,5.531869,7.171954,7.648588,7.887537,8.61274,9.507292,9.479058,10.11671,9.545344,10.8771,8.82418,10.69863,8.050091,8.630751,6.616209,5.890228,4.514267,3.093515,2.380321,0.8316511,1.615104,0.0790826,-0.3294401,-0.7287253,-1.957956,-1.810625,-3.041541,-2.907802,-4.930846,-3.568909,-5.465298,-5.47972,-6.122164,-6.843792,-7.397436,-7.907824,-8.386331,-8.604963,-9.584464,-8.794521,-10.53317,-9.720081,-10.22155,-10.71273,-10.14511,-11.5481,-10.66996,-11.31973,-11.31229,-11.26324,-11.02958,-11.43434,-10.90629,-11.0551,-10.48529,-10.46888,-9.85035,-10.01611,-9.71941,-9.340557,-9.539919,-8.174946,-9.005941,-8.015529,-8.480659,-8.16732,-8.466694,-8.062082,-8.870312,-8.321864,-8.350391,-8.313775,-9.084386,-8.227344,-9.49624,-8.704649,-9.499198,-9.300035,-9.783075,-9.588982,-10.39281,-10.24686,-10.51994,-10.54786,-11.05821,-10.73865,-12.01986,-11.23215,-12.49213,-12.49362,-13.81665,-13.71417,-14.96679,-15.13501,-15.39564,-16.68802,-15.41607,-16.79344,-16.22593,-16.77459,-16.75968,-16.87365,-17.1967,-16.8913,-17.5546,-16.70709,-17.60039,-16.35943,-17.59025,-16.0687,-17.11224,-15.75561,-16.23441,-15.65698,-15.15978,-14.89873,-15.06484,-13.89911,-14.72875,-13.34648,-15.02495,-12.96018,-14.47453,-12.68442,-13.83938,-12.37244,-12.60617,-11.69262,-12.47733,-11.45293,-11.91209,-11.35294,-11.37144,-11.26641,-10.9234,-11.63771,-10.51616,-12.04338,-11.2738,-11.94019,-12.20778,-11.28762,-11.68652,-11.43666,-11.37291,-11.22637,-11.9071,-12.01305,-13.12977,-13.11977,-15.94479,-14.64907,-17.82031,-17.61877,-20.20043,-20.99761,-22.40906,-24.15797,-25.35898,-26.30554,-27.95303,-29.21777,-30.26244,-31.05967,-31.48265,-33.04393,-32.59919,-33.83489,-32.61488,-34.07109,-32.8215,-33.7293,-32.52399,-33.10733,-31.7141,-32.22437,-30.01778,-30.48017,-28.45262,-27.35867,-25.79297,-24.84945,-22.82206,-20.83707,-19.50434,-16.68367,-15.58065,-12.54981,-10.86667,-8.504818,-6.574287,-3.504481,-1.898532,1.407761,3.27162,6.121158,8.415216,11.43,13.49068,16.25278,17.90283,21.59143,22.84357,25.78064,27.92028,29.93853,32.56147,34.70666,36.53587,39.13753,40.02436,42.88202,43.61108,46.3109,46.40163,49.10245,49.49113,51.08238,51.90132,53.54582,52.0977,53.43916,51.94148,53.20459,51.06694,52.99811,50.78278,53.13426,50.41264,53.21151,50.60377,53.53074,51.18255,53.77663,51.57003,54.6119,52.09936,54.44517,52.17413,54.40871,52.79186,53.54451,53.00965,53.68446,53.31184,53.1161,53.54252,52.399,53.46492,52.83623,53.46306,53.55796,52.96918,52.89342,51.82164,51.47999,49.43622,49.48799,47.57028,46.76173,44.1511,44.14456,40.41666,40.23203,36.87872,35.73706,33.1636,30.82388,28.9831,26.69536,24.048,22.05218,19.59353,17.57112,15.20909,12.79304,10.85097,8.43852,6.235774,4.224725,1.928803,-0.03275874,-2.209216,-4.553134,-6.21943,-8.746284,-9.772771,-13.08561,-13.31045,-16.09038,-16.49691,-19.2543,-20.76966,-22.4511,-23.82932,-24.85523,-26.62975,-26.79808,-28.17217,-28.50828,-29.15122,-29.23755,-29.9457,-29.7274,-29.90466,-29.87733,-29.46884,-29.05841,-29.80287,-26.8636,-28.89836,-25.29946,-27.8472,-23.76757,-25.19894,-22.52862,-22.96276,-20.6593,-21.6722,-18.40388,-20.19135,-17.2341,-18.86845,-16.07411,-18.38121,-15.48414,-17.89755,-16.69485,-18.25076,-18.55448,-19.89418,-19.99012,-21.19169,-20.50168,-22.61307,-19.88258,-22.84773,-19.16489,-23.41389,-19.049,-22.78512,-19.11144,-22.24313,-18.33726,-21.65712,-17.12524,-20.96061,-16.67543,-20.18837,-16.75658,-19.44445,-16.90018,-18.81794,-16.97868,-19.3062,-18.03105,-20.23014,-18.49001,-20.01915,-19.31894,-19.83571,-19.06848,-19.71184,-18.43308,-18.68291,-17.17258,-17.93373,-15.81724,-16.88181,-14.64371,-15.49752,-13.02203,-13.83776,-11.45753,-11.28923,-10.16219,-8.190937,-8.532765,-5.597848,-6.025792,-2.970229,-3.58612,-0.5042978,-0.6992964,2.383795,2.088569,5.168171,5.316843,7.975923,8.826464,9.836004,11.37751,12.2807,13.80724,14.36678,15.90531,16.04946,17.73649,17.75882,18.89122,18.9571,18.90086,18.96833,19.87179,19.7216,20.32065,19.99781,20.57697,19.76149,20.3924,19.24732,20.04501,18.11463,18.98302,18.20516,17.62749,17.62527,16.07496,16.23483,15.90178,13.83138,14.45238,11.86227,13.321,10.09546,11.1655,7.891419,8.567942,5.955968,5.977995,3.342945,3.150572,0.862773,0.6932677,-2.34753,-1.55429,-4.677144,-4.741461,-7.212679,-6.995411,-9.388698,-9.811455,-11.53594,-11.43073,-13.54041,-11.83934,-14.79227,-12.71017,-16.3499,-13.07149,-15.88133,-13.825,-15.8947,-14.31177,-16.08987,-14.0983,-16.39621,-15.09723,-17.08253,-16.19704,-17.29279,-17.54068,-18.89582,-18.85297,-20.29743,-20.03583,-20.40378,-20.08957,-21.06442,-21.22488,-20.70231,-22.1376,-21.21836,-22.58369,-21.91925,-23.24219,-22.65442,-24.13984,-23.62779,-24.69226,-24.33929,-25.07422,-24.99971,-26.06869,-25.24177,-27.02308,-25.13759,-27.75446,-25.22989,-28.25989,-24.41637,-28.8039,-24.52283,-28.27411,-24.62867,-27.4008,-24.16852,-26.84741,-23.80656,-26.07947,-22.70355,-24.64224,-21.46939,-23.56347,-20.45924,-21.78004,-19.43179,-19.76096,-18.11979,-18.34037,-15.9438,-16.63899,-13.90049,-14.66054,-11.84914,-12.13013,-9.371794,-10.1981,-7.233112,-7.570888,-4.860465,-4.896582,-2.453779,-2.107202,-0.133568,0.3583618,2.9249,2.202417,6.385303,4.671173,8.901273,7.038933,11.41377,10.18887,13.08615,12.69006,15.37532,14.94391,17.20832,17.30446,19.50362,19.2994,22.24171,20.55159,24.12873,23.00835,25.42873,24.5848,26.61732,26.54452,27.0526,27.061,27.32775,28.05265,27.59253,29.50103,28.66129,30.43693,29.98181,31.76831,31.78953,32.82121,33.19867,34.47838,34.8241,36.21376,36.01568,37.32109,36.99337,38.01089,38.42883,38.56224,39.82322,39.02722,41.09735,39.91528,42.18692,40.3578,42.2813,40.47294,42.32445,40.89468,42.18268,40.72669,41.18606,40.51904,40.34197,39.01687,39.99806,37.74163,38.46548,36.25929,36.36657,33.93796,34.28769,31.90286,31.87496,29.90339,28.97533,27.27919,26.43401,23.69848,24.01425,20.20175,20.66849,16.95394,17.51173,14.00093,14.45767,11.0019,11.38403,8.03473,7.999994,4.80177,5.037467,1.611819,1.756719,-0.08237234,-1.149486,-2.897423,-3.297044,-4.87676,-5.414293,-6.793577,-6.924092,-8.301746,-8.053304,-10.0069,-9.013015,-10.79931,-9.835204,-11.09817,-10.81414,-11.59999,-11.23536,-11.42786,-11.10603,-11.60976,-10.48646,-12.02067,-10.18842,-11.4274,-9.292998,-11.17029,-9.043326,-10.58164,-7.984999,-9.974852,-6.881302,-9.135414,-6.567235,-7.562071,-6.36216,-6.865554,-6.264265,-6.137589,-6.483567,-6.371192,-6.800206,-7.131541,-8.060616,-7.712251,-8.18871,-7.653065,-8.798724,-7.225238,-8.905296,-6.909282,-8.447516,-7.184155,-7.823099,-7.065877,-7.743435,-6.739686,-8.040326,-6.700012,-8.208753,-6.488391,-8.217962,-6.479964,-7.771479,-6.178972,-6.669355,-5.999008,-5.414008,-6.055979,-4.162129,-5.395452,-3.646763,-4.747996,-2.801208,-3.700634,-2.416125,-3.139761,-2.816649,-1.743042,-2.839839,-1.21796,-1.687189,-2.067887,-1.576711,-2.177601,-1.683221,-1.810001,-1.912331,-1.784964,-1.777725,-1.561554,-2.318693,-1.863161,-2.906338,-2.295882,-3.364957,-3.41751,-3.545965,-4.086691,-4.331963,-4.614493,-5.040981,-5.761806,-5.924662,-6.975077,-6.638362,-8.211155,-7.608394,-9.403288,-8.445773,-9.835599,-9.747162,-10.64278,-10.32168,-11.39281,-11.34914,-11.91311,-12.24301,-12.63122,-13.27104,-13.21461,-13.40948,-14.25708,-13.65174,-15.08398,-15.53801,-14.75446,-15.92182,-14.97535,-15.40367,-15.02847,-15.27798,-15.77999,-16.78508,-17.40392,-18.45809,-19.08539,-20.01129,-21.42745,-21.40657,-23.38612,-23.18515,-25.76843,-24.16778,-26.71689,-25.65668,-27.43618,-27.14486,-27.26788,-28.45732,-28.08646,-28.40485,-28.23443,-28.64978,-27.63772,-27.89767,-27.50237,-27.14639,-27.05108,-26.3241,-25.85595,-25.48552,-24.84916,-24.00756,-24.39288,-22.08559,-22.78708,-20.75268,-21.10289,-19.52406,-19.1188,-17.64644,-17.66318,-15.52538,-16.05693,-13.50037,-14.45712,-11.97865,-13.02906,-10.13475,-11.32697,-8.284207,-9.653981,-7.074042,-7.605043,-5.513504,-6.255017,-4.622234,-4.167129,-4.365619,-2.331996,-3.68096,-1.96673,-3.178632,-1.88312,-2.853137,-1.933045,-2.943684,-1.722929,-2.994428,-2.429957,-3.502603,-3.332169,-4.524017,-4.548506,-5.846811,-5.726148,-7.324245,-7.633198,-9.385613,-8.686544,-10.79118,-10.72418,-11.9654,-12.14291,-12.9066,-13.68539,-13.45489,-14.71882,-14.24608,-15.06401,-14.20928,-14.95033,-13.84886,-14.87269,-12.40698,-13.99686,-11.23621,-11.8329,-9.240971,-8.455872,-6.752815,-5.745567,-3.028303,-2.900689,0.6089734,2.66034,4.458082,6.952771,8.886997,9.684146,12.66501,12.08539,15.06976,15.13212,17.9871,17.921,20.42965,20.78678,22.59133,23.60087,25.17265,25.81624,28.39636,27.15759,30.99103,28.42564,32.51165,29.42758,33.46699,31.28238,35.17036,33.15335,35.83824,34.80533,36.53071,35.58035,37.70662,36.46014,38.24987,36.43574,38.12393,36.91231,38.40366,36.91141,39.13874,36.81015,39.44417,37.13379,38.93759,37.7788,38.81721,37.59694,38.9835,37.37465,39.29101,37.03683,38.70077,37.70654,38.06249,38.14479,37.66329,37.83823,37.37297,37.37691,36.64825,35.76504,35.77738,35.46982,33.85697,34.4061,32.22762,32.38928,29.98645,30.52149,27.22105,28.65606,25.07475,25.86866,22.41057,22.19529,19.72714,18.51637,16.37295,15.20228,12.83274,11.87344,8.965845,8.21156,5.580274,5.019644,2.275447,1.372357,-0.4015302,-1.923248,-3.599818,-4.671897,-6.521015,-7.409912,-9.063211,-9.535794,-11.14381,-11.47172,-12.89965,-13.97237,-14.18912,-15.95609,-15.32149,-16.39404,-16.50584,-17.14133,-17.65993,-17.50398,-18.23555,-17.96721,-18.04402,-17.60109,-17.82037,-17.353,-16.86991,-17.00556,-15.17798,-16.54766,-14.04131,-15.24058,-12.9073,-13.47566,-11.21291,-11.83121,-10.56803,-9.930361,-9.345539,-9.165944,-7.682074,-9.262516,-5.92407,-8.949045,-5.026234,-7.292129,-3.682919,-6.292461,-2.755703,-5.135744,-2.801627,-4.492507,-3.104376,-4.178693,-3.59186,-4.354871,-4.443027,-5.210113,-4.151506,-4.565268,-4.478119,-4.516583,-4.311611,-4.778056,-3.458164,-4.856629,-3.16711,-4.507921,-2.737176,-3.945073,-2.476367,-3.369205,-2.066952,-3.278763,-0.7236664,-2.248091,-1.003183,-1.278364,-0.6897958,-0.2202957,-0.6923396,0.6644406,-0.2587576,0.8666954,0.8560989,1.66618,0.2776056,2.204769,0.1277744,2.117697,0.4803658,1.759645,0.8830768,1.997697,0.6383496,2.48147,0.06927122,1.597373,0.7325696,0.4898345,0.6956946,0.09447569,-0.2491023,-0.1358719,-0.6833558,-0.3570973,-1.007009,-1.33243,-1.468282,-1.921273,-2.153489,-2.786254,-3.35918,-2.931371,-4.321573,-3.52578,-4.717671,-4.644041,-5.128869,-5.112202,-5.828604,-6.281009,-5.961144,-7.257771,-6.073916,-7.076344,-6.797295,-7.60768,-7.013529,-8.061636,-7.266008,-8.032624,-7.79359,-8.822983,-8.268503,-9.270566,-8.676405,-9.74929,-9.063571,-10.12729,-9.436687,-10.14509,-9.82233,-10.44759,-10.18139,-10.67005,-11.00001,-11.19081,-11.16396,-11.77222,-11.17239,-12.73882,-10.28133,-13.88683,-10.52507,-13.47053,-11.44087,-13.38156,-11.76007,-14.10934,-11.97288,-14.16964,-12.09931,-13.69971,-12.72783,-13.21349,-12.90881,-13.25536,-12.67091,-12.83756,-13.12554,-12.51906,-12.99344,-12.84209,-12.00851,-13.20699,-11.03667,-13.16089,-10.75303,-12.71059,-10.25252,-12.10586,-10.20194,-11.82228,-9.872527,-12.17412,-9.751638,-12.10727,-10.56269,-12.06345,-11.52708,-11.71028,-12.33956,-11.65567,-12.87937,-11.92908,-13.63164,-11.87703,-14.18295,-11.53628,-14.41037,-10.78764,-13.68254,-10.88985,-13.46685,-10.43734,-14.22824,-10.96073,-14.23157,-12.23525,-14.33486,-12.61332,-14.66786,-13.64567,-15.3979,-14.90364,-16.3729,-16.59308,-17.39849,-18.26086,-17.99606,-19.59596,-19.10593,-20.1632,-20.78894,-20.66907,-21.3519,-22.07279,-21.35452,-22.91494,-21.6789,-23.3053,-21.20719,-23.31795,-20.5019,-22.56181,-20.231,-21.81553,-19.21599,-21.17974,-17.72547,-19.24812,-16.86652,-17.4509,-15.02926,-14.78075,-13.0321,-12.50614,-10.51113,-10.25376,-7.933898,-7.172234,-5.455984,-3.995363,-2.387565,-0.4968261,0.9356183,3.289158,4.24655,6.365258,7.575356,9.98345,11.40733,12.52882,15.48166,16.01241,18.47672,19.83529,21.77127,22.94236,25.5391,26.101,28.58737,28.85709,31.02435,31.8003,33.2421,34.50084,35.20366,36.87462,36.88714,38.41557,38.66099,39.44254,39.91384,39.87518,39.89011,39.89138,39.37494,40.43962,39.42391,40.84783,39.81409,41.08244,40.61063,41.92723,41.21198,42.2733,41.30812,42.94564,41.01215,43.68056,41.00872,43.22488,41.04202,42.63096,40.99801,42.47911,40.76044,42.26644,40.45258,41.96868,39.52654,40.98207,38.07277,39.73259,36.05081,38.43751,34.58669,36.34747,32.75721,34.70376,30.68033,31.75542,28.5633,29.13989,25.99016,25.95391,23.74639,22.86714,21.29771,19.67836,18.48051,16.4835,15.26396,12.86555,12.563,9.240777,9.040632,5.850583,5.732674,2.514547,3.444263,-1.134474,0.5369795,-4.305148,-2.836946,-7.266901,-5.297826,-10.14023,-8.013132,-12.05461,-10.96021,-14.34034,-13.17112,-16.72154,-15.26,-18.65098,-17.41148,-20.14297,-18.82285,-21.25799,-19.57738,-21.8501,-20.69272,-21.74168,-21.18474,-21.80802,-21.2602,-21.44871,-20.4472,-20.2304,-19.5668,-19.15154,-18.30198,-17.53969,-16.58131,-15.57291,-15.05612,-14.29311,-13.63418,-12.92832,-11.48408,-11.64498,-10.20063,-10.53535,-9.940036,-9.647812,-10.39471,-9.540428,-9.767216,-9.439254,-9.287939,-9.192926,-9.131074,-9.566302,-8.673549,-7.935698,-8.001854,-6.285593,-6.58311,-4.718619,-5.013432,-3.029641,-3.448187,-1.540866,-2.508668,-0.261146,-1.670963,0.5206439,-1.169768,1.261928,-0.5283131,1.033795,0.1172679,0.4701676,0.9144661,0.1681475,1.349101,0.1700658,1.150017,0.4220814,0.6409041,-0.7770445,0.04878158,-2.316837,-1.323247,-3.352936,-3.221173,-4.874323,-4.95377,-6.263196,-7.183949,-7.984877,-9.504758,-10.06116,-11.77104,-11.77996,-13.18122,-14.42054,-15.30637,-15.91956,-17.33215,-17.78942,-19.35337,-19.17997,-20.32751,-20.94005,-21.58834,-21.70867,-22.79816,-22.42398,-22.46698,-23.60786,-22.66406,-24.34986,-22.56789,-23.79458,-22.09178,-24.13672,-21.61835,-22.98024,-21.22179,-21.62489,-20.22567,-20.80592,-18.38026,-19.87575,-16.99747,-17.38679,-16.38055,-15.38202,-13.8787,-13.79603,-11.22941,-11.3641,-8.612088,-8.81852,-5.49879,-6.371111,-2.773066,-3.194033,-0.2820833,-0.04538213,2.323605,2.75686,4.696908,4.89726,6.804565,6.644673,8.252708,8.407092,9.599406,9.528091,10.2368,9.486081,10.67743,10.60196,11.57258,12.19501,12.83974,12.45897,13.5763,13.89893,13.84956,13.48371,14.69611,13.27293,14.97818,12.90386,15.06898,12.40401,15.11922,12.42261,14.20246,13.04432,13.45506,12.96016,13.38479,12.86735,12.97186,13.26512,12.82263,13.30049,13.51932,13.91025,14.45009,14.13795,16.11123,14.22531,16.26733,14.18853,15.76731,13.95768,16.07295,13.76934,15.96081,13.70921,16.18267,13.37857,16.0976,13.30437,15.48985,13.41013,14.34319,13.19712,13.56824,12.8726,12.89411,11.90932,11.95695,11.43041,10.43768,10.98356,9.939406,10.72921,9.233247,10.42629,8.849097,10.81382,8.389617,11.38913,8.982319,10.9503,9.627566,11.18905,10.0959,11.45182,10.52372,11.36511,11.07238,11.46695,11.42104,11.86192,11.03788,12.07062,11.28246,11.44581,10.93651,11.82114,9.48126,11.8526,9.19346,11.11525,8.859999,9.618492,8.491771,8.089488,8.330857,6.665369,7.330921,5.937644,5.406498,4.818928,4.070561,3.326832,2.473253,1.997173,0.8184062,0.09372889,-0.3793489,-2.480992,-1.878488,-3.957704,-4.533139,-5.767455,-5.872595,-7.781937,-7.671302,-9.80312,-9.94801,-12.07318,-12.02417,-13.91144,-14.35365,-16.6753,-16.13533,-18.99573,-18.00176,-20.7785,-19.49514,-23.10506,-20.87552,-24.49863,-22.74372,-25.4054,-24.52887,-26.21828,-25.48342,-27.05604,-26.26863,-27.38466,-27.71955,-27.05012,-27.63885,-27.40908,-27.77095,-27.64793,-27.1546,-27.62853,-25.70774,-26.62276,-24.43582,-25.57535,-23.28694,-24.80238,-22.92967,-23.85514,-22.46922,-23.42306,-22.02485,-23.18905,-22.34155,-23.24376,-22.6134,-23.27195,-23.22795,-23.4983,-23.70402,-24.00219,-24.48569,-24.19051,-24.5041,-23.63879,-24.59359,-23.1107,-24.57959,-22.04398,-24.55311,-21.02388,-23.96351,-20.29351,-22.51989,-19.53826,-21.32519,-17.9202,-20.09751,-16.20771,-18.51766,-14.69998,-16.56172,-13.25523,-14.12014,-11.14315,-11.51914,-8.891919,-8.991289,-6.582356,-5.8662,-3.514488,-3.252409,0.1342015,-0.1104557,2.675628,2.73594,5.181824,5.775724,8.001321,8.555564,10.84773,11.21328,13.25722,13.44921,16.22862,15.99786,18.53583,17.92949,20.57355,19.98939,22.22711,22.08655,23.34267,23.70533,24.4008,24.63135,25.55682,25.70205,25.73372,26.46164,25.84323,26.92138,25.53743,26.5879,25.73331,25.84441,24.88733,25.68021,23.79536,25.22682,23.13266,23.90381,21.95758,23.03788,20.76245,21.4375,20.0819,20.24508,18.64483,18.83667,17.07378,17.63185,15.74789,15.83376,15.93711,14.2379,14.9796,13.25549,14.73663,13.00072,14.86406,12.89636,14.41505,12.46598,12.93496,12.18078,12.09674,12.12169,11.64092,11.36024,11.38166,10.43067,10.87199,9.917742,10.13952,10.18409,9.329103,9.015391,9.731699,8.498463,9.33631,8.028135,9.272434,7.777877,8.75364,7.315277,8.187416,6.649426,7.846135,5.254589,7.551706,4.154574,6.822966,3.734315,5.074461,2.823127,4.116968,1.372973,2.964402,-0.04762226,1.849919,-1.39219,0.7082627,-1.883341,-0.413429,-2.65595,-1.599511,-2.886965,-2.771439,-3.618548,-3.240815,-4.105362,-4.162887,-4.459871,-5.640862,-4.66274,-6.105358,-4.767474,-5.972961,-5.790259,-5.749372,-6.136862,-5.925669,-6.274218,-6.230166,-6.89915,-6.242094,-7.143185,-6.017809,-7.51375,-6.823445,-7.160273,-7.943684,-7.947814,-8.260872,-8.567337,-8.250301,-8.129566,-8.673374,-7.789742,-9.094227,-7.465386,-9.041683,-7.104866,-8.804273,-7.22171,-8.472647,-7.084433,-8.448608,-6.910766,-8.234501,-6.679321,-7.744684,-6.982069,-7.626021,-7.287483,-6.919105,-7.399994,-6.969242,-7.287976,-6.749305,-6.71025,-6.621165,-6.719488,-6.303629,-7.379164,-6.270111,-7.541921,-5.451739,-8.170723,-5.281639,-8.123426,-4.781688,-8.155274,-5.147833,-7.569994,-5.022511,-6.764468,-5.132542,-6.120057,-5.601333,-5.678176,-5.050477,-5.122428,-5.267708,-4.434975,-5.062168,-4.472116,-3.932429,-4.638931,-3.687839,-4.699431,-3.482285,-4.270363,-3.054256,-4.452982,-2.493354,-3.744075,-2.557696,-3.276254,-2.665269,-2.954716,-2.931123,-3.103411,-2.87797,-3.278946,-3.498397,-3.182166,-3.760381,-3.50211,-3.788225,-3.391895,-3.561102,-3.285297,-3.908421,-3.134464,-3.954524,-3.122512,-4.626607,-2.481978,-4.220097,-2.600235,-3.766976,-2.059455,-3.667426,-1.296341,-3.509879,-0.6793329,-3.274722,-0.6460936,-2.95254,-0.2700461,-3.314339,-0.000104061,-3.612512,-0.7721858,-3.056841,-1.546736,-3.066355,-2.260259,-2.893932,-2.199712,-3.64519,-1.991209,-3.45217,-1.75378,-2.335872,-1.412368,-2.535408,-1.524138,-2.784335,-1.666786,-2.94625,-2.041682,-3.831695,-2.894088,-4.947002,-3.827656,-5.727699,-5.613869,-6.726909,-6.818078,-8.267871,-7.917276,-9.060437,-9.685671,-9.694598,-10.88529,-11.12376,-12.12543,-12.38151,-13.58842,-12.89746,-14.93693,-14.11866,-15.69267,-15.1015,-16.02551,-15.61307,-16.52147,-15.63145,-16.69849,-15.46286,-16.7569,-15.28273,-16.1145,-14.64529,-15.53359,-13.59985,-14.68491,-13.24326,-13.31983,-12.32775,-11.92059,-11.65273,-9.854705,-10.59867,-8.573396,-8.800984,-6.998686,-7.648253,-5.291899,-5.309342,-3.004252,-3.459296,-1.379674,-0.7151888,0.4998296,1.98212,2.466518,4.256683,4.858275,5.800882,7.299161,7.795478,8.763694,9.565977,11.31173,11.53243,13.58643,13.99341,15.42951,15.83397,17.74865,17.21187,19.63622,18.91142,21.4695,20.71967,23.74538,22.75808,25.29566,24.68111,26.97916,26.38267,27.5379,27.76055,27.98578,27.77992,27.76702,27.2356,28.01553,27.3604,28.19779,27.37291,28.89468,28.43099,29.20912,29.89953,29.91886,30.68043,30.47332,31.19853,31.45736,31.80214,31.92986,32.43836,31.43278,32.98184,31.1218,32.7827,30.67597,32.78243,29.92612,32.44447,28.91029,31.14278,27.58357,30.46009,26.24488,29.90654,25.49187,27.98938,24.91822,25.71816,22.74505,24.09727,20.58533,21.37799,18.54474,18.64568,16.30408,15.82838,13.57664,12.89018,11.2717,9.411787,8.672156,6.593942,6.131043,3.794733,3.092132,1.324675,0.7317175,-0.7678013,-1.481103,-3.145472,-3.518959,-4.321485,-5.506289,-5.954421,-7.253931,-6.9298,-7.913801,-8.058501,-7.659871,-9.706144,-7.501711,-10.6557,-7.87047,-10.52506,-7.982782,-10.23479,-7.810803,-9.586915,-7.880246,-9.343682,-7.712394,-7.89094,-7.730912,-6.42147,-7.550278,-5.41543,-6.265669,-3.892943,-4.878242,-2.683539,-3.383893,-1.369333,-1.549075,0.1567422,-0.3887514,1.838852,0.9609829,2.86424,2.765154,4.096309,4.262461,5.126479,5.775286,6.171685,5.930988,6.993101,6.117839,6.8858,5.493999,6.013777,4.15071,4.855264,3.194512,4.40837,2.58021,3.497714,1.663178,3.290878,0.773516,1.761751,-0.4011762,0.496609,-2.223582,-0.9649443,-3.693648,-3.233421,-5.170777,-5.491259,-7.043838,-8.009435,-8.958222,-10.1089,-11.90901,-12.2846,-14.01117,-14.19206,-16.17419,-15.82258,-18.34169,-17.26464,-19.82471,-17.55518,-20.783,-18.65648,-21.59312,-19.98201,-22.02234,-20.7642,-22.70305,-22.12777,-23.8863,-23.05622,-24.4554,-23.77166,-25.01873,-24.63845,-25.20167,-25.05038,-24.99653,-25.78206,-24.88594,-26.25,-24.52871,-26.19961,-24.64866,-25.86088,-24.72127,-25.72669,-24.72582,-25.74401,-25.08048,-25.06176,-25.76063,-24.70975,-25.61324,-24.05984,-26.12692,-24.1057,-25.77011,-25.26715,-24.99425,-26.27576,-24.59321,-26.22222,-24.95316,-26.13113,-25.31326,-26.15518,-26.71116,-25.84961,-26.47343,-25.50274,-26.56545,-25.51307,-26.57214,-25.32268,-26.87277,-25.69933,-26.69269,-26.48467,-26.75581,-26.66869,-26.35187,-27.2523,-26.51152,-27.42371,-27.32115,-27.16101,-27.38131,-27.08024,-27.53631,-27.13055,-27.29231,-27.0502,-27.36937,-26.8551,-26.89872,-26.50395,-26.65653,-25.58015,-25.02785,-24.22905,-24.41958,-23.36799,-23.69066,-22.40575,-23.16258,-22.31728,-23.10308,-22.20276,-23.32632,-22.28854,-23.92616,-21.93338,-25.07867,-22.48346,-25.41513,-23.5097,-25.72227,-24.26976,-25.61271,-24.95949,-25.54493,-24.49863,-25.07377,-24.35069,-24.56364,-23.65576,-23.63423,-22.5591,-22.65761,-20.94551,-21.35123,-19.28885,-18.89109,-17.82783,-16.7275,-15.72578,-14.63635,-13.108,-11.05118,-9.887211,-7.418014,-5.945376,-3.486378,-1.773701,0.8191222,2.732027,5.191062,6.916634,9.58661,11.65121,14.30028,16.01357,19.01991,20.48651,23.6002,25.3039,27.93078,30.11566,31.72542,34.96444,35.35522,39.50007,39.32792,43.33678,42.66418,47.30539,46.76082,50.05785,50.4882,52.9687,53.45071,55.99385,56.00899,58.4326,58.02834,60.64709,59.10066,61.36286,58.67656,60.38698,57.83451,59.79066,57.92514,60.22448,58.24813,60.29711,59.21145,60.24536,60.43043,61.28891,60.8644,61.10559,61.57973,61.29226,61.18939,61.69899,61.22394,61.24569,60.53999,60.74056,59.94934,59.80076,59.37042,59.70855,59.20537,58.69877,58.59578,58.64402,57.55107,57.25632,54.93569,55.88948,53.03259,53.20908,50.53006,50.19783,47.45379,47.11009,43.52499,43.81801,39.59653,40.0973,35.37978,36.50305,31.35097,31.77112,27.06518,27.30033,22.89087,22.75934,18.07847,18.5977,13.59194,13.807,9.40749,9.159478,4.792116,5.286913,0.4250731,1.117257,-3.123074,-2.683927,-6.467258,-7.447263,-9.072645,-10.60531,-11.95819,-13.02004,-15.06074,-16.37263,-16.97212,-18.94668,-19.12177,-21.02353,-20.99134,-22.8604,-22.18175,-24.02894,-23.12225,-24.72691,-24.46935,-24.77602,-24.1469,-24.62075,-23.69701,-24.14898,-22.984,-23.31777,-22.14272,-21.54825,-20.56318,-20.14087,-18.77925,-18.59624,-17.12659,-16.84011,-15.82422,-16.0762,-14.27133,-15.09323,-13.84794,-14.37163,-14.16825,-13.88007,-14.77099,-15.61347,-17.03055,-17.80269,-18.38829,-18.62117,-19.06707,-18.36633,-18.60493,-17.98732,-19.00105,-17.92745,-18.10858,-18.01893,-17.44914,-18.10653,-17.91098,-17.68351,-17.5113,-17.02802,-17.86993,-16.44873,-18.02068,-16.14437,-18.3265,-16.19123,-18.07652,-16.44026,-17.41944,-16.02064,-17.65986,-16.0038,-17.57483,-15.68857,-16.96995,-15.63641,-16.7648,-15.82166,-16.4778,-16.08537,-16.04027,-16.76585,-16.09792,-16.37751,-15.87501,-16.234,-15.75881,-15.75207,-15.74323,-15.29314,-15.56075,-15.74674,-15.01749,-15.40028,-14.59893,-15.39964,-14.33268,-14.79789,-14.18185,-14.69837,-14.00374,-14.20784,-13.73712,-13.38651,-13.41374,-12.78866,-12.98543,-12.98297,-12.73079,-12.82027,-11.77915,-12.46249,-11.78916,-11.64288,-11.69195,-10.9812,-11.07473,-11.06032,-10.48767,-10.39884,-10.02233,-10.05882,-9.478147,-9.616754,-8.999567,-8.958502,-8.936264,-7.854539,-8.634765,-7.080143,-8.200815,-6.368583,-7.595026,-5.314526,-6.659158,-4.220024,-5.968265,-4.386938,-4.308805,-3.715659,-3.179866,-2.78809,-2.377976,-1.623051,-0.8145575,-0.7252958,0.5607913,0.3281189,2.210096,1.407308,3.1991,1.955393,4.34553,3.048555,5.605414,4.510572,6.35404,6.389443,7.555914,7.464406,8.747685,8.662186,9.586318,9.369717,10.55703,10.18283,11.45552,11.31175,11.81879,12.36588,11.74359,13.45546,11.74391,14.4341,11.87512,15.01104,12.6483,14.91354,13.27454,15.49169,13.25885,16.28877,12.98523,16.85356,13.26427,16.97569,13.74034,16.53873,14.04218,16.80797,14.32234,16.85785,14.81229,16.91661,15.0298,17.14797,16.11054,16.66954,16.62267,17.23461,17.21192,17.40753,17.9982,17.7612,18.08352,17.8346,18.77873,18.20402,19.40661,18.93362,19.63946,19.83554,19.90771,20.52813,20.38469,21.47982,21.50075,22.72854,23.3083,24.32632,25.01027,26.31526,26.59603,28.08429,28.02414,30.02873,29.61404,31.54723,31.77004,33.28744,33.59976,34.55791,35.22456,35.71945,35.92671,36.62761,35.40316,37.21652,34.96904,36.95374,34.2086,35.59294,33.53608,33.86624,31.66679,32.09592,29.48089,29.61756,27.43354,26.66072,25.17012,23.86749,22.23413,20.31073,19.06957,16.59172,15.83277,12.12808,12.2788,7.889258,8.232376,3.887582,3.816851,-0.1304789,-0.4784054,-4.316367,-5.145345,-8.557128,-9.934153,-12.56335,-14.46895,-16.8108,-18.66425,-20.9291,-22.96104,-24.69907,-26.5058,-28.37448,-30.28865,-31.5374,-33.55714,-34.23199,-36.3843,-36.95878,-39.12433,-39.50336,-40.76238,-41.28982,-42.52475,-43.00883,-44.29844,-43.95618,-45.76444,-44.40596,-46.48488,-44.7096,-46.83399,-45.33172,-46.88262,-44.96796,-47.26604,-44.08489,-47.79586,-42.43067,-45.79025,-40.24848,-43.13968,-38.23462,-40.15503,-37.15724,-38.34789,-37.41739,-38.27817,-38.70653,-39.82732,-40.06079,-40.67234,-41.67096,-43.10584,-43.46572,-45.05978,-44.68571,