ConstAcc,0.5,0.56926,98.225822,117.04744,134.76212,151.39218,166.96086,181.49218,195.01099,207.54285,219.11404,229.7515,239.48277,248.33595,256.33971,263.52316,269.91587,275.54781,280.4493,284.65096,288.18371,291.07865,293.3671,295.08049,296.25037,296.90832,297.08594,296.81479,296.12636,295.052,293.62291,291.87009,289.82427,287.51589,284.97506,282.23151,279.31453,276.25296,273.07511,269.80876,266.48108,263.1186,259.74716,256.39187,253.0771,249.82638,246.66238,243.60688,240.68071,237.90373,235.29475,232.87153,230.65067,228.64767,226.87677,225.35101,224.08211,223.08048,219.07188,212.6027,209.33296,210.64686,213.04651,214.81291,224.235,234.43789,244.19377,253.40828,262.19523,270.88673,279.72156,284.6075,286.99238,287.96313,288.08936,287.72141,284.97349,281.08927,276.90174,272.99418,269.71684,267.21643,265.44418,266.23511,268.28524,270.52694,272.27984,272.97525,272.19134,269.72276,267.59575,265.83643,264.42425,263.50526,263.39151,264.32459,266.41455,268.07181,269.47958,269.84484,268.42854,266.33405,264.2577,262.66007,261.76106,261.61056,263.7075,267.40285,271.56068,275.2038,277.74996,278.76805,278.1235,275.86556,272.07429,268.42814,265.15049,262.47646,260.6471,259.91863,260.43995,262.34461,263.97546,265.31687,264.72385,262.50946,259.70036,257.02168,254.91773,253.38937,252.53376,253.19481,255.77465,258.62874,260.84619,261.8999,261.39984,259.23025,255.4834,250.33764,246.00212,242.69709,240.61859,239.86141,240.56282,242.79621,246.43465,247.05988,246.35354,245.33461,244.69733,244.53509,244.85459,245.54371,249.0837,253.50415,257.43503,260.11477,261.27217,260.99423,259.48024,257.05021,253.66069,249.52488,246.68883,245.18876,244.91183,245.85778,247.98063,251.14373,253.11692,253.99734,253.89626,252.83063,251.00599,248.5535,245.78068,242.72427,236.41646,229.07823,221.97379,215.77986,210.64778,206.47981,203.17433,203.32591,204.45558,207.52897,211.61341,216.19517,221.09533,226.30852,231.99738,238.44782,243.28874,246.71164,249.11326,250.778,251.86483,252.76501,253.59749,251.30196,248.25782,245.83948,244.80284,245.16615,246.81917,249.36084,255.40514,262.29568,269.56381,277.72572,286.1821,294.81708,303.68547,312.9879,322.89295,331.54208,338.49054,344.0873,348.62312,352.31607,355.29834,357.72962,358.37696,356.57403,354.29063,352.57853,351.88652,352.1843,353.19825,354.3876,355.3201,357.37495,360.5782,364.72903,369.36353,374.17335,378.89715,383.30176,384.5118,385.00198,384.96633,383.707,381.91313,379.90955,377.70865,375.28354,372.66356,369.76339,366.64976,363.02663,359.05381,354.50621,349.64335,344.50472,339.11005,333.15652,329.86975,328.65624,329.01689,330.49135,334.5534,341.52007,349.00762,352.82612,353.31808,351.40833,347.83133,343.63236,339.16704,334.6666,330.05925,325.15059,316.41284,306.83632,297.95506,290.5695,284.26863,278.82155,273.96744,269.3943,265.65184,264.19799,262.66554,259.5342,254.57302,247.55858,238.82916,232.70866,228.74004,226.54192,225.81852,225.95234,226.76284,224.92924,219.70848,213.61824,207.88532,203.13389,199.41182,196.67212,198.26908,200.56321,201.77577,201.73037,200.20999,197.43066,193.82925,189.8936,185.66336,181.20289,180.46306,182.39924,185.80111,190.2218,195.37702,201.2095,203.7731,202.67457,200.86685,199.7732,199.8234,200.93209,206.50773,213.16052,219.04764,223.10868,225.36887,226.37001,226.23066,225.53396,223.98268,221.90362,219.27753,217.64411,218.56775,220.99087,224.28269,227.82575,231.53831,235.10832,238.59146,242.09338,243.69546,238.1376,230.29657,223.2589,217.30572,212.02931,206.90979,209.86036,215.46121,220.44446,223.68221,224.93449,225.0436,224.39628,223.39429,222.77222,222.30577,222.02186,221.8144,221.90974,222.4452,223.01621,224.07257,221.41073,218.90199,218.23396,219.9122,223.70769,229.12614,233.46218,239.0422,243.64123,246.13035,246.56563,245.19521,243.22527,240.66992,238.0075,234.95315,231.08089,226.35168,225.16719,225.81104,227.34332,229.02333,230.74616,232.49646,234.15973,236.10457,237.40211,231.30498,223.37077,216.61094,211.88564,208.95712,207.2391,210.58337,213.94692,215.15754,213.57744,210.06091,205.33598,204.05103,204.85099,206.53448,208.84064,211.49075,214.7233,218.65284,218.9299,213.26965,207.42362,203.40174,201.83501,202.46799,204.21498,206.32853,212.86459,219.09091,222.91833,224.0713,223.46087,221.67592,219.47698,216.73677,218.39599,222.39797,227.19249,231.91846,236.50822,240.94675,241.06319,237.45945,230.08361,223.47639,219.36758,217.44552,216.81287,216.42921,220.44141,223.74899,224.43342,222.49046,219.30313,215.49434,210.86524,205.86718,200.48303,194.65527,187.93346,180.34052,171.80045,167.58873,165.612,159.62489,154.47881,152.27336,152.74393,149.82569,145.3683,143.18307,143.33488,143.13743,141.55174,138.93827,135.9189,132.21156,128.54853,124.63372,120.73793,116.47835,111.62194,106.58044,101.01221,94.955745,91.908058,92.106139,94.791538,99.150533,104.56929,110.87495,117.82474,122.76515,125.55353,127.08031,128.83596,130.8539,133.44739,136.07314,138.63846,140.73171,142.46289,143.61644,144.1556,144.18901,143.3645,141.83984,138.81046,131.82386,126.24104,121.94694,123.89619,126.91938,129.81632,132.10382,134.89761,139.40345,140.66406,141.70734,144.22591,148.25856,153.18375,157.89524,162.30401,165.02375,166.0942,166.34805,159.45897,146.00765,132.43891,124.13651,127.41002,137.35556,150.95123,166.97517,184.46875,202.28206,219.82472,231.03134,239.42976,247.99239,256.95502,266.58472,275.4011,282.73275,288.9621,293.24822,294.56988,291.89218,284.58198,272.62645,255.99011,234.69701,210.57834,186.29511,159.37001,128.10087,92.395863,52.987742,10.401444,-40.467121,-96.356977,-154.8922,-215.10666,-277.08501,-341.25657,-407.24801,-475.12521,-545.1203,-616.93902,-689.68367,-763.28655,-837.31899,-911.55183,-985.05684,-1051.9306,-1115.5131,-1178.0045,-1239.0628,-1298.1745,-1354.6153,-1411.0308,-1467.9723,-1522.4092,-1572.647,-1618.5627,-1660.6325,-1699.0458,-1734.2341,-1765.725,-1793.5274,-1817.8712,-1838.3217,-1855.0727,-1867.9975,-1870.7488,-1867.0272,-1858.5369,-1846.0847,-1829.5555,-1808.2391,-1781.7873,-1756.5201,-1729.1043,-1697.4365,-1660.7241,-1620.2743,-1576.9433,-1531.3517,-1483.8097,-1434.9526,-1384.9683,-1334.0813,-1282.9189,-1231.4973,-1180.0075,-1128.9686,-1078.7482,-1028.7394,-975.16629,-923.07944,-873.45469,-826.96311,-781.32776,-735.98108,-690.88405,-646.91531,-605.53967,-567.52083,-533.59085,-504.79043,-481.08775,-460.40579,-443.12765,-433.6718,-430.79524,-433.0553,-440.21206,-443.62933,-439.38497,-430.29449,-422.2246,-416.9496,-413.75986,-415.4873,-419.98605,-423.47518,-424.70978,-423.87798,-420.34787,-414.36718,-407.17436,-398.68137,-389.4261,-378.62234,-366.33447,-354.24009,-343.26151,-332.84293,-322.386,-311.53574,-300.71994,-283.73523,-268.41513,-256.71938,-246.65596,-237.27111,-227.95828,-218.72565,-209.34758,-200.53825,-192.38929,-184.81534,-176.41007,-167.89594,-159.2316,-151.27144,-144.43045,-137.87043,-131.46355,-125.66828,-119.84667,-114.42779,-114.86842,-113.75069,-109.86071,-103.92225,-97.544412,-91.602986,-86.44794,-82.069504,-77.418859,-71.485399,-64.796687,-57.835317,-51.106049,-44.149741,-37.231056,-30.058793,-22.965302,-15.750704,-8.7833043,-2.0696155,4.3125949,11.61452,18.972467,26.829497,33.444153,38.970553,44.216493,49.508409,54.207395,57.883724,61.671718,65.171083,68.558394,70.098437,70.467957,69.987152,69.116521,67.623781,64.870416,61.825695,57.693969,52.572518,47.690972,42.052279,35.438146,27.926475,19.898632,12.204936,4.2808279,-4.6134533,-14.756257,-24.955322,-34.760072,-44.919094,-54.24499,-63.234126,-71.976429,-80.567365,-88.262823,-94.123461,-98.166933,-113.24804,-129.24771,-144.11761,-150.7027,-156.72959,-172.85769,-190.5227,-205.22041,-213.38164,-222.51151,-237.03482,-248.38399,-256.73097,-265.59102,-278.50201,-289.01774,-295.67864,-300.4601,-297.09401,-294.70898,-293.75096,-292.91638,-290.03073,-285.29044,-280.12947,-278.65081,-273.06946,-263.04506,-249.2265,-235.12849,-223.11143,-211.65896,-200.35039,-186.93198,-173.80576,-159.7345,-145.32164,-131.00417,-116.22667,-101.27764,-92.853152,-82.902578,-70.968567,-57.896164,-44.994753,-27.598176,-13.500204,-2.7450153,4.6600831,11.524346,24.128633,36.357117,46.265774,53.791883,59.60681,64.39623,69.395395,75.116223,80.403678,84.149664,86.974186,87.740974,86.160123,86.284214,88.370013,91.430313,94.501942,98.765542,107.83594,114.891,120.15063,123.22744,126.47732,129.17982,132.10939,135.30629,138.48609,141.44325,143.93323,146.5305,148.14696,149.55271,150.36966,151.30585,152.71763,147.51923,144.48103,144.27142,146.40677,148.38582,149.81602,151.3842,159.05614,163.9464,166.0859,167.66461,169.41636,170.79486,171.21687,171.47598,172.53105,173.71291,174.52284,176.03935,177.06162,178.64347,179.82568,181.41669,176.73229,174.05823,167.94788,169.69651,173.61138,178.49947,178.15584,177.41207,182.77823,189.30078,192.76594,189.1589,183.51012,181.06133,178.57943,176.38356,174.52323,177.27496,180.38234,182.29297,184.64481,178.89494,166.81996,159.025,155.7652,152.84768,148.9707,145.40537,148.62332,159.54727,166.83286,170.65053,166.48242,162.78974,161.57071,161.87174,160.4272,159.39408,157.63621,154.80992,151.73403,148.26848,145.06339,148.38637,152.52138,152.17697,149.91881,151.56532,148.932,146.82962,145.50621,145.10848,144.51776,143.77982,143.64809,143.77009,143.9002,143.96662,144.35769,151.24771,154.26379,153.51712,151.3389,149.00455,149.29852,153.27065,157.013,159.32706,160.23296,162.30471,163.70532,152.67703,145.15353,141.44321,140.05542,137.57991,134.149,130.56069,126.84604,122.71437,118.06143,113.75497,112.91751,113.19742,109.37222,103.24472,96.930713,89.047059,88.054168,87.024343,84.808506,81.138441,77.399851,74.745574,73.233403,57.75258,45.273419,38.331334,33.455961,27.875523,21.522705,15.222871,9.3433614,9.5347536,8.3357076,3.9121023,-2.0375432,-7.9661799,-14.572278,-21.118645,-27.78402,-26.450352,-25.814216,-26.19289,-26.98195,-26.402805,-24.370095,-24.430838,-28.587133,-31.58269,-32.941204,-39.69466,-43.744457,-44.612661,-44.51863,-44.576278,-45.423017,-46.095888,-45.945511,-45.39692,-38.137325,-35.028047,-35.087298,-27.930218,-20.19766,-13.84026,-7.8008893,-1.8153295,5.4071117,13.758313,14.114901,15.134118,17.702598,20.360208,23.321957,18.344549,16.611138,18.071949,19.175206,18.933788,18.006657,16.900295,15.042903,15.949581,18.23635,15.668858,13.798607,15.214596,14.843393,12.388684,9.2258543,7.2831488,6.2555411,5.4285854,5.1028068,5.1638077,5.5268152,-1.5962299,-3.8801806,-2.157813,-7.8271897,-12.403941,-14.849978,-16.625579,-17.951593,-20.09978,-22.538361,-25.410475,-28.162138,-30.764737,-33.996975,-37.546469,-33.362694,-29.894423,-28.266604,-19.484693,-13.908917,-11.186805,-9.9383685,-7.3041956,-3.1327617,1.2127609,5.7645793,6.3754476,3.4638091,1.2572727,-7.1418483,-12.900446,-16.116145,-18.930691,-22.694254,-27.93361,-33.095746,-38.874329,-44.955116,-51.524041,-50.331861,-49.164931,-49.476591,-49.958937,-49.168852,-39.297583,-32.381555,-28.927068,-33.679774,-37.210523,-39.356863,-41.413071,-44.892525,-50.024459,-56.251479,-63.137491,-70.524821,-78.387995,-86.025049,-93.827269,-102.50937,-119.39116,-132.80767,-143.05698,-152.36311,-162.31309,-164.73159,-166.52774,-162.93193,-163.81188,-165.86299,-166.07852,-163.95107,-160.76365,-157.13115,-160.75735,-163.2706,-162.56606,-161.10219,-160.24408,-159.75532,-159.02157,-158.31146,-164.51665,-165.6887,-163.48047,-160.70986,-158.36387,-155.5956,-145.25427,-130.57695,-119.4698,-110.72154,-100.54468,-89.075949,-76.508122,-63.63515,-50.176467,-41.082926,-36.060116,-28.870521,-20.156833,-13.164185,-7.2152913,-1.6208297,-0.33165702,-1.7931719,0.36930662,2.9253589,4.5066309,4.121726,3.1159287,14.253071,26.612689,32.756337,36.136478,40.046754,44.703257,49.577596,53.673172,57.832739,62.004909,65.376772,68.366802,71.586914,74.981118,78.477768,82.187155,85.353441,88.7109,75.418834,67.764807,65.250935,64.381607,61.374026,56.839168,59.697233,57.585972,51.150498,43.412615,36.151457,36.981317,35.886992,32.275196,28.165144,24.425609,22.024576,19.638866,17.920626,16.594251,15.938579,16.219106,18.350609,21.103011,24.227607,20.970618,13.923948,11.305186,11.19752,11.519211,9.60402,8.0651707,7.0247346,5.9469693,5.20186,5.2068119,13.299995,15.820956,15.024386,12.99205,11.059478,8.6508657,15.112679,19.867514,14.5875,14.061901,17.471962,21.99282,26.114858,22.592457,21.583307,22.542193,23.768838,23.978136,23.231534,22.630839,21.217746,19.922322,17.484042,14.05931,10.184999,6.1501967,0.9700661,-1.5911385,7.3100823,9.5620999,7.6646818,6.3042572,6.3472761,7.2322624,-1.7744858,-8.799976,-14.316297,-20.068654,-27.603507,-43.614983,-54.621066,-62.850487,-71.653533,-81.03324,-90.800672,-100.66914,-110.50314,-120.00848,-121.95712,-129.95782,-136.24105,-138.2061,-141.47338,-144.95707,-147.93944,-149.7415,-150.52694,-154.11236,-161.96522,-167.54141,-170.80693,-181.99021,-189.06847,-192.56558,-195.95483,-199.74567,-203.63973,-206.34155,-208.83414,-210.71344,-212.2461,-213.75028,-215.59947,-217.02865,-218.09847,-209.25874,-202.49749,-197.01238,-191.16014,-183.34629,-174.05393,-172.56952,-168.76176,-162.97503,-157.19452,-151.67923,-146.88763,-142.58601,-138.17207,-134.4706,-131.34484,-128.63694,-126.85814,-125.30587,-125.00035,-125.30648,-126.77673,-129.79827,-133.95214,-138.964,-136.05137,-136.27119,-138.85432,-141.78591,-143.67347,-144.8908,-146.094,-147.56215,-148.78114,-149.34072,-149.66437,-159.66386,-167.4769,-173.50231,-180.14927,-188.29738,-197.83028,-208.04055,-219.34934,-221.86693,-227.55588,-235.56886,-243.13164,-250.18669,-257.52728,-264.27996,-270.66673,-276.27446,-282.76064,-288.08814,-292.26744,-296.6549,-299.89716,-303.2348,-305.52169,-307.13139,-307.10321,-306.50828,-309.03926,-315.67602,-319.74435,-322.00162,-324.69359,-328.33326,-332.2312,-335.8929,-340.21913,-344.68015,-349.65497,-354.86277,-350.49434,-348.93747,-349.04116,-348.50969,-346.78688,-343.58402,-339.40458,-334.18445,-328.67008,-332.11236,-332.00963,-329.83864,-327.82658,-326.72974,-326.57108,-327.52818,-327.92224,-328.98342,-330.76347,-333.58223,-337.32414,-341.98925,-337.71885,-336.28102,-337.67552,-338.86705,-339.73063,-339.71543,-340.37981,-340.61152,-341.09726,-341.3455,-341.91709,-342.2727,-342.84896,-343.47208,-344.48478,-336.39999,-335.45923,-337.54472,-338.55789,-338.92408,-339.87567,-341.50453,-343.715,-346.01966,-348.87347,-351.68137,-353.99816,-357.43811,-368.86842,-373.20196,-374.89606,-376.82777,-379.69066,-381.76855,-383.2833,-383.54227,-383.5149,-383.13589,-382.14615,-380.49035,-378.65551,-377.20339,-374.80573,-372.32936,-361.24648,-356.98762,-354.86551,-351.48063,-348.12338,-345.02208,-342.75321,-340.42286,-338.2233,-336.25671,-334.61378,-333.06822,-332.0513,-331.37778,-338.36616,-338.4048,-336.18727,-335.07199,-333.78018,-331.99533,-329.76472,-326.69125,-323.57519,-319.52847,-315.58904,-312.38899,-308.16209,-304.37396,-300.26095,-296.1379,-291.73834,-288.12989,-284.31609,-280.40885,-276.7854,-273.30119,-269.77914,-266.59909,-263.88119,-261.10876,-259.37183,-257.20643,-255.44483,-254.02317,-253.42351,-252.91563,-252.67318,-252.94069,-253.65941,-254.62002,-255.92476,-257.48461,-259.64274,-262.18883,-264.86418,-268.176,-271.14845,-274.67337,-278.7823,-283.32261,-287.50689,-292.17542,-297.03213,-302.01222,-306.87775,-311.69862,-316.63011,-321.85809,-326.98187,-331.84852,-336.43181,-340.71505,-345.19769,-349.01612,-352.10547,-354.72004,-357.1891,-357.66533,-358.38139,-358.50987,-349.17445,-346.57153,-356.18481,-361.56528,-363.60795,-368.09493,-373.8636,-381.89709,-390.55649,-399.11874,-408.44092,-418.83843,-437.13714,-449.97405,-459.42634,-458.94127,-463.38208,-469.86401,-473.59114,-470.54148,-465.49029,-464.67362,-463.45505,-459.83574,-455.41384,-450.0442,-444.34684,-436.85571,-428.2001,-419.29084,-408.83509,-408.02364,-401.97827,-393.86778,-386.7771,-380.40536,-373.94841,-367.10263,-360.85886,-355.26504,-349.82162,-344.83327,-340.33899,-336.57629,-333.57269,-321.36555,-313.91013,-308.16688,-300.82872,-293.00695,-284.23475,-274.85154,-265.20642,-255.55274,-245.7141,-235.96315,-226.25526,-216.39302,-206.46895,-196.4856,-186.71947,-177.29053,-168.04463,-158.74005,-149.66187,-141.45919,-133.12478,-125.32083,-118.31827,-110.38789,-103.59071,-97.241075,-91.874081,-87.288592,-83.054938,-78.708232,-84.363608,-82.670926,-79.411162,-77.564601,-76.4473,-75.126384,-73.754888,-72.736305,-71.527901,-70.604761,-69.841038,-69.707738,-69.020263,-69.147842,-60.922085,-60.131037,-61.769452,-63.021418,-63.622915,-65.180031,-67.727634,-70.83634,-74.134397,-77.143261,-80.560243,-83.848386,-86.622288,-89.492415,-91.466465,-102.22756,-104.33798,-103.51914,-104.59074,-104.90891,-103.87663,-112.46873,-116.31589,-117.94249,-120.10798,-123.9777,-128.20123,-133.0533,-136.64451,-140.5222,-145.41089,-150.48685,-155.03795,-149.79233,-147.75963,-148.18512,-138.75057,-135.27032,-131.8705,-126.21969,-125.69771,-128.79529,-127.87923,-126.32831,-126.1184,-125.93411,-127.50367,-128.2549,-129.73627,-131.40972,-141.92319,-144.21905,-144.359,-145.64151,-147.07041,-147.73619,-147.4163,-147.03949,-146.76569,-145.75705,-144.58862,-143.4143,-142.45844,-141.07908,-139.80211,-138.31474,-136.9021,-134.51657,-131.45939,-119.77598,-115.96726,-114.09576,-110.49054,-106.469,-104.50393,-102.81344,-101.66789,-100.62431,-100.05063,-99.975529,-100.27225,-100.98573,-102.19898,-103.6048,-105.33925,-107.81929,-109.8451,-112.68537,-115.69426,-118.53366,-123.26052,-128.2352,-133.46739,-138.85688,-144.30289,-150.60444,-158.18835,-154.96043,-156.85162,-159.46077,-160.32989,-160.0138,-159.07278,-157.48751,-154.69806,-150.92183,-146.56664,-140.69715,-134.06043,-127.1085,-117.79008,-119.06792,-114.72793,-108.54317,-103.14569,-98.848081,-94.541939,-91.197833,-86.984051,-83.270671,-89.875472,-87.824647,-85.412073,-85.146124,-84.17618,-84.567339,-73.983979,-59.807402,-55.093507,-50.166953,-43.432629,-36.551546,-30.152232,-23.531238,-17.395343,-11.379365,-5.8797312,0.16105664,6.3472348,12.768957,18.699171,25.622697,32.500716,31.132184,39.451943,48.468341,58.82503,57.227739,71.032962,76.803657,76.819291,79.167056,81.659965,81.51526,79.233226,76.108528,71.731896,67.176661,61.410104,52.330828,36.338599,38.410965,35.34113,29.315159,24.46478,21.649016,19.174614,25.483231,23.498499,21.281402,20.798612,20.782444,20.382796,21.421038,21.811112,22.65739,24.154857,26.748728,29.753189,34.035473,28.021017,18.829116,19.979314,20.616168,19.05652,18.488367,18.296861,18.950482,20.193859,31.270551,33.564466,34.864831,37.944944,41.33849,43.971338,45.820194,47.93201,49.105271,50.427498,51.198397,51.351007,51.981863,51.817018,52.057792,52.298193,51.740532,51.357843,50.119465,49.32191,39.74361,38.191461,38.124084,36.671887,35.231151,44.163309,43.372534,41.824812,42.355163,42.738065,42.299846,41.192102,38.985574,37.665083,35.18839,32.160206,28.956059,24.841087,19.42008,14.961754,8.9093885,2.057638,6.6120583,5.4172715,3.6231779,-4.8946265,-3.8918741,-0.35748293,9.1323678,4.9836085,4.2989853,6.3593098,8.128331,8.7478479,9.8580579,10.986139,12.473122,13.488832,14.431409,15.127958,16.321248,16.999741,18.049387,18.215503,19.381348,31.665376,37.551935,44.092203,52.149996,62.551753,60.147069,63.570521,70.669062,75.222362,78.215612,82.032194,86.215152,89.800567,92.658098,95.134434,96.887101,100.70985,112.6729,119.49482,116.4417,125.17602,135.62385,144.91328,154.86859,155.70573,162.84437,171.58838,178.94921,185.69244,192.62327,198.28231,204.01105,209.40893,213.94819,217.64287,230.36938,231.76185,231.57101,243.65954,248.83522,252.56893,255.73453,253.24295,259.29867,265.28102,270.37998,264.77499,266.03213,268.72267,278.16796,277.18642,275.84327,270.32025,264.87955,262.91708,259.45041,254.92737,250.94924,246.40297,241.77717,236.71211,240.78972,234.38849,226.51885,220.25437,212.9965,216.06782,204.20268,199.87836,198.43654,196.86369,183.92868,179.56277,176.39604,171.36668,165.36097,169.99962,164.94757,160.13672,156.11809,151.46464,146.24051,140.50452,125.26994,120.19242,114.42049,106.97969,100.25296,94.600357,88.536504,88.777844,97.354479,96.885849,97.600186,92.975143,90.451129,90.579115,89.528883,87.696695,86.808624,84.837066,83.256914,81.046429,79.433429,68.799368,68.138318,68.055579,67.214447,67.32627,77.820325,78.249133,79.604286,82.830674,85.933644,87.157331,87.040805,87.55027,90.090633,91.733658,92.413166,92.714451,92.888764,90.675804,83.606594,84.25011,83.305127,80.957625,78.711406,76.318245,77.29803,91.11339,91.281006,91.651198,96.117066,100.05214,101.94925,105.25369,108.13516,110.74582,113.53887,116.40647,119.34288,122.87292,117.46479,121.40477,125.7163,116.52319,115.51821,115.68459,115.69122,120.03572,116.11848,114.18602,121.95003,122.2407,122.04386,123.79104,125.28708,126.70622,128.0464,117.52971,113.88457,109.85684,110.08545,111.09216,108.76996,97.449564,98.409873,99.334402,98.756129,99.093719,100.66769,91.322673,89.5015,87.414888,87.785617,88.140461,82.032096,87.477692,87.130594,85.910597,84.876867,84.356224,84.196215,83.280974,83.04694,83.315721,69.626606,57.859434,53.901888,47.062581,38.855255,31.198848,23.329936,27.721721,33.768624,29.974076,29.745182,31.775822,33.795315,35.955978,31.017372,27.49195,25.946903,23.471091,20.029178,16.457823,12.251573,8.3351091,3.6375685,-1.6903823,-6.7735939,-22.128959,-26.989988,-32.383733,-28.361901,-29.956148,-30.806047,-29.159803,-26.183354,-24.486596,-25.440107,-25.501148,-25.653017,-25.759451,-26.495686,-27.223448,-27.927924,-30.352163,-32.209769,-35.190977,-38.503466,-52.316787,-51.943069,-45.441993,-46.345389,-45.26399,-40.675655,-35.404323,-28.650021,-24.486066,-16.140018,-11.99068,-7.3008161,-4.0491599,-1.5076801,0.32650415,1.0011302,1.0791902,0.27052508,-2.0443708,-4.8953022,-8.552508,-13.435795,-7.8635022,-8.794017,-10.020593,-18.370978,-14.768191,-12.669652,-13.094944,-19.612581,-19.171396,-18.883221,-10.360214,-12.673357,-13.680217,-13.83645,-14.881294,-16.791904,-19.18506,-21.958711,-25.800285,-30.38108,-35.10999,-41.673756,-47.58179,-42.178745,-45.706194,-48.567568,-49.140909,-48.698187,-47.971938,-50.411976,-54.766787,-50.428025,-51.963428,-57.213667,-55.893131,-54.803245,-54.768139,-50.569945,-44.773128,-44.71576,-43.981999,-42.495639,-42.743751,-43.729495,-42.919003,-34.415902,-31.913814,-27.914234,-22.81807,-17.300266,-10.777947,-4.5669912,-9.1165343,-4.9972949,-11.681823,-8.5743447,-7.2694569,-6.9177142,-6.760329,-5.5074688,-3.3609679,7.3919827,6.7491524,7.0505323,8.6720034,8.9840881,8.1378425,6.1847126,3.5791996,12.369691,12.916762,13.026272,16.050099,19.10976,22.372748,26.365341,21.684151,15.932008,17.762518,17.602048,16.949322,16.274204,25.839134,23.742554,22.575694,22.557872,21.025296,18.979446,16.266441,25.505422,26.115838,27.081936,30.818696,34.803812,28.930611,35.648048,41.991628,45.925218,41.475611,45.680219,49.381963,61.716222,61.634118,63.610834,66.978609,69.499148,70.977251,72.018572,72.748835,72.792449,72.101727,70.495099,68.172549,64.763742,73.839337,73.67989,75.670467,68.817585,74.417378,79.53992,83.732166,77.667575,80.924365,83.867876,95.311825,95.246341,96.980672,99.251046,100.81435,101.54448,101.51021,100.78267,99.592764,96.131354,92.28152,88.776677,84.056485,78.670813,72.062037,64.943186,59.752649,53.695009,51.520401,49.167652,48.753776,48.683323,50.542271,55.117669,61.613051,56.563581,58.338938,59.433818,59.46402,58.501034,57.329989,55.694629,54.285031,51.880603,47.66934,44.22596,39.480478,34.206415,29.471796,23.289663,16.504245,12.361541,11.048483,9.8624479,9.3659191,10.88043,13.435322,16.992834,19.586983,19.919008,21.905069,22.967015,22.937262,22.6915,21.823652,20.043001,18.203748,15.320493,12.855491,8.9629615,4.868511,0.47716998,-4.4546571,1.9664671,0.16145958,-0.464445,1.518183,-1.0960478,-1.9318879,-9.5699755,-9.7196318,-10.975792,-12.795449,-13.920306,-15.327861,-7.9073098,-10.453601,-12.064495,-12.545356,-15.219188,-17.999839,-9.5836189,-9.9395467,-18.930812,-14.33146,-10.866607,-8.1730111,-3.4241346,-10.367864,-6.7437193,-3.9218363,-2.1568599,9.8013466,9.4127391,11.116625,13.502815,14.020099,13.898778,13.067428,10.819194,8.7704788,4.9718854,0.75187008,-4.2362584,2.6955417,0.45904401,-0.69811356,1.2950988,3.0403958,5.6645699,9.2938781,0.059988562,1.3190056,1.516657,-0.40944762,-2.6005858,-5.0780639,-17.37939,-17.753759,-19.936518,-24.063941,-27.910016,-32.572261,-40.2451,-52.939199,-66.254972,-71.830095,-65.258452,-47.237819,-36.885257,-21.646435,0.37128641,13.394511,28.370925,42.248688,44.885221,54.834672,62.005125,66.471604,68.820721,70.980719,71.310279,70.795891,68.540723,65.06427,60.669006,54.447095,48.223418,40.387648,31.171666,21.606843,10.726305,11.887666,3.291783,-13.747443,-16.544792,-21.397434,-26.133741,-29.810794,-44.078706,-47.883052,-44.028206,-52.146974,-58.301481,-62.774033,-69.161781,-75.505867,-82.460874,-89.039875,-97.010946,-104.54687,-112.54031,-120.95908,-129.48204,-138.54363,-158.163,-164.98446,-174.75064,-179.54427,-181.48022,-175.91994,-180.31444,-179.56147,-176.88608,-174.36307,-170.58838,-177.14239,-174.36737,-183.02818,-180.08236,-170.02598,-173.85674,-183.79647,-168.90788,-158.98033,-166.04774,-147.13137,-137.94656,-128.89993,-125.78262,-106.99506,-86.923238,-74.343719,-70.782191,-60.865959,-47.649543,-29.80185,-20.729211,-11.304347,-1.2998428,9.0379413,26.536772,37.637975,47.526947,50.539909,62.022074,77.156289,85.924081,88.49498,91.941648,98.016893,103.22201,110.49054,100.59801,102.90447,101.25878,94.746964,97.440064,91.446563,87.977995,79.94031,75.366837,67.446046,62.421436,62.207937,69.991182,90.692314,112.52735,119.53666,127.92498,143.38995,149.45066,147.98368,155.44949,159.84239,161.93345,165.27549,167.01289,168.25133,169.04763,170.02337,170.07428,169.97336,169.60692,168.91356,167.88985,166.74329,164.96335,162.65238,160.23223,157.22803,153.66516,149.61734,144.99144,139.99318,146.84827,144.17051,144.29462,146.14239,148.84736,152.04134,156.16502,148.84066,150.68834,151.52477,150.07182,148.98512,148.81945,147.91016,135.76244,137.48314,139.80755,141.1072,137.60494,136.35635,134.92466,145.84119,145.93974,149.23231,154.20391,150.34758,146.46118,159.61175,159.75432,160.49592,163.43218,165.26233,166.53763,167.00158,179.39839,177.97586,163.56769,169.3757,191.72762,177.55549,180.44689,196.51544,187.52435,188.59174,190.56497,201.94142,199.92004,194.54934,196.39885,185.75049,193.15178,193.54633,184.07347,195.7166,193.8054,195.81518,198.9005,191.73067,189.28597,186.54148,191.64284,188.93963,179.21791,173.67693,172.16185,171.83873,167.37904,160.83273,150.90086,156.67032,150.19151,145.45892,144.20096,130.22095,136.05387,129.29072,127.86851,124.33149,114.01531,116.67558,115.24095,115.52011,112.40081,106.19957,119.65149,117.87843,113.52044,114.99285,115.22233,114.3582,113.29068,112.54723,110.59205,109.27624,107.77873,95.885701,97.664384,94.712084,91.969536,90.00322,99.635522,94.998495,95.097071,95.721385,94.99994,94.69391,93.854608,92.839354,91.758353,90.5359,89.331025,87.854485,86.397231,84.565687,83.168875,81.375183,79.54776,77.543888,75.049125,73.102188,70.476987,67.572746,54.635265,54.027053,49.092272,57.592493,56.528633,53.604244,50.093401,62.234376,58.297435,58.427842,58.333253,57.620835,56.366137,55.128585,65.450279,65.41065,57.399936,57.659836,56.808486,53.449416,49.892598,35.662339,34.830788,29.67513,28.028876,32.999989,37.512063,32.21427,31.994359,32.22956,30.273354,29.006478,26.146215,23.475145,20.351354,16.188773,12.377216,8.4125171,16.743376,14.769524,16.308241,20.895661,0.26580025,6.8227345,5.1795726,3.1317369,8.0209082,11.0835,10.432925,12.080495,13.671367,14.448313,14.28079,15.526995,15.755245,15.295561,15.349174,13.834301,9.4223469,1.8839263,2.4372343,-0.92905921,-3.9285987,-6.0500068,2.7414038,-3.5963311,-5.3408578,6.1770927,4.5236591,7.4386022,11.754732,15.841974,20.614218,12.212608,16.82675,16.890802,15.742746,14.341777,12.843304,10.806569,7.7982033,4.4339279,0.14306636,-4.2046311,4.0726876,0.84756339,2.4706546,-5.6063614,1.7386379,-8.7095853,-6.2674146,-6.3746004,-7.1808413,-6.4175475,5.1133627,2.982554,4.7452156,7.3636622,8.4643753,10.060885,10.580254,10.522517,10.527662,-1.2168381,1.2980798,-1.4490526,-5.1732211,-7.384282,0.62169774,-6.2778111,-8.1933409,2.7236683,0.62621819,3.1950592,7.0723098,10.819046,14.954975,20.234068,12.457353,15.056275,6.9022299,9.5572493,8.2651974,6.5158427,5.8465927,15.840202,11.282544,11.316801,11.612687,10.057044,7.7993139,5.252238,15.357242,13.789666,16.406962,20.490888,13.551333,16.099894,12.496202,13.593971,13.482194,23.952245,19.65687,20.899412,22.019284,21.42783,20.738051,19.252306,17.517365,14.970199,11.962588,8.5427649,-6.5383207,6.5255495,1.9023588,3.286905,7.0189435,14.410487,8.2224677,11.718869,12.264531,11.013207,10.69014,9.5607756,8.1419184,5.4160656,3.1598106,-0.14964353,-14.509423,-9.943005,-5.6563469,-7.739596,0.45271435,9.6569935,13.299919,8.1848513,14.694461,16.777501,18.13818,19.912787,21.026105,22.219443,23.138353,13.198036,18.2182,16.807132,15.757604,23.165608,23.539147,23.006266,23.62138,23.929664,22.415318,21.216243,18.775023,16.252628,12.609682,7.7464028,5.722587,6.3415577,5.7651466,7.1631195,16.574004,21.562112,25.918021,19.145899,23.791793,24.789262,23.53142,23.080962,20.965755,19.325858,16.515646,2.0033501,15.933905,12.169004,13.695349,28.792433,28.916694,22.192099,28.56712,28.677737,28.376904,28.115849,27.384092,26.22277,24.109516,21.901084,7.5583603,8.5866134,5.66153,12.587773,12.634548,24.320138,25.101394,32.72413,25.968318,31.53482,32.417975,32.147581,31.985577,31.604178,30.319859,29.023061,15.736137,17.554126,12.231261,22.111373,24.495244,31.971284,35.031056,41.229572,33.497103,38.496056,38.59803,37.442538,36.698281,34.84153,32.868881,30.074299,26.083462,12.405132,11.665915,19.076971,14.972324,28.157806,27.250314,32.567633,25.377814,29.900491,28.844864,27.770924,26.757659,24.485466,22.03977,19.021297,4.8011665,5.1221816,-0.99682029,7.2137256,14.737269,13.690452,19.299579,19.430747,15.97922,18.867538,17.555889,16.309479,14.987424,12.522927,9.6493794,6.2390904,-6.5616099,-6.6593898,1.6093544,9.0187603,7.8825277,14.381756,9.8717077,11.320498,12.252924,12.214492,10.629474,10.224235,8.5681334,6.5379992,4.8332378,1.4832061,-1.5894734,9.1618411,6.5863375,10.159279,15.04888,-0.44843807,4.3378637,3.7828462,2.6321791,2.1398816,1.7081751,1.5916544,12.879206,8.2400347,9.599474,9.9289117,22.980638,22.97508,28.649342,34.742608,26.976343,32.289965,32.673263,31.467154,31.167979,18.486002,20.766823,16.185226,12.549483,9.5159972,7.3525743,26.899799,20.989647,26.892968,32.26945,35.190568,29.23992,33.545376,31.941429,31.020672,18.446748,20.689307,16.437645,12.764696,9.7157631,17.923211,10.160695,22.302811,20.426539,23.973417,28.141797,25.37493,10.110327,15.609509,22.034871,13.883187,12.994709,10.496738,7.2236216,-6.6302726,-7.949525,-10.084958,-11.080006,-17.585157,-8.2781902,-11.139215,-20.87919,-13.055969,-14.780835,-17.210246,-17.928122,-19.963826,-22.086582,-25.781315,-37.374642,-35.379453,-31.520614,-39.147858,-40.554459,-29.885374,-41.365881,-31.406398,-18.531978,-31.125794,-27.554628,-31.232322,-17.700806,-22.529436,-20.43936,-29.200526,-12.822899,-18.894517,-16.961155,-26.341844,-8.8063091,-2.2715513,0.84750615,-1.6824424,-1.9570663,15.083471,12.004434,17.730851,20.740894,24.061684,16.079806,24.551095,33.832656,30.947652,34.977005,36.253595,29.090254,30.739353,41.069928,34.740562,35.624778,34.530021,35.223885,45.727742,47.807213,51.850294,50.406286,58.464011,71.894144,60.563274,68.22836,59.483438,75.403836,69.368044,60.102183,76.639903,68.957091,69.030768,57.196183,70.64195,60.708759,51.486682,67.031873,65.44184,66.55569,65.824707,75.741625,63.278594,72.696962,69.2254,68.154358,68.120303,54.495945,67.447973,58.309343,56.444034,44.222257,60.950127,62.30212,62.484146,57.322246,78.679922,62.905156,69.152275,58.018329,73.202394,65.453791,65.695309,53.230513,81.724219,73.266626,65.708566,60.099939,61.246307,68.41517,60.250769,72.676597,73.356819,72.303004,69.871405,72.351074,70.915347,69.869473,83.843676,71.17763,69.18893,72.341995,74.930235,79.694811,77.434599,80.647108,92.468192,91.557833,85.478976,89.645923,88.105163,83.97209,87.243455,95.875891,83.748577,86.860969,89.752991,97.02191,82.973389,75.916309,88.96299,91.858168,77.342233,80.952716,65.735411,81.441939,72.84988,69.832944,68.212568,78.436903,64.624529,70.560522,66.167779,51.948839,62.258171,56.71625,57.62348,55.814148,51.724949,56.34511,50.400014,41.845925,49.61168,56.06545,46.152133,48.480871,47.026329,34.230286,49.436314,46.822639,40.862497,42.380366,49.321443,36.745421,42.715885,42.202369,39.391728,41.573769,41.737449,39.051245,52.181239,26.131117,47.045603,37.487152,51.324895,36.237613,30.65942,53.656908,41.38259,29.564239,47.847353,43.638777,38.837504,43.820841,43.469203,42.920165,42.824946,32.23254,49.199038,41.155407,41.31574,37.085614,42.704359,51.853461,40.234341,44.832038,46.426659,47.491803,45.036816,45.002356,45.908922,47.054659,43.915306,42.90773,43.345613,42.914616,39.588771,37.879238,37.504312,49.788347,36.10323,41.737813,40.743105,27.972847,33.700827,40.620465,33.834348,35.728106,34.723242,21.129213,51.07879,41.101106,49.519912,39.104335,47.126484,51.544406,49.342713,51.410897,40.044194,51.038926,51.294782,48.490654,45.958734,55.639564,56.061292,53.922446,56.635906,46.846778,48.36188,57.069669,63.098867,49.586377,45.060383,58.622706,48.305115,62.946175,49.329783,56.555678,52.595462,51.316574,37.180754,65.436534,39.282671,45.155325,43.793113,46.314394,37.645548,48.360633,36.522332,42.472154,37.988008,36.358186,40.704776,34.827377,44.461936,34.2887,36.510903,22.43789,49.155355,40.042068,32.344742,37.051633,23.331029,27.80247,46.879721,29.386009,33.402599,34.276997,45.115691,18.89008,30.346724,36.69826,42.623293,30.029521,36.530087,34.503967,22.118158,39.600921,32.404146,32.17218,46.658298,30.533629,37.105843,23.28576,43.693251,33.305483,33.787851,33.812331,42.944625,30.473771,28.201454,40.558661,37.133946,46.863322,34.176073,40.059494,37.610205,38.874325,28.018288,42.360275,33.041416,48.616397,32.187931,38.161535,23.683279,41.331488,32.922973,32.71901,31.627291,43.317333,30.097124,32.13975,18.569849,20.654099,41.394491,31.657685,25.399485,29.6639,26.642889,12.723607,30.348305,21.613843,20.175043,19.50848,30.862718,21.243456,18.426135,7.3246309,8.7783581,28.278248,12.155208,11.890769,12.264863,17.413963,8.3469314,2.8517828,14.150398,5.1699236,17.131918,17.089473,-4.6522947,15.779314,6.9725365,20.240866,4.4108192,-1.0838785,10.818677,16.908708,2.6173801,-2.7085117,6.1079432,17.020081,-0.64415639,4.4567891,-6.6814259,18.252005,-1.75692,4.5226421,2.4624618,14.233053,-6.7115672,3.9732392,4.3880617,3.1189113,14.392409,-11.89219,-0.31182827,5.4931202,12.002224,-0.79543627,6.0433563,3.4886309,-8.8624672,20.725057,7.6603661,4.6828972,-3.1699924,12.235073,1.6595162,3.3201014,15.343898,1.5717368,10.643935,6.2291703,7.4121353,-6.4883885,8.5064781,13.303868,13.600826,-4.7416272,8.3382434,9.3214734,4.7109622,0.090544625,9.6611289,17.287515,5.7805313,11.985958,-0.99292231,15.289615,18.732463,20.506704,0.4172275,24.768093,12.443774,14.465918,12.369884,10.213935,10.841263,13.818194,1.4909934,17.531767,8.7182672,10.872479,10.231986,23.36269,21.822802,14.890103,19.741244,18.361501,17.5165,16.578024,3.7444036,22.431536,17.726357,9.0367951,14.745917,24.636466,18.40184,21.661804,35.165466,34.52357,27.290081,33.595814,30.638638,29.501613,27.612651,24.772939,36.0328,29.452151,12.968815,19.764548,12.383673,8.4101708,17.388043,20.738299,19.921137,10.404201,14.074819,8.7971018,5.6353938,15.554478,-2.0680503,-0.6174324,-6.2426079,-21.679001,-8.9777761,-29.705581,-29.550471,-36.769342,-16.020712,-36.534531,-34.704643,-37.738733,-39.098666,-32.45299,-46.470614,-46.877387,-51.112014,-56.793065,-69.456502,-60.860383,-74.58785,-80.623095,-71.261976,-83.695176,-69.39435,-74.166182,-83.783523,-80.18317,-84.416475,-87.886632,-90.875732,-91.359858,-104.2287,-101.77222,-99.147334,-87.14193,-104.86082,-96.379208,-100.34264,-101.14104,-88.518473,-105.91239,-98.295704,-113.61274,-93.292083,-103.5253,-100.037,-100.75428,-96.378356,-98.407266,-93.707038,-96.013876,-89.796305,-91.581874,-86.441664,-88.575423,-98.103639,-66.706978,-92.020903,-79.652912,-94.754066,-62.630153,-90.061588,-77.997814,-94.083686,-78.508641,-88.18569,-73.327975,-86.18635,-69.682915,-76.601215,-72.539792,-83.2726,-64.800415,-74.424715,-70.591608,-82.744461,-64.660241,-75.247743,-84.411339,-68.555689,-65.431748,-63.596554,-65.887877,-46.896628,-58.966337,-45.877694,-46.987704,-47.664767,-38.905022,-52.657022,-31.746091,-40.65549,-44.381356,-39.898092,-37.237046,-36.00317,-37.55932,-32.697165,-33.638467,-22.983799,-17.14262,-11.405375,-25.09666,-14.904157,-8.9944936,-12.225769,-11.855611,-7.8536728,-22.034159,-6.5943779,-15.645443,-13.139585,-20.036865,-1.9649756,-19.082114,5.2528473,-1.4005938,9.7220123,-11.683587,14.314669,-9.6476897,13.546494,2.2948188,-3.7255497,10.074078,0.77314581,0.23271199,-6.9825457,9.2035397,0.69780783,12.983882,12.518367,2.8889871,1.5593806,12.018525,4.1360863,3.0608776,-0.26355927,-8.4025082,2.5143022,-8.4865221,5.8355803,-1.7650486,1.4652242,4.8984271,0.91230554,2.4385453,-6.3025386,2.5929378,-2.5991101,-2.071973,-4.1017061,-12.744757,8.3972385,-3.7965154,0.31341961,-3.7484896,-5.4925444,-3.6479332,8.1933108,-5.9587727,1.0389576,-4.2487483,10.978505,-5.4587661,3.3736526,13.372445,-6.5839479,4.3338118,0.15394987,16.081178,-2.6642713,0.97820362,2.1677847,14.077296,0.85488938,4.5790642,3.5851642,14.463019,-4.0037667,-0.10226118,10.149218,16.283412,3.8125394,12.468606,9.372863,23.970594,-2.4598015,22.851679,22.747065,14.439303,21.263663,15.155545,19.658254,18.799684,32.347763,16.29255,21.205097,22.436315,17.211885,34.309382,14.114751,18.753567,25.330996,23.204415,23.578732,20.019225,17.923104,14.332131,25.511633,18.237568,15.941751,12.475106,17.379435,17.307871,11.399061,13.020394,9.0236864,3.405349,17.675838,3.6509397,9.4871635,1.2075265,5.2949558,-3.1637772,14.663961,-5.2639073,0.48505021,-5.9104524,7.9720895,-7.6364479,14.169036,-9.1931238,-1.2255273,8.0768846,-4.4611602,1.8932923,-1.8359612,3.0420311,-5.3830212,7.0574329,-2.6719241,-0.23910872,-2.5217585,9.2346978,-3.5051813,2.4558028,-10.599126,9.8422156,6.882351,-0.60034409,-5.9785913,-1.0415031,11.603382,11.110928,6.9197583,0.23825888,18.484213,18.738965,5.6449629,13.842467,19.898546,18.612321,21.082688,16.660408,25.520811,23.371238,31.458142,20.451115,38.32893,30.794989,42.105647,38.548885,43.862582,42.246013,45.208471,44.461063,42.52647,42.308339,39.951037,38.772099,35.005713,30.982357,30.473649,22.627291,22.59102,14.727726,11.474839,1.6163689,-3.1510655,7.2260849,1.3855906,-10.936894,-10.53955,-18.852977,-19.071758,-23.86927,-28.536951,-21.791081,-42.054322,-31.592916,-41.382987,-43.775845,-47.193496,-41.22962,-54.934348,-47.759656,-55.21261,-54.562392,-55.763323,-56.884647,-56.602722,-58.46001,-57.566727,-57.212421,-54.826867,-55.093854,-53.575889,-52.052273,-50.22266,-45.867908,-45.633059,-42.613203,-39.692811,-37.005621,-31.588035,-30.397554,-26.400447,-22.607712,-19.181792,-13.851977,-9.8505549,-7.1320313,-2.0752776,2.5960557,7.8363755,12.767742,15.48723,20.248831,25.604576,30.563116,33.93467,37.990898,41.553685,45.597532,49.667307,52.842624,55.27323,57.19861,60.981201,63.17853,64.14535,65.802843,65.689027,65.775249,66.068071,65.0775,64.045874,74.509095,54.842222,63.085749,58.153876,71.065576,63.782787,52.013011,56.385378,51.588636,63.055667,40.558193,42.907219,49.502494,46.920441,38.362247,35.757935,39.263025,38.1699,42.02055,38.087598,32.353612,46.1216,42.615568,43.899953,42.24287,42.245594,43.494583,43.852019,44.280699,43.086146,42.410006,43.499992,43.204073,43.931142,43.884167,43.126703,44.539498,44.623175,45.353044,45.599391,44.771966,45.196824,46.980051,46.675188,47.780258,46.668375,46.538397,49.179495,48.109704,49.405164,48.555161,48.190923,50.410956,50.550039,50.265917,50.051391,51.032103,50.660582,52.981463,51.595233,51.32634,52.988308,52.166807,53.997946,52.189253,53.043807,52.865749,54.548152,54.546292,55.12083,54.461036,54.511675,55.870533,55.061561,56.00349,55.073851,54.434545,56.482551,54.999926,56.003436,54.862495,55.06627,54.400026,55.900456,54.112947,54.39208,53.625101,53.568907,53.131011,52.60867,51.879685,52.834329,50.641562,51.850522,50.909863,50.684753,48.467608,50.699972,50.380044,49.956634,49.217288,49.865357,49.163024,50.296483,50.69707,49.127085,49.6876,49.50135,49.637811,50.827383,48.905134,49.918824,48.824723,50.210404,50.443346,49.24063,48.862069,49.832266,49.714551,49.470319,49.622218,49.102969,50.428555,49.749822,50.422562,50.334429,48.572158,50.914987,50.208136,51.431612,50.210011,50.824457,50.567668,51.664317,52.653801,51.071081,50.982846,51.70136,51.586421,51.439888,50.905867,50.180987,49.918637,50.434469,50.835442,49.514829,48.56621,48.343464,48.490952,48.520037,46.12284,45.43016,47.134491,46.619789,33.178897,36.506538,43.733473,39.522296,43.959195,41.265239,40.551502,40.718732,44.0073,34.334401,38.254515,33.826743,34.038095,47.813526,43.338907,47.919301,45.242756,48.736278,49.425927,43.029764,46.03808,47.583096,49.691916,50.794692,52.649772,52.218504,49.320933,36.811993,45.503252,52.303953,44.5177,44.879364,42.300415,41.673868,38.065691,37.152224,33.480801,29.728448,25.368429,23.213784,18.010159,12.061293,11.113678,4.1821012,0.85715187,-2.0288169,-7.8660545,-11.572846,-16.964845,-24.913631,-20.259223,-29.22086,-32.488935,-34.880191,-39.456407,-41.646726,-44.117701,-48.713278,-52.454787,-51.904126,-56.799543,-56.629359,-60.618848,-63.169265,-63.509051,-64.431993,-66.050817,-66.822808,-69.305762,-66.795901,-67.671006,-67.683945,-66.606164,-67.14181,-65.29842,-63.343586,-61.901761,-60.804487,-59.552414,-56.42568,-53.481697,-50.553744,-48.253226,-45.601433,-42.371431,-37.999378,-35.344246,-32.513267,-27.91858,-24.758812,-20.59704,-16.391563,-13.987797,-8.607537,-7.6969177,-1.385085,0.16810884,4.6822275,5.4704809,9.3154121,12.476079,13.943832,16.067628,16.215337,17.938238,19.815944,18.428901,19.778077,17.989357,14.411344,13.532572,27.739819,24.895176,17.154255,19.457124,15.8718,15.932875,14.748703,11.502943,7.32191,16.193049,13.817398,21.146449,23.998461,11.476045,18.340309,14.679359,17.126148,14.388572,10.73575,21.485335,20.308326,22.377907,19.630393,19.195307,18.466203,18.659504,20.756289,33.760584,29.469654,22.831509,31.635329,29.992183,30.947413,29.738956,32.54539,33.651417,32.994723,33.040126,33.890714,36.569276,33.312349,40.003893,32.321655,36.774783,35.463663,37.242754,36.564209,35.346761,36.347733,42.052553,35.134876,40.189388,37.361541,39.358569,40.920942,39.137984,40.818829,38.905597,42.241248,40.760194,41.587929,42.409244,39.787748,40.805555,40.729858,41.132149,40.339347,41.125458,40.578372,41.511183,37.546365,46.699784,42.168928,47.179743,49.678227,41.0277,50.450535,51.043963,51.768929,57.101114,58.685161,47.355457,65.22357,57.233928,66.307206,66.041018,67.081206,67.324604,68.121459,71.200781,62.16832,67.485805,71.493523,66.080382,72.459081,60.721197,79.204718,63.376,71.840039,70.408093,71.587354,69.873417,55.814898,72.974675,59.624184,56.460321,67.414845,46.182246,62.07275,52.023197,49.295821,44.340551,46.429202,43.238326,38.839366,40.926766,34.883337,35.621037,29.927758,27.334258,26.797212,22.449092,19.89432,14.633779,12.892585,10.101667,6.7014487,3.2936466,-1.1359209,-2.9555425,-6.3456169,-7.8782113,-12.767313,-14.975879,-16.919987,-21.690629,-26.873788,-24.846386,-29.027872,-28.461646,-29.896325,-41.277044,-26.298261,-40.153222,-30.752478,-42.606468,-37.663458,-29.997943,-37.617442,-30.996617,-43.520103,-18.573352,-36.083111,-36.961952,-17.885275,-25.757926,-28.325727,-13.634951,-32.676949,-7.4108298,-22.238818,-8.8995297,-9.566804,-8.6614782,-5.3371394,-11.23636,-5.8515032,0.9414891,-5.6288775,-0.97091791,-4.8494111,-0.64674118,-4.9443151,-3.2845666,-8.2414933,-4.0290263,-6.9552717,-6.2693102,-9.0570192,-7.564747,-11.559811,-0.087718264,-14.265595,-11.308074,-15.93824,-18.154261,-7.8818374,-16.417062,-18.899491,-17.466082,-21.090754,-22.230425,-9.3630506,-27.578983,-17.216395,-24.10758,-23.03654,-36.538607,-31.616977,-38.692748,-38.292251,-28.350615,-31.69601,-36.463981,-30.312078,-30.736253,-15.816543,-31.066247,-17.873687,-22.016713,-17.963071,-18.670665,-17.284248,-4.142303,-19.5078,-5.6140809,0.37767788,-12.445088,7.0646479,3.0701073,6.4414176,14.341776,16.913157,13.580452,11.994181,18.285288,11.856007,13.645166,4.9146483,4.8833035,1.7027003,-2.7557959,-6.511202,-15.1035,-19.14537,-24.030371,-29.340097,-35.879978,-44.467403,-51.080843,-57.32989,-62.848511,-81.918532,-86.302134,-87.437556,-99.964745,-100.19622,-104.03861,-128.46446,-124.4014,-138.33899,-140.94332,-124.24513,-165.68091,-145.35186,-151.38248,-151.88915,-154.04956,-152.72403,-167.98731,-148.3731,-153.64773,-170.42659,-146.97265,-161.05932,-151.32456,-162.95514,-143.92536,-154.42961,-133.4522,-150.41309,-128.69968,-134.89567,-132.32126,-128.32553,-127.40777,-118.10668,-113.8723,-118.64514,-107.02314,-110.15482,-103.27891,-99.831584,-97.178954,-93.57342,-85.54251,-82.070472,-75.349234,-72.493452,-68.98097,-65.050985,-56.790018,-58.239737,-51.152722,-49.14755,-44.631585,-42.170305,-39.671046,-37.17763,-35.318348,-31.684873,-34.050398,-31.662157,-32.28892,-29.648393,-35.438,-37.778738,-43.233535,-31.742316,-37.801208,-35.194997,-39.490292,-38.09154,-37.666592,-34.820449,-37.407461,-37.77911,-38.013678,-35.715528,-32.469521,-33.066634,-32.473991,-30.186934,-26.138775,-21.097674,-17.508901,-14.942604,-8.9371206,-1.0356733,9.5119186,1.6567661,12.230493,10.895507,18.547214,21.356374,26.374963,27.120812,27.944613,33.833231,37.595835,39.777697,40.495121,45.360911,44.785616,48.044075,47.50586,42.518516,46.414382,36.871401,49.923108,39.646891,39.915708,34.827208,41.794031,47.891104,31.659654,37.643864,30.027947,28.408642,40.860725,33.029789,36.606815,37.08312,25.596737,46.524623,38.627014,29.099958,37.544627,42.816467,28.655406,53.754254,26.799176,43.210874,44.44586,34.099031,59.274436,30.655118,57.092448,45.847599,45.180927,54.580752,46.50933,47.891257,46.487138,48.609464,47.328242,43.520771,43.74739,42.917827,41.231446,40.238924,37.470119,36.844828,35.751685,36.512823,36.572912,34.450213,31.054819,32.707628,30.962218,29.338702,28.382668,26.260317,24.694133,23.200173,21.162686,19.418181,18.179918,16.451231,15.392442,15.110748,10.710294,12.280631,7.414864,5.7201724,8.476045,4.9186269,7.4019269,4.9786817,2.3842523,8.4466666,2.3072468,8.9020926,-2.0623175,13.742679,-0.88442411,13.883029,3.5545875,8.9916245,7.3870015,14.717507,14.558824,13.416937,18.429479,17.906134,26.2171,25.732703,33.016775,35.9496,38.797196,37.834628,41.199471,44.638273,47.383851,47.26821,46.956347,46.783972,47.35997,51.544663,47.777032,46.124435,44.533365,44.787047,39.344228,38.793622,33.160103,30.382177,31.923115,27.444255,22.837368,25.453886,16.425772,20.791076,7.5948214,17.346916,9.053548,13.296571,7.0106756,4.1251854,11.027914,-2.7116626,6.8772229,0.38753875,-0.95911118,-1.5906446,-1.9560448,-9.5115652,4.4727325,-7.9071105,-1.445084,-6.497004,4.4570448,-13.8486,5.1209375,-7.6409239,0.4230623,-2.1240751,2.3796146,-4.0465404,0.015348807,4.8137301,1.5597704,4.0820565,4.4221394,-1.4247946,9.8882211,-1.6978355,5.1078969,-1.5246492,-3.0267604,-1.5994656,-3.4967972,-4.1660008,-9.6077731,-9.9680668,-12.124213,-9.5847293,-14.884478,-20.466461,-18.673463,-22.565628,-28.681264,-17.532242,-40.462316,-28.674392,-40.009035,-40.087513,-34.044279,-55.098306,-44.740982,-57.080098,-45.268573,-60.690713,-61.103927,-58.157253,-61.633517,-71.27554,-70.769545,-77.096421,-77.986428,-79.714157,-93.019103,-92.081301,-100.70245,-92.915396,-112.4459,-105.47215,-121.46414,-113.89964,-117.88899,-117.45684,-125.49768,-127.72271,-122.33908,-124.06609,-120.19632,-126.20143,-124.43596,-124.61101,-124.86237,-123.57588,-121.80478,-118.58562,-122.47556,-117.26174,-117.1823,-111.43283,-111.03419,-110.3315,-109.23695,-105.65392,-100.62204,-99.993479,-98.705442,-97.415055,-94.669539,-90.858153,-88.060164,-88.116051,-88.027333,-70.644554,-85.640911,-68.698022,-79.38549,-60.923201,-63.042949,-60.418943,-58.449005,-52.873865,-45.762368,-49.305879,-33.641342,-38.68302,-32.391993,-23.033915,-18.88173,-12.665937,0.030687118,-9.5556291,16.124759,11.665846,28.001638,21.176616,46.048279,37.898899,57.991249,58.730562,67.310035,69.981375,81.829084,88.999925,93.474443,96.371362,101.08171,103.24191,116.58106,106.68182,118.67715,112.56413,117.96335,122.718,120.00575,120.84891,116.93941,124.1785,124.64325,126.05272,120.27219,122.79167,131.85171,127.5426,128.14538,143.01034,122.98024,144.91921,132.79942,147.12784,150.67867,143.09073,159.29705,153.18098,163.93114,151.60605,175.8918,158.47361,173.71014,166.82814,176.27799,171.08597,182.71892,171.33338,180.82656,184.89742,182.98452,178.49602,179.11869,177.98238,181.156,179.07568,170.96405,171.05949,166.07564,165.54164,163.22712,153.50069,150.78557,145.62334,141.63882,141.24983,126.8845,124.99501,117.17728,113.95334,102.26278,103.02465,89.495874,86.898986,75.94969,73.027847,63.163745,55.729962,49.302071,40.55715,34.031471,26.892031,19.126657,11.4857,6.7174739,-2.3436952,-13.426572,-14.025903,-24.402667,-28.827096,-33.898753,-39.114938,-46.207261,-50.451886,-54.870453,-57.646391,-60.589047,-66.111624,-66.911953,-65.7686,-74.076501,-67.426329,-71.466946,-69.625445,-74.430092,-70.012655,-71.090756,-67.379708,-73.518625,-61.630135,-70.924515,-61.39824,-61.633664,-62.568009,-53.955787,-60.363558,-51.622924,-53.124946,-46.008154,-53.567709,-44.13281,-48.41905,-41.655685,-40.339273,-41.77896,-42.363798,-39.322232,-38.522591,-35.103068,-40.92394,-34.997634,-35.981265,-34.609729,-35.341563,-31.464228,-29.533784,-26.721847,-25.30397,-29.298394,-17.904795,-27.069018,-19.275988,-20.37839,-16.608209,-17.37506,-21.083112,-20.112053,-11.226347,-17.065579,-5.8611885,-6.8388157,-18.273118,9.1667484,-12.064967,8.2150945,3.9287626,14.441396,5.512467,21.947052,15.036796,18.996546,16.441792,22.742897,20.42695,24.037574,21.213845,20.924893,26.818051,20.212454,26.514032,21.838962,20.792352,22.720823,18.835903,20.015924,18.356891,5.5143596,20.549615,6.6899448,12.715352,4.5285663,5.0483715,7.4932493,-0.55075194,3.4400206,-2.8017462,0.68969895,-6.7558646,-3.4840408,-9.0038849,-8.6708045,-11.935708,-19.560268,-13.638714,-20.576396,-21.859411,-24.958152,-24.751077,-25.001781,-29.358089,-23.910104,-34.277813,-35.701257,-29.548354,-37.422343,-35.549004,-35.860548,-44.957777,-33.255885,-35.923495,-47.175428,-34.519245,-44.829519,-43.760219,-48.061475,-42.781652,-47.6948,-49.891028,-49.3385,-46.482768,-52.470158,-51.57177,-46.467443,-55.221019,-46.046762,-57.350301,-47.444646,-58.577919,-48.971363,-59.345553,-45.229692,-61.852526,-43.482305,-57.990205,-53.727789,-54.880227,-52.948978,-56.905652,-56.650373,-62.368234,-56.619879,-60.910184,-60.353801,-65.50754,-60.240883,-66.053632,-65.640726,-67.41231,-73.874765,-63.174928,-75.62492,-74.209217,-72.576906,-78.53612,-75.951509,-78.399777,-77.78141,-72.084637,-86.616536,-71.325309,-83.362151,-77.143109,-71.276735,-82.202249,-70.738149,-76.606501,-71.897108,-74.977974,-74.118819,-76.570827,-71.833675,-76.888227,-73.789854,-74.644254,-70.779274,-73.020221,-73.580596,-76.300175,-77.344391,-73.341131,-77.61755,-80.192931,-83.217745,-84.07466,-83.466124,-86.985282,-91.354461,-87.141401,-97.741347,-89.79072,-96.385127,-94.725956,-95.239842,-103.3991,-93.551685,-100.70835,-95.500928,-106.68705,-98.369818,-101.66396,-97.703259,-101.43282,-101.05115,-93.546582,-97.301451,-89.777405,-92.01658,-90.422712,-81.031904,-84.201655,-73.78332,-79.45429,-72.333319,-64.862985,-67.250112,-55.361115,-54.863125,-54.295304,-40.425238,-44.000395,-38.923955,-27.626355,-33.430352,-22.292795,-19.672445,-12.129001,-8.5715577,-6.1631151,5.7718315,5.3170448,16.826694,16.100288,28.578993,22.385466,37.38246,37.355516,45.226624,45.330685,56.866438,56.125645,65.8404,64.691575,75.653356,67.860864,82.410192,81.035161,85.203695,84.950667,88.065907,91.582725,94.336248,97.045675,92.438238,96.047956,100.64652,98.828723,101.8754,99.517171,99.855576,104.07101,99.164704,103.66702,102.33337,96.516812,103.08761,100.29888,100.35713,102.0588,93.839791,104.78404,96.749753,103.19199,100.97631,97.355606,102.455,102.36755,105.14484,100.09696,103.27606,104.12227,108.2698,108.57254,107.82744,109.65419,108.57736,107.73309,110.97711,107.87996,117.88183,112.28433,114.88669,115.23982,116.3806,123.34721,119.13834,121.51141,123.71138,125.32291,123.46157,131.72286,125.30741,128.74654,126.68895,133.92169,126.92985,129.42281,127.90721,130.27953,129.67472,123.26477,128.5067,122.04141,122.59489,126.03482,119.06548,115.92657,115.28057,110.7649,115.19175,100.02549,107.45525,94.918068,100.92288,91.801812,86.264953,87.275264,75.72915,76.407412,73.786839,67.832829,60.155135,58.56968,52.941667,53.665549,45.124459,38.679571,37.097037,30.339442,30.337386,17.980268,20.503734,10.340389,10.445335,6.7096267,-2.7263178,1.2052085,-11.022003,-8.6224193,-9.9433641,-15.941916,-21.506068,-21.392784,-27.25733,-23.566754,-30.301665,-34.953255,-34.58399,-37.255666,-40.834292,-35.048709,-47.77596,-38.863752,-47.02178,-44.167438,-41.003814,-48.570599,-44.234321,-41.190162,-46.091224,-39.421183,-44.700748,-43.70855,-42.905907,-43.019782,-36.43746,-45.580463,-36.470377,-38.784979,-33.912915,-38.47791,-28.991439,-36.14969,-28.477262,-29.81485,-29.54773,-22.964548,-30.874986,-23.322216,-23.503431,-22.742062,-24.656467,-24.982121,-24.592983,-27.548591,-21.422087,-27.395094,-23.202504,-25.489423,-21.768247,-23.904942,-25.281409,-23.411564,-22.828826,-21.826238,-21.428705,-23.193323,-20.854848,-21.909171,-23.589809,-12.356642,-31.795712,-13.506091,-25.497191,-13.949221,-29.825184,-11.899754,-26.950676,-16.18043,-25.941958,-17.263385,-21.416129,-21.713549,-21.50212,-18.413772,-29.889151,-16.846702,-25.456745,-22.531669,-21.163793,-32.423555,-14.448843,-32.298991,-19.215303,-30.659388,-23.183171,-28.700975,-27.703187,-26.014072,-26.223883,-28.422323,-33.061428,-22.322058,-33.085672,-24.511558,-32.083535,-29.591926,-31.941339,-24.74027,-34.298163,-28.341437,-28.684972,-30.271358,-34.244546,-30.48475,-35.354903,-28.202912,-37.475412,-34.208191,-35.066982,-39.689315,-38.358411,-40.50187,-41.263971,-40.642783,-44.061206,-44.069404,-42.804497,-47.654136,-44.814535,-40.23417,-50.622981,-36.596895,-53.158814,-38.00725,-42.853406,-45.635551,-41.491192,-38.853066,-51.288016,-36.209441,-49.877626,-40.426751,-48.944659,-36.838554,-44.433019,-44.436021,-42.373393,-37.715959,-41.757257,-39.864586,-35.877388,-40.672008,-32.578317,-37.027159,-34.130003,-31.565545,-36.332043,-27.163852,-31.269637,-31.620874,-30.856051,-28.952491,-26.993797,-27.541846,-23.643033,-30.325079,-23.006863,-23.857878,-21.3646,-19.175741,-25.156267,-17.379579,-18.10301,-15.377579,-13.621509,-19.020154,-11.064369,-12.039525,-9.6898976,-6.8998893,-12.739108,-0.28080465,-9.3163796,1.7923564,-5.5117077,4.8142645,-6.0451014,8.5551667,1.5145952,9.5089611,0.5630135,10.537186,6.3706816,12.067493,8.3554299,15.661183,5.3722674,16.102622,11.858195,13.042933,16.50118,10.435872,17.921298,15.348814,17.316369,13.560532,21.712954,16.836751,23.060787,20.339652,20.867932,26.693099,22.289933,31.042879,21.156321,32.136432,26.079173,37.249119,25.670071,39.734911,26.578203,37.339623,29.037104,40.869589,30.178772,37.54608,31.25334,33.682281,31.281287,37.649726,28.344584,33.286709,33.533994,34.031908,31.09187,31.900855,28.749251,29.905093,34.102094,26.61553,30.859268,26.348156,26.997781,31.835146,24.053931,28.261991,23.642823,28.597744,20.345199,29.443094,18.420919,23.514265,17.850569,26.522641,13.007618,20.811772,13.476868,22.347965,4.3915285,21.372492,6.3261751,15.55789,6.7680165,12.065475,3.6011252,11.128241,3.9399137,5.1871427,5.5756018,3.0565315,3.2558299,2.3404671,-0.29086628,1.594957,-1.1340311,-0.59416834,-2.2446555,-2.4408152,-8.491815,-0.58275937,-8.4914736,-4.8669253,-7.6636121,-6.7121186,-14.112549,-4.1850942,-12.844273,-9.7204935,-9.952111,-14.964408,-6.8503705,-14.134349,-8.7187169,-12.312268,-15.437667,-7.624245,-14.528386,-8.9843831,-12.56755,-10.093604,-11.686904,-11.492997,-11.491237,-11.268094,-12.45572,-11.886054,-13.355759,-12.655276,-14.12068,-14.454953,-16.887035,-14.046603,-17.305899,-20.96469,-13.614195,-20.939124,-16.287893,-19.577337,-18.358525,-19.63389,-22.505766,-18.756718,-22.196044,-21.229724,-22.385542,-17.988472,-23.418976,-19.454694,-21.715109,-21.10492,-21.267448,-20.403725,-22.990277,-20.991987,-22.151641,-19.358737,-23.33884,-20.688224,-22.583741,-14.973323,-24.746518,-16.861234,-22.02833,-19.255183,-21.600426,-17.371199,-22.898404,-18.631898,-18.748123,-26.243617,-9.4862303,-24.66686,-12.470317,-19.886312,-13.371614,-14.146475,-15.222191,-13.102054,-13.991667,-12.838872,-13.588477,-13.158045,-13.650143,-12.908683,-14.539502,-13.711275,-14.781348,-14.946787,-15.561437,-8.3421265,-18.7308,-9.73944,-16.956553,-10.779642,-16.280078,-12.476326,-13.441566,-13.30008,-9.8799674,-13.152698,-10.260006,-11.123292,-10.835036,-8.48038,-10.857742,-9.0512506,-10.512976,-9.5039098,-10.537067,-3.4965926,-12.508135,-5.5950795,-9.5406867,-7.3953617,-9.0012212,-1.5283126,-10.992737,-3.126596,-7.2657095,-3.9969957,-5.6611045,-1.6469774,-3.1833112,-0.99430343,-0.97236436,6.9036348,-1.2439777,7.8113021,3.190248,7.9897187,6.4016746,6.1070493,10.27294,7.7799278,9.9653408,4.0619114,14.719266,5.9742929,12.751032,4.0869739,16.450133,9.1797727,13.597905,11.38396,20.139159,10.046979,17.543089,14.713281,16.236018,16.087458,10.733432,24.511797,11.139485,21.55532,15.72861,19.691339,20.554024,18.41615,19.522247,20.485319,14.495097,24.288061,16.686984,23.026751,19.320691,22.392876,20.568142,21.473193,20.981295,20.709851,20.937711,19.537083,20.044965,19.305325,19.247045,18.734875,18.271496,18.444533,17.972551,17.682132,25.151167,15.168406,23.756671,18.265774,17.818606,23.72961,18.473308,23.130188,20.859047,23.268554,22.580676,24.05451,23.699958,24.418716,24.417813,24.887081,24.593264,25.470231,25.094774,25.64811,26.042203,25.963627,26.53763,27.155608,27.012391,28.510548,33.50339,27.583954,34.65186,30.927004,34.315368,33.555648,35.342859,35.037896,36.83944,36.870546,38.492109,38.818648,39.528778,40.401367,41.062082,41.182717,42.281554,41.883906,43.235197,42.823111,44.286314,43.719017,45.087531,46.869002,44.875421,53.591351,43.455797,52.264118,44.832581,46.641166,45.911507,55.254917,38.002305,52.741204,43.162229,49.036429,55.025575,43.137046,54.978866,47.987545,61.846677,61.040255,51.79012,63.78989,62.797336,60.790524,65.325787,63.255484,66.285344,65.575605,80.335017,71.837222,66.786423,74.172053,67.174266,77.341832,63.856037,73.369407,65.42857,68.601606,64.759091,64.5852,61.832948,74.729531,60.356319,63.522734,55.417492,56.54616,50.12129,48.835719,43.235305,40.963286,36.028346,32.818519,28.11369,24.284786,32.783608,17.831764,10.6215,10.459593,0.074639544,-2.7400345,-10.336763,-14.643604,-21.410414,-25.988614,-32.006408,-37.420094,-42.222513,-41.913184,-54.180382,-39.254909,-70.81074,-52.890477,-73.533086,-67.202568,-79.160656,-78.436159,-85.911866,-87.241831,-79.765939,-103.82724,-89.15303,-105.27108,-98.950187,-108.70428,-104.05171,-100.55645,-119.34175,-105.80913,-119.28685,-113.50612,-120.16882,-117.78061,-120.64517,-106.85768,-130.41836,-111.0131,-124.90869,-114.83127,-121.40262,-114.0564,-120.49121,-104.16832,-123.99444,-105.72844,-114.96566,-103.55878,-109.34324,-103.32457,-105.76172,-103.07848,-104.82311,-104.29351,-105.84198,-106.50917,-108.30414,-110.55539,-111.20058,-111.85463,-114.77969,-107.06517,-126.0789,-102.71601,-120.08136,-111.54773,-109.2194,-117.28633,-103.01884,-110.45547,-101.27943,-103.6615,-112.38865,-91.249473,-104.43843,-90.579342,-94.434465,-85.798129,-84.435708,-77.727471,-74.070052,-84.122623,-74.520003,-67.079831,-69.547263,-60.814782,-59.571414,-51.798448,-50.301673,-42.18891,-38.61474,-31.346971,-26.408692,-19.053063,-31.221003,-19.390049,-13.041215,-9.2332191,-0.88051786,1.5476726,7.0193554,12.747215,18.797312,33.315291,24.774162,46.15537,40.821974,42.73629,50.874382,60.670208,55.271824,73.508903,63.880872,81.810965,74.792974,84.183706,82.388473,95.538109,90.489458,100.69845,99.834142,105.51487,87.109159,116.81054,93.305323,111.60568,99.952795,107.84679,102.59974,106.09866,102.14703,88.895754,102.7003,90.093231,94.999417,84.53706,92.873377,74.448911,76.340588,78.238649,66.751775,68.985425,61.908819,67.615542,61.604868,59.499474,41.049781,61.260376,43.805861,49.938742,47.703551,45.763872,45.975397,52.008999,37.548393,54.491515,40.218052,50.613784,43.773318,47.256641,44.115567,38.341133,47.157599,33.718741,44.462451,30.211831,35.11733,29.187309,28.974504,33.90937,21.500727,32.850442,19.442964,33.508141,22.065788,27.574227,25.391726,22.405863,28.433264,23.57712,23.182622,26.307162,16.96154,28.673521,18.740897,21.988567,17.842607,24.030225,16.504373,21.251797,16.741443,12.173311,14.147074,15.291636,11.386547,10.492428,3.5568471,6.3801465,3.4371985,-5.3910886,2.5646557,-12.981035,-4.0481204,-11.70339,-11.086769,-14.667076,-16.939492,-10.142226,-24.629219,-14.86808,-28.828533,-19.914322,-27.834658,-17.327082,-35.00779,-16.415357,-35.984434,-19.13344,-26.514617,-26.363281,-26.140589,-26.960222,-31.271419,-17.604427,-37.984799,-14.867718,-33.489338,-14.367964,-26.839265,-15.973146,-26.029388,-17.117306,-14.497527,-22.257568,-11.768,-23.00787,-13.542978,-22.159034,-11.115974,-26.062274,-14.221478,-22.761384,-18.487412,-21.327597,-24.331432,-24.14502,-22.834696,-30.593614,-11.123298,-39.366575,-23.492477,-35.152879,-24.874161,-38.850564,-29.264403,-49.17676,-34.666538,-47.198163,-30.518338,-54.786851,-38.638779,-55.243136,-41.627699,-51.174665,-52.130919,-53.718181,-53.037124,-54.79047,-57.437868,-63.420899,-63.960372,-70.22634,-64.969112,-81.531531,-71.079672,-87.91422,-78.21453,-87.046514,-84.642516,-86.842658,-97.541315,-87.241799,-94.799884,-92.786509,-100.60822,-98.446011,-101.47754,-98.01433,-101.78162,-104.45178,-104.62828,-103.36455,-109.2625,-100.19907,-113.30253,-104.61394,-108.35677,-103.86448,-111.34615,-104.66657,-110.19149,-106.38392,-101.38324,-102.47673,-104.48147,-100.69537,-99.774951,-91.765972,-93.119566,-91.117987,-77.708592,-84.661955,-64.984129,-71.07197,-60.245895,-58.236965,-48.929961,-40.797273,-41.245413,-26.039259,-30.57599,-11.408777,-10.867492,3.0163372,0.50295356,13.64822,18.753622,31.723239,36.118313,39.502223,49.771718,53.606364,67.356904,69.324489,72.007544,88.546327,80.319068,102.82386,96.778648,105.7097,108.7717,118.87102,119.87417,117.18074,133.97582,121.18207,140.51588,130.78265,144.03762,132.6179,150.14029,139.92714,149.95654,144.94929,152.15165,149.28847,153.91784,153.14596,155.90841,143.9578,155.32199,149.30582,152.86193,144.54762,154.73907,138.49725,155.32287,136.10812,153.99609,129.90773,146.86138,132.64969,141.76315,132.83861,145.01756,125.03863,139.39198,125.22215,132.54845,135.56909,124.50279,127.19609,123.50141,122.53372,120.16839,127.09895,113.35406,120.97618,113.43418,120.54802,110.95194,112.16028,107.23573,112.0687,103.32042,105.30553,98.050574,100.4884,90.018752,96.075449,82.055609,80.654534,79.181486,67.628694,71.16596,58.949426,55.619466,52.070312,40.460022,42.660943,29.57414,29.990294,13.225011,22.34046,3.3614166,7.6294062,-5.2017641,-5.1785672,-14.495114,-17.136319,-24.649719,-30.692998,-31.795317,-44.895897,-34.385145,-53.473567,-46.082799,-56.990936,-54.492615,-61.895428,-61.165295,-68.739343,-69.349869,-66.368875,-72.587334,-69.199368,-71.876632,-76.544901,-71.405958,-71.829354,-71.086936,-71.009313,-72.876412,-68.349758,-64.759317,-63.61,-64.602601,-55.210973,-63.986338,-47.456703,-55.632528,-47.168581,-50.544925,-41.910867,-41.336644,-35.170333,-40.775175,-30.439066,-33.026472,-27.612422,-16.969994,-26.354946,-16.275473,-18.63733,-6.2974708,-15.41948,-3.935975,-13.806169,-2.3367854,-6.311832,0.83371863,-3.7901282,1.6042398,-7.6565919,3.5976092,-8.1203092,-1.6137489,-16.129058,3.4686611,-21.224057,-5.2554752,-23.230705,-12.05929,-22.33001,-15.546423,-32.268295,-13.3984,-31.52165,-24.667267,-24.675393,-41.253275,-29.072719,-41.239535,-38.473967,-39.262312,-36.835599,-51.23249,-39.717981,-49.543839,-40.663557,-51.376101,-44.150096,-46.282106,-48.919521,-46.062324,-49.312766,-47.314673,-47.707703,-50.490232,-48.547857,-54.028713,-51.093188,-47.714253,-61.871813,-40.910493,-61.645406,-46.421745,-53.445654,-51.49769,-50.035309,-51.295663,-48.857317,-50.207683,-46.675948,-47.046755,-45.253341,-44.018142,-43.153503,-47.770709,-36.426836,-44.612174,-35.907028,-35.886187,-35.996382,-29.678393,-36.203374,-27.876246,-30.647137,-25.989758,-27.19283,-25.994394,-23.484399,-22.409175,-19.187602,-23.226749,-13.687985,-19.482363,-13.624481,-14.757133,-5.5722154,-14.299799,-5.3248579,-10.448152,-1.9877379,-4.8776776,-3.1207829,-2.7692166,1.6388571,-6.3565479,7.5859803,-5.2606521,6.0549542,2.0975559,3.1190943,4.0975553,5.5638471,5.2445375,10.430849,6.6357918,13.389092,15.896629,2.7390622,24.866711,9.7110999,26.696375,10.067047,32.307861,13.872616,35.186453,27.449276,26.459589,34.690937,24.987524,29.318422,31.189001,27.807155,25.28445,30.108254,28.090197,23.54351,34.118626,19.331575,31.452224,20.098481,27.377274,25.531438,23.108131,13.895044,18.715332,16.464576,14.055491,11.132164,7.6638381,11.579368,2.0162825,8.4682317,-2.4148746,4.2660106,-0.80874748,2.6637345,-5.8879145,-3.3457986,-8.6629136,-15.496513,-1.0058334,-21.825119,-8.2454098,-21.598122,-15.5809,-24.048689,-18.086497,-27.954426,-22.271724,-31.126609,-20.630415,-36.788507,-26.670032,-36.962506,-32.757578,-39.03277,-34.591866,-43.234962,-38.434228,-44.452875,-33.811319,-48.705723,-36.970373,-46.705243,-39.92308,-38.104856,-43.897063,-36.747242,-41.051548,-37.393083,-38.703665,-32.520719,-38.026313,-29.176648,-33.487225,-27.567966,-29.143857,-23.342497,-25.827694,-18.262779,-16.20526,-13.378374,-13.545049,-8.8434125,-8.9102009,2.0287849,-7.1460597,4.8669269,-0.88608222,9.1468348,8.6008819,13.309714,12.523806,16.309854,18.324851,22.788514,23.565677,25.361303,26.170583,26.532017,35.041681,31.954786,34.029917,32.39937,38.04671,38.149133,40.224782,38.333463,46.32903,38.472477,50.621394,41.908261,49.622443,40.659745,50.74678,43.999162,42.295546,50.077301,34.776423,48.868294,38.852781,46.248708,35.876534,47.524667,33.192151,46.66065,35.600125,36.765764,33.384701,33.862721,34.498599,32.535669,26.033486,25.112552,31.499101,22.837787,29.49178,17.067723,24.338699,18.092003,17.403789,22.624257,13.270312,18.090196,12.808336,15.227342,11.389777,14.225999,10.290103,12.766244,18.799598,9.7901685,19.250745,12.909027,19.592396,16.55971,21.080788,18.783529,21.805325,20.906297,23.722987,22.846477,24.269969,24.530897,25.582431,25.871301,26.64052,26.907024,27.526577,27.016672,28.748232,26.981398,27.201292,28.342163,26.731637,22.088727,30.866591,19.405391,29.597352,19.937219,22.94652,23.089822,20.688303,21.011696,18.855567,18.802404,16.239153,14.976238,13.050891,10.812917,9.1192755,6.5065345,4.4340708,1.6866349,-0.58156549,-3.0442493,-11.451655,-11.072338,-11.602495,-22.345624,-16.376928,-28.006395,-23.531179,-25.436526,-34.211547,-29.470481,-36.425422,-33.863574,-27.223395,-35.053912,-38.388626,-34.595378,-39.022094,-36.929268,-38.486,-31.011909,-42.147792,-28.255679,-36.152847,-35.545362,-32.349035,-37.723176,-28.333205,-41.127887,-23.690857,-41.693603,-29.783282,-32.221478,-31.961829,-31.969263,-31.814456,-32.359605,-33.257673,-34.126294,-35.555315,-36.804201,-38.416979,-40.309661,-42.806938,-45.403192,-48.998907,-51.84921,-55.738182,-59.593288,-63.96019,-68.145781,-72.134353,-77.404448,-81.618271,-86.587931,-90.50052,-94.772678,-98.594157,-102.51728,-105.41826,-107.86818,-110.05472,-111.75866,-112.82049,-112.30547,-112.27512,-110.42284,-108.94678,-107.2288,-101.83947,-106.27289,-94.677191,-95.913244,-81.526065,-85.709009,-69.00714,-68.725324,-54.779068,-49.312877,-26.373447,-37.323447,-6.5821626,-13.518429,10.484759,22.069188,21.604395,44.043576,44.797445,63.686925,65.802422,81.855042,93.627674,97.595876,115.29755,116.1033,138.16463,134.16173,149.63681,153.34703,159.50514,171.03545,165.4419,178.31397,175.92644,179.10654,179.81231,183.16799,175.99769,181.48792,172.36636,174.41746,159.72126,168.15505,154.25155,149.51125,149.08869,135.34017,129.49671,127.12466,106.43077,112.8402,89.920143,90.278068,77.853609,62.046778,55.131096,48.802009,35.293078,30.286495,21.578557,16.414598,-3.9819846,3.0092282,-20.02356,-18.602531,-17.305311,-38.810034,-25.014319,-47.052204,-20.887167,-60.321386,-25.062707,-42.078835,-41.469091,-36.288905,-24.731276,-39.608623,-23.577241,-29.596655,-18.588674,-19.266324,-10.539504,-8.6884055,11.833197,-8.0593216,19.950741,7.6425173,26.01387,20.949029,33.245843,32.726234,41.504731,42.497449,50.896742,62.418675,47.410909,67.48284,55.756569,68.026187,61.552831,68.923214,64.453223,68.597604,66.190428,67.762953,64.668027,65.062722,61.652912,63.009366,54.707618,54.566716,55.578916,49.533803,63.02953,29.590611,57.268966,29.193126,44.388081,27.737742,34.685117,10.268582,31.522605,3.6104623,20.390803,-0.78264363,-5.6013014,-0.90726964,-16.753553,-6.3596058,-29.730448,-18.60361,-35.390526,-30.774143,-41.804237,-39.510474,-48.854885,-55.687716,-51.505157,-62.02121,-62.102846,-64.394191,-62.516675,-75.27892,-67.320498,-77.748668,-72.012395,-71.443259,-82.749568,-73.300254,-84.570243,-76.542681,-85.914499,-80.612933,-85.165154,-83.011813,-84.008463,-87.290678,-86.413055,-88.918917,-93.881332,-86.393118,-96.613257,-90.252122,-94.247122,-89.339808,-98.640462,-92.41208,-96.699287,-94.956612,-97.134934,-98.531117,-102.12755,-98.080756,-102.09549,-99.067763,-101.13964,-108.88168,-96.096659,-106.64121,-97.548038,-112.70605,-91.919301,-107.27519,-101.2283,-101.47099,-94.186932,-119.37175,-89.8142,-110.1213,-91.806758,-101.28103,-87.707209,-86.960093,-82.230693,-91.438151,-61.603719,-75.367596,-54.885681,-61.487304,-46.807724,-45.36907,-32.623152,-30.854669,-18.970076,-18.353996,-22.55828,0.20113623,-11.734064,5.4863971,-0.40777329,11.531769,8.7974082,17.326004,16.429532,22.171684,22.366792,26.627205,26.702583,29.608427,26.157954,32.944232,28.944047,33.071888,31.307189,16.947584,38.415858,16.771809,31.610164,18.65838,26.46821,18.095912,22.53783,16.200922,18.752824,12.841075,15.457692,11.050585,11.642575,9.2655413,0.31559153,10.024423,-2.3988066,4.2902675,-2.1893429,-5.7951011,-2.8213632,-1.6965402,-4.6740303,-4.0524125,-4.3073888,-0.13692823,3.2168098,-11.090982,8.7345637,-6.8097229,9.695001,5.126591,4.1208954,13.65455,5.2665063,21.026034,12.157163,21.454671,20.606216,29.395488,26.893127,30.94301,32.654556,33.527558,43.643842,40.55522,42.330991,47.205882,47.095865,55.169324,48.445783,58.582065,52.510481,59.514831,55.69532,59.200677,56.165291,57.305956,54.856642,55.019559,51.411651,49.71454,46.23598,44.220216,33.238457,41.603403,25.461105,30.9919,18.617905,18.94196,11.158947,6.9876723,8.1004072,0.21830911,1.7255345,-3.5313404,-2.9260996,-5.7724954,-9.8066313,-10.029855,-5.5845343,-13.743566,-10.766209,-14.452577,-8.7645767,-16.897395,-3.2321021,-16.085763,-4.1490833,-12.370161,-4.8237255,-9.2972054,-4.2793578,-6.7187667,-3.1743984,-4.1564085,-2.0755069,-1.8167729,-0.56295241,0.44075824,1.6675782,1.9516126,2.9937828,4.0145114,4.6826323,5.6787766,4.460533,9.0911742,6.8857715,5.3027297,14.016978,7.5278104,14.897597,11.133607,15.697537,13.802462,16.303188,15.125991,17.144058,14.40499,18.827592,14.996486,17.733223,15.044047,15.404289,7.7201516,17.895485,6.4730856,13.866246,5.482032,17.640852,5.8042567,10.337819,6.9424465,11.514952,9.4504965,10.554404,5.2499979,9.2688376,9.8126818,12.294938,9.4669355,9.7601155,9.7338569,8.6013837,16.412237,7.1855341,14.440607,9.3376577,17.703441,8.6263698,17.222841,10.81268,16.272951,12.465457,10.215289,17.944081,10.097238,17.619338,13.658424,14.819972,18.953509,15.256042,20.638522,17.506855,14.959957,18.662849,17.621004,21.231962,15.99897,18.052718,16.199966,17.66821,23.521558,15.894537,28.534528,14.554545,33.865037,21.150799,30.856987,23.486407,31.877064,26.691648,32.914947,27.338548,27.043714,27.011787,28.087491,28.858592,21.174741,36.206665,16.476969,35.506059,21.648889,30.8149,17.861686,33.507309,13.931767,33.2706,10.448934,27.903155,10.965376,25.55028,13.649607,20.793975,10.139488,21.105552,6.2623551,17.228554,4.1670102,10.805098,0.31922487,3.6150044,-4.2722859,-4.5011799,-10.550823,-12.257786,-14.866771,-21.532604,-22.684993,-22.593359,-33.489327,-30.063528,-39.327581,-38.589861,-45.166007,-45.694298,-50.773999,-51.325197,-56.137588,-54.320741,-61.276433,-59.555923,-64.701122,-63.372023,-66.956671,-59.053545,-71.565148,-60.174585,-69.266507,-61.291298,-66.816557,-60.66985,-63.437402,-58.739086,-60.075182,-55.667589,-55.659032,-52.211405,-50.954646,-47.325924,-45.598658,-42.218508,-39.948705,-36.58381,-33.642577,-30.132794,-27.343692,-23.740394,-20.273962,-17.768803,-14.048644,-12.108389,-8.3739348,-7.105546,-3.6809636,4.2208406,-2.185857,9.6051829,3.8429382,14.006881,12.559825,14.257438,17.486095,16.374216,18.708952,25.608969,22.263452,26.483353,22.917243,29.63802,29.269302,32.598767,34.399709,28.720188,35.709788,32.953894,35.165689,33.233367,36.456106,33.043034,34.148196,42.652722,28.80449,40.750037,31.342541,42.855332,28.462132,44.202282,26.296056,43.843763,23.007512,45.384384,19.393221,38.301229,19.539879,36.391526,21.582655,32.946223,17.505094,34.762331,16.22361,35.732461,16.520718,28.992465,18.073491,24.491103,11.719931,29.027358,10.25017,24.992711,11.514318,20.542987,11.411873,15.409794,10.382618,7.8379349,10.516338,2.2285726,8.5616616,-0.82705276,4.7176524,-9.3734245,6.3545901,-10.888314,0.76611511,-9.2701663,-10.231947,-3.7852028,-12.834102,-6.7384776,-12.911272,-9.6883681,-17.935235,-8.339875,-18.925096,-14.498006,-20.656206,-17.49448,-17.167787,-18.849999,-19.711658,-21.775892,-14.727188,-22.765718,-14.141783,-20.058774,-20.543842,-13.610106,-20.624666,-12.567312,-19.917167,-10.668686,-22.812805,-6.6864648,-18.492136,-6.6085554,-19.883275,-6.4003608,-13.249548,-5.081889,-11.434385,-6.8591169,-2.9276927,-7.4435208,1.0127679,-3.9075777,-3.6300098,-1.7962595,0.15032179,2.4876673,0.16443626,6.0742675,-3.1643283,7.6418578,1.8715808,5.1672048,3.8337967,-2.2495908,3.9625406,0.85700714,1.8173027,-5.3121583,-1.1374045,-1.9535485,-4.6603685,-2.3134255,-3.9063285,-6.1315105,0.34409064,-10.390442,-0.16540966,-10.076888,-8.7952031,-6.0488719,-9.2995052,-8.5863169,-14.316339,-6.0621531,-13.144696,-9.2186729,-10.413529,-9.6109894,-10.605573,-6.8278934,-13.190042,-6.6906536,-13.668099,-9.365408,-14.352104,-11.996192,-15.875266,-10.548486,-18.986944,-13.240566,-19.324689,-16.089921,-14.907173,-13.310993,-19.352783,-13.506918,-19.123514,-15.294588,-19.193452,-16.736203,-18.849678,-18.174058,-14.556402,-20.758557,-12.320009,-20.982086,-12.398979,-19.456758,-4.5091649,-20.641108,-4.6550741,-14.124142,-5.1536933,-1.5159924,-7.0017148,1.9456521,-2.4532495,4.4034953,1.5602222,7.4575631,6.6727823,10.47293,13.75931,18.488752,16.343814,21.091075,23.852588,25.271434,30.401912,26.982185,35.735531,31.540873,43.378506,41.044757,43.920899,53.081783,45.40607,66.391365,45.555902,75.868369,51.749047,81.802936,54.13016,88.55899,65.16323,89.281286,68.609158,95.505011,75.551543,89.668699,85.732638,83.828828,89.889792,87.394562,90.267498,86.242693,92.127905,80.0425,86.147776,82.35773,82.246294,72.34252,81.667945,62.462744,79.222729,62.885654,65.463873,57.912903,57.7677,50.764851,43.184488,44.78909,28.002776,31.192622,25.044478,13.63955,13.695152,2.4725768,7.5325398,-4.1857283,-3.2202409,-10.412196,-16.180046,-13.793561,-20.555628,-25.562246,-28.267081,-28.164585,-35.930981,-38.194738,-40.903799,-45.272246,-42.063151,-55.630178,-48.098437,-59.709904,-49.301746,-67.749394,-51.492987,-73.38042,-57.06877,-75.945827,-58.928725,-78.27456,-66.917195,-78.324585,-68.697936,-76.809015,-72.421224,-80.398336,-73.324011,-77.730251,-80.696134,-74.982751,-84.175987,-75.989583,-78.888876,-76.016653,-80.943095,-76.912759,-80.90106,-70.819221,-78.670585,-74.395765,-78.716717,-74.547664,-74.242369,-73.583611,-76.843816,-76.708399,-72.377363,-77.033254,-74.735816,-79.294809,-81.539816,-71.516699,-85.962779,-75.278933,-83.773584,-74.828946,-86.819898,-71.00794,-83.293442,-79.083586,-79.947824,-77.628655,-79.244959,-69.107616,-83.118245,-65.119242,-78.974119,-59.612833,-75.772919,-53.221307,-71.278079,-50.821401,-64.043668,-39.127882,-59.761647,-34.411671,-47.537646,-32.496721,-29.445911,-31.509966,-20.208609,-22.114095,-8.3818951,-23.509371,10.373124,-14.771497,13.344395,-0.43079958,24.005272,5.8752326,28.032955,17.224419,29.667313,27.447444,31.20992,35.492738,32.14856,45.732637,32.108796,51.189645,38.402321,45.774873,46.126516,50.239991,48.202908,51.987138,45.109794,55.769474,45.072799,56.772734,42.416753,53.838305,45.154627,56.209824,40.741545,56.54665,45.28212,48.186998,51.645849,39.698257,50.704963,37.451231,47.038597,36.265479,47.766441,31.584384,41.486433,36.442641,38.987669,30.439688,32.866665,28.826157,31.717762,28.10444,26.670003,22.332802,26.48143,20.926983,23.472138,24.980991,17.28782,29.845094,13.821685,27.796732,13.26677,28.076335,16.922897,24.725996,17.031014,21.493285,20.35719,18.104255,26.788661,15.572143,24.414256,17.204347,27.947914,20.391333,23.901338,21.935577,25.073861,26.348596,16.211969,31.48625,15.078519,27.594714,15.797794,23.148873,16.764011,18.681907,18.494049,21.249153,14.145139,23.67706,11.418311,21.250671,10.231785,26.110556,8.6430295,19.688921,9.0589271,22.021989,6.344911,24.911408,3.6002004,20.779052,11.069304,19.228113,13.144963,14.293294,14.17958,16.997848,16.626799,14.539968,22.031084,9.6884443,23.884957,16.01116,18.952386,17.11157,18.554049,16.828976,25.867431,17.521762,23.623994,19.760661,23.50981,26.664867,18.531514,25.85759,18.270991,18.478425,28.753633,16.070711,24.314874,17.171856,19.845866,22.852344,16.396184,18.449515,15.036085,20.183202,17.252502,17.361295,13.796944,15.228858,12.800321,9.7756846,15.13975,3.4801873,11.112741,4.6804666,10.318771,5.6227911,2.8647174,3.8234193,-1.0435221,6.8665465,-8.326293,2.6332771,-11.028817,1.5620509,-11.981128,1.7371767,-14.884747,-3.1681689,-10.07772,-3.2292563,-9.213303,-7.2622341,-7.9591668,-8.5604905,-13.12613,-2.2843884,-11.677253,-0.97854495,-10.172158,-3.9654925,-1.895631,-0.50354047,1.0626516,-0.20006525,8.5501582,1.1146037,14.343245,6.6530378,16.776467,6.5203213,18.153062,13.790976,19.496049,14.717858,21.663803,21.709298,18.478838,21.892065,18.066488,19.733358,22.525641,13.334454,20.140902,10.277139,14.499288,13.159858,5.1550619,8.1427667,0.42636195,7.0084515,-7.9369765,-2.1657968,-10.971741,-8.904105,-23.535362,-5.0256566,-32.033494,-13.990888,-33.18865,-23.602958,-36.614174,-32.328822,-40.264081,-38.391205,-50.64995,-40.746014,-55.362953,-48.097184,-58.891017,-54.435278,-62.970209,-57.480178,-67.924925,-62.538432,-64.551048,-69.863932,-66.422727,-71.327033,-69.389436,-72.199031,-70.910108,-72.62934,-71.82053,-72.008942,-69.999187,-69.265108,-67.686536,-66.635293,-64.210679,-67.091158,-62.03289,-57.332949,-57.527409,-52.277112,-54.870296,-41.37949,-51.532586,-31.665345,-42.782669,-25.315437,-38.78461,-14.190854,-29.328976,-9.7536925,-22.781697,-2.2870686,-16.882487,3.7071224,-8.6881689,2.3454796,2.5924497,4.8143159,6.4965046,8.223414,9.1036018,15.556905,8.2262197,16.261963,10.573786,15.568481,11.078223,13.465754,10.48836,10.036576,11.211944,12.877034,11.689442,9.0329431,9.5149259,9.5943819,12.462936,9.7981648,7.6791016,8.3277162,9.4043757,11.2747,9.2260856,8.2470868,7.9193046,9.3899175,12.501776,12.011527,10.553503,12.696402,13.861155,11.724634,14.474538,12.290743,14.600057,13.516859,14.341458,14.051916,14.170779,13.825258,14.106958,13.824449,14.191691,13.307092,14.368174,13.405837,14.357787,13.462062,16.362013,12.834615,16.228862,20.476777,13.099735,21.442149,15.199741,21.560235,16.480438,21.282573,19.301611,20.698408,20.586548,27.24271,19.151977,28.250752,21.999288,28.626389,24.228976,29.354067,25.644532,29.097222,26.884152,29.332381,27.632668,28.973548,27.598774,28.935878,26.783344,27.226492,25.457634,25.422957,23.232505,28.164907,18.673427,25.22296,17.061753,20.643045,20.565119,21.615317,15.337997,19.140281,14.55386,21.831865,9.4322802,23.987694,6.5908846,20.412794,6.3572447,23.442489,2.0209004,19.131673,2.7434217,18.961528,1.0276577,18.780863,0.90199264,14.75297,8.3147611,9.2773107,9.4381473,8.4216629,10.130084,8.3479093,9.8637869,8.5955928,9.3544623,8.9613339,9.0127783,8.7237038,9.4353608,8.6258138,9.8768438,9.934924,10.523103,10.033841,11.485301,10.614548,11.546567,11.728374,12.065628,12.302211,12.82774,13.335312,13.452627,14.060397,14.002729,14.836359,14.850642,15.350773,15.16866,16.089583,15.697441,16.135394,16.114931,16.076401,15.914422,15.443233,15.287064,14.250107,13.890559,12.930523,12.282684,11.231934,10.637828,9.33846,8.9486988,7.4285079,6.7031925,5.9616968,4.5447253,3.5007619,2.2987737,0.99965646,0.61055971,-1.3276929,-1.4141336,-3.5282191,-3.2645175,-4.6658115,-4.8881309,-5.7162702,-6.0824581,-6.6773827,-6.6816619,-7.1477662,-7.1009932,-7.3439754,-7.2423905,-6.8214882,-7.4044795,-6.9374491,-6.8788404,-6.5609666,-6.5871506,-6.1285073,-6.322233,-5.7039453,-6.2159461,-5.2668366,-5.7443784,-5.3953575,-5.4747656,-4.5585366,-4.7482271,-4.5614712,-4.312013,-3.7591574,-3.7068007,-3.3419008,-3.1932363,-3.24961,-2.4118176,-3.0710756,-2.2552501,-3.092957,-1.9416702,-3.4842753,-1.9976805,-3.6658782,-2.302093,-3.7524975,-3.0723033,-3.7171962,-3.6932214,-3.8828095,-4.4763903,-4.7649348,-4.4715117,-5.7905447,-5.5118052,-6.6868637,-6.2042772,-8.4036062,-8.0010635,-9.5274843,-9.7412357,-11.017091,-11.941228,-12.716591,-12.771583,-15.30251,-14.665516,-17.028031,-16.843682,-18.926343,-18.734478,-20.968821,-20.734177,-22.361257,-23.0203,-24.225089,-24.817836,-26.28393,-27.105516,-28.027485,-29.223406,-30.187094,-31.544322,-32.18765,-33.088094,-34.298208,-35.230564,-36.610922,-37.425221,-38.648218,-39.948105,-40.744635,-42.336709,-43.056645,-43.990951,-45.173672,-46.276334,-47.302262,-48.395308,-49.753004,-50.322427,-51.579521,-52.633081,-53.283238,-54.53092,-54.286133,-55.264947,-55.4043,-55.108375,-55.356879,-54.067098,-54.18603,-52.066867,-51.891559,-49.28338,-48.17288,-45.651723,-44.036692,-40.965875,-38.667871,-35.240174,-32.526504,-29.192825,-25.720704,-22.72306,-18.372499,-15.053147,-10.530323,-6.7751,-2.0563536,2.2172939,6.3454264,10.86836,14.74199,19.510805,23.369374,28.019913,31.705415,35.622545,39.450746,43.503195,46.619378,50.024309,53.53099,56.064483,59.153271,61.650916,63.975237,66.20184,67.999429,69.784245,70.970457,72.339855,72.76191,74.184081,73.845592,74.289376,74.361696,73.719532,72.985448,72.355337,70.724853,70.830048,67.140924,68.168982,63.485065,63.908997,58.934259,58.886843,54.863868,52.836578,49.468423,46.509411,43.869537,40.805695,36.814206,35.66786,30.343536,29.392501,24.809194,23.423132,19.127607,17.199075,13.576622,11.420124,8.5616467,5.6681937,2.7911536,0.43903097,-1.8149325,-4.3865037,-6.2833688,-8.1895931,-9.4697037,-11.092708,-12.599271,-13.975483,-14.724725,-15.792658,-16.374408,-16.787467,-17.313437,-17.608737,-17.981724,-18.360284,-18.583072,-19.214153,-19.13006,-19.913436,-19.288097,-20.251229,-20.004129,-20.818477,-20.15117,-20.310338,-19.705316,-20.331047,-19.238237,-19.550733,-18.223088,-18.907791,-17.227834,-17.869747,-16.61847,-16.413245,-15.833107,-15.494927,-15.143578,-14.30654,-14.320924,-12.972291,-12.673023,-11.918582,-11.116199,-10.527001,-9.3543647,-9.2400567,-7.7788592,-7.8479932,-6.333796,-6.2657206,-5.1727054,-4.8920451,-4.5115323,-3.6059303,-3.8648846,-3.259061,-3.2376534,-3.0222116,-2.8624488,-3.0262485,-2.8283308,-2.9463651,-2.7244589,-3.1127796,-2.816907,-2.8090739,-3.5023828,-3.3147396,-3.8398468,-4.0839147,-4.1890494,-4.7744884,-5.127064,-5.3867914,-6.329682,-6.3438281,-7.005839,-7.7067519,-8.3128671,-8.6279702,-9.2268163,-9.6754322,-10.941828,-10.835079,-12.566211,-11.755942,-13.858192,-12.963144,-15.420311,-14.699837,-16.121556,-16.611569,-16.978588,-17.691907,-18.249677,-18.435042,-19.670325,-19.147483,-20.576427,-19.967931,-21.850594,-21.581898,-23.065934,-22.930686,-24.037326,-24.810299,-25.099547,-25.780477,-26.095489,-26.50235,-26.812177,-27.382632,-27.20481,-27.811603,-27.863662,-28.575399,-28.286141,-28.783923,-29.305104,-28.644822,-29.9622,-29.476093,-30.174052,-29.713786,-30.046121,-30.280017,-30.019555,-30.052355,-30.554596,-30.705508,-30.53067,-31.35444,-31.262566,-31.938374,-32.060248,-33.385183,-33.296904,-35.227566,-34.564782,-36.82698,-35.644088,-38.369994,-37.741109,-38.775953,-39.756421,-39.882515,-40.815866,-40.977721,-41.541514,-41.319078,-41.979373,-42.130189,-42.29218,-41.994378,-42.069724,-41.521867,-40.834415,-40.82856,-39.643973,-39.486163,-38.118811,-38.112719,-36.415164,-35.985458,-34.496352,-33.479723,-31.577586,-30.912247,-28.524481,-27.54522,-24.936437,-23.577554,-21.16917,-19.412442,-16.739139,-14.390665,-11.943093,-9.4424111,-6.7615303,-3.9511272,-1.3515825,1.5694848,4.0792179,6.9549218,9.5166654,12.474365,15.090616,17.894618,20.515427,23.55758,26.520467,28.928146,32.930652,33.647021,38.697413,39.144448,43.609058,44.177738,48.131365,49.316963,52.618118,53.886219,57.216467,58.296023,61.189065,62.439037,64.550598,65.423001,66.903851,67.577374,68.533661,69.255557,69.940179,70.576755,70.843988,71.956997,72.067891,73.287701,73.105462,74.589337,74.699745,76.025946,76.473734,76.995099,77.908053,77.905464,79.152869,79.135747,79.89108,80.357219,80.322762,81.435333,81.37428,81.830971,82.45914,82.235202,83.475906,82.221638,82.482912,81.980968,81.733427,80.679571,80.028577,79.009243,77.961394,76.271958,75.649433,73.601048,72.592744,70.033126,69.207046,65.978064,65.042696,62.735942,59.928663,59.102025,55.991927,54.487578,50.081535,51.546859,45.925945,47.215625,42.235322,42.895287,37.494346,38.539891,33.437315,33.247907,28.90511,28.168853,24.624618,23.149261,20.012375,18.040383,15.045265,13.050236,10.142648,7.7912645,5.6106056,2.9028246,0.88159446,-1.0539363,-3.3441823,-4.641838,-7.3596157,-7.9136642,-10.550672,-11.295143,-13.328289,-14.524165,-15.836714,-17.128923,-18.116423,-19.130905,-19.923415,-20.598831,-20.462616,-21.325616,-20.907073,-21.703624,-21.244794,-21.477937,-21.290118,-21.803894,-20.681562,-21.800805,-20.219946,-20.837231,-19.632786,-20.095233,-19.038857,-18.559612,-18.003666,-18.031036,-17.375195,-17.771353,-17.305353,-17.97469,-17.117283,-17.868855,-16.794852,-17.406715,-16.470713,-16.717299,-15.712803,-16.092187,-15.342728,-14.777098,-14.871995,-13.907672,-13.91259,-13.279297,-13.379571,-12.587879,-12.700524,-12.27061,-11.754678,-11.325988,-10.649841,-10.631492,-9.6506667,-9.035535,-8.6331634,-7.716944,-7.3395252,-7.0155382,-6.2233429,-6.4278017,-5.4499703,-5.4145316,-5.04613,-5.0049819,-4.3798917,-4.6770064,-4.3303996,-4.589704,-4.7514561,-5.0597449,-5.2971007,-5.7191639,-5.9496796,-6.2874067,-6.1417504,-6.527484,-7.0518617,-6.6215509,-7.3606493,-6.7991381,-12.69496,0.27502121,-13.193492,-1.7574912,-9.2620423,-7.9466382,-2.4732104,-6.8589619,-1.7912515,-4.4403778,-6.6029747,2.297359,-5.4151203,0.88258421,-1.6546085,-4.7775185,4.954438,-4.4157384,4.9773225,-5.1618556,8.6743122,-4.3890387,8.8692203,-2.7184112,8.7706424,-0.43318432,7.2896718,1.1628567,5.8580761,1.2833717,4.1658232,0.70014121,2.1981478,-0.98162044,0.28578722,-8.7192106,-0.8128055,-7.751909,-4.8914971,-8.8581743,-13.970744,-8.5057848,-13.783023,-12.092855,-15.330752,-20.30098,-11.666121,-22.471247,-14.803585,-21.639129,-22.600759,-21.277184,-21.924607,-22.529907,-29.350804,-23.245254,-24.621516,-25.880406,-23.314114,-30.767028,-23.829171,-29.660656,-21.977657,-29.470022,-26.532657,-25.517513,-32.098676,-23.185872,-32.856864,-28.385805,-31.472352,-35.12474,-30.468204,-38.103001,-38.304614,-36.359073,-41.86006,-40.627401,-43.624374,-46.70969,-51.012412,-44.622297,-54.284374,-48.047009,-55.699619,-51.256466,-57.577611,-54.08037,-59.578492,-57.25924,-61.855531,-60.525769,-64.07697,-63.734145,-66.212463,-66.853817,-68.692487,-69.808827,-71.308825,-72.005281,-73.445425,-74.580779,-75.523293,-76.511671,-76.984907,-78.028503,-78.128115,-79.086768,-79.044704,-79.605764,-79.604882,-72.610909,-82.802396,-72.128986,-78.197391,-72.856839,-68.032392,-74.520023,-64.78071,-70.192505,-62.680592,-58.90991,-62.940102,-53.948187,-55.617721,-50.75116,-41.855942,-48.818963,-34.755206,-39.854593,-24.635797,-33.829462,-16.711466,-25.33294,-9.0048111,-16.727964,-3.4275181,-8.123811,2.1733199,-1.4405571,7.3785992,4.7020723,10.769214,9.4563805,13.59419,12.755356,23.038889,15.977095,22.730187,20.391867,23.419888,29.769693,24.204645,29.312152,26.863831,29.29096,35.210231,24.898126,35.192997,27.023591,32.284045,33.006077,30.984682,30.945492,30.525305,37.181557,32.458077,32.591126,33.846476,30.059999,38.435952,31.831998,37.977476,30.232712,36.646222,33.787079,32.068962,37.40659,27.559385,35.195745,30.306723,30.254258,34.299827,26.237098,32.396035,30.976412,27.385045,29.993945,27.192804,27.157536,29.21353,32.394372,24.912384,32.901758,25.662034,31.713731,25.97757,31.27976,25.664716,30.035563,25.697284,28.76055,25.576937,27.053532,25.215344,26.055157,24.403214,25.19132,24.302383,23.921465,23.655983,23.401175,22.705036,22.87005,22.092042,22.108573,21.741318,21.64367,21.346018,21.544238,20.508465,21.447592,20.137439,20.925453,20.261468,20.316143,20.481753,20.281098,20.153132,20.082495,19.691132,19.860462,19.687245,19.429003,19.610492,20.005294,19.677246,20.420917,19.947813,20.906527,20.089414,21.07346,21.014249,21.004342,22.492348,21.20452,23.142893,22.674423,23.558394,22.735349,24.696602,23.55866,25.125564,24.479745,25.682212,25.297065,26.558891,25.979093,27.003471,26.927002,27.360175,27.065818,27.870032,27.678344,27.642727,28.013939,28.508321,28.007682,28.784423,28.180081,28.363981,28.128355,28.317549,28.335054,27.931737,28.008381,27.921875,27.614321,27.53843,27.087959,26.768145,26.561856,26.313586,25.846943,25.541455,24.708511,25.159216,23.879009,25.057264,23.892882,25.244518,23.91355,25.472454,23.533512,24.755073,23.982931,24.395276,23.815156,24.658069,23.143969,24.20945,23.109735,23.974865,23.236207,22.749905,23.112383,22.491472,22.953682,21.396696,22.514443,20.77547,21.93043,20.814987,21.619569,20.951738,20.995158,21.245851,21.360016,21.41979,21.140326,21.742542,21.706564,21.843152,22.45105,22.071315,22.868146,22.267021,23.181273,22.550733,23.470952,21.91159,23.635393,21.746607,22.979061,20.997505,21.743773,20.617834,20.281529,19.258918,18.429177,17.478658,16.918468,15.413402,14.591416,13.534023,12.236638,10.777134,9.8902642,7.9079682,6.9093308,4.9557643,4.0050345,2.6892437,0.59755791,0.33375243,-3.0185402,-2.3172569,-5.5227305,-5.3683939,-8.0188397,-8.5294199,-10.600087,-11.613358,-13.604188,-14.655019,-16.601957,-17.674527,-19.672911,-20.579776,-23.034897,-23.789503,-26.07293,-26.733017,-28.832268,-30.409765,-31.553278,-33.744471,-34.495096,-36.857722,-37.189162,-39.773008,-39.826457,-41.974136,-42.100638,-44.600371,-44.059067,-46.476407,-45.980331,-48.186129,-48.320502,-49.900741,-49.754409,-51.598115,-50.585465,-52.660304,-51.609927,-52.87413,-51.477179,-52.560871,-51.938387,-52.576511,-53.461988,-52.914514,-53.949478,-54.134625,-55.160772,-55.477445,-56.594046,-57.428515,-59.231419,-59.406079,-61.330749,-61.352879,-63.717412,-64.45428,-65.717102,-67.043832,-68.02186,-69.360944,-70.270429,-71.808506,-71.767645,-73.599557,-72.512921,-74.44962,-72.980623,-73.740136,-72.715171,-72.721702,-71.315953,-70.888238,-68.890153,-67.774641,-65.315046,-64.228633,-61.359192,-59.631887,-56.288438,-54.514472,-51.07839,-49.25714,-44.760442,-42.111027,-38.291409,-34.878817,-30.712513,-27.021978,-22.928446,-18.785249,-15.111053,-10.563887,-7.5875554,-2.4268978,0.29817736,5.2922327,7.8423792,12.140521,14.990752,19.219889,21.623324,25.165959,27.893358,30.799891,33.017863,35.669683,37.488767,39.991991,41.030596,43.616245,43.809148,45.393841,46.115417,46.971495,47.750863,48.268694,47.969943,48.39492,47.707316,48.010871,46.182414,46.521057,43.795293,44.118816,41.127006,40.575389,38.356711,36.90069,35.238596,33.328249,31.666154,29.131696,28.317315,25.478313,24.315625,22.063686,20.799453,17.950326,17.316793,14.772239,14.183961,11.657839,11.249622,9.7350499,9.8461744,8.1396003,9.0849503,7.246089,8.439425,7.2967519,8.093675,7.5444565,7.7800685,8.5934715,8.0870064,9.0864985,8.7860489,10.218886,9.6515029,10.986062,11.111761,12.040861,12.298255,13.634349,13.538849,14.471399,14.788044,15.553875,15.652962,16.034938,16.524778,16.698986,17.280399,17.397961,18.312299,17.673944,18.678339,17.815393,18.571538,18.171667,18.765497,18.148853,18.499032,17.894629,17.971993,17.214552,17.266994,16.541183,16.149613,15.424582,16.069031,15.073276,15.567554,14.987608,14.864855,15.793574,20.483019,16.244369,21.111907,17.73476,20.297221,17.925566,12.197348,17.009491,3.5583915,12.969097,1.0752464,8.7996833,0.41796502,6.9323295,1.1576414,6.3607593,2.5868988,7.3116627,4.9145308,8.5978246,7.8859526,10.29492,10.56489,13.08153,13.689946,15.361381,16.896549,24.696873,20.300286,27.535607,23.380277,29.01877,25.237772,29.639069,24.862761,28.596607,23.748461,26.580612,21.403601,23.672477,18.999409,19.824219,15.302293,15.70844,10.715842,10.862189,6.619018,4.7596849,1.6973931,-0.54234229,-3.7269538,-6.0885969,-9.5621755,-11.72947,-15.889456,-17.875673,-21.25406,-23.780989,-26.801736,-29.000821,-31.550309,-33.836516,-36.309855,-37.508083,-40.709251,-41.425066,-43.982079,-45.440072,-46.884061,-48.10004,-49.366154,-50.287058,-51.303626,-51.925616,-52.182773,-52.471604,-52.54568,-52.240126,-52.096815,-51.493066,-50.517229,-50.275381,-48.857298,-47.956078,-45.830068,-45.024323,-42.176882,-40.79025,-38.202406,-35.544701,-33.212631,-30.710779,-27.854796,-23.976832,-22.024651,-18.12612,-16.091354,-12.185175,-9.4961108,-6.5673237,-3.2921298,-0.76002675,2.3595917,5.6283789,8.7586639,11.453798,14.618612,17.273509,20.491998,23.621281,25.830126,21.457807,26.119878,20.36839,21.650984,15.73411,13.466786,15.194441,6.0862171,15.190149,3.7167391,11.514332,2.6264522,8.2573024,1.8784289,5.472479,0.87299881,3.4061672,0.057514112,1.7285611,0.3554624,1.179885,1.0576751,2.3649615,3.5249237,4.9562671,7.5188733,9.4025709,4.6691333,11.382858,6.7990253,11.865307,8.4700233,12.740248,9.8543967,13.810076,11.376019,14.944915,12.685167,16.21668,14.29808,17.020731,15.490219,18.092141,16.875208,19.262806,18.253725,19.727374,19.996839,20.792808,21.437005,21.899269,21.853211,22.97957,22.105581,24.072936,22.744323,24.366977,24.252333,24.840146,25.451533,25.509044,25.958439,26.635807,26.453879,27.969773,27.230414,28.137934,28.125447,28.842689,28.267214,29.092752,28.250622,28.906459,28.627607,28.351037,28.569863,28.19276,27.847152,27.252402,26.96111,26.333061,25.922888,25.607317,25.204496,25.131028,25.057875,24.757108,24.40779,24.729762,23.828617,24.140229,23.529713,23.122185,22.076383,22.195299,20.787463,20.907103,19.09859,18.391718,17.857943,16.232176,15.808065,14.295933,13.651938,12.792405,11.782672,10.993894,10.258697,9.6530012,8.5325526,7.9544908,6.1023018,6.018039,4.0186959,3.8426605,2.2755141,1.5861466,-0.066671483,-0.4667548,-1.3321033,-2.4074488,-3.167327,-4.1134496,-4.9230702,-5.5242817,-6.5359322,-7.1466386,-7.611213,-9.0532351,-8.5429369,-10.130277,-9.8087545,-10.864778,-10.992995,-11.736376,-11.714912,-12.608112,-12.304604,-12.630801,-12.603922,-13.222436,-12.414534,-13.060609,-12.553215,-13.015361,-12.134176,-12.990124,-12.358256,-12.812114,-12.281732,-12.22186,-11.611117,-11.8918,-11.265547,-11.50772,-10.761764,-10.71027,-10.732001,-10.356251,-10.604262,-10.255472,-10.944038,-10.713912,-11.335297,-11.017819,-11.398622,-10.963088,-11.95467,-11.63663,-11.928001,-12.261401,-11.893653,-12.989516,-12.297217,-12.979848,-13.495816,-13.632952,-14.31119,-14.135923,-15.275857,-14.737865,-16.279089,-15.221623,-16.488856,-16.737981,-17.042786,-18.096326,-18.585697,-19.506058,-19.728423,-20.854733,-21.081234,-21.978269,-22.076078,-22.846923,-23.418533,-23.789782,-24.995879,-25.047237,-26.288887,-25.941982,-27.732812,-27.099044,-28.256942,-28.528271,-29.336646,-29.983991,-30.505483,-31.30032,-31.419168,-32.443835,-32.31562,-33.344318,-33.364028,-33.860918,-34.147908,-34.512705,-34.586562,-35.212285,-35.321893,-35.634261,-36.188056,-35.795833,-36.574806,-35.90086,-36.897682,-36.54258,-36.694236,-36.955129,-36.75293,-37.646166,-36.980464,-37.991657,-37.644746,-38.279902,-38.275329,-38.823439,-37.763373,-39.157283,-37.633957,-38.678107,-37.902264,-38.620048,-38.260344,-38.948996,-38.41479,-39.653403,-39.434598,-40.461542,-40.951915,-41.784614,-41.999176,-43.277751,-43.820054,-44.325053,-45.063202,-45.747586,-45.540237,-46.519367,-45.99195,-47.012622,-46.584499,-47.797337,-47.252417,-48.294059,-47.523122,-48.493246,-48.236187,-48.163602,-48.163621,-48.031147,-47.434023,-47.528011,-46.396257,-45.962824,-44.936951,-43.921098,-43.051466,-41.531571,-40.936638,-39.508396,-37.818676,-36.765074,-34.599532,-33.704754,-31.44578,-29.124831,-26.866093,-24.712506,-21.966958,-19.858321,-16.813488,-14.094209,-11.87235,-9.3418302,-6.1155678,-3.6245662,-0.59830401,1.8926871,5.1844457,7.7378632,11.553706,14.054074,17.529405,20.458021,23.987716,27.302013,29.954699,33.893733,36.991613,40.45163,43.279465,47.254569,49.749462,53.392314,56.4261,59.723639,63.237965,65.54759,69.469877,71.924779,75.728304,77.789753,81.632835,83.232656,86.661578,88.623875,90.9877,92.865424,94.772454,96.252724,98.101327,99.107731,100.81791,101.46913,102.68697,103.37789,104.65612,104.45404,105.78148,105.5033,107.03373,106.51615,108.10063,107.42972,109.37715,108.7061,110.86478,109.25832,111.39781,109.95132,110.9558,110.07366,110.37274,109.50452,109.53477,107.84147,107.42178,105.77472,104.203,102.79582,101.0197,99.172641,96.582003,95.363267,91.496664,89.722462,86.394021,83.3751,79.809781,76.334851,73.057315,68.937901,65.445212,61.198389,57.513256,53.329679,49.492712,46.102382,41.575754,38.354019,34.045588,30.899763,26.848404,23.425458,19.205437,17.055992,12.380145,10.028432,5.7679028,3.421365,0.45149116,-2.3859308,-5.3862852,-7.7011457,-10.251581,-11.7595,-14.73436,-15.710598,-18.282869,-19.586934,-21.243819,-21.99833,-23.821995,-24.062964,-25.11655,-25.86947,-26.188638,-26.270327,-26.364761,-26.151342,-26.244708,-25.63029,-25.868028,-23.967181,-25.208203,-22.521235,-23.550842,-20.955933,-21.24088,-19.182322,-18.532598,-16.934095,-15.413131,-13.957438,-12.13865,-10.525549,-8.3716568,-7.3332295,-4.7231138,-3.8804365,-2.0531128,-0.88719254,0.3256938,1.162625,2.529755,3.0787873,3.1547423,4.3047919,3.4030117,4.7644654,3.5845581,4.8725089,3.5657584,4.2589025,3.1756512,2.9369673,2.4668157,1.7859536,1.3569011,0.54922178,0.22441869,-0.39249986,-1.4977294,-1.7815024,-2.7594129,-3.5977166,-4.1997994,-4.9843801,-6.2678742,-6.7021773,-7.9393337,-7.9446827,-9.2719883,-9.5584801,-11.099163,-11.806495,-13.197289,-13.676594,-15.426154,-15.820138,-17.600104,-18.128595,-20.019221,-20.237527,-22.640619,-22.912481,-24.613919,-25.805761,-27.312434,-28.711335,-29.931499,-31.539905,-32.542663,-34.233605,-34.932529,-36.408983,-37.299151,-38.352264,-39.815517,-40.879345,-42.456036,-42.783862,-45.027061,-45.18678,-47.042761,-47.132113,-49.67717,-49.330915,-52.041506,-51.35586,-53.785331,-53.176936,-55.21897,-55.127196,-56.702498,-56.327599,-58.002126,-57.3693,-59.2164,-58.679179,-60.060973,-59.570747,-60.987294,-60.223758,-61.74205,-61.490354,-62.01923,-61.842081,-63.110194,-62.940877,-63.910148,-63.518307,-64.880383,-63.964772,-66.339956,-64.196143,-67.426554,-65.095282,-67.762405,-66.007111,-68.56019,-67.020813,-68.760265,-68.111914,-69.321269,-68.810175,-70.219056,-69.821434,-70.926959,-71.461588,-71.958818,-72.729846,-73.983472,-73.856988,-76.090931,-75.968712,-78.770865,-78.053295,-80.998722,-80.833777,-83.486553,-83.489267,-86.311114,-86.169621,-89.17477,-89.415542,-91.93191,-92.189469,-94.891488,-95.033189,-97.172724,-97.490113,-99.656533,-99.434268,-101.38223,-102.14634,-102.8217,-104.25143,-104.79677,-105.59596,-106.4332,-106.78888,-107.68532,-108.21357,-108.89539,-109.28803,-109.56553,-109.77131,-109.67162,-109.85919,-109.46911,-109.48373,-109.10185,-108.79742,-108.43861,-108.12369,-107.56521,-107.20084,-106.36739,-105.28305,-105.12995,-103.27234,-102.67047,-100.7715,-100.16414,-98.10839,-97.659062,-95.169717,-94.433997,-91.882811,-90.574456,-87.61342,-86.13673,-82.829577,-81.147407,-77.337288,-75.438598,-71.070187,-68.875259,-64.060072,-61.30744,-56.481911,-52.765572,-47.809815,-43.56207,-38.084185,-33.773555,-28.191163,-23.33789,-17.524136,-12.433005,-6.3782947,-0.70912189,5.5169468,11.092684,17.285122,23.105588,29.455269,34.812962,41.908955,47.513491,53.762468,59.666828,66.157321,71.644257,78.772899,83.63094,90.890827,95.748402,102.52638,107.77276,114.41924,119.52306,126.37513,131.15363,137.79484,141.81664,148.90641,152.82576,158.97099,163.46792,168.7759,173.57921,178.98902,182.73743,187.95719,191.19832,196.90976,199.57247,204.53457,207.50426,211.82048,214.43625,218.64305,220.78434,224.95858,227.03042,231.11072,233.3933,237.70007,240.05486,244.19543,246.76434,250.51314,253.26943,255.95027,259.20697,261.33525,264.93813,267.1086,269.99626,272.86734,275.17886,278.52213,280.59568,283.25821,285.61473,287.55505,290.21865,291.0574,294.18927,294.19116,297.22504,297.14127,299.74616,299.45662,301.27954,300.99286,302.51476,302.19353,302.55681,302.91458,302.46408,302.42884,301.67982,301.43458,300.11395,300.06385,298.8665,298.47915,296.92697,296.01954,294.31715,293.17394,291.58455,290.28663,288.35014,287.12947,285.43756,283.92461,282.67762,280.77923,279.95014,277.87435,276.87999,275.56292,274.20204,273.69522,272.09933,271.96179,270.45913,270.37333,269.37054,268.88427,268.66646,267.60281,268.25759,267.34802,268.41881,268.18526,269.04574,268.8385,269.9813,270.49645,271.54618,272.54855,273.49602,274.38711,275.83498,276.61765,278.12322,278.789,280.4107,281.5455,283.06541,284.52602,286.01514,288.1092,289.36645,291.41727,293.4169,295.16222,296.97061,-4737.3267,4926.8367,-4775.6067,4305.1681,-3321.4097,3803.5527,-2196.4161,3385.6446,-1343.4407,3022.0877,-713.87171,2691.246,-269.62926,2377.6075,22.766713,2072.2584,189.97222,1767.4261,254.84334,1460.7101,237.80133,1150.5398,154.68983,837.78383,21.416024,524.51203,-150.35088,211.99403,-350.10663,-96.414258,-567.56664,-397.91773,-796.13104,-688.61782,-1026.9678,-965.09568,-1253.4032,-1224.8876,-1470.4409,-1464.1506,-1672.6487,-1680.4902,-1856.5019,-1871.8849,-2017.1316,-2034.5686,-2152.5733,-2167.6784,-2259.8739,-2269.1131,-2336.6663,-2337.3609,-2382.6409,-2372.7093,-2395.3292,-2373.4237,-2375.7332,-2341.1935,-2323.7574,-2275.736,-2238.995,-2177.9925,-2124.3258,-2049.7506,-1979.9348,-1892.4062,-1808.1467,-1708.77,-1611.7237,-1501.7444,-1392.8379,-1274.132,-1155.8241,-1030.5374,-904.92108,-774.69631,-643.90013,-511.45909,-379.29765,-245.81335,-114.37666,17.104833,144.15677,270.73456,390.47718,509.08255,617.91523,723.92559,818.20966,908.14648,985.15792,1054.1825,1109.1052,1152.7816,1181.5657,1196.4111,1194.1229,1174.5429,1136.3388,1078.1078,998.79249,897.0289,770.47239,619.30335,440.4985,234.45982,-2.1720035,-269.43786,-570.78909,-905.40279,-1276.8918,4796.4761,-4815.6256,5007.7497,-3700.0688,4018.2099,-2820.8206,3240.6727,-2130.6657,2630.3325,-1588.7334,2150.7984,-1163.6711,1773.8689,-830.33519,1477.6775,-568.99272,1244.4266,-363.8251,1060.5519,-203.42889,915.57855,-78.404992,800.63437,18.778376,709.47367,94.268996,636.22665,152.56417,577.91851,196.94864,530.28368,229.95923,491.58863,253.81576,458.76869,271.38364,430.61853,282.3765,406.36803,288.2164,384.99298,290.52946,365.55667,290.43528,347.95573,287.49993,330.45187,284.48155,314.91562,278.62506,301.04865,271.2354,287.84981,263.58765,274.95415,254.92204,262.53635,245.72652,250.04511,236.30297,237.91886,226.47146,227.29276,216.67313,216.35924,207.04147,205.66815,196.84182,195.0614,186.87996,184.92367,176.61037,174.09929,166.64864,163.83688,156.72267,153.74821,146.87104,144.21075,137.8624,135.2388,129.29599,126.48798,120.77669,118.40074,112.87107,110.78165,104.93666,103.25058,97.741365,95.546303,90.903499,88.563116,84.396941,82.240132,78.136405,75.965597,71.647598,70.00036,65.468249,64.220945,59.122971,58.013412,52.983151,51.264845,46.908499,44.504035,40.015927,37.760674,33.83626,31.181804,27.947916,24.797147,21.991971,19.235578,16.127418,13.413573,10.759689,8.199369,5.5535096,3.5024485,0.97538831,-1.3005341,-3.4013012,-5.6383984,-7.4939008,-9.9469301,-11.460532,-13.980925,-15.378109,-17.336605,-19.249856,-20.385168,-22.278378,-22.922643,-25.12856,-25.526685,-27.531195,-28.480622,-29.912005,-31.189546,-32.621943,-33.456748,-34.973601,-35.472706,-37.012942,-37.732263,-39.035414,-39.447243,-41.04348,-41.012446,-42.71308,-42.546027,-44.033228,-44.14545,-45.383157,-44.857996,-44.672674,-46.592693,-44.970261,-46.264319,-45.284487,-46.189095,-45.568044,-45.782177,-45.736708,-45.577381,-45.461812,-45.054369,-44.964055,-44.284164,-43.934087,-43.545054,-43.248064,-43.115851,-42.468124,-42.508263,-42.301414,-41.554814,-42.141462,-41.018408,-42.352924,-40.4424,-42.028968,-39.979796,-41.53566,-39.949513,-41.544164,-39.496282,-41.399916,-39.594303,-41.037824,-39.561438,-40.890747,-39.260964,-40.503981,-39.628793,-40.994641,-39.846897,-41.485587,-40.308562,-41.409559,-41.054854,-41.492772,-41.395932,-42.593681,-41.444647,-43.124988,-42.202465,-44.026466,-42.890892,-45.156991,-43.570898,-46.083183,-44.903661,-46.610984,-46.066453,-47.293738,-46.398941,-47.759145,-47.308378,-48.180367,-47.8419,-48.802243,-48.501637,-49.267319,-48.894942,-49.389225,-49.200168,-49.441306,-49.043346,-49.554263,-49.184091,-49.459054,-49.277141,-48.890428,-49.233729,-48.203457,-48.817573,-47.676108,-47.792228,-47.038391,-46.641036,-45.884991,-45.642175,-44.978463,-44.356177,-44.108902,-42.909606,-42.763488,-41.852918,-40.983594,-40.138834,-39.27086,-38.63324,-37.325463,-36.974331,-35.538021,-35.387109,-33.781095,-33.94912,-32.489525,-32.301092,-31.585617,-30.826193,-30.308452,-29.596783,-29.347192,-28.485581,-28.530412,-27.215398,-27.993333,-26.351976,-27.033929,-25.130459,-26.321001,-23.459782,-25.091196,-22.737749,-23.558554,-21.468757,-22.278079,-20.468875,-20.797247,-19.786576,-18.894078,-18.251181,-17.861988,-16.633651,-16.823382,-15.301104,-15.418624,-13.870985,-14.000441,-12.684544,-12.631327,-11.00864,-10.958242,-9.1443046,-9.6782359,-7.1902687,-8.2516041,-6.0092855,-6.9473502,-4.8033113,-6.05109,-4.5490535,-4.3333985,-3.6151298,-3.5968538,-2.585717,-2.8838046,-1.9789879,-1.7944051,-1.482992,-1.2367783,-0.2564195,-0.74200383,-0.15669426,0.0089460053,0.47434324,0.24010223,2.0941427,1.583191,2.4828637,2.5742704,3.3358487,3.5648137,4.190998,3.9539705,4.5399083,4.2816876,4.870184,4.5504486,5.2189962,4.5554446,5.176478,4.7221698,5.1918345,5.0532328,5.3255033,6.2022195,6.3243088,10.116893,8.7852459,11.393232,8.9304855,9.1003779,10.156796,11.947769,10.455443,10.042819,7.2724021,10.085136,6.3837311,9.444614,7.101437,10.44711,9.3093432,12.337416,12.220518,15.759187,16.118602,19.500231,20.974544,23.9793,23.979548,24.851078,28.539604,30.116168,32.022683,36.140834,38.396467,42.32907,45.459668,49.225561,52.215621,56.511035,59.229879,63.363416,69.304431,71.972498,73.558023,81.408581,79.344423,86.083099,84.980049,89.165757,88.814052,91.580163,90.623302,92.675681,91.437486,92.562043,91.273101,91.370285,89.469987,88.560942,87.240149,85.343262,83.657721,81.484559,79.283981,76.716541,74.012432,71.536424,68.312895,65.364689,61.872701,58.461682,54.861243,50.897498,47.630766,43.551047,40.232413,35.596042,32.889461,28.568332,24.491506,20.908448,16.953502,13.483781,9.706916,6.2638076,3.1473757,-0.48523238,-3.4197056,-6.4061416,-8.6301556,-11.234179,-13.099952,-15.163714,-16.53337,-18.781191,-20.354567,-21.75695,-22.742439,-24.028725,-25.016097,-25.651152,-26.123914,-26.443472,-26.432208,-26.27489,-26.022555,-25.358298,-24.698892,-22.987994,-21.988658,-19.758725,-18.325559,-15.28048,-14.696582,-11.061345,-14.232614,-10.79477,-13.586112,-9.9980036,-10.231983,-9.9898862,-13.903305,-11.910001,-13.863181,-10.136365,-14.662869,-10.574404,-14.223294,-11.541644,-14.480689,-13.488333,-15.827513,-15.590776,-18.740484,-18.934742,-22.141512,-23.845118,-27.604512,-27.092728,-26.970843,-29.948698,-29.639529,-30.185127,-31.473712,-31.902651,-31.880105,-33.057864,-32.507002,-32.635121,-31.653968,-31.715791,-28.911492,-32.988993,-29.890878,-29.136554,-32.348118,-27.307553,-31.449231,-26.625854,-30.086847,-25.86541,-28.408732,-23.471915,-26.98844,-21.178781,-24.211472,-19.640516,-21.724548,-18.3416,-18.96706,-16.28645,-16.544088,-13.639686,-14.620435,-11.797746,-11.531663,-10.210245,-8.9948305,-7.8814619,-7.2784276,-5.4672927,-5.6041908,-3.657424,-4.1146254,-2.4335684,-2.6039991,-1.100017,-2.0178788,0.21387703,-1.3675304,1.0031299,-0.36797416,1.8123693,0.6852266,1.8189308,1.5291144,1.9356538,1.487051,2.6055701,1.8384625,2.5252342,1.518383,1.5662508,0.22336612,1.0671789,-1.633626,-0.77263825,-2.5847364,-2.9708757,-4.4682456,-4.4812852,-6.5693145,-6.6816881,-8.7489159,-8.7413747,-10.636043,-10.739542,-12.727155,-12.324136,-15.01992,-13.463672,-16.444012,-14.96615,-17.51799,-16.130908,-18.392728,-16.989987,-19.0981,-17.404425,-19.446805,-16.762153,-19.326491,-15.478352,-18.213711,-14.681835,-16.601494,-12.96929,-14.192186,-11.49197,-11.321621,-9.2582024,-7.939247,-6.4484618,-4.7612011,-3.0861781,-1.5515277,0.61460821,1.7413668,5.3847807,5.4983739,9.2248869,9.5330024,12.676584,12.450153,15.732299,16.626095,17.971663,20.598963,21.011133,23.267773,23.642197,26.858715,25.71623,29.45383,28.247746,32.110067,31.522998,33.919463,34.575729,35.510612,37.301518,37.811631,39.753404,38.815886,42.807721,39.96663,44.114372,41.774715,46.036741,44.839035,47.562705,46.833222,49.277102,48.344874,50.999707,50.832,52.343433,53.274513,54.149567,55.016072,55.974812,56.014047,57.340915,57.09372,58.284596,58.204238,58.669747,57.769075,59.492526,56.945781,59.782384,57.39971,58.997723,56.411765,57.03215,55.167762,55.064586,52.558345,52.311415,49.381948,48.452083,45.577901,43.847589,41.090535,38.652448,35.049766,33.279362,29.297091,27.039483,23.35029,20.975708,16.753543,14.445898,10.431072,7.5306892,3.5465885,0.85296646,-3.5014976,-5.9309642,-10.583274,-12.323427,-17.550094,-19.082668,-23.961285,-26.034264,-29.992537,-32.257876,-35.677412,-37.7372,-40.975757,-42.538064,-45.99949,-46.716682,-50.564507,-50.450326,-53.903009,-53.503741,-57.12266,-56.930047,-59.257742,-59.629057,-61.760713,-61.926196,-63.509621,-63.422564,-64.672801,-63.599016,-64.795933,-62.772299,-64.308561,-62.292617,-64.166187,-62.415677,-63.749122,-62.152865,-63.621378,-62.94064,-63.43782,-63.886232,-63.832906,-64.380884,-64.398401,-65.503064,-65.090422,-66.683533,-65.684911,-67.79649,-66.631586,-68.792133,-67.678587,-69.413046,-68.419973,-69.874536,-68.708502,-69.986598,-69.014925,-69.847299,-68.625087,-68.819692,-68.393256,-67.742758,-66.848918,-65.892594,-64.367669,-63.394381,-61.064324,-59.857787,-57.518272,-56.005614,-54.121541,-52.383231,-49.873675,-47.653259,-45.24258,-42.955706,-39.722968,-37.31828,-34.086707,-30.89783,-27.473847,-24.427805,-21.176166,-18.488182,-15.414048,-12.265133,-9.4878291,-6.2132231,-3.5985009,-0.82632795,2.1501086,4.2683184,7.2359184,8.7128707,11.438431,12.61938,15.709255,16.812879,19.23523,20.623097,22.283953,23.765614,24.694945,26.549012,27.064684,28.214522,28.344803,29.590586,28.998512,29.890727,28.959718,29.684004,28.400602,28.62125,27.231929,27.679216,25.563417,26.367975,24.235246,24.452317,22.799139,22.255502,21.062991,20.672916,19.197021,19.150451,17.267458,17.376808,15.329704,15.622552,14.284258,13.750055,13.313003,13.013154,12.974171,13.006963,13.039834,13.875409,13.330173,14.863237,14.438821,15.326389,14.5804,16.52863,15.134255,16.897039,15.839746,17.014009,16.830175,17.816797,17.871936,18.63672,19.021456,19.517293,20.238742,20.876129,21.655471,21.798564,23.192931,23.513297,24.314407,24.581778,25.609424,26.00999,26.835162,27.144584,27.860059,27.627042,29.194961,28.523176,29.506095,29.116703,29.411662,29.01819,29.425234,28.387878,28.779734,27.383824,27.620549,26.229624,26.492992,25.486044,25.878717,24.299364,25.064947,23.572369,24.656694,22.608263,23.346194,22.29834,22.24477,20.875511,21.252822,19.735059,19.824966,18.890326,18.351874,17.777625,17.115343,16.200791,16.49565,14.491916,15.603195,13.605976,14.382934,13.062171,13.372437,12.488001,12.408052,12.476834,12.097061,12.098458,11.939628,12.007,11.461661,11.644943,10.861089,11.681521,10.145409,11.42945,10.095091,10.946805,9.7746064,10.412702,9.3780044,10.097724,8.5080719,9.9906835,8.0349224,8.9346421,7.5981027,8.0602134,6.8196806,7.6180794,5.9818066,6.5180027,5.0263939,5.3937611,3.8722254,4.1620627,2.6572842,1.8258115,1.0495363,-0.1541514,-0.91590337,-2.0018026,-3.1261097,-3.9103447,-5.3112279,-6.1103787,-7.4612657,-8.3843759,-9.6953265,-10.11352,-12.330391,-12.202863,-13.856861,-14.475948,-15.168306,-16.218628,-16.871458,-17.498276,-18.426018,-18.9612,-19.481983,-19.809797,-20.730535,-20.712718,-21.006406,-21.290169,-21.31749,-21.460015,-21.446713,-21.667136,-22.017014,-21.984598,-22.725905,-22.387525,-23.073712,-22.84747,-22.952662,-23.167355,-22.65231,-23.217431,-22.049927,-23.324533,-21.434095,-23.37495,-20.967876,-23.27519,-21.099654,-23.327227,-21.473717,-23.855518,-21.713541,-24.468679,-21.585777,-24.676449,-22.305368,-24.795428,-23.238565,-25.120429,-23.911883,-25.716694,-25.023607,-26.195408,-25.833509,-26.536798,-26.649328,-26.87627,-27.441446,-27.886387,-27.650221,-27.999266,-27.680267,-27.837082,-27.034093,-26.817007,-26.627132,-25.701015,-25.759504,-24.75112,-24.839252,-23.511595,-22.928722,-22.162487,-20.741535,-20.267807,-18.390994,-17.072754,-15.977535,-14.312427,-13.06115,-11.593796,-9.5634813,-8.1849211,-5.4945938,-4.3730174,-2.2544793,-0.27037385,2.1504511,4.3040701,6.4908257,9.7821164,11.024436,14.279392,15.876372,19.101974,20.724678,23.71237,25.531831,28.152672,30.087278,32.644025,34.313311,36.924993,37.805323,40.653197,41.068853,44.248758,44.669349,47.464713,47.961837,50.547519,51.057426,53.427066,54.079608,55.620602,55.704382,57.305412,57.243661,59.029052,58.632761,60.221724,59.717881,60.679659,60.147335,60.712914,60.48238,59.507747,59.894358,58.160838,58.466023,56.340068,56.825409,54.765434,54.41377,53.135686,51.996366,50.860938,49.671931,47.893172,46.797295,44.457991,43.055234,40.476243,39.000541,35.686908,34.891959,30.328396,29.991485,25.308769,24.991954,20.124009,19.853987,15.018352,14.878882,9.2766775,8.9642575,4.1996915,3.3804712,-1.1840697,-2.2354376,-6.3484431,-7.8310318,-10.988457,-13.286021,-15.736027,-17.663579,-20.229663,-21.577239,-23.625514,-24.184161,-26.457016,-27.061754,-28.639302,-29.161771,-30.189596,-30.966791,-31.248541,-31.826865,-32.590508,-32.32912,-32.711988,-32.549928,-33.250694,-32.001133,-32.809535,-31.248979,-32.176179,-30.88255,-30.893802,-29.920282,-29.724638,-28.045725,-28.455105,-26.623663,-27.0498,-25.403226,-24.475361,-23.4759,-22.038128,-21.306483,-19.507174,-19.440908,-17.044162,-17.315208,-14.9118,-14.712654,-13.185863,-12.775083,-12.165137,-11.703242,-11.184407,-10.957011,-11.099943,-10.782092,-10.782758,-10.638662,-10.62158,-11.185965,-11.087033,-11.110601,-11.943305,-11.935124,-12.95123,-13.040388,-14.400557,-14.922216,-15.127304,-16.398097,-15.992214,-17.272832,-17.508046,-18.342401,-19.076701,-19.030222,-19.991115,-19.429027,-20.450923,-19.822705,-20.958181,-20.105003,-20.556648,-19.992302,-20.036089,-20.158831,-19.212028,-19.645363,-18.543573,-18.814473,-17.598395,-17.901504,-16.618106,-16.615999,-15.791458,-15.243504,-14.323503,-13.721023,-13.349959,-12.284634,-12.262937,-10.810718,-10.796526,-9.7033446,-9.08798,-8.320008,-7.2829574,-6.5550923,-5.6019076,-5.4403458,-4.5056352,-3.9129883,-3.5880669,-2.7133326,-2.6219416,-1.6401522,-1.0612307,-0.1652918,0.082827524,1.7077278,1.1808504,3.2346785,2.2814766,4.6483255,3.6663395,6.0349051,5.949209,6.7726895,7.4735431,8.2074896,8.1974663,9.602319,8.9711044,11.128828,10.16981,12.354823,11.931154,13.430891,13.634118,14.94715,14.842584,16.255226,16.387926,17.558966,17.611941,18.97767,19.523988,20.575687,21.512289,22.418656,23.4653,24.286757,25.549208,25.9963,28.162604,27.006322,30.347202,28.833448,31.087116,30.20818,32.054483,31.792497,33.525284,33.133311,34.698611,34.73146,35.947547,36.239839,37.113689,37.293686,38.298029,38.856151,39.16391,39.706956,39.884043,40.368853,40.221036,40.751519,40.677058,40.686143,40.925321,40.096543,40.514705,39.7074,39.708421,38.712343,38.771959,37.365901,36.788388,35.381332,34.95972,33.709375,32.438944,31.382927,29.86346,28.078468,27.254175,24.570582,23.9397,20.815595,19.775216,16.468819,16.195423,12.187655,11.708035,8.0638907,7.0059302,3.4292995,2.5339382,-1.555735,-2.1367046,-5.8537644,-6.9219637,-9.8685638,-10.953493,-14.142351,-15.282664,-18.597878,-19.563527,-22.994392,-24.259189,-27.24232,-28.946666,-31.034802,-33.545866,-34.896811,-37.630458,-38.799566,-41.252148,-42.759318,-44.864833,-46.550552,-48.698949,-50.022528,-52.779267,-51.828133,-55.253366,-53.930982,-56.165878,-55.251423,-57.826698,-56.231252,-58.316432,-56.903259,-59.348277,-57.956748,-60.044152,-59.612667,-61.012566,-60.88036,-61.929874,-61.324257,-62.467239,-61.511316,-62.285367,-61.612482,-61.814127,-61.363122,-60.668488,-60.562638,-60.535224,-59.709512,-59.718587,-58.538355,-57.870108,-57.550227,-55.234694,-55.71777,-52.611357,-52.322464,-49.267516,-48.762366,-45.406667,-44.312511,-40.977482,-39.786434,-36.320674,-34.510141,-30.977805,-29.290044,-25.148432,-23.597593,-19.254244,-17.934808,-13.249754,-11.813787,-7.5058035,-5.3882704,-1.3874176,0.50206963,4.4795383,6.3537923,10.80354,12.215034,16.773839,17.936468,22.620342,23.161228,27.927804,28.815322,32.470783,33.058605,36.356356,37.156816,39.504721,40.145954,42.257815,42.106993,44.443203,43.482139,45.715409,44.63797,46.556932,44.79379,46.696451,44.270945,46.312555,43.750348,45.186237,42.112118,43.79842,40.400367,41.782046,38.658234,38.602986,36.14162,35.171542,32.877718,31.800387,29.23358,27.666455,25.503439,23.524272,21.751037,19.512433,18.122806,15.995304,14.418357,12.625684,11.354357,9.9710325,8.4505217,7.6164685,6.5197284,6.3405124,6.859549,4.9626327,6.6581622,4.5701409,5.9731084,4.3761833,5.5137414,4.0644397,4.9367629,3.5558213,4.3464023,2.9100872,3.565385,3.0395115,3.4870936,3.0495102,3.1858489,2.7417465,2.4336034,-2.7655263,6.9496171,-3.6568893,5.9256929,-2.7884148,4.2155116,-2.4847019,3.5606537,-2.1950175,3.1404937,-1.8004376,2.6785186,-1.7641593,2.0779967,-1.4751589,1.5278039,-4.645635,3.8307895,-4.5317311,2.8996173,-3.9926344,2.2807142,-3.5921823,1.3149817,-4.8870188,1.8971465,-5.0141785,1.4250998,-4.6855461,0.45771952,-4.4694161,0.082039153,-4.9255962,-0.089464194,-5.0761263,-0.43596503,-4.2417914,-0.48255764,-3.8254618,-0.40311,-3.9892045,-4.6018594,1.3679733,-4.89523,1.9859961,-3.1734447,2.5622386,-1.9247291,3.2403046,-1.9651758,4.9097427,-1.0734532,5.2779884,-0.24588148,5.6266213,0.67838572,5.7051233,-2.4596368,9.157399,-1.9172514,8.903274,-0.36886519,8.9830578,0.65506059,8.4823144,-0.88561555,4.3587262,5.5548028,2.7684805,5.2948741,3.7766496,5.3940756,4.0585571,5.1129305,3.7531425,4.8671283,2.8601118,4.1889149,2.3197734,3.8254379,2.3120774,3.0996238,1.6485636,2.2122794,0.85278306,1.3406375,-0.31768987,0.29508064,-1.6164832,-1.0501731,-2.7346884,-2.0053177,-3.8229547,-3.1190628,-4.8192528,-4.0531039,-5.387512,-4.6862046,-5.7215481,-5.3766544,-5.9292951,-6.8085521,-11.926702,-7.2284783,-7.0909208,-7.604491,-6.7280011,-7.0232254,-6.4750099,-8.9693663,-10.836522,-3.4658462,-16.35183,-3.6940042,-12.539236,-3.0751543,-16.208677,-3.9999007,-16.093878,-6.0804171,-15.935125,-7.273191,-15.766811,-7.8752598,-15.476971,-3.2455741,-19.441484,-0.011831519,-20.104474,-1.1518329,-18.054746,-2.6018992,-16.596201,-3.3930763,-11.891767,0.61431051,-15.893649,0.69820266,-14.94989,-1.0238772,-13.817644,-1.8968969,-12.719416,-1.6871521,-11.479565,-1.2548665,-9.9676891,-1.4096769,-9.2309478,-2.205581,-8.6355576,-2.0334531,-2.9698357,-6.1673272,-1.8501036,-5.5990616,-2.6224988,-5.6598143,-3.2280046,-5.7303534,-2.8632252,-7.19072,-3.4045077,-7.8898169,-4.2799688,-8.8862072,-5.833586,-9.6912591,-1.7183387,-12.516928,-1.2144988,-11.902222,-1.666507,-11.535336,-2.6206821,-10.711861,0.26459493,-3.1147839,-2.4402014,0.64792198,0.92824124,3.0308319,3.8856131,5.8799526,7.031228,15.849179,5.3507023,18.606238,9.6452441,20.05686,12.903856,20.813655,15.810444,22.398244,18.627762,25.084068,19.682695,27.15273,22.177248,34.682801,25.230188,37.247793,29.222988,38.730389,31.833266,39.559182,33.48339,35.531534,34.453168,37.535167,33.972623,36.080911,33.952274,41.573879,35.663786,36.379369,34.185552,33.805829,30.717888,28.345173,26.82627,27.68592,23.490762,25.287591,20.866368,18.101522,13.16843,16.851616,8.3178658,11.566861,4.4815716,7.0408366,0.64871337,3.0750686,-2.6959039,-0.55204412,-12.316139,-1.3790024,-15.393704,-6.1700767,-17.404098,-9.5516335,-18.822482,-11.856087,-19.859651,-17.277475,-26.054529,-16.3657,-27.215191,-18.449383,-26.428484,-19.151371,-25.273967,-18.191983,-23.95648,-17.401825,-22.812234,-16.546346,-21.374583,-15.776402,-19.245832,-15.132151,-17.442393,-13.499292,-15.820359,-11.512766,-13.799119,-9.619367,-11.662217,-8.403103,-10.193991,-7.0398168,-8.3524919,-6.2401999,-6.8693301,-5.4204909,-5.0903423,-4.0592366,-3.8341699,-3.2801811,-3.0019846,-3.0000063,-2.3879814,-2.6952061,-1.6456475,-1.5572737,-0.83879259,-0.44997795,0.041195551,0.29526791,1.1583663,0.60466842,1.6533654,1.6010434,1.8790212,1.9123105,-6.2360799,4.1600084,-7.054375,