ConstAcc,0.5,0.29947,-140.95002,-100.44245,-66.117494,-37.499262,-14.131761,4.4214575,18.577667,28.735339,35.27451,38.557153,38.927545,36.712634,32.222414,25.750288,17.573443,7.9532136,-2.8645451,-14.64909,-27.184418,-40.268903,-53.71492,-67.348478,-81.008853,-94.548218,-107.83127,-120.73487,-133.14766,-144.9697,-156.11211,-166.49669,-176.05555,-184.73073,-192.47386,-199.24578,-205.01613,-209.76306,-213.47279,-216.13928,-217.76383,-218.35475,-217.92696,-216.50164,-214.10583,-210.77211,-206.53818,-201.44653,-195.54405,-188.88166,-181.51396,-173.49882,-164.89707,-155.77209,-146.18943,-136.21648,-125.92209,-115.37616,-108.38395,-98.275512,-88.655281,-80.930593,-71.81137,-61.291446,-50.567793,-41.317887,-33.959118,-27.597334,-21.607463,-15.535246,-9.6030861,-3.9222296,1.4799004,6.7244219,11.671962,16.089313,19.828012,22.853018,25.037445,26.289938,26.560886,25.615815,23.470764,20.551374,17.545525,14.840923,12.806541,11.463127,10.753216,10.576872,10.919962,11.529178,12.336899,13.176494,14.101201,15.13408,16.293512,17.568982,18.86803,20.307282,22.050121,24.050299,26.233221,28.43833,30.489799,32.415187,34.319874,36.153939,37.912199,39.710845,41.679109,44.052407,46.631168,49.196094,51.648624,54.005715,56.337796,58.641797,60.792323,62.83089,64.60274,66.26663,67.820131,69.062859,69.915253,70.463459,70.839002,71.141863,71.209054,70.968056,70.423951,69.586474,68.572998,67.531633,66.503438,65.602943,64.908975,64.429127,64.128358,63.931721,63.942028,64.253593,64.971676,66.119397,67.549359,69.246355,71.275089,73.421088,75.334292,77.005587,78.458973,79.968379,81.419906,82.728594,83.940227,85.113318,86.383391,87.627318,88.8488,90.148321,91.460808,92.921702,94.485948,95.843092,96.872698,97.805918,98.939371,100.36113,102.07786,104.03011,106.3352,109.0343,112.10371,115.29812,118.61019,121.89672,125.2394,128.61718,131.93253,135.16025,138.37345,141.48849,144.53497,147.45759,150.21809,152.7807,155.28319,157.77155,160.13259,162.35103,164.43645,166.4049,168.44593,170.72188,173.24684,175.66878,178.02982,180.24656,182.2344,183.968,185.5589,187.07187,188.51998,189.82424,190.91168,192.00503,193.13776,194.4336,195.68968,196.92021,198.11297,199.07009,199.74503,199.93442,199.69183,199.17294,198.55441,197.50944,195.89521,193.98262,192.13662,190.77877,190.01347,189.68392,189.67582,189.92305,190.36721,190.62487,190.71411,190.72956,190.89251,191.42692,192.39828,193.55428,194.79648,195.96268,197.21174,198.64039,200.01182,201.28502,202.50811,203.71453,205.04407,206.41304,207.66577,208.81395,209.84811,210.86968,211.82647,212.51375,213.3571,214.58218,216.05445,217.14937,217.44113,216.97149,215.91352,214.45331,212.4609,210.02681,207.19607,204.22703,201.15091,198.15239,195.38031,192.36813,189.02692,185.15018,180.687,175.69026,170.01992,163.84978,157.43173,150.85,144.13061,137.81361,132.30775,127.27256,122.25072,117.04977,111.54519,105.95432,100.34404,94.741727,89.133659,83.562916,78.275184,73.383747,68.765529,64.447826,60.320052,56.274334,52.801754,49.886508,47.188975,44.726002,42.714741,41.253208,40.344299,39.834727,39.710264,39.974686,40.839981,42.163559,43.683829,45.067324,46.66903,48.631276,51.061077,53.886005,57.121842,60.738564,64.880492,69.316945,73.952189,78.752008,83.677799,89.097503,94.708209,100.39088,106.04273,111.64908,117.4929,123.58594,129.49917,134.76809,139.16278,142.8661,146.46646,150.52623,155.10478,160.16989,165.53635,171.04743,176.35651,181.04798,184.7335,188.06259,192.04342,196.76589,202.25785,208.11155,214.35282,220.74271,227.05548,233.21611,239.50856,246.04954,252.57956,259.03871,265.34918,271.56468,277.99889,284.52113,290.79496,296.50913,302.0772,307.82772,313.90433,320.10768,326.4716,332.51882,338.08015,343.12536,347.62523,352.08841,357.04199,362.18668,367.03333,371.34611,375.06148,378.24717,381.22212,383.98361,386.35011,387.67168,388.37323,388.64339,388.8001,388.89401,388.7343,388.4717,388.35539,388.21789,388.04675,387.75284,387.13095,385.92123,384.40356,382.74686,380.82453,378.81172,376.78839,375.01548,373.26498,371.58565,369.93578,368.34859,366.81697,365.56246,364.31365,363.01619,362.10907,361.54928,361.11639,360.62185,359.82223,358.70286,357.32184,355.77981,354.27719,352.7096,351.52311,350.79548,350.46357,350.2146,350.27803,350.6356,351.41016,352.44759,353.82619,355.28676,356.89418,358.48838,360.0769,361.57492,363.06262,364.75555,366.57228,368.49094,370.57051,372.68137,374.71117,376.56936,377.62342,377.62235,376.48057,374.93566,373.87102,373.60794,373.79041,374.18359,374.53895,375.0399,375.18131,374.72553,374.1524,374.13857,374.78377,375.70156,376.73069,377.84039,379.03756,379.87447,380.15614,379.70059,378.59811,377.01473,375.30115,373.76754,372.4647,371.23737,370.00081,368.47462,365.97816,362.44245,358.42213,354.26134,350.32909,346.56443,343.09808,339.56663,336.4036,333.55605,330.89883,328.45535,325.76793,322.36027,318.51215,314.41127,310.37411,306.31971,302.64428,299.2473,296.24807,293.04953,289.81899,286.6797,284.05337,281.74623,279.52224,277.20038,274.96958,272.93851,271.6619,270.4482,269.24634,268.13578,267.40245,266.8441,266.34686,265.91887,265.54673,265.70833,266.20712,266.94901,267.80184,268.81162,270.04215,271.69267,273.42586,274.9185,276.40389,277.83701,279.18767,280.15715,280.44469,280.6187,281.37196,282.67562,284.04264,285.27114,287.02333,289.13615,291.41688,293.17097,294.52109,296.04365,297.91605,299.70308,300.92752,301.29524,301.47831,301.55669,301.47153,300.9722,300.17785,299.31809,298.44974,297.27482,295.36472,292.46353,289.04525,285.66839,281.75953,277.02975,271.64634,267.09818,263.86651,261.13079,258.0769,254.37243,250.534,247.05419,243.68144,240.01881,235.91456,231.22688,226.98391,223.76515,221.29351,218.95663,216.67635,214.36111,212.43936,210.3663,208.25954,206.74641,206.25808,206.29401,206.07243,205.13249,203.45411,201.35177,198.79785,196.84388,195.92919,195.78887,195.66998,195.12289,193.72059,191.28524,188.56109,186.04869,183.56448,180.93584,177.7354,174.50465,171.55126,168.71242,165.71841,162.46451,159.62657,157.12411,154.63098,151.62069,148.00364,144.43694,141.40013,138.84846,136.11655,133.04804,130.0806,127.79106,126.52994,124.88259,122.14616,118.4921,114.95596,111.63451,109.21333,107.2827,105.94438,105.79411,106.39485,107.43105,107.98587,108.31299,109.05201,110.48043,112.31474,113.47332,114.85231,116.90332,119.7726,122.88237,125.54654,127.92102,130.91176,133.80319,136.58126,139.41643,142.48271,145.93554,149.90093,153.68678,157.33884,161.04643,164.73372,168.29812,171.69497,174.96865,178.38681,181.98577,185.76435,189.51092,193.60444,197.08661,199.83628,201.87213,203.13624,203.77811,204.01957,204.11953,204.086,203.62208,202.37787,201.20545,199.65891,198.18003,196.3659,193.10715,188.90207,184.15529,179.37294,173.85619,167.76689,161.38904,155.93302,151.5265,147.36672,142.7956,138.14457,133.42556,129.11915,124.97956,120.8863,117.22739,114.03589,111.38429,109.34923,107.63866,106.21719,105.54459,105.8508,106.993,107.78418,107.5058,106.72696,105.51172,104.87374,105.14333,106.0345,107.86118,110.25211,113.26638,116.0636,119.00146,121.92804,125.6983,129.90504,134.27294,138.29747,141.83587,145.10456,148.57489,151.94758,155.23648,158.57197,161.35022,163.5092,165.54755,167.41348,169.24893,170.73091,171.27303,171.06616,170.27694,170.00079,170.54042,171.93765,173.01256,173.65752,174.04126,174.04172,173.70962,172.37798,170.6111,169.56325,168.93427,167.77543,165.6132,162.99002,160.07337,157.12608,153.79445,149.56105,144.67291,140.07408,135.56722,131.13289,126.43652,122.41223,118.56884,114.58353,110.32872,105.77073,100.88288,96.103016,91.538957,87.414259,83.435723,79.61181,75.993121,72.83795,70.131038,67.418805,63.491465,59.331394,55.619352,53.348933,52.388367,50.976205,49.029497,46.819133,44.504141,42.087295,40.485885,38.720408,37.076949,34.786913,32.024565,29.466502,26.956577,25.072197,23.322136,22.131499,21.029405,20.356945,20.22216,20.52158,20.905316,21.289489,21.769612,22.687702,24.02302,25.143783,25.456678,25.493967,26.040366,27.632685,29.861204,32.45725,35.257543,38.245993,41.205909,44.668493,48.171682,51.462335,54.823164,59.395226,64.163057,68.364179,72.067781,75.597569,78.968722,81.837164,84.356047,86.725586,89.380911,91.614578,93.46411,94.596327,95.532479,96.448563,97.460639,97.89474,97.396354,96.340687,95.024808,94.321015,93.810207,92.968935,91.6039,89.982744,88.609936,86.873494,84.298485,81.627683,79.101886,76.829905,74.537723,72.061647,69.408219,66.708693,64.36125,61.837864,59.299628,56.839136,53.943928,50.76703,47.599375,44.240212,41.023985,37.905452,35.005552,32.17534,29.136479,26.488285,23.920875,22.009286,20.979579,20.693629,18.71534,15.754997,12.638283,9.5092348,6.4893966,3.7242752,1.6735341,0.44749375,-0.35359541,-0.86774135,-1.4451598,-1.655378,-1.2596789,-0.51179634,0.19919211,1.4246989,3.3246782,5.7871238,7.8234181,8.1881154,8.2230553,8.8765298,10.304685,11.966158,13.519948,14.326359,14.833119,15.655026,17.086617,17.931437,18.081537,18.104785,18.301449,18.61114,18.429377,17.834646,17.006683,16.171857,15.045935,13.176488,10.822032,8.0103464,5.3747421,2.4326781,-1.3123958,-4.2943005,-6.3698541,-7.4517694,-7.9506286,-9.3869349,-11.37471,-13.744018,-15.510373,-16.568976,-18.118826,-20.372726,-22.369268,-24.312504,-26.538089,-29.046262,-31.853266,-34.344926,-36.382249,-38.217257,-40.251722,-42.570143,-45.130051,-46.778575,-47.761881,-49.081995,-50.86818,-52.828776,-54.857483,-56.700601,-58.517981,-60.396305,-61.566974,-62.170063,-62.726088,-63.554987,-65.677825,-68.532452,-70.981447,-73.139403,-74.444387,-75.585198,-76.328753,-76.369591,-75.781468,-74.941106,-74.479825,-73.667061,-72.746635,-72.311707,-71.976864,-71.199848,-69.478984,-67.00866,-64.445562,-61.837605,-59.500536,-56.960278,-54.185573,-51.213064,-48.032694,-44.622321,-41.902578,-38.798981,-36.156838,-34.848294,-33.808632,-31.892816,-29.41913,-27.51814,-26.53056,-26.383362,-26.479641,-26.79481,-27.410738,-28.727219,-30.81992,-33.255628,-35.654224,-38.192412,-40.909916,-43.981293,-47.621663,-51.154584,-54.520787,-58.23019,-62.224791,-66.415851,-70.684298,-74.661124,-78.597606,-82.604336,-86.785398,-90.44933,-94.429979,-100.1858,-106.68655,-112.72449,-116.77718,-119.80214,-122.50689,-125.54126,-128.51313,-131.17841,-133.22332,-135.01079,-136.28653,-137.65219,-138.29201,-138.70124,-139.05311,-138.99977,-138.80472,-138.24251,-137.28971,-136.95473,-136.77938,-137.02794,-135.7825,-133.1708,-131.09486,-130.36213,-130.12962,-129.69895,-128.62327,-127.5292,-126.78787,-126.52905,-126.02583,-125.38461,-124.53635,-124.22496,-124.17634,-123.70082,-123.59692,-124.11913,-125.19699,-126.59222,-127.77148,-128.36684,-129.226,-130.57237,-132.39861,-134.60344,-137.90542,-141.96292,-146.87683,-151.94623,-156.18933,-159.9051,-163.50441,-167.8756,-172.71719,-177.47404,-182.00067,-186.73337,-191.97014,-197.43837,-203.29469,-208.60462,-212.83303,-216.35859,-219.7258,-223.68808,-228.0193,-231.61559,-234.61376,-237.08125,-239.14407,-240.13496,-240.32319,-240.31014,-240.38809,-239.58739,-237.97386,-235.31718,-232.40163,-231.31217,-230.65744,-229.58779,-227.55772,-225.05265,-222.61173,-220.14393,-217.55095,-214.57503,-211.54382,-208.88135,-206.27977,-203.27993,-200.16611,-197.48533,-194.9672,-191.73586,-188.58954,-186.63913,-185.34351,-185.10082,-185.01225,-184.6129,-184.45925,-185.04513,-186.88208,-189.5433,-192.92176,-195.99544,-197.40496,-198.28205,-199.44091,-201.69892,-204.36574,-207.70668,-211.168,-214.80104,-218.24555,-221.21582,-224.61548,-228.74496,-232.66917,-236.11547,-238.41435,-240.9926,-244.69341,-248.59087,-251.95665,-254.88247,-257.58137,-260.17897,-262.27135,-264.71344,-268.13448,-271.41939,-274.78335,-277.52076,-279.65238,-281.52879,-283.44618,-285.75233,-287.83201,-289.13208,-289.72728,-290.22193,-290.91931,-291.60624,-291.35995,-290.28638,-288.80375,-287.35862,-286.49207,-285.94349,-285.29201,-284.12108,-282.94273,-281.11153,-278.64538,-275.33419,-271.96415,-268.68416,-265.22314,-261.05743,-256.56223,-251.84338,-247.58299,-243.36762,-239.02295,-234.55476,-230.47593,-227.02913,-223.6812,-220.69618,-216.39814,-212.0477,-209.22256,-208.12187,-206.84941,-204.50768,-202.60436,-201.78638,-201.67515,-201.94755,-202.18707,-203.09115,-204.9004,-207.41376,-210.22824,-213.01862,-216.27245,-219.88809,-223.09209,-226.01646,-228.73086,-232.00825,-236.69913,-241.96578,-247.14969,-251.53289,-256.00496,-261.2815,-266.66888,-271.93634,-276.79709,-281.54669,-286.13082,-291.34418,-297.53604,-303.67849,-308.78733,-313.83078,-318.51524,-321.86718,-324.6676,-327.37402,-331.16887,-335.30593,-338.87591,-341.31584,-343.52462,-346.4846,-349.92307,-353.13791,-355.23551,-356.9876,-358.46328,-359.93977,-361.41852,-361.89907,-361.87867,-361.37734,-360.49855,-359.03414,-357.17789,-356.36013,-356.37498,-356.28555,-355.88069,-354.18834,-351.1861,-347.82741,-344.68059,-341.35094,-336.87296,-332.01376,-327.5345,-322.29299,-317.07294,-311.4863,-305.77913,-300.52254,-295.14388,-289.78073,-284.32355,-278.94422,-274.02436,-269.49116,-265.36865,-261.64757,-258.31429,-256.47089,-255.48638,-254.36487,-252.283,-249.86464,-248.44379,-247.4237,-246.0157,-244.88749,-243.9733,-243.07216,-243.06013,-243.41657,-243.95715,-244.12279,-244.40864,-245.57967,-247.30507,-249.0064,-250.54439,-251.89773,-254.29191,-255.57286,-255.43718,-257.19971,-261.59968,-266.72862,-271.34541,-275.73193,-280.40507,-285.61171,-291.39999,-297.85003,-304.02154,-309.85937,-316.07838,-322.93162,-329.80392,-336.16403,-341.96509,-347.76266,-354.16968,-360.35181,-366.51317,-372.89434,-379.72319,-386.9546,-393.68821,-398.93458,-403.65278,-408.25929,-412.59304,-416.81204,-420.01594,-422.67835,-424.4786,-426.23606,-428.21439,-428.83864,-428.23726,-427.27635,-426.14631,-424.663,-423.97146,-422.21644,-419.93916,-417.77399,-416.20541,-414.27841,-412.0908,-409.64673,-407.60374,-405.79177,-403.98243,-402.0319,-399.88335,-398.28485,-397.1369,-395.6119,-394.14449,-392.99133,-392.51534,-392.84545,-393.63014,-394.36949,-393.91117,-393.09883,-392.86356,-392.86624,-392.27176,-392.05326,-392.4181,-393.15205,-393.61319,-393.99118,-394.31375,-394.68241,-395.81508,-395.93442,-395.70253,-395.7383,-395.82298,-396.50327,-397.04349,-397.64544,-398.41986,-400.16016,-402.2947,-404.07209,-405.37922,-406.7285,-408.05887,-410.67673,-414.04799,-418.0179,-421.37468,-423.77271,-425.57579,-427.27505,-427.89712,-426.81217,-425.33846,-423.53623,-420.346,-415.97781,-411.12657,-406.25282,-400.87909,-394.94334,-388.01188,-380.09169,-372.39928,-364.20496,-357.36376,-351.32587,-345.12259,-338.42881,-331.8435,-325.74846,-319.72302,-314.3535,-309.32015,-304.99305,-300.72609,-296.57104,-292.93653,-289.95335,-287.66493,-285.89371,-284.31905,-283.25491,-283.2176,-284.09219,-285.72587,-287.35593,-289.63098,-292.36806,-295.26986,-298.28428,-301.72224,-305.71658,-310.35653,-315.68238,-321.40347,-327.07299,-332.0543,-336.79512,-341.7974,-346.60565,-351.41135,-356.5576,-362.12744,-368.42225,-375.52926,-383.24073,-391.99397,-403.32678,-416.95327,-430.15129,-443.43921,-456.66728,-470.06729,-483.02926,-495.4837,-506.67359,-517.05201,-526.81609,-536.03825,-544.23562,-552.20736,-559.79649,-565.78492,-569.87235,-572.31249,-573.13061,-572.65774,-572.4261,-572.66942,-571.27982,-567.29987,-562.18435,-556.49554,-550.54846,-543.80789,-535.65723,-526.58255,-516.63829,-506.66391,-495.94757,-485.28116,-474.45983,-463.78761,-453.32385,-442.95194,-433.16784,-423.44919,-414.43395,-405.75292,-397.86915,-390.54363,-384.35522,-379.95539,-376.94018,-373.17094,-368.83981,-364.69109,-361.80235,-359.13369,-355.1986,-350.08991,-345.50687,-343.5704,-342.32001,-339.15247,-335.68189,-333.20615,-331.81603,-331.12421,-329.52576,-326.94941,-325.19404,-324.99963,-325.50953,-325.02281,-323.93947,-323.26544,-324.13918,-326.04921,-327.58897,-328.4507,-328.88958,-329.80295,-330.91233,-331.35401,-331.03664,-330.7903,-331.60883,-332.75357,-332.42686,-330.82401,-329.82147,-329.58922,-329.55263,-328.10159,-325.02314,-322.32293,-320.17934,-317.82589,-314.13388,-308.4422,-302.84314,-297.28195,-291.49125,-283.74741,-274.02714,-263.34519,-253.11362,-243.4196,-234.13505,-224.54687,-216.01548,-209.85429,-205.15551,-200.82996,-196.32546,-192.42954,-191.21309,-190.9846,-189.46858,-187.45956,-185.45257,-184.7392,-184.57111,-184.53624,-184.01846,-183.76512,-184.7471,-187.73848,-191.20248,-193.89754,-195.37247,-195.73076,-196.89375,-198.26218,-198.86612,-199.50817,-200.82763,-202.56723,-203.56827,-203.29544,-203.45092,-204.35592,-206.09117,-207.00392,-206.75891,-206.41115,-206.73741,-208.03469,-207.11448,-204.67767,-203.05071,-203.53061,-204.08972,-204.7096,-204.94668,-205.01763,-206.03708,-207.61701,-209.19863,-210.43816,-211.2494,-212.96858,-214.7514,-215.95546,-217.92045,-218.77762,-219.49951,-220.8,-222.50766,-224.64503,-227.28139,-230.89319,-233.42949,-235.27451,-238.13256,-241.73259,-245.44097,-249.01616,-252.03049,-255.56542,-259.7384,-263.79464,-267.68612,-270.80788,-274.05998,-277.95287,-282.92699,-288.15529,-292.08969,-294.79062,-296.62643,-299.11189,-300.91798,-301.63336,-301.66566,-301.50154,-301.328,-300.37563,-298.04611,-295.26468,-292.74539,-289.50843,-285.21098,-280.50522,-274.4783,-269.12578,-263.20297,-256.63531,-249.9726,-242.10885,-233.8563,-225.27609,-216.0162,-205.66459,-194.66054,-183.24601,-172.80713,-162.16331,-150.96875,-139.43198,-128.2403,-116.9237,-105.31018,-92.020293,-78.972828,-67.440133,-56.95533,-46.341411,-35.446643,-24.499721,-14.636618,-5.9951674,2.7702211,11.234759,19.544751,27.030435,32.726523,38.240574,44.320419,51.284429,57.237286,62.208226,65.974844,70.218616,74.414333,78.172838,80.679861,83.304102,85.871866,88.598328,90.53721,92.015322,92.998498,94.347633,95.234692,95.45093,95.821858,96.677721,98.530784,99.001235,97.889837,96.881117,96.989102,97.375782,98.190731,98.889233,99.751989,101.37787,103.19606,105.03143,106.37136,107.5366,108.96897,110.62363,112.30587,114.69479,115.09079,114.70332,114.97771,115.9613,117.40391,117.43651,117.7821,118.67085,119.35025,119.49859,119.6355,119.58784,120.18513,120.48751,121.42685,121.62124,120.91491,120.35808,120.13444,119.2564,117.70071,116.14727,115.55,115.76044,115.57741,114.7344,113.69641,112.49531,111.45975,110.59067,109.36089,107.82602,106.90959,105.99336,105.01244,103.49669,101.41825,99.179677,97.837385,95.587962,93.262397,90.279952,87.933489,87.222294,86.67143,84.53817,82.040274,79.741064,78.113897,76.313121,73.878134,71.594874,69.926977,68.031715,66.242111,64.51513,62.044363,60.284524,57.778565,54.801132,51.798535,48.902616,46.290593,43.722726,40.847105,38.245119,35.139181,31.700388,28.217007,25.274163,21.82591,18.832,15.4893,12.815399,10.209596,6.9492988,3.5500309,0.52122045,-1.8221164,-4.1544512,-7.5257043,-10.711722,-14.240959,-17.379006,-20.993495,-25.111902,-29.689514,-34.671249,-39.180312,-42.398832,-45.10413,-48.630946,-51.853721,-54.45577,-56.451681,-58.784443,-60.530204,-61.947334,-62.812044,-63.146054,-64.029737,-65.63932,-65.989539,-66.085623,-66.927181,-68.193568,-70.036564,-71.323351,-72.3361,-72.771959,-73.945852,-75.01556,-75.849405,-76.142604,-76.358917,-76.629689,-76.832318,-76.802411,-76.71961,-75.933004,-74.258707,-72.995147,-71.257369,-69.190369,-65.68136,-63.263094,-61.439128,-58.979846,-55.592123,-52.195617,-48.431689,-45.134254,-41.76164,-37.264203,-32.445174,-27.589683,-23.049028,-17.627068,-11.159627,-3.9949777,2.8587429,9.5343544,17.064225,25.086661,33.774439,42.242662,50.140051,58.507573,67.233851,77.121254,87.523767,97.717293,108.44652,119.51946,130.72577,141.19557,151.42523,161.9004,173.02138,184.4711,195.40489,205.62216,215.43248,225.56947,235.99364,246.28616,255.24507,264.98968,274.67039,283.6236,292.16427,299.9258,307.39973,314.7566,322.0147,328.74252,334.24227,339.21825,344.82337,351.36093,357.00327,361.87731,366.32186,371.10509,376.13463,380.44097,384.44282,388.02923,392.05831,395.44568,398.48354,400.99427,403.22103,405.275,407.67731,409.07407,408.26219,408.2842,410.09884,412.0349,412.68534,413.09726,413.86419,414.43821,415.11792,415.56052,416.62792,416.34167,416.84815,417.7831,418.9434,419.50872,420.06286,418.91645,417.90657,416.53619,416.3865,415.77192,414.87709,413.42875,410.91187,408.45322,405.23447,401.56551,398.47535,395.49633,391.18511,386.56139,382.34458,378.50162,374.5753,369.8252,364.70063,359.88224,355.16458,349.87551,343.9335,338.09214,332.82869,327.93681,323.46038,318.13936,312.3956,307.97284,304.21883,300.5721,295.87466,291.55026,287.6421,284.392,281.62468,278.3547,275.22392,272.07986,269.7635,267.38641,264.4169,261.8518,260.1724,260.68226,261.65534,261.86378,260.79968,260.20381,260.47178,260.14651,260.20511,260.53654,260.38512,261.02686,261.89801,262.66345,263.50507,264.5463,265.53662,266.18577,265.62795,266.15554,266.54942,267.07864,268.33966,269.87918,271.11419,272.57865,274.40422,277.04924,278.95657,280.56329,282.80399,285.09613,287.64863,290.34027,291.50252,293.38737,295.27242,297.32533,299.22499,300.03968,300.8322,301.56372,302.53016,302.61884,301.73964,300.93981,301.4236,300.3724,298.85132,298.29327,297.26267,295.68682,293.5394,291.90273,289.32539,286.11838,283.79584,282.28128,280.41032,277.42354,274.45977,270.54295,267.66503,265.19292,262.5919,260.18508,258.53369,257.1525,256.65795,254.43946,251.69702,249.02456,247.28734,245.68235,243.13133,240.33832,238.67263,237.69042,237.00106,235.08191,231.99426,229.34997,226.69889,224.15105,220.55163,216.94659,212.03148,208.80278,204.28228,200.0895,196.23232,191.44088,187.82056,183.82344,179.45713,175.77052,171.84725,168.40354,165.15318,162.64209,159.91743,157.4301,155.49545,153.13948,150.692,148.3691,147.56699,146.84225,146.98313,147.2759,147.36026,148.59857,149.57984,150.0621,149.59813,149.95232,150.72149,151.74843,153.2989,153.69156,153.58956,154.38753,155.37763,155.31875,154.03858,151.71963,150.31985,149.57148,149.25547,149.50636,149.46782,149.2662,149.90402,150.5498,150.68411,150.82603,151.05113,151.23406,152.3662,154.40343,154.70738,155.16121,155.65796,156.0813,155.33092,155.30734,154.97766,155.16871,154.96274,154.21559,153.01571,151.80414,151.39176,150.98885,150.18493,148.60894,146.99086,144.71627,142.59511,140.71002,138.55434,135.77592,132.94999,130.93387,128.19202,124.46111,121.53561,118.28668,114.96504,110.56836,106.89419,103.73376,102.10366,100.52486,97.492119,93.816996,90.659364,88.200785,85.872151,83.078977,80.307068,78.421832,76.726717,75.41381,74.312265,73.340163,73.128558,73.576661,72.983917,72.755591,72.464044,72.094827,71.968004,72.540432,72.566781,72.601016,71.856236,73.278042,74.060235,75.253062,75.687934,75.606077,77.471126,79.463897,80.898375,81.977162,83.541284,85.945917,88.021839,88.626855,88.59219,89.115015,91.298764,93.652071,95.917052,98.696706,102.05451,104.75354,108.90825,112.19355,114.89111,118.3781,122.25257,126.2786,128.83293,130.72047,132.99683,135.62142,139.14423,141.35165,143.47552,144.74322,146.75954,148.37212,150.23846,151.84744,153.26072,154.94429,156.36678,157.86549,158.38443,158.72993,159.58281,160.49182,161.39751,161.36309,162.5969,164.34258,165.07172,164.36434,161.72957,159.27396,156.30027,153.95391,150.45005,146.65243,141.37658,135.84649,131.40874,126.04513,119.64822,112.9258,106.58029,100.33178,93.821028,86.325067,79.759301,73.291613,67.353726,60.717171,54.825621,48.428086,42.642329,37.649215,32.812116,27.618006,22.637875,18.685536,15.088334,11.993741,9.3317823,5.3342764,1.4947979,-1.9353576,-4.4510595,-7.8579903,-9.4398387,-10.410565,-11.729672,-12.99994,-14.025817,-14.296478,-14.481344,-13.733832,-12.440882,-11.67772,-10.722808,-8.5302372,-5.5891106,-2.216574,-0.27547947,1.3658388,5.1964012,9.5265152,13.486325,16.878089,20.019377,23.304224,28.015717,32.774901,37.092499,40.96535,45.631343,51.060844,55.942032,60.138429,64.171572,67.883643,71.637871,75.110478,80.002524,84.748855,89.602191,94.08076,99.434893,103.88907,106.87256,109.84874,114.32611,117.11664,120.24434,122.5963,125.28197,126.75118,128.36465,130.84333,133.12493,135.54519,138.32524,140.10424,142.34863,143.40203,145.43706,147.49254,149.44001,151.05985,151.69759,152.34789,154.00161,155.42894,156.46886,157.22872,158.6579,160.58678,162.55151,164.22094,165.57248,165.47795,165.04122,166.32643,166.45647,165.88832,165.32994,165.18532,164.80901,163.92049,161.92903,161.06887,160.65151,159.40248,157.86153,155.80815,154.28483,152.27131,150.13404,148.08406,145.80957,143.30178,141.56661,139.66202,138.18319,135.26313,132.57911,131.07122,128.90467,126.36985,123.32844,121.07318,118.03347,115.93945,113.35455,109.8645,107.7119,106.23326,104.19309,101.54707,99.054647,95.063484,91.039411,87.932827,84.549415,80.546674,76.133178,72.131158,68.378645,63.969543,59.57094,55.338597,50.902132,47.288232,43.473911,38.739612,34.441782,30.084873,25.983273,21.693452,17.322432,12.823036,9.9702171,7.0423969,3.7244359,0.33440182,-2.8234329,-5.4276634,-8.0787344,-11.109386,-13.713995,-16.600643,-19.182458,-20.948982,-20.632259,-21.776558,-24.146097,-25.674651,-26.528791,-28.216114,-30.885554,-32.957205,-34.30746,-35.600354,-36.444159,-38.141645,-39.341844,-40.675979,-41.025009,-41.039923,-41.942852,-42.278922,-42.117487,-41.807115,-41.196154,-41.11538,-40.22116,-39.774092,-38.560801,-37.280212,-37.175302,-35.859268,-34.113906,-33.153547,-31.745502,-30.786448,-29.246354,-27.802853,-26.361515,-24.76908,-23.471564,-21.948183,-19.923832,-18.158284,-16.492501,-15.184905,-14.377808,-12.962501,-11.310619,-9.8085426,-8.4571399,-8.0081223,-7.2246731,-5.6508816,-5.1528654,-3.0460481,-2.2718107,-1.940884,-1.9947393,-0.45783651,-0.2921917,-0.66126295,-0.93190023,-0.71199618,-1.2573959,-1.4353493,-2.224546,-2.9514671,-3.9171593,-3.3069194,-4.1024233,-4.6526407,-5.6368291,-5.1300088,-4.8797572,-5.083443,-5.2323182,-6.6166003,-7.6892916,-7.336439,-8.3651964,-9.1790229,-9.8760295,-10.368075,-11.306771,-12.263449,-13.272373,-13.813392,-13.002912,-12.696991,-13.404937,-13.868275,-13.33981,-11.49596,-10.64719,-10.808032,-11.099325,-11.047257,-10.868081,-10.007391,-9.6572213,-10.217388,-9.189605,-6.9498148,-5.5665523,-4.526618,-3.8470947,-2.1037863,0.45765311,2.9750189,4.5526065,6.1465312,8.6175567,12.484135,15.927028,15.86006,16.017463,17.826469,20.358742,21.564267,21.264912,20.803967,21.475111,22.36329,22.608507,21.578838,20.225083,18.724181,19.644241,20.689298,18.773102,16.397499,14.376916,13.104464,11.377113,8.591696,4.9952202,1.4543602,-0.55708962,-3.657358,-8.1192572,-13.020619,-17.849832,-21.57695,-25.140143,-30.424869,-35.525844,-40.308374,-44.065397,-47.439863,-52.224494,-57.158694,-61.371867,-64.962355,-68.029671,-71.949983,-75.970429,-79.212076,-81.237928,-83.042987,-85.598697,-88.809183,-90.412395,-90.554438,-91.09025,-91.39857,-94.114894,-95.577669,-96.438709,-95.290863,-96.299117,-97.294783,-97.85989,-96.802738,-96.292945,-95.91085,-96.422319,-95.355411,-93.459483,-91.27622,-90.612237,-89.783063,-88.873912,-86.430681,-84.545054,-82.965654,-82.666483,-81.777662,-79.194757,-76.952345,-75.952915,-75.604231,-74.646978,-72.764726,-70.67953,-69.139802,-67.971151,-66.361335,-64.317129,-62.84727,-61.793694,-60.996277,-59.837936,-58.480542,-58.205127,-58.542218,-59.391562,-59.583406,-59.22003,-58.494835,-58.58704,-59.594084,-58.87956,-59.107104,-58.877595,-59.027787,-59.967264,-59.959738,-60.009089,-60.238996,-61.023885,-61.34898,-61.935199,-62.168527,-62.505998,-63.388833,-63.662358,-64.422111,-64.057996,-64.302218,-64.716379,-65.558407,-65.623075,-65.119905,-64.456118,-64.368405,-63.706025,-63.287687,-61.899584,-61.980945,-63.423921,-63.563619,-63.57586,-63.343657,-63.399062,-63.32341,-63.916588,-64.465912,-64.641834,-65.031837,-65.597708,-66.277479,-66.719159,-66.93167,-67.234833,-68.72701,-69.237701,-70.145863,-70.052703,-70.550399,-71.663426,-71.990145,-72.804345,-72.927993,-73.030552,-73.571105,-74.332029,-74.901845,-75.206503,-75.596715,-76.104998,-77.087526,-77.914373,-77.955252,-78.414084,-79.473608,-80.41424,-81.71135,-82.602596,-83.173448,-84.16688,-85.407772,-86.411329,-86.833735,-87.445862,-88.47087,-88.753374,-89.424784,-90.343014,-90.910126,-91.364739,-92.138769,-93.222701,-93.733177,-94.307395,-94.901586,-96.400987,-97.468423,-97.709619,-98.386688,-99.306453,-100.41629,-101.00771,-102.00478,-102.32481,-103.29806,-104.14881,-104.92522,-106.01422,-107.82312,-109.29647,-110.18393,-111.19366,-111.8565,-112.73714,-112.6931,-113.58692,-114.39792,-113.94308,-114.65268,-114.67914,-115.23189,-115.82652,-116.25911,-116.05522,-116.28894,-117.27739,-118.05822,-119.70521,-120.73032,-120.67337,-121.76397,-123.58137,-124.05459,-124.35724,-125.45889,-126.61092,-127.73592,-128.75184,-129.90464,-130.68422,-132.51757,-133.81139,-134.87311,-135.88891,-136.66915,-137.4432,-138.24874,-138.47059,-139.04083,-140.46057,-142.44243,-145.33466,-148.14526,-151.69911,-155.79045,-160.73369,-166.03865,-170.89876,-175.495,-180.5005,-186.02515,-191.84599,-196.1339,-201.5401,-206.04699,-210.49455,-215.10806,-219.0435,-223.20854,-226.30139,-230.41382,-235.69557,-238.96017,-240.7925,-242.9046,-245.16316,-246.76707,-247.84143,-248.11118,-248.15843,-248.97403,-250.20882,-249.99056,-249.47271,-248.12952,-246.8268,-245.84935,-243.39746,-240.70304,-237.16391,-234.56902,-231.52374,-227.92381,-224.05756,-220.3351,-216.14606,-212.89626,-208.96149,-204.53327,-200.39154,-197.52183,-192.66601,-187.38854,-182.72792,-179.33844,-176.91583,-174.95152,-173.48483,-171.61488,-170.98992,-170.76237,-170.8327,-171.8032,-172.22136,-173.95881,-175.61452,-178.49188,-182.05867,-184.04492,-185.5629,-186.37235,-188.84414,-192.35147,-195.22628,-197.46648,-202.02532,-206.35866,-210.74752,-216.12593,-220.525,-225.68145,-231.68214,-237.40474,-243.16886,-248.35114,-254.64258,-260.79568,-266.84346,-271.43304,-275.01354,-280.04456,-285.0509,-288.89263,-292.53982,-294.66398,-296.3767,-297.81545,-300.02314,-300.76577,-300.5964,-300.54914,-299.74322,-298.65894,-295.64359,-292.48111,-288.89501,-286.08399,-283.70065,-283.36557,-281.77009,-280.75404,-278.94294,-276.29653,-273.43291,-269.22054,-264.70852,-260.58133,-255.64114,-250.41276,-244.13881,-238.36219,-232.37976,-226.39089,-210.80865,-204.87065,-197.60417,-191.59813,-186.81704,-182.58534,-178.33807,-176.49459,-174.70142,-181.9987,-178.20909,-177.17374,-177.43604,-177.20754,-176.59238,-176.02789,-174.99466,-174.09681,-173.60008,-172.69455,-171.41017,-168.87788,-167.88887,-166.5813,-164.12978,-162.20883,-159.84131,-157.86261,-155.84292,-153.74785,-152.03486,-150.24805,-147.8771,-146.78286,-144.52044,-141.78429,-140.55293,-139.32673,-136.50154,-136.78098,-137.89025,-138.95616,-139.98671,-142.06348,-144.8792,-147.40851,-150.88566,-153.51402,-156.67576,-160.97416,-164.18172,-167.79152,-171.99168,-176.94497,-181.22433,-183.84404,-187.93142,-190.97133,-195.21179,-200.40358,-203.29593,-205.95064,-209.88673,-212.31369,-214.28609,-215.21865,-217.60714,-220.09666,-223.80353,-227.74432,-232.9485,-236.48703,-239.53839,-243.87894,-247.83377,-249.68191,-250.69098,-252.43617,-254.5837,-253.00487,-244.49467,-236.8632,-232.17732,-228.7765,-226.1937,-222.34379,-220.35588,-221.9723,-227.7801,-235.55163,-243.94122,-255.28137,-269.38424,-286.77345,-304.50154,-322.02062,-337.77609,-355.31647,-373.44329,-390.8755,-406.7119,-420.92575,-435.10607,-448.50439,-458.87626,-465.41733,-468.46461,-470.28909,-469.69353,-465.77063,-456.26916,-456.14352,-445.62763,-437.18382,-426.02972,-410.86328,-393.28386,-374.83197,-356.02269,-334.5371,-297.19753,-266.59498,-233.34849,-197.33425,-158.67221,-117.02438,-72.030125,-26.404511,19.395953,67.803135,119.85933,174.18253,227.81917,282.24238,339.54353,398.62284,458.86307,518.84601,578.6329,638.47505,697.14452,755.72644,813.31814,868.03266,921.00826,970.22356,1016.8182,1061.8173,1103.1005,1139.9118,1172.9108,1202.2593,1227.7045,1248.0049,1263.7663,1274.9772,1281.9711,1284.5368,1281.9623,1273.5342,1261.2013,1243.9464,1222.9432,1197.9515,1169.3411,1135.8505,1098.9371,1059.8155,1016.8662,969.90622,921.06621,869.10872,815.67984,759.78566,701.20161,639.4327,575.77016,512.6824,448.92205,384.81204,321.70622,262.16961,203.74641,147.21727,94.49165,45.324508,-0.32661253,-41.623725,-76.999048,-106.51013,-134.35762,-164.14314,-190.77157,-214.30047,-235.53792,-256.27861,-276.82644,-295.70602,-312.50863,-327.24202,-340.36363,-352.9531,-363.42249,-371.43227,-377.52725,-383.03266,-388.20084,-392.54516,-394.38787,-394.16634,-393.35643,-392.4507,-389.82967,-385.44542,-378.94848,-372.91288,-366.72991,-360.04897,-352.64544,-343.74486,-335.06692,-328.35923,-321.40144,-313.99932,-306.36061,-298.99735,-293.88238,-288.61718,-284.80914,-279.2093,-275.7726,-274.41943,-273.83163,-272.89171,-272.27701,-272.26853,-273.73752,-276.50398,-278.49134,-279.94829,-281.44529,-284.10163,-286.05369,-286.88954,-285.58239,-285.76358,-286.64014,-287.08387,-286.31461,-286.5103,-287.33323,-286.92089,-287.22345,-287.35198,-287.67585,-288.99144,-290.22898,-290.14998,-290.83802,-291.16254,-292.07152,-292.62055,-292.97389,-293.55431,-293.83368,-295.96178,-296.72244,-298.0439,-298.31243,-299.6849,-300.35353,-301.82145,-301.96279,-303.07671,-304.00186,-306.40557,-307.432,-308.36371,-309.26382,-310.59444,-312.02821,-313.4083,-313.88078,-315.24909,-315.64444,-316.92462,-317.46911,-317.71923,-317.73433,-317.87614,-317.78767,-317.99757,-317.29881,-316.19396,-315.65218,-315.43267,-313.98505,-312.50661,-310.37059,-309.1505,-308.1689,-306.18201,-305.01482,-303.2543,-300.84216,-299.09617,-296.68032,-294.24457,-292.03836,-290.16712,-287.62165,-286.15223,-283.95117,-281.2951,-279.10404,-277.22037,-273.91895,-270.1643,-266.86059,-264.15594,-261.25025,-259.09051,-255.67272,-253.07433,-250.14902,-248.25628,-245.18696,-242.3712,-239.61298,-236.42623,-234.33331,-231.94814,-228.75431,-225.80296,-222.71068,-220.07492,-217.03962,-213.07513,-210.77854,-207.01701,-204.24603,-201.314,-197.86707,-194.24149,-190.80013,-187.17056,-184.01819,-180.83402,-176.90332,-173.40599,-169.99011,-166.41846,-163.01049,-159.75365,-155.6977,-152.71115,-149.95581,-146.62912,-143.23913,-139.82215,-137.18087,-134.28595,-131.64678,-128.72309,-126.49995,-124.33188,-122.027,-118.96794,-116.18844,-113.6095,-111.05654,-109.60509,-108.3051,-105.38081,-102.69122,-101.45967,-99.389021,-97.152267,-94.320916,-92.242002,-90.297504,-90.563143,-89.176512,-87.803423,-86.326706,-85.792907,-84.657437,-83.907508,-82.832932,-81.695276,-81.302033,-81.068773,-81.145082,-81.196151,-81.110791,-81.836258,-82.99269,-84.572564,-85.503574,-86.437715,-86.463171,-87.419483,-89.136256,-91.585425,-94.009563,-97.255764,-100.63351,-104.84373,-109.09109,-113.31761,-118.01665,-123.3249,-128.95466,-133.3726,-137.6759,-142.98171,-148.95546,-154.57992,-159.54357,-164.28531,-169.22317,-175.0095,-179.84288,-183.44423,-187.70316,-191.05284,-194.47204,-198.99522,-203.6261,-206.61544,-209.68443,-214.17508,-217.08017,-220.26247,-223.04754,-225.3204,-228.26891,-230.50459,-232.57504,-233.89935,-235.54009,-237.05604,-238.25069,-239.00814,-238.638,-238.94683,-239.08604,-239.43848,-240.00882,-238.88853,-238.31303,-237.9076,-237.18076,-235.69371,-233.92947,-232.25796,-230.45956,-228.87343,-226.60807,-223.66506,-220.87626,-218.62867,-216.268,-213.30697,-210.24813,-207.85405,-205.11868,-202.4344,-199.50559,-196.26687,-194.05199,-192.32934,-191.61084,-189.69249,-187.8618,-185.50628,-184.74617,-184.02138,-182.82144,-182.26302,-181.39752,-181.85355,-181.57421,-180.46888,-180.83597,-181.52724,-182.3524,-183.05654,-185.08692,-186.33043,-187.92988,-190.26691,-191.66322,-193.26447,-195.025,-197.10656,-199.25621,-202.12679,-204.64548,-205.82229,-208.43679,-210.26831,-213.52432,-215.74271,-217.5107,-219.08437,-221.81282,-223.64339,-224.65714,-226.03211,-227.00597,-230.18797,-234.65485,-236.09755,-238.86665,-242.01041,-245.1982,-249.73972,-253.35153,-256.77835,-259.75958,-262.9599,-267.51799,-270.16735,-272.81823,-276.30156,-279.41294,-282.12926,-284.80805,-287.39374,-289.71653,-292.07179,-294.9927,-296.71939,-298.464,-299.51222,-300.96186,-302.64556,-303.16593,-303.71014,-304.81922,-306.62333,-307.38208,-308.6947,-309.93841,-310.11751,-311.87066,-311.29636,-313.13418,-314.04791,-314.37606,-315.49235,-316.74188,-317.76382,-318.63382,-320.21466,-322.21286,-323.18885,-325.22592,-325.86795,-327.67832,-328.59648,-330.18791,-331.28733,-331.76372,-332.11848,-332.00178,-332.76986,-332.44537,-331.78303,-331.88056,-330.42727,-330.06917,-330.07285,-328.75254,-327.48733,-326.32733,-326.63558,-325.39874,-324.93809,-324.17931,-323.74664,-322.86969,-321.005,-319.81931,-318.31807,-316.89984,-315.46933,-313.7584,-312.1402,-310.06486,-308.98551,-308.1535,-307.04016,-306.1444,-304.3026,-303.70615,-302.82938,-302.52203,-301.59131,-300.50554,-300.8064,-302.54054,-302.28372,-302.00891,-302.22595,-302.17094,-302.26451,-302.78577,-301.98208,-302.37525,-302.64141,-303.3955,-304.00704,-304.55983,-304.35245,-305.19162,-305.84151,-306.8812,-307.54317,-306.58076,-306.17208,-307.19641,-306.78721,-308.89732,-308.93128,-309.85112,-311.03599,-311.39463,-311.99544,-311.61454,-311.8417,-312.25422,-311.38958,-310.93671,-309.11961,-307.62911,-303.61804,-301.88633,-299.66399,-295.49408,-291.6845,-287.25022,-281.95738,-275.81522,-268.94827,-261.64949,-254.35415,-245.96406,-237.46409,-228.12172,-217.83097,-207.1597,-196.41598,-185.75143,-173.13165,-161.25749,-148.22534,-137.68445,-125.25732,-111.15779,-99.117655,-86.237983,-73.610188,-61.344926,-48.1901,-35.814857,-22.858099,-11.613418,0.67349774,12.677944,25.53841,37.143941,48.589875,60.309288,71.713109,83.628258,93.971654,104.16281,113.67854,123.64097,134.44651,142.48551,151.3792,160.46161,168.89277,177.14879,184.54198,192.05963,198.49401,205.42577,212.31188,218.09589,224.01002,230.14764,235.35645,240.88178,244.78378,248.02044,251.33388,254.02623,256.75206,258.18846,259.85145,260.5229,261.40043,261.13905,260.80717,259.48411,258.20662,256.66834,254.55479,252.39573,250.85065,248.54644,246.02503,244.6101,242.04592,238.66666,236.66448,234.01104,231.6905,230.00818,227.07809,224.84585,223.5356,221.57662,219.67643,218.28642,217.06368,216.082,214.09582,211.95034,210.68698,208.04989,206.98802,205.38834,203.92153,201.99096,199.52982,198.62745,197.32952,195.71681,193.8361,192.30017,190.9489,189.58695,188.61384,185.04809,182.68605,180.66825,178.6414,176.62146,173.85583,171.38535,168.93515,166.9326,164.92237,162.55521,160.08789,157.95278,156.60691,154.09603,151.68885,149.19897,148.55251,145.95496,144.07766,141.35584,138.36831,137.62476,134.6231,133.69681,131.74724,129.32009,128.3019,127.01926,126.5528,124.79978,123.35537,121.91479,121.49113,120.25271,118.54369,116.80303,116.15589,115.07242,113.87454,112.49729,110.79954,109.86946,109.7997,108.5157,107.80072,106.35342,105.47449,105.44256,104.51146,103.49376,102.57343,102.44321,101.70801,101.60532,101.49749,99.967788,98.661194,98.283007,97.481539,96.271688,95.090036,93.564046,92.888451,91.728423,90.273005,88.005589,86.40988,84.439856,83.108566,81.133073,78.904835,76.288537,74.633412,71.967925,69.479097,66.573118,64.134413,62.009187,59.13786,56.712411,53.910485,50.520796,47.960027,45.603717,42.355471,39.198215,36.167283,33.913151,30.928963,28.937606,25.590297,23.094697,20.360622,19.103994,16.3925,13.325426,12.697446,11.147301,9.0383495,7.4585241,5.0200765,3.8360865,1.9486024,0.88864918,-0.10321458,-2.2544254,-3.0042713,-4.744064,-3.9634355,-5.0239946,-7.8744845,-8.1492827,-8.6789764,-9.4277919,-11.477839,-12.760549,-14.258767,-14.140612,-14.57939,-15.73066,-15.744083,-16.250178,-16.315579,-16.872967,-17.574149,-19.082042,-20.001266,-20.659684,-20.218544,-20.741499,-21.083872,-21.482602,-22.195048,-21.912047,-23.0948,-24.438117,-23.966296,-23.023112,-23.344247,-24.678148,-24.653146,-23.245248,-20.880373,-18.959702,-16.971504,-15.367614,-11.37885,-7.2810651,-3.3325599,0.45344871,2.7596877,8.0866114,12.887984,18.464827,22.537921,26.781094,31.640193,37.80098,42.585616,47.358502,51.994626,56.697622,61.963338,68.143571,72.574559,76.294704,80.429258,86.197583,91.40106,95.852262,98.760051,102.31262,106.63985,110.86252,113.42147,115.15651,117.91362,120.14796,123.60692,124.24167,124.81609,125.03884,126.52522,127.01393,127.21286,125.90526,124.78228,123.8389,123.71013,121.66507,119.16825,116.36836,115.01904,114.15875,111.54632,108.46521,105.54879,104.46492,102.14255,99.918849,96.338177,93.464889,90.97685,89.138704,85.867606,82.640556,79.759169,76.722577,74.290851,72.20767,68.16336,65.36363,63.535401,61.960726,59.524698,56.395204,53.808219,54.369003,55.142402,51.833097,49.859612,48.841871,47.193716,46.613599,44.694514,43.881221,41.79351,41.795537,41.66099,40.756637,39.655508,37.711667,37.114186,36.518909,35.655875,33.80446,33.080456,32.867968,32.046236,30.242669,27.707942,24.23247,22.284465,20.821568,17.851126,15.156826,12.771953,9.7591802,7.7674105,5.2993024,4.2961143,1.9325314,0.77296098,-0.47890832,-2.2073857,-3.9758283,-4.4037195,-5.5528351,-6.427566,-6.7440656,-8.693305,-8.262247,-9.6493028,-9.2575671,-10.215296,-10.229571,-10.846336,-9.3755791,-9.3382705,-8.2806846,-7.7886113,-7.9700474,-6.1558745,-4.7704212,-3.709961,-3.0172868,-1.3033969,0.76715661,2.6785635,4.0830529,5.092214,6.4440176,8.2938718,10.307998,11.403432,11.401701,13.689716,14.105667,16.865827,17.026136,18.226222,18.923512,19.897155,21.352348,21.649267,21.91226,21.232398,22.300304,22.992264,22.890587,22.463481,21.649643,21.73292,21.618757,21.64046,21.638813,20.154392,19.486826,18.342762,16.551614,14.742484,12.688625,11.043413,8.4525577,6.4822486,3.3697145,0.49216848,-1.9329685,-4.366824,-6.7558921,-10.173365,-13.011075,-14.9006,-16.990529,-19.260587,-21.282052,-22.879575,-23.174559,-26.653402,-28.539639,-30.166868,-32.176789,-33.873144,-35.123855,-36.206374,-38.35592,-39.399981,-40.256836,-40.465484,-42.03456,-42.603887,-43.335149,-43.138679,-43.380402,-43.698275,-43.581937,-43.222308,-43.018226,-42.230015,-41.480206,-41.10649,-40.361899,-39.731991,-37.977547,-37.280081,-35.431713,-35.15899,-33.92232,-31.717239,-31.011513,-29.461777,-29.170996,-27.149373,-25.341201,-24.810966,-22.883239,-22.024404,-20.522804,-18.621957,-17.741751,-16.783216,-15.683205,-15.076732,-13.011246,-11.79774,-11.118517,-10.612009,-8.8712594,-8.6631232,-7.8778021,-8.1445,-8.1646547,-7.747124,-7.2724329,-7.1166157,-7.4662287,-7.3627406,-8.3973828,-7.8459953,-8.0939586,-9.0685986,-10.014187,-10.599132,-11.170118,-12.233618,-13.050682,-13.709394,-14.927991,-15.174003,-15.950262,-16.981197,-18.180824,-19.21291,-19.642205,-20.804667,-21.466625,-23.64236,-23.778823,-23.929294,-23.907238,-25.713988,-25.956026,-25.587261,-24.249132,-23.417056,-25.586244,-25.314776,-24.43494,-24.399472,-23.900878,-25.054412,-25.682523,-25.757722,-26.062636,-26.699291,-28.654277,-30.006397,-30.887326,-30.722529,-31.444298,-34.021755,-35.238047,-35.613216,-36.51989,-37.69,-39.222717,-41.153595,-42.126198,-42.492648,-43.038711,-44.76885,-46.219168,-47.253753,-46.607635,-47.126631,-48.703161,-49.555501,-50.128755,-49.133817,-49.720956,-50.29945,-51.278642,-50.838981,-50.603045,-50.298625,-50.603825,-52.085359,-51.507088,-50.229796,-49.5736,-50.889099,-51.11984,-51.205273,-50.115517,-49.677177,-50.090744,-51.648762,-50.693468,-50.262074,-49.362712,-50.291241,-50.682453,-50.255169,-49.611094,-49.634357,-49.21055,-50.224765,-49.557923,-48.43956,-47.468239,-48.038208,-48.78499,-48.656493,-47.986409,-48.133619,-48.550501,-49.69902,-49.824375,-50.069438,-49.840059,-50.889544,-52.12005,-52.56939,-51.922691,-52.03516,-52.941041,-54.414693,-55.088106,-54.325066,-54.199874,-55.640158,-56.499145,-57.482769,-57.289981,-56.857514,-57.709848,-59.357514,-59.331436,-59.767877,-58.82994,-60.783131,-62.242031,-62.726031,-62.995781,-63.134623,-64.11596,-66.18146,-66.650818,-66.626094,-67.283534,-68.573902,-69.317301,-70.047608,-69.383605,-69.642953,-70.697166,-69.704427,-71.143012,-71.313897,-70.79605,-71.764617,-72.401616,-72.229575,-72.262865,-72.45042,-72.502209,-72.380108,-71.904327,-70.984407,-70.692175,-70.254838,-70.016488,-68.55169,-67.703918,-66.163335,-65.255061,-63.443362,-61.054274,-58.822488,-55.737169,-53.107731,-50.929888,-47.8124,-43.880321,-40.252253,-36.601614,-33.238825,-28.982498,-23.987016,-19.810195,-15.318859,-10.288719,-5.504277,0.29248272,5.5893004,11.297584,16.607806,22.679631,28.915068,34.7928,40.404192,46.72809,52.819985,59.276521,65.831996,71.864914,78.021736,84.789196,90.715735,98.115716,103.50887,109.71928,115.62899,122.38346,128.89661,134.70974,139.94831,145.87719,151.75367,157.72284,161.96836,167.11704,171.49844,176.42054,181.24836,185.60027,188.83637,192.77981,196.45998,200.57821,203.65586,206.1424,209.78879,212.27521,215.4894,217.57906,219.28323,221.89708,224.21946,226.10604,228.12709,229.77896,231.0884,232.4554,233.03657,232.46312,232.96236,233.76934,234.8196,236.16183,236.77879,237.81989,238.79959,239.59773,241.01216,242.06948,242.20746,242.54395,243.64988,244.07381,244.60913,244.26214,243.90762,244.89272,243.9214,243.30581,242.17694,240.54662,239.69004,238.56481,236.65583,233.22778,232.51632,230.99329,227.30846,224.04022,220.68169,217.9994,215.16606,211.51052,206.36323,202.09286,199.74854,194.81615,191.30055,185.59225,181.57687,176.69595,173.26436,167.93353,162.09209,155.92424,152.87353,149.57956,145.12439,137.98064,132.68547,128.2839,123.57953,116.82597,110.57775,104.18862,98.782603,93.474201,87.065082,80.415035,73.744788,69.153887,64.088854,58.367501,51.618302,44.626085,40.445489,36.269207,31.926113,26.953986,23.061753,20.38132,18.090231,16.103833,12.512639,10.850562,10.272229,10.001363,9.5447587,8.0723376,7.8531593,9.4165452,10.434961,12.249866,12.054585,13.224624,15.325543,18.089084,20.505761,21.601965,23.201397,25.880124,31.956769,35.896972,36.983716,39.309745,42.707736,45.267414,47.89278,48.345653,48.92757,50.461913,52.276924,52.365295,51.347829,50.029901,49.017869,48.100462,47.127884,45.370325,44.589376,44.163841,44.518199,43.397533,42.055707,40.293116,39.802746,39.796026,38.748906,37.342416,34.977259,34.447537,34.367789,34.165938,31.959155,30.779277,29.776977,30.438288,29.51326,28.327244,27.406529,26.752244,27.911042,27.198473,26.234223,25.467373,26.219006,26.044935,25.563325,26.057562,26.10733,27.12582,28.025496,28.44973,28.897711,30.625627,32.459922,33.489387,36.354824,37.308073,40.069229,43.205631,46.809224,49.188467,53.150976,56.434921,61.802012,65.415597,67.389959,70.107274,74.34949,76.970844,80.385998,82.019371,84.588436,86.955312,88.909184,90.725214,92.179992,93.000647,93.746427,94.82972,94.667545,94.625646,93.710257,93.632674,94.96535,94.731454,94.309795,93.542183,93.394758,93.245408,92.56313,92.066269,90.343079,89.92167,89.223452,88.333506,86.906538,85.443846,84.650092,83.366959,82.298112,81.347616,80.100995,78.553873,78.634072,77.953464,77.403402,76.488783,76.879874,77.782536,79.407393,77.323166,76.232949,75.786651,76.458652,75.961446,75.584697,74.781645,74.707289,75.357856,75.883995,75.699013,75.789652,77.046686,77.505655,78.799614,80.30325,80.986939,82.610629,85.1215,87.2757,89.773179,92.258724,95.131054,98.740221,102.75591,106.06245,110.63505,114.40384,120.53164,125.91737,130.7053,135.32113,141.90184,148.61838,155.32589,161.23675,167.78026,175.12672,183.07531,190.91122,197.54874,205.35893,213.23424,222.36966,231.09603,239.55205,247.10995,256.0928,265.68652,274.66074,282.77988,290.47804,300.29988,309.71046,318.26475,327.30993,334.47793,343.30898,353.1052,361.01633,368.71636,376.55227,383.62268,392.76046,400.06105,406.58998,412.9079,419.29738,425.68362,433.17961,436.83791,441.79803,446.89906,451.78959,457.31993,460.29891,463.21912,466.50041,470.94791,474.29639,476.34295,477.15141,478.68131,481.4369,483.26496,484.19253,484.46357,485.77831,487.68458,488.8287,489.0613,487.86834,488.83544,489.73741,491.145,490.78013,490.31175,489.08602,489.54422,489.09345,487.7093,485.04609,483.25508,482.36616,480.84393,478.21136,474.96957,472.56635,470.37434,468.18774,464.92489,460.59936,457.1076,455.48674,451.38453,448.23891,443.34945,439.82982,436.80954,433.09721,428.98691,424.0763,420.01706,415.49611,410.77063,405.47691,400.33346,395.40841,392.28068,389.0194,385.14813,380.11364,376.59051,374.07946,371.02929,367.71518,363.81173,360.66128,358.23412,355.16812,351.4545,347.89961,344.65038,341.96919,338.11345,335.23073,331.03619,327.2642,325.08149,320.82623,317.20248,313.22057,309.04382,305.89957,301.75242,297.61017,293.20532,288.61237,285.56892,280.74359,276.6124,271.56699,267.40665,262.81059,258.44274,254.36788,248.44094,244.05417,240.10045,234.63679,230.31444,224.99941,219.45883,215.67647,210.11984,205.3267,199.21989,194.60817,189.68409,185.45561,179.61511,174.60716,169.74107,164.78803,160.19681,154.10789,148.86245,144.33225,139.0138,134.16796,128.68257,122.85943,118.53748,114.56022,109.98666,105.83923,101.55319,97.723514,94.384345,91.665571,88.019054,85.152107,82.687334,80.967201,79.243144,76.473048,73.641736,71.501935,70.238485,68.415264,66.467174,64.574553,63.902998,62.125838,61.92417,60.447726,59.137374,58.272165,57.364738,57.200124,56.287473,54.661199,54.747036,54.041276,53.099144,51.829508,50.518421,49.179755,48.053281,46.247565,44.757747,42.275999,39.971805,37.518448,35.351409,34.260085,32.735468,30.636352,29.600734,28.791015,27.08377,24.838154,23.618511,22.593936,21.099575,20.233645,18.177258,17.375114,15.833467,15.29583,13.910396,12.143923,11.254601,9.8707733,9.255454,8.6116926,6.14064,5.426978,4.7257636,4.2553798,4.6915299,5.0891518,3.2928874,3.1173532,2.5255511,1.2738921,-0.3455805,-2.1497903,-2.8403414,-4.935169,-6.1656136,-8.0991922,-10.30204,-11.522182,-12.852438,-14.826656,-16.710511,-18.728471,-19.64279,-21.402397,-22.639235,-24.642258,-26.02557,-27.540579,-28.018784,-28.757428,-29.659697,-30.713098,-30.63777,-30.463882,-30.30043,-30.842621,-30.905915,-30.668574,-29.393223,-29.226427,-28.274851,-27.418794,-27.122191,-24.719746,-24.130827,-22.71282,-22.237747,-19.894452,-18.727392,-16.514085,-15.17822,-13.934492,-11.901137,-9.6123484,-7.8096767,-6.1874407,-4.5649399,-2.6817685,-0.76275954,1.0966081,2.1890552,3.8210165,5.3617147,6.4522408,9.070776,9.691685,10.873851,11.571209,13.575021,13.944201,14.930495,15.679938,16.634092,17.909495,18.542479,18.697526,19.331312,18.470253,19.377329,19.232067,19.517354,18.178978,17.679392,17.355215,16.755953,15.885824,14.249946,13.198477,11.715545,10.817172,9.3145261,6.8502022,5.4930612,3.7695248,1.8423339,-0.90728446,-2.5372894,-5.2555182,-7.2705805,-9.1114264,-11.237739,-13.391678,-15.391349,-17.435009,-19.33719,-21.192227,-22.473324,-24.908145,-25.479892,-26.149952,-27.41107,-27.664007,-27.891346,-27.313791,-27.381408,-28.534486,-30.668177,-31.450189,-32.424608,-33.125389,-34.150721,-35.469108,-36.366557,-37.541261,-38.38734,-39.355162,-41.312135,-42.455675,-43.680655,-44.764897,-46.659397,-48.241601,-50.181661,-51.950129,-53.259666,-55.295487,-57.450861,-59.934121,-60.88759,-63.130869,-65.149158,-67.830846,-69.369109,-71.907659,-73.936541,-75.630365,-78.611285,-80.474147,-82.277159,-84.165062,-85.40277,-87.718814,-89.419638,-90.43631,-92.112878,-92.501735,-94.613553,-94.956223,-96.247307,-95.877288,-96.235392,-97.008119,-96.555471,-96.470634,-95.479397,-95.068427,-94.112604,-93.674772,-92.103819,-90.053999,-88.688314,-86.607167,-84.84206,-82.056841,-78.521793,-76.474647,-73.429446,-70.347471,-66.385006,-62.528062,-58.045581,-53.875055,-50.179994,-45.545616,-40.717733,-35.338656,-31.187247,-26.026482,-20.2698,-15.136637,-9.7622413,-4.6680272,0.62873936,6.5060985,11.928368,17.950863,22.910326,28.295931,33.188443,39.480403,44.279722,48.515504,53.51718,57.845492,62.760967,66.845856,71.239594,74.88047,78.657328,82.954367,86.29377,88.916285,91.785074,93.730871,97.403504,99.076019,101.88036,102.23325,104.97036,106.69963,107.61462,108.9541,109.5444,110.09712,111.36579,111.80668,111.983,111.61949,111.56158,112.21511,112.27119,111.36429,110.89566,109.90728,109.71591,109.28467,108.49901,106.58993,106.20094,105.22048,103.21906,101.77978,99.159037,97.765558,96.147214,93.940815,91.862445,89.847903,87.537048,86.246395,83.852509,81.313513,80.643471,77.823032,76.45344,74.430686,71.654738,69.227808,66.331149,63.748253,61.507903,57.70499,54.457649,51.26705,47.719333,45.485791,41.224739,37.669465,34.147363,30.846344,27.376846,23.400532,19.87928,15.809089,12.25395,9.6873289,5.5689614,2.1651568,-1.4706504,-4.324422,-7.3883147,-9.8627847,-13.686264,-16.646693,-19.603713,-21.74067,-25.392617,-27.537848,-32.899513,-35.204151,-38.132315,-39.33308,-42.537577,-43.743777,-44.618317,-45.085966,-46.228905,-46.192113,-47.023338,-46.533254,-46.09193,-45.458003,-45.186907,-44.338643,-44.027686,-42.346488,-41.784153,-40.859103,-40.125938,-39.041908,-38.015869,-37.009956,-36.0244,-35.270339,-33.783374,-32.56633,-31.622325,-31.492188,-31.034452,-30.363171,-29.688659,-29.258054,-28.684548,-29.399891,-28.382964,-28.747407,-28.168429,-29.251313,-28.710341,-29.828118,-29.970496,-30.068211,-31.188419,-32.397644,-32.542085,-33.4163,-34.671862,-36.123209,-37.699171,-38.438552,-39.604346,-41.371335,-43.180997,-44.908696,-46.696647,-47.432321,-50.008678,-52.466872,-53.988246,-57.050564,-58.873504,-60.531068,-62.582011,-64.669166,-66.357941,-67.24846,-68.096293,-69.299879,-70.728223,-70.442977,-71.047261,-70.90906,-69.843592,-72.206107,-71.376084,-70.628575,-70.216354,-69.943313,-69.634916,-68.850538,-67.462571,-66.728425,-64.954998,-64.679868,-62.518366,-61.085304,-59.501274,-58.059048,-56.576685,-54.631428,-52.637226,-50.443496,-48.294732,-46.962089,-45.188309,-41.864662,-40.412278,-38.20239,-36.816086,-34.761035,-33.185166,-30.811295,-30.755317,-29.302157,-28.527655,-27.977701,-27.366495,-27.095446,-27.917197,-25.524464,-24.449613,-22.298124,-21.783585,-20.768039,-19.508074,-17.714992,-16.342277,-14.766618,-14.062347,-12.390452,-11.198751,-9.489195,-8.2793058,-6.7109401,-6.0959844,-3.1400513,-1.8139899,-0.26426192,0.63208733,2.1850821,4.8438207,8.0420168,10.308538,12.676729,13.770548,15.688993,17.149436,17.592335,18.497967,18.069518,19.398035,19.228598,19.550446,17.881589,18.685195,17.833816,18.053223,17.577215,16.983324,16.174002,16.288931,16.359203,15.313215,15.39877,15.137242,14.227804,15.109496,14.874726,14.786801,14.683638,14.906634,14.462112,15.117727,14.751368,14.69067,15.928805,15.140604,16.603404,16.083738,16.072746,16.684155,17.120135,17.050892,17.644833,17.591012,18.931477,19.07191,19.20503,19.818115,19.712565,20.128169,20.615741,21.350485,21.431305,22.140313,22.654654,22.443452,24.06255,22.773312,23.484792,23.273287,24.199549,24.233834,23.507719,23.717128,22.845912,23.055411,22.857258,22.273918,21.300472,22.521215,20.346476,19.351767,17.450181,16.961656,16.077066,14.063581,11.252891,9.6756165,7.3640536,6.6388256,4.0328748,0.68631525,-1.5762973,-3.5691554,-5.3379873,-7.3282042,-10.888234,-13.386331,-15.218506,-16.61967,-18.813707,-21.703063,-24.212985,-24.958183,-25.430076,-26.840368,-28.376833,-30.090039,-29.244201,-29.407191,-28.13935,-28.487693,-27.35011,-26.328761,-22.499555,-20.754969,-18.497281,-15.088016,-10.534517,-5.3563639,-0.50962064,2.1274249,6.2783054,10.135907,15.240847,19.808009,23.049342,27.426048,31.643111,37.776075,41.59024,46.036834,49.386666,55.395113,59.999374,64.987101,68.802024,73.286213,77.900885,82.749425,87.200602,90.713666,95.09854,98.40652,101.91431,105.89844,107.98475,111.19302,113.42603,115.90184,117.5891,120.35571,120.80956,123.55164,124.25791,124.8889,125.73093,125.5167,125.86946,125.77751,125.51925,124.53052,124.04395,122.74339,121.64693,119.66146,118.22946,115.92233,114.12169,111.99328,109.44817,106.52769,104.12861,101.49704,98.711158,96.18022,93.838015,90.197279,88.011375,86.533529,84.240979,80.865864,79.047271,75.793163,74.296086,71.250215,69.417443,66.689788,63.354077,59.441966,53.935648,52.354291,48.889693,46.720334,43.582382,40.506098,38.299129,37.584868,35.602939,34.413707,30.651017,30.274069,28.781656,28.67271,26.420224,24.62692,22.851869,23.20976,21.897105,20.272973,18.776008,17.171495,17.074959,16.307528,14.788076,11.924218,11.058545,9.3900196,9.0117151,6.0568248,3.96723,1.1676363,-0.21609239,-1.9000768,-3.8708441,-7.92053,-9.9348371,-12.355476,-14.290618,-17.352401,-21.262385,-23.760216,-26.475604,-28.525986,-32.252708,-35.378696,-39.485473,-40.791911,-44.654289,-47.965545,-52.627998,-54.868125,-57.727747,-59.811279,-64.216809,-67.956235,-70.393269,-72.659032,-75.622832,-79.580455,-82.23887,-85.76083,-86.902628,-90.241204,-93.695553,-96.085896,-97.938663,-99.563653,-101.99662,-104.78186,-106.55843,-107.57106,-108.52144,-109.86767,-112.18303,-113.30346,-113.89304,-114.07751,-114.85999,-116.3169,-117.07459,-116.93843,-115.93869,-116.96981,-117.35314,-117.82955,-116.70872,-116.23373,-115.62439,-116.2584,-115.956,-114.8166,-112.88108,-112.04949,-111.88226,-111.10962,-109.11611,-108.01856,-104.72427,-103.12807,-102.06042,-101.265,-98.474114,-100.52719,-100.78306,-101.96787,-101.53786,-102.7687,-105.59697,-107.97875,-108.08432,-107.73286,-108.68276,-109.563,-111.14594,-111.78359,-110.71418,-111.86194,-112.95211,-113.55925,-113.35554,-112.25085,-112.71643,-112.14941,-112.7469,-110.8221,-109.40162,-108.64288,-107.88949,-106.79099,-104.57776,-102.98306,-100.34685,-99.618406,-96.828428,-94.746098,-91.106706,-88.723063,-86.416419,-83.428247,-80.677948,-76.712784,-73.511922,-70.515419,-67.501598,-63.824389,-59.428464,-55.989095,-52.055694,-49.047395,-45.06711,-40.046499,-37.12396,-32.806607,-30.145357,-25.306011,-21.664837,-17.42251,-15.546811,-11.553696,-7.6217991,-3.1522221,-0.80676771,1.7968032,3.6992556,7.9194128,11.302083,13.332736,14.808979,17.318456,20.604737,22.123856,24.744081,24.994827,26.652692,29.642549,31.585853,32.661807,33.497649,33.859186,36.023012,37.137703,37.899964,36.991785,37.794853,38.177652,39.851693,39.293419,38.486054,38.178841,38.916597,39.718364,39.354083,37.610487,37.894765,37.850993,38.603516,38.55774,37.068661,37.10623,37.374363,38.508632,38.25986,37.97878,37.94479,39.82169,41.873232,42.643637,44.274944,43.171398,45.121587,44.562586,45.603086,43.109502,44.770965,45.039571,45.920286,44.89299,43.94937,43.925229,44.658095,44.660242,43.855876,42.88873,42.448065,43.454212,43.058606,41.468906,41.497684,41.162237,41.231082,40.662148,39.761205,39.461104,39.234908,40.167214,38.484513,37.101359,37.556848,37.364299,37.831858,36.910188,35.839489,35.692768,36.575368,36.566045,36.164734,35.303602,34.767869,36.458527,35.730989,36.447608,35.024275,35.26902,36.543156,37.160439,36.933518,36.286278,36.141949,37.383571,38.061058,37.904841,37.572693,37.854221,38.689177,39.648036,39.170311,39.105558,38.936492,39.918225,41.090118,40.239883,39.663278,39.404772,40.31585,41.309,40.655306,40.108071,40.253198,42.051574,41.057164,41.105713,40.723681,42.070319,42.9308,43.595694,42.836846,42.647226,43.509386,43.690765,44.625931,43.439651,43.374762,43.535977,44.890389,45.216538,44.311801,44.057193,44.065713,45.736454,45.538943,44.717875,44.611638,44.504291,45.962344,46.071209,45.277184,45.104892,45.082083,46.42098,46.501999,45.93539,44.842728,45.593997,46.616457,47.162358,46.334925,45.586532,46.491201,47.11222,47.160371,47.529562,47.29194,47.62042,47.952179,47.715964,48.596698,47.955092,48.294863,48.194853,48.414042,48.389088,48.914711,48.660194,48.605652,48.977325,49.08653,49.425389,49.110579,48.763658,49.294078,49.615357,48.966908,49.48353,48.894993,48.70555,48.451292,48.450944,48.75865,48.923512,47.455838,48.374803,47.445306,48.584603,48.316578,47.799461,47.626517,47.428289,48.356937,47.797766,47.159362,47.499186,47.408569,48.084798,48.104291,47.364882,47.473466,46.473693,45.375656,44.553347,43.58165,43.154997,42.962623,43.410044,43.37317,43.761179,44.575253,44.533503,44.943812,45.988635,46.733519,46.684635,47.93245,47.649909,49.269998,49.879902,50.710981,51.507243,51.565737,51.969243,51.680213,52.980176,52.608813,52.893905,51.308031,51.632666,51.278396,50.869225,49.517618,48.329422,47.011487,45.963343,44.783267,42.992096,40.666617,39.390415,36.188858,35.810746,31.817077,30.413228,26.552389,24.565342,22.572965,18.640498,15.875802,12.608465,9.3075471,6.9917635,3.2801261,-0.37612232,-4.4931321,-7.1330282,-10.911118,-13.773856,-17.938299,-21.684445,-24.751064,-28.124785,-30.868388,-35.310535,-38.745615,-40.314643,-44.843417,-48.203149,-52.052048,-54.170738,-56.363544,-59.220737,-62.886226,-65.445857,-67.703744,-69.051739,-71.137324,-73.82767,-76.316835,-77.346536,-77.965623,-79.922636,-82.079973,-83.906786,-84.030714,-84.329935,-85.093043,-86.833273,-88.275341,-87.448336,-87.228998,-87.569806,-88.070328,-88.40266,-88.166447,-85.437182,-85.450326,-82.960889,-82.135491,-79.820135,-79.280014,-79.625721,-80.3178,-82.186972,-82.314916,-83.405484,-85.232743,-87.98523,-91.026506,-93.307323,-95.538987,-98.669833,-101.95886,-104.46029,-105.05585,-106.52924,-107.14638,-109.33637,-110.24224,-111.22928,-110.88846,-112.06412,-112.07155,-112.00504,-111.7768,-111.29426,-110.28009,-110.331,-108.57328,-107.16162,-105.54,-104.36311,-102.80585,-101.12927,-98.674551,-96.489199,-94.751903,-92.252948,-90.685039,-86.966163,-85.007845,-81.945209,-79.789698,-76.76374,-74.654505,-70.869595,-69.188879,-66.279968,-63.712206,-60.736726,-58.646307,-54.90199,-53.994756,-50.584067,-48.662766,-45.956185,-43.788102,-42.627926,-40.140179,-38.144002,-36.415576,-34.874326,-33.668001,-32.049466,-30.862558,-28.96557,-28.741488,-27.481051,-27.64354,-26.430095,-25.84503,-25.450749,-25.669555,-26.032145,-25.997367,-25.671142,-26.422097,-27.137986,-27.267878,-28.754514,-28.502809,-30.618635,-31.459148,-32.67281,-34.188294,-34.117957,-36.232246,-37.43998,-38.690982,-39.671149,-40.069577,-41.201655,-42.201094,-43.196878,-42.942997,-42.909149,-42.902804,-43.563493,-42.156737,-41.564747,-39.873056,-37.794967,-36.241756,-33.78048,-30.669039,-26.530975,-22.781395,-20.12536,-18.802258,-16.359804,-16.233728,-13.539753,-12.321596,-10.954661,-9.179195,-7.1079439,-5.4295284,-3.9667782,-2.299346,-0.58628334,1.470505,2.9139815,4.1281163,5.450713,7.2679492,9.260845,11.312224,10.689768,12.736321,13.762391,16.345565,16.429262,16.778251,17.446054,18.91251,20.626842,20.969251,20.019219,21.756549,22.923024,22.951352,22.837641,22.808614,23.091775,24.947633,25.14445,24.151185,23.988392,23.796207,25.537325,25.243806,24.760829,23.663769,23.96742,24.23582,24.899994,23.29264,22.726462,22.485181,23.110151,22.636296,21.921022,20.058328,20.325253,20.743584,19.999245,19.177264,17.422609,18.139104,17.628196,18.497817,16.827003,16.482784,15.817143,16.467778,17.005216,16.003675,15.176399,14.612917,16.409102,15.67041,15.307456,14.014551,14.117623,14.898216,14.57805,14.203893,12.286295,13.119295,12.607544,14.027071,12.067074,12.237266,11.475794,12.779993,13.044599,12.121978,12.172829,12.226475,12.959974,14.242463,13.681326,13.81074,14.306548,15.998209,17.208032,17.095809,17.906959,18.607392,20.376828,22.66675,22.785165,23.585393,24.932295,27.048263,29.562737,30.535293,30.908417,32.216097,35.41867,37.063364,39.074032,39.83686,41.553276,44.54925,46.949195,48.225823,49.830177,51.782267,53.7283,57.112732,57.923542,59.933572,60.385948,63.647019,65.760442,67.09362,67.103478,69.867593,71.957153,73.801623,73.908608,75.194346,76.355764,78.433884,79.848657,79.686147,80.377632,82.143107,82.515275,83.351208,83.783426,84.767022,85.3002,86.228852,86.130868,86.251595,86.38896,86.511052,87.671393,86.774605,87.005782,86.74566,87.007172,87.090274,86.930516,86.044992,86.008335,85.698813,86.272637,84.943045,85.348216,83.867306,84.094552,84.981785,83.73889,83.861786,83.890444,83.815127,83.74482,84.514925,83.57949,84.188346,84.111958,85.550657,85.154545,84.943862,85.387059,86.129048,86.758447,86.332739,87.131131,86.743213,87.496346,87.973048,88.20413,88.319252,88.699249,89.654702,89.645111,90.185188,89.718199,89.994146,90.139764,91.064278,90.547562,90.575874,90.382207,90.150582,90.442572,90.340111,89.568325,89.46303,88.713247,88.768259,88.520117,86.985271,87.517658,86.178443,86.215906,85.520812,84.135521,82.8679,80.206295,78.933023,78.029773,76.252005,75.38178,74.218526,74.370174,73.258941,73.43879,72.083709,72.231539,72.172486,71.92734,71.697882,70.971246,70.507565,71.205193,70.433746,68.179837,68.335745,66.935691,68.112059,65.750537,64.970832,62.900588,62.701985,61.545679,59.78079,56.795502,55.825902,53.818097,53.485441,50.403254,47.379209,44.89558,42.480593,40.376671,37.510795,33.568601,30.818181,27.596141,25.506431,22.028844,17.380386,13.243984,10.580834,7.1698154,2.8153591,-2.2158661,-6.2361649,-10.074975,-13.177999,-18.162311,-22.704347,-27.565087,-31.552554,-34.574785,-39.838813,-44.357342,-49.582046,-52.803684,-55.925541,-60.973959,-64.944442,-69.843798,-73.198933,-76.134492,-79.749759,-84.105959,-88.281846,-90.950785,-93.142052,-96.938749,-99.902363,-103.46256,-105.57075,-107.37582,-109.89261,-112.50012,-115.3684,-116.04083,-117.465,-117.95739,-120.35975,-121.44076,-122.57809,-122.29492,-123.03938,-123.63128,-124.61318,-123.98897,-123.21941,-123.52387,-123.94019,-124.30651,-123.94466,-122.48094,-122.81145,-122.85798,-123.77697,-123.44162,-122.1287,-122.18656,-123.33684,-123.7091,-125.08737,-124.41012,-125.52891,-126.42701,-127.63309,-129.08423,-127.79914,-128.77171,-130.18776,-131.49052,-133.25594,-133.19197,-134.52207,-136.30779,-139.14083,-140.40487,-141.24138,-142.80853,-144.81703,-147.72836,-148.96042,-149.78185,-151.64685,-153.93919,-154.89791,-156.78454,-156.96211,-158.91433,-159.67597,-161.24127,-161.23699,-161.38371,-162.00032,-162.03528,-162.39566,-162.40964,-161.39482,-161.53286,-160.94784,-160.43347,-159.63733,-158.03738,-156.9649,-156.101,-155.2893,-154.14515,-152.34024,-151.34516,-150.58591,-149.12674,-147.77686,-146.40734,-145.17672,-144.79203,-143.29358,-142.44962,-141.16478,-140.41132,-139.50716,-139.58523,-137.08483,-137.05926,-135.5942,-135.45792,-135.35527,-134.41334,-133.0997,-132.39004,-131.86054,-131.42809,-130.51465,-129.84309,-128.67978,-128.24855,-127.59562,-126.32271,-125.46295,-124.40553,-123.47419,-122.70444,-120.97964,-119.09718,-118.2764,-116.50757,-115.58492,-113.25529,-111.73174,-109.1246,-107.87705,-106.15513,-103.05709,-100.67246,-97.36651,-94.713473,-92.256863,-88.699692,-85.02378,-81.154044,-78.019705,-73.78737,-69.843716,-65.441501,-60.593614,-55.502629,-51.48647,-43.670612,-38.134412,-32.657188,-27.468645,-20.624175,-13.138207,-4.8308295,1.3186987,8.4848733,14.478258,21.494161,28.621423,34.111693,40.227086,45.645035,52.297739,59.043269,64.168909,68.744256,74.378859,80.571286,87.395008,90.918845,96.108159,99.542608,105.94378,110.22748,114.44866,116.52573,121.54147,125.17998,129.62163,132.2875,134.43392,137.17744,141.26448,144.03925,146.57359,148.234,150.12572,153.7012,156.72028,158.22836,159.29071,161.00238,163.43492,166.10065,167.3516,167.66021,169.25217,171.02107,173.61254,173.95303,174.20589,174.44066,176.28371,177.00256,177.41269,176.35443,176.6191,177.61103,178.19759,178.20213,176.57037,175.96669,176.5093,175.23994,175.50154,172.36408,171.46264,170.71561,170.76962,168.39306,166.23184,163.74929,162.77024,161.68089,160.22591,157.09504,155.13564,153.3445,152.35553,150.28225,146.84056,144.90185,142.39917,141.3446,138.13887,134.97442,132.0401,129.88945,127.91555,125.4623,121.19881,118.39159,115.92151,114.11733,111.43893,108.02507,104.42071,102.61658,100.41116,98.008497,94.339879,91.150166,89.348586,87.261988,86.180356,82.382258,80.032969,78.9161,76.251008,74.436956,72.171935,70.120067,68.746904,67.109218,64.498834,63.15988,61.291527,60.139824,58.568742,56.705393,54.775485,53.139903,52.34662,50.838164,49.564338,48.095707,47.179376,46.57526,45.350034,43.594681,43.47941,41.275777,41.496614,39.964612,39.278298,37.382125,37.193198,35.791648,34.853323,33.91299,32.236022,31.746051,31.271973,29.927993,29.694833,27.406718,27.462959,26.082854,25.979168,23.985211,23.196754,21.72969,21.248003,20.421411,18.722102,17.27575,16.070914,15.064526,13.998289,11.826183,10.95075,9.4920769,9.2245136,7.0306252,6.93996,4.3212827,4.582487,2.6607794,2.5599647,0.4589476,-1.3438969,-4.1098586,-5.6651993,-7.0516441,-8.7303028,-10.00609,-11.22532,-12.005841,-11.909092,-12.802491,-13.276816,-12.623519,-12.785293,-12.54751,-11.835,-12.353812,-12.047267,-11.569923,-11.082927,-10.437647,-10.939335,-9.7665845,-10.101517,-8.7228153,-10.333166,-8.8078942,-9.1268156,-8.9315729,-7.9563713,-9.9657852,-10.104144,-11.574516,-9.6835652,-13.166392,-13.143964,-14.719219,-16.016603,-16.669435,-19.272684,-20.939093,-23.077091,-25.302874,-26.448988,-28.1518,-30.138464,-33.291036,-35.323662,-36.395548,-40.404236,-42.015138,-46.383751,-46.425382,-50.022744,-52.546799,-54.82477,-57.97625,-60.960399,-63.501877,-66.475702,-69.223056,-72.304928,-74.944989,-77.534189,-80.142382,-82.434005,-85.413156,-88.234526,-90.488302,-92.804564,-94.670687,-97.151434,-99.561968,-100.97443,-102.63131,-104.12674,-105.47762,-107.02616,-107.70521,-108.82005,-108.3081,-109.60857,-109.10531,-109.80941,-108.04733,-106.63523,-105.14906,-102.86849,-101.86034,-100.04582,-100.38017,-99.264984,-99.562199,-98.635718,-98.340151,-97.611153,-97.599883,-97.131496,-96.081483,-95.747273,-94.463155,-93.670264,-93.053637,-92.091482,-91.262845,-89.956493,-89.154774,-88.763469,-88.205827,-87.396553,-87.275064,-87.486144,-87.620981,-86.125599,-84.392513,-82.938956,-80.852186,-79.867175,-77.622469,-75.30453,-73.060971,-71.452182,-68.42133,-67.521176,-63.656728,-61.250176,-58.528199,-56.223951,-52.512561,-50.06828,-45.977524,-43.367809,-39.514826,-37.107901,-33.603745,-30.309191,-25.611968,-24.286389,-20.769139,-17.607031,-15.672247,-11.87127,-9.5699476,-6.0068683,-5.900273,-0.15207513,0.75013431,3.875261,4.8943811,6.8834017,9.901517,12.444116,13.690677,16.118538,17.730342,18.223181,20.481284,20.805289,22.183911,21.356492,24.501946,24.146187,26.347766,23.588777,25.37456,25.108138,24.324622,24.634479,24.005109,23.65968,23.695546,22.307561,21.943845,20.520384,19.443553,18.723713,17.276457,16.457699,14.748369,13.696661,13.032733,11.535928,10.462998,9.0141253,8.4224592,7.6289402,7.6054053,6.2855422,6.7928877,6.3079449,7.7666872,7.9351625,9.3820799,9.6297582,12.8138,13.681704,15.25641,14.880431,15.309164,14.701623,15.807602,16.162437,16.672556,16.799564,17.537442,18.767725,18.531742,19.871248,19.566147,20.582729,21.502523,22.277261,22.940467,23.580572,23.518226,24.314934,25.375192,24.276097,25.569613,24.996346,26.318062,25.438632,26.358312,25.712682,26.761807,26.385561,27.234615,26.609406,26.250075,25.959439,26.271414,25.95081,25.481255,25.373401,24.350519,24.591786,23.529636,22.252274,21.509446,19.788404,19.409453,17.659538,16.129016,13.592047,12.839637,10.44378,9.1638517,6.4535298,4.7301164,2.6035084,0.25323304,-1.565942,-4.0621936,-6.7822842,-8.5675552,-11.186836,-13.015405,-15.360665,-18.293334,-20.186027,-22.113416,-24.113911,-26.417694,-28.636249,-30.697987,-32.958901,-33.316125,-36.277261,-37.347132,-38.658413,-39.245617,-39.733572,-40.519324,-41.153357,-41.269516,-41.17308,-40.497274,-39.813829,-38.859364,-38.347991,-37.141913,-35.186611,-33.660885,-32.156871,-30.28861,-27.317527,-25.014651,-21.203724,-19.8868,-15.802831,-13.310816,-8.7864801,-5.7763427,-2.2178141,1.5602576,6.0406624,10.368703,14.008302,18.119061,22.100606,26.674208,30.80256,35.207487,38.564673,43.941081,47.60134,52.397045,56.338662,60.655765,64.257354,69.303973,72.076762,76.11678,79.490036,82.672847,85.918011,89.373673,92.589796,94.836143,97.977085,100.11274,103.11372,104.70277,106.63155,107.52356,109.67644,111.18898,111.99155,113.34442,113.84356,114.85196,115.18366,116.46747,115.5348,116.55351,115.87668,116.54617,116.01371,115.11015,115.52599,114.33626,114.81123,113.55424,113.166,110.30467,111.42351,108.41747,108.05135,106.55775,104.74262,103.36148,101.84492,101.13406,98.282477,97.073665,94.545099,93.325321,91.384708,88.836751,87.496277,84.514476,83.55276,80.022681,78.957575,75.270274,73.316507,71.173582,68.699259,66.238254,63.474453,61.142166,58.639957,56.204028,53.192243,49.858811,45.798585,43.00539,40.04484,37.466026,35.148602,32.649449,30.793207,29.144432,26.872764,25.477,23.841359,22.118389,21.839622,20.42386,18.409365,17.776549,16.442554,15.496424,14.434418,13.139834,12.23262,11.228995,10.459857,9.2792486,7.9373113,6.6904771,6.4154822,4.363126,3.5510112,2.0998042,0.16992332,-1.1199439,-2.9116372,-4.4104182,-6.6379049,-8.4872141,-10.264316,-12.070754,-14.276261,-16.39185,-19.361845,-21.149825,-23.956845,-26.578517,-29.479111,-32.052101,-35.434817,-37.514781,-40.439171,-43.945306,-46.434525,-49.160363,-52.260185,-54.961315,-57.971271,-61.353238,-63.649201,-67.363289,-69.09581,-73.266773,-75.485843,-79.077586,-80.702706,-84.440466,-85.935922,-89.361932,-91.391244,-93.5693,-96.105037,-98.032908,-100.50104,-101.81452,-103.55439,-104.85297,-106.28098,-108.31557,-108.36412,-110.7446,-110.77989,-112.89534,-112.72472,-114.50364,-113.62593,-113.99355,-114.461,-114.35153,-114.029,-113.62329,-113.62566,-112.92263,-112.7983,-110.06338,-107.88164,-106.44795,-104.68881,-104.8519,-102.54403,-102.81036,-100.52622,-101.55475,-99.297338,-100.11707,-99.905593,-99.423298,-100.20645,-100.79409,-101.5173,-102.34219,-103.28243,-103.97847,-106.12647,-104.69749,-104.0365,-105.12997,-105.98771,-105.67439,-104.68272,-103.17878,-103.87997,-103.66611,-102.7071,-101.21531,-98.838217,-98.990255,-98.28904,-97.510078,-95.002705,-93.070225,-91.502612,-90.539308,-88.287621,-85.701694,-82.176553,-80.320723,-78.888139,-75.944944,-72.767653,-69.302849,-66.742161,-63.963059,-61.832654,-56.375259,-53.37237,-49.321479,-47.502688,-43.692762,-39.760392,-35.424136,-32.22978,-29.473905,-26.319252,-21.618326,-18.087938,-14.363749,-12.364371,-8.7232808,-5.8173524,-1.3820694,1.3770311,3.9579882,6.5049847,10.345111,13.89339,16.550743,18.492845,20.577581,23.695837,26.374325,29.705795,29.537632,32.312052,33.693202,37.45579,37.375578,39.496238,38.884235,41.452674,42.990526,43.980359,44.106149,44.348365,44.928574,46.272742,46.398666,45.518426,44.586604,44.94717,45.031487,45.078206,43.475641,42.88887,43.299052,43.238942,43.884352,41.851415,42.147747,42.177055,43.403955,43.84844,44.03335,44.066416,46.866791,46.480696,47.199594,46.123245,45.777689,46.306117,47.03085,47.604572,46.784749,46.484346,45.791705,46.725135,47.60308,46.128417,45.936492,45.667197,46.756776,46.791028,46.430523,44.615873,45.898653,45.384075,45.080187,44.395265,44.941529,44.487251,44.833114,44.130401,44.089669,44.296103,43.323226,43.88051,42.758617,42.687517,42.105902,42.375896,42.112278,42.231623,41.398998,41.2288,41.195615,41.110609,40.752042,40.801308,40.026039,40.745004,40.375442,40.864777,40.728185,40.359077,41.147485,40.490451,40.972649,40.192741,40.487181,40.388693,40.719565,40.734066,40.260058,40.623983,40.604204,40.201721,40.586789,39.756347,40.663923,39.844057,40.640046,40.485639,40.581577,40.291689,41.076478,40.58819,41.251178,40.773255,40.394022,40.513221,40.669951,40.729635,40.555041,40.287945,40.50319,40.293557,40.39447,40.235417,40.344264,40.622969,40.450854,40.373289,40.470536,39.677883,40.115418,40.019847,40.126921,39.475013,39.316955,39.185056,39.601738,38.725093,39.422918,37.963404,38.362325,38.117566,38.399451,37.298061,38.063392,36.558738,37.122835,36.1251,36.261159,34.988449,36.052125,34.306794,35.518326,33.895636,33.971299,33.24582,33.515456,32.818701,32.776501,32.241543,31.304912,31.433323,30.720419,31.06805,30.143454,29.537296,29.842449,29.19927,28.773807,28.168731,27.732345,27.318417,25.637704,24.287544,23.102064,22.937448,22.118335,21.785878,21.664621,21.093291,20.707214,21.025171,20.85516,20.926278,21.107007,20.910527,21.557695,21.527381,21.814598,21.774201,22.308513,22.071816,22.493621,21.775831,21.54096,21.254833,21.175166,21.195028,20.315431,19.50135,19.015162,18.94256,17.131854,17.287947,15.241871,14.6866,13.835253,12.24961,11.142607,9.3439491,7.5502486,6.2959838,4.5935586,3.0334301,0.87872328,-1.5327438,-3.1639017,-4.7987358,-7.2421394,-9.5573122,-11.457066,-14.523468,-16.127333,-19.797909,-21.569751,-24.567559,-26.806559,-28.76572,-31.288871,-33.980875,-36.224404,-38.488869,-40.61277,-43.627554,-45.711034,-48.238089,-50.234269,-52.435792,-53.885414,-56.871109,-58.177101,-61.002093,-61.913987,-64.511812,-66.237035,-67.961971,-69.000015,-70.787158,-71.29233,-73.828608,-73.669218,-74.584132,-75.368002,-75.648448,-76.78946,-76.993202,-77.149865,-76.994778,-77.140566,-77.157953,-76.612781,-77.380751,-75.627823,-76.388688,-74.856791,-74.871957,-73.817121,-73.891636,-70.280853,-69.745821,-68.037746,-67.027455,-66.02972,-64.548921,-65.452296,-64.460046,-64.360876,-64.752895,-65.540334,-67.525749,-68.096802,-69.334478,-69.957689,-71.971778,-72.702452,-72.767497,-73.577633,-72.907197,-74.32016,-75.454015,-75.487343,-74.73089,-74.020184,-74.624788,-74.325693,-74.593109,-72.736212,-71.55393,-71.459894,-71.138657,-69.406937,-68.091736,-66.878248,-66.260235,-64.636154,-62.215408,-59.554236,-57.704431,-56.478451,-54.161885,-51.744571,-48.321169,-46.85486,-43.376666,-42.726417,-38.283011,-35.695546,-32.806503,-30.258184,-27.766336,-23.990973,-20.174178,-17.358804,-13.998696,-12.661403,-8.1415178,-5.0139676,-1.5244624,0.21069826,3.404353,6.7512054,9.7630161,13.367586,15.06291,18.07633,21.102855,24.448985,27.614519,29.155339,32.338734,33.947149,37.971202,39.01495,41.656248,42.506825,45.041846,46.319346,47.843081,48.934594,48.349499,49.789553,51.158836,51.605765,51.412896,50.906703,51.426073,51.950544,51.935827,51.636405,50.284435,50.928496,50.028846,50.627709,48.63047,48.293239,47.575266,47.676686,47.518233,46.275784,45.308646,44.912365,44.972641,46.02646,45.179739,45.131745,45.431224,46.901493,48.442386,50.392639,48.322636,49.403262,48.678602,50.347453,49.749691,48.49172,49.252609,48.959165,48.873811,47.713426,46.829862,47.630017,46.946795,47.346534,45.128241,45.942067,45.393281,45.961939,45.136639,44.517926,43.569506,44.243781,43.867802,44.088161,41.90317,42.344127,41.565977,42.657524,41.775827,40.562676,40.162762,40.267968,39.680927,39.178511,39.03084,37.753694,38.240017,36.916796,36.437356,35.488145,34.868603,34.043524,33.781162,32.267925,31.573808,30.399052,31.198415,28.866049,28.661198,26.766636,27.361476,26.114819,25.674751,23.067732,22.807126,20.901409,21.561825,19.538091,17.384619,16.645013,16.180722,15.212961,13.875711,11.84271,10.437454,9.919466,9.929815,7.7958954,7.4410931,5.1853087,6.4951793,4.6621967,4.9904644,2.2052455,1.8045734,0.26624978,0.71906029,-1.0538749,-1.7164603,-3.7051589,-3.8327698,-4.2695954,-4.837258,-6.9565315,-7.9898582,-8.7668733,-9.1991699,-8.956314,-12.4103,-12.078914,-13.26945,-12.520779,-13.41287,-14.49999,-15.402598,-15.114979,-14.863585,-15.929615,-17.464431,-17.838115,-17.613052,-17.979748,-19.465256,-20.444028,-21.30302,-20.582578,-21.444823,-21.965296,-23.849282,-24.090861,-24.102571,-24.594756,-26.859171,-27.712249,-28.530403,-28.331963,-28.075228,-29.30684,-30.139563,-29.692391,-28.784094,-28.174316,-28.176531,-28.54874,-28.081532,-26.662845,-25.929643,-26.063463,-25.578564,-25.205007,-23.950934,-22.492471,-22.872205,-21.878104,-22.003417,-19.229356,-18.985835,-17.706327,-18.498256,-17.133633,-15.969637,-14.542894,-14.415229,-13.788091,-11.5084,-11.757964,-8.7156952,-9.9402323,-9.1214393,-9.9393626,-8.8512929,-8.2345683,-9.1756434,-10.074848,-9.6824224,-10.325474,-10.621212,-12.361252,-12.418115,-12.899477,-13.758943,-15.39213,-18.019566,-18.393047,-18.65224,-19.510034,-19.737559,-21.33868,-21.862752,-20.672569,-20.678804,-20.364077,-20.680253,-20.994549,-18.873839,-18.949362,-18.431283,-18.735142,-18.413454,-17.310783,-15.914919,-16.315327,-16.311154,-16.505207,-14.997077,-13.932229,-13.530183,-13.750334,-13.402381,-12.174232,-10.39487,-10.434568,-10.019378,-9.7440236,-8.4505293,-7.0670189,-5.9153426,-5.9673974,-5.6465187,-3.1482337,0.16241542,2.1191894,2.9443802,3.4241644,5.8705774,6.6282773,7.5086755,6.1321589,6.0601519,7.0138089,6.8762199,4.7153246,4.1616616,3.0535238,2.7833201,2.0873688,0.046666437,-3.4256183,-5.572897,-6.9431108,-8.6862024,-11.907472,-13.727892,-14.123029,-14.072016,-14.395764,-16.127311,-15.969501,-16.49567,-14.763221,-14.884674,-14.734043,-14.914709,-14.407635,-12.446919,-11.78116,-11.029549,-11.03375,-9.033528,-7.9714539,-5.7540435,-5.4083784,-4.1280561,-2.3732456,0.026938016,1.9299817,3.4008741,3.7489019,9.0785491,11.243125,14.877636,16.439064,19.12248,21.452236,23.933514,24.310127,26.19575,25.249259,26.667259,26.237275,29.098866,27.037974,26.436295,25.543619,25.681476,23.723154,22.281515,20.614738,18.213289,16.832867,13.30594,12.332328,8.8377788,7.740295,3.7088843,2.5988757,0.40475499,-1.3096108,-2.607487,-3.0016366,-3.9004329,-4.3483032,-5.9401815,-5.9751784,-6.6845727,-7.4914893,-7.1226366,-7.5966089,-7.3708468,-6.3199773,-4.8868388,-4.6825963,-4.183247,-2.9552867,-1.9064689,-1.336617,-0.24157021,0.37267395,1.3998507,2.8464085,3.5335466,4.2339491,5.5875468,6.3709288,8.7570324,9.9241754,11.965944,13.942948,16.265546,19.64852,22.221751,23.48174,24.136832,25.633121,27.503125,28.418637,29.245168,29.945053,29.431985,29.956663,29.294085,29.030505,28.610643,27.418841,27.010253,26.296267,24.405574,22.103941,22.452398,21.652124,21.415736,19.804793,20.170765,18.768422,19.00589,17.878195,17.042091,16.850226,15.388125,15.410112,14.054669,13.243938,11.667238,10.619802,10.480307,9.2077976,8.4986275,7.2817332,6.7922257,6.3709499,5.493924,5.437183,4.6613072,4.6696052,4.5708466,5.184302,5.5808062,6.4541102,8.1791571,6.6846506,7.8951587,7.329919,7.9086723,7.3808761,8.0307013,7.8373208,8.9907871,7.9526918,9.2935644,8.6736661,9.7740528,7.9631148,8.6542368,7.3168637,7.3631049,6.3452954,5.2578528,4.3524084,2.0594272,1.3233575,-1.6695202,-2.7857905,-6.3065687,-8.3026181,-9.9985959,-11.18703,-12.832426,-14.752163,-15.783901,-17.173119,-18.41347,-19.288004,-20.916013,-21.336021,-22.408383,-21.974455,-22.544151,-23.041187,-22.548375,-21.617364,-20.592566,-22.516999,-22.466677,-21.806256,-20.494444,-19.899307,-20.478379,-21.392676,-21.149962,-21.23074,-20.694339,-21.702161,-22.40314,-22.779193,-22.688655,-23.063267,-23.44619,-24.889113,-25.962499,-25.666671,-26.616524,-26.796197,-29.025366,-29.296713,-29.67143,-31.024699,-31.503698,-33.954673,-35.048435,-35.220106,-34.646213,-35.128998,-36.451638,-36.864016,-36.478824,-36.198738,-36.206562,-36.592265,-36.62468,-35.691802,-34.628544,-33.846144,-33.820901,-33.524675,-31.326779,-30.624241,-28.708942,-28.967259,-27.750752,-26.185438,-24.093935,-22.883796,-22.203859,-21.0066,-18.855682,-16.422078,-14.593893,-13.934138,-12.06509,-10.192744,-7.7134461,-5.4711454,-4.8022364,-3.5342722,-0.9436492,1.3666295,3.0904536,4.6466117,5.1424487,7.6886685,9.4567439,11.243122,12.026142,13.128259,14.385887,16.468817,18.558898,17.916479,19.04437,19.693006,21.0485,22.091344,21.569896,21.336601,21.950779,22.920117,23.091322,22.552133,21.503066,22.486968,22.26198,22.841956,21.615224,20.619214,20.085848,20.296017,20.027976,18.543334,17.953538,16.980489,17.47876,16.911104,15.778983,14.706407,14.684539,14.59078,15.207098,14.495614,14.216078,14.468102,14.181354,14.623241,14.360943,15.267121,14.56761,14.532037,13.822254,14.125937,13.447454,13.711965,13.441277,13.805072,13.107659,13.238901,12.221955,13.371563,12.438056,12.315476,11.856164,12.299252,12.565535,12.362112,12.604585,12.402582,12.135704,12.220241,13.005885,12.698568,13.394474,12.532656,13.769413,13.062297,13.12144,12.523473,12.34006,12.571434,12.745499,12.962426,12.479681,12.800399,12.85348,13.228984,12.132367,13.069934,12.220938,12.979496,12.921061,12.358519,12.704437,12.051864,12.848829,12.075467,12.616359,11.448051,12.672873,12.552281,12.689694,12.313635,13.03925,12.240795,12.632619,12.331719,12.07958,11.852226,12.924854,12.201071,13.26715,12.86699,12.713176,12.434637,13.396516,13.106571,13.469295,13.027889,12.773208,13.689712,13.112417,13.189231,13.196496,12.930138,12.657313,13.739277,12.961638,13.259462,12.956967,12.997106,13.603176,13.231966,13.701516,13.122158,13.823428,13.213961,13.988853,12.966448,12.588101,12.216174,12.792472,11.939584,12.44278,12.313692,13.071595,13.047058,13.91192,14.179124,15.035011,15.001149,16.334377,16.171066,16.599515,16.934528,17.394804,17.895548,18.226619,18.198649,18.265063,18.698775,19.064761,19.017958,18.823229,19.233177,18.500427,19.638979,17.999921,18.756865,17.19915,18.085463,17.350964,17.422975,16.307622,16.458306,15.093927,15.28732,14.407747,12.63542,12.541179,11.139777,10.959378,9.6741161,8.4559799,6.4699828,6.7511567,4.6508893,3.8498245,2.0715537,1.0510486,0.46234553,-1.574205,-1.4004252,-4.2628586,-4.9319794,-6.2802415,-7.4656026,-8.8710248,-9.6156984,-11.253879,-11.369467,-13.03799,-13.671241,-15.283996,-15.417715,-17.239467,-17.35726,-18.118932,-19.118078,-19.251975,-20.56739,-20.98912,-21.603953,-22.509134,-23.365232,-24.02936,-23.107891,-24.112729,-24.77687,-25.175807,-24.801656,-24.283994,-24.969263,-25.34102,-26.291629,-24.817856,-25.633248,-25.0146,-26.529911,-26.37402,-25.328928,-25.162673,-24.171089,-25.652108,-25.251188,-25.037902,-23.837392,-25.132425,-25.410952,-26.176231,-25.700627,-24.739147,-25.550741,-26.34843,-28.152809,-25.328734,-26.88371,-25.740744,-28.784848,-28.743404,-29.439706,-28.20982,-30.267417,-30.136724,-32.186569,-32.323495,-32.740593,-33.386074,-35.028981,-36.372491,-36.464862,-36.603005,-37.102249,-38.665591,-39.400495,-39.979066,-39.754724,-39.674451,-41.983354,-41.326361,-42.162522,-40.722423,-41.362883,-41.446086,-41.893244,-41.223078,-40.071189,-39.628204,-38.829597,-40.078249,-37.871068,-37.112787,-35.838678,-35.934202,-34.730779,-34.193534,-31.586055,-30.810839,-30.297466,-28.706245,-28.297541,-25.162301,-23.955771,-22.579045,-22.045749,-19.858688,-18.21393,-15.925449,-15.419544,-13.883793,-13.313638,-11.122359,-9.4991643,-9.1273571,-8.3859783,-7.3158286,-5.4543318,-3.3787925,-3.5003085,-1.8762372,-1.7391935,0.66247585,1.7512769,2.3146331,2.5373397,2.2539728,4.7710264,4.7701384,5.5956461,4.7754252,5.108804,6.3404537,6.8685302,6.8848103,6.4739879,6.3980861,7.5469499,6.6713392,7.1573264,6.6360091,7.030688,6.6803276,6.4437768,6.4280996,5.1258077,5.7403291,4.8632753,5.2679299,4.002978,3.8736475,3.7677486,3.2105098,3.5530485,2.139289,2.7817568,1.5136791,2.4120828,1.414229,1.8093346,1.290924,1.4568816,2.3122819,2.1056339,2.9402978,3.1451237,5.1525901,3.4638282,5.3277236,4.1014531,5.5075167,4.311213,5.7626674,4.9237114,5.3020637,4.7630847,4.6311955,4.9855022,4.3235276,4.3287748,4.044953,4.2197372,4.0056343,3.592885,4.2922687,3.0881109,3.225976,3.1480317,3.3296515,3.0006145,3.859472,2.7076917,3.6844073,2.9764057,3.5021276,3.0772744,3.089725,2.6922019,3.4816121,2.8292169,2.5181031,3.186913,3.0057611,2.914145,3.2884279,3.4694512,3.1052713,3.8217107,3.7247128,4.1629782,4.2724075,4.1696311,4.9849045,5.3284828,15.130936,10.372485,15.380009,13.260832,14.341128,12.101152,12.336034,9.0017945,9.2610731,-4.8753858,3.9410649,-6.4984228,-2.0992858,-6.3329033,-3.099703,-5.085256,-1.8720444,-3.0242297,0.71534698,1.1313579,4.1955374,6.1506696,9.3799452,12.72508,16.167884,19.867378,23.499907,26.978644,31.115394,35.446164,39.816573,43.326673,47.386228,51.57849,55.522737,59.97511,63.108117,67.12087,70.399693,73.998154,77.633822,79.889506,83.502877,85.551721,88.07524,90.770512,92.081066,94.608749,95.235246,97.463231,97.825313,98.971194,98.948976,99.288663,99.110176,98.728128,98.499037,97.131739,97.087381,94.716962,94.605626,91.730903,89.928197,87.462852,85.076318,82.118026,79.356197,75.455125,72.809354,68.682231,65.222616,61.351006,56.595097,52.687219,48.362349,44.352109,40.046365,35.759447,31.503691,27.05788,23.767343,18.227049,15.358809,10.751078,7.6128333,3.6802419,0.62981961,-3.4033627,-6.4394581,-8.3698995,-11.470225,-13.594911,-16.276376,-18.684591,-20.629909,-22.220047,-23.084146,-24.104187,-24.262883,-23.467141,-22.73681,-21.493191,-20.506549,-18.392827,-16.453436,-12.608571,-10.541017,-6.244548,-2.5935617,1.8550612,6.1446839,-1.3077395,4.0426177,-0.96740563,-0.22893791,-3.8285246,-5.5566832,-10.517155,-13.675845,-19.777884,-9.9817131,-22.437338,-16.005298,-23.294326,-20.86747,-25.873548,-25.572408,-30.016102,-30.062111,-33.864585,-34.737054,-38.363486,-39.872644,-43.61099,-44.794009,-48.840191,-50.187309,-54.716995,-56.442147,-59.742274,-62.715628,-65.524833,-68.940344,-71.397642,-74.99959,-77.074027,-80.83649,-83.387841,-86.550061,-89.46462,-91.329978,-94.760033,-97.349013,-100.2069,-103.11524,-104.23528,-107.85289,-109.59265,-112.86631,-114.16455,-116.90446,-118.22376,-121.04966,-123.06259,-124.98523,-126.82861,-128.42743,-131.24203,-132.79986,-135.72381,-136.41421,-139.75633,-141.05781,-143.94368,-145.06615,-147.38452,-148.70338,-151.27051,-152.67702,-154.86957,-156.40462,-157.91724,-160.23869,-161.73345,-163.58885,-164.5705,-166.58729,-167.17684,-169.77461,-170.13231,-172.10456,-172.65558,-173.6991,-174.87206,-175.09798,-175.86834,-175.47668,-176.29588,-175.18689,-174.12453,-172.35419,-171.89424,-171.17954,-170.4636,-168.81211,-166.31729,-164.06015,-161.7651,-158.82328,-155.97718,-152.35387,-148.84075,-144.34152,-140.58953,-135.26298,-129.77058,-124.5347,-118.43602,-112.35428,-106.35263,-98.402554,-91.47939,-82.86976,-76.068601,-66.911086,-58.435427,-49.417899,-40.273013,-31.49708,-21.449779,-11.906058,-2.0615874,8.2699906,17.23071,27.460239,37.66166,47.167624,57.724717,66.661303,76.593358,86.047305,95.623483,104.76567,113.42123,122.70493,130.47082,139.55795,146.35822,154.65025,160.80622,168.72445,174.87149,181.32333,186.86662,191.94151,198.12707,202.3337,207.43462,210.54397,214.97402,218.5957,221.22039,224.53286,226.54292,228.47461,231.35704,232.11455,234.23679,234.14202,235.87242,235.47085,237.02979,235.53403,236.02371,234.27401,233.97271,232.51,232.01189,230.14605,228.7823,227.16735,225.3598,224.08992,221.26623,220.0632,216.27049,215.56838,212.29469,210.36586,206.86422,204.64678,202.07678,199.48132,196.37482,193.50819,190.98858,188.23087,185.49014,182.2544,179.09766,177.02633,173.78573,172.23268,168.51077,166.51901,163.92564,162.53754,160.75954,158.55918,156.11069,153.92639,149.85327,148.02099,144.17723,141.2015,138.45961,135.0909,131.94834,128.39553,124.51554,121.22831,117.58313,114.82174,110.43401,106.41161,103.02336,98.998955,95.593702,91.327231,86.988735,83.475068,79.494451,76.177224,71.391472,68.015736,63.041303,59.763914,55.896981,51.578814,48.199682,42.655953,39.672271,34.889046,31.079107,25.935553,22.384935,17.694532,14.181085,9.1053222,5.6413682,0.87817798,-2.5038063,-6.6179564,-10.278448,-14.700291,-18.940676,-23.11547,-26.637813,-30.677149,-35.192881,-38.633219,-42.15877,-45.305483,-49.531239,-52.766744,-55.696754,-59.820889,-61.907195,-65.53742,-67.945915,-72.021007,-73.670488,-76.604592,-78.371483,-80.876172,-83.603947,-85.581269,-87.488864,-89.406929,-91.373562,-93.711719,-94.87972,-96.488961,-97.670539,-99.342709,-100.79516,-100.9075,-101.63021,-102.43861,-103.29982,-104.28973,-104.43194,-104.2339,-104.86521,-105.13768,-105.75073,-104.86459,-104.79383,-104.44285,-105.08555,-104.29274,-104.22276,-102.9118,-103.29561,-102.21559,-102.71623,-101.42723,-101.61161,-99.877489,-100.31694,-98.959522,-99.841402,-97.112748,-98.346433,-96.227725,-96.588477,-95.343968,-94.636671,-93.619211,-93.284539,-92.107405,-92.163787,-90.530471,-90.044285,-89.479579,-89.122084,-88.796496,-87.182918,-86.93369,-86.360667,-86.191222,-85.378922,-84.393049,-83.696536,-83.19355,-82.239978,-82.230355,-80.403786,-80.154221,-79.07289,-78.657965,-76.739717,-76.395102,-74.553594,-74.17422,-72.621978,-71.842571,-69.587898,-69.346396,-67.453694,-67.537083,-65.142178,-64.325417,-62.383153,-61.965843,-60.692502,-59.008271,-57.510009,-55.394318,-54.424283,-52.640167,-51.461678,-49.746875,-47.655309,-48.258633,-46.56916,-45.033259,-42.654274,-42.129327,-41.281827,-40.42298,-38.062719,-37.116227,-35.358908,-35.377976,-33.584807,-33.054435,-29.85209,-30.218435,-28.792933,-28.69312,-26.351721,-25.172226,-23.482124,-24.441762,-23.992968,-21.965286,-20.74541,-19.643193,-20.05278,-19.480491,-17.913206,-16.472838,-15.92713,-15.635344,-15.113337,-13.863548,-11.69138,-10.980661,-10.912779,-10.228065,-8.7378517,-6.726714,-5.9311577,-5.4810768,-4.5222609,-2.4292421,-0.98182002,0.38883794,0.89378163,1.9640003,3.3316361,6.0107286,6.5617875,8.1025601,7.7365495,10.893795,11.939159,14.822062,15.012172,16.279939,17.951807,20.846359,22.090532,23.198781,23.869176,25.426896,28.366895,29.357912,30.819056,31.005771,32.915992,35.118728,36.679251,35.885137,36.128482,37.73826,39.102216,40.231662,40.860352,40.858183,42.59872,44.537612,45.758759,46.323098,46.167718,47.722769,49.444137,50.44305,50.682649,50.953361,51.513548,52.875595,53.939243,53.06355,53.226997,52.521149,54.425579,52.870921,54.174479,51.275308,52.786178,51.912564,52.314165,51.09732,49.423688,49.972977,48.80974,49.377169,47.106785,45.65347,43.982519,43.909838,42.356806,40.115333,39.623189,37.899245,37.027715,34.571617,34.127045,31.072416,30.775457,28.634674,27.960503,25.049577,24.480558,21.313569,21.659258,18.586122,18.069669,15.173629,14.352541,12.570673,11.156219,8.6502725,7.6304658,5.7149195,4.6544319,3.1945206,1.0738942,0.042275693,-1.2881402,-2.0545776,-3.3094114,-4.2707997,-5.6266504,-6.9583249,-6.5163908,-8.3965723,-8.901711,-9.9930833,-10.493179,-10.361906,-11.108452,-11.015555,-12.061339,-11.784905,-12.577154,-11.838224,-12.412982,-12.841254,-13.013,-12.231258,-13.112365,-12.729258,-12.877478,-12.264044,-12.482802,-11.375975,-11.963175,-11.822396,-11.408501,-10.923006,-10.511039,-10.420913,-10.526116,-10.018137,-9.2816924,-10.214536,-9.4257342,-9.6913963,-8.4635377,-9.3025902,-8.568139,-10.608642,-9.9478172,-10.163833,-10.339599,-10.431502,-10.646913,-12.272529,-11.400229,-12.084226,-11.733613,-12.912778,-12.61458,-13.726025,-13.265554,-13.907551,-14.191502,-15.244077,-15.640085,-15.303065,-16.317698,-16.302331,-16.789718,-17.301971,-17.016775,-17.314875,-16.190614,-17.855055,-16.053063,-17.47665,-15.152811,-16.163149,-15.231039,-15.16542,-14.085924,-13.412562,-12.866263,-12.954698,-11.402243,-11.232182,-9.7034019,-8.8958725,-7.8381578,-7.4019721,-5.7655842,-5.1779045,-3.5403251,-4.0973646,-2.0865741,-1.8796566,0.37185348,0.079643599,1.6279174,1.6179017,3.8005068,4.2334085,5.5688001,5.6519153,6.8337072,8.0492965,8.7922779,9.6842537,10.329971,10.888262,12.368306,13.385786,13.669397,14.813086,14.378766,16.58459,16.101476,17.683175,17.105263,17.679464,18.210507,18.722848,18.725634,18.72758,18.384606,19.584515,18.491445,19.404982,17.248682,18.51711,17.266479,17.915996,17.216366,15.701844,15.362425,14.690882,14.116353,13.000433,12.735712,10.575018,11.191245,9.4903928,9.7477021,7.8248162,7.5106146,6.9015406,6.5743823,5.8736306,4.9132458,4.4736945,4.4983667,4.2235938,5.4112437,4.5422712,3.7007261,2.8104054,3.4257412,1.676044,1.592149,0.12644597,-0.085758726,-0.5655639,-0.83039765,-2.7474891,-2.4963868,-3.9323755,-3.742479,-5.1240639,-5.6502049,-7.3348852,-7.9047837,-8.6742397,-9.5979884,-10.836265,-11.783653,-12.729112,-13.31737,-13.899914,-15.38402,-16.630638,-17.135941,-17.818567,-18.151092,-20.045434,-20.320845,-21.425411,-20.606676,-22.460282,-21.825532,-23.402145,-22.606485,-23.194088,-22.680492,-23.686672,-22.852675,-23.395214,-21.807312,-22.519128,-21.55355,-22.434346,-21.122819,-21.443773,-20.129441,-20.177881,-19.251551,-18.826028,-16.865851,-16.893583,-15.205515,-15.4038,-13.69164,-12.268041,-11.358905,-10.168727,-8.9748817,-8.0809707,-6.0361764,-4.8815857,-3.2863485,-2.7484341,-1.5902387,0.47648487,1.1657908,3.4134505,3.4799645,6.1935382,6.7299,8.946299,9.5752518,10.965718,12.068852,13.74494,15.080941,15.796306,16.567816,18.169565,18.43309,20.745597,20.457943,21.823563,22.115491,23.083976,24.255915,23.567862,24.746425,24.365046,26.026359,25.509847,26.987938,25.518301,26.676681,25.749199,27.120103,25.737322,26.192821,25.721198,25.681678,26.170887,25.551414,24.59027,24.972003,24.130432,25.159001,23.042642,23.704942,20.973695,22.011345,19.628898,20.586307,17.974036,18.970327,17.925364,18.52389,17.645847,17.724613,17.269733,18.179367,17.58914,17.981803,17.271245,17.419338,17.636822,18.393272,17.234388,17.343449,15.95966,16.808133,15.765045,15.539417,13.756079,13.679877,12.137068,12.096975,10.175172,9.2756793,7.3373822,6.3654817,5.1086875,3.8908702,2.2182162,0.18158744,-0.70412345,-2.4571584,-3.4419834,-6.3875172,-7.572383,-10.028841,-10.903458,-13.663232,-15.041496,-17.997348,-18.6114,-21.017376,-21.672285,-25.028612,-26.095444,-27.812086,-29.560289,-30.546678,-33.37996,-33.809263,-36.044349,-36.362946,-38.106404,-39.216495,-40.883234,-40.933759,-42.547591,-42.021191,-44.272743,-43.931437,-44.069641,-44.065583,-43.228042,-43.942695,-42.758129,-42.997876,-41.245931,-40.153406,-39.879575,-38.729109,-37.746573,-35.734466,-34.684856,-32.269687,-31.969579,-29.177258,-27.212999,-25.510276,-23.251399,-22.106827,-19.202365,-16.717268,-14.224618,-11.917795,-10.235054,-7.4955124,-5.379185,-2.9855927,-1.3948785,0.29161059,2.4158414,4.7423096,6.8598496,8.4547491,9.493665,12.031305,13.323083,13.278165,14.017863,15.199028,15.93552,18.492585,16.270756,17.699604,16.35923,18.977031,17.425253,18.586022,15.367644,17.567124,15.634462,16.741483,14.030205,13.653741,12.428032,13.009123,11.118959,10.573419,8.3669072,7.9945917,7.9348618,6.8825193,5.2150764,4.2336379,3.2744157,3.3822208,2.9629762,1.6854735,-0.21531195,0.45095727,-0.97615258,-0.37649509,-2.6127464,-2.6947285,-3.7517297,-2.165341,-3.1689416,-3.135759,-4.7905336,-4.5326428,-3.6368377,-3.4973108,-3.6096714,-5.4233388,-3.584285,-3.804076,-2.4962957,-3.8478353,-2.8782539,-3.5017275,-1.3023822,-1.4482516,-0.81993959,-1.3920181,-0.17546624,1.241846,1.6019039,3.0625339,1.6510744,3.9584863,3.6586917,6.3123514,4.7126024,6.0746027,5.2597896,7.5201406,8.0105073,8.2447654,7.7530537,8.4163503,10.015566,10.451063,10.814069,9.7493012,10.271475,11.253195,11.952884,12.292829,10.41545,11.937138,11.053224,13.042147,10.535656,11.518789,8.7232811,11.418794,9.7915449,9.4560666,8.2013946,7.1660833,8.4398028,6.8854285,7.2575429,3.9572783,4.2682344,3.8629238,3.7874681,2.1406408,1.3159497,-0.06966604,0.76770736,0.26991248,-0.43973219,-2.0077877,-2.6809408,-2.0675909,-3.0846126,-3.358126,-4.1494184,-3.157706,-3.5380954,-1.7364855,-4.4180198,-2.6334222,-2.9548083,-1.5878382,-3.426832,-2.4257612,-5.0164274,-3.1304888,-4.7651324,-3.7603939,-5.2266652,-4.6357618,-5.2007808,-4.8477199,-4.9239059,-5.2853996,-4.9978103,-5.0888754,-3.7986102,-4.2848687,-4.0076041,-4.610716,-3.4506101,-3.1960726,-2.2774955,-3.3357862,-2.4440325,-2.0389353,-1.8556758,-0.95301614,-1.3144948,-0.40866416,-0.56712367,0.86328377,-0.21672147,0.929689,-0.33845843,1.2245678,1.1230628,1.7484642,0.63649047,1.0848108,1.406532,2.0042874,1.6216393,1.9740278,1.7052435,2.6901829,2.5099345,3.8515817,2.5027224,4.1031059,3.0621346,5.2039753,4.0298117,5.453202,4.0481275,5.9335263,5.0369452,6.1928361,5.0741253,6.0761701,5.5592845,6.7392125,6.9012988,6.7059243,7.1108951,6.813742,8.3192395,7.4713715,7.5602372,7.8508853,8.4238446,9.6446317,9.287336,9.4653753,8.8904312,9.419632,9.6669094,10.180201,8.4972628,9.8176624,8.5488281,9.7041535,8.9602715,8.9320654,8.6186911,8.8021733,9.271967,8.8594612,9.3375947,8.271902,9.2673878,9.1868101,9.1503468,9.1168279,8.1936325,8.6320616,8.4129336,8.5796898,7.2951573,7.5597664,6.8796635,7.7645714,6.7135338,6.9630396,5.7452538,7.0987738,6.3274875,7.2403638,6.5497393,6.6576927,6.6496303,6.278294,5.2820889,5.3460467,3.8782744,4.4596108,4.141583,3.8751075,3.2413259,2.7653861,2.5028898,2.8425863,2.4527399,1.8364108,1.3183207,0.31464101,0.027414089,-0.25136279,-1.4361246,-0.87886065,-0.63201589,-0.15344628,0.4286912,0.53940514,0.58326692,2.0140253,2.116416,3.8372763,3.7731869,4.2989154,4.954946,5.7263872,5.9407631,6.3152554,5.9207313,6.9880567,7.4276559,8.0346957,7.54256,8.6862787,7.9632762,10.177618,9.1637598,10.957777,9.3924306,11.32368,10.473429,11.621576,10.434694,11.161269,9.8789144,11.243711,9.8532721,10.20162,8.4578078,8.497238,7.4431904,6.9163141,5.9485923,4.4360573,3.2564555,2.2822841,1.4371402,0.15568841,-2.104235,-2.8947394,-3.9358648,-5.3430346,-6.9222594,-8.3256482,-10.069468,-11.105377,-12.626169,-14.629764,-15.833782,-17.996471,-18.013457,-21.047593,-21.298552,-24.135449,-24.321019,-26.399538,-25.838036,-28.658934,-28.189776,-30.624113,-29.829697,-30.99928,-31.584958,-32.870377,-33.519889,-33.084043,-33.776342,-33.839184,-35.073883,-34.423151,-34.30774,-34.299051,-31.573816,-32.686594,-31.049939,-31.048537,-29.669746,-29.785625,-29.557852,-29.623996,-28.471958,-28.710318,-27.899738,-28.212675,-27.894528,-27.272245,-26.653847,-27.005187,-26.906947,-27.297378,-25.948775,-26.668846,-25.136836,-26.74332,-25.769841,-26.451161,-25.608104,-26.345604,-26.740457,-27.466816,-26.237475,-24.958136,-24.712867,-23.860097,-23.561505,-22.706659,-20.824431,-21.1216,-19.829636,-18.904328,-17.912795,-16.174435,-15.489065,-15.492235,-14.22025,-13.475082,-11.286937,-11.046478,-9.6169332,-8.7847776,-7.0425906,-4.8225292,-4.0822486,-2.3413557,-1.1625003,1.0589444,2.772078,4.5527682,5.8082915,7.2014651,8.2263025,10.810311,12.131095,13.604751,14.526118,16.61871,17.699099,19.169369,19.679914,20.309025,21.382866,22.337901,23.457784,23.783932,23.296888,24.836904,24.978191,25.724163,24.810288,25.224992,24.907385,25.24817,24.799135,24.754187,23.522581,23.603087,22.956431,22.695602,21.71855,20.894152,20.030155,19.558825,19.381572,17.629264,17.207719,16.005875,16.175361,14.713733,14.51177,12.731964,12.362714,12.416363,10.97757,11.720364,10.23528,11.230234,10.902883,11.364963,11.386165,11.370495,12.474497,12.915372,15.351291,12.622304,14.628602,13.276326,14.937339,14.054694,15.110589,13.750002,15.334267,13.882923,16.569136,14.361018,15.651843,14.506609,16.19182,14.986044,16.268234,14.453526,16.329558,14.279072,16.508609,14.284758,15.582522,14.049368,15.55066,13.838829,15.171562,12.988309,14.621744,13.260382,14.279145,13.134238,13.295861,12.272315,13.51815,11.598496,13.007488,11.236869,11.868763,10.397478,11.523777,9.4812319,10.203412,8.9836088,9.6742121,8.5396276,9.107893,7.7197839,8.2303577,7.7431347,7.4946914,6.9761302,6.7314267,5.7664212,7.297475,6.4105537,7.3008024,5.0476188,6.3444661,6.0957107,6.3239615,6.3487242,5.5413063,5.951616,5.7918257,5.8569008,5.7532532,4.9373889,5.1870127,5.0140589,5.5728638,5.1829942,4.199341,4.8789354,4.5619031,4.6324046,4.7049466,4.3124264,4.2343076,4.2231399,4.3417299,3.8969851,3.2044696,2.620082,3.0472116,3.1050157,2.69779,2.3271307,1.681543,1.7816413,1.7027082,1.3064804,0.49719215,0.21868296,-0.069969309,-0.48099723,-0.63113899,-1.7149594,-2.2079705,-1.6047411,-2.3630955,-2.4267572,-4.6997305,-4.603674,-5.5794534,-5.6780386,-5.8916431,-6.8022217,-6.6971672,-7.2625639,-6.4930592,-7.0938726,-8.063699,-7.5272847,-8.9311543,-7.4253764,-8.8163387,-8.7601438,-9.7982543,-9.8267236,-9.6553833,-11.097341,-10.372654,-12.31727,-11.343289,-12.930389,-12.564631,-14.713864,-14.687636,-16.819802,-15.490684,-17.888544,-17.937783,-19.970636,-19.751103,-21.358153,-21.176995,-23.519821,-23.540595,-25.602942,-24.692741,-26.969786,-27.085147,-29.493124,-29.04965,-30.690859,-30.337519,-32.557632,-32.427357,-34.023905,-32.736353,-34.254635,-33.970378,-34.436117,-34.915992,-34.165153,-33.837576,-34.350384,-34.025175,-33.889517,-32.909491,-32.129483,-31.110387,-30.830034,-29.335243,-28.383034,-27.057814,-26.0148,-24.919457,-23.181549,-21.653848,-19.388897,-18.613291,-16.477115,-15.023641,-13.109382,-10.999746,-9.3771015,-7.7526117,-5.5463597,-3.0783763,-1.1324003,0.218971,2.9169066,4.7821354,7.2026727,9.8413135,11.948712,13.032719,15.627187,17.330181,19.640323,21.261457,22.840689,24.940279,26.810568,28.782049,29.903766,31.001709,32.3575,34.475829,35.320975,36.330466,36.327587,37.554025,38.18364,39.37588,38.526017,39.384641,37.896208,38.612502,37.390834,37.26399,36.119556,36.826962,36.841384,36.671883,36.376144,34.762818,33.751005,33.310022,31.746977,30.305365,28.702635,26.028315,25.464125,23.583108,21.628436,19.220732,17.791319,15.799124,14.403147,12.445587,10.063932,8.3699902,6.4304548,4.9161877,3.2647822,0.87341554,-0.068488591,-1.5145568,-2.6522481,-3.7326219,-5.756735,-6.759914,-7.9658042,-7.8811984,-10.014731,-10.081298,-11.77167,-10.78493,-12.643481,-11.565352,-13.942079,-13.311805,-14.131182,-13.630192,-13.935069,-13.822117,-14.626151,-13.272863,-13.71147,-12.714032,-13.328731,-13.359484,-11.98661,-11.846455,-11.3076,-11.021158,-10.66607,-9.5788705,-8.8026151,-8.0226606,-8.3950251,-7.0359284,-6.7446643,-5.3873768,-4.7006845,-5.1683438,-3.1870882,-4.0206513,-1.1282277,-2.5501116,-0.37211268,-1.6478955,0.0067733069,-0.19645391,0.65977322,0.081055946,0.39916845,0.89046638,1.2518663,1.4802594,1.8055646,0.7394178,1.0064107,1.0886398,0.48977844,-0.1714618,-1.0772888,-1.4999897,-1.4629168,-1.9895439,-2.8929877,-4.1396709,-4.0308451,-4.6460606,-5.1908888,-6.2632253,-6.5938961,-7.1561017,-7.25265,-7.6764963,-8.2646399,-8.8145573,-8.5443011,-9.0655965,-8.655401,-9.7071751,-9.8445323,-9.7024799,-8.9094931,-8.9876178,-8.1879466,-7.7098653,-7.6767596,-7.1097899,-6.3511684,-7.822172,-6.9261363,-6.7481089,-6.7447103,-6.0914279,-6.8642173,-6.3737532,-6.526717,-5.4097633,-5.9619198,-5.6222863,-5.922212,-6.0924285,-5.4989903,-5.5647073,-5.6581155,-6.0069403,-5.9681663,-5.0612439,-4.5371962,-5.5939322,-4.3672742,-5.4782221,-3.8817305,-4.2270354,-4.1283353,-4.0458633,-3.5846422,-2.4729427,-2.5829984,-1.7455131,-2.5167279,-1.4392007,-1.3767484,-0.72228314,-1.429454,-0.77018768,-0.67810917,0.33529787,0.21688326,1.3036706,-0.074187732,1.6733951,1.0436308,2.420911,1.1855577,2.6353826,1.8730779,3.5722121,3.2507122,4.1547343,2.9456389,4.4739619,3.4559477,5.4148631,3.9479134,5.490414,4.0843835,6.6732061,5.7496722,6.652532,6.3943474,6.3178416,7.765675,7.4114673,8.4066704,7.2338251,8.5720385,8.2436707,9.4618397,9.4680107,9.1544677,9.9357224,9.524878,10.740224,9.8308522,9.9639112,9.5355452,10.699737,9.8964632,10.461348,8.8874114,10.131034,9.5794741,10.277109,9.5030423,10.141025,9.4405514,10.618686,10.485407,11.041198,10.604426,11.268449,11.73519,12.29839,12.050998,12.34655,12.210488,12.721436,13.580913,12.670867,13.470437,13.085671,14.159182,14.147884,15.011407,14.485659,15.233608,15.136925,16.208459,14.887169,16.650442,14.65644,16.554853,16.192919,16.192011,15.897835,15.609203,15.704641,15.984784,15.554654,14.816499,14.048626,14.475684,13.975317,14.430304,12.895648,13.589716,12.981053,13.390516,12.569284,12.31429,10.979614,11.687369,10.7504,10.649368,8.2727707,8.0785295,6.9883754,6.5128747,5.2451416,4.8912626,3.1586958,3.3320906,1.9638664,2.1529248,0.96713136,0.27122608,-0.3022983,-0.42850589,-1.2709121,-2.8949178,-3.0717101,-4.5912834,-5.1029018,-6.071901,-7.2328996,-8.4395015,-9.6230218,-10.717523,-11.984025,-14.382,-15.79967,-17.558871,-18.18523,-20.852572,-22.131694,-25.062122,-26.117634,-29.170528,-30.391145,-33.439746,-35.962637,-38.087782,-40.81485,-43.660133,-46.888519,-49.621679,-52.428052,-55.509742,-58.016199,-61.596155,-64.664391,-68.074218,-70.030329,-73.801797,-76.485951,-79.78011,-82.11515,-84.956848,-86.617464,-89.711207,-91.440416,-93.84375,-94.554434,-96.371637,-97.117168,-98.799799,-98.687796,-99.03757,-98.952734,-98.514443,-98.043668,-97.395668,-95.689823,-94.228126,-92.06703,-90.608859,-87.313934,-84.53622,-80.68169,-77.371965,-73.572505,-69.16337,-64.805892,-58.512382,-55.046694,-48.848216,-44.951748,-37.266031,-32.909869,-24.782191,-21.327866,-12.017102,-7.8461769,0.62250848,6.4172068,13.244036,19.763776,26.797542,33.778799,40.4584,47.380316,54.165705,61.382362,68.255181,74.543534,80.581445,86.892326,92.439412,98.830778,103.69814,108.96478,113.41481,117.81138,122.64849,125.37691,130.49065,133.56517,139.01278,141.4975,145.71719,146.7929,150.72292,151.92893,155.41483,155.98963,157.18238,158.23958,159.30596,159.76267,160.68519,160.18386,160.27546,160.27266,161.09907,160.23319,160.49967,158.76184,159.83255,158.39407,158.21619,156.99222,156.82144,156.33205,156.08249,155.59352,154.04972,153.75597,152.41525,152.83092,151.09719,150.04723,148.8381,147.74612,147.53675,145.68729,145.57936,143.36632,142.88167,141.85222,140.87663,139.05068,138.42192,136.59738,136.34117,134.23755,133.71061,131.18495,130.08536,129.308,127.19136,125.88783,123.90649,122.92874,120.90838,120.33296,117.31062,116.0038,114.57173,112.83268,111.55504,109.02405,107.35363,105.29102,104.29463,101.84444,100.34741,97.451029,95.859272,94.107077,92.049405,89.445325,87.346405,84.688172,83.615865,79.342838,78.184757,73.17901,72.777419,68.485419,67.239656,63.040208,61.219691,57.172182,55.627264,52.107062,49.155676,46.176687,43.306465,40.964342,38.465597,34.417322,32.516031,28.805823,27.090916,23.602839,21.210488,18.225293,15.621367,14.041036,11.897479,9.1889685,7.0684752,4.9428549,3.6262303,1.6888841,0.27669239,-1.4899156,-2.8739831,-5.4131036,-5.8007219,-8.6513631,-10.219484,-12.054852,-13.464946,-14.718797,-17.348094,-18.316789,-21.575903,-20.838318,-24.09119,-23.96107,-27.767713,-27.280707,-30.251043,-29.891456,-33.06212,-33.96142,-36.010509,-36.472268,-38.301338,-38.922013,-40.89178,-41.665532,-43.373438,-44.169915,-45.957183,-47.147871,-48.872732,-49.410756,-50.311069,-51.968713,-52.651484,-54.662397,-54.33981,-57.049679,-56.211023,-59.428539,-59.001395,-61.447417,-60.785345,-63.938063,-63.953456,-66.942639,-66.34005,-68.662624,-68.871018,-71.842668,-71.72154,-73.188013,-73.498879,-75.7424,-76.290398,-78.154325,-78.523285,-79.136279,-80.806115,-81.383833,-82.508311,-83.854584,-83.755971,-85.417422,-86.038869,-87.713199,-87.314734,-89.070999,-89.492178,-91.146695,-92.080059,-92.156895,-93.047414,-94.521398,-95.013214,-97.260863,-96.799302,-98.697504,-98.473715,-101.06608,-100.55555,-102.71503,-102.1655,-103.82911,-105.03613,-106.35077,-106.8406,-107.39015,-108.76231,-109.87156,-111.66529,-112.64994,-113.05319,-114.90278,-115.85022,-117.43673,-118.57613,-119.40494,-120.64256,-122.27491,-123.81566,-125.12109,-126.66006,-128.49747,-130.29918,-131.87898,-133.19285,-133.54526,-135.46196,-136.28222,-138.09333,-139.01013,-139.59323,-141.07773,-142.56983,-143.61593,-144.95131,-145.26561,-147.41847,-147.89084,-148.97474,-147.42173,-149.4923,-148.74564,-152.53767,-151.7272,-154.93803,-154.69169,-157.31794,-157.49833,-159.17587,-160.2772,-162.62526,-163.8104,-168.19079,-170.29676,-174.76799,-177.51238,-181.07493,-185.19138,-188.49868,-191.93237,-193.98413,-197.41785,-199.44065,-202.92738,-203.30963,-205.66611,-206.26152,-209.48205,-209.83224,-210.94426,-210.32231,-210.95937,-210.12805,-210.62156,-208.82232,-207.31961,-205.83055,-203.97225,-201.94274,-200.35119,-196.56359,-195.53013,-191.65176,-190.53962,-186.64447,-184.54269,-181.37375,-178.63924,-176.49691,-172.7859,-169.25067,-164.5916,-161.90907,-159.05911,-156.31627,-155.34295,-152.0602,-150.95805,-148.92258,-145.80293,-144.48394,-141.64356,-140.98098,-139.86158,-137.39201,-136.85146,-133.15074,-133.1243,-128.02608,-127.90728,-122.33498,-122.83279,-118.50819,-118.80545,-114.60116,-113.56044,-109.50349,-107.64543,-104.60841,-100.51241,-97.532148,-93.49369,-90.055295,-85.769609,-83.212956,-78.026659,-74.820352,-69.978619,-67.486041,-61.921304,-58.588378,-51.630188,-48.752068,-42.00608,-38.580176,-31.131798,-27.288623,-20.52006,-16.143124,-9.019676,-2.8389726,4.1940818,12.766798,18.11627,25.966028,33.057498,40.268641,47.117511,54.769951,61.003146,69.754925,75.593391,83.175914,90.154784,95.313819,102.73817,108.2172,114.29373,117.64305,121.5348,125.75665,129.02648,131.14912,134.49531,135.24432,139.37101,141.04556,143.20885,144.96859,146.21213,148.76287,149.74215,151.66236,151.22854,152.71888,152.8468,152.21915,153.86236,153.06225,153.50135,153.0351,154.2947,152.47748,153.80704,151.51876,153.47183,151.06867,152.6521,149.60478,150.62364,149.57345,149.79514,148.93182,149.1506,147.67209,148.3697,148.14538,147.87763,146.24272,147.70144,145.88039,147.20126,143.97181,143.8888,141.23695,140.39061,140.34944,139.08199,138.22469,138.32381,137.19129,136.95134,135.02844,134.75,133.7534,132.7058,133.02098,130.87774,131.36281,126.61073,126.33708,120.53175,122.43415,116.51344,118.07791,114.29323,115.64769,113.33693,112.99479,111.53852,110.51731,111.46178,110.22528,110.38744,108.90797,110.42777,111.61675,111.59544,112.43458,112.20652,113.14469,113.69011,114.69622,115.08571,115.58691,116.70536,117.24218,119.11662,119.8194,121.11274,122.3034,124.03338,125.38678,123.33323,124.76644,123.7518,124.89235,124.2376,125.55449,124.13795,126.50818,122.7048,124.96053,121.01099,120.64315,118.98699,117.93205,117.13101,115.31212,114.98908,113.42923,113.02772,112.08585,111.36419,109.36625,109.21497,107.74764,107.81668,105.81556,105.32332,103.95259,102.7714,102.90401,100.28344,100.56291,97.874619,98.274241,96.445019,95.243712,92.808404,91.925625,89.872948,88.643552,87.011547,84.351608,83.364412,80.561511,79.329441,76.195946,74.590686,71.524755,69.284981,66.413649,63.295872,59.152974,56.072922,52.206503,47.405088,44.229522,39.949885,36.838334,32.885743,30.769502,27.28835,24.556488,20.539542,19.720079,16.310339,15.533507,11.941409,9.7855032,5.6191889,4.2444596,0.19607347,-2.2199015,-7.0215433,-9.1652793,-12.951565,-16.102672,-21.215181,-23.614943,-28.203435,-28.472198,-34.237691,-34.612682,-40.026473,-40.396746,-44.115231,-46.130039,-48.777321,-50.880206,-52.917801,-54.80381,-56.386382,-58.749718,-59.641249,-61.781108,-64.089858,-64.583932,-68.801334,-68.815412,-72.111913,-72.250117,-74.866759,-75.648109,-78.093806,-78.438545,-80.295725,-81.283723,-82.754666,-84.568371,-84.819231,-87.066926,-87.193697,-89.554585,-90.836601,-91.567872,-93.7665,-92.555368,-95.970409,-94.382817,-98.320383,-95.897508,-99.486352,-98.286312,-101.2124,-99.990913,-101.1192,-100.61128,-101.20179,-101.92215,-101.94066,-102.18414,-101.77686,-101.9685,-101.46154,-101.39954,-99.561804,-100.50959,-98.808491,-99.349682,-97.338179,-95.723486,-95.168983,-93.303078,-93.113809,-91.022606,-90.765786,-88.171959,-88.266053,-85.836776,-84.866549,-82.374388,-80.917414,-79.698595,-78.06927,-77.362469,-75.473045,-73.971328,-73.105872,-71.549512,-71.197066,-69.277609,-69.175411,-68.344867,-68.316551,-67.761644,-67.501562,-65.43937,-64.898142,-63.689729,-63.333345,-61.355912,-60.99546,-59.699594,-59.499143,-57.670061,-56.480716,-54.716834,-54.266671,-51.948238,-52.635877,-48.670965,-49.628581,-45.961836,-46.922231,-42.921615,-43.045538,-39.301973,-39.735961,-36.29811,-37.228334,-32.382691,-32.765557,-28.568389,-28.795902,-24.382686,-23.815997,-20.506956,-19.459825,-17.443839,-15.408286,-12.019228,-10.264892,-6.6429151,-5.8778134,-2.1004974,-1.0606178,2.985645,3.4019104,7.6140704,8.4472404,12.101436,15.051253,16.475612,18.802565,20.433606,22.019746,25.020885,26.41012,27.801703,30.481545,30.930019,34.587253,33.761891,36.846101,36.529669,39.367782,40.004596,41.588958,41.432907,42.716375,43.521555,44.290177,44.610291,45.415201,44.967091,45.90852,45.781187,45.844501,45.002317,45.332567,44.641458,45.768808,44.199947,44.092852,42.462404,43.420889,40.441725,42.491169,38.722155,41.501513,39.233506,40.063764,38.024424,37.179843,35.296525,34.841409,33.437321,32.767439,30.181595,28.846385,26.987069,26.343102,23.470403,23.009403,19.207558,20.110222,16.652037,17.029564,14.338187,13.073076,11.552772,10.877902,9.3647018,8.8191209,6.6612333,6.9104374,5.7597847,4.7466498,3.7182537,3.0564877,2.2852059,2.5329086,2.1162563,2.0202942,1.2123022,2.2615015,1.2062814,2.5836419,1.7625247,1.7499018,2.6221483,3.1150915,4.2045673,3.9765388,4.7732541,4.4616859,6.1290125,5.0071095,7.1967836,6.2322323,8.6298214,8.2299947,10.521685,9.8157918,11.379468,10.92452,12.793454,13.280903,14.344387,15.674196,16.074829,17.932152,19.059183,19.210258,20.495964,21.121074,22.683135,23.368286,24.474126,24.389567,25.450741,26.574701,26.004648,27.542193,26.860197,27.35969,28.661857,28.681848,29.348555,28.925702,29.354258,29.886703,29.884716,30.530817,29.163431,30.323381,29.353724,30.579708,28.795431,30.22309,28.373955,29.527119,28.466654,28.791436,26.857149,27.669858,26.773528,27.319203,26.668056,26.389178,25.765988,26.12263,25.987016,26.426272,25.754179,26.054443,25.872879,27.594254,26.490003,28.979353,26.005729,28.278587,26.774702,27.874943,26.346544,27.286661,26.295691,27.114567,25.896439,26.304836,25.933628,26.235655,26.049874,25.310952,23.638457,24.893823,23.015437,24.889462,23.192736,24.170395,23.126122,24.731946,24.096963,25.252602,24.368694,25.631145,25.081274,26.393779,26.501335,26.295918,26.619929,26.62631,27.682869,27.864745,27.472389,27.830331,27.851795,28.344667,28.114876,27.125409,27.50794,27.032086,26.833358,26.207525,24.822122,24.173499,23.164023,23.132446,21.45802,20.689134,18.16802,17.678581,15.713675,14.580609,12.157439,10.753158,8.7451437,7.5798122,5.697743,3.7239922,0.82758009,0.37222529,-2.6499323,-4.2903269,-6.8876681,-8.8607031,-11.690112,-12.516498,-15.065465,-17.070895,-19.60705,-21.079884,-23.691178,-23.999524,-27.763792,-28.320843,-30.814694,-31.876895,-33.466242,-35.15694,-35.839342,-38.195298,-37.966887,-39.649332,-40.489752,-42.197144,-42.155125,-43.123475,-43.005465,-44.524071,-44.460921,-45.171203,-44.710352,-44.62718,-45.092317,-44.728383,-44.290951,-43.512652,-42.422905,-42.542408,-41.695461,-41.441998,-39.700671,-39.698335,-38.866742,-38.280759,-37.728159,-37.287734,-34.945862,-35.97567,-33.887252,-34.379058,-32.070764,-32.962706,-30.882483,-31.568868,-30.419187,-29.762989,-29.634427,-29.313445,-29.616046,-30.443851,-29.436094,-30.862885,-29.528916,-30.533683,-30.403244,-29.633009,-29.336238,-28.880246,-29.853707,-28.834148,-28.428048,-28.520439,-27.759502,-28.606772,-28.113418,-27.839894,-26.831709,-27.025985,-26.069075,-25.936898,-24.488183,-24.196284,-23.534855,-23.302343,-23.085095,-21.970965,-21.402333,-20.520677,-20.550923,-19.77808,-19.466681,-18.440742,-18.468676,-17.699354,-17.827555,-16.31062,-16.202372,-15.480022,-16.139465,-14.935718,-14.61066,-13.378934,-13.220969,-13.255703,-12.737125,-11.388568,-11.310581,-10.605565,-10.940072,-10.216033,-10.16333,-9.0765416,-8.8200871,-9.497504,-8.7798151,-8.8084236,-7.8530462,-8.4377674,-7.5067636,-8.8536844,-7.2783436,-7.370699,-7.437709,-7.1749568,-7.7678872,-7.1222925,-6.5128842,-6.9047523,-6.4777517,-7.6504744,-5.8250296,-6.3637841,-5.7741939,-6.3651326,-5.714844,-5.9267819,-4.481093,-5.217248,-3.5710929,-5.0711645,-2.843768,-3.2080342,-2.1339686,-2.3903165,-1.4057491,-1.3334499,0.11478858,-0.29318813,1.069903,0.31249519,2.1503546,2.1843019,3.0952854,3.2006432,2.8246325,4.3952271,5.3854663,5.045478,6.0205538,5.2246145,7.2903949,5.9884604,8.7537073,6.5529361,8.501682,7.3240574,8.9021751,8.8396976,9.063286,8.2654406,9.9347333,8.8828334,10.285344,8.7837029,9.9700298,9.1339606,10.036867,9.5843363,9.2573731,9.4925763,11.482991,10.909666,12.602318,11.040785,12.497763,11.121431,13.066809,11.08709,12.724375,10.165474,10.824998,9.7681562,10.483622,8.2296323,8.2563633,7.4912261,7.408817,6.8488791,5.9533268,5.0048074,5.0932945,4.6322528,4.8081015,4.3314542,4.1591918,4.1622068,4.569615,4.039379,5.1145287,2.8477365,4.9157439,3.2671969,5.7783218,3.8140166,6.4993017,5.4423611,7.0900018,7.7055862,8.5001219,9.2797016,10.973153,12.362766,13.331617,15.040619,15.706616,17.394361,19.129863,20.855368,22.406498,22.898891,25.807378,26.018309,28.862333,29.143162,30.82796,31.440349,33.28559,34.22416,35.27862,35.711492,36.351625,38.14467,37.456924,39.403932,38.049046,39.613986,39.25894,40.077701,39.675973,39.317515,39.260825,38.771578,38.978135,37.832546,37.44122,35.988247,36.025224,34.978294,34.348942,32.018022,31.870075,29.190107,29.910561,27.111429,26.388832,24.125534,23.390493,21.767457,20.133068,18.311972,16.82472,14.872881,14.731117,12.03763,10.687626,8.9290727,8.0173635,6.4552906,5.4050003,3.6382571,2.8402536,1.4369969,1.0301102,0.0090308609,-0.72823564,-1.7125952,-0.99471173,-1.0467199,-0.4036209,-0.49796052,0.46230788,0.053380527,0.39411481,1.1201949,0.47175669,0.91771959,1.1266917,2.0108325,2.1924912,1.9460768,2.4126791,3.3926779,3.8748771,4.0598254,4.7528452,5.2920597,5.7174237,5.6560472,5.48879,5.7416822,6.3093671,6.467325,7.9070987,7.5642281,8.3821564,7.806845,9.2630079,9.3574504,10.013266,8.9290541,11.233463,9.530653,12.425132,10.456525,12.396392,10.864873,12.530793,12.618466,13.279307,12.691557,13.287713,12.761562,12.8313,13.298198,11.947466,12.438041,11.769215,12.463646,11.547165,11.525866,10.106088,10.046987,9.5676857,9.0022912,8.152078,6.5301578,5.9630068,4.6273126,3.7519262,2.2427471,0.60112844,0.087305051,-1.6208541,-1.4587205,-4.8668709,-4.8866353,-7.3786585,-8.3528294,-9.534254,-11.672748,-12.983748,-14.812589,-14.716758,-17.475181,-17.550534,-20.769654,-20.733383,-22.698512,-23.548576,-25.466062,-26.318689,-27.72175,-27.935331,-29.340772,-30.250964,-31.19777,-31.950008,-32.014697,-32.69728,-33.79717,-33.367807,-35.102075,-33.143922,-34.990238,-33.964631,-34.734794,-34.570338,-34.039017,-34.178902,-33.816348,-34.55875,-33.966982,-33.749811,-32.673548,-33.122803,-32.492247,-32.336454,-31.523706,-30.611981,-30.812226,-29.320288,-29.557119,-28.115761,-27.453523,-27.23539,-26.298825,-26.650108,-24.700647,-25.716756,-23.807076,-25.257391,-23.974832,-25.280277,-24.124726,-25.180176,-25.440824,-27.056649,-27.160311,-26.924335,-26.731514,-27.467222,-27.661028,-27.890941,-27.403846,-27.846335,-28.016128,-27.856934,-28.287102,-27.566185,-28.139997,-27.639596,-28.499141,-27.484924,-27.573868,-27.532531,-27.238496,-27.680121,-26.767231,-26.984481,-25.440248,-26.438309,-25.508187,-25.909826,-24.411574,-24.404417,-24.238292,-23.987733,-23.607297,-23.009036,-22.080723,-22.72787,-21.574626,-21.864496,-20.536655,-20.72117,-20.854779,-20.178506,-20.518548,-18.857891,-19.389309,-18.058291,-18.636636,-17.34556,-18.065041,-17.201569,-17.597202,-17.557216,-17.776452,-16.281745,-17.318964,-15.863261,-17.473931,-15.542423,-17.160015,-15.330214,-17.104673,-16.399129,-17.375742,-16.631702,-17.012024,-17.201786,-17.373109,-18.277604,-16.634801,-18.379378,-16.861321,-19.029618,