ConstAcc,0.5,0.29947,-183.497,-193.319,-203.1361,-212.8687,-222.4425,-231.7892,-240.8457,-249.5544,-257.8628,-265.7234,-273.0937,-279.9357,-286.2163,-291.9067,-296.9822,-301.4227,-305.2116,-308.3366,-310.7889,-312.5633,-313.6581,-314.0747,-313.8178,-312.8951,-311.317,-309.0968,-306.2502,-302.7953,-298.7526,-294.1446,-288.9959,-283.3327,-277.1831,-270.5766,-263.5441,-256.1179,-248.3313,-240.2185,-231.8144,-223.155,-214.2762,-205.2149,-196.0077,-186.6917,-177.3036,-167.88,-158.4573,-149.0712,-139.7569,-130.5486,-121.4798,-112.5827,-103.8885,-95.42687,-87.22598,-79.31235,-73.8513,-64.99034,-67.29332,-74.57559,-77.53522,-79.54767,-81.12707,-78.59011,-71.09411,-62.25472,-53.42491,-44.84461,-37.74416,-32.40271,-29.9018,-29.12518,-29.21824,-27.88906,-23.87696,-17.48345,-9.583993,-0.8903894,8.086936,15.9732,23.00189,28.14582,31.99217,36.12307,41.14136,47.74774,55.78685,65.28149,76.02115,86.86033,97.15814,107.1224,116.8996,126.7862,137.5504,149.2897,161.6746,174.3306,187.0155,198.8123,209.6748,219.4751,228.1468,235.9814,243.1354,250.3193,257.5758,265.1618,272.5171,278.9451,283.7299,287.0884,289.3772,290.3354,290.6706,290.3275,289.9591,289.8513,289.7811,289.2861,287.8169,285.5056,282.1259,277.7996,272.4786,266.2305,259.7087,253.0936,246.5785,239.8028,232.8569,225.8332,218.8625,211.966,205.0119,198.0031,191.0849,184.4346,178.0574,172.1262,166.3477,160.7536,155.7866,151.3718,146.8543,142.3408,138.2553,134.7863,131.9543,129.7019,128.4584,128.4049,129.5502,131.976,135.599,140.2443,145.6885,151.3538,156.7614,161.5947,165.7576,169.1311,171.7606,173.5972,174.6489,174.9841,174.7105,173.8919,172.668,170.8575,168.4597,165.6436,162.8682,160.4878,157.9033,154.8059,151.4508,147.962,144.5813,141.0702,137.2398,133.1296,128.8121,124.3353,119.49,114.2561,108.5923,102.9252,97.51382,92.61712,88.17977,84.1225,80.30577,76.61886,72.9541,69.36479,65.94118,62.78781,59.49497,55.94635,52.85138,50.40292,48.58343,47.32393,46.19813,44.88145,43.3366,41.64159,39.95009,38.24798,36.5728,35.05151,33.84179,33.12132,32.78995,32.74919,33.02382,33.57864,34.43631,35.06987,35.78666,36.61026,37.99503,39.20452,40.34007,40.86991,41.20681,41.93093,43.05621,44.96609,47.38385,50.65737,54.76417,59.3389,63.86878,68.5368,73.40995,78.31234,83.32815,87.88516,92.44508,97.12933,101.6236,105.4612,108.3259,110.7691,113.0895,114.8048,115.439,114.7617,112.4224,108.8905,104.5378,99.10093,92.77133,85.81828,79.03213,72.4039,65.86417,59.4159,52.93635,46.56608,39.25215,31.98809,25.98089,20.71053,15.81479,10.64266,5.113838,-0.891186,-7.220205,-13.76809,-20.35251,-27.11491,-33.4823,-39.47757,-45.05452,-50.2498,-55.14743,-60.07094,-64.78158,-69.28043,-73.52117,-77.28978,-79.85583,-81.5506,-82.43787,-82.90719,-83.35492,-84.12478,-85.14352,-85.98873,-87.36847,-88.32568,-87.17467,-84.33921,-80.10495,-74.71771,-68.84155,-63.16166,-58.12408,-54.72635,-51.85117,-48.71489,-44.88505,-39.13266,-32.21892,-24.76066,-17.39587,-10.43775,-4.199176,0.1607215,3.834612,7.415037,11.35747,17.23436,24.68778,33.11305,41.64762,49.32705,54.97542,58.29406,60.34184,61.79663,62.82678,64.55153,66.73742,68.82129,70.31792,70.30404,68.66811,64.99249,59.96936,54.18713,49.628,46.13843,43.86516,43.04695,44.09091,45.47619,45.45686,43.9065,41.25259,37.96227,35.29724,35.00001,36.5469,39.49259,43.5293,47.86211,52.09073,55.69813,57.06864,57.51838,59.34874,62.26167,65.39852,68.52863,71.77179,75.45903,79.51619,82.99489,86.41641,91.25434,97.71894,104.9751,112.2702,118.9111,124.7961,129.9512,134.4597,137.4972,141.1806,146.8236,153.6562,159.7522,164.8315,168.7007,171.5565,173.8892,175.3212,175.2373,174.7023,175.8346,177.8998,179.6229,181.7892,181.7216,179.8496,176.731,171.4605,165.2876,159.5921,156.5634,155.307,153.505,150.6814,146.0928,139.1873,129.9006,117.1895,102.6684,87.45281,73.70004,61.34411,49.89985,38.44196,26.2347,12.90731,-1.560076,-18.45288,-36.23797,-52.4064,-66.71139,-79.22586,-90.29728,-101.5523,-112.7849,-122.4784,-131.6063,-140.7632,-149.9986,-157.5586,-163.5451,-168.0724,-171.4002,-175.262,-179.8334,-185.1839,-191.0964,-197.1501,-202.0864,-204.7524,-205.4118,-204.4422,-202.2448,-200.1729,-198.3915,-196.6023,-194.6016,-192.141,-189.0423,-184.2244,-177.1522,-168.4204,-160.0494,-152.2951,-145.0113,-138.3213,-133.4938,-129.921,-126.2529,-121.5475,-115.2003,-106.969,-98.03122,-90.43099,-84.22737,-79.26891,-75.59583,-73.23658,-71.82229,-70.77267,-67.90166,-63.40346,-59.31247,-55.46898,-51.6336,-47.4188,-42.52963,-37.60166,-32.96528,-27.87582,-22.36213,-18.06278,-15.88731,-15.72468,-16.80069,-18.36548,-20.01541,-21.65994,-23.32506,-23.45728,-23.81802,-24.66833,-26.17561,-28.18471,-30.39143,-32.56764,-34.90588,-37.80975,-39.78263,-40.40214,-40.92805,-42.41196,-43.20879,-43.16603,-44.55544,-44.23054,-42.46808,-39.79647,-34.85322,-28.1055,-20.16948,-13.23344,-7.694178,-3.903633,-1.949269,-1.303466,-1.231778,-1.337407,0.3378613,3.350615,7.489828,12.21651,17.09062,19.81994,20.93157,20.90372,20.08902,18.25469,17.41319,17.70084,19.12723,21.70141,25.05513,28.89341,32.96995,37.02128,39.26167,40.14744,40.466,40.66134,41.00626,41.46312,40.27464,38.48376,36.9063,34.66853,32.28433,30.09068,28.37545,27.07097,26.09411,25.21398,24.23865,23.00401,21.38784,19.49835,16.83177,14.2506,12.07455,10.26978,8.801066,7.021758,4.139586,-0.3088495,-6.410608,-13.7843,-22.12085,-31.10487,-40.6607,-50.49201,-60.46577,-70.63607,-81.10608,-90.90494,-99.74755,-108.5649,-117.877,-127.895,-138.6353,-147.9529,-156.935,-166.0206,-175.5471,-185.11,-194.5668,-203.3027,-211.123,-218.5471,-226.0059,-234.4549,-243.7442,-253.4961,-263.4327,-273.327,-282.717,-291.4078,-299.2922,-306.2423,-312.5389,-318.0499,-324.329,-330.6922,-335.8646,-340.0565,-342.3763,-344.4105,-345.881,-346.0486,-343.8598,-340.617,-336.9003,-330.9113,-322.5735,-313.523,-304.1013,-293.4316,-282.1545,-269.9096,-256.3499,-242.4252,-229.5794,-217.1941,-204.278,-189.7444,-174.2941,-159.2433,-144.813,-130.5946,-115.2297,-99.53024,-85.04763,-72.0288,-58.86642,-45.16856,-31.65149,-19.64758,-9.755616,-0.513944,9.942099,20.7007,30.73951,39.93205,48.83337,58.32393,67.11002,73.89538,78.88824,83.00431,87.40286,91.82024,94.02244,93.98881,92.9259,92.91875,92.77873,91.4103,88.82767,86.46596,85.39976,84.90225,83.25786,80.34386,77.08936,74.37484,72.12354,70.13184,68.53774,68.18434,68.55085,68.43368,67.4058,64.40994,60.29063,55.64005,51.15426,47.25074,44.11857,41.9108,40.38375,39.3736,38.86655,38.72502,39.27964,41.33107,43.58808,44.3676,43.73019,43.03233,44.10865,47.00419,47.7685,47.12981,46.05991,46.57373,48.38984,50.179,50.66113,50.13103,49.15255,47.61551,45.68663,43.77852,41.9964,40.08282,37.98947,35.90238,33.91889,32.07474,30.21938,28.19536,25.62977,24.28337,23.87394,22.89943,21.47754,18.81472,16.81402,16.29873,17.09065,17.84975,18.1099,19.36333,21.60641,24.06833,26.56598,28.8762,30.99097,33.36025,35.66623,36.57168,36.38443,36.59858,37.32118,37.87821,36.83663,34.31529,31.71206,30.02643,30.60436,29.89025,26.97754,23.28045,19.84028,15.46587,9.247386,1.815117,-5.432643,-11.21718,-16.48685,-23.16336,-30.5085,-37.22038,-42.9654,-48.60761,-55.62929,-63.12483,-69.6538,-74.5172,-78.48268,-82.82418,-88.78019,-94.33682,-98.78521,-103.2265,-108.3396,-113.6158,-118.6247,-121.5277,-123.414,-125.8993,-129.3785,-132.0207,-133.1608,-132.9818,-132.5154,-131.9588,-130.8452,-128.8298,-126.1065,-123.5121,-120.8723,-118.0874,-113.9893,-108.9864,-103.1915,-98.95265,-94.71072,-90.37562,-84.45375,-76.72858,-67.23917,-56.51503,-44.81775,-32.51199,-20.63417,-9.678127,1.232304,13.1463,25.73847,37.25545,47.46708,57.85329,68.72139,79.86538,89.40005,96.63137,102.6862,109.5827,117.1358,123.9471,129.0909,132.9705,135.7842,137.6095,138.7012,139.0725,138.5912,137.2602,135.0224,131.517,126.6272,122.7238,117.9349,111.6875,104.4486,96.83443,89.28279,81.88869,73.97826,65.55611,56.65587,47.1069,37.22821,27.34532,18.26722,9.989665,2.235232,-5.175932,-12.94235,-21.58443,-31.39154,-41.84963,-51.94354,-61.23756,-69.4571,-76.87736,-83.56992,-88.93192,-93.32372,-99.61211,-106.8844,-113.8016,-119.4885,-123.9895,-127.9607,-131.4831,-134.3663,-136.2834,-137.3542,-138.0846,-138.4613,-138.06,-136.9198,-134.9774,-132.4069,-129.2262,-125.4774,-120.7388,-115.3627,-109.6642,-104.2152,-98.33477,-91.51313,-84.01947,-76.52706,-69.17703,-61.89186,-54.16942,-46.11309,-38.10813,-30.41895,-22.80604,-14.99811,-7.154709,0.01702281,6.466138,12.52805,18.60248,24.40148,29.17102,32.82967,35.68771,38.07308,40.00221,40.86704,40.25147,41.06254,42.96775,47.33718,53.22968,57.8086,60.01021,59.48835,58.93657,59.52713,59.67952,58.81463,57.44399,55.8455,54.99908,54.17447,52.05323,48.57372,46.22305,45.66634,45.13954,42.99215,39.72915,37.18921,36.27103,35.40084,33.28228,30.51012,28.62382,28.30421,29.18437,29.43565,29.29417,30.07243,32.4318,35.64452,37.8522,36.91384,35.77063,36.3668,38.10533,38.71765,38.32134,38.67489,40.79565,44.18986,45.90551,46.63572,47.74992,51.25805,54.25124,54.79742,53.84564,52.97482,52.76967,53.75372,53.38335,52.19626,51.26846,51.39097,52.11739,51.83698,50.40534,48.79459,47.63322,47.74587,46.90695,44.26961,41.72271,40.51198,39.9686,38.84414,35.79176,32.51616,31.0743,30.9761,29.76159,27.02898,24.71089,23.14752,23.12016,23.2511,23.43601,23.1467,23.9746,24.52917,24.14074,22.97401,21.35154,19.7064,18.20194,16.73783,15.51783,14.42743,13.28913,12.05477,10.78368,9.685572,8.780231,8.12359,7.566695,7.110415,7.184377,7.714082,8.296,8.953892,9.830645,11.23281,13.30068,15.78926,18.57393,21.82861,25.79856,30.45112,34.13373,35.50399,36.68576,38.96796,43.47957,47.75638,50.02813,51.68111,54.16929,57.1909,60.47426,62.56082,64.11232,66.72562,71.21845,74.90435,76.11076,76.26726,77.78752,81.37271,85.06144,86.44164,86.74748,88.35967,91.62229,95.06599,97.22499,98.02874,99.61428,102.5037,105.216,106.2784,106.0572,107.2291,109.8498,112.3929,112.8771,111.7521,111.7589,113.4958,115.1761,115.4497,113.4897,112.7112,113.6644,115.1287,114.1407,112.1362,111.428,112.1499,112.8488,112.3734,109.6687,108.0389,108.0658,108.4351,107.4635,104.8205,102.3538,101.451,100.9363,99.3756,95.92195,93.34432,93.00243,92.8239,90.81479,87.49215,84.77311,84.91113,86.2376,86.03219,83.95914,82.99262,84.40701,86.54518,88.36912,89.05244,90.16709,91.78972,93.68125,93.38995,92.21111,91.68732,92.18005,93.21538,93.78212,93.86629,94.242,94.64777,94.68641,94.0667,93.36235,92.94877,93.1351,93.11373,92.44286,91.51996,90.89355,90.61974,89.99359,89.34621,89.03405,89.5503,90.7182,91.88858,92.23289,91.52027,90.54781,89.60125,88.50614,87.49256,86.63042,85.777,84.76424,83.4926,82.17017,80.73939,77.04801,73.80322,73.66171,75.18812,76.70183,77.47994,77.47379,77.00373,76.30949,75.96415,76.05308,76.34414,76.42517,76.05699,75.63345,75.46543,75.67872,75.88786,76.00576,76.08611,76.33266,77.09148,77.90811,78.4492,78.97774,79.64392,80.32031,81.10438,81.74282,82.57717,83.70613,84.63118,84.79205,84.28178,84.00557,80.291,78.12983,78.82152,81.61025,85.18731,89.00385,92.7999,96.5588,100.274,104.1732,108.5115,113.0564,117.3416,121.1676,126.7255,129.7755,132.1399,134.5706,139.5325,142.2103,141.6198,140.1359,138.5256,137.532,136.7723,136.8787,137.1248,136.0083,134.4592,132.5097,129.9897,131.7836,132.1976,128.8112,122.3358,114.0504,104.6085,94.41463,83.22763,70.49702,53.99717,39.25011,26.93728,15.76412,4.688468,-6.756438,-18.71182,-30.77695,-42.69993,-54.3029,-65.40425,-75.79656,-86.08411,-96.23874,-106.1083,-115.5529,-123.5213,-125.9638,-128.8118,-134.1414,-141.78,-150.9245,-160.7896,-171.1493,-181.6496,-191.6448,-200.9976,-210.306,-219.4443,-228.2913,-236.6378,-244.5046,-252.0523,-258.9359,-265.4388,-270.4917,-271.2188,-270.3412,-271.2422,-273.4185,-275.0742,-274.6634,-272.4472,-270.143,-267.9262,-265.5984,-263.0235,-260.2848,-257.2909,-253.8717,-249.5465,-244.4521,-239.3618,-234.2962,-229.2629,-223.7313,-218.0071,-212.9285,-208.761,-205.0525,-200.9717,-196.4073,-191.8582,-188.1508,-184.7789,-181.9627,-179.7948,-178.1987,-176.9156,-175.425,-174.081,-167.4473,-160.0652,-154.2454,-149.8764,-145.9836,-141.9617,-137.6366,-133.4491,-129.272,-124.7992,-120.4369,-116.4086,-113.0588,-110.1308,-109.374,-106.6662,-103.3152,-101.3617,-102.6651,-103.5354,-105.9579,-106.2924,-103.7777,-98.8277,-92.89369,-88.52883,-84.07704,-79.46574,-74.61445,-69.58698,-64.2739,-65.08821,-68.9857,-73.04376,-76.48725,-79.38895,-82.56922,-81.68526,-82.16527,-85.11346,-85.63725,-87.3269,-91.17058,-96.62484,-102.7703,-108.8303,-114.9451,-121.2301,-127.6142,-133.6087,-139.2717,-150.4897,-159.9541,-165.904,-169.0273,-170.0009,-170.7009,-177.5883,-186.0822,-194.0796,-200.7666,-206.2423,-210.7209,-215.3145,-215.6961,-216.9146,-221.2232,-227.4221,-234.7274,-242.1709,-249.355,-255.9578,-262.1583,-268.7726,-275.3178,-285.066,-296.4934,-305.1828,-310.9946,-315.15,-318.7111,-322.9005,-325.0972,-324.5377,-325.3862,-327.9397,-331.2698,-334.4726,-337.1348,-339.1674,-341.2635,-343.5806,-345.8443,-348.3902,-350.738,-353.0059,-354.9484,-356.3061,-356.7785,-356.4111,-355.6887,-354.5431,-353.0374,-351.0627,-349.9159,-348.8145,-347.5034,-345.6949,-343.023,-339.6996,-336.1625,-332.1908,-327.8328,-322.922,-317.773,-312.1848,-306.1635,-299.8546,-293.5436,-287.8953,-282.8959,-278.2309,-273.7738,-269.4943,-265.3594,-262.4238,-260.6154,-259.8146,-258.8391,-259.3749,-260.7798,-257.0897,-252.3255,-248.0453,-246.069,-244.9968,-242.3067,-239.4358,-235.8731,-232.5971,-229.7141,-226.3833,-222.6821,-217.725,-212.1393,-206.3012,-200.2069,-193.72,-193.2618,-195.0586,-196.0541,-196.2117,-196.0317,-196.6649,-198.4399,-201.1409,-204.7359,-208.864,-213.7675,-219.2534,-225.4387,-232.3456,-232.7367,-232.3011,-233.0769,-234.8025,-236.5747,-238.0141,-238.6551,-238.8717,-238.3958,-237.1232,-235.1678,-233.4134,-231.6612,-235.5219,-240.7603,-244.683,-247.5018,-250.0937,-253.153,-256.6912,-260.6832,-265.3109,-270.7822,-276.6324,-278.5214,-276.3392,-273.9285,-272.3801,-270.9642,-268.6979,-264.8439,-263.4024,-265.6548,-267.6848,-268.456,-267.9865,-266.9207,-266.2984,-266.6016,-266.9038,-266.9469,-267.3932,-267.9228,-268.6151,-269.4007,-270.0881,-270.8158,-272.1023,-273.8755,-275.9616,-278.5222,-281.6355,-285.3018,-288.3601,-291.3144,-293.7522,-295.9445,-298.138,-300.4779,-302.2532,-303.5791,-310.8082,-310.5951,-308.3416,-313.2707,-313.1897,-313.0166,-313.184,-313.2486,-312.8623,-311.819,-310.4955,-309.2549,-308.5142,-307.5613,-306.0572,-304.2367,-302.567,-300.8787,-298.6746,-296.1478,-293.5186,-291.1933,-288.5342,-285.2203,-281.7645,-278.677,-275.2581,-271.7247,-268.0629,-264.0402,-260.0413,-256.3614,-253.0752,-249.3371,-245.3997,-241.0975,-236.959,-232.6766,-228.4101,-224.2169,-220.0796,-215.7569,-211.4617,-207.3625,-203.2397,-199.0464,-194.574,-190.3436,-186.2937,-182.0145,-177.5171,-173.1586,-169.1735,-165.1483,-161.0032,-156.2791,-151.6201,-146.9802,-142.4692,-137.4562,-131.9141,-126.7374,-121.8555,-117.1777,-112.2353,-107.4014,-102.5518,-97.6757,-92.72949,-87.4963,-82.44348,-77.50401,-72.45155,-67.28025,-62.03825,-56.64614,-51.40999,-46.40402,-41.32809,-35.76094,-30.21457,-24.36041,-18.76569,-13.41091,-7.514088,-1.813748,3.483163,8.291286,13.52277,18.73405,23.51844,28.35606,33.3009,37.99023,42.90918,47.56397,51.48377,55.14652,58.64605,62.10319,65.59987,68.72456,71.21646,73.1665,75.09992,76.85369,78.32086,78.91215,79.01773,78.70869,77.82418,84.07196,84.02369,80.65217,84.81123,85.40445,85.49674,85.58945,85.87292,86.38071,87.06511,87.601,88.08591,88.65115,89.32243,90.19644,91.11952,92.12014,93.0676,94.33973,96.06233,98.00593,99.99359,101.9706,103.9705,106.3724,109.1195,111.4706,114.3008,117.6071,121.045,124.5765,127.6148,130.6782,134.0767,138.4742,142.6574,146.8066,150.9303,155.4701,160.381,165.2747,169.8298,174.3235,179.1557,184.5142,189.9188,195.1033,200.2894,205.7835,211.2886,216.7069,222.2644,228.1749,234.4508,241.1708,248.1615,254.9779,261.5578,268.8302,276.0066,282.1892,288.0861,293.8234,299.8828,305.9776,312.1252,317.6142,322.6887,327.7636,333.0663,338.1863,342.8207,347.4723,352.0737,356.7924,361.4328,365.8831,370.4103,375.0289,379.6653,384.2049,388.0238,391.4959,395.1218,398.4673,402.015,405.3414,408.6752,411.8157,414.7959,417.8379,420.518,422.711,424.882,427.1096,429.4329,431.8037,433.7457,435.5109,437.4646,439.502,441.3264,443.1653,444.7311,446.291,447.9365,449.1152,449.7723,450.4551,451.1689,451.7774,451.9379,451.5599,450.7983,450.1955,449.3794,448.3482,446.8298,444.9831,443.4341,441.6643,439.6342,437.1141,434.4764,432.1045,429.66,427.1432,424.2733,421.4879,418.6184,415.8708,413.0318,409.7742,406.6695,403.8342,400.9915,397.9907,394.9782,391.4255,388.1097,384.8777,381.707,378.6702,375.5698,372.7836,369.8914,367.1775,364.3135,361.3178,358.197,355.4153,352.7135,350.0698,347.4073,344.8828,342.0795,339.8987,337.6502,335.3059,332.9592,330.8449,329.1847,327.4528,325.6871,324.5595,323.6552,322.3495,320.8689,319.3277,317.6243,316.2414,314.8103,313.3871,312.1789,310.446,308.8654,307.1647,305.7788,304.5991,301.9757,298.8812,296.4923,294.6168,292.5387,290.558,288.6468,286.7925,284.8971,283.0126,280.975,278.9997,277.0346,275.3567,274.7623,272.0666,269.7168,267.9638,266.2005,263.9228,261.5933,259.3348,257.3364,256.068,255.6503,253.7235,251.4653,249.5172,248.2982,247.9759,247.0756,245.5614,244.4177,245.96,248.0469,248.1896,247.6384,245.1245,244.4935,245.5436,243.7665,241.1518,239.6718,239.1496,238.7059,238.2229,237.6525,237.3025,237.2538,237.4804,237.8661,238.4243,239.0161,239.7954,240.54,241.2907,242.148,243.3662,244.4173,245.3472,246.3089,247.568,248.7585,249.9514,250.9692,251.8897,252.7564,253.7695,255.0157,256.5427,257.9666,258.1566,258.5686,259.2678,260.1371,262.681,262.4281,262.036,262.0985,262.458,264.2105,263.6956,263.1352,263.1209,264.5196,263.3717,262.3009,261.4788,260.6295,260.0743,260.7541,259.1508,257.4662,256.2726,256.2575,256.6099,254.447,252.3814,251.2618,250.6532,250.6096,249.5088,247.4902,246.1451,245.9225,244.6427,242.3371,239.8364,237.9049,236.404,235.7391,232.4775,229.4107,227.2982,225.8389,226.0087,223.2361,220.1301,218.23,217.5804,216.1454,215.2099,213.3191,211.8888,211.1014,209.1697,208.2366,207.3304,206.173,205.3603,205.9189,205.0773,203.5929,202.7318,202.855,203.055,201.8335,199.7475,199.1271,200.2176,200.4179,198.3935,196.2375,196.657,195.0608,190.3613,185.6048,180.9382,178.4274,174.3109,168.2247,164.2145,161.323,158.0966,153.7278,148.9421,144.6605,141.063,137.6278,133.9428,129.6787,125.8523,122.3822,119.3335,116.2088,113.0239,110.1938,107.8875,105.8643,103.7743,102.2805,101.0466,100.0601,99.17775,98.41997,98.03486,97.9533,98.46044,99.38565,100.1884,100.8353,101.2523,103.7138,106.6744,109.1853,111.1351,111.1611,113.811,117.2586,120.2069,123.1471,124.0642,127.3889,131.0923,134.3369,135.2248,138.0146,141.4716,145.5193,149.2319,152.2665,153.3103,156.6964,160.6982,163.9644,165.664,166.3398,169.379,172.8937,175.9076,177.6207,178.5769,180.1835,182.4665,184.5194,184.7525,184.6143,185.7944,187.1158,187.8872,187.0677,183.4172,183.2298,184.1965,184.6086,183.7035,180.396,179.3566,179.5715,178.9006,176.5577,174.3364,171.7465,170.1171,168.1298,165.2685,161.7705,159.2922,157.6812,156.3473,154.3964,151.1784,149.3231,149.0921,148.9195,147.1945,143.1174,141.5497,142.4638,143.0397,140.8954,137.4824,136.6535,138.0442,137.572,135.505,133.5323,132.5547,132.2124,131.8905,131.0196,129.3326,128.0199,126.8578,125.5637,124.3701,123.2264,121.9297,120.4484,118.9879,117.267,115.8552,114.4793,113.0087,111.4294,109.4693,107.7033,106.1292,104.8721,103.334,101.8267,99.87179,97.69751,96.12919,94.77959,93.0589,91.115,89.44349,87.97334,86.6535,85.20554,83.26712,81.72997,80.04276,78.08694,75.96394,73.83574,71.61383,69.88057,67.92612,66.10055,63.53575,61.16509,59.05841,57.31722,55.17782,53.10875,50.83769,48.87104,47.25787,44.97779,42.35485,39.82355,37.29483,35.07925,32.98654,30.54205,27.93124,25.58365,23.69669,21.31479,19.08688,16.76513,14.70302,13.48746,12.25943,10.73104,9.360631,8.188972,7.67489,7.217746,6.937772,6.645731,6.638569,6.809988,6.650611,6.248806,5.265615,4.536179,3.892337,2.952951,1.47088,-0.3439902,-2.235456,-3.699475,-4.985613,-6.582608,-8.121554,-9.452548,-10.74198,-11.49059,-12.65097,-14.53276,-16.3933,-18.05003,-19.5404,-21.49506,-23.71451,-26.016,-28.26764,-30.82883,-33.39396,-36.12068,-38.79997,-41.48038,-44.23694,-47.03226,-49.86882,-52.79006,-55.66192,-58.68701,-61.80114,-64.47668,-67.32621,-69.72472,-72.13034,-74.63603,-77.1563,-79.45452,-80.99183,-82.82891,-84.76781,-86.89523,-88.71558,-90.18354,-91.6867,-92.94178,-94.54273,-95.77397,-96.82046,-97.65551,-98.55358,-99.37318,-99.74492,-100.1797,-100.4618,-100.7123,-100.7419,-100.4288,-99.95857,-99.88252,-99.74627,-99.5573,-98.78007,-97.95367,-97.09816,-96.44347,-95.7072,-94.25098,-92.9566,-91.89849,-90.99739,-89.81221,-88.43509,-87.0528,-85.81234,-84.60961,-83.77067,-82.37202,-81.30157,-80.86571,-80.23976,-80.03155,-79.88989,-79.55061,-79.46821,-79.69757,-80.15152,-80.73942,-80.95619,-81.57865,-82.27353,-83.27857,-84.11324,-84.54867,-85.51162,-86.75555,-88.12519,-89.4917,-90.73944,-92.16175,-93.75266,-95.73176,-97.52771,-99.46655,-101.467,-103.5947,-105.8443,-108.3729,-109.829,-111.7973,-114.2207,-116.3421,-118.7786,-121.119,-123.2746,-125.6427,-127.8475,-130.0409,-131.8448,-133.505,-135.9235,-138.3689,-140.6495,-142.5904,-144.3846,-146.6215,-149.0704,-151.2435,-152.9474,-154.8958,-156.6642,-159.0297,-161.2562,-163.3275,-165.1075,-166.7064,-168.7607,-170.4335,-172.1541,-173.6118,-175.021,-176.2007,-177.6073,-178.7662,-179.8331,-180.9192,-182.0992,-183.3195,-184.1266,-185.2526,-186.327,-187.2298,-187.833,-188.5895,-189.3772,-190.1728,-190.9932,-191.7664,-192.5988,-193.4556,-194.2505,-195.1059,-196.1908,-197.2118,-197.9264,-198.8808,-199.8761,-201.0468,-202.65,-203.9492,-205.2824,-207.127,-208.5464,-209.9736,-211.2594,-212.6577,-213.7337,-215.1443,-216.8722,-218.2729,-219.5413,-220.7833,-222.351,-223.8123,-225.1527,-226.4566,-228.0595,-229.8124,-231.4021,-232.9863,-234.4776,-236.3676,-238.0837,-239.6976,-241.5839,-243.0891,-244.883,-247.0017,-248.5231,-250.6776,-251.911,-253.3942,-255.1881,-257.0588,-258.9438,-260.6111,-262.3651,-264.4245,-266.1261,-268.0725,-269.8408,-271.6206,-273.479,-275.3706,-277.0763,-278.4949,-279.6819,-281.2331,-282.147,-283.9369,-285.5431,-287.3691,-289.7316,-291.709,-293.3877,-295.0749,-296.6101,-298.3899,-300.1397,-301.8118,-303.0114,-304.4433,-306.3612,-306.9255,-307.0309,-306.408,-305.6814,-305.0193,-304.8141,-305.0368,-305.2163,-305.8885,-306.7283,-308.0973,-309.3712,-310.9262,-312.8392,-314.7279,-317.2021,-319.3548,-321.3321,-322.8742,-324.6691,-326.1198,-327.0973,-327.7571,-327.9294,-327.6395,-326.8138,-325.4411,-323.4694,-320.8962,-318.15,-315.257,-312.0381,-307.9057,-303.2838,-298.653,-293.5412,-287.751,-281.3909,-274.6694,-267.8195,-260.7186,-253.241,-245.2867,-236.9188,-228.6025,-220.2377,-211.4204,-202.6168,-193.2925,-182.7168,-172.7812,-163.0319,-153.3253,-143.3843,-133.7275,-124.1762,-114.5361,-105.1139,-95.73347,-86.6642,-77.91101,-69.49239,-60.57678,-52.49606,-44.6993,-37.38583,-30.31282,-23.03233,-16.16348,-9.517631,-3.324688,2.24755,8.065395,13.16642,17.87061,22.18036,26.05147,30.27978,33.48674,36.1293,38.3985,40.62731,42.62459,44.65405,45.58391,46.09157,46.12922,46.66781,47.26522,46.85197,46.37338,45.88844,45.7739,45.04905,43.60179,41.93,40.12173,38.48176,36.66733,34.87095,33.35353,32.07256,31.00464,29.51702,27.88979,26.6657,25.75225,25.56038,26.46413,28.34477,31.6642,35.02283,38.856,42.55218,46.02526,49.25054,52.50539,55.88409,59.2192,62.15792,64.86019,67.68274,70.13,72.64852,74.86132,76.90567,78.79002,80.7088,82.9075,84.5062,85.7931,86.66323,87.56784,88.55649,89.12097,89.26854,88.79992,88.26796,88.4912,88.50711,88.06503,86.63954,85.3422,83.11693,80.19627,76.78835,73.16912,69.15816,65.05382,60.77575,56.51349,51.78531,47.53593,43.95245,40.73143,37.70502,35.08298,32.90121,31.47187,30.25163,27.93465,25.78556,23.99406,22.92564,21.82629,20.05688,18.8494,17.60019,15.93522,14.37221,12.5408,10.59412,8.63385,6.005887,4.179273,1.795415,-0.7339751,-3.102941,-5.378669,-7.649486,-10.52175,-13.56925,-16.16161,-18.63559,-21.07388,-23.74288,-26.22595,-28.26952,-29.83357,-31.94746,-34.34061,-36.63977,-38.38374,-39.58017,-41.66452,-43.22229,-44.92979,-46.60282,-48.16746,-50.02692,-51.43634,-53.16956,-55.45343,-58.17522,-60.408,-62.70732,-65.06817,-67.73855,-69.94396,-72.3995,-74.72913,-77.86888,-81.06463,-84.25611,-86.79233,-89.04765,-91.46295,-93.13312,-93.75203,-93.79925,-94.21523,-94.95153,-94.99204,-94.4757,-93.78591,-92.9572,-91.96434,-90.41543,-88.43045,-85.90042,-83.39208,-80.81284,-78.00194,-74.45346,-70.79945,-66.83564,-62.85144,-58.59429,-53.79809,-49.09853,-44.4065,-39.81187,-34.71244,-29.65709,-24.02767,-18.71014,-13.7329,-8.545229,-3.265728,1.406167,5.18502,7.811163,10.19452,12.06205,14.23256,15.87843,17.07652,17.7002,18.655,19.94425,21.13571,21.96428,23.37272,25.44881,27.42621,29.55837,31.07275,32.68529,34.68556,36.908,30.27782,29.80065,32.83416,35.05466,37.02788,39.03241,41.77499,44.42362,47.40155,50.76659,54.0308,57.05047,59.95235,62.9916,66.3389,68.82166,71.08861,73.59965,75.95395,78.36924,80.4519,82.23578,83.79455,85.22381,87.30655,88.6378,89.32564,89.71772,89.76264,89.66619,89.3544,88.43682,87.23927,85.64317,83.64656,81.45395,78.49141,75.25775,72.17531,68.94093,65.789,61.46081,56.54311,51.81494,47.47722,42.88345,37.96614,32.71208,27.86737,22.7628,17.59318,12.07923,6.911879,1.716101,-3.434594,-8.433437,-13.94479,-19.4497,-24.33433,-28.84233,-34.08021,-38.9921,-43.48544,-47.99313,-52.15702,-56.08366,-59.62589,-63.04048,-66.05543,-68.44818,-70.5047,-72.474,-74.08494,-75.23727,-76.22179,-76.50347,-76.53566,-76.66757,-75.75123,-74.83561,-73.72572,-72.32591,-70.78791,-68.88614,-66.38472,-64.00983,-61.39173,-58.81891,-55.83478,-52.22208,-48.71686,-45.37343,-42.14223,-38.58547,-34.80601,-31.31103,-27.86884,-24.86174,-21.59908,-18.29927,-15.42024,-12.98966,-11.28536,-9.619793,-8.273082,-7.27455,-7.659915,-8.091697,-9.46165,-11.47043,-14.5381,-8.040102,-5.591911,-5.822842,-4.550958,-3.037937,-1.422097,0.003004905,1.423308,2.723105,4.73033,6.314254,7.689192,9.150805,10.92285,12.87776,14.77762,16.60296,18.22983,20.62364,22.62123,24.68651,26.61103,28.54861,30.75653,32.22972,33.96619,35.5443,36.92432,38.30062,39.65079,40.42052,41.21075,41.66344,42.24041,43.23119,44.0688,45.11171,46.27085,48.16863,49.91179,51.32642,52.73755,54.51053,56.41667,58.35108,59.99475,61.4417,62.72112,63.81152,64.60886,65.84437,66.22467,66.24998,66.30457,66.54366,66.07103,65.32986,64.44106,63.19556,61.75034,60.12784,58.15869,56.05575,53.8919,51.84215,49.78141,47.23923,44.48122,42.04145,39.52241,36.62606,33.75127,30.67395,27.30544,24.59909,21.84496,18.52822,15.28863,11.59229,8.045357,4.808078,1.497336,-1.901177,-5.326102,-8.484944,-11.57774,-14.89341,-18.27534,-21.37344,-24.2215,-27.24774,-30.5191,-33.40025,-36.24439,-38.47446,-40.61207,-43.14366,-45.45919,-47.41172,-49.33541,-50.9933,-52.74199,-54.40611,-55.99449,-57.44365,-58.48017,-59.59055,-61.07792,-62.08649,-62.90433,-63.66792,-64.60655,-65.36941,-66.05375,-66.06077,-65.17165,-64.32207,-63.82842,-62.66054,-60.83832,-60.10845,-59.04396,-58.74396,-58.35651,-57.82531,-58.02297,-58.42147,-59.1708,-59.61153,-60.12364,-60.51339,-61.4154,-62.20962,-63.17218,-63.90249,-64.72688,-65.76972,-66.84701,-67.96022,-68.38325,-69.49921,-70.79203,-71.89664,-71.6466,-70.35,-69.06325,-67.40164,-65.72102,-63.52018,-61.11383,-58.02321,-55.57746,-52.80271,-49.60429,-46.16498,-42.42791,-38.48633,-34.9973,-31.19159,-26.79001,-22.18597,-18.1054,-13.72247,-9.019298,-4.413828,0.2656508,4.614854,8.97992,13.40685,18.04205,22.4026,26.71318,30.38337,33.75801,37.46912,40.81889,44.39332,47.25745,50.05988,52.60288,55.06534,57.215,58.67719,60.00374,61.14035,62.2928,62.77112,62.69638,62.45177,62.00559,61.55831,60.80917,59.03371,57.27078,55.3624,53.67567,51.49754,48.56241,45.51291,42.76624,40.10546,37.10516,33.909,30.86954,27.7168,24.74962,21.40422,18.00585,14.58924,11.11362,8.372183,5.560358,2.375992,-0.7901461,-3.694284,-5.957967,-8.064608,-10.05205,-12.18684,-13.36591,-14.22234,-14.49134,-14.76666,-14.78132,-13.5731,-12.5599,-11.79718,-11.30721,-10.49344,-9.764123,-9.761592,-9.236234,-9.683028,-9.755099,-10.09345,-10.57141,-10.89347,-11.36233,-11.71233,-12.09656,-12.49367,-12.72778,-13.13912,-13.82088,-13.95484,-14.10379,-14.49056,-15.06658,-15.99884,-16.73854,-17.37884,-17.90829,-18.15752,-18.83573,-19.33067,-19.58809,-19.98954,-20.5234,-21.06711,-21.08164,-21.24861,-21.46203,-21.34476,-21.08837,-20.96197,-20.23005,-18.8206,-18.10318,-17.31717,-16.6836,-16.01729,-14.61381,-13.32086,-12.2922,-11.2019,-9.680989,-8.20347,-6.565436,-5.315333,-3.887492,-2.230844,-0.2937642,1.287739,2.979612,4.968052,6.75296,8.969728,10.7911,12.71751,14.33847,15.94749,18.17279,19.95638,21.63003,22.91058,24.81533,26.41771,27.92204,29.69639,30.58147,31.71961,33.27056,34.31719,35.59865,36.70186,37.7732,38.80175,39.47959,40.51461,41.47462,42.12741,43.03466,43.67434,44.37414,44.6581,45.36762,46.27033,46.7764,47.26445,47.42685,48.02036,48.55429,49.0197,49.49693,49.51038,50.2,51.53717,51.98139,52.48624,53.08996,53.53385,54.77055,55.42662,56.13174,56.7377,57.20315,58.08423,58.97263,59.80542,60.42257,60.57214,61.36387,61.87395,62.35065,62.17957,62.1502,62.73816,63.225,63.62827,63.41743,63.35975,63.70614,64.07521,64.20493,64.00668,63.50702,63.40926,63.22052,62.77319,62.57558,62.36401,61.80701,61.24055,61.12743,61.41371,61.69458,61.82553,62.36734,62.61422,62.75046,62.65048,63.01693,63.44211,63.28158,62.80307,62.40527,62.39951,61.31578,59.80913,58.16071,56.62248,55.3221,53.54435,51.05486,48.35339,45.4956,42.98388,40.14439,36.47723,32.77793,29.10681,25.56116,21.78786,17.55457,12.95566,8.558192,4.294175,-0.03919458,-5.153481,-10.61765,-15.05666,-19.27622,-24.20262,-29.42876,-34.88168,-39.94972,-44.53772,-49.79547,-55.1365,-60.73549,-65.70568,-70.15172,-74.97115,-79.73791,-84.78275,-89.7742,-94.46928,-98.27325,-102.0337,-106.5206,-110.8931,-114.3764,-117.9374,-121.0632,-124.5727,-127.8867,-130.5871,-133.5199,-135.6787,-138.1425,-140.0822,-141.3703,-142.4689,-143.6702,-144.9219,-145.1814,-144.6986,-144.4068,-143.8931,-143.6433,-142.4629,-140.8573,-139.1393,-137.4864,-135.8892,-133.6409,-131.0122,-128.1293,-125.4659,-123.6519,-119.9289,-116.3475,-112.7274,-109.0131,-105.9261,-102.983,-99.66524,-96.69857,-93.88532,-91.3445,-89.1721,-86.42485,-83.54841,-81.72008,-80.43565,-78.99513,-77.23938,-75.43968,-73.56803,-71.96861,-70.93316,-69.49225,-66.89275,-64.09396,-61.59083,-58.95287,-55.68204,-52.07252,-48.81358,-45.34122,-41.61731,-37.62487,-33.48022,-29.44999,-25.50647,-21.19579,-16.4788,-12.17307,-7.819812,-3.348287,0.9065179,5.058216,9.057322,13.09243,17.0875,21.15063,25.5929,30.02892,34.16583,38.57665,42.6664,47.04348,51.58884,55.8468,59.97337,63.97181,68.06839,72.04351,76.23704,80.05586,83.90312,87.17162,90.1411,93.55896,96.5182,99.45534,101.8357,103.7497,106.0137,107.5088,109.1366,110.3003,111.0452,111.9459,112.7077,112.9467,112.9816,113.3221,112.5701,111.3112,110.2161,109.448,108.2162,106.8345,104.803,102.672,100.7194,98.82873,96.8472,94.16774,91.69197,89.3509,86.73699,84.39784,81.81445,79.19156,77.0761,74.38919,71.82732,69.44922,67.43722,65.33196,63.72881,62.17615,60.63108,59.26988,57.87941,57.36014,56.81164,56.18741,56.72918,55.87263,55.87673,55.55196,54.70774,53.85411,53.28282,52.8794,52.22437,51.13697,49.27686,47.71861,46.06592,43.87046,41.65001,39.57656,37.22426,35.06714,32.82452,30.41787,27.71459,25.34814,23.38192,21.17398,18.42789,15.28099,12.32726,9.271226,6.818581,4.224815,1.413583,-1.437082,-3.870512,-5.848579,-8.242319,-10.81767,-13.34293,-15.78001,-18.42754,-21.3837,-24.58913,-27.85338,-30.76305,-33.09179,-35.53968,-37.38201,-38.66993,-39.91031,-41.27476,-42.11318,-43.04428,-43.53008,-44.19343,-44.75857,-45.43832,-46.07469,-46.49507,-46.55177,-45.98282,-45.84955,-45.39347,-44.77911,-44.35959,-43.25678,-43.22608,-42.88918,-42.78267,-42.74273,-42.4246,-42.84363,-43.07523,-43.54153,-43.56854,-43.49882,-43.4861,-43.88621,-44.55897,-44.8383,-45.19721,-45.76827,-46.46846,-47.41518,-49.08894,-50.78349,-52.79364,-54.94175,-57.19924,-59.45156,-61.38462,-62.85353,-64.73721,-66.6877,-68.70975,-70.18028,-71.70098,-73.26665,-75.43238,-78.12146,-79.66008,-81.24143,-82.82532,-84.98768,-86.59461,-87.56338,-88.39765,-89.36726,-90.33409,-90.52444,-90.76418,-90.59845,-90.74577,-91.43065,-91.74267,-91.55649,-90.97339,-90.54719,-90.04461,-89.00552,-87.76027,-86.22871,-84.51913,-82.87184,-80.46541,-77.77935,-75.18334,-72.42984,-70.20194,-58.69066,-56.32024,-64.34822,-62.20869,-58.54771,-56.95236,-55.07921,-52.79771,-49.67571,-46.75662,-43.59374,-39.4241,-35.70143,-31.8608,-28.08881,-24.72733,-21.2487,-18.60003,-15.67082,-12.3595,-8.723105,-4.867489,-0.369342,4.43074,8.950078,13.90848,19.40948,25.08569,30.71696,35.4949,39.59668,43.86696,48.19355,52.31411,56.22697,59.58361,63.59931,67.60643,71.60958,75.36186,79.26905,82.89377,86.33029,89.13826,91.36158,92.42245,94.05114,95.17418,96.44006,96.84759,97.42377,98.34531,99.16198,100.2427,101.22,101.8973,102.7331,103.7489,104.2194,103.5344,102.6539,101.641,100.7862,99.74002,98.23319,96.06805,94.55355,93.3962,92.43985,90.82498,89.48401,88.46538,87.25591,85.62844,83.61361,80.84751,78.65089,76.26075,73.15991,69.77563,66.6496,64.16825,61.64666,59.26155,55.79217,53.44395,51.30722,49.02585,46.53402,43.9635,41.4179,38.8416,36.35255,33.43574,30.4873,28.26803,26.64614,25.19817,23.51116,22.33929,21.03845,20.31868,19.40492,18.75664,18.19736,17.7967,17.37917,16.44824,15.89373,14.47302,13.04452,0.5287362,-5.746662,-1.210062,-4.640128,-9.995132,-13.47542,-17.10061,-21.13175,-25.88518,-30.2304,-34.43067,-38.89095,-43.60091,-48.00669,-52.7365,-56.63421,-60.04402,-62.50649,-64.54061,-66.1666,-67.50403,-68.62171,-69.53132,-70.35374,-71.16783,-71.85759,-71.89994,-72.17044,-71.95913,-71.74914,-70.83014,-69.43919,-67.41036,-65.54412,-63.81389,-61.5701,-59.25087,-57.05622,-54.67631,-52.96134,-50.99186,-49.00813,-47.20422,-45.16895,-43.61505,-41.58233,-38.44553,-35.36674,-33.1947,-30.57144,-28.33583,-26.04315,-23.72972,-21.59222,-19.90533,-18.62039,-17.36759,-16.17379,-15.16646,-14.35939,-13.43957,-12.42751,-11.33192,-10.79533,-10.58363,-10.26113,-9.877303,-9.59631,-10.07826,-10.33322,-10.94864,-11.52675,-12.05736,-13.33878,-14.51652,-15.71165,-17.22674,-18.53407,-19.67713,-21.20691,-22.68137,-24.08311,-25.49221,-27.00733,-28.18557,-29.66651,-30.84825,-31.90664,-33.0755,-34.1413,-35.31399,-35.98558,-36.37102,-36.76369,-36.01497,-35.69803,-35.16001,-33.90783,-32.55751,-31.34821,-29.49564,-27.90351,-25.5406,-23.17276,-21.10944,-18.97444,-17.04906,-14.92622,-13.12815,-11.22284,-9.013317,-7.560781,-6.03519,-3.810421,-1.973836,-0.2705894,1.216043,3.473137,5.507041,8.007524,10.10033,11.73253,14.15002,16.34682,18.33532,20.58525,22.37151,24.39408,26.60978,28.79804,30.64526,32.19339,34.03068,35.82366,37.09037,38.73742,40.56331,42.22769,44.0222,45.29898,46.79616,48.44104,50.00119,51.24643,52.5694,53.60459,54.94865,56.05783,57.52533,58.38756,59.82976,60.92484,62.00878,63.13498,64.36593,65.36862,66.76143,67.06139,67.44365,68.41614,69.06651,69.572,70.27083,70.66056,70.75843,70.72543,70.96763,71.5836,71.75676,71.13592,70.65946,70.35224,70.18724,69.66272,69.26106,68.7284,68.19691,67.61177,67.08332,66.74626,65.94302,65.17093,64.72675,64.19766,63.61499,62.43831,61.84104,61.61689,61.35838,60.768,60.29265,59.58255,59.18783,58.885,58.24339,58.04514,57.38348,56.75593,56.59772,56.21358,55.87023,55.50693,55.24111,55.01125,55.11547,54.00112,53.25881,53.20574,52.40898,51.93708,51.21897,50.17361,49.56621,48.9028,48.2568,47.32652,46.09834,45.01203,44.36135,43.19853,41.81415,40.17485,38.88995,37.58768,36.30166,35.75474,34.4926,33.90311,33.64894,33.8231,33.50566,33.07,33.67371,33.64599,34.38778,34.39287,33.9701,34.09154,34.44164,34.23957,33.67681,32.72384,32.36369,31.85119,31.08965,30.4718,29.30142,28.29081,26.92934,25.74082,24.3016,22.41259,20.49987,18.61569,16.57847,13.93763,11.11352,8.392905,5.828818,2.751761,-0.3334587,-3.902364,-7.467894,-10.81794,-14.18191,-18.49221,-22.36331,-26.23336,-30.26216,-34.34936,-38.81175,-43.61341,-48.27368,-52.84948,-57.44514,-61.84231,-66.25636,-70.95808,-75.74557,-80.56683,-85.0062,-89.64689,-93.90527,-98.05059,-102.038,-106.3887,-110.9396,-115.1786,-118.92,-122.8179,-126.6721,-130.4016,-133.7297,-136.946,-139.7815,-142.4393,-144.7945,-147.1953,-149.3682,-151.3632,-153.7411,-156.438,-158.4945,-160.5466,-162.8779,-164.9771,-167.7711,-169.9812,-172.1952,-174.3119,-176.4909,-178.6988,-180.2465,-181.4528,-182.5476,-183.6371,-184.1652,-184.282,-184.7327,-184.2581,-183.7517,-183.3422,-182.6437,-181.6138,-180.3493,-179.1829,-177.6318,-176.1166,-174.1933,-171.8753,-169.2759,-165.9631,-162.7465,-158.8293,-154.1158,-148.4854,-143.9777,-138.4901,-132.7724,-126.5978,-120.0411,-113.4907,-106.1615,-99.05814,-91.05873,-82.94489,-74.9148,-66.74228,-58.64645,-50.04234,-41.15667,-32.66375,-24.10955,-15.70051,-7.166233,1.138853,9.830608,18.05128,26.47316,34.40021,42.20728,49.8949,56.8338,63.97433,70.34068,76.61866,81.80092,87.04486,91.84658,96.10528,100.6054,104.0645,107.323,110.3499,113.0714,115.0518,116.6464,117.3769,117.4202,117.4378,116.3235,114.9467,112.8521,110.7156,108.6478,106.3439,103.6187,100.5238,97.58285,94.45589,91.21994,87.70006,84.06384,80.26741,75.97727,71.68129,67.0343,62.29933,58.04118,54.36875,50.85913,47.63379,44.91292,42.28946,40.32329,38.38661,36.34258,34.06314,31.84577,29.54179,27.2889,25.09144,22.84807,20.4651,18.46294,16.9882,15.38213,14.03332,12.71983,12.30898,12.07272,12.00308,11.8247,11.57102,11.18408,11.31983,11.76885,11.98553,12.39944,13.6695,15.05373,16.92176,18.8791,20.91274,23.41058,26.27732,29.28388,32.02894,34.70066,37.35221,40.14791,42.89827,45.01854,47.5322,50.456,53.30159,56.03191,59.21023,61.95866,65.29014,68.77798,72.06953,75.11203,77.15141,79.56828,81.51672,82.96411,84.36154,85.37201,86.9872,88.58464,89.8772,91.40001,93.00054,94.48027,96.63462,98.57167,99.03719,100.1603,100.2833,100.8835,100.8136,100.0499,99.56486,98.62362,98.43363,97.9018,97.9212,97.27742,96.71199,96.76698,96.16892,95.17818,93.63295,92.30063,100.4564,97.29756,94.12715,91.98754,89.51685,86.06687,82.98408,69.32468,66.4215,63.05961,58.58661,54.53663,50.82562,47.67216,44.24948,41.5776,39.27324,37.08745,34.95562,32.85374,31.7194,30.66586,30.09007,30.21332,30.52508,30.72822,31.35878,32.17247,32.25522,33.10965,33.44106,33.86785,34.04044,34.72736,34.97902,36.09615,37.00149,37.87023,39.09298,40.60205,42.22685,43.55068,44.41276,45.33251,45.96681,46.38316,46.7025,45.7349,45.16098,44.50958,44.35444,43.91312,42.88689,41.88942,41.32868,40.67414,39.9661,37.91644,35.87596,34.08176,31.65221,29.0657,25.82529,22.36201,18.74353,15.71769,12.1433,8.811467,5.349364,2.002397,-1.210037,-4.504459,-8.571003,-13.05134,-17.3162,-21.75707,-26.72067,-31.83985,-37.67144,-43.1199,-48.15728,-52.74846,-57.20874,-62.30545,-66.68725,-70.41336,-74.09898,-77.64896,-81.25004,-84.9576,-88.14049,-91.76476,-95.17544,-98.14855,-101.1393,-103.7341,-105.6383,-107.0093,-108.1179,-108.5087,-108.1509,-107.6016,-107.196,-106.2171,-104.5895,-102.3018,-99.8757,-97.12534,-93.63677,-89.34731,-84.82485,-92.37785,-91.23435,-90.75299,-93.15187,-96.03437,-99.42029,-103.9541,-97.11724,-99.0338,-100.4554,-100.1624,-99.97056,-100.1881,-100.6349,-100.1972,-99.229,-98.62305,-98.67359,-98.49992,-98.19971,-97.56016,-97.3724,-97.40014,-97.74927,-98.05681,-97.91456,-98.17818,-99.11047,-99.13087,-99.23562,-99.30305,-99.29482,-99.27536,-99.85154,-99.37046,-99.01113,-98.55188,-98.08343,-97.71597,-97.40139,-96.81234,-96.03952,-95.25312,-95.0614,-94.38863,-93.29327,-92.84126,-91.16205,-90.31608,-89.51673,-88.47681,-87.3975,-86.06895,-84.78674,-83.5719,-82.28054,-80.63851,-79.04139,-77.40873,-75.84569,-73.71788,-71.05963,-68.63528,-66.83019,-64.33847,-61.75864,-58.79427,-56.21866,-53.39055,-50.48263,-47.39489,-44.22151,-41.33661,-38.1077,-35.44765,-32.17319,-28.37104,-24.83029,-21.48403,-18.06788,-14.39772,-10.88978,-7.289831,-3.262379,0.5624888,4.352486,8.064079,11.95472,15.06374,18.67739,22.34947,26.03072,29.44773,32.59707,35.3656,38.57245,41.94031,45.03087,47.60741,50.36042,52.75851,55.30889,58.08697,59.90474,62.04367,63.68412,65.79289,67.42117,68.61516,69.59617,70.73103,71.90058,72.47813,72.60195,73.05876,73.25026,73.25445,72.99585,72.34392,71.90744,71.47308,70.55819,69.59882,69.18152,68.21438,67.6828,66.36437,64.93623,63.7145,62.14775,61.02005,59.19626,57.19384,54.75386,52.80796,50.62544,48.56134,46.72585,45.41836,43.59665,41.5523,40.09154,38.61597,37.29022,36.02941,34.51442,32.88977,30.94242,29.65286,28.69824,27.10413,25.7831,24.69997,23.52075,22.72663,22.04234,21.18796,20.61868,19.7009,18.64261,17.71619,17.09056,16.46056,15.66012,15.17724,15.24279,15.52624,15.74693,16.68157,17.11948,18.1532,19.52361,20.25688,20.96016,21.83926,22.46804,23.0011,23.71876,24.39406,25.16642,26.14819,27.44428,28.88203,30.52735,31.55617,33.73755,35.84722,37.57938,38.68127,39.74339,40.96617,41.7922,43.05357,44.2355,44.99431,45.72416,47.18705,48.36835,49.1034,50.1341,50.71488,51.72905,52.11213,52.19861,51.33161,50.81611,50.14501,49.31442,48.24544,47.69177,46.62927,46.36106,45.94922,45.66181,45.11484,44.61366,44.42778,44.16784,43.39692,42.41486,41.11461,39.52574,38.55523,37.29886,35.98114,34.70843,33.36003,33.17316,32.44825,31.96285,31.49042,30.98105,30.61163,30.55803,29.34297,28.11167,26.64732,25.32102,24.21069,22.4804,21.28628,20.26125,19.44599,19.11241,18.76849,18.44219,18.6874,18.45796,18.95236,18.55979,17.85689,17.13435,16.63673,15.95809,14.89008,13.87387,14.02556,13.55828,13.67265,13.54916,12.77561,12.96122,12.79765,12.71538,11.96694,11.20068,10.05281,8.990786,7.382459,5.784394,4.008,2.887223,1.197949,-0.3630686,-1.168709,-2.508521,-4.194152,-5.470228,-7.29637,-9.24052,-11.21169,-13.98991,-16.57372,-19.43396,-22.35514,-25.3598,-28.00991,-30.51759,-32.68211,-34.96357,-37.2606,-39.5202,-41.68232,-43.74819,-46.36561,-48.4284,-51.15501,-53.80482,-55.60406,-58.18188,-60.46712,-62.28926,-63.4292,-64.31432,-66.12769,-67.44513,-68.49432,-69.809,-70.38826,-70.70121,-71.7385,-73.1497,-74.23984,-75.54155,-76.94585,-77.75567,-78.03677,-78.10832,-78.10081,-77.69761,-77.59552,-76.68416,-75.71508,-74.68884,-73.93299,-72.87564,-71.5813,-70.37207,-69.5022,-68.15584,-66.71662,-64.6923,-61.89473,-59.20066,-56.39414,-53.63663,-50.08405,-46.11291,-42.80468,-39.48727,-35.82464,-32.53928,-29.24174,-26.02763,-23.63705,-20.60229,-17.87879,-15.21559,-12.43732,-10.44728,-8.414074,-6.712329,-5.6629,-4.791415,-4.774366,-4.612539,-5.35592,-5.983372,-6.717715,-7.889181,-9.180318,-10.16473,-10.71837,-11.25828,-11.14729,-10.77925,-10.73777,-10.03346,-9.418301,-8.389479,-7.694426,-6.980972,-5.961909,-4.511561,-3.254638,-1.864357,-0.2591709,1.626926,3.784743,6.422807,8.954896,11.45203,14.10343,17.34126,20.52518,23.45416,26.50261,29.83559,33.56864,37.41523,40.9144,44.93006,48.99255,53.01724,57.39437,61.42046,65.40586,69.18134,73.16018,76.0358,79.49328,82.35662,85.27134,88.30862,91.29627,94.11601,96.67261,99.56731,102.1585,103.4664,104.932,105.8008,106.3596,106.5946,106.1232,105.9387,105.0497,104.0952,102.5285,100.7653,97.68107,94.32554,91.4856,87.44214,83.41002,78.62396,73.14735,66.63628,60.25439,53.39443,45.83149,38.73394,31.43937,23.6748,15.96729,8.591225,1.425976,-6.362625,-13.28882,-19.5597,-25.60044,-31.39643,-37.24532,-42.95438,-48.23364,-52.97578,-56.84682,-61.00491,-63.74719,-65.58218,-67.18242,-68.83543,-70.14614,-70.92653,-71.29809,-71.62674,-72.48617,-73.19737,-72.47652,-73.53498,-74.52327,-75.69752,-76.98498,-77.94306,-78.44819,-78.09076,-78.46664,-78.38518,-77.9642,-77.13355,-76.30218,-75.34527,-74.69547,-73.43711,-72.07806,-70.9749,-70.66213,-69.29079,-69.6618,-67.89589,-66.60223,-64.91882,-62.88715,-60.45602,-57.49118,-55.30421,-52.69306,-50.44696,-48.15065,-46.10961,-44.51907,-43.15721,-41.62126,-40.30386,-38.56465,-36.47996,-34.67363,-32.3044,-29.45168,-26.50984,-23.6567,-20.90689,-18.58854,-15.92895,-13.66309,-11.48997,-9.531954,-8.074905,-6.094127,-4.082449,-1.247291,1.228177,4.47966,8.097727,12.20141,15.74723,19.07955,22.43515,25.27074,28.38442,31.03044,33.43044,36.37952,39.41786,41.97058,44.97635,48.07534,51.06971,54.04652,57.61315,60.52324,63.52272,66.25817,68.38326,69.90197,70.54416,70.53119,70.60709,70.75419,70.61903,70.65881,70.68284,70.30932,70.07681,70.10028,70.56403,70.0415,69.43075,69.28352,68.66074,67.4488,65.46917,63.09726,60.59952,58.34157,55.85802,53.76505,51.16093,49.31037,47.32563,44.92549,42.89728,40.65388,38.7806,36.81871,34.47566,32.01521,29.28444,26.72165,22.66229,20.05391,17.97641,15.73238,13.8977,13.06682,11.94596,10.07151,8.784707,7.974924,6.96112,5.947792,4.684852,3.40474,2.165637,0.8336258,0.2073479,-1.167194,-1.524481,-1.976142,-1.174636,-0.808329,0.06544662,0.4487489,0.6785803,0.4520898,0.08453042,-0.08888337,-0.7728934,-1.73667,-2.892901,-3.603733,-4.488185,-5.528211,-6.59043,-6.930692,-7.300326,-7.44833,-8.084914,-8.69852,-9.8215,-10.98774,-12.23113,-13.6953,-15.62645,-17.13268,-18.49384,-19.97361,-21.45734,-22.87491,-24.09226,-24.68306,-25.71206,-26.64657,-27.80071,-28.81972,-30.41556,-32.17572,-33.55915,-35.19064,-36.69968,-38.27819,-39.26025,-40.10906,-41.23205,-42.66169,-42.90002,-43.20961,-43.95802,-44.82002,-44.95369,-45.43978,-46.13192,-47.12311,-48.13298,-49.16831,-49.80245,-49.86016,-49.63573,-49.27155,-48.93053,-47.8061,-46.43627,-45.10276,-43.44216,-41.31968,-38.80456,-36.41502,-34.26878,-31.67016,-29.84814,-28.3605,-26.16368,-24.88129,-23.96907,-23.12578,-22.64001,-21.77186,-21.55682,-21.64627,-21.6396,-22.18504,-22.43527,-22.90112,-23.86358,-24.95435,-26.25985,-26.93729,-27.35213,-28.04724,-28.32258,-28.05316,-27.1046,-26.87106,-25.61401,-24.34438,-23.13124,-21.43703,-19.60567,-17.50263,-15.38144,-12.87898,-10.16868,-7.38914,-4.582746,-0.9394751,2.650669,6.488805,10.4691,14.3629,18.19455,22.34067,25.8631,29.43155,32.72667,35.73015,39.80149,43.49902,47.29402,51.06114,54.39467,58.07083,62.0156,65.83944,68.95802,72.51614,75.61007,78.31158,80.55831,82.92931,84.82359,86.65417,88.79545,90.45614,91.93146,93.39218,94.25666,95.46256,96.08085,95.96698,95.99033,95.56379,94.26795,93.16787,91.32837,89.2612,87.06301,84.68177,82.83891,80.25478,77.55657,74.87078,72.34007,69.14062,65.51605,61.36283,57.28991,52.50457,47.49039,42.07349,36.9185,31.26583,26.23357,21.20535,16.59114,11.97239,7.521054,3.868077,-0.3065945,-3.81894,-7.313613,-10.2969,-12.9701,-15.45856,-17.96865,-19.98423,-21.73938,-23.46831,-24.73881,-25.62888,-26.85225,-27.38121,-27.62497,-28.65377,-29.70229,-30.89436,-32.08925,-33.24716,-35.21965,-37.38181,-39.75934,-41.60463,-43.55381,-44.76177,-46.51913,-47.79159,-48.76929,-48.80157,-49.4174,-49.53098,-50.02608,-49.86567,-49.95509,-50.72667,-51.37704,-53.23834,-54.06427,-54.64241,-55.14501,-55.2591,-55.44334,-55.77368,-56.22778,-55.6975,-54.81774,-54.62433,-54.88377,-54.99642,-55.94305,-57.4061,-59.13716,-60.41336,-62.11594,-62.88744,-63.82534,-64.12945,-64.25112,-64.82865,-65.1532,-64.76444,-65.29716,-65.44191,-65.60989,-66.99008,-68.4938,-70.23224,-72.4086,-74.44853,-76.2184,-77.18557,-79.0309,-80.0389,-80.5826,-81.30988,-81.59985,-82.37528,-83.52248,-84.18145,-85.57104,-87.12315,-89.28403,-91.41653,-93.54736,-95.30794,-96.49423,-97.52103,-98.13195,-98.59745,-98.43235,-98.66827,-98.57547,-98.75138,-98.57985,-99.27294,-99.76486,-100.5785,-100.8438,-101.2802,-101.1908,-90.1217,-92.15231,-90.81261,-88.74208,-97.599,-94.07103,-95.06373,-97.29152,-98.57169,-100.2849,-101.72,-103.0758,-104.9546,-107.0429,-108.706,-110.5371,-111.4749,-112.2633,-113.1654,-112.6461,-112.4488,-111.4533,-110.8938,-110.2538,-108.7146,-107.8599,-105.9077,-104.4756,-102.8701,-100.3493,-97.33081,-93.47422,-89.02502,-84.68928,-78.69928,-73.50076,-67.33774,-60.41166,-53.86015,-46.85671,-39.24348,-32.49457,-24.99385,-17.94766,-10.53552,-2.894499,5.169287,14.44067,22.98985,31.90521,41.14215,50.31448,59.10464,68.47735,78.17477,87.14207,95.5583,104.0008,112.3569,120.1136,128.2401,137.0406,145.3892,153.9372,162.6474,171.0043,178.8773,186.0107,193.1087,200.3183,207.3046,212.4449,217.4484,221.3661,225.0252,228.5541,231.6254,234.4116,236.8966,239.4945,242.0603,242.8888,243.8662,243.8062,243.9071,243.0015,241.3137,239.0724,236.4676,233.4046,230.5365,227.3642,224.516,221.9116,219.3632,217.8659,216.1779,214.5483,212.9163,212.3873,212.072,211.8177,211.8613,212.4167,213.1989,215.2,217.1946,219.781,222.4121,225.2783,229.2232,219.384,220.2919,216.7387,211.3952,218.032,212.7578,209.9396,207.9712,205.2959,201.9541,198.7595,193.1801,187.8185,181.8253,175.5609,168.6482,161.6485,153.6302,146.2994,138.2865,130.2786,121.8532,113.1946,104.9066,96.08964,87.63625,77.72118,68.36297,58.8413,48.91945,39.4481,29.47674,20.10563,10.60346,1.347489,-7.337311,-15.42635,-24.12352,-31.97187,-39.66607,-47.5735,-54.84299,-62.13635,-69.33905,-76.11945,-82.46931,-88.54823,-94.55696,-99.49404,-103.7419,-107.1404,-110.7658,-113.333,-115.73,-117.7053,-118.5079,-119.8708,-120.9056,-121.9795,-121.9479,-122.0468,-122.0872,-121.3707,-120.1629,-118.4917,-116.5465,-113.9223,-111.475,-108.6302,-105.1886,-102.5371,-99.33935,-96.94442,-94.14897,-91.82354,-89.80161,-88.19188,-86.78466,-85.85029,-84.90603,-84.23373,-83.48598,-83.00779,-82.83996,-82.98827,-83.28642,-83.52696,-84.6147,-85.78812,-87.12463,-88.84219,-90.91897,-92.60696,-95.01501,-96.18386,-97.92331,-99.42189,-100.2411,-101.1104,-102.527,-103.5242,-104.196,-105.3863,-106.7655,-108.5368,-110.4448,-112.2892,-114.0935,-116.2413,-117.7039,-118.8415,-119.0874,-119.2055,-119.4243,-118.8809,-118.6565,-118.1303,-117.4416,-117.4519,-117.8746,-118.0342,-119.2427,-119.7508,-120.9025,-121.158,-121.7316,-121.4298,-121.374,-120.7591,-119.8094,-118.9954,-118.1469,-117.3321,-116.7035,-116.9422,-116.9641,-117.2217,-117.7856,-118.5448,-118.9208,-118.571,-117.8995,-117.2726,-116.6727,-115.8606,-114.342,-113.0187,-112.0016,-111.3522,-110.7096,-110.5508,-110.0333,-110.4607,-110.4307,-110.5772,-110.0986,-108.9681,-107.55,-105.5321,-103.5088,-101.4214,-99.09071,-96.51932,-94.55097,-92.26531,-90.21192,-89.1301,-87.94803,-86.9001,-85.27051,-83.81156,-81.53108,-78.69872,-75.93315,-73.21681,-69.89215,-66.16311,-63.14615,-59.78225,-57.00099,-54.09497,-51.88783,-49.82263,-47.54242,-45.73296,-44.41641,-42.1335,-40.59595,-38.27256,-35.7347,-33.72562,-31.82213,-30.28352,-29.05192,-28.70169,-28.80228,-29.41096,-30.88624,-32.62252,-34.66534,-36.5127,-38.80751,-40.36373,-42.3533,-43.09673,-44.58642,-45.30355,-46.24306,-47.39612,-47.69526,-48.05624,-48.10991,-48.8096,-48.74032,-48.76247,-48.03014,-47.00414,-45.1974,-43.43021,-40.63728,-37.54133,-34.01593,-30.44182,-27.05542,-23.03018,-19.21529,-14.63832,-10.59652,-6.291473,-1.668421,3.327649,8.711116,14.54063,20.69882,27.04911,33.9417,41.74683,49.08215,56.15266,63.89755,70.71413,77.9479,85.48768,92.14277,99.0678,106.146,112.8464,119.484,126.5177,133.9329,140.9205,148.1042,154.3137,160.4227,166.1686,172.0566,177.5337,182.2917,186.3003,189.8745,192.42,195.2457,197.0532,199.2733,200.2558,202.2928,203.4704,204.2257,204.6164,204.5732,203.8289,203.404,201.6234,199.4823,197.6703,195.0104,192.1002,189.612,187.273,185.2958,182.7754,181.8052,179.4717,178.1753,176.5965,175.5303,174.0439,172.3689,170.978,169.2024,168.2488,166.324,165.73,164.9312,164.7919,165.3266,167.0155,168.6107,171.4188,173.0663,175.2849,177.8386,180.264,182.2173,183.9854,185.8108,187.1269,187.7713,188.6181,188.7812,189.0976,188.6533,188.915,188.6343,187.8493,186.1956,184.5684,182.6965,180.292,177.8425,174.5127,171.1049,166.9792,162.7207,157.7902,151.8006,146.2865,139.9013,133.167,126.1892,117.8639,110.0275,101.6724,92.79989,83.93396,75.1136,66.50859,57.46786,49.16492,40.14558,31.35744,22.42661,13.77786,4.80557,-4.272915,-12.60006,-21.39416,-30.34699,-38.38467,-46.67838,-55.06304,-62.15072,-68.81411,-75.28899,-81.29374,-87.01032,-92.7972,-97.59148,-102.337,-106.5637,-111.3672,-115.3033,-118.9902,-121.6695,-124.2551,-125.8698,-127.4269,-128.6803,-129.2453,-129.676,-130.0021,-129.1656,-128.6406,-127.9468,-126.8399,-125.6597,-125.2697,-123.5458,-122.0918,-120.3798,-118.9279,-116.6317,-114.1422,-110.9962,-107.8297,-105.3001,-102.7584,-99.56756,-97.05065,-94.9318,-93.44487,-92.19473,-92.62461,-91.69653,-92.55825,-93.52427,-94.4492,-95.78885,-96.88689,-98.22021,-99.77267,-100.9832,-101.7584,-102.5473,-103.2245,-104.6085,-105.8889,-107.3467,-108.9565,-110.6643,-112.1078,-113.4102,-114.2379,-114.9403,-115.4765,-116.4234,-117.246,-117.9232,-117.8025,-118.1451,-118.4713,-119.2547,-119.7188,-120.4742,-121.4266,-122.5119,-123.6096,-124.1649,-124.6673,-124.3371,-124.7993,-125.1874,-125.4151,-126.0303,-126.5998,-127.6804,-128.2605,-130.0616,-131.0314,-132.883,-134.5426,-135.9438,-136.7717,-137.3615,-137.699,-137.2362,-137.0686,-136.5658,-135.9764,-135.6343,-135.1693,-135.0201,-134.4526,-133.9954,-133.8181,-133.2244,-132.5547,-131.2865,-129.0991,-127.2683,-124.8859,-122.3884,-119.5097,-117.0552,-114.5808,-112.4324,-110.7788,-108.8185,-107.0986,-105.5845,-104.3658,-102.5249,-100.7001,-98.73343,-96.51665,-94.02074,-92.05992,-89.5104,-85.89015,-82.73937,-79.10454,-76.1577,-72.98095,-70.34403,-67.37558,-65.65584,-63.84128,-61.84818,-60.28423,-58.60912,-57.10361,-55.89605,-55.30859,-53.91497,-53.58783,-53.28392,-53.01968,-53.12047,-53.69478,-53.87109,-54.86943,-55.68143,-56.03832,-55.97175,-55.09617,-54.36989,-53.41614,-52.25804,-50.06268,-48.10887,-45.69099,-42.95847,-40.66115,-37.85026,-34.24043,-30.7647,-27.21026,-23.27604,-18.40564,-12.80641,-6.858048,-0.4717498,6.124917,12.75618,19.97859,27.35384,35.05737,42.42207,50.03437,57.80484,65.27241,72.75963,80.09739,88.0897,95.93475,103.7219,111.5212,119.2552,126.9167,134.2528,140.9557,147.4522,153.0252,158.3998,163.1128,167.4521,171.4252,174.3848,178.2907,180.9279,183.7376,185.8556,188.0018,189.6153,190.8852,192.0941,191.6878,191.6089,190.4516,189.1178,187.3595,185.0424,182.2775,179.3358,175.8331,173.003,169.7883,165.8232,162.3076,157.9146,153.329,148.6119,144.0731,138.6513,133.6748,128.3468,122.7486,117.4075,112.3102,107.2877,102.8708,98.4682,94.07607,90.51376,86.92549,84.31624,82.10059,80.70727,80.44236,79.39859,79.54319,79.01997,79.08051,78.41186,78.25839,77.95358,77.99996,77.86041,78.04335,78.12991,78.86546,79.3256,79.76161,81.36586,81.6303,83.17471,84.05142,84.95278,86.08862,87.24104,88.11889,89.54878,90.23939,90.93548,92.27543,92.63732,93.49824,94.19353,94.971,95.07622,95.71673,95.84311,95.59672,96.30251,96.56138,95.96224,95.56965,95.40774,95.01734,94.17104,93.26224,92.0149,90.26863,88.60287,86.63149,84.43809,81.52527,77.9162,74.63069,70.56807,66.2949,61.80236,56.81874,52.17172,46.80561,41.37264,35.8773,29.8594,23.8191,18.10746,11.91451,5.690554,-1.163017,-7.405797,-14.18383,-19.49313,-25.71074,-31.64851,-37.00099,-43.1284,-48.15824,-53.2367,-57.9183,-62.80271,-67.31193,-71.64503,-76.10333,-80.19313,-84.50017,-87.77691,-91.03648,-93.62102,-96.22469,-98.29707,-99.96838,-101.1739,-102.0154,-103.0267,-102.957,-103.4194,-103.086,-102.6173,-102.3304,-101.9066,-100.9998,-99.80189,-98.33363,-96.28265,-94.62205,-91.98343,-89.66964,-87.16095,-84.63027,-81.94773,-79.71715,-76.60778,-74.49427,-72.39557,-70.99733,-69.21146,-67.53378,-66.52755,-65.41087,-64.5671,-63.51129,-62.65015,-62.15463,-61.84076,-61.48752,-61.52039,-61.46455,-62.1586,-63.42325,-64.84328,-66.1408,-67.03617,-68.88814,-69.58435,-70.89063,-71.81081,-72.49939,-73.18378,-74.22997,-74.14231,-74.49199,-74.5248,-74.74824,-75.7603,-76.10541,-76.47981,-76.1593,-75.34846,-74.63413,-72.86229,-71.43301,-68.71294,-65.78666,-62.54814,-59.1856,-55.87363,-51.96432,-48.47717,-45.34818,-42.1329,-39.83599,-37.01545,-34.25541,-31.58175,-28.67185,-26.02504,-22.64075,-19.00745,-15.26157,-11.60626,-8.642991,-4.903194,-1.349933,1.339178,4.480167,6.573756,8.508925,10.37179,11.98858,14.11326,16.27529,18.41142,20.10865,22.27907,24.30382,26.1416,28.02793,29.6274,30.73472,30.82001,31.09249,30.99351,30.69378,30.58691,29.85875,29.98411,29.60344,30.13737,30.14906,29.86398,29.89181,29.86283,29.75679,29.17186,28.30407,26.47171,25.3441,23.51196,21.72377,20.35072,18.59599,17.801,17.28286,17.20995,16.62462,16.78425,16.57211,16.89807,17.17192,16.93802,16.52582,15.64341,14.98065,14.16543,13.71857,13.65207,13.61847,13.75069,14.90439,15.20343,15.54924,16.15877,16.10959,16.6724,16.41083,15.49946,14.42066,12.72797,11.29513,10.38958,9.092064,7.920426,6.917757,6.786208,6.448462,6.664305,6.274836,6.287582,6.770545,7.103827,6.775755,6.660146,6.436096,6.234431,6.806848,7.635758,7.845572,8.847661,9.416269,11.33817,12.49759,14.20688,15.12356,16.38913,17.63574,18.29005,18.86914,18.73141,18.81582,18.79138,18.39977,18.76962,18.93232,18.67203,19.0988,19.41845,19.86557,20.23003,20.25061,19.73785,19.1275,18.82305,17.50347,16.27385,15.27326,13.45846,12.07714,10.53176,9.469,8.399207,7.165717,5.538823,4.472519,3.314855,1.853897,0.06778069,-2.270887,-4.226419,-6.915339,-9.05476,-11.18583,-13.44,-15.47602,-17.47112,-19.10601,-19.92866,-21.84686,-22.36506,-23.65363,-24.46808,-25.67388,-26.72319,-28.53601,-29.92198,-31.15041,-32.61173,-33.8576,-35.22288,-35.88212,-36.13597,-36.64059,-36.19753,-36.29499,-35.32929,-35.16464,-34.95896,-33.97355,-33.15325,-32.52508,-31.46872,-30.49952,-30.46648,-29.13566,-28.08533,-26.43457,-25.60756,-24.06442,-23.02464,-21.51465,-20.84682,-19.90074,-19.57997,-19.93339,-19.24321,-20.04579,-20.70442,-21.28804,-22.37684,-22.27929,-22.68554,-23.57055,-23.00794,-23.35083,-22.39829,-21.64157,-21.29173,-20.9144,-20.06507,-18.91949,-18.3358,-16.99502,-16.13877,-14.39651,-13.08589,-11.17626,-9.409331,-7.544847,-4.638887,-1.960862,1.877203,4.133861,7.114008,9.849145,12.98844,15.91602,18.66568,21.43395,24.21982,27.77084,31.14967,34.33458,37.61636,40.0025,44.1323,47.64348,50.98654,53.7513,55.89629,58.23921,60.54509,62.61007,64.35295,66.20427,67.91177,69.73962,70.68455,71.59628,72.60762,73.21111,74.31099,74.85269,74.70669,73.95198,72.89419,71.55438,70.06357,68.22102,66.37174,64.36331,62.4045,60.32752,58.10179,55.69625,53.32763,51.0882,48.50904,45.292,42.42849,38.73326,34.5927,30.71811,26.48548,22.19263,18.69261,15.05787,10.94599,7.530126,3.795036,1.160378,-2.008248,-5.058404,-7.863375,-10.87871,-13.57449,-17.05381,-19.96762,-21.87736,-24.39925,-26.21196,-27.55112,-29.2288,-30.65229,-31.38604,-32.42922,-32.81419,-33.87875,-34.15391,-35.11829,-35.8704,-36.77,-37.80486,-39.21931,-40.25568,-40.63642,-41.60291,-41.72681,-41.69682,-41.98646,-41.37351,-41.57735,-40.84883,-40.50009,-40.88789,-40.49433,-41.79583,-42.36166,-43.10446,-44.30968,-45.1396,-46.1987,-46.73099,-47.04162,-46.77694,-47.14707,-46.86623,-46.44999,-45.99674,-45.9248,-45.97275,-46.26505,-47.59087,-48.34047,-49.90032,-50.84903,-52.43532,-52.78806,-53.42634,-53.15668,-53.44805,-53.07957,-52.78744,-52.68027,-52.32401,-51.80089,-52.46216,-52.723,-53.92602,-55.28041,-56.42157,-57.36642,-57.86124,-58.33565,-59.00677,-59.16599,-59.55237,-59.78832,-59.5632,-59.39269,-59.45771,-59.97371,-60.20846,-61.44657,-62.79864,-64.41987,-64.68024,-65.67652,-65.55698,-65.71253,-65.44223,-65.72156,-65.05492,-64.24702,-63.87121,-63.35225,-63.35045,-63.08796,-62.58276,-62.36729,-62.0442,-60.96242,-59.80683,-58.77143,-56.81561,-55.65197,-54.85193,-53.67043,-52.94354,-52.57925,-52.23365,-53.51717,-53.80791,-55.60613,-57.36238,-59.44134,-61.3398,-62.81458,-63.81102,-64.92257,-65.74495,-67.15082,-67.19941,-67.61801,-67.86545,-67.66232,-67.5869,-67.62331,-66.7772,-66.19469,-65.3979,-64.24589,-62.61493,-60.45362,-57.67919,-54.27744,-50.99939,-47.0828,-42.70511,-38.48515,-34.12174,-29.54785,-24.76569,-19.90381,-15.4895,-10.64257,-6.221416,-0.5996538,4.808561,10.33137,16.67573,22.67724,29.52501,36.46522,43.25431,49.46822,56.09037,62.79666,68.46802,74.59356,80.36313,85.25085,90.54254,95.80137,100.8482,106.759,111.2116,117.4937,122.4495,127.9798,132.732,137.7175,141.6578,145.4778,149.191,151.537,153.9675,155.6481,157.0485,158.0862,159.4942,160.4382,161.9057,162.2663,163.099,163.9504,164.1507,164.3175,164.4795,163.8408,162.7913,161.8634,161.2041,159.4884,158.0944,156.7822,155.8816,153.7735,153.3065,151.7029,150.5816,149.4698,148.8639,147.8094,146.343,145.5293,144.4638,144.2559,143.8533,143.9356,143.4211,143.3568,142.0005,141.4854,140.7199,139.0693,137.913,136.572,134.1007,132.048,129.1819,125.7119,123.241,119.3319,116.2845,112.7772,108.8947,104.8927,100.8897,96.8641,92.65682,88.33144,84.13491,79.77092,75.44828,71.01738,66.0445,61.94427,57.15459,52.85459,48.34777,44.05805,39.2699,35.12988,30.75705,26.55071,21.95993,17.83254,13.44906,9.352125,4.20702,0.09309565,-5.012343,-8.697586,-13.43094,-16.5914,-20.82418,-23.5633,-27.30787,-29.80984,-32.55215,-35.36149,-37.3679,-40.08895,-41.81357,-44.91737,-46.74551,-49.48347,-51.17603,-52.71023,-53.95073,-55.49376,-56.35316,-56.96743,-57.65371,-58.2115,-58.80129,-59.02242,-59.89136,-60.3609,-60.83585,-62.42297,-63.68932,-64.85392,-66.12178,-67.64838,-68.30602,-69.83596,-70.44498,-71.6938,-71.88427,-72.16263,-72.55235,-73.29131,-73.46447,-74.63703,-75.14711,-76.92578,-77.3629,-78.05987,-78.39593,-78.24969,-78.38869,-78.25414,-77.64196,-77.40787,-77.08197,-76.54829,-75.48686,-75.30059,-74.26851,-74.95075,-74.97852,-75.85178,-75.37217,-75.55421,-74.87362,-75.26759,-74.33762,-73.76815,-73.47616,-72.66913,-72.44141,-71.40728,-70.72705,-70.63576,-70.44742,-70.94922,-71.63637,-71.25062,-71.34235,-71.51611,-70.73949,-70.71435,-70.15552,-69.54048,-68.95323,-68.19454,-67.42282,-66.9445,-66.44592,-66.1949,-66.78626,-66.67271,-66.71325,-66.698,-66.2493,-65.76543,-64.9483,-63.85488,-63.025,-61.81328,-60.96024,-59.47029,-58.77914,-57.98303,-57.45689,-57.68835,-58.14718,-57.99542,-58.50496,-57.99943,-57.4323,-56.52135,-55.88031,-54.92544,-54.37856,-53.20967,-53.06146,-51.5591,-51.4413,-51.21003,-51.11512,-51.91496,-51.78539,-52.94801,-52.66406,-53.43579,-52.92336,-53.139,-52.57345,-52.72043,-52.53461,-51.95417,-51.9722,-51.22325,-51.15887,-51.61103,-51.5409,-51.67909,-50.96801,-51.59026,-50.81546,-50.34886,-49.41052,-48.47592,-47.08421,-46.92864,-45.11732,-44.74976,-43.09882,-41.89346,-42.07153,-40.80104,-40.77002,-40.00121,-38.85948,-37.99627,-36.32649,-34.7479,-33.16443,-31.39867,-29.89846,-28.65857,-27.43762,-26.60091,-25.57703,-25.04456,-24.73584,-24.95824,-25.10339,-25.88258,-25.57921,-26.94751,-24.21326,-23.94158,-22.32061,-21.79659,-20.17212,-20.47163,-20.08521,-20.92081,-21.70195,-23.59075,-25.37605,-27.42289,-29.68437,-31.52267,-34.14357,-35.49314,-37.33921,-38.12976,-38.87888,-39.54979,-40.09537,-40.09412,-40.36545,-40.8283,-40.52865,-40.52564,-39.58141,-38.87761,-37.97373,-36.34214,-33.55138,-31.09329,-27.61552,-24.07964,-19.89175,-15.84756,-11.48102,-6.753353,-1.991352,2.189488,7.188091,11.83081,16.95752,21.82299,27.58651,33.52497,39.63932,45.9246,52.32208,58.30268,64.57675,70.76099,76.94281,83.12655,88.8427,94.2252,99.10143,104.3034,109.1328,113.6743,118.1136,122.2608,126.5251,130.126,133.6163,136.7259,139.7188,142.6633,145.7418,147.924,149.5284,151.1896,151.4878,152.718,152.7409,152.9281,152.5982,152.1205,151.662,150.4398,149.5115,148.2302,147.1758,145.9712,145.2976,143.7329,143.2579,142.5448,141.0617,141.1689,139.5435,139.7799,138.9756,138.7401,138.2708,137.4684,136.9466,136.5566,136.388,135.7815,135.2279,134.6782,133.9612,132.8866,132.1553,131.0226,130.5784,129.8944,129.3148,128.6709,130.5036,127.7171,127.0182,124.7358,121.831,118.439,114.213,109.8395,104.7433,98.94884,93.41747,87.01006,80.63352,74.2792,67.1226,60.81961,54.21626,47.38107,40.43217,33.43453,25.65036,18.40867,10.00601,2.379657,-4.984431,-12.68243,-20.41764,-27.42662,-34.41642,-41.18909,-47.19978,-53.49437,-58.87395,-63.7031,-69.23754,-73.54363,-79.14737,-83.70289,-87.83416,-92.49156,-95.78787,-99.6312,-102.7544,-104.872,-107.0488,-108.1892,-109.264,-109.7754,-109.4266,-109.2329,-108.4161,-107.9613,-107.0533,-105.8581,-104.5323,-103.1565,-101.0609,-98.42719,-95.83139,-92.37376,-89.37564,-85.54592,-82.38494,-78.40697,-75.11208,-71.12259,-67.95922,-64.63682,-62.20818,-59.71862,-57.53951,-55.27621,-53.05266,-50.37093,-48.38739,-45.99502,-44.23179,-41.54044,-40.38613,-38.01054,-36.439,-35.0417,-34.15049,-33.23921,-32.76652,-32.78423,-32.19226,-31.89602,-31.85955,-31.10746,-30.97755,-29.76425,-29.69374,-28.34583,-27.79153,-27.34665,-26.52196,-26.32337,-26.59056,-26.76415,-27.2391,-27.83311,-28.14924,-28.42785,-27.75393,-27.45645,-26.43615,-26.53883,-25.44253,-24.34163,-23.02334,-23.09612,-22.69719,-23.18202,-23.26739,-24.255,-24.86345,-25.70964,-26.13767,-26.12748,-26.09739,-25.55383,-25.3742,-24.8554,-23.92168,-23.02164,-22.3158,-22.13876,-21.8176,-22.64219,-23.51102,-24.27059,-25.45728,-25.2366,-25.59222,-25.3221,-25.60789,-24.27375,-23.29331,-22.08492,-20.87297,-19.76761,-18.86507,-18.02669,-18.48909,-18.37234,-19.5593,-19.84026,-20.15027,-20.17143,-19.87233,-19.77261,-18.89741,-17.77773,-16.8905,-15.33162,-14.5503,-13.68652,-12.75506,-12.78043,-11.87701,-13.43403,-13.1924,-13.79966,-12.82023,-13.12036,-11.45777,-10.74587,-8.871736,-7.506755,-5.750391,-3.43007,-1.654665,0.6015297,2.306691,4.13533,5.572479,7.168302,8.681597,10.86484,12.91884,15.00357,17.11214,19.39663,22.05483,24.08616,26.30146,28.3219,29.2942,31.04266,31.85126,32.34647,32.20236,32.8132,33.47585,34.51817,35.97915,37.37271,39.29801,41.90197,44.75185,47.44666,49.66825,52.68676,55.34255,57.37314,59.98518,61.65227,63.43346,66.09029,67.47239,69.14925,71.1053,72.82938,74.58517,76.32179,77.86866,78.22583,79.50674,79.78457,79.86032,79.61093,78.04959,77.03453,76.04199,74.96591,74.48436,72.95253,71.8831,70.5845,69.65001,67.91925,65.96269,63.89884,61.92787,59.29818,55.7571,52.54508,48.48338,44.83795,41.34038,38.05286,34.11648,30.85332,27.42489,24.25453,20.67119,17.26114,13.85856,9.582618,5.505466,0.7875049,-3.850985,-8.969721,-14.0604,-18.75603,-23.72952,-28.74216,-33.21879,-37.27201,-41.5535,-45.83897,-50.14603,-54.2165,-58.38619,-62.56851,-66.82504,-71.68252,-75.73714,-80.24081,-83.95422,-88.21397,-91.59827,-94.43937,-96.25157,-98.69684,-99.00729,-101.1723,-101.1044,-101.9686,-100.9886,-100.2082,-100.0183,-98.99547,-97.13875,-96.75211,-93.62767,-92.8564,-90.80387,-89.37041,-87.26604,-85.92465,-84.44625,-83.56337,-82.84749,-82.68025,-82.33854,-82.82773,-83.52591,-84.03555,-84.29936,-84.98207,-85.1081,-84.75104,-84.35522,-83.20321,-81.70762,-79.34233,-76.95205,-74.30614,-71.31453,-67.92428,-64.48184,-61.19025,-57.84787,-54.49419,-50.30385,-47.09261,-42.39032,-39.35957,-35.42087,-31.24425,-26.60807,-22.6555,-17.86491,-12.56376,-8.113251,-4.044812,0.5673593,4.275024,8.930656,12.79405,16.10571,20.21618,24.2216,27.9191,31.96839,35.26596,38.77803,42.88482,46.81546,50.2622,54.31365,56.83621,60.41608,63.3667,65.37194,68.9084,70.51002,73.19442,75.22098,77.31982,79.2966,81.24648,82.83293,84.33774,85.61541,86.78204,87.23364,87.38206,86.80283,86.33501,85.05006,83.97037,81.96142,80.37586,78.17059,76.55221,74.15978,71.68402,68.83929,66.34372,63.16177,59.93176,55.82947,52.01349,47.78026,43.33034,38.75819,34.54703,29.98734,26.68144,22.31072,19.50975,15.58187,12.99147,10.12046,7.63491,5.340144,2.816645,0.9847989,-0.9956595,-3.040489,-4.116067,-5.667424,-7.408211,-7.190263,-9.03925,-9.523195,-10.94653,-11.81733,-12.95576,-14.2271,-15.96819,-17.65283,-19.2689,-21.32579,-23.07485,-24.98715,-26.51348,-27.50364,-28.30552,-29.0908,-29.48547,-29.72083,-29.44646,-29.111,-28.82033,-28.95509,-28.88183,-28.85188,-28.91957,-29.08113,-29.05718,-28.65149,-27.90874,-26.71288,-25.05215,-24.13562,-23.3401,-21.38621,-19.74028,-17.87838,-16.73165,-15.11548,-14.67375,-14.3648,-14.04659,-13.28596,-13.56984,-12.20734,-11.82536,-10.52445,-9.033043,-8.195085,-6.25458,-4.385951,-3.138453,-1.890972,-0.4856351,0.1102723,0.5486032,1.144218,0.4085412,1.345362,0.7563184,1.547408,2.746456,2.788563,4.418322,5.028511,6.769361,7.747666,8.591818,9.051898,9.168195,8.890491,8.96992,7.676366,7.76889,5.960265,6.473096,5.869317,6.914186,6.224915,7.56303,7.929576,8.293504,8.615365,8.289921,8.300936,8.342675,6.825107,6.259638,5.340979,4.191453,3.777008,4.368073,4.494849,5.261306,5.798303,6.939474,7.387092,8.320404,9.206608,9.98535,9.775693,9.776979,9.187245,9.846891,9.358752,9.575367,9.572302,10.20759,10.91533,12.21893,13.25792,14.59127,15.50824,16.77427,17.4649,17.96294,18.40763,18.42204,18.85896,18.71346,19.21103,19.26874,19.50217,20.1144,20.42019,20.48427,20.96333,20.89256,20.70811,20.13574,19.26227,18.22855,17.27017,15.92236,14.55509,13.42441,12.86407,11.84744,10.91818,9.86169,9.192202,8.028655,6.493646,5.461985,3.624585,2.396589,0.5728396,-1.590429,-3.283916,-5.738119,-7.202176,-8.275567,-9.424385,-11.02341,-11.35777,-12.64294,-13.15824,-13.47878,-14.35659,-14.69444,-16.00381,-17.23426,-17.65523,-19.09499,-19.9535,-20.86891,-21.14157,-21.48901,-21.49358,-22.2077,-21.4728,-21.47011,-20.76466,-20.34075,-20.39176,-20.22774,-20.69722,-20.41673,-21.20324,-21.23014,-22.01932,-19.71055,-20.05295,-17.50163,-17.5033,-15.43529,-14.87037,-13.49767,-13.18845,-12.30115,-13.10623,-13.18074,-13.2889,-14.35798,-14.40715,-15.78952,-16.75282,-16.518,-16.84407,-17.01533,-16.63252,-16.28102,-16.62971,-16.74047,-16.76512,-17.09205,-17.31578,-16.43165,-17.12857,-17.04056,-17.39486,-16.87764,-15.43697,-14.79492,-14.16358,-13.15196,-11.55945,-9.699597,-7.860865,-6.545483,-5.055248,-3.059967,-0.9869137,1.4211,3.47371,5.723893,8.57707,11.35746,14.65948,17.12534,20.00453,21.9913,24.98398,27.48711,28.99147,30.72889,32.71431,33.6866,35.49093,36.85119,38.42086,40.1445,42.79423,44.05067,46.28192,47.28539,48.99198,49.56429,50.56328,50.66062,51.15465,51.01993,50.95922,50.82728,50.39847,49.9516,49.9047,49.74214,50.24485,49.54028,49.33441,48.55911,47.52625,46.06648,44.61156,42.30707,41.10472,39.73973,37.8894,36.18623,34.32668,32.46008,31.51088,30.04516,29.21211,27.18178,25.77287,24.04078,21.9584,19.89593,18.00095,16.12148,14.17694,13.35812,11.93438,11.21269,10.20319,10.27415,10.22681,10.54992,10.70443,11.96496,10.5774,11.20157,9.163367,7.974574,6.282564,4.968656,3.344933,1.692793,-0.07132526,-1.360251,-2.674655,-3.672659,-4.498586,-6.562215,-7.585522,-8.977648,-10.84795,-13.19199,-16.05442,-18.84701,-21.72142,-24.36217,-27.2323,-30.40378,-33.62887,-36.27477,-39.95273,-42.04614,-45.92318,-48.93549,-52.09262,-55.58617,-58.45329,-62.24939,-66.00108,-68.73527,-72.34659,-74.97093,-77.86374,-79.94729,-81.82534,-82.99822,-84.60808,-86.10663,-87.17531,-88.18118,-88.32179,-89.68394,-90.32111,-91.24954,-91.74106,-91.90424,-92.61386,-92.09203,-91.97319,-90.72212,-89.25992,-87.12676,-85.4298,-83.58571,-81.26754,-79.64968,-77.11439,-75.73833,-73.67996,-72.44233,-69.62745,-67.85828,-65.57746,-63.73735,-61.02798,-58.48638,-55.44436,-52.51571,-49.63593,-47.12544,-44.66283,-42.90027,-40.93304,-38.83609,-36.76542,-35.11887,-32.48718,-31.12448,-28.95197,-27.64426,-26.56312,-25.77538,-24.80053,-24.47714,-23.7548,-24.13992,-25.76658,-27.35348,-29.53959,-31.66116,-33.5447,-35.80313,-37.94233,-39.686,-41.6224,-42.69703,-44.80515,-45.99581,-48.29217,-49.05346,-51.10634,-52.48839,-55.06297,-56.51415,-58.57501,-59.56504,-60.87063,-61.71869,-62.16227,-61.80831,-61.10254,-59.32181,-57.64922,-55.65333,-52.58255,-49.47302,-46.37812,-43.2638,-39.65213,-36.0945,-31.54834,-26.74553,-22.13489,-16.69106,-11.10749,-5.129036,0.9378741,6.800598,13.2872,19.58693,27.04115,33.6015,39.80554,46.43992,53.48969,59.92433,66.57359,73.11301,79.30148,86.5133,92.18587,99.37022,105.0222,111.2003,116.9289,122.6275,128.0459,132.9022,137.5915,141.8918,146.3159,150.1658,153.617,156.3754,159.5144,161.6897,164.232,166.0893,167.1388,168.6255,169.1189,169.8556,169.6457,168.9408,168.1817,166.963,165.8332,163.9594,161.9023,159.2692,157.7087,154.9025,152.3602,149.5183,146.81,143.9542,141.6249,139.1966,136.3172,133.2763,130.7225,129.5749,127.0921,126.0504,123.3712,121.2728,119.7876,117.5961,115.8701,114.0472,112.2956,111.0692,109.9707,108.0777,105.8805,104.3457,102.7319,101.5344,99.82326,98.42532,97.45675,95.78721,94.54248,92.79702,91.03253,89.53577,88.48183,86.963,84.85667,82.95602,80.30861,78.60292,76.24488,74.27255,71.06981,68.74959,65.55719,62.39105,59.52503,56.18853,52.78114,49.92351,45.82883,42.36003,38.71859,34.39757,30.27932,26.77409,21.86595,17.91217,13.44773,9.092389,4.112342,-0.8295977,-5.906598,-11.19986,-15.9146,-21.29302,-26.29071,-32.16863,-37.25975,-42.97828,-48.1184,-53.19572,-58.49032,-64.17415,-69.01246,-74.32076,-79.54837,-84.99156,-89.57443,-94.67298,-99.6381,-104.45,-109.4903,-114.08,-118.4792,-123.0844,-127.0063,-131.5478,-135.3531,-138.9475,-142.602,-145.8797,-148.5112,-151.7333,-153.7252,-156.1641,-158.2548,-159.903,-161.6556,-163.0506,-163.7822,-165.298,-165.4733,-166.0756,-165.9604,-166.2093,-166.036,-165.755,-164.8456,-163.2539,-163.3301,-162.1431,-161.7121,-160.0465,-158.8966,-157.2293,-156.2641,-154.6847,-152.8168,-150.7079,-148.9628,-146.3411,-144.5126,-142.0657,-139.3995,-136.9422,-134.0397,-131.3727,-128.2851,-124.9037,-121.1112,-117.7276,-114.0377,-109.9065,-106.1276,-102.0219,-97.81139,-93.60646,-89.4404,-85.98932,-81.76705,-77.38108,-72.92605,-68.69991,-63.85544,-59.40156,-54.4806,-49.32986,-44.65186,-39.21793,-34.04388,-30.16275,-25.01414,-21.07038,-16.43831,-11.53321,-6.5943,-2.656964,2.088454,7.216705,11.32927,16.51595,21.35872,25.483,29.65198,34.20336,37.34266,40.87878,43.88358,47.68269,50.75363,53.7331,57.11339,60.54024,63.77423,67.06911,70.39101,73.82117,77.06608,79.92013,83.04493,84.85929,86.98985,88.68484,90.41126,91.90047,93.54267,94.72342,96.90048,97.63638,99.92245,101.6473,103.2731,105.7724,106.3118,107.8424,108.4663,108.5886,108.9643,109.4537,109.7984,110.6159,111.9619,111.9458,113.2407,114.3067,114.8923,116.2027,116.3913,116.6729,117.1114,116.5504,116.5794,115.5119,115.1177,114.9079,114.403,114.4373,113.462,112.9657,111.1102,111.1264,109.4219,108.5053,106.2313,104.4043,101.3991,98.48789,94.65612,91.04196,87.55351,83.67328,79.92026,74.86197,70.85917,66.59431,62.4528,57.44745,52.91924,47.52075,42.12769,35.79156,30.07719,23.04278,17.32927,10.9516,5.62184,-0.8786232,-6.659437,-12.7578,-17.57361,-23.04013,-28.51236,-34.10291,-39.22658,-44.99255,-50.43691,-56.32612,-62.56078,-67.59236,-72.86362,-78.11006,-82.06519,-87.03074,-90.30289,-93.32013,-96.62198,-98.76687,-101.2144,-103.1527,-105.8437,-107.6518,-109.7198,-112.3983,-113.948,-115.2628,-115.4758,-115.9146,-115.3062,-114.2437,-113.0333,-110.8486,-108.7414,-106.5843,-105.6221,-103.6816,-102.8329,-101.2894,-101.5159,-100.9658,-100.9131,-101.0021,-99.71098,-99.7806,-99.39786,-99.23865,-98.35183,-98.05684,-97.08887,-97.7896,-97.29858,-97.8769,-98.63123,-99.09241,-100.8651,-100.5573,-101.0788,-100.2488,-99.03154,-97.37636,-94.87694,-91.81903,-88.50135,-85.87031,-82.28864,-79.63204,-76.79171,-73.61475,-70.96463,-67.92944,-63.29643,-59.33545,-53.46358,-47.9959,-41.6245,-35.03306,-28.90631,-22.03144,-16.03977,-10.27312,-4.958896,-0.1184725,4.166649,8.97897,12.88477,17.08932,21.63953,26.60698,31.63978,36.94176,41.8723,47.34475,51.29389,56.2468,60.55684,63.93845,67.17004,69.58291,72.28776,74.63828,76.73858,79.07311,81.95895,84.98712,87.76645,90.42302,92.94444,94.58331,96.39369,96.61677,97.03986,95.57753,94.51548,92.32963,89.93433,87.1595,84.56652,82.55256,80.00173,77.59558,75.02893,72.09486,69.48286,65.61041,61.99065,57.94694,53.50099,48.71177,43.37712,38.67234,33.23335,29.50621,26.38627,23.03599,21.07458,18.90722,18.10096,16.18283,15.54985,14.41621,13.23277,11.88843,9.944414,8.789386,6.923228,6.236276,5.254228,5.39907,5.126,5.603164,5.582654,5.969848,6.830669,6.262104,6.390882,5.63382,5.330538,3.529341,2.309401,-0.03417769,-1.001719,-2.728493,-3.719265,-3.88429,-5.223015,-4.7067,-4.948421,-4.16409,-3.916751,-3.170761,-2.695371,-2.352428,-1.733482,-1.611778,-1.276412,-0.5893345,-0.04571485,1.718427,3.264085,5.177291,7.818745,9.427544,12.43541,14.21062,16.34429,17.83309,19.05816,20.12421,21.15963,20.9969,22.02454,22.0718,23.05174,23.72752,24.18151,25.25089,25.79433,26.45776,26.6397,26.57779,26.32155,26.02888,25.37315,25.46959,23.72144,22.92988,22.1261,21.69914,21.48903,20.75445,20.14352,19.80877,19.73454,19.10231,18.03924,16.85393,15.59661,14.24128,12.08493,10.35408,8.21477,6.039911,4.383854,2.771943,1.232729,-0.240602,-1.549975,-3.007915,-4.827576,-6.54595,-8.271081,-10.60121,-13.10618,-15.71659,-18.38714,-21.01615,-23.83609,-26.76109,-28.56443,-30.38271,-32.53465,-33.85663,-35.53895,-37.43936,-38.76019,-41.14164,-43.00312,-45.28205,-47.61161,-49.93771,-52.09915,-54.32567,-55.8208,-57.04838,-58.39486,-59.12689,-60.34495,-59.63911,-59.76492,-59.48739,-58.80385,-58.50853,-58.31099,-58.01929,-58.52995,-59.30461,-60.3808,-62.33018,-63.99998,-65.95265,-67.95898,-70.37251,-72.48982,-74.37917,-76.89186,-78.31703,-80.27205,-82.37392,-83.75473,-84.80013,-86.01498,-87.04097,-87.36662,-88.16824,-88.12791,-87.90067,-87.8703,-86.8712,-86.49949,-84.61254,-83.40812,-81.11074,-78.93998,-76.04279,-73.24111,-69.70656,-66.55925,-62.52996,-58.72753,-54.33052,-49.6004,-45.49117,-39.9219,-35.20248,-29.78494,-24.28131,-18.79158,-13.04405,-7.359715,-1.190975,4.606678,10.7337,16.61255,23.26324,28.95743,35.69494,41.57597,47.94031,53.46675,60.0355,65.59804,72.01676,77.12942,83.00925,88.45171,93.26653,98.05523,101.6208,104.6364,108.0264,110.2021,113.2038,116.1928,119.9211,122.8437,126.4673,129.6976,132.4964,135.7873,138.848,141.6261,144.1491,146.2041,148.175,149.44,150.5901,151.13,151.4395,151.6148,151.3848,149.7879,148.9559,146.9214,144.6222,142.2567,138.9471,136.1211,132.072,128.4137,124.6871,120.2212,115.9161,111.6513,107.6808,103.2401,100.0534,95.96366,93.15426,88.89316,85.52968,81.752,77.4311,71.77451,67.42064,61.85144,55.99806,50.16067,44.35997,38.5523,32.70393,27.01811,21.12496,14.97682,9.282981,3.71841,-1.758425,-6.913483,-12.39201,-16.85047,-21.8021,-26.25786,-30.91775,-34.72885,-39.4914,-42.42132,-46.1635,-49.29471,-52.07467,-54.3187,-56.15186,-57.75516,-58.57784,-59.63148,-59.93365,-60.12637,-60.60107,-60.62613,-59.80432,-59.74334,-57.57005,-56.85287,-54.20705,-51.75832,-49.14588,-45.76351,-42.34154,-39.23673,-35.68477,-32.51509,-29.25634,-26.2221,-22.79588,-20.08449,-16.47273,-13.74969,-9.980353,-7.032088,-3.612703,-0.7251217,2.645439,4.90944,8.670046,8.74416,11.23809,10.49057,9.782301,9.08498,7.219575,6.14706,5.879719,5.575557,6.120428,7.271526,7.169195,8.491938,8.877228,9.796915,10.12265,10.55963,10.92243,10.41612,9.625562,9.275371,8.617866,7.911899,7.681926,7.526203,7.212756,7.388085,6.85457,6.971494,7.449842,6.794168,6.214987,5.488318,4.068507,2.675406,1.436147,-0.174125,-1.343111,-2.54533,-2.305119,-3.394666,-3.239588,-3.809586,-3.575784,-4.182486,-4.772324,-5.804821,-6.238966,-7.622886,-9.361462,-11.4616,-11.37382,-13.76212,-14.7373,-14.27726,-16.81691,-16.18031,-18.24418,-19.60795,-20.01426,-21.43938,-23.85647,-25.18864,-28.5319,-28.91242,-32.16252,-34.19553,-36.07182,-37.57369,-39.65335,-40.41241,-42.77148,-42.94898,-44.32182,-45.63184,-46.37286,-48.03796,-49.54661,-51.05944,-53.34988,-55.74131,-58.28476,-60.37083,-63.38747,-64.55195,-66.61373,-68.16725,-69.20248,-70.85088,-71.233,-72.85618,-73.9539,-75.5974,-77.48127,-79.3441,-81.16989,-83.4755,-76.24164,-81.93095,-80.70157,-82.90062,-84.20176,-86.57828,-88.58875,-91.50844,-94.3028,-97.45929,-101.0722,-111.159,-116.6502,-120.9415,-126.4244,-130.8732,-134.0577,-136.1668,-137.9149,-138.4969,-138.2739,-138.1901,-136.8839,-135.3364,-134.3042,-131.5927,-130.2749,-127.572,-125.482,-123.4772,-120.9741,-118.6454,-115.3676,-111.5527,-108.1026,-104.426,-100.1895,-96.17847,-91.39018,-85.84793,-81.45007,-63.61152,-67.31758,-57.29015,-56.46233,-52.63785,-51.53526,-50.70571,-50.3665,-50.42528,-51.55562,-60.04122,-60.86757,-64.21411,-66.75322,-69.47392,-71.87833,-73.42061,-75.34273,-76.02405,-76.61756,-76.80512,-76.55302,-74.50226,-73.02044,-71.07574,-67.90768,-65.13988,-62.91652,-57.6417,-56.46191,-52.09493,-47.72818,-44.55481,-40.50327,-35.40718,-30.9006,-23.97834,-19.55495,-12.01383,-4.747884,1.658708,9.44707,17.28613,24.83382,33.02214,40.25276,47.40353,56.02787,62.87142,71.15132,78.13904,86.05298,94.32797,102.8134,111.4113,119.1503,128.373,136.9608,145.8053,154.4765,162.7713,171.4502,180.298,189.3302,197.643,206.4671,215.4376,225.0104,234.2276,243.6748,241.1002,249.0701,250.2363,252.3149,253.0248,252.1416,250.16,247.185,242.9052,236.5088,228.805,227.8238,223.1603,215.9102,211.8025,205.0308,199.1386,193.0708,186.9514,180.859,174.5207,167.7286,161.1801,154.8611,149.1064,142.6458,136.72,131.4677,126.1149,122.5932,118.319,115.6746,113.1622,111.7909,111.4092,111.9101,114.1164,117.4884,121.0749,125.4667,130.3011,119.6804,127.9164,121.7476,121.8039,118.2756,114.2615,110.1904,105.1037,98.22301,91.81803,92.9212,87.87386,83.9648,80.07446,76.14359,72.37596,67.84034,63.78288,59.09092,54.66771,49.40207,44.88176,39.23448,34.48864,28.5055,23.23892,17.68184,12.00334,6.086095,0.3591867,-5.278205,-11.19913,-16.97113,-23.30932,-28.49437,-34.71322,-39.96648,-45.55352,-51.15584,-56.96033,-61.61969,-66.94047,-71.44374,-77.04011,-80.83022,-85.89323,-88.73736,-93.62542,-96.81619,-100.6641,-103.348,-106.6683,-109.3726,-107.8286,-105.1763,-109.3171,-108.3367,-110.3215,-111.7547,-113.4633,-115.367,-117.0506,-118.6048,-120.9922,-122.2426,-123.9912,-125.3758,-135.0227,-134.8123,-137.4272,-138.2689,-138.4823,-137.8098,-136.7927,-135.3229,-132.8736,-130.0889,-126.7012,-122.933,-119.4538,-114.7816,-109.8918,-104.2597,-98.43701,-93.19985,-86.36895,-79.74281,-72.27021,-66.56441,-60.81504,-55.22924,-48.45981,-41.96139,-35.73829,-31.20021,-25.11248,-19.62866,-14.33159,-9.375706,-5.877417,-1.176643,2.816207,6.890681,11.15866,13.24035,16.70006,19.38933,21.73406,24.74257,25.65781,27.77932,29.18355,30.58819,31.77557,31.81512,31.65284,32.43953,33.16164,32.08477,31.06584,29.26458,27.93156,26.3304,23.81042,21.90212,18.46472,16.14488,13.41473,10.1225,6.301801,2.468766,-1.016253,-4.194564,-8.267578,-12.50222,-16.97429,-21.20491,-25.14157,-29.47879,-33.9934,-38.60815,-42.88572,-46.52022,-50.42801,-54.03581,-58.26998,-60.51783,-63.82122,-66.2953,-68.78742,-71.10684,-72.46463,-73.15977,-73.35969,-73.42064,-73.87958,-72.4809,-71.71671,-69.11586,-66.6514,-63.96057,-59.89437,-54.016,-48.17407,-46.92214,-48.43827,-42.89188,-42.48109,-40.09493,-39.06881,-38.84806,-37.90386,-37.95707,-38.42628,-39.97656,-42.5924,-45.36331,-48.81237,-42.63265,-44.71709,-44.18613,-43.88097,-43.1451,-42.38238,-41.35065,-40.93091,-39.80055,-38.56839,-37.4025,-36.4775,-35.21537,-33.94846,-32.63259,-30.8985,-29.03117,-26.78383,-25.3866,-22.83891,-21.22798,-19.53677,-17.46552,-16.61475,-14.98492,-14.36028,-14.06642,-13.60391,-13.91009,-13.84866,-14.3685,-14.6439,-14.75648,-15.61793,-15.75552,-16.40134,-16.97231,-17.05052,-17.2257,-17.26447,-17.21496,-17.5089,-17.57093,-18.19221,-17.46589,-17.85619,-17.33616,-17.31963,-16.505,-16.32044,-16.53213,-15.45507,-15.60748,-14.89164,-14.23587,-12.75701,-10.91764,-9.831603,-7.538555,-5.856512,-2.686649,0.4326597,3.703921,7.567987,11.36457,15.63911,20.60095,24.72949,29.71282,35.06766,40.49884,46.32501,51.53204,57.5141,63.26121,69.30789,75.14137,80.82548,86.16145,91.35185,96.71088,101.8675,106.6242,111.0346,115.3514,119.3806,122.5168,125.6581,128.1564,131.213,133.6389,135.4044,136.363,137.736,137.8481,138.3495,137.568,137.0203,135.5265,134.5734,132.7865,130.6729,127.9975,124.9392,121.7519,118.4874,113.8453,109.7601,104.3787,99.16828,93.41723,87.51807,82.46415,75.69334,70.47134,64.79471,59.97326,54.48733,49.71435,44.8165,41.28243,36.8703,33.23525,29.42689,26.18978,23.68911,20.87335,17.84269,15.07391,12.17932,10.23139,7.218613,5.242024,2.187727,0.3089413,-1.697587,-3.844102,-6.296921,-8.288405,-10.90794,-12.71731,-14.90817,-17.06563,-19.15707,-20.69822,-22.28555,-22.83396,-24.33924,-25.06862,-26.1766,-26.77184,-27.10057,-27.84766,-29.06751,-29.62915,-31.85078,-32.30098,-34.96964,-36.5707,-38.79941,-40.9025,-42.99178,-44.77419,-46.43262,-47.78052,-48.19163,-49.73632,-50.58712,-51.51285,-52.42987,-52.80651,-53.93469,-54.76969,-55.11235,-55.91301,-55.36329,-55.65418,-55.76724,-54.47686,-53.25497,-51.75414,-49.67322,-48.72019,-46.44391,-45.15473,-43.03976,-41.56403,-40.64157,-39.24245,-38.0677,-36.7773,-35.35976,-33.85393,-32.44109,-30.33058,-28.12313,-25.86865,-23.50472,-21.30083,-18.71314,-17.36174,-15.49356,-14.43689,-13.19621,-12.13778,-10.5723,-9.847775,-8.216444,-7.018559,-5.747307,-4.521956,-3.410666,-2.145973,-1.869674,-0.9453438,-1.116593,-1.546928,-2.135076,-3.173243,-3.691499,-4.00703,-4.131234,-3.939412,-5.105344,-4.305488,-4.624651,-3.843843,-3.780893,-3.927184,-3.826062,-3.701523,-5.033696,-5.360278,-7.285137,-8.048874,-8.818896,-9.580701,-9.591806,-10.10141,-10.05948,-9.381161,-9.724493,-8.769768,-9.276332,-8.912773,-9.458675,-10.4715,-11.78916,-13.04677,-15.00386,-15.50766,-17.79185,-17.77107,-19.06362,-19.14871,-19.61424,-19.60247,-19.59733,-19.64547,-19.77524,-20.07598,-20.42381,-21.01561,-22.61758,-23.70568,-25.11686,-26.03769,-27.33654,-27.72685,-28.11941,-28.51797,-27.71185,-27.44554,-27.21497,-26.39835,-25.80529,-25.11922,-24.08032,-23.66284,-23.47986,-22.41182,-21.84028,-20.21124,-18.81612,-17.51889,-15.53745,-13.76822,-11.18193,-8.784191,-6.909275,-4.897649,-2.88099,-1.112993,0.8787977,1.947852,3.398033,5.453463,6.816498,9.018438,9.933904,12.35175,13.9047,16.17308,18.01437,19.75246,21.61772,23.29022,24.41571,24.70618,25.64261,25.52153,26.63116,27.12013,27.69714,27.97305,28.28841,28.82756,29.37273,30.14817,30.6786,31.54027,32.76724,34.30103,34.86022,36.24457,37.35201,38.5545,40.49505,41.98024,43.7464,45.33698,46.79527,48.03055,49.50944,50.39503,51.15657,52.0163,52.26841,51.68319,52.01804,50.80292,50.19593,49.36559,48.73451,47.97973,47.32579,46.75859,46.19439,44.9928,43.55563,42.17926,40.35789,38.77208,36.61001,33.72234,31.17021,28.14428,25.25949,22.58398,19.73553,17.08214,14.0551,12.37053,9.136656,6.970483,3.367653,1.005833,-2.083642,-4.884482,-8.919848,-11.97285,-15.46486,-18.83508,-22.65667,-26.18108,-29.26324,-32.48963,-34.76521,-37.19445,-39.99378,-42.27207,-44.32784,-46.30638,-47.39026,-49.09909,-50.95059,-51.20565,-51.85006,-52.46304,-53.33054,-53.04524,-53.55008,-52.50339,-52.98012,-52.68145,-52.99951,-52.75845,-52.52791,-52.33812,-51.82528,-51.37528,-50.77823,-49.19518,-48.67691,-46.84887,-45.7885,-43.40424,-42.35476,-40.43917,-39.23099,-37.8689,-36.48243,-35.11687,-34.0125,-33.03716,-31.77339,-31.03246,-30.04229,-29.21508,-27.671,-27.47113,-26.23515,-25.94726,-25.81228,-26.17676,-25.49823,-26.19425,-25.03699,-24.72298,-24.20297,-23.08836,-21.62309,-19.89424,-18.27448,-16.15516,-14.12741,-12.02087,-9.787679,-7.792371,-5.975669,-4.326445,-3.162664,-1.394788,1.160827,2.004743,4.600904,6.19778,8.778582,10.74882,14.07351,15.45048,18.60832,19.76358,23.07875,23.67894,26.35207,26.71242,28.14174,28.57727,29.84066,30.80746,31.40147,33.2714,34.01863,34.78037,35.87385,36.31288,36.93236,37.21021,37.23239,36.75872,36.09982,35.61355,34.1978,33.41734,31.98814,31.1905,30.20799,29.41669,28.31546,27.96145,26.64869,25.94523,24.83328,23.57585,22.17772,20.22323,18.70221,16.68206,15.09183,12.9246,11.92587,10.52787,9.97516,8.547548,8.204587,7.861494,7.561595,6.808938,6.048913,5.305505,3.621743,2.646961,1.007018,-0.1980342,-2.02397,-2.452752,-3.388,-3.204203,-3.377828,-3.374964,-2.837958,-2.149618,-1.70056,-0.7588539,-1.097045,-0.4655181,-1.417812,-1.108745,-1.08161,-1.312939,-1.184645,-0.9889663,0.2110316,1.565882,2.456783,3.783094,4.504203,5.833375,6.900085,7.127472,7.387636,7.310752,6.565917,6.57652,5.935446,5.610913,5.534064,5.62632,5.952995,6.510615,7.191816,7.561184,8.293647,7.99998,8.217227,7.474181,6.518781,5.431189,4.358935,3.879352,2.102074,2.703305,1.818458,2.197094,2.441281,2.215719,2.84045,2.562438,3.006385,1.955858,1.647149,-0.2902851,-0.9918986,-3.94065,-4.642967,-7.237658,-7.878082,-9.040183,-9.69924,-10.08435,-10.65398,-10.63458,-11.17058,-11.02545,-11.97206,-12.61392,-14.49571,-15.26344,-16.92862,-18.10198,-19.67333,-20.50412,-20.70265,-21.10632,-20.23574,-20.6525,-19.30879,-19.41382,-17.4451,-17.72797,-17.07861,-17.76687,-17.94666,-19.17841,-19.44568,-20.30559,-20.53417,-20.93932,-20.97741,-20.0664,-19.73696,-19.46672,-18.47586,-18.30112,-17.62874,-17.2254,-17.31017,-17.97894,-18.15498,-19.10714,-19.33328,-19.33579,-19.12843,-19.00643,-18.39308,-16.63361,-15.86295,-13.7073,-12.88399,-11.09411,-10.2152,-8.344478,-7.753576,-6.64389,-5.793456,-4.625386,-4.090099,-1.815931,-0.4188072,0.9032365,2.851879,4.447581,6.657229,7.961787,9.28971,10.52479,11.14272,12.37975,12.67593,12.78564,13.18895,12.83502,13.17271,13.81246,13.5556,14.69663,14.43887,15.60102,15.82721,16.65989,16.41064,16.29325,16.12668,15.18362,15.31313,14.08316,13.36264,13.32537,12.93771,13.13159,12.75737,13.29828,12.71685,13.20177,12.58652,13.04464,12.33807,11.82522,11.38339,10.36904,9.459951,8.224387,7.633505,6.509492,6.820012,5.657563,5.946895,4.994307,5.199777,4.944005,4.56841,4.546673,3.794873,3.233594,2.954424,2.01497,2.026027,1.639085,1.678422,2.33505,2.476062,3.431308,4.45923,5.278964,7.238523,7.580191,9.933531,10.20909,12.38428,11.70496,13.09837,12.71653,13.29018,13.59157,14.6411,14.78762,15.65912,15.6369,16.75231,17.20163,17.27739,17.62695,17.70168,17.7211,17.67205,18.20202,17.1475,17.48773,17.32562,17.16475,18.15152,17.57425,18.27469,18.03874,18.98483,19.39786,19.3243,19.86,20.00792,21.01832,21.7717,22.73538,23.3762,25.05269,26.55011,28.39746,29.83402,31.81943,33.38881,34.74183,36.7123,37.58037,39.64289,40.83525,42.74379,44.28241,46.05114,48.04823,49.64946,51.25614,53.21661,54.59881,56.2282,57.30559,58.53178,59.33767,59.36542,59.8412,59.74655,60.04878,59.491,60.18465,59.38442,59.1132,58.92403,58.23611,57.73439,56.47432,54.39598,52.4673,49.79517,46.43075,43.17958,39.3511,35.53423,31.95572,27.32547,23.40794,19.18703,14.81604,11.35915,6.356797,2.346568,-2.906116,-7.498376,-12.86071,-17.90563,-23.91526,-28.91021,-34.80085,-39.19192,-44.77191,-49.09139,-53.27505,-56.52516,-60.16102,-62.65461,-66.16446,-68.58313,-71.13863,-73.77391,-76.34499,-79.95795,-82.27469,-84.72724,-86.65994,-88.73172,-90.73629,-92.57229,-93.96738,-94.68264,-95.40203,-95.95818,-96.55247,-96.30636,-96.60348,-96.38753,-97.34441,-97.05651,-96.99337,-96.49283,-95.89684,-94.84837,-93.53264,-91.77877,-89.49496,-87.50664,-84.54109,-82.37173,-80.15306,-77.60625,-75.94305,-73.99356,-73.26892,-70.94315,-70.13962,-67.58958,-65.55546,-63.48213,-60.57011,-58.12298,-54.88899,-51.82343,-48.05085,-45.20351,-42.44794,-40.45358,-37.99565,-36.85321,-35.45553,-33.54585,-32.17684,-29.91003,-27.70866,-25.44197,-22.67399,-20.0072,-16.99299,-14.69493,-12.09723,-9.755219,-7.813331,-6.290932,-5.652038,-4.402527,-3.715573,-2.195211,-0.3097938,1.281043,3.899999,5.993922,9.132308,11.29382,13.69581,15.99025,17.90412,19.07224,19.08217,19.44971,19.276,19.48289,19.20844,19.32469,19.32221,19.92707,20.8762,21.2878,21.7654,22.43433,22.51154,21.88218,20.71777,19.80879,18.45977,17.10562,16.75084,15.8822,16.74507,16.8302,19.03152,20.7049,23.1757,26.83605,29.29535,33.00859,35.72508,38.90647,41.79532,43.94861,46.0505,48.32269,49.57497,51.65694,54.20824,56.45182,58.51099,60.64327,62.69847,64.90801,66.86434,68.7916,70.28119,71.31901,71.54231,72.63941,71.99013,72.07894,71.51349,71.31547,70.89552,70.3139,70.24368,68.80872,68.84551,67.07011,66.65124,64.90349,63.75777,61.1178,58.81206,56.15717,53.43741,50.17698,47.38497,44.5411,41.35379,39.56774,36.73563,33.86469,31.63458,27.47995,26.7667,21.29137,20.43657,14.77772,11.12657,8.991367,3.836384,1.293204,-3.048349,-4.801658,-8.138175,-9.179058,-12.12491,-14.16411,-16.32633,-17.68916,-20.01045,-21.8814,-24.36965,-26.38721,-28.79388,-29.29108,-31.65567,-30.76932,-31.67491,-30.04743,-30.27427,-29.30397,-29.6592,-28.84688,-29.89863,-29.8499,-31.91439,-32.8617,-35.31696,-37.16705,-39.51744,-41.71609,-43.63902,-45.89632,-47.24942,-49.03675,-50.78682,-52.68101,-54.85423,-57.06607,-59.08064,-61.29144,-64.41922,-66.33492,-68.97834,-69.82802,-71.37111,-72.83559,-74.07459,-73.74095,-74.08748,-73.81945,-73.17789,-72.48418,-70.717,-68.75986,-67.14533,-64.52118,-62.13266,-59.16871,-56.35021,-53.60141,-50.32543,-47.11089,-44.7871,-40.99852,-37.96898,-34.30937,-31.18313,-26.6067,-22.68932,-18.22488,-13.94217,-10.06439,-5.381035,-1.632838,2.491655,6.156721,9.20981,12.19559,15.58264,17.83111,20.48392,23.13257,24.84118,27.638,30.23565,32.00338,34.69479,36.32218,38.59484,39.43253,40.36879,40.46726,40.27398,39.8239,38.69364,38.10334,36.76452,35.99768,34.85769,33.54084,32.5119,30.90439,30.64103,27.85993,27.68054,24.36125,22.57899,20.59289,16.02676,14.8576,10.22641,8.970506,5.349213,4.379959,1.130451,0.5303543,-1.655736,-1.580799,-2.69775,-2.527869,-3.063009,-3.145563,-2.859698,-1.609421,-1.843977,-0.341147,-0.6464142,1.162314,1.013586,2.89709,2.872943,4.982343,5.215403,7.070247,7.41288,8.565261,8.972618,9.837316,9.683944,10.61078,10.71436,11.18644,12.45947,13.15013,14.562,15.72554,16.7183,19.07298,20.11776,22.11541,22.89303,23.97654,23.25347,24.65465,23.06459,23.43673,22.56174,23.85813,23.16272,24.88054,25.82539,26.95155,28.82615,30.48796,32.36847,33.75125,35.07177,35.30033,36.3371,36.14862,36.25686,36.15667,35.91696,36.92236,37.43374,38.70774,39.75933,41.40232,43.28907,44.46466,46.65305,46.51538,48.31855,47.69545,48.47133,47.73334,47.94423,47.44138,48.03948,48.18481,49.24954,50.23786,50.82542,52.95748,53.79478,55.83879,56.06617,56.71292,55.9774,55.35769,53.99053,52.56392,51.68094,50.80138,50.26868,51.57639,51.40857,53.21215,54.79868,56.43099,58.11407,59.73476,60.57191,61.50463,61.53681,62.24337,61.42594,61.79709,61.55773,62.23614,62.44693,63.07257,63.76939,64.93924,65.49331,66.5487,66.72326,67.63299,66.15404,65.51975,63.62824,61.30984,59.86795,57.59434,56.20326,54.04212,52.60172,51.49223,49.7209,48.56715,47.36984,45.30151,42.95614,39.69166,36.75043,32.59857,28.26307,23.47597,18.8991,15.31804,10.97774,7.266879,3.276227,0.0847143,-4.403002,-6.916935,-11.8031,-14.10505,-19.7134,-23.33156,-29.64525,-34.80397,-40.58206,-45.23917,-50.52475,-54.54141,-58.63958,-61.90278,-65.63891,-67.688,-70.88418,-72.81361,-75.14415,-77.3414,-80.5003,-83.55653,-86.69685,-90.14225,-93.27904,-96.01065,-98.08293,-99.40505,-101.3183,-101.7581,-102.5907,-102.0823,-101.8344,-101.5479,-101.352,-101.8671,-101.8488,-102.9464,-103.1658,-104.0545,-104.2548,-104.6174,-103.8589,-103.631,-102.679,-100.8203,-99.77777,-97.95928,-97.10571,-95.82455,-95.63096,-94.99585,-96.14598,-97.43032,-98.82327,-100.1672,-100.5456,-101.8131,-101.3127,-101.9764,-101.0409,-99.81638,-100.456,-98.95846,-99.64667,-99.28168,-100.2857,-100.0101,-102.7622,-102.7833,-104.4066,-105.2816,-106.0519,-105.9633,-105.5372,-103.8636,-102.7476,-100.2301,-97.73482,-95.08801,-92.31003,-89.21104,-86.55616,-83.39836,-81.39827,-77.72712,-74.35421,-70.58906,-65.8458,-61.63243,-55.8041,-50.18252,-43.5341,-37.07866,-30.95996,-24.57704,-18.52002,-13.08674,-7.771616,-2.75437,1.823816,7.183826,11.85483,17.18096,22.15014,27.7255,33.34292,38.19968,44.33248,49.37685,54.30423,59.43961,61.78665,65.89784,66.70983,69.10742,70.23884,72.42035,73.93654,75.28322,76.89104,78.41353,79.95191,81.58351,81.97934,83.28822,83.76601,83.84587,82.48604,80.94098,77.79641,76.79629,73.56021,71.91456,68.90701,67.18262,64.78281,62.57888,60.13078,57.397,56.19289,53.05934,51.35208,47.74091,44.59284,41.31995,37.75559,34.87943,31.58011,29.12504,26.34482,24.72239,23.17986,21.52265,20.33344,19.74044,18.77092,18.56804,17.63768,17.32918,16.59553,16.82418,16.38599,16.61681,17.40338,18.09776,19.19308,20.36446,22.07946,22.69064,24.09214,25.07501,25.46675,26.85364,26.66667,27.03019,26.87305,26.97314,26.50009,27.44504,26.70963,27.78053,28.19953,29.39547,29.65566,30.05134,30.59752,31.18581,31.16379,31.74876,31.13138,31.47608,31.06789,31.3427,30.49779,30.82472,31.09951,30.92009,31.94183,31.49169,32.32578,32.47754,32.37599,32.39195,31.43383,30.67498,29.55949,28.52878,27.19795,25.96223,24.72326,23.73065,22.37768,21.08374,19.95475,18.33979,17.41309,15.23807,14.20483,11.1061,9.070857,5.269959,3.214163,0.07804203,-2.865048,-5.053302,-7.801351,-9.843565,-12.34973,-14.52513,-16.7814,-18.53332,-20.96605,-22.22509,-25.64031,-27.06797,-29.82682,-32.30559,-34.79054,-37.44581,-39.00098,-40.24459,-42.02989,-42.45978,-43.82107,-43.3891,-44.44985,-44.18649,-44.16751,-44.23231,-43.62416,-44.87558,-43.56654,-44.36926,-43.75301,-43.67722,-42.79669,-42.18071,-41.58398,-40.37086,-40.02288,-38.18044,-37.43854,-35.15002,-34.09468,-31.88169,-30.12224,-28.21167,-25.99766,-23.75485,-21.68722,-19.20355,-16.88497,-14.28692,-12.02948,-9.628974,-7.207461,-3.90767,-2.378623,1.147812,2.923571,5.774572,7.457355,10.52984,12.46528,14.14925,16.1204,18.28173,20.22323,21.51822,22.83841,24.38959,24.90439,26.58992,26.45412,27.86742,28.67407,28.70252,29.82994,29.67755,29.77426,29.50066,29.66934,29.71232,29.31389,29.04856,28.56205,27.71339,27.46202,26.62503,26.16723,25.59502,24.80802,24.28322,23.11634,21.89674,20.98491,20.13596,19.17064,17.79937,16.93161,14.97097,14.07394,12.7205,11.02679,9.804837,8.246217,6.689957,5.354139,3.519237,2.570182,0.723174,-0.204234,-2.408937,-3.305253,-5.090251,-7.204913,-8.696838,-10.64126,-12.09143,-14.46221,-15.5145,-18.24965,-19.24341,-21.01672,-22.83718,-24.47506,-26.09611,-28.16468,-28.94689,-30.2871,-31.15541,-32.3139,-33.74424,-33.77648,-35.12762,-35.92522,-36.3455,-36.45442,-36.42539,-37.3499,-37.68345,-38.17919,-39.68927,-40.13064,-42.02041,-42.90786,-45.64376,-47.09432,-48.6085,-50.50679,-52.40509,-54.809,-55.94932,-57.89517,-58.75608,-60.23773,-60.55689,-60.98336,-61.20375,-61.28763,-60.89117,-60.16111,-59.35423,-57.41649,-55.95054,-53.8464,-51.95325,-50.17503,-46.9063,-45.16096,-41.65558,-38.87681,-34.58913,-31.37319,-27.47666,-23.4863,-18.96865,-15.7713,-11.13373,-7.057887,-2.099099,1.861573,6.842653,10.90977,15.86616,20.12229,23.97583,29.01001,32.7547,37.8246,41.34706,46.18601,49.06587,53.23891,56.7243,59.65934,62.6503,65.94787,68.67969,71.57041,73.90469,76.50522,78.22295,80.52739,82.42585,84.09215,85.57241,86.42282,87.37027,87.82844,87.66882,88.02255,87.68701,86.46191,86.62948,85.38938,84.58592,83.49592,82.2614,81.01898,78.99299,77.16678,74.60892,72.51638,69.42048,66.25496,64.10402,61.04125,58.67095,55.15281,54.15593,50.4996,50.22578,48.17151,47.32377,45.98626,45.57844,44.74121,44.77895,43.99008,43.75373,43.29774,44.02334,44.85205,45.53916,47.40741,48.04073,49.9969,50.50074,51.99126,52.38762,52.745,52.34697,52.54902,51.6669,50.28023,48.08669,46.78647,44.2952,42.66196,39.70319,38.25339,36.26763,34.31274,32.56221,30.93716,28.78542,26.8744,24.15655,22.24175,18.81553,15.9173,12.36825,9.670046,5.540474,2.564811,-0.9872505,-3.38522,-6.08375,-8.110434,-10.44084,-12.48791,-14.93264,-15.71674,-18.92451,-19.98192,-23.87525,-25.71445,-28.5724,-30.38901,-32.33957,-35.31832,-35.98523,-37.81279,-38.25108,-39.27474,-39.73725,-39.93846,-39.99351,-39.76812,-40.29674,-40.28788,-41.01243,-41.20637,-42.21338,-42.7928,-42.75385,-42.42178,-42.00265,-40.60636,-39.88583,-37.6799,-37.02718,-34.77014,-33.29273,-31.92726,-30.38859,-29.83154,-28.73275,-28.96368,-27.85141,-28.38873,-27.98301,-28.0447,-27.14399,-26.5633,-26.81465,-25.82667,-26.56567,-26.58672,-26.81303,-27.70795,-28.75392,-29.95626,-31.53034,-33.27781,-34.42001,-36.86785,-37.80564,-39.29943,-38.63249,-40.02106,-38.88062,-39.4553,-38.63444,-38.66763,-37.69135,-38.65715,-38.03915,-38.79011,-38.25578,-38.70246,-38.51578,-39.1761,-38.44084,-38.38715,-37.57089,-37.19103,-36.10757,-35.24518,-34.72153,-34.04042,-33.9423,-34.06233,-33.89153,-34.86016,-34.44236,-35.67874,-35.70951,-35.82213,-35.77296,-35.63538,-35.8968,-35.88904,-35.43739,-35.23846,-34.90549,-35.19249,-35.9496,-36.79095,-38.19704,-38.7153,-40.35525,-41.55886,-42.47478,-43.09924,-43.48782,-43.83757,-44.56784,-44.55093,-44.77243,-44.61845,-44.94067,-45.09,-47.28175,-47.07221,-50.08166,-50.09913,-53.54931,-53.76358,-56.17661,-57.34426,-57.43953,-59.53731,-59.35271,-60.56996,-60.69963,-61.25789,-61.53992,-62.39607,-63.3936,-64.29442,-65.41779,-66.29805,-66.95693,-67.07685,-67.31024,-66.87938,-67.01672,-65.25104,-65.96392,-63.81773,-64.84246,-63.01187,-63.74877,-62.66836,-63.58044,-64.00386,-65.26777,-66.74294,-67.25864,-69.84684,-70.10743,-72.31903,-73.30218,-74.74096,-76.62444,-78.17785,-80.7826,-82.39564,-84.27693,-86.23394,-88.92276,-90.45944,-92.92999,-94.2204,-95.0555,-95.14998,-95.41708,-94.24881,-93.37764,-91.40033,-89.23143,-87.03406,-83.88303,-81.19319,-77.46149,-74.37491,-70.13057,-66.30937,-61.54759,-56.99498,-51.23181,-45.54943,-38.13945,-31.60625,-24.08601,-16.71913,-8.889821,-1.346112,7.119927,15.2884,23.24366,31.3227,39.48991,47.26452,55.78513,63.65667,73.09406,81.59253,90.8561,99.32012,108.6498,116.7604,126.0346,133.9147,142.6578,149.4685,157,163.1252,170.0247,175.6753,181.1294,186.4548,192.0496,197.2436,202.4265,206.9957,211.4536,215.4331,219.1081,221.9333,223.7244,225.1985,225.7335,225.9549,225.2851,224.4177,222.4513,220.9837,218.8771,216.8769,214.8881,211.3854,209.5004,205.9882,203.4125,200.5969,197.1116,194.4726,191.6499,189.9779,187.8012,186.3727,184.6466,184.4209,183.7412,184.4267,184.3782,185.7863,185.4233,187.7455,187.1112,189.0726,187.6553,188.6811,187.2741,187.0028,185.3304,183.5212,181.3807,178.6157,176.2109,172.3257,168.8572,164.2063,159.6748,154.0687,148.7057,142.6299,136.1643,129.5037,121.7013,114.8848,106.3766,98.83057,90.53139,82.09059,72.9302,64.21956,54.01298,45.55138,35.09588,25.73992,15.25808,5.551658,-4.218882,-13.97054,-23.6922,-33.47333,-43.30113,-52.29632,-61.73079,-70.19237,-79.63857,-88.96529,-97.32532,-105.8306,-113.9369,-121.6838,-128.4274,-135.3158,-141.7228,-147.3829,-153.0718,-157.6374,-161.7898,-165.3649,-168.2635,-171.6843,-174.1331,-175.9495,-178.0167,-179.1161,-179.5873,-179.8435,-178.7748,-178.1259,-176.3311,-174.9818,-172.4099,-169.9574,-166.2833,-163.0247,-159.1512,-155.2482,-151.5352,-147.6946,-143.9178,-140.2813,-136.5299,-132.8579,-129.0704,-125.2069,-121.7657,-118.309,-114.795,-112.1763,-109.5009,-107.659,-105.3649,-104.3918,-103.2363,-102.6905,-102.3561,-102.1527,-101.5007,-101.0079,-100.1242,-98.92571,-97.87696,-95.87543,-94.77484,-92.38824,-90.90474,-88.98854,-87.12558,-85.89956,-84.18703,-83.04589,-81.82285,-80.54745,-79.64864,-78.13687,-77.14002,-74.84045,-73.54094,-71.10894,-70.08195,-67.78339,-66.07989,-64.09135,-62.31599,-60.71016,-59.90993,-58.84564,-57.78238,-56.37335,-55.11168,-53.71156,-52.83255,-50.39662,-48.75558,-45.86771,-44.26871,-42.04221,-39.85903,-36.96724,-35.33049,-33.51163,-32.17242,-30.38006,-28.66146,-26.447,-25.29585,-22.74102,-21.08401,-18.34657,-15.57704,-13.72811,-10.65064,-8.904166,-6.003349,-4.038237,-2.644731,-0.5616674,0.5598204,1.936335,3.40823,5.578955,6.953211,8.782075,10.94028,13.03818,15.01338,17.83421,19.42107,22.3373,24.38729,25.83057,28.44328,30.11527,32.07253,34.58874,36.38476,38.50992,40.53533,43.28758,45.52072,47.47774,50.17169,52.432,54.28104,56.29136,57.82477,58.99429,60.62443,61.71146,63.50186,64.6896,66.28925,68.09852,69.87587,72.50246,73.94824,76.26576,76.89297,79.28509,79.81363,81.35839,81.71063,81.90655,82.04044,83.26187,82.20459,83.56746,83.30746,83.72678,84.42137,84.56667,84.32688,84.25714,83.45879,83.08902,82.01733,80.12039,79.48552,76.09976,75.89955,72.85062,71.58295,69.12737,67.20913,65.4151,62.98604,61.44323,58.33435,56.65343,53.26561,50.95937,47.27629,44.54518,40.3957,37.17174,32.58196,29.58266,25.69392,22.69706,18.80286,16.12648,12.68178,10.44342,7.375161,4.344324,1.566609,-1.078079,-3.824193,-6.440667,-10.1109,-13.10871,-15.82778,-18.97683,-20.90679,-23.54231,-25.79122,-27.62547,-29.50229,-30.5404,-31.73876,-33.97397,-34.50464,-37.08649,-37.8066,-40.2204,-41.53602,-42.94063,-44.85411,-45.74066,-46.51464,-46.54491,-47.29053,-46.84855,-46.85441,-46.44118,-46.11381,-45.26366,-46.56632,-45.04147,-46.79864,-46.5302,-48.52677,-48.77341,-51.18785,-52.23493,-54.52456,-55.88314,-58.64326,-59.73616,-62.78528,-64.2955,-66.5124,-68.53827,-71.0075,-72.65452,-75.02202,-76.2286,-77.65732,-79.06087,-79.49254,-80.25122,-80.42601,-80.26463,-79.56223,-78.82941,-77.56405,-76.50034,-75.05079,-72.99951,-71.50067,-68.75205,-66.11286,-63.7973,-59.91271,-56.76003,-53.37707,-49.30009,-45.3137,-41.05035,-36.53018,-31.76126,-27.36884,-22.65014,-17.3165,-12.86626,-6.438926,-2.153581,4.300355,8.859334,16.02132,20.61465,27.05649,32.08566,37.91413,43.1138,48.788,53.62202,58.26107,62.47296,66.04797,69.77812,73.24752,76.51513,78.27775,81.30132,82.66683,85.26856,86.22365,87.43143,88.8787,89.32822,89.98655,89.67823,89.02111,87.60438,87.10832,85.02824,82.91824,79.713,77.15061,73.51401,70.86978,66.44522,63.60586,59.09314,56.03339,51.49548,47.47373,43.37672,38.20306,34.6331,29.52826,25.79652,20.67011,17.87463,13.86868,11.94474,8.461856,6.471702,4.890295,3.626526,2.499016,0.6943634,-0.1840765,-2.030437,-3.037779,-4.648006,-6.278906,-7.554782,-9.754534,-10.40455,-11.98258,-11.90137,-13.92237,-14.35484,-14.59879,-15.07282,-15.81409,-16.10283,-17.12608,-17.34064,-18.3824,-18.47151,-19.35269,-20.02628,-19.73838,-19.84953,-19.8261,-19.87889,-19.49,-19.41766,-19.08338,-18.6125,-18.42739,-19.01206,-18.48881,-20.36134,-19.66407,-20.93699,-21.21199,-21.44301,-21.98292,-22.2087,-22.45746,-22.5622,-22.40271,-22.58573,-22.06056,-22.71712,-22.89826,-22.52591,-23.64827,-23.58663,-24.04688,-24.6049,-23.558,-23.98769,-22.78484,-22.69912,-21.78141,-21.06954,-19.94571,-18.66521,-17.88349,-17.25507,-16.45192,-15.91235,-14.70905,-15.30272,-14.55753,-14.1402,-13.96841,-12.80924,-13.17005,-12.05631,-11.46725,-10.85057,-9.21606,-9.169554,-7.72546,-8.090954,-6.73528,-6.814939,-6.25415,-6.081493,-5.751384,-5.640122,-5.24093,-5.041553,-4.624566,-4.517418,-4.001749,-3.515428,-3.348882,-3.047393,-3.451083,-3.544509,-3.731606,-3.733505,-4.545765,-4.087529,-5.112685,-4.269949,-5.395523,-4.072455,-5.007912,-4.238767,-5.041641,-5.122627,-5.465501,-5.859247,-6.849901,-7.730891,-8.506459,-9.938386,-10.58985,-11.26128,-11.65475,-12.2115,-12.28228,-11.87338,-11.97072,-11.59161,-11.52959,-11.47137,-10.49299,-10.29467,-10.49423,-11.25423,-10.89976,-10.77147,-10.79009,-10.21595,-9.921502,-10.15569,-9.2464,-10.41089,-10.38071,-11.34236,-13.31884,-14.51689,-17.73476,-19.58983,-23.36872,-26.31181,-30.73441,-34.58481,-38.40091,-42.23762,-46.45986,-49.56728,-54.00185,-56.27659,-60.38872,-62.5335,-66.16206,-68.63203,-71.08599,-73.54288,-75.73859,-77.18396,-79.03492,-78.87413,-79.81244,-78.91154,-78.23115,-76.90736,-74.99513,-72.68169,-69.96445,-66.88828,-63.48201,-59.53493,-55.54111,-50.72947,-46.5048,-40.70978,-35.6987,-29.77663,-23.67392,-16.80007,-9.858739,-2.090097,4.904495,13.21017,21.11206,29.04587,38.13948,45.17556,54.25175,62.1655,70.72414,78.60754,86.90533,94.30607,101.6555,109.594,116.6987,123.73,130.387,136.7894,142.6261,148.5558,153.2661,157.7111,161.3398,165.4076,167.7632,170.6543,172.0803,173.5752,173.9123,174.6113,174.7084,174.0453,172.9993,171.1396,170.0078,166.8364,164.7585,161.2088,157.5846,153.5341,149.6701,145.0338,139.9848,135.0048,129.6592,124.3745,118.6834,113.0709,107.2894,102.0113,95.85796,90.35595,84.24894,78.46023,71.76402,66.36298,60.80848,55.53889,49.37638,44.37894,38.83772,33.30312,27.85174,21.67763,16.88855,11.02813,5.234744,0.211656,-6.198123,-11.34219,-17.85909,-23.38067,-30.12391,-35.19964,-40.96846,-45.38257,-50.56788,-55.00818,-59.65232,-63.4372,-67.26831,-70.86073,-74.88406,-78.17099,-81.75989,-85.00702,-88.176,-90.54203,-93.45679,-94.98,-97.0278,-98.10412,-99.30881,-100.0906,-100.3315,-100.2808,-100.3039,-99.83074,-99.36112,-98.75309,-97.45934,-96.81983,-94.69089,-93.63831,-90.49927,-87.98495,-84.5858,-81.38148,-77.51444,-74.17487,-69.79005,-66.09359,-62.53516,-58.99169,-55.25102,-52.33804,-48.87107,-46.151,-42.93811,-40.57007,-36.60433,-34.23658,-30.28405,-27.23549,-24.18855,-20.46714,-17.60772,-15.26583,-13.13095,-11.34651,-9.885698,-9.197244,-8.151386,-8.090278,-7.597661,-7.174207,-6.730501,-6.446419,-6.240325,-5.086707,-4.76286,-3.995218,-3.35107,-3.327748,-2.593908,-2.927234,-2.73186,-3.594565,-3.582741,-4.335411,-4.153784,-4.770288,-4.606866,-5.348324,-4.359747,-5.001822,-4.394185,-4.643332,-4.332754,-5.666846,-6.180444,-7.480514,-8.72628,-10.50602,-11.60854,-13.15704,-14.41926,-15.03053,-16.27571,-16.68337,-16.83083,-16.89556,-17.19357,-17.03647,-17.24179,-17.16521,-17.87344,-18.61449,-19.31788,-20.83951,-20.97131,-22.08967,-21.85526,-22.46274,-21.51151,-21.37829,-20.23101,-19.84876,-19.28596,-18.28302,-17.97773,-17.55753,-17.88503,-17.59026,-18.4303,-17.71419,-17.57468,-17.27606,-16.92876,-16.08356,-15.22838,-14.36221,-13.26446,-12.64019,-11.51057,-10.87238,-10.18237,-9.725991,-9.337504,-9.16121,-8.673647,-8.342806,-7.369231,-7.822353,-5.910392,-6.748907,-5.2747,-5.637166,-4.819488,-5.540536,-4.683769,-5.771144,-5.378956,-6.365666,-6.008868,-6.942948,-5.737334,-6.406488,-4.977612,-4.997291,-3.078426,-2.918576,-0.9546728,-0.54831,0.9184296,1.742388,2.445074,2.989122,3.151665,4.170447,3.897918,4.720744,5.734785,6.404423,7.674141,8.742298,9.968151,11.11044,11.89515,13.07906,13.37533,13.7973,13.85723,13.53401,13.98519,13.18155,13.36274,13.014,13.02774,12.5425,12.31957,11.91634,11.81054,10.8792,11.76942,10.34927,11.40916,10.77118,11.17837,11.41436,11.79315,12.78208,13.55789,14.52755,15.97873,17.14252,18.5104,20.87561,21.86528,23.39042,25.19142,27.79383,29.20474,31.26484,31.53289,32.62161,32.00394,32.06889,30.50285,28.42372,26.49011,23.5683,20.73992,16.7587,13.31557,7.910052,3.546824,-2.296861,-8.318834,-14.7732,-21.58811,-27.52753,-34.38948,-40.11212,-46.46102,-51.43799,-56.95611,-61.33923,-65.23516,-69.15171,-71.83221,-75.0365,-76.88312,-78.95608,-80.1981,-81.2291,-81.35156,-82.12931,-81.15878,-81.17169,-79.47692,-78.08396,-75.25303,-73.09731,-70.0272,-66.60668,-62.12974,-57.7306,-52.60751,-47.43952,-41.37153,-35.52825,-28.08232,-22.56934,-15.96633,-10.33703,-2.770412,3.140465,11.23226,18.75927,27.71308,36.11044,47.0093,56.31627,67.58706,77.91509,89.76582,100.7639,112.1382,123.4057,133.7762,144.8398,155.2464,164.9893,174.3689,182.4316,190.9026,198.151,204.7144,209.2087,213.3922,215.9195,217.9241,218.397,217.7584,215.1953,212.2925,207.3473,202.2207,195.0799,187.819,179.3792,170.8133,161.2433,151.9417,141.2193,131.2958,120.1569,109.5086,98.19464,86.32149,75.54345,63.61136,52.60043,41.79652,30.93611,21.21644,12.26355,3.192983,-3.562141,-10.77592,-16.9791,-24.04921,-29.64614,-36.49139,-42.07907,-48.23871,-53.33893,-59.96642,-64.88476,-70.56803,-75.35264,-79.87352,-83.81047,-87.74106,-91.30019,-94.52018,-97.50101,-99.92726,-102.3558,-104.127,-105.3658,-106.5733,-106.642,-106.9731,-105.9249,-105.5053,-102.7134,-101.0986,-98.83394,-95.55971,-93.64107,-89.33429,-87.52752,-83.3462,-81.22901,-77.2526,-74.35895,-70.22326,-66.99102,-62.32205,-59.00764,-54.97696,-51.31559,-47.97745,-44.38083,-41.83571,-39.33787,-37.41554,-36.51323,-35.93204,-36.38093,-37.54003,-39.48785,-41.23487,-42.15562,-43.64957,-44.44303,-44.98558,-44.93477,-45.34941,-45.69346,-45.15184,-45.63616,-45.44296,-46.22875,-46.15687,-46.59024,-46.95048,-46.53545,-46.15971,-45.75196,-44.21183,-42.93835,-40.79222,-39.24725,-36.7505,-35.60108,-33.72616,-33.17073,-31.90248,-31.35379,-30.41567,-29.24081,-28.42812,-26.95012,-25.93625,-23.87786,-22.00483,-20.03755,-17.69807,-16.20125,-13.72228,-12.25175,-10.23013,-8.850209,-7.541163,-6.960655,-5.071125,-4.663552,-3.456021,-2.669529,-1.768824,0.2968491,0.7446594,2.230744,2.923272,3.797947,4.607961,5.585511,4.844022,5.102213,4.116762,4.499184,3.419554,3.133438,2.459717,1.977391,0.904334,1.21322,-0.02759267,0.4031708,-0.3612397,-0.1415856,-1.040436,-1.041488,-2.081153,-2.914735,-2.726718,-3.982828,-3.73506,-4.224178,-4.237163,-4.192728,-4.299458,-3.510189,-4.142914,-3.02617,-3.950168,-3.455863,-3.95421,-4.630343,-4.776895,-5.767344,-4.807319,-5.177627,-5.057517,-5.061197,-4.971022,-4.358356,-4.128103,-4.544133,-4.661496,-4.348993,-5.042794,-4.606394,-5.725673,-6.175526,-7.309111,-7.847408,-8.757483,-9.185763,-10.33408,-9.968186,-10.58446,-9.852226,-10.83185,-10.02067,-11.17531,-10.64545,-11.59352,-12.24592,-13.04037,-13.50191,-14.62804,-14.88231,-15.91658,-15.36752,-16.43632,-14.8877,-15.5353,-15.47675,-15.18522,-15.49358,-15.26873,-16.267,-16.6611,-18.12256,-18.64907,-20.04239,-20.901,-21.58892,-22.45376,-22.53242,-23.06699,-21.60491,-22.40029,-20.84636,-21.25147,-19.46979,-19.8887,-18.53865,-18.3137,-17.08399,-16.0032,-14.56108,-14.6534,-13.40569,-13.35004,-13.69614,-13.2465,-14.38026,-14.87009,-16.10826,-18.44809,-19.2645,-22.12843,-23.62881,-25.88624,-28.09676,-29.99607,-32.05458,-33.50665,-34.31865,-35.83241,-36.06442,-36.7661,-36.76564,-36.79398,-35.73989,-35.49047,-33.54262,-32.83547,-30.56657,-28.6117,-25.75892,-23.24772,-20.23224,-16.43523,-13.45828,-8.96769,-5.004124,-0.4903698,3.856438,8.680327,14.37608,19.13627,23.7818,28.66458,33.0346,38.0888,43.37485,48.10522,54.18718,59.86765,67.06473,72.03722,79.70195,86.0492,93.38825,100.4776,107.8482,114.5819,122.2944,128.4613,135.6725,141.2935,147.2521,152.7698,158.5155,163.0684,167.7785,170.9764,175.0591,177.6242,180.2255,182.071,183.5998,183.623,184.5621,183.9635,182.8395,181.5687,178.8802,176.4236,173.071,169.4526,165.4294,159.4514,154.8115,148.0382,141.3202,134.6903,126.5261,119.0362,110.7703,103.1343,93.69317,86.10464,76.72096,68.52012,58.93633,50.76789,42.07473,33.89271,26.69431,17.69843,10.99555,3.313212,-1.744911,-9.56791,-13.2397,-20.00968,-24.13261,-30.10667,-34.20445,-40.25834,-44.30066,-50.30008,-54.65147,-59.30997,-64.53232,-68.19095,-72.99945,-76.10022,-79.36393,-82.3478,-85.45849,-87.68505,-89.85997,-91.29936,-92.24859,-92.85699,-93.48762,-93.48991,-93.21791,-92.5534,-91.28241,-90.66096,-88.67395,-87.9913,-85.44836,-84.23051,-81.76926,-79.62704,-77.09477,-74.3028,-71.74907,-68.57248,-66.7026,-63.08611,-61.45266,-58.51968,-57.81058,-55.97903,-55.6808,-55.18523,-56.31664,-55.61061,-56.22296,-55.12558,-55.2595,-53.9662,-53.04651,-51.75971,-49.87867,-49.15181,-47.06326,-46.24961,-44.7667,-44.20951,-42.5127,-42.22076,-40.85598,-41.13557,-39.08174,-38.56671,-37.11148,-35.99446,-34.78986,-33.88362,-32.42561,-31.99571,-30.66137,-30.87819,-29.90288,-29.5922,-29.26486,-29.46158,-28.58064,-28.49356,-27.83277,-26.85783,-25.81529,-24.96328,-23.86666,-22.00776,-21.31613,-20.52968,-19.75478,-19.21334,-19.06928,-18.62418,-18.87369,-18.58619,-18.04663,-17.45091,-17.20762,-15.78143,-16.24825,-14.53294,-14.18017,-12.12941,-11.88069,-11.16511,-10.46302,-10.12279,-10.1458,-9.337974,-9.610479,-9.63691,-8.099565,-8.516297,-7.134403,-6.224779,-4.686845,-2.994762,-1.34912,0.3581725,0.9093863,3.429142,3.737396,6.169523,5.948485,8.404757,7.928369,10.20678,10.39671,12.86652,13.73282,15.82096,17.97642,19.20131,20.82682,22.50128,23.49309,25.77711,26.31818,26.82823,27.66953,28.23934,29.30732,29.34618,31.2973,31.25594,33.21269,33.53541,35.05468,35.01041,35.2235,35.96144,35.61181,36.14079,34.6902,34.95744,33.7778,34.30819,33.014,33.91188,32.89621,33.21353,32.75238,32.94927,31.76084,31.39122,30.49453,29.9505,28.3212,27.09187,24.94318,23.38571,22.19797,20.83569,19.80705,18.91306,19.58435,19.56882,20.21934,21.28045,21.58671,23.14448,23.56976,25.08002,25.67598,26.56498,27.98336,29.44684,31.19746,32.73619,34.68639,36.16384,38.34143,40.01628,41.51833,42.03611,43.59905,44.15118,44.1746,44.12006,43.66024,43.12636,42.5497,41.71582,41.1071,40.2187,39.64869,38.89694,37.93653,36.77875,34.95427,33.59471,31.22805,29.1863,25.95249,22.84419,19.24448,15.89234,12.08217,9.36744,4.926766,2.191592,-1.486287,-4.502149,-7.792044,-11.1734,-14.86557,-18.20286,-22.57571,-26.07006,-30.86526,-33.86279,-38.91412,-41.55116,-46.2942,-48.42255,-53.20969,-54.31858,-58.73365,-59.66518,-63.2392,-64.63263,-66.94437,-69.17783,-70.39878,-72.34391,-73.95419,-74.80028,-76.41185,-76.72936,-77.42233,-77.18909,-77.70159,-76.59155,-75.26864,-74.63224,-72.49233,-71.10735,-69.19966,-67.30705,-64.98138,-63.59044,-60.88221,-59.72554,-57.21798,-55.70911,-53.93708,-51.95893,-51.04868,-48.59313,-48.63516,-46.69861,-46.84161,-45.6185,-45.3737,-45.87634,-45.10386,-46.94795,-46.43808,-48.06349,-48.153,-48.61501,-49.35437,-47.90922,-48.48156,-46.80037,-46.31808,-44.98958,-43.54434,-41.44458,-40.19632,-37.80548,-36.5921,-33.43455,-31.99138,-29.04952,-27.11476,-24.48769,-21.98788,-19.37876,-17.01053,-14.00438,-11.51753,-8.496626,-5.651872,-2.53267,0.5545645,3.622176,6.687712,10.07498,12.79198,16.01707,18.43799,21.46857,24.01229,27.36139,29.01744,32.91766,34.31904,38.53714,40.27723,43.47579,45.54902,48.31087,50.96619,52.56967,54.76687,56.37935,57.28758,58.43398,58.83549,60.0787,59.67476,60.6124,60.76109,61.15374,61.07958,61.06905,61.30576,60.72717,60.44825,59.83394,57.61307,57.21466,54.06354,53.36688,49.085,48.18472,44.55826,43.64921,40.5033,38.36837,35.54669,33.16178,30.58029,28.25684,25.08277,22.51745,18.81836,16.51974,12.65339,11.01603,7.206885,6.182066,3.445551,2.453184,0.227415,-0.6440531,-2.271895,-3.210755,-4.711781,-6.170223,-7.344498,-9.76388,-10.52365,-13.49667,-14.39433,-16.42811,-18.51008,-18.89037,-21.04897,-20.58646,-22.43727,-21.72454,-23.10211,-22.62727,-22.73852,-23.50945,-22.56058,-23.52003,-22.87243,-23.53818,-22.90485,-22.5326,-22.45919,-20.67165,-20.39727,-17.6215,-16.48153,-13.40918,-12.11818,-9.181257,-7.43248,-4.891546,-2.986196,-1.049714,1.161709,2.584629,5.547964,6.793244,9.469395,11.6124,13.58627,15.97283,18.1624,20.58429,22.69039,24.48687,26.16141,27.78181,28.98044,29.91404,30.59827,31.34175,31.67104,32.58255,32.4413,33.49893,32.71205,34.12525,32.70472,33.27517,31.70795,31.60401,30.18112,28.49281,27.17534,24.47257,22.71927,20.8671,19.21734,17.07966,14.84767,13.13729,11.43906,9.150427,7.053099,4.377586,2.088374,-1.113756,-3.401236,-6.503016,-10.25842,-12.2932,-16.28286,-17.9046,-21.58437,-22.92372,-25.8615,-27.41249,-30.02847,-32.79012,-34.78407,-37.79344,-39.8303,-42.79456,-45.1627,-48.30696,-50.61169,-52.56925,-54.98286,-55.70052,-58.08213,-58.01802,-59.10856,-59.41823,-59.46394,-59.20337,-59.67976,-59.66539,-59.61289,-60.91383,-61.71634,-63.14514,-64.63754,-66.08071,-66.99059,-68.78967,-70.0735,-71.57691,-72.77112,-74.33257,-76.50981,-78.16812,-80.26725,-81.906,-84.43429,-86.50974,-89.01999,-90.93104,-92.6967,-92.9897,-94.29326,-94.45652,-94.41281,-93.2609,-92.43163,-90.41647,-89.42101,-86.81873,-84.62733,-81.41328,-78.89543,-74.98368,-71.57562,-66.94058,-62.26038,-57.00537,-51.65952,-46.24059,-39.08094,-32.85355,-25.89577,-19.32013,-11.91179,-4.499012,3.055551,10.30331,17.53215,25.21691,32.32103,39.66923,47.26214,53.98607,61.76577,68.33379,76.44295,82.25898,90.11081,95.6177,102.6031,108.4697,114.4528,120.273,125.36,130.5733,135.3583,140.2309,144.2512,147.7339,151.5409,153.8833,157.4093,158.8189,161.7311,162.0149,163.5077,163.6146,164.1195,163.5329,163.206,161.9026,160.8259,159.7528,157.6884,156.0597,153.6299,152.103,149.4547,146.871,144.5511,141.5836,140.0808,136.6367,135.1342,131.1683,130.2065,126.6304,125.7988,123.2976,122.0857,121.0204,119.7045,118.8616,117.2061,116.084,114.587,113.9718,111.7914,110.6403,107.4958,105.9115,102.5211,100.8695,97.2309,95.34702,91.55725,88.55881,84.0617,80.01139,75.42949,70.04392,64.93177,59.22963,53.14182,47.17562,41.20345,34.25208,28.79883,22.17742,16.53116,10.59815,4.105722,-1.741117,-8.676585,-14.58614,-21.50404,-27.75385,-34.02911,-40.30038,-45.73373,-51.91203,-56.3445,-61.72064,-65.988,-70.34363,-74.38681,-77.96449,-82.13036,-85.45372,-88.69531,-92.87677,-95.72011,-99.55371,-101.4146,-104.2251,-106.1737,-107.9456,-109.0737,-110.0191,-110.2677,-110.3636,-109.9952,-110.0217,-109.006,-109.1596,-107.2922,-108.0451,-106.1654,-106.8646,-104.4499,-104.336,-101.7787,-101.1066,-98.50768,-97.30491,-94.25668,-92.67116,-89.86156,-88.41108,-85.76761,-85.28805,-82.93741,-82.94495,-81.90765,-82.27736,-81.57386,-81.3483,-81.16997,-80.45123,-80.53515,-79.98716,-79.13853,-78.75117,-77.92409,-77.87743,-77.51184,-77.05242,-77.4003,-77.48658,-77.2849,-77.73446,-77.42635,-78.18802,-77.30565,-77.31418,-75.57198,-75.14272,-73.50451,-72.46855,-71.34922,-69.58111,-69.69556,-67.974,-68.18316,-66.9964,-66.91268,-65.31555,-65.33261,-63.76738,-62.75179,-60.14491,-59.44981,-55.70141,-55.1896,-52.11495,-51.4119,-48.69539,-47.9822,-45.66841,-45.33804,-43.79415,-42.89962,-41.46185,-40.18411,-37.95859,-36.84885,-33.80497,-31.59416,-28.82805,-26.61983,-23.51064,-22.03414,-19.49764,-18.09157,-15.34562,-14.25796,-11.67099,-9.854339,-7.607811,-4.716461,-1.913666,1.430037,4.58782,8.192539,11.51747,14.51317,17.71178,20.63091,23.18508,25.74964,27.85659,30.80802,32.77902,35.94841,37.48265,40.12697,42.85201,45.44903,48.13388,50.2847,52.58425,54.16619,55.89834,57.48608,58.42443,59.58174,60.00411,61.14592,61.81065,63.20589,63.71867,65.16208,65.70258,67.64151,67.48144,69.17514,68.52754,69.11314,68.47896,68.69534,66.94538,66.6541,65.83274,64.50411,63.84395,62.27175,62.02855,61.2164,60.91244,59.25356,59.10223,58.12227,58.16468,56.37116,54.98418,53.51733,51.78665,50.41452,48.55816,47.19225,45.81634,44.29297,43.44091,42.08335,41.49342,39.70971,38.79427,37.07522,36.23219,33.8505,32.64039,29.56975,29.30135,26.39579,25.79251,23.91452,23.26074,22.54122,22.22587,22.21933,21.26041,21.10172,20.41517,19.82763,19.10834,17.51357,17.12873,14.60146,14.11342,11.63062,10.78834,9.023893,7.760783,6.840204,5.41426,4.877912,3.796613,2.393895,1.477796,-0.2607994,-2.037584,-4.105186,-5.8399,-8.24239,-9.943264,-12.77426,-14.02693,-16.50346,-17.36428,-19.05485,-19.57075,-21.01653,-21.68353,-23.05441,-23.80912,-25.93391,-25.35893,-26.88314,-27.48307,-28.46525,-28.92223,-30.64353,-31.68591,-33.24033,-34.77648,-36.30291,-38.02946,-39.63761,-42.02107,-44.29473,-46.17836,-49.11613,-50.78355,-53.13122,-55.17286,-57.47854,-59.03227,-61.05868,-62.60771,-63.68279,-65.2017,-65.6693,-66.56092,-66.81411,-67.7617,-67.35115,-67.96085,-66.94007,-66.99993,-66.69603,-66.47311,-65.28301,-64.44446,-63.8055,-62.17574,-60.94162,-57.5498,-56.42451,-53.62632,-51.42953,-48.08599,-45.28347,-42.03072,-39.44269,-35.66899,-33.2686,-29.59307,