ConstAcc,0.5,0.29947,-475.3082,-501.5069,-526.3042,-549.6828,-571.6297,-592.1358,-611.1958,-628.8086,-644.9763,-659.7049,-673.0037,-684.8851,-695.3651,-704.4624,-712.1988,-718.5989,-723.69,-727.5019,-730.067,-731.4199,-731.5974,-730.6385,-728.5841,-725.4769,-721.3614,-716.2837,-710.2913,-703.433,-695.7592,-687.3209,-678.1704,-668.3609,-657.9461,-646.9807,-635.5196,-623.618,-611.3318,-598.7166,-585.8283,-572.7225,-559.4548,-546.0801,-532.6531,-519.228,-505.8581,-492.5958,-479.4927,-466.5993,-453.9648,-441.6373,-429.6632,-418.0875,-406.9534,-396.3024,-386.174,-376.6057,-370.4149,-352.5964,-340.304,-334.993,-329.9753,-326.2106,-323.2701,-321.0465,-319.4572,-318.6904,-319.0568,-320.8537,-323.9065,-328.0151,-333.3935,-339.8245,-346.9714,-354.3243,-361.5645,-367.3889,-372.2281,-376.519,-380.7204,-386.1233,-392.323,-398.9807,-406.1485,-413.4664,-420.8616,-427.9152,-433.4755,-437.5833,-440.7897,-443.6232,-446.3674,-449.1266,-452.0468,-455.0972,-458.2106,-461.259,-464.08,-468.0532,-472.4092,-476.4068,-479.4456,-481.0745,-480.1269,-477.3336,-473.1494,-467.8208,-462.9161,-458.5196,-454.936,-452.2127,-450.4697,-448.5533,-446.5316,-444.4419,-442.3337,-440.1416,-437.869,-435.5387,-433.0905,-430.4752,-427.7167,-424.8183,-421.6657,-418.5863,-416.3807,-414.3017,-411.681,-408.0924,-403.3589,-397.2572,-389.8419,-381.0894,-371.1864,-360.2864,-348.5059,-336.041,-323.0892,-309.7837,-296.1861,-282.4122,-268.5233,-254.5374,-240.5286,-226.6062,-212.9356,-199.5223,-186.467,-173.8456,-161.7257,-150.2149,-139.3429,-129.1506,-119.678,-110.7876,-102.4063,-94.46058,-86.89503,-79.6489,-72.78945,-66.35434,-60.35596,-53.79945,-46.47018,-39.25587,-32.73957,-27.47935,-23.56105,-21.24576,-20.50132,-21.26216,-23.19875,-26.08343,-29.68869,-33.74037,-38.12577,-42.55068,-46.78028,-50.67668,-54.11222,-57.01964,-59.43401,-61.24346,-62.32763,-64.52734,-66.67998,-68.00574,-69.37052,-70.406,-70.94098,-70.66084,-68.29515,-63.90813,-57.48133,-49.00717,-36.56664,-21.28755,-4.197865,12.60335,26.18456,37.53244,47.38111,56.52745,65.55922,74.74623,84.20335,93.98228,104.095,115.0372,129.301,145.8981,164.061,183.2089,202.7182,220.6591,235.4082,248.0947,259.5942,270.6546,281.7886,293.1611,304.7526,316.6438,328.8313,341.367,355.6095,370.301,384.3644,397.1481,408.0743,415.2479,418.7922,419.8176,419.2871,417.694,415.813,414.9243,415.171,416.4825,418.7459,422.3766,427.9651,434.2832,440.308,445.4854,449.3519,451.5958,452.3192,451.4869,447.5587,441.9564,435.7106,429.591,423.9901,418.9742,414.6464,411.1596,408.5506,406.8968,406.0459,405.8388,406.2108,407.1232,408.5313,410.5275,412.9824,415.8505,419.1295,422.7658,426.8976,431.4655,436.6081,442.3481,447.5687,451.535,454.3656,455.9864,456.7064,456.62,456.029,455.0886,456.1351,457.6536,458.856,459.1044,458.0013,455.7206,452.0366,447.0027,440.4531,432.3086,422.5433,411.3932,399.099,385.6636,373.6414,362.8673,353.2258,344.6863,337.2206,330.5674,324.6211,319.2407,314.5141,310.4303,307.1014,301.9858,295.4831,287.8975,279.5925,273.3095,268.8112,266.2747,265.5401,266.4815,268.9677,272.6479,277.4334,283.1312,288.9912,293.3441,296.3501,298.1946,299.0127,299.2916,299.4599,301.7206,305.9107,311.8438,319.3361,328.0753,337.9347,347.2496,356.349,366.2622,377.0596,386.7433,395.3649,402.9282,409.5344,415.2078,421.914,430.2336,439.8058,450.3056,461.4899,472.9146,484.6642,496.5539,508.45,520.1922,530.7289,538.3433,543.247,545.952,547.0003,546.3207,543.69,538.837,531.9752,525.4671,519.1346,512.6186,505.8493,498.6713,491.3831,483.7855,475.7326,467.0758,457.7696,447.928,437.4871,426.499,414.9364,402.8087,390.1143,377.115,364.0535,351.0609,338.5074,326.508,315.2156,304.6637,294.9822,286.3876,278.7975,272.2243,266.7817,262.5721,259.7931,258.6326,259.0894,258.3029,256.5862,254.1784,251.3389,248.1815,244.67,240.9436,237.2629,234.4418,234.6721,236.253,238.1244,239.524,240.3006,240.324,239.7434,238.8538,235.436,230.9163,226.8389,223.9409,222.5712,222.8531,224.8068,228.1309,232.4967,237.2973,242.5155,248.1355,253.8601,259.6986,265.3845,270.9682,276.427,281.657,286.7261,291.5639,296.3118,300.836,305.3336,309.6251,313.6275,317.5057,321.0525,324.0054,326.2612,327.5922,328.0951,327.7616,326.5286,324.1167,322.6101,322.4516,322.8726,323.5764,324.1616,324.4816,324.5799,324.4453,324.0077,323.275,322.1448,320.7701,319.28,317.6884,316.1617,314.6007,316.111,318.5738,320.4096,320.9362,319.9017,315.1652,308.4797,301.1033,293.9791,287.7027,282.5406,278.5689,275.6423,273.2431,271.2285,269.2976,267.419,265.2767,262.9681,260.4192,257.9279,255.5629,253.3159,251.0737,248.6631,246.3938,244.3746,242.8365,241.5146,240.1671,238.9379,238.0359,237.3731,236.9633,236.6198,236.6262,236.6745,236.9046,237.2932,238.0626,238.9905,240.1887,241.4254,242.532,243.2838,244.1504,245.1714,246.5626,248.2855,250.5235,253.4658,257.009,260.5977,261.2638,259.6147,256.1098,251.292,245.5053,239.0082,232.0171,224.6351,219.771,217.1608,215.6598,214.6337,213.7045,212.6035,211.1364,209.1032,206.4428,203.717,200.7747,197.6368,194.3497,190.8624,187.221,183.6887,180.3999,177.3536,174.8244,172.5329,170.27,168.025,165.5164,162.8123,159.9412,157.0467,154.2615,151.6892,149.0222,146.437,144.1483,142.1533,140.2592,138.5052,136.7729,135.2674,134.0342,132.9387,132.0721,131.4166,131.0323,130.8601,130.8652,130.6923,130.7861,131.4282,132.7348,134.5734,136.6916,139.2306,138.2827,134.6604,129.2061,122.4995,115.1216,110.5706,108.5186,107.9192,107.9652,108.088,108.1072,107.7937,107.0081,105.7198,104.077,102.3905,100.6976,99.13008,97.52263,96.11672,94.91861,93.95736,93.3148,93.23123,93.30278,93.33799,92.90963,91.88241,90.20268,88.17283,86.07717,84.11024,82.25263,80.43541,78.71098,77.05439,75.6226,74.37506,73.11751,71.61831,70.28437,69.0722,67.89986,66.80086,65.84139,64.84662,63.96724,63.01518,62.08029,60.93208,59.74709,58.72081,57.7282,56.70728,55.60428,54.66787,54.31583,54.72577,55.48078,56.10529,56.44242,56.62841,56.53581,56.41167,56.21298,56.03865,56.06036,56.24806,56.45841,56.69317,56.79315,57.10064,57.50676,57.97595,58.58969,59.42556,60.6367,62.14388,63.64178,64.73687,65.59105,66.3426,66.99371,67.60087,68.38087,69.4272,70.73589,72.19334,73.43966,74.68468,76.0525,77.56797,79.09876,80.36272,81.47937,82.53218,83.55792,84.58382,85.60911,86.42794,87.02596,87.44797,87.7188,87.70087,87.76487,88.1398,88.74887,89.55447,90.36704,91.1952,91.91173,92.79787,93.70364,94.39839,95.09041,95.76608,96.63872,97.54197,98.48124,99.36824,100.0623,101.1793,102.486,103.7109,104.714,105.5029,106.3784,107.3106,108.2864,109.2565,110.3082,111.5656,112.9524,113.976,114.0587,113.4182,112.0424,110.4594,108.7159,106.8789,105.1081,103.3415,102.1971,101.221,99.76137,98.00027,95.8849,93.52019,90.80801,87.94059,85.00783,81.98561,78.92406,75.92929,72.84008,69.72709,66.66151,63.7227,60.79116,57.774,54.91496,52.27591,49.76197,47.13324,44.56043,42.05654,39.95424,38.10888,36.035,33.90008,31.8245,29.78205,28.02564,26.42154,24.79087,23.35313,22.2386,21.20904,20.12661,19.10311,18.21026,17.63215,17.13553,16.72263,16.11688,15.5256,15.24797,15.26894,15.20615,15.57873,16.29726,17.07618,17.76479,18.6146,19.36979,19.90791,20.3618,20.86733,21.30371,21.75334,22.24834,23.00623,23.58645,24.1081,24.38399,24.53153,24.83876,25.10456,25.23753,24.94289,24.37915,23.50755,22.76157,22.12614,21.67368,21.411,21.18326,21.10013,20.93358,20.68179,20.38611,20.24318,20.03154,19.76726,19.58706,19.17448,18.97407,18.94805,19.39864,20.1414,20.93526,21.59491,21.67523,21.39657,20.75768,20.05308,19.60214,19.43181,19.44932,19.30005,19.21362,18.78938,17.76206,16.48674,15.62654,15.27291,15.51447,16.21966,17.27573,18.4616,19.99069,21.7263,23.98881,25.78161,27.04895,28.20535,29.45855,31.23696,33.28538,35.43286,37.39158,38.96764,40.17575,41.18545,41.92623,42.30571,42.75517,43.41597,44.05091,44.45018,44.71747,44.95589,45.1114,45.20112,45.53909,45.56515,45.72969,46.01063,46.11019,46.02488,45.48381,44.64751,44.07165,43.23766,42.29577,41.21159,40.0561,38.72788,37.39657,35.96402,34.35511,32.47933,30.53516,28.6334,26.59851,24.7876,23.03353,21.29582,19.66742,18.19779,16.17149,13.57055,10.84731,8.192461,5.245695,2.162667,-0.8424553,-3.615196,-6.321524,-9.04598,-11.94903,-14.84722,-17.82469,-20.66146,-23.75205,-26.91508,-30.17657,-33.36136,-36.31482,-39.09303,-41.70782,-44.366,-46.62586,-48.67258,-50.67563,-52.62683,-54.70511,-56.66416,-58.18899,-59.40346,-60.64366,-61.93316,-63.21662,-63.99823,-64.61212,-65.304,-65.72597,-65.78565,-65.58835,-65.51968,-66.27976,-67.6942,-68.93168,-70.02021,-70.8168,-70.97122,-70.86246,-71.24769,-72.46038,-74.52243,-77.30499,-80.61135,-83.80965,-85.9588,-87.40475,-88.87356,-90.48758,-92.2063,-93.71042,-95.11161,-96.73096,-98.47798,-100.1552,-101.557,-102.7001,-103.5797,-104.3023,-105.0519,-106.0091,-107.201,-108.7638,-110.4164,-111.9192,-112.9054,-113.5655,-114.195,-114.4512,-114.5329,-114.5064,-114.305,-114.0849,-114.1035,-114.0516,-113.6466,-112.7644,-111.748,-110.4005,-108.8155,-107.0854,-105.0592,-103.1544,-101.2307,-99.14779,-97.11391,-94.71865,-92.28929,-89.77856,-87.25321,-84.57771,-81.9269,-79.38537,-76.99713,-74.27733,-71.46163,-68.51648,-65.48493,-62.86404,-60.56313,-57.90277,-55.15161,-52.65487,-50.48359,-48.52327,-46.77585,-45.08403,-43.35288,-41.98383,-40.92405,-40.00701,-39.15493,-38.4269,-37.92976,-37.76565,-37.65229,-37.45473,-37.33598,-37.34038,-37.23113,-37.05859,-36.68898,-36.58831,-36.65098,-36.66928,-36.58159,-36.58582,-36.53132,-36.66538,-36.82352,-36.69352,-36.46289,-36.34579,-36.21296,-35.90695,-35.2225,-34.55342,-33.67376,-32.36712,-30.46792,-28.59864,-26.91613,-25.62257,-24.22616,-22.50324,-20.53163,-18.08426,-15.83996,-14.44889,-13.99238,-13.44885,-12.7783,-11.74686,-10.66728,-9.46801,-7.995614,-6.738292,-5.432094,-4.3341,-3.08194,-1.626854,-0.2333608,1.070002,2.169484,2.794037,3.341252,4.179864,5.380352,6.628809,8.009908,9.426737,10.96647,12.495,14.15355,15.5717,16.41832,16.90225,17.2295,17.56309,18.57198,19.78326,21.32631,22.86627,24.32743,25.97495,27.8212,30.08226,32.13522,33.82846,35.26645,36.79843,38.25042,39.42824,40.49168,41.3199,42.01978,42.73626,43.18579,43.4739,43.58789,44.35316,46.06818,48.24372,49.46089,49.70961,48.85803,46.66893,43.64694,39.98525,36.12518,32.39487,28.52654,24.19387,19.60336,14.80859,9.82357,4.823354,-0.2418358,-5.657857,-11.15325,-16.6347,-21.86143,-27.07271,-32.40102,-37.70705,-42.72944,-47.5157,-52.07122,-56.41156,-60.55181,-64.61041,-67.8649,-70.63413,-73.35369,-76.19656,-79.08879,-81.50291,-83.5212,-85.343,-86.89311,-87.8603,-88.28697,-88.18031,-87.83276,-87.18918,-86.21443,-84.45514,-82.28974,-80.1541,-78.03564,-76.35948,-74.31401,-71.7673,-68.94726,-65.95386,-62.63846,-59.03838,-55.21314,-51.20207,-47.10794,-42.7994,-38.32933,-33.7524,-29.54872,-25.35303,-21.53984,-17.7291,-14.05838,-11.10555,-8.962815,-7.480369,-6.065347,-4.293834,-2.770809,-0.8980184,1.678219,5.019254,8.341686,11.28862,13.73189,15.49946,17.12419,18.47305,19.48139,19.91816,20.11546,20.75153,21.731,22.65805,23.68167,23.96395,23.98863,23.67804,22.96062,21.79916,20.31061,18.65509,16.50866,14.21894,11.91076,9.687682,7.800975,6.426485,5.383741,4.839522,4.709649,4.520687,3.728492,1.969722,-0.6707208,-4.01399,-8.348487,-14.25573,-21.70033,-29.46866,-37.6715,-45.80424,-53.45765,-60.9922,-68.4773,-75.85679,-83.15848,-90.40323,-97.58853,-104.8672,-112.03,-118.9499,-125.6199,-131.8146,-137.3767,-142.2571,-146.3811,-150.1839,-153.8124,-156.9954,-159.4503,-161.3166,-162.4036,-163.1912,-163.4909,-163.1209,-162.217,-161.4655,-160.3577,-158.6512,-155.8821,-152.225,-148.2802,-144.3342,-140.4676,-136.2055,-131.2228,-125.2352,-118.5378,-111.6083,-104.7029,-97.81813,-90.89802,-83.41084,-74.90492,-66.1334,-57.1596,-48.55914,-40.1007,-31.5714,-23.15381,-14.93837,-6.805624,1.001066,8.243325,14.6529,20.31926,25.29668,29.82912,33.71497,36.70779,38.93798,40.22739,41.26534,42.4983,43.77172,45.14943,46.37845,47.10962,47.68831,47.67327,46.91489,45.77173,44.59687,43.43789,41.85553,39.85258,37.60408,35.2279,32.73496,29.80152,26.44408,22.74395,18.8675,14.71907,10.24791,5.44889,1.02801,-2.887104,-6.477298,-10.09976,-13.6292,-16.97317,-19.46877,-21.30572,-22.55967,-22.88881,-23.0502,-23.3125,-24.08166,-26.75931,-30.84924,-35.58036,-40.26305,-44.37035,-48.36402,-52.10565,-55.51647,-58.46466,-61.30232,-64.60618,-68.02897,-71.52561,-74.80725,-78.14592,-81.59284,-84.83278,-87.36759,-89.23047,-90.95518,-92.9495,-95.042,-96.81428,-97.69747,-98.24805,-99.12277,-100.2531,-101.4821,-102.4967,-103.1169,-103.8767,-104.7624,-105.2766,-105.4511,-105.1749,-105.0862,-105.2774,-105.3175,-104.8334,-104.6329,-104.5599,-104.8859,-105.3272,-105.749,-105.8214,-105.2971,-104.2228,-102.5276,-100.7693,-99.56411,-98.47556,-97.09203,-95.1552,-92.72607,-90.43329,-88.93096,-88.0413,-87.11204,-86.01472,-85.24511,-84.53793,-83.56897,-82.62866,-81.9614,-81.64234,-81.67867,-81.79982,-81.87148,-81.26063,-80.34487,-78.91891,-78.02201,-77.89274,-78.42301,-79.89141,-81.86321,-83.64579,-85.14845,-86.71515,-88.70669,-90.90505,-93.0063,-94.98183,-96.98514,-99.22316,-101.693,-104.3994,-107.0774,-109.7184,-111.9723,-114.1902,-116.2718,-118.1581,-119.8184,-121.0278,-121.8653,-122.3952,-122.6822,-122.7208,-122.8383,-123.0023,-122.9915,-123.175,-123.2448,-122.5553,-120.8036,-118.4535,-116.5414,-114.7975,-112.9278,-111.172,-108.6767,-105.4824,-102.0445,-98.74399,-95.71727,-92.74058,-89.58159,-86.03551,-82.43041,-78.51809,-74.64284,-70.51258,-66.61421,-62.52329,-58.15284,-53.36109,-48.44952,-44.08822,-40.29139,-37.16366,-33.88447,-30.5659,-27.01813,-23.348,-19.80926,-16.69,-13.82743,-11.42435,-8.826093,-6.671191,-4.560922,-2.391779,-0.6923018,0.5887823,1.005574,0.8003246,0.6739374,0.539057,0.7616171,1.170823,1.365551,0.5989211,-1.416606,-4.129903,-6.913548,-9.007316,-10.45052,-11.63036,-12.96669,-14.39938,-16.15669,-18.1531,-20.26069,-22.06482,-23.45768,-25.28817,-26.75285,-28.02815,-29.17619,-29.64774,-29.9847,-30.27068,-31.12561,-31.82659,-32.0656,-31.84525,-31.39238,-30.26365,-29.04078,-28.44313,-29.26899,-30.56694,-31.74601,-32.08172,-31.80505,-31.60905,-31.64317,-32.37795,-33.55654,-34.81722,-36.50708,-37.9708,-38.91609,-39.30392,-39.67712,-40.47139,-41.4989,-42.24122,-42.34232,-42.69572,-43.0582,-43.82784,-44.69557,-45.70269,-47.40368,-49.43032,-51.81022,-53.60695,-55.07665,-56.53081,-58.54359,-60.94102,-62.57673,-63.30377,-63.40981,-62.38042,-61.20433,-61.06423,-62.2218,-64.83249,-68.46171,-72.67327,-77.27835,-81.79052,-85.97822,-89.87336,-93.55374,-96.95596,-100.4428,-103.6733,-106.952,-109.8761,-112.6174,-115.091,-117.334,-119.2493,-121.1867,-123.1436,-124.4634,-125.4055,-125.4944,-125.3596,-124.853,-123.9905,-123.0495,-121.9657,-120.7874,-119.569,-117.7774,-115.984,-113.7225,-111.4232,-109.381,-107.1814,-104.8165,-101.986,-98.50132,-95.34592,-92.43329,-90.14763,-88.3833,-87.18686,-85.72961,-83.19721,-79.93023,-75.81665,-71.59222,-67.84287,-64.42445,-61.24601,-57.75967,-54.1631,-50.55756,-46.61892,-43.06061,-40.23248,-37.76526,-35.29373,-32.62338,-29.50709,-26.81566,-24.16852,-22.3484,-20.19857,-17.52043,-14.93577,-12.69534,-10.58525,-8.716941,-7.387726,-6.259075,-5.374476,-5.212043,-5.061616,-5.150213,-5.250436,-5.817665,-7.056348,-8.563876,-9.975248,-11.22538,-11.87335,-12.81653,-14.24324,-16.50281,-18.29746,-20.03115,-21.98484,-24.12483,-26.44298,-28.75357,-31.18707,-33.43948,-35.68787,-37.64784,-39.09773,-39.97577,-40.64221,-41.10388,-41.38032,-41.19943,-40.6747,-39.5788,-38.12536,-36.03143,-33.91055,-33.92654,-36.40708,-40.03823,-43.77854,-46.47727,-48.11392,-49.25771,-49.89954,-50.52703,-51.34441,-52.4135,-53.60454,-54.80569,-55.51597,-55.86834,-56.44219,-57.17705,-57.96266,-58.53802,-58.88836,-59.50118,-60.29134,-61.28686,-62.35873,-62.86892,-63.31536,-63.78998,-63.99988,-64.30494,-64.77532,-65.35234,-65.89249,-66.39182,-66.79938,-67.26226,-67.78239,-68.39197,-69.29,-70.28532,-71.33453,-72.32571,-73.86114,-75.08613,-76.09934,-76.8333,-77.23911,-77.77809,-78.86846,-80.48067,-82.01515,-83.65664,-85.47786,-87.14876,-89.28081,-91.36346,-93.72189,-96.31132,-99.24775,-102.4136,-105.757,-108.8717,-111.3624,-113.5811,-116.1345,-119.0407,-121.7448,-124.6595,-127.2896,-129.7286,-132.3324,-134.8777,-137.2704,-139.8817,-142.0524,-144.2161,-146.4943,-148.4074,-149.8406,-151.6282,-153.4939,-155.3023,-157.0358,-158.6704,-160.0706,-161.0585,-161.6405,-162.3725,-163.4137,-164.1607,-164.2861,-164.7134,-165.33,-166.0833,-165.1931,-163.3541,-161.4023,-160.7457,-161.0006,-161.4426,-161.6752,-161.4803,-161.6975,-161.7341,-161.9522,-162.3502,-162.9919,-163.621,-164.5205,-165.343,-166.1731,-167.0657,-168.1725,-169.2462,-169.5765,-168.6882,-167.8234,-166.8616,-165.9863,-165.5322,-164.903,-163.811,-162.643,-161.3538,-159.9394,-158.2993,-156.6581,-154.7175,-153.0315,-151.3138,-149.284,-147.5133,-145.6743,-143.6559,-141.0721,-138.023,-134.8501,-131.9071,-129.035,-126.4228,-123.3815,-119.7502,-116.4374,-113.1994,-110.3501,-107.7596,-104.6281,-101.1276,-97.99335,-94.50121,-90.5415,-86.21576,-81.84444,-77.19321,-72.92611,-68.3057,-63.63266,-59.49151,-55.66159,-52.10064,-48.11469,-44.23071,-40.34235,-36.85535,-33.67418,-30.4559,-27.12376,-24.27469,-21.75264,-19.47414,-17.30975,-15.1085,-12.96026,-11.14128,-10.01095,-9.563768,-9.429863,-9.635283,-9.735674,-9.886629,-9.781693,-9.659386,-9.906282,-10.56638,-11.10741,-11.99911,-12.6719,-12.92555,-14.15392,-15.97935,-17.35172,-18.55238,-19.68654,-20.81546,-21.88956,-23.12603,-24.33333,-25.71818,-27.15485,-28.09369,-28.86835,-29.30798,-29.47417,-29.74146,-29.35939,-30.1211,-31.98908,-34.46089,-36.50316,-38.43565,-40.72795,-42.86363,-44.66407,-46.4701,-48.90703,-51.38531,-53.47036,-55.23727,-57.27344,-59.36706,-61.58336,-63.61204,-65.50617,-67.67561,-69.55952,-71.34586,-73.05419,-74.77892,-77.00468,-79.23969,-81.22748,-83.23876,-85.12965,-86.18893,-86.51594,-86.6819,-87.47928,-89.12407,-91.51329,-93.96892,-96.57136,-99.43401,-102.0755,-104.9296,-108.1253,-111.473,-114.7415,-118.0319,-121.3138,-124.7027,-128.1139,-131.4335,-134.9284,-138.2627,-141.7524,-144.5525,-146.5149,-148.1396,-150.1025,-151.4524,-153.358,-155.3486,-156.3043,-156.8015,-157.1109,-156.8106,-156.3786,-155.6347,-154.6559,-153.8412,-152.338,-150.4179,-148.0616,-145.4971,-143.0253,-140.6502,-137.8387,-134.8977,-131.7765,-128.9727,-125.8061,-123.0541,-120.001,-117.2231,-114.8535,-112.3929,-109.6776,-106.555,-102.7737,-99.41343,-96.43612,-93.50759,-90.60994,-87.60969,-84.49345,-81.77682,-79.21422,-76.71821,-74.49898,-71.98494,-69.68101,-67.4789,-65.12181,-63.38118,-61.87031,-60.49154,-59.16589,-58.0572,-56.93284,-56.07191,-55.61934,-55.53661,-55.84031,-56.6395,-57.39551,-57.92671,-58.68511,-59.55863,-60.8127,-62.37885,-64.04876,-65.10122,-66.06756,-67.66779,-69.66142,-71.43072,-73.31054,-75.3717,-77.2603,-79.14373,-80.90305,-82.59912,-83.95135,-85.57759,-86.80112,-88.14582,-89.41587,-90.46095,-91.08013,-91.35135,-91.5851,-91.77879,-90.89704,-89.36643,-88.21612,-88.14936,-89.00525,-89.92045,-90.24954,-90.1583,-90.42058,-91.22283,-91.53644,-92.00279,-92.23551,-93.08391,-93.29756,-92.92312,-93.22121,-93.80271,-94.73844,-96.11466,-97.79224,-99.19515,-100.771,-102.8226,-105.1461,-106.9988,-108.9481,-110.8778,-113.6304,-116.0126,-117.094,-117.9684,-118.6236,-119.5778,-120.825,-122.026,-122.4925,-122.9624,-123.2883,-123.6683,-124.0799,-124.4081,-124.7794,-125.2168,-125.5895,-125.5747,-125.2164,-124.5543,-123.902,-123.3964,-122.1943,-120.9394,-119.8861,-118.952,-118.2937,-117.2155,-115.9577,-115.1493,-114.4021,-113.5221,-112.6102,-111.1211,-109.6721,-108.4304,-107.3462,-106.0595,-104.2786,-102.6375,-101.4079,-100.1465,-99.47354,-99.50475,-98.9049,-97.80304,-96.93486,-96.28151,-95.50206,-94.754,-94.14274,-93.74282,-93.34256,-92.36502,-91.15179,-89.89941,-89.25743,-88.60203,-87.94919,-87.23801,-87.10494,-87.07444,-86.89133,-86.58853,-86.50588,-86.89796,-87.52744,-87.80445,-87.62647,-87.71563,-88.30075,-89.34064,-90.25458,-91.07129,-91.98295,-93.43478,-94.96675,-96.27175,-97.85649,-98.00597,-98.06853,-98.98534,-100.3694,-101.7366,-103.0026,-104.7783,-107.0748,-108.7869,-110.3389,-111.9135,-114.2223,-116.67,-118.4348,-120.2852,-121.812,-123.871,-125.4056,-127.3217,-130.0205,-132.3004,-135.057,-138.0498,-140.4364,-141.9914,-143.6415,-144.9981,-146.7036,-148.5588,-150.3023,-152.2558,-154.2229,-155.6368,-155.7873,-155.8499,-156.1434,-156.6676,-156.8311,-156.4782,-155.2085,-154.0528,-152.7931,-151.4129,-149.5311,-147.2533,-144.4298,-141.6367,-138.4394,-134.7473,-130.6707,-126.455,-123.1857,-120.082,-115.9727,-111.3178,-106.2564,-101.4382,-96.62821,-91.47306,-85.97924,-80.10968,-74.3912,-68.61406,-62.52488,-56.39062,-50.55509,-44.99556,-40.24121,-35.39767,-30.41725,-25.62537,-21.48089,-18.12145,-15.46733,-12.24771,-7.517133,-1.919173,2.798894,6.467393,8.911884,10.52131,11.56416,12.23921,12.36054,12.30802,11.71501,10.91923,9.195212,7.024275,4.802416,2.780683,0.2644166,-2.761744,-5.669003,-8.596116,-11.54455,-14.79544,-17.74401,-20.70003,-23.47425,-26.11659,-28.93388,-31.30261,-33.36608,-35.17956,-36.70265,-37.67929,-38.33406,-38.71605,-38.56154,-37.26175,-36.70519,-37.24631,-37.40476,-36.33636,-34.86232,-33.23374,-31.46038,-29.45307,-27.52723,-25.27088,-22.62801,-19.81877,-16.72501,-13.70287,-10.2345,-7.028075,-3.944651,-0.7830813,2.72081,7.548789,12.63198,17.98867,23.27392,28.86398,34.51272,40.07423,44.64288,49.29082,54.39963,59.4405,64.79277,69.83694,74.70556,79.12316,83.36616,87.67461,91.41438,94.59234,97.75453,100.9348,103.8142,105.5171,106.6984,107.6027,108.3241,108.3624,107.6104,106.4418,104.7166,102.1094,99.02868,96.1821,93.5438,90.1469,86.376,82.14304,77.46815,72.87363,68.00917,63.20509,57.95202,52.7205,47.1144,41.40386,35.96619,30.63861,25.17869,20.00817,14.9887,10.27237,5.719618,1.734178,-2.020235,-5.074373,-7.134036,-9.812805,-13.8113,-18.73087,-23.74763,-27.59934,-30.72746,-34.07181,-37.79108,-41.31313,-44.35451,-47.15048,-50.33468,-53.19549,-55.81751,-58.08755,-60.2903,-62.22171,-64.01044,-65.7797,-67.3594,-68.79542,-69.68702,-70.97825,-71.84852,-72.1222,-72.38131,-72.6504,-73.08065,-73.36979,-72.77895,-71.48343,-70.27603,-68.85442,-67.50275,-66.124,-66.0938,-67.02086,-67.44271,-67.64131,-68.09129,-68.49331,-68.77735,-69.38571,-70.2487,-70.9066,-71.28659,-72.27793,-73.25747,-74.28565,-75.28175,-75.64285,-76.73307,-78.11459,-79.51585,-80.31359,-81.05869,-81.55487,-82.13383,-81.83339,-80.56436,-78.72148,-76.48705,-74.47518,-72.07386,-69.531,-66.78533,-64.14099,-62.70348,-61.62549,-60.6679,-59.51251,-58.73783,-58.37054,-58.22445,-57.44022,-56.40344,-55.60872,-55.02442,-55.23916,-55.1797,-55.25895,-55.63378,-56.74739,-58.4217,-59.64862,-60.75771,-62.09345,-63.78686,-66.24783,-67.92414,-69.24869,-70.31503,-71.42855,-72.9038,-74.60462,-76.61286,-78.65391,-80.8193,-83.47769,-85.7836,-87.04435,-88.0714,-88.05726,-88.00758,-87.21002,-85.45541,-83.02549,-80.86742,-78.16219,-74.841,-71.16804,-66.7091,-62.33429,-57.22057,-51.80087,-46.29684,-40.48813,-34.76246,-29.21969,-23.41751,-17.24354,-11.41961,-5.915077,0.6099264,7.41415,14.01772,20.15817,26.56751,33.29421,40.40434,47.64651,54.79187,61.27316,67.81662,74.25424,80.92073,87.72472,93.89919,99.95892,106.1716,112.026,117.0082,121.2046,124.0532,125.8216,127.111,129.1043,131.0468,132.0099,132.3693,133.0089,133.3395,132.9433,131.8059,130.6169,129.0932,127.3383,125.4464,122.2271,118.3149,114.5808,110.2364,106.0965,102.1638,98.6884,96.05216,94.0951,92.84072,92.71265,92.04287,91.65991,91.16279,89.57844,88.58407,87.44947,86.49468,85.39602,83.71878,83.06623,82.86023,83.30285,84.358,85.24981,86.66419,89.14028,91.61593,94.06414,95.69095,97.30771,99.86619,102.3533,105.0593,107.4512,109.9418,112.7599,115.4296,118.1293,120.3381,122.3364,125.0927,127.2269,129.0944,129.7436,129.755,129.6352,129.4558,128.901,127.2011,125.3743,124.7789,125.1173,125.4134,125.561,124.8154,124.7607,124.65,124.9025,124.6259,124.2848,123.9864,124.0008,123.8444,123.5053,123.0674,122.1204,121.1788,120.2364,118.7591,116.9292,115.2254,113.6055,112.3123,111.566,110.9216,108.4035,105.5818,103.4784,102.046,99.45301,96.44131,93.04679,90.01408,87.13118,84.02999,80.92377,77.927,74.46832,70.451,66.42739,61.99389,57.5648,53.76205,49.4037,45.04854,40.70823,36.75694,33.17324,29.79092,26.1709,22.72108,19.9005,16.85607,14.46766,11.8804,9.676581,7.423521,5.964081,4.516711,2.977457,1.889902,1.443248,1.442787,1.065511,0.6884507,0.7439032,1.252558,1.839167,2.745932,2.932268,1.989438,1.830344,1.438407,1.637579,2.201754,2.226957,2.532315,3.057505,3.605823,4.197295,4.539029,5.082335,5.744369,6.32191,6.911482,7.344576,7.613374,8.196181,8.480318,8.784998,8.90416,8.982542,9.015506,9.291357,9.473015,9.334589,9.304493,9.087048,8.877222,8.881754,8.35968,7.558647,6.790054,6.015759,5.177314,3.888759,1.760575,-0.534203,-2.634294,-3.629072,-4.817906,-6.877127,-8.532852,-10.46582,-11.85797,-13.26316,-15.2227,-16.61697,-18.54368,-20.76743,-23.25885,-24.81166,-25.9412,-26.56621,-27.16412,-27.71521,-27.97862,-27.44965,-26.94384,-26.29388,-25.12055,-24.11278,-22.64902,-21.31949,-20.3989,-19.87975,-19.16038,-17.42608,-15.95857,-15.21489,-14.21001,-13.72302,-11.31491,-8.901007,-8.22179,-8.293705,-8.705139,-9.11479,-9.814349,-10.55089,-11.43478,-12.68983,-13.58468,-15.11,-16.43881,-18.30603,-20.26085,-21.91367,-23.41087,-24.6094,-24.96056,-24.44654,-24.50187,-25.30703,-28.08836,-31.53451,-34.99104,-38.48685,-41.62188,-44.87627,-48.72934,-52.81369,-56.39551,-59.81114,-62.75561,-65.75503,-68.95901,-71.87414,-74.08375,-75.68792,-77.41222,-78.90645,-79.76688,-79.94851,-80.16804,-80.0736,-79.69008,-78.85178,-77.48889,-75.75675,-73.6908,-71.6528,-68.87749,-65.62121,-62.379,-58.79303,-54.49243,-49.87782,-45.19279,-40.40736,-35.64746,-30.87247,-25.45572,-19.1772,-13.18792,-6.888596,-0.2025072,6.175016,11.75809,17.14441,21.9329,26.3257,31.01778,36.24223,41.7467,46.71723,51.46678,56.80637,62.01536,67.46819,73.56693,79.1201,85.16152,91.22587,97.54334,102.3531,106.6445,110.5197,114.0867,117.8679,121.6265,125.6111,128.4959,131.4263,133.5877,135.3437,136.8828,138.1838,139.1239,139.1719,139.2617,138.3024,137.9282,136.8399,136.1014,134.1329,131.6395,129.2686,126.678,124.211,121.7977,118.7599,116.3933,112.7666,107.9009,103.8572,101.0481,98.6469,95.06015,91.22616,87.20568,83.1512,79.16399,75.65227,72.46144,69.52965,66.65677,64.15946,62.66092,61.40046,59.72547,57.04379,52.60302,47.84922,43.31813,39.59123,36.09917,32.19402,29.6661,26.46872,23.14571,20.23763,17.44149,15.05303,13.15893,10.94863,9.52187,7.997584,7.542173,6.947047,6.635871,6.258513,6.490625,7.349247,8.662744,9.806749,10.8153,12.18728,14.35138,17.11031,19.86466,22.62109,25.34967,28.91745,32.99774,36.91225,40.54931,44.07877,47.80354,52.06917,56.1259,59.96363,63.78317,67.31041,70.45471,73.81088,75.64347,76.60569,76.89921,77.61964,78.53162,79.18778,79.92998,80.83874,81.8139,82.56525,83.46893,84.46561,85.3685,87.52382,89.79608,90.60777,91.4103,92.70633,93.66774,93.35305,93.46858,93.61574,93.93005,94.26655,94.40613,93.89712,93.24731,92.91428,92.85295,92.89187,92.74952,91.95498,91.4599,90.01502,89.46708,88.76766,87.68376,85.79287,85.04576,83.39213,82.20179,81.05806,80.38816,80.03533,79.4351,78.63073,78.45829,78.66659,78.65998,79.5936,80.65599,80.38135,79.43852,79.40407,79.80663,80.274,79.79804,80.39345,80.9302,81.42792,81.40694,81.85775,82.57845,83.18623,83.68768,84.57718,85.02633,85.8659,86.67639,87.44894,88.24149,88.82356,89.7434,90.11149,90.8419,91.59708,91.82809,92.54284,93.35042,94.34334,95.72133,96.01991,96.87568,97.43897,98.87874,99.57945,100.4553,101.395,102.4845,103.1968,103.9941,105.0865,106.0553,106.964,107.8276,108.6818,109.3755,110.8969,111.922,112.6249,113.7323,114.7971,115.1944,116.31,117.2872,118.162,118.4102,118.7332,119.7287,120.8293,122.2419,124.1369,125.2227,125.2905,125.8555,125.8075,125.2426,124.5454,123.8447,123.0129,121.7657,120.323,118.6454,117.414,115.9656,114.358,112.5878,110.3528,108.5969,107.1302,105.9487,104.7421,103.1347,102.0691,101.5962,100.6767,100.2789,99.96099,99.91345,99.64676,99.91074,99.63298,99.38686,99.24655,99.58559,100.4099,100.5879,100.8525,101.9349,102.949,104.3457,105.3392,106.3855,107.9587,109.6135,111.2825,112.9485,114.1309,115.7421,117.9537,120.0887,121.8532,123.294,125.2059,127.3617,129.4486,131.0222,133.1403,134.8107,136.6211,138.3418,140.411,141.9095,143.1565,144.8492,146.4222,147.4244,148.1774,148.7269,149.4258,150.0289,150.1177,149.9389,149.8836,149.8939,149.6755,149.0066,148.1822,147.2848,146.5108,145.6884,144.2458,142.6012,140.7187,139.2883,137.7603,135.8331,133.6895,131.3707,129.004,126.9005,124.5679,121.5854,119.0661,116.9174,114.8892,112.7882,110.2506,107.7168,105.5801,103.928,101.9936,99.99178,98.62196,97.48943,96.64443,95.59297,95.1532,95.16864,94.50155,94.56129,93.46833,91.51089,89.97722,89.72972,88.84103,87.9611,86.90158,85.86999,84.95833,84.14838,84.6933,84.67105,83.58372,82.49045,81.64837,80.34236,78.73953,77.89005,76.49407,74.90457,73.30787,71.20308,69.55712,67.81925,65.71784,63.59167,61.39996,59.29571,57.45054,55.278,52.78641,50.30447,47.83233,45.49643,43.42798,40.81271,38.40717,36.15539,33.77472,31.50069,28.94038,26.56452,24.24245,21.94183,19.5797,17.52278,15.20189,12.96444,10.67103,8.947706,6.876586,4.146972,1.488725,-1.86007,-5.333035,-8.39551,-11.20683,-13.02351,-13.26964,-13.10024,-13.0962,-13.88406,-14.07425,-13.57095,-13.42998,-13.14481,-12.91565,-12.49104,-11.7352,-11.39669,-10.84081,-10.40999,-10.06356,-9.76276,-9.223505,-9.083066,-9.004629,-9.327145,-9.507065,-9.442748,-9.751063,-10.61296,-11.3422,-12.00299,-12.75096,-13.84039,-14.9132,-16.59349,-17.96276,-19.54978,-21.05763,-23.29237,-25.29999,-27.27435,-29.48761,-31.72617,-34.36363,-37.48192,-40.12254,-42.70403,-45.82023,-49.50431,-52.97457,-56.26025,-60.07427,-64.04415,-67.96977,-72.23102,-76.81467,-80.34546,-83.54044,-86.85541,-90.04809,-93.07696,-96.13736,-98.4105,-100.7794,-103.3222,-105.348,-106.6927,-107.46,-109.9467,-112.6445,-114.0638,-115.2269,-116.4121,-117.3631,-118.3961,-119.4771,-119.7456,-119.8425,-119.6789,-119.3932,-118.7577,-117.7099,-116.3904,-115.0881,-113.9422,-112.6234,-111.3978,-109.1012,-107.2045,-105.4315,-103.3821,-101.0738,-98.70564,-95.99313,-93.92966,-91.97753,-89.54299,-86.65431,-84.12767,-82.26751,-80.39876,-78.35602,-76.36152,-74.94337,-74.04712,-73.40225,-72.57484,-72.65137,-73.48085,-73.005,-71.44483,-70.16948,-68.74692,-66.93374,-64.56197,-62.45887,-61.41602,-60.4931,-59.4671,-58.31552,-57.19499,-56.17883,-54.9338,-53.55733,-52.56748,-51.60223,-50.55205,-48.73634,-47.44798,-46.03971,-44.29315,-42.59506,-40.87158,-38.51241,-37.55379,-36.44164,-34.5388,-31.79632,-29.35116,-26.71887,-24.22367,-21.23174,-17.84993,-14.20486,-10.85387,-7.43162,-3.693729,0.390125,4.33699,8.536294,12.48304,16.70193,21.06227,25.16989,28.99583,33.21083,37.04818,40.95264,44.85372,48.49239,51.99674,55.36209,58.90582,62.63497,65.64985,68.70098,72.10188,75.43797,78.12796,80.70764,82.87112,84.28967,86.21956,87.64849,88.63982,89.51448,89.1711,88.3354,87.54006,86.66342,85.62422,84.9906,84.89858,85.52994,85.55074,85.57749,85.94663,86.50965,88.16079,89.66795,89.79997,89.7317,89.86293,89.89946,89.61731,88.83165,88.01486,87.35043,86.3011,84.71119,82.63624,80.7601,78.79856,77.00298,74.43092,71.94225,69.3396,66.84132,64.03638,61.2178,58.08643,54.90171,52.28387,49.93601,47.16464,44.1299,41.56802,39.41097,37.52233,36.19971,33.30937,29.1353,25.94005,23.3539,20.5719,17.22034,13.33953,10.4758,7.43809,4.109918,0.8047147,-2.777714,-6.191452,-9.402857,-12.85533,-16.29124,-20.10263,-23.32345,-26.72619,-29.73933,-33.62035,-37.41407,-40.87276,-44.38843,-48.28342,-51.05055,-53.38201,-55.37312,-57.79763,-59.34154,-60.0408,-59.98537,-59.96251,-60.52792,-61.71458,-63.02453,-64.25145,-65.28846,-66.0619,-67.13467,-68.43372,-69.54209,-70.58568,-71.10492,-71.65927,-72.16651,-72.78208,-73.27093,-73.29095,-72.92542,-72.1531,-71.38085,-69.94895,-67.88843,-66.02651,-63.99408,-62.41519,-60.64269,-58.82564,-56.72722,-54.97815,-53.57267,-51.91193,-50.55054,-49.60258,-49.41894,-49.08411,-47.47891,-44.95094,-42.28923,-39.56195,-36.44161,-32.94792,-28.90209,-25.29414,-21.55987,-17.31718,-12.9178,-7.846326,-3.975392,-0.8455588,3.216687,7.251599,11.48803,15.25129,18.76089,22.33524,25.64581,29.04038,32.65519,35.51295,38.23965,40.81511,43.29107,45.75732,48.04045,49.56342,51.3735,53.1682,54.60395,55.66631,56.5645,57.44501,58.1915,58.30983,58.1043,57.7658,57.39726,56.83241,56.21392,54.94871,53.43652,51.83379,50.24473,48.46587,46.20645,43.86622,42.15495,39.67361,37.06074,34.45993,31.70588,28.8726,26.10462,23.74321,20.61449,17.67785,15.49788,12.90148,10.69857,8.195759,6.372367,4.470425,3.16023,2.615244,1.88489,1.457323,1.398139,2.281709,3.805755,4.798259,5.124754,4.638969,4.24156,4.134877,4.41922,4.043515,3.76079,3.732087,3.85535,3.783286,3.17955,2.873198,2.71321,2.564674,2.014734,1.07005,0.4740927,0.4731413,0.45099,0.3598859,0.3727739,0.5158066,0.2743743,0.4684402,0.2555488,-0.05809419,-0.1503267,-0.270677,-0.05858441,-0.2439028,-0.6899713,-1.51478,-1.814571,-1.65892,-1.801462,-1.665002,-2.142791,-2.344967,-2.477906,-2.573357,-3.022222,-3.430765,-3.873357,-3.718687,-3.848234,-4.23438,-4.544385,-4.747114,-4.875323,-5.147129,-5.369335,-5.75022,-5.776781,-6.148762,-6.310065,-6.486764,-6.777668,-7.135597,-7.05919,-7.844088,-8.052352,-8.517687,-9.135679,-9.212402,-9.304654,-9.936627,-10.26136,-10.63966,-11.20665,-11.58221,-12.12086,-12.70395,-13.10016,-13.73179,-14.09117,-14.79014,-15.16824,-15.30926,-15.80268,-16.16274,-16.80063,-17.42321,-17.93403,-18.50909,-18.67416,-19.11195,-19.40531,-20.22383,-20.58465,-20.55096,-20.99964,-21.53553,-21.97756,-22.16544,-22.743,-22.77231,-23.22546,-23.9087,-23.80806,-23.86507,-24.14523,-24.54334,-24.83935,-24.83813,-24.98833,-25.12039,-25.20164,-25.16189,-25.24543,-25.27292,-24.9851,-25.38591,-25.58189,-25.48683,-25.00661,-25.25225,-24.50478,-23.03655,-21.61133,-21.1304,-20.91625,-20.70164,-21.07163,-21.4989,-22.00135,-22.51925,-23.43301,-24.52758,-25.06434,-25.88944,-26.6095,-27.68673,-29.2255,-29.91899,-30.95819,-31.66785,-32.29785,-33.03576,-33.51544,-33.54669,-33.63386,-33.74739,-33.46784,-33.22893,-33.13038,-32.84903,-32.25448,-31.28231,-30.20322,-29.18094,-28.1992,-27.15408,-26.06398,-24.24281,-22.33312,-20.51188,-18.5331,-16.56141,-14.26964,-11.83689,-9.242755,-7.111727,-4.578135,-2.097735,0.9751225,3.8836,6.104857,8.773345,11.76578,14.67711,17.4858,19.9067,22.4847,25.575,28.64426,31.32551,34.07244,36.57738,39.10658,42.04399,44.98583,47.25556,49.29673,51.79336,54.51023,56.53054,58.40147,60.09514,61.5226,63.44141,64.71289,65.87403,66.25638,67.00191,67.93611,68.25682,68.22868,68.12862,68.00504,67.87588,67.23634,66.2636,65.28914,64.12985,62.90283,62.10513,60.62471,58.74479,57.20344,55.51894,53.62395,51.71634,49.28524,47.50708,45.63402,43.95538,42.25119,40.22925,38.55954,37.46675,36.23825,34.80358,34.23224,33.9377,33.79782,33.97063,34.27744,33.96872,33.17922,32.24716,31.90242,31.29285,30.48269,29.6677,29.32066,28.72191,28.20019,27.59633,27.34702,26.16926,24.53606,23.16995,22.30656,21.98924,21.81376,21.81887,22.2335,22.40872,22.60518,24.24937,25.00788,25.52503,26.0347,26.4786,27.25636,28.09329,28.94242,28.96787,29.25612,29.27214,29.42707,29.06037,28.94977,28.82303,28.76761,28.33574,27.94901,27.15455,26.01892,25.33818,24.10695,23.09863,21.60655,19.77108,18.23906,16.30936,14.25584,12.43136,10.04845,7.713817,5.5809,3.510879,0.7380134,-1.508716,-3.827813,-6.540229,-8.292395,-11.01632,-13.6205,-15.98421,-18.08196,-20.86571,-23.24071,-25.49301,-27.77255,-30.46768,-32.8146,-35.08184,-37.20949,-39.4587,-41.27773,-43.34701,-45.61207,-46.38229,-47.97915,-49.67481,-51.27673,-52.21446,-54.24161,-55.36175,-56.26835,-57.34544,-58.14494,-59.26068,-59.88321,-60.26325,-60.8695,-61.32459,-61.23202,-61.31653,-60.97325,-60.10746,-59.69874,-58.58902,-57.63796,-56.0663,-54.62874,-53.19199,-51.77003,-50.19396,-48.69836,-46.81501,-44.83194,-43.67553,-42.20922,-39.91517,-38.6059,-36.53602,-34.7919,-32.70733,-30.75216,-29.40934,-28.06052,-26.97225,-25.67575,-24.52253,-23.48585,-23.41806,-23.47557,-24.4758,-24.40622,-23.04214,-21.94172,-21.24746,-20.61609,-19.66414,-18.20835,-17.20362,-16.72312,-15.39958,-14.87574,-14.30791,-13.63525,-13.58887,-13.10188,-12.55911,-12.18419,-12.08203,-11.42675,-11.58809,-11.28069,-10.61231,-9.658467,-9.861236,-9.622493,-9.000311,-8.514253,-8.388069,-8.342319,-8.874541,-8.554,-7.860697,-8.104342,-8.155263,-7.518587,-7.320679,-6.342656,-5.730943,-5.349654,-5.300983,-4.602987,-3.931014,-3.299731,-2.675745,-2.539301,-2.308465,-1.150804,-1.268474,-0.5353355,0.07643617,0.6788169,1.620404,2.851307,3.480999,4.045279,4.893192,6.3635,7.304962,8.21353,8.818849,10.2621,11.26678,12.67244,13.98335,14.13333,14.85731,16.17152,17.35093,17.42708,17.8124,18.59786,19.04063,19.7757,19.70836,20.10632,20.17783,20.49505,20.86697,21.01326,20.86562,21.22379,20.98169,20.35739,20.27151,20.41507,20.46274,21.00545,21.00065,21.30749,21.91178,22.17896,23.17667,23.76145,24.2369,24.68834,25.67801,26.57501,27.87258,28.53708,29.27083,29.60553,30.06907,31.13872,31.36988,31.31127,31.31173,31.33298,31.20455,30.9669,30.38239,30.6697,30.54332,30.64946,30.17814,29.52453,28.79268,28.47203,27.93123,26.64709,25.90066,24.96729,23.67083,22.87344,21.53867,20.38836,19.08154,17.98162,16.6596,15.79774,14.0983,12.56879,11.58926,10.17446,8.113335,6.883905,5.31356,3.657123,2.207852,0.3088198,-1.209491,-2.122835,-3.640486,-5.084625,-6.370707,-7.437914,-9.112197,-9.785048,-11.45339,-12.82738,-14.36635,-15.63381,-16.78259,-18.10661,-19.54379,-20.71837,-22.14801,-22.70132,-23.18496,-23.87298,-24.66927,-25.56699,-25.56162,-25.74445,-26.14139,-26.44932,-26.76689,-26.94026,-26.85466,-26.61178,-26.39712,-25.82605,-25.35391,-24.36795,-23.68826,-22.34419,-21.1016,-20.02393,-18.9247,-18.7038,-18.40451,-17.68644,-18.06142,-17.95189,-18.49868,-19.29005,-20.53188,-21.35922,-21.92751,-22.98883,-24.23187,-25.61784,-27.29956,-27.82361,-28.15511,-28.54194,-29.69635,-29.90631,-30.36774,-30.03606,-29.98262,-30.52506,-29.99618,-29.77682,-29.06418,-29.07308,-28.05907,-26.93843,-26.21968,-24.89031,-23.81283,-22.50958,-20.99165,-19.02172,-17.33344,-15.89238,-14.31551,-12.21648,-10.04486,-7.969269,-6.09692,-4.163564,-2.225583,0.1283935,2.214933,4.358766,6.218936,8.626545,10.77018,12.60591,14.87074,16.84615,18.62337,20.57637,22.42853,24.15583,25.76265,27.28273,28.95824,30.9235,32.04092,32.95092,34.36041,35.42617,36.58547,37.57766,38.30916,38.75907,39.62106,39.65629,40.05079,39.39524,39.29741,39.06673,38.36553,38.17866,36.9431,35.85284,34.68933,33.77379,32.3106,30.37279,29.03541,27.10516,25.69056,23.72309,21.73708,19.88046,18.05876,16.0209,14.23028,12.21458,10.94324,9.055647,7.71286,6.056771,4.330751,3.146463,2.143045,1.367248,0.5005851,0.08384259,-0.6202446,-0.5138372,-0.3823292,-0.1001664,-0.7623669,-1.748328,-1.586276,-2.436386,-2.62613,-3.099292,-3.89104,-4.173091,-4.627168,-4.74223,-5.035242,-5.539522,-5.74058,-5.706957,-6.12257,-6.663863,-7.116445,-7.306904,-7.79102,-8.1361,-9.059073,-9.325437,-9.762485,-9.97932,-10.55416,-11.61198,-12.23166,-13.06618,-13.44775,-14.57598,-14.69569,-16.00683,-16.7251,-17.13055,-17.6734,-18.7184,-19.5803,-20.34198,-21.19977,-22.21192,-22.98242,-23.75648,-24.69903,-25.28828,-25.64762,-26.3885,-26.9894,-27.15653,-27.10913,-27.29082,-27.27273,-27.55095,-27.33877,-27.07395,-26.18389,-25.9801,-25.74401,-25.06505,-23.9204,-22.90432,-22.02238,-21.07909,-19.85142,-18.4258,-16.77707,-15.3807,-13.94217,-12.48657,-10.30712,-8.408115,-6.571707,-4.960348,-2.99163,-1.021801,1.331037,3.265141,5.011133,6.776576,8.992907,11.69657,12.89522,15.09736,17.10963,18.98982,21.09553,22.64266,24.36193,25.62862,27.73591,29.69539,31.06749,32.36413,33.68345,34.98994,36.45654,37.26354,37.55948,37.93707,38.69774,39.435,40.10183,40.77071,41.39258,42.4866,43.42043,44.01501,44.67716,45.29457,45.95598,47.22631,47.2345,47.50539,47.92792,48.07929,48.75,48.84979,48.47318,48.22102,48.4501,48.19121,47.39188,47.02972,46.6827,45.87788,45.21352,44.54856,43.5144,42.1043,41.22782,40.55566,39.36371,37.97558,36.62864,35.16319,33.73446,31.98287,30.50861,28.53977,27.14163,25.2031,23.58291,20.8257,18.93576,16.56412,14.58627,12.02458,9.611098,6.572023,4.303507,1.897358,-0.8463749,-3.851948,-6.54446,-8.827517,-11.10334,-13.68675,-16.03315,-18.58085,-21.00835,-22.90871,-25.16222,-27.95298,-29.80057,-32.17499,-33.52788,-35.66215,-37.6673,-39.52365,-40.95187,-42.02557,-43.98551,-45.36681,-46.80269,-47.95506,-48.84708,-49.79851,-50.90668,-51.94583,-52.1341,-52.66767,-52.86899,-53.46459,-53.7664,-53.5563,-53.35348,-53.28383,-54.05051,-52.28741,-50.61193,-49.31778,-48.00682,-46.82437,-46.27115,-46.29558,-45.25848,-45.47901,-46.0248,-46.63423,-47.13405,-47.89228,-49.37614,-50.43558,-52.22899,-53.40818,-54.55278,-55.75852,-57.42798,-58.17648,-59.02706,-58.80406,-59.61761,-59.742,-59.90148,-59.37496,-58.82132,-58.13476,-57.08945,-56.37379,-54.81838,-53.06541,-51.90595,-49.89054,-48.20388,-46.49398,-44.17477,-41.79216,-39.42545,-36.99994,-34.18811,-31.27849,-27.87777,-24.84979,-22.32128,-19.39487,-15.89931,-12.64336,-9.645706,-6.626007,-3.102197,0.3871667,3.778597,6.934535,10.09153,12.75161,16.11247,19.49241,22.38208,25.00786,27.86632,30.6871,33.13048,35.40693,37.55627,39.33012,41.73104,43.74173,44.91401,45.64378,47.00095,47.84973,48.79271,49.37628,49.77651,49.61529,49.67849,49.89217,49.59857,48.68455,47.71262,47.39803,46.78731,45.78314,44.85346,43.24405,42.08405,40.48778,38.67777,36.85387,35.0494,32.94929,30.9521,29.05329,26.3364,24.53881,22.36661,20.52342,18.92488,16.82931,15.09283,13.67466,12.57037,11.15007,10.2571,9.228617,8.978162,8.583437,9.167986,10.65132,10.38551,10.34172,10.87858,10.64995,10.36057,9.821733,10.16256,9.638114,9.368883,8.899226,8.409688,8.197112,7.546217,7.913445,7.471258,7.469055,7.393185,7.314463,7.16447,7.161475,7.109684,6.951229,6.638962,7.102751,6.771896,6.737814,6.811351,6.44135,6.506214,6.431592,5.958034,6.175488,6.102314,6.044148,6.149882,5.801542,5.824583,6.086266,6.044727,5.800477,5.512034,5.14725,4.451447,3.983669,3.657793,3.172599,3.006138,3.154635,2.996656,3.186714,2.929689,2.298826,2.346328,2.143615,1.458102,0.6828599,0.2916816,-0.2476458,-0.586452,-0.8431656,-1.287951,-1.594579,-1.772447,-2.085203,-2.57459,-2.44761,-2.795423,-3.305374,-4.134389,-4.681349,-5.207043,-6.201773,-7.040297,-7.071307,-7.152789,-7.503558,-7.322045,-7.619094,-8.122117,-9.168275,-9.447568,-10.48907,-10.96973,-11.96019,-12.72751,-14.17247,-15.67377,-16.38981,-17.00198,-17.49497,-18.1668,-18.52303,-18.29508,-18.64943,-18.41767,-17.66261,-18.33051,-17.51365,-16.78597,-17.25744,-17.14132,-17.3416,-17.51511,-17.19394,-16.63952,-16.31136,-15.43314,-15.05178,-13.72275,-12.96457,-12.08647,-11.61235,-10.42845,-9.185847,-8.278537,-7.685609,-7.093575,-6.170171,-6.284586,-6.185807,-6.206134,-5.790868,-5.322336,-3.197128,-2.151119,-0.6410319,1.138442,3.051004,5.328691,7.061828,9.250206,11.21923,13.4623,15.87666,18.27073,20.37033,22.26746,24.37825,27.27937,29.38104,31.32239,33.74782,35.3409,37.35541,39.2066,39.92835,40.63218,42.12615,43.13886,43.89757,43.95756,44.00206,44.1477,44.87858,44.9921,44.60442,44.21104,43.38672,42.76495,42.0516,40.26666,38.42626,37.33352,35.59356,33.61229,31.33455,29.29535,27.27859,25.75327,23.41362,21.4424,18.99416,16.94999,14.59197,12.73219,10.83969,7.820534,5.779107,3.761388,1.752451,-0.2676011,-2.142768,-3.605771,-4.618056,-6.20231,-8.222307,-10.58772,-13.02246,-14.81295,-16.88947,-18.74265,-21.52823,-22.55978,-24.28866,-25.73969,-27.7119,-29.12427,-29.58535,-29.93654,-30.64869,-30.9184,-31.113,-31.59187,-31.29007,-31.41837,-31.30235,-31.61648,-31.21626,-30.98734,-30.91107,-30.05679,-30.34686,-28.61874,-27.3027,-24.70187,-22.73622,-21.05876,-19.7595,-18.3945,-17.45225,-17.42386,-18.18919,-18.34489,-19.16087,-21.00796,-22.84383,-25.29946,-28.14588,-30.90862,-33.14153,-35.26666,-37.26832,-39.49493,-40.92162,-42.82656,-44.32939,-45.81074,-47.63644,-48.98435,-49.73146,-51.01054,-51.81793,-52.58207,-52.54713,-52.40623,-52.27481,-51.98264,-51.16656,-50.20547,-48.73281,-47.16966,-45.62435,-44.15979,-41.84791,-39.40697,-37.15796,-34.98484,-32.57599,-29.60551,-26.51372,-23.47336,-20.47777,-17.36172,-13.72262,-10.26358,-6.762018,-3.380996,0.07865564,3.636403,7.502448,10.92808,14.15441,17.248,20.78316,24.22606,27.53122,30.48261,33.12417,36.1454,38.89811,41.79509,44.05099,45.97732,47.74806,50.04199,51.99891,53.31912,54.2431,55.319,56.97564,57.47913,57.72195,57.86403,57.63544,57.83438,56.98463,56.10023,54.57141,53.33258,52.09863,50.21837,48.0868,45.66437,43.36213,41.37154,38.69519,36.4516,34.08994,31.91307,28.96227,26.35283,22.94406,19.82356,16.84875,14.04916,11.92511,9.398167,7.050984,5.475083,4.094404,3.68996,2.635498,3.075737,3.081172,4.395502,3.915501,3.616159,2.923428,2.570764,2.017501,1.360313,0.7077611,0.5731623,0.1715924,0.1541326,0.6563916,0.2241848,0.1819762,0.8214612,1.004615,1.314029,1.533318,1.414519,1.549933,2.024076,1.993208,1.981562,1.783094,2.010495,2.563883,2.532848,3.425628,3.551035,3.926907,4.140844,4.796833,4.97076,5.082412,5.406932,5.411794,5.000514,5.107796,4.918726,4.869941,4.916543,5.246952,4.668173,4.609191,4.970022,4.47851,4.560143,4.288668,3.730817,3.071582,2.583357,1.608041,0.7366715,-0.3201874,-1.350347,-1.589732,-2.098695,-2.911828,-3.786642,-4.175751,-5.421129,-5.95766,-7.049449,-7.809714,-9.170149,-10.13694,-11.42539,-12.93745,-13.64496,-15.11692,-15.7233,-16.47512,-17.56612,-18.7072,-19.51063,-20.55308,-21.87952,-22.59545,-23.85154,-25.19372,-25.89888,-26.81479,-28.15193,-29.88381,-31.10313,-32.10917,-33.13269,-33.94056,-34.60825,-35.20481,-35.54712,-35.84172,-35.73783,-35.98428,-36.63535,-37.3526,-37.53309,-37.53867,-37.32537,-37.34853,-36.54998,-36.39808,-35.19535,-34.90765,-34.18824,-33.34595,-31.46358,-30.50844,-29.28589,-28.01218,-26.48483,-24.92896,-23.56534,-21.59238,-20.05458,-18.34587,-16.03244,-13.5037,-10.86451,-9.214291,-6.557754,-3.301417,-1.632645,1.450992,3.646708,5.733779,8.312612,10.96117,12.92457,15.07966,17.44553,19.8472,22.4693,24.57149,26.45664,28.71297,30.71536,32.76288,34.46526,36.26379,37.62165,39.43916,40.89124,41.74406,42.8602,43.63454,45.18158,46.488,46.64517,47.18776,48.39965,48.83005,49.29132,50.1708,50.53263,50.25117,50.81272,50.55932,50.12726,50.14985,50.36556,50.74247,51.8971,52.65523,53.3143,54.29592,55.13464,55.55263,55.98179,56.38476,56.58657,57.74345,57.96524,58.1425,57.7962,57.85113,57.92042,58.38642,58.56723,57.48657,57.85424,57.53529,57.10652,56.3446,55.32895,54.16578,53.62696,52.4268,51.0881,49.25217,47.58857,45.48342,42.7884,40.73665,38.14944,35.50157,33.09561,30.46244,27.74708,24.26465,21.25909,18.34024,15.44947,11.92579,8.425091,4.884903,1.697697,-1.03659,-4.500862,-8.384213,-11.92812,-15.43984,-17.75601,-21.49557,-24.56739,-27.54486,-30.13216,-33.1653,-35.48057,-38.33522,-40.79769,-43.2923,-45.51672,-46.78976,-49.46338,-50.92533,-52.45368,-53.64941,-55.17005,-56.84734,-57.46685,-57.95327,-58.97006,-59.16972,-59.89113,-60.263,-60.39163,-60.38922,-60.29291,-60.35622,-60.16453,-59.76121,-58.88584,-57.71432,-56.8436,-56.44267,-55.07447,-53.67748,-52.01321,-51.61527,-51.61726,-51.96968,-52.21637,-52.96381,-53.6425,-54.81908,-56.02398,-57.79189,-59.16625,-60.51902,-61.26107,-63.19405,-63.57446,-65.25365,-66.84955,-69.15248,-70.52299,-72.20313,-72.66999,-73.14556,-73.72285,-73.87272,-73.43195,-73.06676,-72.48788,-72.21414,-71.8043,-70.12692,-68.19832,-66.68464,-65.08331,-62.50173,-59.88852,-56.78336,-54.45448,-51.5661,-47.94112,-44.30274,-40.90098,-37.03206,-33.32011,-29.91518,-26.08559,-22.23941,-18.7779,-15.26408,-11.70719,-7.81001,-5.110937,-2.300931,0.6089326,2.999474,5.649941,8.435515,10.64168,12.39778,14.33835,15.31697,16.6951,17.68087,18.69498,19.76648,20.17607,20.43241,20.70541,20.83441,20.74893,20.75219,20.5471,20.23624,19.79373,18.92944,18.34037,17.0317,15.99438,15.01344,13.42501,12.24824,11.24422,9.390226,7.985561,6.472286,5.000707,4.116911,3.204401,1.622312,0.3836568,-0.9567605,-1.566498,-2.612644,-3.27711,-4.239095,-5.185278,-5.025434,-5.205576,-5.650057,-5.054598,-4.089952,-2.492528,-0.9355317,1.268631,2.784476,5.642971,8.283636,10.19918,12.54834,15.43677,17.66595,20.05115,21.58432,23.37423,25.22663,27.74861,29.89281,32.13698,34.21881,35.51121,37.58139,39.12951,40.81977,42.01538,42.46505,43.24257,43.28467,43.46419,42.7676,43.25934,42.96762,43.18177,43.64677,42.98563,42.23493,42.14548,41.91247,41.21719,39.3018,39.43732,38.73759,38.1953,37.53991,37.23155,37.17844,36.78585,36.4967,35.31143,35.69807,34.93494,34.60902,34.57017,34.50035,33.68812,32.74526,32.00769,31.77842,30.99934,31.15888,30.53601,29.91179,29.2336,29.48067,29.29454,28.01191,27.69043,27.00052,26.29713,25.55354,24.14861,22.89897,22.88335,22.06364,21.54675,20.74306,19.67197,19.18195,18.97308,18.17538,16.81226,16.92047,15.8286,14.91706,13.16084,11.61518,10.12638,9.615583,8.752331,8.039645,6.996232,6.192229,5.793128,5.776343,5.514369,5.223553,5.157692,5.213376,4.945501,2.970603,1.487582,0.04737198,-1.005511,-2.201847,-2.800844,-4.028422,-4.935066,-4.65845,-5.086124,-4.61784,-5.087191,-4.991842,-4.756586,-4.711643,-5.075809,-5.922977,-6.109374,-5.817297,-5.896861,-5.294354,-5.001851,-4.452554,-3.739154,-2.5238,-1.598031,-1.119147,-0.3034341,0.6148965,1.550383,2.298229,2.356484,3.342614,3.125562,3.963079,3.458921,3.03867,2.453403,2.261107,2.598618,3.618341,4.381416,4.707706,6.297051,8.142164,8.843384,10.18725,11.63597,12.93518,13.99866,15.50969,17.35335,17.82501,20.19106,21.76072,22.64659,23.79183,24.1222,24.96826,25.41408,26.4471,26.2895,26.76167,26.7032,26.60684,26.07911,25.41841,24.64912,24.47445,23.95908,23.12959,21.91025,20.17199,19.21488,17.69038,15.97351,13.74949,12.06096,9.621003,8.458209,6.295843,3.540364,1.48421,-0.5417051,-2.435586,-4.366084,-6.723731,-9.547397,-11.98006,-14.19444,-16.81278,-19.29717,-21.79066,-24.7135,-26.77717,-28.75921,-31.00514,-32.85605,-33.77735,-35.55812,-35.95847,-37.66451,-39.20907,-39.82963,-40.38547,-41.86058,-43.18815,-44.58157,-46.52277,-47.69524,-49.55802,-50.67424,-51.56098,-51.99431,-52.23881,-52.48615,-52.61743,-53.03786,-52.50351,-52.47505,-51.18615,-50.3413,-48.38794,-47.4449,-45.29585,-45.02103,-44.09103,-43.70696,-42.72701,-42.42813,-41.83863,-41.6577,-42.06735,-41.86326,-41.48408,-42.11009,-42.48229,-43.06534,-43.44998,-44.08137,-44.17904,-45.29384,-45.97626,-47.35159,-47.53668,-48.36681,-48.75047,-48.61106,-47.86716,-46.71616,-44.76617,-44.07053,-42.48701,-41.01021,-39.51899,-37.46671,-35.36971,-32.97648,-30.23927,-27.71976,-24.54499,-21.58419,-19.12967,-14.54134,-12.09278,-8.708975,-4.786729,-1.952854,1.56676,5.378661,8.538012,12.11791,15.61677,18.43646,22.11269,25.41193,28.72261,31.98788,35.3135,38.7163,41.95132,45.47358,48.03215,51.15234,53.69823,56.37483,59.00216,60.68235,62.73609,65.10735,66.50798,68.21435,69.18019,70.35381,71.74775,72.52105,73.4212,73.32642,73.83645,73.94471,73.48497,73.34638,72.38808,71.59831,70.45058,69.52087,67.81989,66.79727,64.54132,62.97575,61.4845,58.82214,56.39692,54.00333,51.87042,49.4589,47.37882,44.28043,41.62398,39.27759,36.7495,35.27773,33.12708,31.34988,29.02895,28.78856,27.77949,26.13645,26.38369,26.10416,26.82233,26.39712,25.78882,24.90348,24.01648,22.33937,22.15615,20.56476,19.17269,18.5697,17.75329,16.46651,14.94536,13.79814,12.02178,11.22836,9.642257,7.780048,6.804817,5.423819,4.630718,3.574609,2.506707,1.34656,0.3269973,-0.1247268,-1.852775,-2.265866,-3.849539,-4.853196,-6.151659,-7.628044,-9.288128,-10.86684,-11.80015,-12.00107,-12.35986,-13.65788,-14.76338,-15.80602,-16.4068,-17.56293,-18.79832,-18.88769,-21.95277,-22.79576,-24.67841,-26.66734,-28.10036,-29.54551,-31.13308,-31.78471,-33.34692,-35.44048,-35.86209,-37.21461,-38.36877,-39.38248,-40.58164,-41.84996,-43.37212,-44.80699,-46.20802,-47.79055,-48.96504,-49.68385,-50.32279,-51.61697,-52.33288,-52.82614,-53.92844,-54.40887,-55.13562,-55.90718,-56.99934,-58.16893,-59.52133,-60.35964,-61.53009,-62.93032,-63.62087,-64.18631,-65.44623,-66.06164,-66.58862,-67.33209,-67.65877,-68.07499,-69.30946,-69.81893,-71.07696,-72.13569,-73.0676,-73.60033,-74.35761,-74.77202,-75.35674,-76.25989,-76.18665,-76.27299,-76.75364,-76.30081,-77.14042,-77.34847,-78.19886,-78.03459,-79.38894,-79.51056,-79.78199,-80.58177,-79.90462,-80.06849,-80.03631,-79.58315,-79.33372,-79.15247,-78.39211,-78.19043,-77.87657,-77.44989,-76.95528,-75.27108,-73.24081,-71.22672,-69.51209,-67.69635,-67.2743,-66.42996,-65.56525,-65.15842,-65.59362,-65.22974,-65.38609,-65.54977,-66.3238,-66.15796,-67.4822,-66.28391,-67.09769,-66.64715,-66.39118,-65.16611,-64.09228,-61.99888,-59.99226,-58.36342,-56.51659,-54.58894,-52.00777,-50.14899,-47.85664,-45.40263,-42.26882,-39.78256,-37.30702,-33.57182,-29.86708,-25.40068,-21.20005,-16.65041,-12.3543,-8.290691,-3.503441,1.038282,5.896596,10.09069,14.8242,19.92698,24.56372,28.78905,33.61762,39.01594,44.61459,50.00665,55.16494,60.76003,65.2226,70.49938,75.26305,79.51727,83.1746,87.3999,91.20901,94.47865,97.92541,101.481,105.3273,109.5254,112.5033,115.7713,118.9666,121.1003,124.1707,126.4188,128.0389,129.044,130.2867,131.1989,131.6787,132.1709,132.5458,133.0862,133.7832,134.2165,134.004,133.7931,132.9734,132.5863,131.9465,130.4126,128.2073,126.5735,124.8075,122.6023,119.3608,116.5074,113.3778,110.9644,108.7295,107.0197,105.3568,103.7744,103.4588,103.4416,103.5121,103.6777,104.9695,106.43,108.7286,111.3789,114.7581,118.2991,120.8948,123.1678,124.9657,126.5732,127.3038,128.5221,129.6915,129.5075,129.0093,128.9215,128.3912,127.3511,126.2482,125.2968,124.1325,123.3791,121.3709,119.7281,117.2427,114.5784,112.2183,110.0638,106.1243,102.0172,98.3081,93.94951,88.81509,83.68695,78.74559,73.64088,69.24623,64.18745,59.1481,54.08741,48.97228,43.00658,37.94263,32.60697,26.29389,20.94138,15.7182,10.00542,4.491053,-1.16815,-6.358971,-10.8654,-15.51422,-19.86088,-23.69343,-27.57505,-31.9942,-35.52599,-39.79134,-43.42102,-47.90603,-50.89133,-54.71088,-57.77872,-60.58546,-63.12631,-64.42416,-66.03631,-67.01636,-67.92985,-68.51326,-69.32545,-69.12995,-68.90907,-69.20268,-69.63154,-69.17343,-69.30786,-68.61004,-67.69103,-66.24224,-64.25792,-62.26877,-60.66193,-58.97721,-57.26229,-55.45574,-53.41771,-51.77375,-50.32416,-49.14413,-48.14602,-47.63426,-48.20615,-48.52122,-48.8603,-49.17541,-50.32203,-51.19594,-51.88111,-53.24894,-53.79694,-53.7133,-54.21076,-54.21078,-54.38184,-54.43585,-54.53305,-54.49649,-54.9151,-55.2846,-54.81878,-54.23296,-54.05805,-53.95371,-53.68353,-53.67363,-52.86555,-51.92915,-52.2793,-52.52286,-51.5138,-51.61425,-51.53142,-51.23692,-51.18865,-50.16187,-49.71038,-48.77555,-48.4596,-47.97659,-47.44642,-46.64603,-45.67757,-45.62574,-45.28191,-44.26987,-43.4229,-43.77058,-43.57922,-43.65845,-43.33017,-43.15985,-42.49384,-41.9264,-41.87461,-41.15537,-41.03515,-40.55501,-40.38685,-40.88853,-41.06148,-40.73225,-40.99441,-41.11505,-41.28804,-41.30292,-41.35533,-41.21277,-41.53304,-41.11269,-41.10696,-40.97936,-41.1978,-41.54048,-42.36951,-43.23782,-43.23478,-44.22162,-44.97569,-45.59249,-45.91579,-46.1564,-46.22845,-46.46437,-46.87843,-47.20622,-47.18276,-47.18506,-47.47566,-47.81995,-48.32213,-48.11258,-48.82159,-49.6788,-49.9666,-50.17158,-50.05825,-49.47178,-50.15939,-50.1913,-50.40405,-50.24835,-50.51028,-50.78693,-50.93007,-50.9511,-50.76304,-50.96629,-51.16933,-51.90905,-52.15306,-52.15623,-52.60521,-52.09729,-51.61741,-50.02085,-48.44983,-46.66492,-45.72081,-45.65454,-45.42347,-44.83032,-44.76943,-45.32952,-46.28366,-47.51725,-48.45043,-49.44711,-51.08052,-52.65709,-53.58008,-54.33645,-55.10259,-56.14419,-57.31474,-58.36849,-58.45193,-59.37691,-60.35902,-60.12105,-60.64354,-61.03224,-60.5533,-60.56242,-60.33797,-59.57582,-58.71192,-57.55653,-56.34214,-54.38565,-52.5726,-50.52054,-48.31234,-46.26756,-43.33989,-40.13769,-36.87566,-33.02303,-29.60277,-25.89874,-21.7191,-17.61094,-12.72259,-8.14213,-3.473168,1.333984,6.266577,11.49326,16.12581,21.12632,25.85709,31.41959,36.61433,41.89575,46.88668,51.93348,56.31916,61.4179,65.73508,70.47068,74.37018,78.57347,82.33387,86.88549,89.90889,93.21436,96.67402,99.77669,102.8121,105.631,107.7703,109.9705,112.4064,113.8299,115.1898,116.2287,117.8786,118.369,119.0429,119.3894,119.0618,118.9273,118.3576,117.8742,117.119,115.5642,114.5017,113.0797,111.4474,110.2526,108.6912,106.6591,104.5516,103.1353,101.4541,99.63972,98.44439,96.34041,94.72636,92.70611,90.96328,89.32662,88.56157,88.57681,88.97034,90.04455,90.63842,91.53703,92.50674,93.27642,94.40985,96.09107,97.82758,99.09043,100.3229,101.6666,103.371,104.5251,105.8062,107.0229,108.375,109.1767,110.0302,110.158,110.2498,109.5466,109.2791,108.5032,107.5462,106.045,103.8304,102.4085,99.9495,97.15601,94.00159,90.63022,86.75626,82.90185,79.57854,75.15131,70.09707,65.00158,60.01905,55.46433,49.88444,44.23968,38.94917,33.71437,27.41878,22.20161,16.40625,10.72369,5.305126,-0.7927278,-6.056784,-12.4696,-17.61685,-23.20928,-28.33106,-33.66062,-38.86655,-43.24484,-48.4073,-52.30557,-56.24462,-60.82763,-64.5064,-67.75877,-71.42961,-73.88937,-77.05991,-78.94782,-81.35677,-82.92528,-84.82654,-85.33798,-86.33783,-86.82948,-86.7826,-86.54228,-86.0303,-84.78002,-83.95329,-82.92163,-80.64595,-78.97274,-77.36315,-75.22775,-73.26138,-71.24233,-68.98541,-66.58206,-63.98564,-60.72619,-57.52623,-55.25656,-52.33642,-49.18483,-46.83351,-43.71779,-42.09368,-39.49374,-38.12997,-36.60906,-36.26719,-35.66416,-36.23735,-37.31838,-37.51509,-38.21394,-39.06355,-39.88309,-40.1761,-40.46965,-40.72036,-40.47982,-40.86451,-41.051,-40.97084,-41.31042,-41.78004,-42.13057,-42.4611,-43.13106,-43.11914,-42.84773,-43.3378,-43.55223,-43.15487,-43.17758,-42.64293,-42.45178,-43.14659,-41.74519,-41.56594,-42.03753,-41.01899,-40.75227,-40.33638,-39.14452,-38.5614,-38.03364,-37.57575,-36.77117,-35.84322,-34.83698,-34.10761,-32.89619,-32.15323,-31.22141,-30.88309,-30.05952,-29.07126,-27.65977,-26.82562,-25.02526,-24.00874,-23.03286,-21.55576,-20.10112,-19.69096,-18.28437,-17.67256,-17.20685,-16.20432,-15.55942,-15.55896,-14.90829,-14.45187,-13.765,-12.64968,-11.86576,-11.61828,-10.7176,-9.556769,-8.918455,-8.407473,-7.958341,-7.29545,-6.162836,-6.036395,-5.240001,-5.497494,-4.613552,-3.387677,-2.628349,-1.913716,-0.344618,0.4380196,1.571956,2.837541,2.899507,3.152485,3.988775,4.683548,4.622219,4.597305,4.82995,5.431645,6.087225,7.354919,8.200287,9.12273,10.08705,11.30271,12.15759,13.17661,14.22847,14.02302,15.48626,15.15802,16.63735,15.71574,16.61729,17.61931,18.60566,19.66847,20.89948,22.07553,22.87397,24.33857,24.38195,25.33747,26.40917,26.4471,27.09359,27.25838,28.03728,27.51678,27.55476,28.30358,28.843,28.63906,29.03261,29.45458,29.53215,29.95028,29.79221,30.07934,30.39199,30.54664,29.81119,28.60306,28.81259,27.28355,27.81263,28.16672,28.44166,28.71287,29.26274,30.45405,30.93365,31.40341,31.7027,32.13112,32.42564,33.08013,32.74686,32.59775,33.07791,32.52836,32.53286,32.55501,32.63878,32.36943,32.23237,31.43712,30.87533,29.87866,28.71923,27.6395,26.70534,25.18615,23.63383,22.58272,20.99075,18.73675,17.70238,15.72322,14.68163,13.05052,11.59913,9.614014,8.056139,6.249817,4.121186,1.854688,0.4068661,-1.711193,-3.336227,-5.062988,-6.898412,-8.617434,-10.43604,-12.01791,-13.25206,-14.57707,-16.14054,-18.49994,-19.96929,-22.00982,-23.99823,-25.50851,-27.31681,-28.61755,-29.9631,-30.61534,-31.55509,-32.23172,-33.47327,-33.88763,-34.59166,-35.54525,-36.43887,-36.66474,-37.07041,-37.32252,-36.4888,-36.60844,-35.73645,-35.35532,-34.72476,-35.18604,-35.10605,-35.64102,-36.42893,-36.29405,-38.11608,-39.63881,-40.6679,-41.75239,-43.90861,-44.56893,-46.17281,-48.27323,-49.22195,-50.34442,-51.66396,-53.55414,-53.79927,-54.27596,-54.89153,-55.52633,-55.70168,-55.98865,-55.85338,-55.58414,-56.1899,-57.10095,-57.46241,-57.94181,-57.41662,-55.84458,-54.27888,-51.03856,-47.68907,-44.61502,-40.29565,-36.18875,-31.11028,-26.30039,-22.01895,-16.98258,-10.91191,-5.599226,-0.2977475,5.379536,10.39154,15.61829,20.86983,26.22491,31.20629,36.40981,41.03165,46.0341,50.33881,54.64707,58.91367,62.36862,66.50117,69.29239,72.56462,75.4705,77.31825,79.066,80.45743,82.31421,83.10936,83.74886,84.3308,84.10834,84.31758,83.25777,82.5151,81.18588,79.73331,77.98328,75.89184,73.28852,70.33734,66.91058,63.63298,60.02821,56.16129,52.04019,48.11719,43.59782,38.95502,34.41695,29.88351,24.99832,20.77604,16.07845,11.83667,7.476557,3.273373,-0.2985517,-5.007898,-8.398376,-11.55377,-14.82287,-16.5818,-18.2656,-19.48633,-19.82915,-20.06707,-19.87916,-19.39022,-19.73894,-19.94024,-19.80447,-19.93286,-20.50421,-19.9938,-20.4271,-20.02416,-18.70541,-18.91089,-18.23875,-17.1113,-16.39011,-15.97784,-15.14113,-14.42252,-13.87656,-13.13946,-12.5782,-12.24612,-11.57569,-11.36296,-11.35258,-10.79623,-11.0988,-11.51772,-12.12607,-12.96816,-14.33727,-15.66276,-17.4006,-17.69305,-18.43748,-19.09411,-18.9549,-20.44771,-20.25935,-20.84566,-20.89425,-20.3221,-20.61976,-20.52247,-20.91553,-19.71752,-20.1613,-19.30815,-20.08045,-20.42316,-20.11766,-20.24127,-21.01051,-20.75474,-21.09369,-20.97547,-20.32218,-20.15549,-20.06594,-20.1826,-19.46618,-19.86219,-19.54329,-19.54759,-19.75252,-19.96196,-19.74303,-20.54204,-20.23686,-19.57214,-19.68233,-19.71403,-19.06413,-19.38759,-19.02152,-18.32216,-19.29275,-18.84665,-20.1053,-20.6328,-21.17062,-21.76725,-22.8419,-23.46054,-23.84208,-24.37901,-24.77562,-25.24406,-26.08049,-26.1268,-26.29103,-27.0276,-26.85667,-27.75645,-28.46688,-28.83738,-29.47583,-30.01106,-29.79925,-29.7584,-29.85971,-29.45252,-29.17875,-29.23862,-29.01196,-27.92599,-28.12894,-27.37593,-26.70937,-26.43225,-25.23802,-24.36135,-23.58743,-22.64973,-19.99056,-19.22449,-16.8567,-14.45664,-12.3098,-9.579202,-6.576328,-4.970922,-2.463143,0.3327043,2.418748,3.764909,6.711077,8.562739,10.66364,12.63162,14.49214,17.09375,19.61264,21.42635,24.22145,26.50017,28.09303,29.96385,32.23239,33.05536,34.49715,35.82937,36.51016,38.35377,38.2911,39.91825,40.91334,41.64112,42.9144,43.61342,44.24916,44.7205,45.31452,45.15176,45.09919,45.01401,43.68543,43.37933,42.70493,41.47636,41.10683,40.01497,39.4648,39.03071,38.01636,37.41125,35.96013,35.05598,34.02592,32.43475,31.03771,29.18165,28.1213,26.7172,25.11015,23.74429,23.65842,22.66283,22.36037,21.71217,20.23632,19.98558,19.24922,18.44749,17.55597,15.86099,14.52656,13.94249,12.88045,11.95418,10.95419,10.20933,10.06127,10.32171,10.05149,8.857179,9.135942,8.496695,8.678869,8.765259,8.045497,7.122967,7.922036,6.775265,7.271557,6.762582,6.194756,5.390852,4.538544,3.521282,1.125748,-0.3343526,-3.429593,-5.27049,-7.777829,-10.42011,-12.84369,-14.33223,-15.82278,-17.74328,-18.59438,-19.87274,-20.68674,-20.45348,-20.67825,-21.58046,-21.18394,-21.45122,-20.83434,-21.00718,-20.61048,-20.45911,-19.81853,-18.41399,-17.47916,-16.28647,-14.04289,-12.72074,-9.764999,-7.620803,-5.164356,-2.161863,0.2367848,3.361473,6.037646,7.932357,10.47621,12.88748,16.15949,17.90916,20.92305,23.40296,26.2057,29.22971,31.41021,34.86396,37.01289,39.96519,42.13785,44.33215,46.12223,47.82083,49.45496,50.56722,52.1463,53.00586,53.96474,55.39718,56.60604,56.91074,58.35427,57.47503,58.00977,57.83186,56.91227,55.92648,54.47407,53.3527,51.76824,49.77764,48.15792,46.07861,44.6831,43.32896,40.46638,39.00753,36.80473,34.17373,31.79861,28.48097,24.82797,22.22013,19.32466,16.41981,12.42967,9.40844,7.026842,4.571308,2.848656,-0.1853893,-1.888161,-4.69838,-5.138351,-7.17636,-8.742658,-10.62932,-11.06591,-11.63529,-11.29854,-11.69362,-12.30556,-11.57002,-10.75822,-10.67823,-9.758117,-10.97323,-11.70005,-11.25282,-11.34861,-12.18472,-14.35473,-15.03345,-16.20847,-16.32787,-17.38992,-18.38262,-18.29411,-18.38017,-18.16974,-19.14524,-19.55161,-20.92922,-21.17581,-21.29363,-23.02026,-24.31931,-26.51812,-26.83086,-28.08343,-29.01676,-30.38594,-31.49669,-32.25675,-32.48615,-33.14656,-35.02252,-36.28133,-36.86779,-37.49573,-38.62365,-41.01658,-41.89143,-43.66534,-45.00675,-47.19453,-49.44481,-51.06891,-52.72691,-53.37991,-54.85501,-56.57453,-58.46413,-59.43785,-60.37378,-61.73703,-63.6225,-65.51228,-66.65976,-67.42008,-68.94022,-70.87692,-72.36032,-73.60426,-74.11159,-75.02918,-76.84263,-78.21136,-78.97881,-79.90541,-80.74559,-82.16463,-84.46025,-85.08898,-85.80553,-87.22407,-88.63935,-90.19325,-91.12486,-91.24964,-92.12147,-93.18762,-94.23194,-94.68894,-95.01015,-95.78318,-95.82903,-96.96005,-97.50919,-97.32152,-98.15689,-97.81482,-97.95136,-97.48769,-97.00835,-96.59402,-95.87263,-95.30807,-93.80916,-92.77851,-91.17815,-89.75739,-89.20288,-86.23813,-85.09976,-83.07041,-81.70293,-79.98127,-77.64399,-75.23015,-72.97614,-70.20287,-67.51889,-65.43797,-61.97391,-59.0234,-56.96036,-52.81559,-48.817,-45.98029,-41.45154,-39.10176,-35.20601,-32.28225,-28.5961,-25.80225,-22.43947,-19.73021,-16.85727,-14.21336,-11.36031,-8.93444,-6.5703,-3.525003,-0.8873148,1.706158,4.813664,7.423853,11.06177,13.34167,16.83859,19.15585,21.63866,24.25333,27.07257,29.91189,31.93128,34.39613,37.21364,39.15318,41.79376,43.939,46.30837,48.10838,50.66304,53.0771,55.3997,58.07159,60.65977,63.55478,66.73589,68.79544,71.39158,73.96542,76.44031,79.49391,82.24247,85.2462,88.33559,91.3234,94.09672,96.90968,100.2897,102.9144,106.3449,109.3365,111.9669,115.0539,117.9812,120.1992,123.0863,125.2669,127.1809,129.4241,131.8705,133.4005,134.7697,136.4758,137.4154,139.0042,139.5457,140.0536,140.1731,140.8232,141.0009,140.6738,140.8939,139.7661,139.3381,138.6154,137.2687,136.9365,134.9257,132.6502,129.6271,127.2481,124.416,121.0345,118.8241,116.0458,114.5311,112.0845,110.5181,108.3439,107.6578,105.9403,104.7351,103.4876,102.195,101.2877,99.76448,98.92267,97.66293,96.62431,95.80377,95.53951,94.59214,94.28123,92.70084,90.76006,89.34064,86.09779,84.62189,81.35156,78.85744,76.37408,73.13352,69.97487,67.45522,64.10314,62.2112,58.68653,55.58569,51.66978,48.08231,44.28488,39.73795,35.48597,30.6421,25.93643,21.45374,16.2233,11.45825,6.492495,1.360339,-3.466236,-8.398596,-13.51817,-18.12156,-23.16464,-27.54816,-32.07151,-36.96212,-41.17076,-45.49145,-49.79674,-53.69477,-57.39528,-61.65958,-65.12005,-68.38822,-71.78983,-75.29083,-77.67935,-79.70746,-81.7851,-84.00156,-85.04866,-87.07663,-87.95644,-88.63459,-89.37669,-89.37167,-90.08037,-89.53945,-89.34121,-88.79146,-87.19658,-86.30879,-84.95145,-82.26028,-80.84907,-78.04718,-75.73698,-72.59885,-70.78844,-67.41491,-64.92982,-62.40208,-59.50908,-57.28946,-54.12838,-51.39707,-48.93648,-46.75897,-43.70881,-41.57525,-39.70778,-37.8201,-36.5801,-36.28611,-35.73903,-36.5361,-37.58297,-38.07539,-38.45775,-38.84444,-39.03963,-38.53775,-38.14126,-37.12118,-36.42712,-35.43699,-35.21033,-33.78059,-34.64993,-33.99973,-34.32417,-34.55394,-35.02692,-35.5616,-35.46061,-34.80435,-34.42836,-34.26377,-33.54401,-34.36319,-34.54198,-34.80761,-35.22216,-35.56419,-35.81507,-36.54617,-37.66084,-38.3394,-38.33699,-39.55943,-38.84239,-39.42971,-39.7287,-39.75946,-40.53504,-40.60649,-41.61703,-41.58256,-42.21257,-43.74636,-43.11735,-44.02246,-44.31979,-44.06567,-44.32274,-43.04996,-43.18396,-42.03592,-40.9375,-39.14164,-37.71233,-36.47509,-34.61006,-33.34832,-31.47521,-29.95473,-28.61864,-26.88184,-25.76548,-24.4614,-22.7102,-21.52863,-19.76761,-18.11615,-15.88294,-14.40908,-12.42017,-10.90001,-9.447446,-8.178109,-6.191628,-5.936617,-4.770324,-4.060964,-3.336458,-2.925412,-2.163977,-1.266589,-0.8521574,0.4687473,1.615814,1.452347,2.813925,3.603301,3.186192,3.969086,3.693826,3.575214,2.486716,2.486515,1.7607,1.737613,0.9532283,0.5268662,0.5271043,-0.1519643,-0.6918049,-0.6920271,-1.117732,-2.78121,-2.791974,-4.409507,-5.720497,-7.400603,-8.197411,-8.760821,-9.312144,-10.2489,-10.40561,-10.22467,-11.20415,-11.69686,-12.24653,-12.36869,-14.01198,-14.20306,-15.2887,-16.42724,-17.62877,-18.31923,-19.37273,-19.57024,-20.20455,-20.22214,-19.16773,-18.01966,-17.45799,-17.33279,-16.26356,-16.76202,-15.29869,-15.25159,-14.62894,-14.37652,-13.50788,-13.70444,-12.81765,-12.14823,-11.40654,-10.19686,-9.006136,-8.268957,-6.495165,-5.461635,-4.64122,-3.789283,-3.178879,-2.852538,-2.140457,-1.436157,0.3350806,1.614254,2.639697,4.422207,6.082852,8.96565,10.28698,13.16575,15.17512,17.4327,19.34986,21.49255,23.89516,25.00892,27.3658,28.96801,30.68019,32.89043,34.1629,36.20862,39.14712,40.77671,43.14237,45.07025,47.16748,48.39062,50.17498,51.52086,51.9903,52.4051,53.49352,53.5608,54.1471,54.70697,55.07752,55.83001,56.47384,56.85427,56.93289,56.78681,55.24525,54.72965,53.36738,51.99714,51.10431,50.22833,50.51524,49.71481,49.40191,49.23252,50.33333,50.0601,50.70295,50.99022,51.43198,51.14715,51.77293,51.64751,51.121,50.92363,51.5744,51.15391,52.32296,52.01263,53.09944,53.9732,53.92109,53.67627,53.61858,52.99604,51.15255,51.29795,49.25257,47.96378,45.38092,44.58818,41.59201,40.02147,37.15612,34.88259,33.32545,31.50217,28.73831,26.65159,24.89533,23.34073,21.12569,18.72923,15.94138,12.45392,10.39088,6.769666,4.025,1.149635,-2.372967,-4.71987,-6.910821,-9.903267,-12.20322,-14.44765,-16.84571,-19.40332,-21.08975,-24.3259,-26.58394,-28.88184,-30.87704,-33.23069,-34.6592,-36.85669,-37.48932,-38.11463,-39.51279,-39.56996,-39.59844,-39.98236,-39.92356,-39.83942,-39.89538,-39.85946,-39.00746,-38.46752,-38.33875,-37.46945,-36.70921,-35.34986,-33.18292,-31.3366,-30.13023,-27.51889,-25.34268,-24.1466,-21.42507,-20.15353,-18.55375,-16.43992,-14.84091,-13.24908,-12.52952,-10.57816,-9.156164,-7.111042,-5.888022,-4.579145,-4.07158,-3.099521,-3.455159,-3.153402,-3.806736,-5.194416,-5.60466,-5.755882,-5.954844,-5.578439,-5.617545,-6.13425,-5.126816,-5.949023,-4.807901,-4.728073,-4.175354,-4.710094,-3.790771,-4.633598,-4.540124,-5.299878,-4.965781,-5.775076,-6.001225,-5.531183,-5.60824,-5.721942,-5.03415,-6.070769,-5.606092,-6.245506,-6.574728,-5.100945,-6.414321,-6.383878,-7.412242,-7.144148,-7.977963,-8.482808,-8.88956,-9.324772,-9.755354,-9.333415,-10.25515,-10.08036,-10.46263,-10.73468,-11.06869,-10.70097,-10.83515,-11.18124,-11.73152,-12.25271,-12.79851,-13.3668,-14.04612,-14.32062,-14.54071,-14.55402,-15.00301,-14.78406,-15.57923,-15.51588,-15.60616,-15.88843,-16.6452,-16.94395,-16.88393,-17.6977,-17.83487,-18.42383,-18.22961,-18.39789,-18.12895,-18.0408,-17.93926,-18.10722,-17.70703,-17.41761,-17.51346,-17.63899,-17.50161,-17.35829,-17.16965,-17.24586,-17.05097,-17.05748,-16.70989,-16.08297,-16.21281,-15.32167,-15.00072,-14.74939,-14.49827,-14.06532,-13.86479,-13.89504,-12.45064,-13.0129,-12.45716,-11.72644,-12.03367,-11.38516,-11.43963,-10.29384,-10.57533,-10.13741,-10.26231,-10.04999,-10.27228,-10.62737,-10.95047,-10.76355,-11.17306,-11.96371,-11.94346,-12.69879,-13.0365,-13.55258,-14.28651,-15.12253,-15.0925,-14.6793,-13.39877,-13.79761,-13.78161,-14.02818,-14.31559,-15.2008,-16.20098,-17.97809,-19.50601,-21.16095,-21.72695,-23.93872,-26.05889,-27.83635,-29.31676,-31.09558,-32.50935,-34.16453,-35.38458,-35.98344,-38.60437,-39.01516,-40.37823,-40.84519,-41.66889,-41.93895,-41.82229,-43.03456,-42.30601,-42.41717,-41.88667,-41.07335,-40.50071,-38.73287,-37.85119,-35.89164,-34.28082,-32.54921,-29.98401,-28.03693,-24.82572,-22.32869,-19.55397,-16.33824,-13.41622,-9.947665,-6.992149,-3.531195,-0.5405276,3.227208,6.301676,9.763362,12.60726,16.19789,18.80582,22.37321,25.28339,27.72199,30.92949,33.49409,36.47336,38.91908,41.60423,43.91079,46.27857,48.375,50.57212,51.99104,54.11637,55.30468,56.81117,57.74747,59.16055,59.6919,60.25719,60.97784,61.58731,61.72549,61.29577,61.70114,61.48829,61.8496,61.56465,60.69841,60.13633,58.74014,58.46538,57.35304,55.97296,54.73349,53.38509,52.05779,49.94412,48.30731,46.4892,44.55473,42.97977,41.39374,40.20508,39.61448,39.16555,39.4125,39.55803,40.23602,40.99253,42.50834,44.27957,46.16113,49.00929,51.32754,53.73541,56.05129,57.12623,58.30948,59.50495,60.66887,61.31523,62.07994,62.40672,62.52071,62.80075,61.69349,61.38981,60.37255,59.17388,58.5378,57.44859,55.66341,54.85528,52.33164,50.96899,48.85246,46.59294,44.11691,41.35084,39.32735,35.8199,32.53113,30.76728,27.31011,24.13864,21.46606,18.46404,15.55476,12.31454,9.901499,7.212395,4.536475,1.841027,-1.441508,-3.206813,-6.412962,-8.8732,-12.07372,-14.57316,-16.7626,-19.5652,-21.34309,-24.53179,-26.52792,-28.78435,-30.21343,-32.83215,-34.55631,-36.92544,-38.24503,-39.98718,-41.97401,-42.9492,-44.36939,-45.38889,-46.47324,-47.13416,-48.48976,-48.60771,-49.16405,-48.64014,-47.91773,-46.18487,-45.11742,-43.95992,-43.07499,-42.4302,-43.05279,-42.79666,-43.02664,-43.60768,-43.87104,-44.6676,-45.27755,-45.86109,-46.35891,-47.52088,-48.75191,-49.58155,-50.9292,-51.688,-52.9247,-54.9488,-56.46181,-58.16164,-59.46529,-61.63337,-64.40428,-65.86197,-66.78522,-66.1927,-66.33032,-65.17329,-63.17004,-62.21624,-59.43154,-57.13182,-54.69767,-51.85398,-48.58761,-44.84542,-40.86465,-37.24754,-33.17826,-28.25304,-23.6373,-19.57832,-14.74094,-9.675124,-6.18104,-1.038109,2.876817,6.60646,10.05875,13.9851,16.86246,21.1953,24.17922,27.52612,31.03876,34.30921,36.51506,39.78118,41.22543,44.27244,45.3704,47.54011,48.4998,49.53138,50.11685,49.41495,50.46389,50.16793,49.48205,48.55513,48.59303,47.05249,45.99209,44.56217,42.78569,40.9524,38.28108,35.38955,32.73543,29.44903,25.86406,22.86155,19.0202,15.67907,12.7634,9.286039,6.125114,2.381955,-0.7156608,-4.648362,-8.161786,-11.83419,-15.75159,-19.06445,-22.877,-25.80588,-28.44536,-30.45371,-32.72292,-34.71328,-35.44877,-36.11446,-36.5118,-35.68323,-35.81688,-33.91036,-32.61673,-31.34227,-31.05668,-30.71113,-30.50966,-29.88627,-28.79336,-27.52418,-26.55898,-24.79873,-23.21334,-21.35483,-19.84698,-17.5642,-16.36043,-14.25927,-13.02458,-11.9772,-11.42493,-10.84893,-9.408478,-9.678784,-8.95294,-8.636821,-8.933227,-9.33313,-9.200528,-7.372518,-7.810536,-6.761618,-6.193199,-3.921732,-2.852539,-2.627405,-1.184847,-1.577396,-2.259383,-1.921105,-2.452168,-3.224742,-3.266944,-4.614,-5.421928,-6.652666,-7.789397,-8.851708,-9.930341,-11.32117,-13.5625,-14.17886,-16.16169,-17.35116,-18.3791,-19.73437,-20.64733,-20.62667,-21.70981,-21.80891,-22.28723,-22.19353,-22.16642,-21.48464,-21.51695,-20.91789,-20.9197,-19.88686,-19.24331,-18.89264,-18.23509,-17.27933,-15.30885,-14.63612,-12.62004,-11.75037,-9.976414,-8.673236,-6.079625,-5.186649,-3.149407,-2.122349,-0.07432497,2.042853,3.656523,5.165771,7.742731,9.856384,12.51555,14.73124,17.55191,19.42195,21.78556,24.19214,25.81634,27.74153,29.51888,31.28637,32.02794,34.70421,35.50542,38.15784,39.56217,41.58084,43.16125,44.64668,46.48569,47.24391,48.52397,49.94725,49.99998,51.16068,51.93329,52.42325,52.42905,52.50097,52.15163,52.68201,52.69603,52.29577,51.5028,51.31202,50.26841,50.06492,48.65078,47.53602,45.39418,44.00849,41.68389,40.46259,38.30451,36.86139,36.19253,33.8347,32.75628,31.00041,28.59251,28.29786,28.01546,27.08719,26.28077,27.02157,27.74211,28.03714,27.31093,26.48351,25.25205,23.89035,23.10039,22.36373,20.38532,19.19995,17.49896,15.79157,14.1904,12.08281,9.999383,7.800264,5.522319,2.902317,0.09197035,-2.66624,-5.484101,-7.058831,-8.795205,-10.30521,-12.44092,-15.33534,-17.84612,-21.09591,-24.77069,-28.41031,-31.98304,-35.75747,-39.6334,-43.88821,-48.75101,-52.32429,-56.71729,-60.60646,-64.91064,-69.05703,-73.89396,-77.36505,-81.2915,-85.37484,-88.39687,-92.65511,-95.38086,-98.17219,-100.9122,-104.4805,-105.5419,-108.1209,-109.7715,-111.2735,-113.0242,-113.6712,-114.5414,-115.2467,-114.7255,-115.0183,-115.6291,-114.8317,-115.239,-114.7848,-114.3368,-111.662,-109.2761,-105.4648,-102.0233,-97.70512,-93.00161,-87.47214,-80.75813,-75.74452,-69.03281,-62.49714,-54.96588,-47.22716,-40.01094,-32.18164,-24.27404,-16.68032,-9.046483,-1.176643,6.023376,13.44265,21.05925,28.12539,34.53452,41.25491,46.34718,53.10664,58.3874,63.66307,67.75992,72.447,77.31739,81.23471,84.11985,87.39428,89.52756,92.02906,94.29253,95.3536,96.65009,98.27821,98.5258,99.14912,99.08822,98.71826,97.67855,96.72867,94.94398,93.57041,90.6918,88.29644,85.8316,82.38183,78.7196,76.12473,71.46133,68.97448,65.43308,61.88313,58.69024,55.6147,52.6709,49.88602,47.83546,45.32597,43.46992,42.87968,40.63107,38.69753,36.10142,33.61657,32.42999,30.59772,28.99765,28.01728,27.09841,25.8454,25.26577,24.55608,23.4718,23.33205,23.23675,23.32967,22.48966,22.76317,22.47799,23.7865,24.20557,25.20668,25.98422,26.02223,27.59882,28.43928,28.75038,29.55419,30.42226,30.68308,31.33887,31.43631,31.09751,31.58487,30.72966,30.96666,29.93411,28.81574,26.96455,26.06702,24.41769,23.88579,23.24306,22.95047,21.08979,20.61732,20.13236,19.56873,18.67552,18.29015,17.97531,16.81788,17.14652,16.21419,15.63622,15.42316,14.67657,14.04472,13.26694,12.94297,12.02187,11.63332,10.33666,9.881469,8.970179,8.115888,7.693003,7.200563,6.677626,7.141717,6.647907,7.088496,6.545881,6.489087,6.546562,5.868514,6.860158,6.868752,7.460264,8.028906,8.355462,9.388589,10.12725,10.98818,11.86571,13.20379,13.85988,15.03813,15.68146,16.72641,17.34121,18.38022,18.46513,19.12251,19.85672,20.78874,21.46136,22.50095,22.42459,23.18172,23.16,23.45063,22.96292,22.54242,21.89961,21.34774,21.19623,19.93859,19.54478,18.00142,16.75894,15.23503,14.34393,11.67867,11.75536,9.65843,9.225035,8.073527,6.917856,5.25,5.044697,3.154626,3.173378,1.761568,1.54846,0.1324015,-0.809695,-1.268024,-2.289863,-3.000734,-4.831801,-5.399947,-6.353485,-7.49122,-8.541272,-9.554167,-10.16015,-10.94865,-12.12996,-12.55731,-13.62643,-13.48037,-14.69474,-14.80753,-16.53464,-16.87204,-17.80294,-18.35651,-19.63723,-20.72839,-21.36291,-22.08771,-22.89177,-23.77841,-25.22063,-25.74523,-26.00688,-27.37649,-28.17048,-29.24497,-30.22012,-30.75023,-32.16271,-33.44354,-34.71643,-35.53675,-36.5374,-37.32342,-38.50871,-39.94906,-41.85843,-42.59498,-44.12825,-45.03323,-46.76752,-47.99479,-48.80103,-50.52851,-51.73882,-53.58933,-55.50569,-56.41283,-58.57634,-59.91099,-61.72275,-62.82654,-63.61654,-64.96127,-65.70251,-67.29574,-67.84611,-68.30824,-69.35947,-69.51904,-70.75572,-70.88631,-71.46228,-71.15311,-70.2039,-69.58957,-67.92362,-67.19461,-66.11919,-65.43054,-65.93923,-66.40848,-67.33374,-68.2579,-68.98166,-70.87792,-71.65764,-73.13113,-74.32692,-75.66459,-76.98614,-78.74649,-79.70956,-81.20975,-82.1439,-84.80325,-85.08712,-86.82766,-86.00141,-86.93137,-85.76146,-86.91967,-85.45113,-85.12056,-84.67443,-84.21309,-83.39137,-83.28541,-81.09194,-80.97454,-78.92534,-78.16853,-75.87993,-73.98899,-72.10808,-70.5422,-68.11325,-64.92567,-62.08112,-59.51993,-56.53807,-53.96424,-49.7873,-46.54104,-42.60513,-39.22543,-35.16421,-30.54032,-26.84308,-22.246,-18.19764,-13.73517,-9.022264,-4.13954,0.03978539,4.402163,8.528046,13.54653,17.75392,21.95209,26.44698,30.40885,35.28022,38.90054,43.5271,46.71193,50.71074,54.20866,57.56877,60.36418,63.49334,65.72559,69.11576,70.99905,73.73734,74.92864,77.38895,78.99268,80.36442,82.66558,83.60079,85.3473,86.08829,86.83232,87.03244,87.17193,86.83354,87.99113,87.29141,87.26447,86.37147,86.06005,85.06954,85.06536,85.30448,84.35867,84.2491,84.63601,84.21207,84.38313,84.1779,84.98008,84.83172,86.80836,87.11793,87.46993,86.79672,85.8696,85.74858,84.66151,82.81942,81.92164,81.28819,79.8737,79.10292,77.0784,75.98102,74.23351,73.20918,71.18663,70.51658,68.62184,68.29932,67.1673,66.50499,64.48986,64.79128,63.47169,62.15347,61.0668,59.31554,57.41802,55.96442,53.51983,51.14502,49.22128,46.40197,45.04269,43.60734,41.63282,39.7588,37.4992,35.85007,32.33363,30.87799,27.78957,25.40741,22.19604,19.61273,16.0271,13.73056,10.05399,8.026396,4.567819,2.513751,-0.655819,-2.695116,-5.657591,-9.091064,-11.54071,-15.01833,-18.01441,-20.89502,-24.2389,-27.55774,-29.92098,-33.18001,-35.2641,-38.02375,-40.15188,-42.3085,-45.2543,-47.40571,-50.5799,-52.69083,-55.52484,-58.34654,-61.39898,-64.17944,-67.09977,-68.92841,-71.84033,-73.81324,-75.67018,-77.61687,-79.88206,-81.1779,-83.15712,-85.71509,-85.95744,-89.02408,-90.78887,-93.90683,-96.09022,-98.30486,-99.85829,-102.0007,-103.1117,-105.9916,-107.2835,-109.5495,-111.0704,-112.9752,-114.7771,-116.1712,-119.3782,-119.713,-121.8578,-123.166,-123.905,-125.2923,-127.1748,-128.8875,-130.2267,-131.8469,-133.7232,-136.2044,-138.3997,-140.2892,-142.8086,-144.9345,-147.2009,-149.2005,-151.3714,-153.1388,-154.6908,-155.8735,-156.7177,-156.9391,-156.5705,-155.2342,-154.7618,-153.2689,-151.6972,-148.921,-146.3888,-142.4741,-140.2849,-136.1964,-130.7387,-126.64,-120.6979,-115.5139,-109.1528,-101.898,-94.24036,-86.66869,-78.40582,-70.47991,-61.71334,-52.65298,-44.01174,-35.14766,-26.07665,-16.26245,-6.809865,2.355445,11.60505,21.41917,30.84596,41.483,50.22785,60.06261,69.34034,78.7993,87.88456,96.07521,104.3191,112.0954,120.6229,127.8313,135.7291,142.0055,148.9407,155.6616,162.0309,167.6124,172.8789,178.0613,182.2497,186.2468,189.5934,191.9821,194.3694,197.0509,198.3086,199.7663,200.2121,200.9082,201.6361,202.1813,201.5648,200.9328,200.7983,198.7437,198.2419,196.3984,193.1201,189.7849,187.558,183.0602,179.9875,175.1586,171.8176,169.2529,166.4464,164.3911,161.4469,159.8152,158.4406,157.1877,157.0431,156.2014,156.1184,156.7028,157.387,158.7178,158.1761,159.2056,158.9308,158.8344,158.2226,157.1973,155.9253,154.2681,152.7138,150.2049,147.316,145.9789,142.524,139.6538,135.6417,131.9042,127.6928,122.8567,118.7528,113.514,108.2162,102.4852,96.70463,90.82969,84.45341,77.35389,70.58849,64.66729,57.47944,51.16621,43.74082,37.38042,30.19739,23.71159,16.80969,9.867718,3.919306,-2.51801,-8.925306,-15.19359,-21.87948,-27.9984,-33.73274,-39.21868,-44.51926,-49.73823,-55.10704,-60.08617,-64.27349,-68.76692,-72.82438,-76.93028,-80.70551,-83.95269,-87.78552,-90.27201,-93.42397,-96.11667,-97.48662,-99.28956,-100.5597,-102.1088,-102.4893,-102.8804,-102.915,-103.1958,-103.262,-103.104,-102.0497,-101.8308,-100.0246,-100.2156,-98.31483,-97.07133,-95.20237,-93.72279,-91.55954,-90.05731,-87.79203,-85.55625,-84.36191,-82.51684,-80.85164,-80.0006,-78.47248,-78.31731,-78.42376,-77.97131,-79.08529,-79.83276,-81.30767,-82.56625,-84.62694,-85.8625,-86.89126,-88.74351,-89.58708,-90.10799,-91.34565,-91.29607,-92.942,-92.82503,-93.5656,-93.48443,-93.60482,-93.4895,-93.60511,-94.18153,-93.29217,-93.07969,-92.77322,-92.67543,-91.67747,-91.13403,-89.63024,-89.20749,-88.54902,-86.59374,-84.49026,-82.56181,-79.70257,-77.36336,-75.66328,-72.5462,-69.24646,-67.46978,-64.35435,-62.38949,-59.00025,-56.64739,-53.62968,-51.60248,-48.38653,-46.1663,-42.78937,-39.25975,-36.29086,-32.59598,-29.45001,-25.12178,-23.19435,-18.88281,-16.43917,-12.39059,-9.201976,-6.117654,-2.924776,0.4816673,3.631249,7.592878,10.68176,13.91269,17.34952,20.9356,24.39736,26.43904,29.07374,31.28049,33.78693,35.8023,37.10796,39.20237,40.33276,42.73912,44.58125,46.75141,48.01664,49.85184,52.34508,53.69303,55.02228,55.96098,57.33692,58.2751,58.92768,58.74246,59.75513,59.86428,60.79685,62.02531,63.29764,63.0306,64.90939,65.18522,66.76682,67.23295,67.99411,68.59996,69.20615,69.56599,69.22772,69.70773,69.77463,70.25904,71.35488,71.02321,71.56484,72.28464,72.47365,73.31697,73.72135,73.29794,73.04811,72.97053,72.5549,71.13756,70.48375,69.67192,68.33692,68.52699,67.24128,66.39964,65.48382,64.49637,62.80011,61.52633,58.59372,56.20028,54.50315,52.13436,50.18067,48.52388,46.9121,45.47978,44.15413,44.24213,42.58013,43.24344,41.79864,41.4798,40.2366,38.92433,37.52974,36.45426,34.63602,31.8473,31.63899,28.65781,27.13778,25.23343,24.0305,21.49885,20.75233,18.62098,17.82818,16.29122,13.34822,11.30234,9.222694,6.957476,3.610347,3.270966,-0.8050826,-1.578476,-3.93184,-6.27622,-7.631887,-9.540754,-11.64589,-13.93131,-15.53241,-18.04853,-20.23988,-23.17791,-25.81678,-29.38357,-30.81591,-34.34369,-36.29249,-38.39726,-40.68525,-42.23203,-44.60434,-45.36992,-47.86719,-48.93099,-50.97849,-53.52402,-55.39187,-57.7748,-60.0463,-61.65081,-63.7297,-65.49416,-67.00713,-68.7189,-69.22762,-71.27823,-71.0226,-72.77832,-73.25106,-74.89954,-75.52262,-76.70712,-77.77322,-78.55748,-78.96082,-79.59607,-80.29362,-80.33503,-79.6938,-79.02844,-77.70009,-76.55836,-75.46141,-74.2101,-73.10222,-72.23142,-71.41565,-72.14204,-71.76439,-71.81988,-72.87584,-73.51022,-74.27125,-75.12753,-75.41968,-76.56708,-77.4216,-78.30881,-79.66667,-82.03319,-83.12118,-85.85577,-87.46585,-89.16312,-89.91929,-90.75037,-90.82963,-90.01693,-88.93815,-87.57778,-86.39432,-84.02717,-82.52768,-78.95743,-77.66365,-75.16803,-73.69453,-70.73964,-68.28794,-65.17636,-62.04779,-58.98285,-55.55252,-50.71714,-46.15766,-42.54495,-37.8188,-32.44297,-28.39187,-23.26994,-18.56136,-14.89687,-10.83888,-7.08632,-3.56013,0.8506081,4.654371,9.127481,13.35231,18.94299,21.86254,27.25663,30.89281,34.43331,39.43959,42.0747,45.50569,47.95368,52.23497,53.79051,57.40723,59.51709,62.98146,65.75272,69.70514,71.0348,73.80535,76.46163,77.46974,80.65147,81.75427,83.5462,83.73007,85.16099,85.45762,85.49151,85.88157,85.50477,84.98356,85.49278,83.8174,83.46382,81.92862,81.07486,79.87006,78.41992,76.40989,74.02328,72.65945,70.12265,68.21337,65.82091,64.15474,62.85991,61.38294,60.19191,59.01822,58.12706,57.67351,57.42741,57.11837,56.08518,55.20506,54.37295,52.82099,51.58173,49.51799,47.32316,45.87102,44.14171,41.50911,39.14521,36.59963,34.24817,32.13607,28.95425,26.10302,23.26871,20.16201,17.24962,14.88405,11.67108,9.082074,6.385339,4.454513,1.754748,-0.3580543,-2.292867,-4.32174,-5.684946,-7.878566,-9.679264,-11.83299,-12.9599,-14.35847,-16.76326,-17.37716,-18.46471,-19.30002,-19.29385,-19.75358,-20.20231,-19.77948,-19.61444,-19.50874,-19.36606,-19.09575,-19.59474,-18.77241,-18.65404,-19.20478,-19.59698,-19.59353,-19.70049,-19.27396,-18.92445,-19.22636,-18.90671,-19.01177,-18.55139,-19.4068,-19.32148,-20.30862,-20.90927,-21.06845,-22.41712,-22.7862,-23.56975,-23.72019,-24.29143,-23.69658,-24.87006,-24.73177,-25.5755,-25.35739,-26.54789,-25.94774,-27.14573,-27.44131,-27.3703,-27.76244,-28.12588,-29.50374,-28.68124,-29.59425,-30.01713,-30.70179,-31.7813,-32.2733,-32.10773,-32.78609,-32.73375,-33.49003,-33.57526,-34.67523,-34.62752,-35.92615,-36.11489,-36.6765,-36.68943,-36.8647,-36.65206,-37.1876,-37.10884,-36.93761,-36.67071,-36.16373,-36.37705,-36.04363,-34.53508,-34.0983,-32.41175,-31.83636,-30.0072,-29.7985,-27.63158,-28.70778,-28.39775,-29.02855,-29.13323,-29.94683,-31.21072,-32.1419,-33.50893,-34.63071,-35.8938,-36.92764,-38.14602,-40.11095,-40.35852,-42.43104,-42.73634,-44.50146,-44.84366,-45.09462,-44.22224,-45.71696,-44.98694,-46.03868,-45.75743,-46.39986,-44.86255,-44.30399,-43.06979,-42.12729,-41.89133,-40.65798,-40.38866,-40.56036,-39.14604,-38.98084,-37.46936,-37.2155,-36.06735,-35.40541,-33.71393,-32.36449,-30.50305,-27.62096,-26.30525,-22.76705,-20.33297,-16.62519,-13.95183,-10.08018,-6.068663,-1.755275,2.369106,6.570648,11.59824,15.59961,20.92386,25.41078,30.20687,34.80871,40.01522,44.44733,48.79008,53.3126,57.78674,62.0087,66.2366,70.73039,74.71268,78.94381,82.82504,86.64546,89.67844,93.05275,95.92995,99.32206,101.6199,104.3496,106.6561,108.1337,110.2947,111.1699,112.3081,112.7375,113.2857,113.7919,113.4005,112.914,111.9113,110.6361,110.0362,108.2034,106.9358,105.2983,103.1184,101.9164,99.65646,97.65364,95.46111,93.5912,91.72975,90.07957,88.13854,86.77274,85.50595,83.84734,82.79508,79.92494,78.30577,74.73324,73.53323,68.78753,66.76178,64.20466,60.28234,57.37656,54.20525,50.90636,47.59139,44.8496,41.63708,39.07287,36.25677,33.18129,30.96592,28.19667,27.06747,24.02918,22.74764,20.87776,18.75681,16.32945,15.0917,13.16605,13.11234,12.84487,13.12483,12.25011,11.25534,9.689651,9.117958,8.151108,6.236778,4.191598,2.750097,0.3178766,-1.855136,-3.771783,-4.973707,-6.554926,-6.661376,-6.515024,-6.514737,-6.385775,-6.250024,-5.41105,-4.847494,-3.238423,-3.406261,-2.204353,-1.313497,-0.4754704,-0.1299437,0.9599625,1.58384,1.309822,3.050113,2.553331,2.935388,2.706937,2.608698,2.987918,2.234206,1.813037,0.872508,0.1868005,-0.2498837,-2.169287,-3.328224,-4.85787,-7.281489,-8.603631,-10.92594,-13.219,-14.63972,-17.35411,-18.62202,-21.02486,-24.10233,-25.44775,-29.6993,-31.50299,-34.90199,-37.68447,-40.61005,-43.75689,-46.47602,-49.66387,-52.61047,-56.02989,-58.21333,-61.1127,-63.7251,-65.80808,-68.316,-70.98136,-73.29626,-75.49819,-78.56172,-80.26031,-82.17841,-84.59133,-85.35132,-87.56895,-88.44117,-89.41226,-90.11362,-90.43138,-90.40903,-90.01701,-90.44314,-89.86985,-88.73328,-88.36661,-87.85493,-86.19428,-85.23956,-83.34412,-81.88818,-79.8026,-77.68705,-75.64732,-73.17252,-71.02561,-68.50949,-66.56813,-63.89751,-61.89427,-59.25684,-57.44636,-54.7187,-52.00991,-49.62712,-46.18708,-43.41826,-40.61527,-38.17137,-35.12012,-33.7521,-31.41518,-30.22619,-29.5328,-28.65015,-28.27316,-27.91153,-27.8133,-27.0955,-25.0835,-24.30176,-22.93016,-21.62899,-19.6133,-19.36141,-17.52796,-16.29478,-15.80237,-13.4699,-13.35913,-12.69833,-11.84138,-11.08331,-10.97844,-8.808653,-8.286969,-7.326104,-6.435521,-4.492707,-3.917938,-1.896689,-0.4022028,0.04323729,2.461876,2.528866,3.933714,4.63557,5.495516,6.063106,7.565293,8.99577,10.07945,10.95534,13.79013,14.57188,16.82039,18.65649,18.98399,21.31943,22.23651,23.15605,24.62028,24.62743,26.77151,27.35756,29.2814,29.53474,30.51573,32.43662,32.99734,35.44623,36.4294,38.71666,39.90069,42.86754,43.96948,46.04378,46.85837,49.31064,50.13113,51.58196,53.12862,54.48743,54.87321,56.67896,56.26387,58.07397,58.09661,58.79309,59.61285,59.99857,59.91667,58.93133,59.78639,58.71371,58.51415,58.28742,57.30168,56.81395,56.15897,54.603,53.43735,51.87846,50.89829,50.00524,48.18749,46.27378,43.97736,42.66279,40.49064,38.43866,36.28934,34.3967,32.46799,30.53806,28.84899,26.75542,23.90784,21.99033,20.03569,17.6284,15.25368,12.72408,10.03851,7.991017,5.393096,2.847105,0.1918642,-1.124757,-2.787576,-4.228033,-5.722759,-8.350815,-9.776802,-11.56314,-12.92338,-14.59198,-16.56855,-17.30624,-20.0007,-20.05763,-22.35912,-23.43676,-25.66099,-25.48547,-27.41344,-27.65647,-28.76528,-29.28146,-29.70233,-29.97109,-30.77156,-31.36593,-31.04304,-31.07341,-30.13243,-29.46715,-28.49845,-27.13873,-26.14585,-25.72421,-25.47729,-25.30544,-26.33061,-26.90487,-27.8609,-29.32497,-31.68459,-32.66136,-35.0336,-36.87105,-38.88024,-41.06885,-43.52073,-45.16105,-47.04952,-49.28258,-50.77211,-52.10233,-53.29868,-53.52885,-54.66102,-54.49408,-54.53435,-53.51221,-54.03666,-52.02744,-52.27005,-50.40897,-51.03703,-48.80122,-48.9229,-47.18588,-46.22805,-43.75018,-40.68985,-36.76396,-33.17185,-28.7648,-24.02463,-18.5971,-13.4033,-7.323447,-1.856204,3.693389,10.1022,15.96006,21.94788,27.40018,33.13261,38.64712,44.72493,49.77991,54.876,59.1894,63.74902,67.84276,72.02455,75.47536,78.37979,81.81231,83.73132,86.27747,88.078,89.3067,90.52466,91.92077,91.36055,92.30033,90.15047,88.99147,86.74535,84.52148,81.4151,78.56846,74.87935,70.08736,65.73098,60.61903,55.36117,50.04965,44.21416,38.17387,32.45187,25.59723,19.18721,12.33849,5.504856,-1.781652,-8.072172,-15.02077,-21.15057,-27.6671,-34.3238,-39.38476,-45.77508,-50.18356,-55.10285,-59.20001,-62.69625,-65.40892,-68.23221,-69.29017,-71.38167,-70.46846,-71.06761,-69.97435,-69.76316,-69.26635,-69.27462,-68.35202,-67.14991,-65.52918,-64.90203,-62.37833,-60.2198,-57.97193,-55.74182,-52.40976,-50.14519,-46.29415,-43.88047,-39.8139,-36.67424,-34.31229,-30.50616,-27.68008,-24.1191,-21.53953,-18.42111,-14.99465,-11.43642,-8.847608,-5.851914,-3.682171,-1.970087,-0.07773033,1.052457,1.455186,1.35362,2.843411,1.89881,3.25934,3.25446,5.148851,6.338452,7.757354,9.328468,10.1709,11.64309,12.24026,14.14898,14.1176,14.76522,14.56069,15.59205,15.55623,16.23983,16.79084,16.81522,16.96986,17.558,17.30749,18.33113,17.60636,18.37121,18.36805,18.61789,18.04792,17.45694,17.98831,18.32522,20.06468,19.91567,20.73331,21.09718,21.64835,21.68746,21.48505,21.21607,21.3893,21.60689,21.3289,20.7272,19.89391,19.80217,19.74433,20.45549,20.19286,19.75338,20.85312,20.5771,19.98294,19.13317,17.17223,16.40648,14.96201,14.40307,13.16698,12.80724,12.33467,11.56479,10.20113,9.628213,8.098681,7.228683,6.577416,5.327603,3.743572,1.742762,-0.434942,-2.783503,-3.94301,-6.076869,-5.777468,-7.526332,-7.157807,-7.995609,-8.253607,-8.488604,-9.295363,-8.057808,-8.974277,-8.442863,-8.302429,-8.543313,-8.538502,-7.700716,-7.362398,-7.621832,-6.829831,-6.747705,-5.836233,-6.098884,-5.87539,-4.631149,-4.612657,-3.960138,-3.949505,-3.37772,-3.352836,-2.122039,-2.445455,-0.6281128,-1.228646,-0.8148564,-0.5965276,0.8238071,-0.009237429,0.8195783,0.8484924,1.069031,2.32666,3.322513,3.428352,3.445794,3.9208,4.496775,4.79148,4.900922,4.983418,5.991064,5.654543,6.028454,5.676754,5.646369,5.90798,6.374712,6.103023,5.602899,5.319756,5.605675,5.112103,4.851077,2.990357,3.527965,2.157197,1.970064,1.423177,0.7667991,1.24637,0.7678018,0.3645069,-0.8813391,-0.7474455,-1.424902,-0.7014941,0.09305722,0.1901303,1.818536,1.988414,3.157693,3.055642,4.330078,4.063128,4.529594,4.325108,3.479046,2.513175,1.843055,0.8428582,-1.037665,-2.420345,-3.754883,-5.772142,-6.695689,-7.846418,-8.720186,-9.574173,-10.30102,-11.76822,-13.82619,-14.35659,-15.47747,-17.39391,-18.18303,-20.29638,-21.22111,-23.35629,-24.43116,-26.12874,-26.34155,-26.73304,-26.28693,-26.16243,-27.3121,-27.17426,-26.43202,-25.69135,-25.74348,-25.18338,-25.24603,-24.66926,-24.58518,-24.69535,-24.55683,-23.59887,-22.69684,-22.0854,-20.80861,-20.47545,-18.7958,-17.44455,-15.84311,-14.74208,-13.62111,-12.13267,-8.87153,-6.824147,-3.389966,-1.861252,0.7596283,1.235088,2.857078,2.133609,2.596549,2.834043,2.821938,1.564187,1.465439,0.1067069,-0.8689347,-2.516451,-3.525962,-5.823739,-6.548709,-8.678461,-9.939249,-12.07718,-14.14273,-15.59126,-17.82638,-19.58024,-21.62715,-23.34119,-25.57878,-27.01489,-28.70711,-30.0564,-31.47412,-32.54531,-33.73934,-35.22308,-36.12679,-36.32744,-36.54322,-37.94149,-39.02231,-39.02726,-39.546,-38.27996,-37.66825,-35.29086,-32.68887,-28.68827,-24.85919,-19.96944,-15.41189,-10.746,-5.346824,-1.23228,3.227079,8.211944,13.2011,16.9604,21.71631,25.97027,30.25018,35.08805,39.18085,43.39023,47.23135,50.69401,54.22226,57.04182,60.14086,62.31136,65.12593,67.58682,69.58242,71.09138,73.1432,75.34375,76.94547,77.60105,79.07552,78.81024,79.70029,79.55189,79.47263,78.06302,77.63462,75.45906,74.49114,72.00429,69.88633,68.06396,66.12477,62.8619,59.53943,55.84639,51.56972,48.52778,43.88042,40.67381,36.92152,33.07617,30.33556,26.42411,24.42393,21.1926,19.92466,17.46257,16.30535,15.44598,15.14603,14.99672,15.7309,14.6532,14.80409,12.10715,12.14258,10.76634,10.57003,10.09563,10.52362,10.1025,10.08785,10.70669,11.01542,11.83126,12.30048,13.1044,14.63494,15.10797,16.34065,17.0367,18.68551,20.12241,21.71025,23.18502,23.30438,24.60607,25.38156,26.82666,27.61737,29.41196,30.51399,32.19424,33.55874,34.89257,35.50747,36.02134,37.47023,38.06699,37.57333,37.5625,37.80381,38.92248,39.57997,40.68332,40.90425,41.51424,41.80876,42.37611,42.40824,42.33009,41.64912,42.23704,42.23487,41.88602,41.27369,40.69039,39.69129,38.83135,37.53738,36.45345,34.19916,32.98367,30.92918,29.40703,26.29103,24.47973,21.86594,19.40374,17.42698,13.7925,11.81691,8.519996,5.737345,2.667071,-0.3571167,-3.470542,-6.598976,-9.881183,-12.3998,-16.37285,-19.1555,-22.67605,-25.47045,-29.24444,-31.46,-35.49473,-37.79091,-41.09966,-43.74418,-46.47689,-48.97216,-51.70043,-53.70528,-56.32118,-58.49939,-61.13122,-62.84791,-64.76039,-66.75876,-68.36188,-69.96541,-72.01954,-72.43904,-74.76139,-75.02387,-77.19273,-76.97753,-78.49922,-78.58061,-79.78812,-78.80275,-79.48059,-78.3476,-77.76936,-76.4066,-76.00541,-74.60348,-74.14039,-73.51158,-73.93181,-73.6044,-74.51501,-74.53244,-75.64439,-76.71844,-78.10311,-79.75209,-81.82062,-82.80239,-85.57498,-87.16898,-89.5451,-92.07849,-93.99752,-96.32312,-97.50164,-98.90456,-99.49448,-99.89084,-99.98696,-100.3533,-99.5139,-99.69448,-98.68009,-97.75726,-96.0337,-94.3994,-92.29459,-89.60758,-87.11346,-84.09569,-81.52129,-77.55006,-74.76764,-71.0843,-68.23884,-64.70532,-60.13719,-56.38609,-51.3189,-46.80827,-41.0998,-36.19426,-30.31023,-24.50933,-18.8302,-12.85217,-7.298504,-1.85586,4.09504,9.373713,14.99218,20.55229,25.66138,30.04409,34.67031,38.10079,42.52652,46.1369,49.73782,53.13962,55.40407,58.61742,60.87203,62.58631,64.63085,65.46329,67.07809,67.45143,68.11708,68.51205,68.09969,67.7411,66.1375,66.42597,64.33809,63.08478,60.81482,59.72708,57.46457,55.50922,51.96098,49.94748,46.79094,44.179,40.79118,38.10339,34.74262,31.38381,28.6449,25.20411,22.91119,19.04619,17.4227,15.4313,13.58737,12.13328,10.42025,10.79364,10.31434,11.48915,10.87917,12.25126,12.83925,13.29959,14.03116,14.2929,14.87617,14.62572,15.17574,16.05191,15.53573,16.31454,16.66135,17.43557,17.6445,18.72258,18.81332,20.24509,20.10193,21.40353,21.46788,22.11396,23.08497,22.89641,24.05991,24.5877,25.02206,26.18471,26.51188,27.51027,27.3788,28.24318,28.43698,29.42587,29.62122,28.78507,29.90455,29.30436,28.61139,28.77415,27.113,27.38284,26.15687,25.91742,25.1176,25.01757,24.74121,24.67986,24.91202,24.72294,24.46953,24.4654,24.46299,24.06384,23.86813,23.10483,23.16434,22.58545,23.44211,22.43653,21.82089,21.01894,20.36776,19.45261,19.0221,17.9609,17.8374,17.45227,16.67905,15.47111,15.07213,14.28464,13.13444,12.46891,12.19913,10.65666,10.41597,8.357438,8.229173,6.76629,4.915211,3.874483,2.582346,2.049473,0.2894782,-1.024329,-1.572876,-2.287841,-3.345371,-3.967918,-5.720753,-5.288236,-7.311179,-7.80047,-9.189223,-9.978335,-11.44284,-12.35499,-12.65817,-13.94433,-14.40966,-16.01252,-15.12405,-16.5135,-16.40982,-18.02339,-17.77954,-18.78587,-19.13966,-19.64766,-20.92264,-21.35165,-22.17953,-22.72394,-23.257,-24.10899,-24.53943,-25.50279,-24.65911,-25.1601,-25.93095,-25.73486,-25.34808,-26.24873,-25.51947,-26.54711,-26.9612,-27.2226,-27.6753,-27.9599,-28.06648,-28.73881,-28.19478,-28.76425,-27.70791,-27.83788,-28.25203,-27.5747,-28.21718,-27.72529,-28.27339,-27.83496,-28.76225,-28.20276,-28.48176,-29.09845,-28.47414,-28.82274,-28.91776,-28.17515,-28.23844,-28.12047,-28.40067,-28.03992,-28.31038,-28.20702,-28.56823,-28.48691,-28.94876,-28.73173,-29.88062,-29.78621,-30.58243,-30.83068,-30.40502,-31.19175,-30.62579,-31.63297,-31.57546,-32.01165,-32.95964,-31.55075,-32.0819,-31.44896,-31.21969,-30.49812,-30.72723,-30.41151,-30.97836,-30.73074,-31.4163,-32.55922,-33.47897,-34.47191,-35.99023,-37.34821,-39.05382,-41.04286,-42.27462,-43.78851,-45.40672,-46.74132,-47.97942,-49.3357,-49.93222,-50.81513,-51.57236,-52.84256,-52.75131,-53.7412,-54.02547,-54.0993,-55.05532,-54.31712,-53.63864,-53.03335,-52.15653,-50.83756,-49.34064,-47.29645,-45.23025,-43.07574,-40.46239,-37.74933,-34.93956,-31.9809,-28.95902,-25.86744,-22.63805,-18.78874,-15.45268,-11.55508,-8.168488,-3.927097,0.3248345,4.639323,9.065471,12.84045,17.58886,21.41466,26.25411,30.20427,34.10723,38.25336,42.72787,46.30286,50.86014,54.29081,58.37077,62.60606,66.3534,70.18295,73.58627,76.84379,80.34097,83.21543,85.88943,88.18531,90.40486,92.82373,94.72989,96.73743,97.89263,99.41127,100.9631,101.7716,103.3016,103.5696,103.8539,104.6127,104.2648,103.383,102.4163,101.1431,99.1201,98.34412,95.82112,94.43576,93.27043,92.83338,91.36667,92.05932,90.67242,91.20258,90.65401,91.66607,91.27642,91.18271,91.52619,92.87868,93.27228,95.23626,94.37212,96.19615,95.1929,96.45896,95.89563,95.6548,93.99067,93.25347,91.20537,89.92531,86.62209,85.42704,82.14703,79.70607,76.31404,72.68565,69.03235,65.1853,61.42908,57.29673,53.41021,47.77187,43.91486,37.96184,32.58986,26.99794,21.05337,16.08162,9.899775,5.397109,-0.1674302,-5.161756,-10.41204,-14.91809,-19.49034,-23.4776,-27.84273,-31.20954,-35.11086,-38.12045,-41.9701,-45.11689,-48.8509,-50.94917,-54.0461,-56.01909,-59.00131,-59.66657,-62.4301,-63.73363,-64.97558,-66.5061,-67.46009,-68.23858,-68.53704,-68.94986,-68.24858,-67.26604,-66.11113,-65.33027,-63.31334,-61.26438,-58.74914,-56.73522,-53.03039,-50.86856,-47.03262,-44.39033,-40.17802,-37.04582,-32.99222,-29.75261,-25.76966,-22.2398,-18.34931,-16.15659,-11.79146,-9.13092,-5.847967,-2.410518,0.1925939,2.733156,4.198789,6.042958,6.54144,7.037852,5.866013,4.974428,2.857988,1.769072,-1.68228,-3.310591,-5.6965,-7.318146,-9.080068,-10.15777,-11.47426,-12.36704,-13.9542,-14.12963,-16.0246,-16.4254,-18.42585,-18.46566,-20.56867,-21.2459,-22.50814,-22.93443,-24.32104,-24.71124,-25.78787,-27.21249,-28.21239,-28.53031,-30.36604,-31.62206,-32.9294,-34.48203,-36.10083,-36.99254,-39.22552,-39.79806,-42.60707,-43.38269,-44.4121,-45.79953,-46.31621,-47.41745,-47.21753,-48.16474,-48.6174,-49.71604,-50.88613,-51.37251,-51.74304,-52.14639,-52.27109,-51.7617,-52.22291,-49.13047,-49.9531,-48.08244,-47.49485,-44.83655,-44.29819,-41.97521,-40.7042,-39.43959,-38.16339,-36.43583,-35.28759,-33.83214,-32.5111,-31.07625,-28.73916,-27.50058,-26.13421,-24.08877,-22.87307,-20.479,-18.83171,-17.33211,-15.63658,-13.12177,-11.51129,-9.754017,-7.464834,-5.622818,-3.915374,-1.964629,0.7553048,2.624601,5.387381,7.387915,10.52665,12.2763,15.75676,17.48646,21.65749,23.38632,27.00477,28.60648,31.87966,33.08028,36.12737,37.37772,41.02245,42.04167,44.64346,45.83901,47.58273,47.45072,47.75866,48.06938,47.53151,46.79449,45.74053,44.67992,43.67276,42.56974,41.2856,40.62823,39.78429,38.80599,38.33473,37.65705,37.26275,36.84423,36.22513,36.2479,35.61555,34.22191,32.8265,32.42988,31.10297,30.62623,30.59329,29.99065,30.18897,30.21862,30.41105,30.58129,30.90559,30.69767,31.32174,31.95939,31.94988,31.77255,32.23322,31.84231,31.93439,32.27067,31.964,32.62462,32.92965,32.84998,33.19511,32.64965,32.51151,31.75828,31.81861,30.85518,29.27837,29.91888,27.64204,27.27913,25.77602,24.92744,23.44244,22.89165,19.97942,18.82388,15.80994,13.76367,10.79075,9.037721,5.561518,2.807915,-0.2221186,-2.469685,-6.721886,-9.05488,-12.51763,-15.96871,-17.85402,-21.64226,-24.35839,-27.02546,-30.94024,-33.40093,-36.91443,-39.69999,-43.49218,-45.79576,-49.7306,-51.29565,-54.38604,-56.40892,-58.97932,-60.74068,-62.05104,-63.36111,-64.60287,-65.87069,-66.65803,-66.23954,-67.07497,-66.73753,-66.95218,-66.50348,-65.94284,-65.52349,-65.01501,-64.01546,-62.57351,-60.84396,-59.20991,-57.10491,-55.23764,-52.36565,-49.15594,-46.97021,-44.01384,-42.65543,-40.06823,-39.66108,-37.878,-37.39535,-36.41631,-35.37284,-33.42186,-32.222,-30.92218,-29.60452,-28.05214,-26.15473,-24.56683,-23.45075,-22.162,-20.60336,-19.78308,-18.41052,-17.20694,-15.05421,-13.12398,-10.65803,-8.181444,-6.259842,-3.090975,-1.25776,2.240467,4.489755,6.856089,9.537374,12.24469,14.96305,17.48276,20.22527,22.65364,24.94735,28.32446,30.52514,33.16672,35.69702,37.48643,39.9792,42.10418,43.76276,45.61716,47.87905,48.29378,52.15289,51.62954,54.76492,53.77139,56.50158,56.35153,58.27643,57.39802,58.45351,57.92754,57.94183,57.48875,57.14929,56.57299,55.60338,54.69879,53.70299,51.72324,50.69033,48.44401,47.99043,45.17921,43.33092,40.85049,38.57965,35.57312,33.77223,31.01294,28.91698,25.74521,23.84007,21.21174,18.54125,16.05543,14.28406,11.32943,10.42879,8.158105,7.063431,5.280859,3.137712,1.776012,-0.6809214,-2.561099,-4.343373,-6.427769,-7.665625,-10.21588,-11.03024,-12.85759,-13.47092,-14.2355,-15.30481,-15.60867,-15.50248,-16.22663,-14.68343,-15.59731,-15.23515,-15.41489,-15.00414,-16.49529,-17.02348,-17.42735,-19.71957,-19.03684,-20.6746,-21.65334,-21.89067,-22.34307,-22.79391,-22.64545,-21.97395,-22.0372,-21.2907,-19.88256,-19.40532,-17.65319,-16.52679,-15.65883,-14.14852,-12.41049,-11.62913,-10.09716,-9.443677,-8.250529,-7.174754,-6.532131,-5.595137,-5.26886,-4.701776,-4.344288,-3.616519,-3.714045,-2.633285,-2.84759,-1.947692,-2.703736,-3.044774,-2.932421,-3.733532,-4.177732,-3.920577,-4.061172,-4.011474,-4.638742,-5.069375,-5.936851,-7.098783,-8.803331,-8.001264,-12.1511,-12.33668,-15.95749,-16.90515,-20.62441,-21.91836,-25.82663,-27.64133,-31.42199,-33.42881,-36.14766,-38.89949,-41.63578,-44.01703,-46.33712,-48.44651,-50.45689,-52.64043,-54.22167,-56.3104,-57.96227,-59.82313,-60.69057,-62.36413,-62.32496,-62.46063,-62.63023,-63.59381,-62.94064,-61.97326,-60.63318,-59.73207,-57.38873,-55.19417,-52.29504,-48.96265,-46.45809,-43.21747,-40.69585,-37.30226,-33.17536,-30.52689,-26.2301,-22.76524,-18.6352,-15.34387,-9.47933,-5.451081,-0.4476759,3.859176,7.215603,11.07396,15.05673,17.42637,20.35747,23.41606,25.12644,27.58281,30.05352,31.5873,33.11985,34.38413,35.14726,34.92406,35.88187,35.16023,35.87558,35.69432,36.28544,36.1158,37.06073,36.39659,36.98222,36.95757,37.21724,37.04227,37.22427,37.00406,36.13914,36.53606,36.21214,34.95748,35.18455,33.56443,33.76933,32.87763,32.66755,31.48634,31.1015,30.50405,30.25915,29.85604,29.40201,29.59085,28.41132,29.38538,28.60035,29.64242,29.70548,30.26671,31.66538,33.48337,33.38905,34.3796,34.67129,35.46052,35.49261,36.02978,36.18669,36.80854,36.64435,37.25278,37.9478,37.41215,37.78946,37.88879,38.01234,38.1828,37.697,38.81878,38.34361,38.10739,37.87419,37.52354,36.44991,35.95841,34.86851,33.2339,32.37324,30.71719,30.36096,28.87953,28.88756,26.82145,27.59477,25.97973,26.32402,25.11057,24.72969,24.35501,23.13994,22.64547,22.47876,21.67279,21.72645,20.09179,20.27193,18.87502,18.05582,17.59559,16.34198,16.42036,15.32447,14.76655,15.29108,14.4242,15.47375,12.41175,12.40302,9.7458,7.895606,6.105384,3.539143,0.249109,-2.441116,-6.201239,-9.852207,-13.54035,-18.45939,-22.66257,-27.68833,-31.76642,-37.0916,-42.06215,-46.17476,-51.21816,-55.37616,-59.51177,-63.71761,-67.65344,-70.98703,-74.76862,-75.60326,-79.93668,-81.55104,-83.71483,-85.85475,-87.04404,-89.2197,-89.63711,-90.55371,-90.85879,-90.61185,-90.75133,-89.49646,-88.99591,-87.74186,-86.13392,-84.09866,-83.45141,-81.21654,-79.4609,-76.61694,-73.60905,-70.25486,-65.71241,-61.39967,-56.26743,-51.66033,-45.76306,-39.44055,-34.10511,-28.38765,-21.69506,-16.68973,-10.1985,-4.677357,1.215228,6.940533,12.7484,18.61034,24.54459,30.1643,33.72113,39.50301,43.69541,48.1459,51.95108,54.89213,57.60953,59.2295,60.79363,61.72581,62.17432,62.35411,62.00554,61.95599,61.20551,61.30847,60.30191,60.21569,58.79507,57.74696,56.66309,55.07986,53.1291,51.66134,48.58909,47.15845,43.95066,41.13832,38.87508,36.23279,33.46238,31.24612,27.42738,26.56521,22.44018,22.22428,18.95439,18.25596,16.92332,15.93874,15.20055,14.33464,12.6324,12.40696,11.13075,12.20437,10.89991,11.65279,10.67055,11.48564,10.27625,10.6607,9.300892,9.835872,9.014156,8.791763,8.838648,8.741698,8.971439,8.680735,9.402628,9.932418,9.776975,11.1857,11.54645,12.40072,13.36504,14.2361,14.97283,17.17558,15.92588,18.64717,18.28692,19.97372,20.95647,21.68008,22.98018,23.63604,24.43815,25.32784,25.47573,26.00091,32.76397,33.02482,33.70761,33.88998,32.85398,32.7721,31.67521,21.00441,24.74215,18.55565,18.97177,15.42384,15.50988,13.79052,14.15216,12.85477,12.60362,12.37669,12.28671,11.62299,11.84331,11.76041,13.29062,14.62507,16.95449,18.87506,21.66181,23.9799,26.59514,30.58058,32.95176,35.63526,39.29284,41.13085,44.86737,47.33722,50.04491,53.01627,55.61828,58.30807,60.05449,62.67156,64.55764,67.25308,68.09621,70.16772,70.26159,71.48468,72.02916,71.47012,71.74548,70.96854,70.1229,69.01868,66.51818,65.19078,62.47162,60.4011,57.77199,54.63507,51.40728,47.84514,43.59483,40.75448,34.89687,31.79851,25.70886,21.4012,15.69405,10.53145,4.81091,-0.6407997,-6.314529,-11.66806,-17.7072,-23.47931,-29.78786,-35.04357,-41.27521,-46.47254,-53.28476,-58.23714,-64.54351,-69.79647,-74.78335,-80.34969,-85.32008,-90.11068,-94.99194,-99.24585,-103.674,-107.3204,-111.5271,-114.2075,-117.1558,-119.9028,-121.9782,-123.1162,-124.6992,-124.6795,-125.6167,-124.9605,-124.3712,-122.9781,-120.6821,-117.6476,-113.9604,-109.5291,-104.2529,-98.36928,-92.40798,-94.74261,-92.93779,-91.80389,-93.44864,-94.43869,-98.31983,-102.03,-94.37963,-101.2543,-98.17969,-101.5933,-100.5348,-102.8306,-102.6419,-105.1283,-105.931,-108.5403,-109.0595,-110.1625,-110.67,-110.8025,-110.4349,-110.0275,-108.6998,-108.158,-106.7099,-104.9206,-103.437,-100.6007,-99.88347,-96.73675,-94.09006,-91.59257,-87.36416,-85.26162,-81.02781,-78.09143,-74.38538,-69.71231,-66.20915,-60.69313,-57.38793,-51.29943,-47.95493,-42.05534,-38.15655,-32.38908,-28.25676,-21.88655,-17.51846,-11.90163,-7.483355,-1.638329,3.215475,8.793245,12.71023,18.81149,23.03168,28.78978,33.43213,37.74074,42.27706,46.53728,50.48265,55.11112,58.64539,62.90438,66.51236,70.13551,73.52598,76.3281,79.52458,81.51623,84.91707,86.97244,88.84522,91.17584,92.60234,93.80248,94.81665,95.61564,96.54871,96.67366,97.71411,96.78893,97.3989,96.44922,96.06644,95.1006,94.37156,92.91761,91.40585,90.70408,88.95895,87.81832,86.51597,85.09438,83.7873,82.82036,82.10879,80.29985,80.28543,78.986,79.44162,78.90089,77.93808,77.37188,76.71029,75.45524,74.32858,72.67572,70.29896,68.69292,66.20404,64.33469,61.97992,59.04383,57.5694,54.68885,53.26428,50.15895,47.78006,45.47831,42.82923,40.96194,38.05646,35.86283,34.06861,31.6837,29.74256,27.30113,25.54359,23.61871,21.99772,20.59001,19.29587,17.2661,16.11376,14.57052,13.33817,13.10023,11.18493,10.24575,8.862085,7.516355,5.559137,4.118748,2.176787,1.040603,-1.161619,-2.271124,-5.475038,-5.911564,-9.083031,-9.491026,-11.70897,-13.04027,-14.93229,-16.00948,-17.84804,-19.17621,-20.92495,-21.75167,-23.46617,-23.75491,-25.43577,-25.31594,-26.95949,-26.71263,-28.17864,-28.43628,-30.24775,-30.22703,-29.9067,-30.18619,-30.25651,-30.84641,-30.8369,-30.03653,-30.19822,-30.3092,-30.05522,-30.07639,-28.49069,-28.53732,-28.16102,-27.80872,-27.0514,-25.8855,-24.8033,-23.93255,-23.72398,-22.46552,-20.9967,-20.01824,-19.0233,-18.62512,-17.46181,-15.814,-13.65411,-12.0061,-9.796882,-7.711847,-6.344192,-4.248566,-4.301113,-3.649261,-3.580066,-2.747957,-2.79512,-3.731412,-3.580453,-4.087469,-4.605643,-5.291146,-7.220002,-8.441077,-10.24399,-11.11679,-13.20622,-14.86293,-17.97798,-19.05207,-21.06214,-21.07244,-23.86214,-24.99419,-26.66045,-28.68564,-29.73391,-32.53641,-33.66235,-35.69735,-36.19692,-36.85849,-38.93559,-39.4098,-40.15865,-40.08983,-39.67529,-39.96774,-38.86749,-38.73368,-36.41486,-35.21093,-33.2027,-32.14267,-29.13178,-27.14231,-23.46926,-21.67974,-19.14312,-16.69975,-13.48398,-10.60223,-8.068039,-4.956863,-2.772331,1.084326,3.966897,7.098773,9.045941,12.262,15.4441,19.06055,21.78727,24.15289,26.30803,28.81762,32.01652,33.97433,36.33551,37.89436,41.09865,43.17062,45.14083,46.58431,47.34487,49.09159,50.0664,51.16092,51.16043,52.15538,52.77909,52.78747,52.95179,51.98149,51.88643,51.39734,49.98664,49.27006,47.56593,46.28757,44.94092,43.55955,41.62553,39.88585,37.99039,35.85949,33.78959,31.26517,28.34614,25.97807,23.11439,20.8777,18.87364,16.35661,15.78698,14.48609,14.1159,12.86362,11.68246,9.912374,8.714439,7.563348,6.485766,5.354578,4.392837,3.613021,2.490489,2.051872,0.4839835,-0.7986264,-3.291637,-3.700538,-6.153671,-7.237076,-9.285771,-10.9626,-12.84526,-14.10978,-16.56614,-17.59135,-19.76062,-20.83986,-23.0335,-24.9505,-28.08078,-28.91342,-31.32491,-33.16774,-34.96321,-37.48384,-38.72383,-40.33224,-42.14891,-43.71949,-45.69778,-46.79246,-48.59131,-49.96686,-51.26356,-52.84727,-53.66474,-54.3365,-55.66033,-56.38267,-57.30227,-57.42008,-57.61175,-56.83139,-57.85412,-57.17118,-57.34533,-56.86974,-56.17505,-56.14886,-55.05678,-54.83877,-53.54602,-52.68428,-51.55165,-49.85407,-48.4885,-47.21848,-45.32909,-44.20749,-41.91692,-40.29867,-37.55591,-35.67519,-33.27324,-30.54527,-27.78222,-25.02646,-22.5179,-19.8991,-17.25987,-14.335,-11.7571,-7.927208,-5.462113,-2.522812,0.7773507,3.058747,6.265491,8.0915,10.8279,12.1889,14.66168,16.79126,17.90084,20.43538,20.56767,22.99304,23.26552,24.36205,23.89256,24.04493,36.63898,26.73684,35.30026,29.94996,33.96671,31.00902,32.90114,30.63993,31.25649,27.45663,17.91143,23.84252,16.08806,18.75084,15.32093,16.90731,16.63535,17.91845,18.32423,20.00818,21.87702,23.99564,26.06399,28.22148,31.15428,34.54609,37.00547,40.23887,42.49623,45.58394,48.81609,51.94194,54.54248,57.87224,60.10472,63.84759,66.12447,68.21309,70.94765,73.22035,74.31698,77.09689,78.27304,80.02597,80.58384,82.43926,82.46286,82.64708,82.45529,83.83656,82.12033,82.90656,81.10019,80.95593,78.88333,78.22857,75.51824,74.79453,71.69109,70.24648,67.16918,64.73021,60.41474,58.32079,53.53317,51.24874,46.80615,43.44193,39.3057,35.30995,31.13511,27.36226,23.28773,18.69653,14.73885,10.27712,7.063298,2.929111,-0.863561,-4.562856,-8.226313,-11.38354,-14.07685,-17.10686,-20.28036,-22.38524,-24.94195,-26.84415,-28.53368,-30.60629,-31.50101,-32.23932,-33.41312,-34.19678,-34.6722,-35.05974,-34.24247,-34.83478,-33.77838,-32.72188,-31.06921,-30.48114,-28.48346,-26.67354,-25.54428,-21.9518,-18.63638,-14.06577,-9.236793,-2.30198,5.275324,-2.688082,11.27597,6.015422,12.4219,10.62411,13.91007,11.64873,12.03792,8.946805,8.643215,17.43121,10.13803,16.67251,12.92808,16.39869,15.37475,16.8956,15.77474,16.38577,15.77805,15.42212,15.04493,13.71163,13.15344,11.6098,10.41804,9.016415,6.968627,5.199725,3.166554,1.220038,-0.877422,-3.175878,-5.732491,-8.244761,-10.0714,-11.95858,-14.97157,-17.70751,-20.44141,-22.58029,-25.2978,-27.72623,-31.10725,-32.8878,-36.29243,-38.9001,-41.10031,-43.67749,-46.67447,-48.70909,-51.06575,-53.44771,-56.29492,-58.36519,-60.39986,-62.55692,-64.57384,-66.989,-69.06459,-70.6876,-72.55675,-73.64864,-74.63046,-75.21824,-75.3351,-74.92545,-74.41445,-74.64396,-74.87129,-74.97088,-75.27707,-76.6547,-77.3549,-78.86206,-78.96479,-80.33882,-80.72129,-80.66508,-82.09322,-81.28449,-81.36884,-81.11541,-81.12838,-79.96831,-79.32006,-77.50639,-76.4789,-75.25439,-74.17016,-72.67723,-71.68382,-69.39651,-68.17132,-65.5853,-64.06404,-61.70392,-58.80575,-57.20009,-55.73711,-53.40684,-50.17032,-47.76424,-44.03798,-40.2664,-35.39804,-31.41756,-26.80984,-22.01686,-18.09633,-12.65872,-9.036933,-3.241673,-0.008300169,5.501391,9.254966,14.59857,18.51388,23.15741,26.74389,31.14665,35.10465,39.1205,42.12138,45.95389,49.37907,52.48038,54.53447,57.5724,59.16522,61.21926,63.3724,65.30683,66.11966,67.72273,68.44934,69.25404,69.93996,69.57063,69.69116,69.27615,69.54876,68.06519,67.96299,65.93632,65.71959,63.5532,61.65512,60.19267,57.77368,55.73251,53.42378,51.07351,47.86182,45.41311,41.98201,39.83284,36.49687,34.12851,31.19721,28.16208,25.87298,23.53645,20.90803,19.00921,16.82855,14.83669,13.90685,11.87927,10.96609,10.10722,10.08282,10.41053,11.3006,10.74754,12.74357,12.18845,13.20859,11.81394,12.41462,11.27549,11.25953,10.47546,10.65329,9.730785,10.13932,9.587213,9.894479,9.382688,8.779084,8.737322,8.682686,8.341407,7.69166,8.301071,7.247648,7.271655,6.017324,5.649243,4.064961,3.729684,3.001205,3.899124,1.735943,2.891387,0.8972134,2.083024,1.648559,0.8750468,0.9981965,1.363232,1.123599,1.16783,1.688345,0.8078772,0.8562743,0.3412579,0.1840564,-0.7363399,-1.134784,-2.083459,-2.546421,-1.933504,-3.523849,-3.642816,-4.009213,-3.826228,-4.570129,-4.125135,-5.337236,-5.382726,-5.635254,-6.019375,-6.489066,-7.153496,-7.609254,-7.998894,-8.554456,-7.788828,-9.089797,-8.479406,-8.277224,-8.459044,-8.526258,-8.291225,-8.727125,-8.592927,-8.313132,-8.963517,-8.973661,-9.187047,-9.331446,-9.542366,-9.18079,-9.499399,-8.765543,-8.912777,-8.60733,-8.061234,-8.635561,-8.658262,-8.169599,-8.334578,-8.546,-8.393032,-8.835229,-8.619673,-8.682191,-7.729885,-7.875431,-7.893606,-7.259116,-7.038281,-7.516096,-6.580069,-7.469757,-7.409893,-7.567905,-8.202809,-8.986552,-9.479838,-10.31033,-10.17561,-10.21089,-10.41979,-9.44697,-9.693427,-8.531866,-8.936297,-8.253706,-9.229925,-10.11834,-10.44855,-11.66554,-12.83356,-14.51312,-16.25527,-17.89085,-19.31099,-21.18243,-23.30163,-24.60396,-25.86531,-26.74705,-27.85842,-29.12493,-29.96281,-30.41055,-30.63528,-31.55226,-31.49768,-31.63745,-31.15826,-31.11919,-29.88224,-29.56784,-28.14581,-27.81753,-26.29137,-24.93498,-23.52071,-22.03606,-19.96983,-17.93993,-16.78717,-14.3724,-12.83037,-10.58799,-7.912933,-5.41756,-3.514089,-0.289484,1.967077,4.635111,7.015091,9.729148,11.96079,14.88061,17.42501,19.92325,21.71531,24.69897,25.94964,28.87526,29.90304,32.48256,33.93337,35.99542,37.69333,38.90584,40.25304,41.3082,42.22352,43.44784,43.8244,44.27654,44.71958,44.8086,45.29163,45.19149,45.66977,44.79114,45.41099,44.96666,45.2924,44.21881,43.99627,42.75867,42.87515,41.15612,39.91247,39.12123,36.48519,36.69835,34.0954,33.04711,30.8347,29.82378,28.63091,26.94858,25.55073,24.63917,23.75389,23.9083,23.21888,22.32798,20.98681,21.31281,20.19867,20.06219,19.56657,19.82407,20.65058,21.05108,22.44574,22.38527,22.75716,22.93259,23.09311,23.1947,22.29577,21.38718,21.04868,20.78672,19.1863,18.66898,17.28696,16.84257,15.94302,14.6381,14.63263,14.28663,13.5111,12.56459,11.61315,10.76057,8.935754,7.917331,6.583134,4.68782,3.010749,1.512319,-0.2601961,-1.652383,-3.26787,-5.760153,-7.869818,-10.3038,-11.39838,-13.89342,-15.06674,-17.14277,-18.7232,-19.87936,-21.15952,-22.06552,-23.21911,-23.482,-23.69389,-24.27342,-24.56014,-24.96807,-24.49685,-24.139,-23.21512,-22.67765,-21.18965,-20.26028,-18.95186,-17.22415,-16.20091,-14.33917,-13.21259,-10.77553,-9.377943,-7.078999,-5.970463,-3.905177,-2.41844,-0.2659576,1.468846,2.708604,4.688782,6.118122,7.981044,9.148224,10.76742,11.6464,13.5798,14.46081,15.78555,15.98321,17.14368,17.07404,18.33091,17.80169,17.82637,17.15903,16.762,15.93579,15.13607,14.02467,12.71804,12.4277,10.17995,9.847454,7.577093,7.448281,6.160066,5.27699,4.380509,3.24929,2.121688,0.9395854,-1.554691,-2.850681,-6.258453,-7.565294,-11.24931,-12.66521,-15.85118,-18.39076,-21.23294,-23.7855,-26.02323,-30.06747,-32.90552,-35.53999,-38.63824,-40.91923,-43.87466,-45.92127,-48.53949,-49.33754,-51.78948,-52.20164,-54.16338,-54.3794,-55.31844,-55.49645,-55.25203,-56.23109,-56.91515,-56.97655,-56.96257,-56.77189,-57.08114,-56.95427,-56.58949,-56.58942,-55.81336,-55.36521,-55.33933,-54.43044,-54.57621,-54.3129,-53.88813,-53.71654,-53.21297,-52.71795,-51.74317,-52.24611,-51.01182,-50.94785,-49.948,-49.18202,-48.7416,-47.92663,-47.33064,-46.44986,-45.73811,-44.96407,-43.30652,-42.92227,-40.97657,-40.40747,-38.7488,-38.22642,-35.96701,-35.28822,-33.39403,-32.42863,-30.81118,-29.72769,-27.81048,-27.04213,-25.56654,-24.6216,-23.05273,-22.23819,-20.27855,-20.21403,-17.95658,-16.32001,-15.32421,-13.88426,-12.78735,-12.18588,-10.343,-10.23191,-8.909928,-8.956342,-7.92731,-8.032313,-6.262274,-6.784674,-6.104988,-5.818269,-5.59605,-4.237339,-4.180081,-3.273327,-2.614995,-2.214966,-1.180994,-0.575493,0.2077254,0.8004659,1.578712,2.112482,3.07705,3.405506,4.294118,5.002644,4.980656,6.397625,5.897466,7.040865,6.704408,8.151322,7.853863,8.672828,8.480096,8.769501,8.861216,8.542027,9.549097,10.1712,10.34533,11.31661,11.75457,12.49887,13.14893,13.75858,14.77946,15.5279,16.67152,16.86116,18.68934,18.86372,20.64208,21.5882,22.80959,24.21789,25.25576,26.97321,27.97157,29.6508,30.50434,32.45229,33.9806,35.27895,36.77428,38.0655,39.46291,41.034,42.15507,43.84863,44.2412,46.39824,47.1242,48.39079,50.02629,51.0384,52.75234,53.86176,54.79559,56.52327,57.00583,58.71271,59.47151,60.81891,61.72766,62.42133,63.46525,63.83759,65.20393,64.9485,66.32745,65.33662,67.17961,66.54251,67.30908,66.65735,67.17568,66.4816,68.11267,67.26757,67.54574,67.526,68.23156,67.25933,68.47716,67.50065,66.24419,66.04582,64.98582,63.66851,62.75581,60.50702,60.3491,57.75851,56.99908,54.75913,53.78829,50.98251,50.20603,47.66826,46.48593,44.39107,42.56846,40.38585,37.66513,35.19956,32.44978,29.73775,28.08939,26.55359,25.05882,23.785,23.36,22.12215,22.91143,21.13474,21.81958,21.24192,21.20648,20.92581,20.67881,20.52839,19.93829,19.78765,18.66064,18.54899,17.56062,17.3813,16.46191,15.97675,14.35995,13.44913,12.18536,11.10975,10.12896,8.202703,7.530405,4.997754,5.007689,2.859982,2.093936,-1.056286,-2.060444,-5.041461,-7.171649,-10.23379,-13.23223,-16.4082,-19.67324,-23.35277,-27.15692,-30.83493,-34.70497,-38.74364,-42.45618,-46.37412,-50.40524,-54.7092,-58.27926,-62.47794,-66.1665,-69.87199,-73.28947,-77.02546,-79.77049,-83.24028,-86.53591,-89.4424,-91.63835,-94.09934,-95.8682,-98.14139,-100.0621,-101.1329,-102.7199,-103.3863,-104.8178,-104.8976,-105.1861,-105.2304,-104.3801,-103.7847,-102.1973,-100.5831,-98.23788,-96.02499,-92.86047,-89.40109,-85.47994,-82.33944,-77.85653,-73.38045,-68.662,-63.51914,-58.69581,-53.34084,-48.88726,-43.30171,-38.30239,-33.2531,-27.82941,-22.84904,-18.05016,-13.94084,-8.238972,-4.405976,-0.191559,3.293114,7.690053,10.00168,13.90349,15.49001,18.36904,19.40618,22.04415,23.20463,25.9585,27.32569,30.50381,32.46657,34.11063,36.17493,37.4654,39.01006,40.8297,40.73823,42.32727,42.02736,43.32654,42.67496,43.5925,42.64393,42.76773,42.47493,41.93524,41.60807,40.89482,40.71816,39.48409,39.42746,38.49799,38.16332,37.84366,37.21322,37.08874,36.7751,35.95595,36.02206,36.08212,35.14538,34.09975,33.66832,32.87915,32.12401,31.34604,30.6318,29.57098,28.72251,27.98149,27.01278,26.68529,26.12511,24.92185,24.70864,23.92209,23.53685,22.72143,22.30065,21.94828,21.06515,21.10848,19.82403,20.42667,18.34889,19.44074,17.53256,18.37848,16.46424,17.49867,15.11483,16.36934,14.04928,14.45893,13.0057,12.92189,11.74041,10.81176,10.10654,9.424456,8.554095,8.275866,7.31428,6.485821,6.328877,4.794144,4.409973,3.313189,2.72711,1.908491,1.780305,1.194344,0.6147887,0.04644601,-0.3246812,-1.528401,-0.8787366,-2.633043,-1.72994,-3.257834,-2.982307,-3.989692,-4.787151,-6.081709,-6.429492,-6.767289,-7.996159,-8.51793,-9.178865,-9.314102,-10.28684,-10.04256,-11.36102,-11.29496,-12.45323,-12.03402,-12.84726,-12.36236,-13.9563,-12.90793,-14.069,-13.95986,-14.72141,-14.99768,-15.8765,-15.8313,-16.76051,-16.2011,-15.9521,-15.03145,-15.64383,-15.04054,-16.22756,-17.407,-18.56516,-20.59426,-21.66404,-23.92095,-25.94027,-28.37388,-30.30804,-32.23107,-35.35243,-36.88136,-40.73637,-41.60264,-45.05819,-46.29171,-48.95086,-49.87817,-52.17294,-53.7102,-54.60258,-56.62087,-57.07421,-58.50414,-59.03558,-59.65643,-60.74351,-60.8527,-60.90114,-60.54176,-60.20189,-60.60326,-58.51676,-59.38666,-56.41198,-56.2373,-54.29836,-53.20471,-51.24585,-48.91697,-46.72556,-44.06282,-42.40288,-38.76624,-36.71807,-32.56823,-30.98089,-26.23189,-24.08003,-18.91425,-16.8069,-11.87046,-9.221516,-4.173676,-1.641267,3.167175,6.713102,11.14845,14.98505,19.12088,23.38165,27.03971,31.10595,34.61428,39.64931,42.62045,47.22956,50.60042,54.43124,58.21977,60.95561,64.98632,67.70527,70.37861,73.66063,