ConstAcc,0.5,0.29947,-95.12603,-29.78501,27.48629,77.21075,119.8921,156.0155,186.0473,210.436,229.6122,243.9888,253.9617,259.91,262.1959,261.1658,257.1496,250.4622,241.4028,230.2557,217.2907,202.7629,186.9138,169.9708,152.1482,133.6471,114.6557,95.35,75.89374,56.43884,37.12573,18.08369,-0.5688886,-18.72417,-36.28452,-53.16225,-69.27925,-84.56669,-98.96472,-112.4221,-124.896,-136.3515,-146.7615,-156.1061,-164.3727,-171.5552,-177.6542,-182.6761,-186.6334,-189.5439,-191.4306,-192.3213,-192.2485,-191.2487,-189.3625,-186.634,-183.1104,-178.8421,-181.3812,-186.7925,-171.8101,-164.4696,-160.2048,-156.0426,-150.7096,-143.7998,-135.2777,-123.8575,-110.7581,-97.02424,-87.90523,-82.73125,-80.05966,-78.90706,-78.63731,-75.3185,-69.62903,-62.15815,-53.30184,-43.46991,-32.96091,-22.01866,-9.075293,4.718228,18.56555,29.5345,35.7857,38.12806,37.61208,34.89127,32.35639,30.03362,27.98615,26.05739,24.06709,21.53892,18.219,14.27463,12.10859,10.6817,9.397058,7.748106,4.255025,-2.88487,-10.98153,-19.06648,-26.42768,-32.65906,-37.35167,-40.40105,-41.68476,-41.43454,-40.01217,-37.35283,-33.59071,-30.47507,-28.6029,-27.95283,-28.34568,-29.69395,-31.90978,-33.59437,-34.77408,-35.4062,-35.51395,-35.22456,-34.81597,-34.23457,-33.45282,-30.17192,-25.73322,-22.61591,-21.25379,-23.90182,-29.06745,-35.57404,-41.04271,-45.08859,-47.25969,-47.74294,-46.83502,-45.06442,-42.6881,-39.82246,-34.28051,-27.69098,-22.75603,-20.10977,-19.66142,-23.52782,-30.01326,-36.98193,-42.60221,-46.32298,-48.21318,-48.45943,-47.22151,-44.94548,-41.78617,-35.60902,-28.09284,-20.33588,-14.99233,-12.25564,-11.95121,-16.35911,-23.39775,-29.40049,-33.36358,-34.91318,-34.28744,-31.54147,-26.94584,-21.08063,-11.87945,-1.288493,9.345623,19.1573,25.85783,29.72386,31.08692,28.06019,24.78216,22.33866,21.51265,23.05047,26.95931,33.21832,41.21834,50.35791,62.83258,76.64034,90.11041,100.5295,107.3617,111.0432,112.2987,111.3732,110.8234,112.1482,115.9005,122.2373,130.7257,140.7828,151.3437,162.2078,176.1205,191.173,206.1107,217.691,225.8946,230.7032,232.7935,232.4105,232.6954,233.4981,234.9118,236.9596,239.8012,243.3877,247.4452,251.2563,251.5884,250.535,249.3885,248.8797,249.0236,250.2425,252.5997,255.9614,260.005,264.0087,267.7525,271.4804,275.0242,278.8706,283.2334,288.175,293.4528,298.8309,300.5886,298.7494,294.0088,287.1989,281.6145,277.2965,273.8446,271.1242,269.1975,267.8401,266.8524,265.9446,264.995,264.3512,264.3406,261.9534,257.3669,250.5488,242.1419,232.5482,224.9155,218.8858,214.4149,211.3066,209.2529,207.8165,206.6428,205.4339,204.6136,204.1221,201.2416,196.0628,188.7007,180.2519,171.6175,163.1891,158.1274,156.0433,156.4133,158.618,162.1552,166.4284,170.3769,173.7718,177.0339,177.3667,175.5284,172.0927,167.9636,163.8373,159.5287,154.9919,153.6478,154.4219,157.4048,162.156,167.3078,172.2928,176.9301,181.7168,186.5868,188.3935,187.7171,185.5583,182.3517,179.1182,175.9445,172.6421,172.5837,175.0647,178.9772,183.43,187.703,191.8397,195.9395,200.799,205.9776,207.7654,207.4275,205.6839,203.0926,199.6639,195.6312,191.2146,186.9822,182.6037,178.1609,173.2787,167.9037,161.8315,154.5865,145.764,135.1663,126.5778,120.245,115.4679,110.8683,106.1022,100.9053,95.48182,89.80997,83.98319,78.22831,72.95105,68.31511,64.52913,60.65812,56.04963,50.43711,43.86209,36.35019,28.60141,21.3229,14.90496,9.539125,4.80795,0.2418083,-4.247731,-8.531326,-12.32411,-15.35825,-18.01095,-20.42364,-22.40469,-24.06251,-26.1204,-28.6752,-31.65214,-34.47823,-36.79314,-38.63012,-40.21619,-41.46248,-42.5266,-43.24299,-43.83158,-44.50004,-45.13014,-45.41649,-45.347,-44.67731,-44.15713,-43.80383,-43.06107,-41.78752,-40.08751,-38.25285,-36.19991,-34.10959,-32.16159,-30.30402,-28.9292,-28.12916,-27.21615,-25.87538,-24.09628,-22.148,-20.41628,-18.6987,-17.0138,-15.6351,-14.13273,-13.12346,-12.97214,-13.02525,-13.4526,-14.32849,-15.19889,-15.88825,-16.45586,-17.4064,-18.22482,-18.81344,-19.18553,-19.33167,-19.29596,-19.30329,-19.78042,-20.95651,-22.34913,-23.93823,-25.67022,-27.64468,-29.35854,-30.85968,-32.17621,-33.51846,-35.14237,-37.18903,-39.29697,-40.65206,-41.97797,-44.18381,-47.30407,-51.08471,-55.00448,-55.17428,-55.70027,-59.04007,-67.24568,-76.38454,-84.17368,-90.40436,-95.38078,-99.26479,-103.1573,-107.7289,-113.045,-118.9652,-125.0861,-131.153,-137.1001,-143.1375,-149.0193,-154.4405,-159.2454,-163.7194,-167.8491,-171.7809,-175.2551,-178.0678,-180.1653,-182.086,-184.647,-187.8807,-191.878,-196.0463,-196.3593,-196.253,-197.4199,-203.6658,-211.9212,-219.4223,-225.1403,-228.5058,-230.5133,-231.5445,-232.3555,-233.6188,-235.4768,-237.7022,-239.9506,-242.101,-244.148,-241.4042,-238.2222,-236.4852,-236.5665,-238.0868,-240.255,-242.4601,-244.8868,-251.6922,-258.5438,-263.0258,-265.0727,-265.3514,-264.8929,-264.3863,-263.9032,-262.9993,-261.7616,-260.2758,-258.6764,-256.9685,-254.8067,-252.3864,-250.1019,-247.7352,-245.3087,-242.6693,-240.0331,-238.4324,-237.554,-236.9374,-236.1347,-234.9662,-233.6804,-232.7949,-231.8175,-230.4372,-228.1327,-225.7001,-223.7264,-222.1929,-220.4517,-218.8525,-217.8005,-217.1872,-216.6081,-215.7152,-214.4691,-212.9138,-211.1569,-209.6565,-208.0556,-206.5242,-205.3045,-204.3935,-203.186,-202.1422,-202.4105,-203.827,-205.8769,-207.7095,-209.036,-210.1664,-216.3231,-225.2625,-234.2205,-239.1673,-242.0599,-245.1955,-249.4283,-254.578,-260.4572,-267.0248,-274.4172,-282.1748,-290.0539,-297.5595,-304.6091,-311.412,-318.005,-324.3903,-331.126,-337.6192,-343.7031,-349.6442,-355.3454,-360.6143,-365.5543,-370.727,-375.6665,-380.1869,-384.4142,-387.7627,-390.5488,-397.8614,-407.3797,-417.16,-421.8837,-422.9818,-422.9927,-422.989,-423.8781,-424.9306,-426.27,-427.9644,-429.2212,-429.3926,-428.4246,-426.4901,-424.0946,-421.2492,-423.2684,-427.2436,-431.7794,-436.3617,-440.829,-445.232,-449.8088,-455.3287,-456.7004,-456.7626,-456.9644,-457.6971,-459.3227,-461.6468,-464.1601,-466.2925,-467.9102,-469.5264,-471.223,-473.0942,-474.8945,-476.6571,-478.5128,-480.5389,-483.1564,-486.0519,-489.0116,-492.1703,-495.3754,-498.4863,-501.1058,-503.1509,-505.093,-507.4331,-510.0844,-512.4865,-514.1268,-515.8564,-518.072,-520.5512,-522.9189,-525.4185,-527.8094,-530.5403,-533.4109,-535.9526,-538.1052,-540.2044,-542.6991,-545.3344,-547.3182,-548.7561,-549.6445,-550.5467,-551.5143,-552.3492,-552.8999,-553.0149,-553.1559,-553.0111,-552.6691,-551.9283,-550.9391,-550.0019,-549.0665,-547.697,-545.525,-543.0608,-540.6974,-538.3163,-535.8404,-532.9033,-529.3668,-525.6968,-522.1097,-517.9361,-513.252,-508.7256,-504.5246,-500.419,-495.397,-489.076,-482.4052,-475.9091,-469.1738,-461.4092,-452.447,-443.252,-434.1874,-425.4931,-416.9219,-408.0498,-399.1431,-389.9402,-380.1754,-369.4192,-357.7861,-346.0669,-334.9018,-323.5388,-311.3374,-297.8939,-284.6135,-271.5918,-258.5648,-244.8969,-230.6976,-216.4313,-202.821,-189.3007,-175.0944,-160.55,-146.5615,-131.8215,-116.7911,-96.25146,-77.02976,-61.37449,-48.47573,-36.61426,-24.21985,-11.32985,1.277976,12.88052,23.83743,34.73808,45.72355,56.10027,65.77038,74.98497,84.46893,94.43512,104.1513,113.4478,122.2314,131.3945,135.2011,139.9554,147.1227,156.2868,166.8062,178.0531,189.0393,199.6715,210.339,222.0546,234.4616,246.3823,257.6393,268.7906,280.8731,299.132,315.9134,329.0765,340.1394,350.5083,360.9835,370.912,379.9304,388.9157,398.059,407.3762,416.6331,425.1774,433.1142,441.1971,449.8353,458.535,466.8649,474.6795,482.5852,491.2777,500.4311,509.409,517.9506,526.7557,536.1241,545.0857,553.3633,561.3498,569.4482,578.2169,586.7988,594.3541,601.3699,608.0889,614.7967,621.1161,626.8414,632.1963,637.5309,642.3091,646.6655,650.306,653.6351,656.7742,659.581,661.5996,662.629,662.2092,660.1479,658.1032,656.7909,655.6624,654.1778,652.5335,650.4681,648.1473,645.2131,642.3728,639.9807,637.7385,635.0361,632.5533,629.9681,627.5513,625.8373,624.3289,622.6592,621.4508,620.9379,621.2051,622.5355,625.433,627.5332,629.7231,625.7026,620.7124,616.8843,614.0103,612.038,610.3043,607.6111,603.5661,598.7962,594.1889,589.4193,584.2666,578.6508,572.6066,566.4129,559.9841,552.8762,544.7682,535.5201,525.853,515.4072,511.6496,508.6651,505.7198,502.2363,498.4452,494.6479,491.3578,488.5635,486.8571,486.0634,485.5865,484.8807,484.2931,479.1313,478.011,474.971,473.1473,472.6627,472.7296,473.2052,473.7295,474.5824,475.8453,477.3725,479.5279,481.9211,484.0544,485.5164,488.6529,492.1051,494.775,496.2405,497.041,498.4,500.0251,501.1129,500.9536,499.4324,497.5982,495.5794,493.08,490.2522,486.6823,482.7265,478.5956,473.9226,468.5894,462.5665,455.8957,449.2273,442.4722,435.0806,426.9583,418.2858,409.5351,400.5544,390.8935,380.7463,370.0857,359.2923,348.2809,336.4205,323.7024,310.7186,298.8803,287.4761,275.515,263.1718,250.8614,238.7635,227.2254,215.646,204.1618,192.7017,181.7702,171.5174,161.4664,151.2079,141.054,131.8774,122.9238,113.8433,104.438,95.73146,88.42865,82.26265,76.33715,69.85869,63.80214,58.55973,54.19085,50.49433,46.88873,43.80081,41.29224,38.92803,36.67842,35.45091,35.35758,35.29081,35.23923,35.26435,35.14276,35.43787,36.26687,36.98097,36.71812,36.0043,35.94886,36.59753,38.01103,38.96058,39.66943,38.96255,37.36018,35.22392,32.88336,29.81234,25.89712,21.05519,15.48016,8.829722,1.540408,-4.402183,-2.674005,-1.540707,-3.423088,-7.621111,-12.2598,-16.33589,-19.57595,-22.93039,-27.02418,-30.84301,-34.16087,-37.04035,-39.72789,-42.89359,-45.51904,-49.55743,-53.68395,-57.76591,-61.46765,-65.28475,-69.65265,-73.97222,-78.41496,-83.02681,-87.57515,-91.71647,-95.38972,-98.91847,-102.8473,-107.0408,-110.9711,-114.6715,-118.3054,-122.204,-126.3568,-129.8963,-132.8515,-136.174,-139.8798,-143.6664,-146.8546,-149.8994,-152.8658,-155.8996,-158.9303,-161.8023,-164.2692,-165.6113,-166.4755,-168.2443,-170.7644,-173.3592,-175.8922,-178.522,-181.5912,-184.6862,-187.5321,-190.4874,-193.6791,-196.8711,-199.6833,-202.4707,-205.568,-209.1757,-212.9661,-216.1723,-218.3337,-220.0871,-222.2919,-224.3438,-226.2253,-227.8339,-229.355,-231.2184,-233.0074,-234.3169,-235.1405,-235.6501,-236.4342,-237.4007,-237.781,-237.704,-237.4668,-236.9961,-237.4435,-238.3677,-238.937,-239.0614,-239.6414,-240.4059,-241.3137,-241.1409,-240.4581,-239.8486,-239.218,-238.5453,-237.7555,-237.305,-237.0399,-236.9635,-236.5509,-235.481,-233.8833,-232.6978,-231.7286,-230.6496,-230.1061,-230.0406,-228.978,-226.6489,-224.9278,-223.3208,-221.349,-219.5348,-217.6837,-215.7099,-213.2085,-210.5464,-207.6813,-204.5053,-201.0796,-197.5975,-193.883,-190.6296,-187.4631,-184.3261,-180.4858,-176.458,-172.5473,-168.9196,-165.1925,-161.0417,-156.8494,-153.027,-149.2179,-144.6791,-139.8459,-134.8119,-130.3113,-126.1294,-121.9489,-117.2546,-112.21,-107.4613,-103.0496,-98.32176,-93.67909,-88.73344,-83.82957,-78.97944,-74.03289,-68.91226,-63.33096,-57.64259,-51.98532,-46.23792,-39.96358,-33.243,-27.71563,-24.01566,-20.55077,-16.15989,-11.24574,-6.829368,-3.290831,0.357648,4.360815,8.63908,12.75728,16.24485,19.58934,23.14263,27.02819,30.89722,34.66889,38.44431,42.5071,46.03262,48.38934,50.61846,53.11961,56.0617,58.98303,61.54912,63.986,66.18099,68.53198,71.25157,73.81728,76.29585,78.73854,81.50906,84.38191,87.00611,89.24993,91.66656,94.3539,97.15507,99.95002,102.7414,105.5482,108.5395,110.6734,111.9944,113.1826,114.5861,115.9599,117.2045,117.6466,116.5507,115.1459,113.9706,113.3956,112.6005,111.0123,108.8792,106.7507,105.7789,105.8509,105.3531,104.3304,103.2724,102.1994,100.8881,99.19102,97.30814,95.4494,93.75954,91.61926,88.70693,85.73047,82.40349,79.45358,76.11084,72.29457,68.00206,63.90955,59.84948,55.50672,50.9661,45.8475,40.79549,36.22067,31.20809,26.13512,21.24266,16.06265,11.07781,5.923705,0.6393858,-4.815403,-9.902919,-14.73184,-19.5385,-24.94747,-30.47673,-35.85299,-40.75111,-45.66789,-50.68127,-56.10323,-61.326,-65.89724,-70.03889,-74.6648,-79.54276,-84.49406,-88.81984,-92.85557,-97.16432,-101.584,-105.3375,-108.9383,-112.5962,-116.3553,-119.78,-122.9077,-125.7073,-128.4496,-130.98,-133.7265,-136.1748,-138.0258,-139.5235,-141.4351,-143.2346,-144.6681,-145.8895,-146.656,-147.3498,-148.2108,-148.6303,-148.6805,-148.4035,-148.0744,-147.8359,-147.2778,-146.308,-144.9249,-143.6027,-142.6731,-141.5506,-140.1203,-138.6226,-137.3552,-136.3463,-135.2175,-134.118,-132.5181,-131.3242,-130.6286,-130.1651,-128.6895,-126.4593,-124.434,-123.4047,-123.9251,-124.5598,-125.2192,-125.8716,-125.6683,-125.316,-124.8697,-124.8024,-124.9339,-125.2438,-125.506,-125.6624,-124.9973,-124.5612,-124.4817,-124.4351,-124.0188,-123.1943,-122.3847,-121.658,-120.9015,-120.0179,-118.8513,-117.4899,-116.0827,-114.883,-113.0975,-111.4679,-109.5813,-108.0314,-106.4153,-104.2381,-101.6593,-99.09152,-97.04956,-94.86993,-92.25377,-89.60359,-86.39926,-83.43651,-80.72596,-77.43274,-73.83579,-70.19925,-66.71523,-63.46543,-59.80867,-55.88973,-52.21515,-48.50803,-44.93523,-41.29319,-37.22649,-32.94025,-29.46826,-25.98191,-22.28244,-18.38999,-14.74993,-11.33352,-8.179438,-4.874968,-1.245851,2.101118,5.286104,8.018736,10.30179,12.99699,15.78857,18.20577,20.1852,21.73693,23.38325,25.33765,26.51712,27.55073,28.67757,29.62959,30.48631,31.05653,31.2275,31.34268,31.85206,32.16351,32.27724,31.9799,31.45833,31.13237,31.04607,30.58444,29.94819,29.47352,29.52182,29.27213,28.94334,28.40921,27.93192,27.71565,27.84694,27.92587,27.99115,28.119,29.05816,29.80127,30.76401,31.76314,33.42364,35.15842,36.09866,36.02602,35.51918,36.00462,37.00415,38.0485,38.86263,39.11705,39.45216,40.42778,41.40034,42.24707,42.81473,43.50914,44.47505,45.33332,46.07441,46.64349,47.39049,48.30435,49.30425,50.06977,50.58767,51.05586,52.10966,53.23166,53.79939,54.18763,54.37024,54.53387,55.23847,55.61688,55.82764,56.08017,56.06856,56.06684,55.78801,55.50581,54.80843,54.36359,54.26599,53.82502,53.21306,52.2891,51.47608,50.88354,50.38216,49.17006,47.94319,47.18945,46.51021,45.76311,44.42556,43.0779,42.17015,41.22648,40.02331,38.90426,37.62328,36.94582,36.10239,35.10644,34.09961,32.87874,32.17942,31.63586,31.09546,29.82031,28.64502,27.55267,27.15176,26.59794,25.53777,24.26521,23.71451,23.65555,22.96603,21.96171,20.98714,20.29599,20.04082,19.70452,19.07809,18.2602,17.55189,17.04417,16.66311,16.02719,15.10187,14.78335,14.60478,14.41116,13.96055,13.08656,12.40854,12.17051,12.05193,11.40425,10.74462,10.32978,10.00735,9.888486,9.210558,8.49469,8.001666,7.406657,7.332242,6.837928,6.338908,5.889105,5.594355,5.223397,4.779282,4.20866,3.860437,4.012194,4.205245,3.988719,3.510306,3.204859,3.148045,3.34343,3.174483,2.832188,2.572907,3.007942,3.220539,3.09274,3.047456,2.980707,3.377242,4.118468,4.357972,4.206224,4.407224,4.420917,4.586104,4.655042,4.275159,4.018856,4.257385,4.395815,4.309041,3.815457,3.21217,3.080171,3.007395,3.002575,2.306616,1.94638,1.807574,1.532769,1.146264,0.450786,-0.0966317,-0.2930491,-0.3804753,-1.05968,-1.414814,-1.616514,-1.937694,-2.220203,-2.779211,-3.192988,-3.63098,-3.871504,-4.557952,-5.489312,-5.911205,-6.226796,-6.493364,-5.972544,-5.463058,-5.368528,-5.150169,-4.605079,-3.9302,-3.299798,-3.006695,-2.458523,-1.069831,0.03420867,0.9983971,1.83925,2.785407,3.329381,4.063424,4.753536,5.859051,6.877051,7.991162,9.312083,10.31918,10.84649,11.34345,12.4974,13.78247,14.66053,15.28198,15.92132,16.24806,16.67704,16.9474,16.98429,17.19932,17.40228,17.46445,17.59253,17.31793,16.68231,16.29162,16.15665,15.62295,15.24941,14.47273,13.64698,13.55603,12.76251,11.83556,10.63879,9.621941,9.170923,8.490028,7.446951,6.233146,5.22946,4.384418,3.362384,2.088934,0.680084,-0.224964,-1.178321,-1.835086,-3.027,-4.235355,-5.094648,-6.177613,-6.966141,-7.838359,-8.590216,-9.322719,-10.03358,-10.97454,-12.02008,-12.99812,-13.99803,-14.40396,-14.72013,-15.33577,-16.19217,-17.01211,-17.44454,-17.89047,-18.30098,-19.16989,-19.21399,-18.23579,-18.07375,-18.91471,-19.57947,-19.97676,-20.46234,-20.76045,-21.46118,-22.35925,-23.27533,-24.10966,-24.79339,-24.98132,-25.45687,-26.828,-28.08351,-28.89665,-30.12312,-31.46388,-32.95605,-34.32259,-34.6619,-34.81614,-35.59728,-35.96853,-36.27559,-36.43746,-37.23069,-37.54134,-37.4005,-37.15446,-36.67092,-36.3719,-35.71916,-35.15078,-34.59154,-33.64222,-32.86179,-32.28473,-31.78007,-30.00774,-28.61792,-26.73013,-25.52396,-24.03365,-22.5363,-20.91287,-19.38504,-17.85952,-16.14318,-14.74247,-13.08387,-11.64235,-10.50346,-9.198573,-7.758441,-6.204614,-5.051773,-3.942166,-3.28182,-2.397302,-1.201015,-0.295316,0.3673113,0.9369557,1.689824,2.782251,3.483422,4.018522,4.326431,5.049997,5.388266,6.062435,6.446719,6.476436,7.018279,7.271243,7.635064,7.629031,7.597053,7.651308,7.888974,7.750869,7.556285,7.317261,6.849305,6.901314,6.545726,5.92647,5.274523,4.484037,4.48969,4.123929,3.43813,2.292826,1.548183,1.249074,0.9640896,0.4847154,0.08286504,-0.3449635,-0.405324,-0.6156816,-0.9130013,-0.9969265,-0.4486832,-0.2065933,0.5044448,0.8768528,1.64174,1.946776,1.526916,1.666331,2.237078,2.204944,2.227851,2.605783,3.138961,3.379979,3.497674,3.952071,4.67534,5.396453,5.117531,4.546919,4.814547,5.224805,5.207322,5.398707,5.07631,5.054438,5.160725,5.394074,5.419113,5.066936,4.703034,4.674756,4.635477,5.141606,5.02807,5.01862,5.234608,5.49326,5.431281,5.230037,5.350443,5.735233,6.404256,6.665133,6.925577,7.585474,7.675927,8.228079,8.731278,8.967326,9.030702,9.497767,9.92648,10.52871,10.95801,11.21515,11.50265,11.92825,12.5947,12.84785,12.76698,12.83347,13.12515,13.33084,12.90339,12.7442,12.91146,13.26579,13.31664,13.02058,13.20763,13.38958,13.25735,13.40623,12.9387,12.91741,12.57223,12.57477,12.6318,12.43942,12.19402,12.10452,12.30701,12.32325,12.00764,12.05784,12.48835,12.39814,12.54148,12.46419,12.05893,11.80794,11.95361,11.91686,11.69772,12.07431,12.5604,12.86537,12.93952,12.38906,12.46654,13.24252,13.81802,13.76238,13.23389,12.5079,12.65244,13.25407,13.3341,13.00639,12.63202,12.82665,14.04212,14.1731,13.68425,13.33679,13.78264,14.43328,14.4526,13.44649,12.74185,12.86185,13.71089,13.9243,13.28315,12.66073,12.97706,13.78422,14.1477,13.76269,13.05718,12.89571,13.40851,13.41969,12.39589,11.63161,11.86177,11.81121,11.24,10.28679,9.434335,9.74544,10.64691,10.69277,9.890457,9.09802,9.120823,9.543063,9.567255,9.267902,8.223331,8.114275,8.988156,8.736583,8.083083,7.070339,6.623252,6.978245,7.32859,5.792966,4.170305,3.243191,2.845094,2.350812,0.03826647,-2.328885,-3.846434,-4.687125,-5.465954,-7.65988,-9.947103,-11.67577,-12.89439,-14.46224,-17.27675,-20.07208,-22.37214,-24.21674,-26.47026,-29.97585,-33.20639,-35.83923,-38.04014,-39.95407,-43.07327,-46.19218,-48.8666,-50.79374,-52.56323,-55.60189,-58.8811,-61.34146,-63.43215,-65.39587,-68.06249,-70.36055,-72.31481,-73.79618,-74.25258,-75.44906,-77.42852,-78.44157,-78.15656,-78.37014,-78.67071,-79.06076,-79.88223,-79.56203,-79.10893,-78.80582,-78.24644,-77.39342,-76.13246,-74.51079,-73.22679,-71.67633,-69.84366,-67.55591,-64.95817,-62.51378,-60.48073,-57.93066,-55.01939,-52.10214,-49.2212,-46.31293,-42.52634,-38.26237,-34.30665,-30.68564,-27.25163,-23.29939,-19.27728,-15.50544,-12.59113,-9.441325,-6.32859,-2.946939,-0.07954563,2.576712,6.386738,9.53594,12.22118,15.04088,17.54952,19.62059,21.85048,23.78244,25.86182,27.73958,29.70454,31.7752,33.46936,35.23347,37.06242,39.1761,41.30553,43.20425,45.50653,47.35744,48.62544,50.74807,53.02272,54.71206,56.22837,57.47269,58.94903,60.92294,62.6209,63.83714,65.23138,66.74372,68.32124,69.99343,71.12424,72.74232,74.46319,75.84969,77.08687,77.83655,78.47152,79.18729,80.01105,81.03885,81.85189,82.73077,83.47738,84.3602,85.43857,85.92134,86.61657,87.09438,87.19726,87.29048,87.10445,86.67331,86.03876,85.27006,84.99704,84.51877,83.86975,82.80684,82.18677,81.90088,81.06958,80.16023,79.08386,77.8812,76.65617,74.71688,72.30507,70.1016,68.01144,65.94743,64.36886,62.11428,59.7203,57.74303,55.79504,53.55416,51.1404,48.69814,45.96266,43.36956,40.06537,36.68766,33.46976,30.62876,28.68061,26.24395,23.75982,21.58682,20.01035,18.56889,16.49395,14.69744,12.94265,10.76867,8.373255,5.523517,2.651444,0.4427718,-1.785819,-3.227176,-4.554932,-6.160749,-7.710607,-8.263084,-8.884941,-9.508694,-10.35953,-12.67705,-14.55603,-15.90054,-18.00044,-20.43177,-22.22857,-23.87343,-25.19189,-26.16104,-26.47835,-27.6032,-28.1591,-28.24243,-28.80792,-29.63678,-30.73573,-31.90792,-32.65193,-34.00288,-35.4738,-36.60198,-37.38147,-38.01767,-38.42806,-38.48958,-38.71306,-38.241,-38.12732,-38.27035,-38.82982,-39.27983,-39.93706,-40.34087,-40.98013,-42.09139,-42.91136,-43.67314,-43.82572,-43.24705,-43.0001,-42.70947,-41.96624,-41.11003,-40.92502,-40.9835,-41.30743,-41.68982,-42.09597,-42.74459,-43.54241,-44.46738,-44.82778,-44.43332,-43.91379,-44.01568,-43.69421,-43.25374,-42.40746,-42.16527,-42.4521,-42.84728,-43.1762,-43.53935,-44.37617,-44.95544,-45.60718,-46.23606,-46.2688,-45.9245,-45.86551,-45.79512,-45.16561,-44.6107,-44.32882,-44.46828,-44.72093,-45.21793,-45.70729,-46.17476,-46.84244,-47.3248,-47.51795,-47.11738,-46.85095,-46.10445,-45.1858,-44.49029,-43.34282,-42.73378,-42.12793,-42.29247,-42.14673,-42.51425,-42.37011,-42.51775,-42.60078,-42.35012,-41.65202,-40.87051,-39.56826,-38.45072,-37.17474,-35.89805,-34.85061,-34.44995,-33.91051,-33.34166,-33.53314,-33.60414,-33.40144,-33.49961,-33.36486,-33.00824,-31.92987,-30.79965,-29.58977,-28.50202,-27.71339,-26.63144,-25.72064,-25.86528,-26.09283,-26.14762,-26.41216,-26.69414,-26.71504,-27.09103,-26.81337,-26.45642,-26.1434,-25.28614,-24.76949,-24.50375,-23.75158,-23.22203,-23.43956,-23.83571,-24.24161,-24.66624,-24.97472,-24.94082,-24.72235,-24.61428,-25.33808,-25.73632,-25.69718,-25.91616,-26.04697,-25.94446,-26.34268,-27.24907,-28.03839,-29.18504,-29.97566,-30.39066,-31.37931,-32.30264,-32.89981,-32.94254,-32.86193,-32.51337,-32.21817,-31.40408,-30.99866,-30.30823,-29.52016,-29.34369,-28.76715,-28.32768,-27.22529,-26.6404,-25.79793,-24.67533,-23.18096,-21.21648,-19.48412,-17.72767,-15.72143,-13.67988,-11.36639,-9.241212,-7.035902,-5.134023,-3.114453,-0.9773304,1.295349,3.046008,5.230292,8.053225,11.02398,14.37391,17.16938,20.03925,22.91201,25.91711,28.58095,31.12899,33.41492,35.89657,38.62202,41.04708,43.21775,45.28243,47.99241,50.65151,53.53983,56.01336,58.37209,60.85463,63.36421,65.69106,67.32432,68.23757,69.84299,71.31221,72.79035,73.91348,74.8861,76.26174,78.05497,79.21583,80.44551,81.48348,82.72249,83.37665,84.076,84.22542,83.89609,83.58535,82.73145,81.66703,81.34697,81.31663,81.25571,81.93723,82.71826,82.88628,83.37196,83.82199,84.52736,85.39211,85.56458,85.78563,86.58507,87.39387,87.74666,88.13295,88.75101,89.45616,90.28197,91.29665,91.37284,90.42063,89.6503,89.69399,89.59431,88.67504,87.56826,86.76778,85.77957,84.37468,82.64413,81.46745,80.14602,78.29806,76.356,74.48828,72.16991,69.88723,67.6215,65.43938,62.57844,59.99919,57.19369,55.03767,52.14859,48.71508,45.66303,42.62593,39.66171,36.65216,33.7221,30.26313,27.00583,23.837,20.88667,17.74273,14.63794,11.64251,8.997355,6.196966,3.302534,0.06952902,-2.979437,-5.599307,-7.792907,-10.78161,-13.60792,-16.18178,-18.43569,-20.38382,-22.7432,-25.22133,-27.61765,-29.48708,-31.1676,-32.65374,-34.62842,-36.1185,-37.73286,-38.95726,-40.70129,-41.96779,-43.37997,-43.90716,-44.1378,-44.74124,-45.54363,-45.58142,-45.86567,-45.74912,-46.14655,-46.50375,-46.43373,-46.15815,-45.78001,-45.66972,-45.87294,-46.20608,-45.49974,-45.18405,-44.86261,-44.65436,-44.13183,-44.08558,-43.45502,-43.71531,-44.70303,-45.36016,-45.23443,-44.83177,-44.38057,-44.66081,-44.95075,-44.22688,-43.63204,-43.60193,-43.26635,-42.968,-42.10765,-41.10427,-40.33036,-40.35563,-40.27865,-39.54763,-38.87161,-38.70165,-38.5892,-38.71002,-38.43873,-37.55151,-36.65273,-36.31171,-35.68687,-35.27319,-34.36884,-34.25553,-34.15693,-33.76744,-33.55871,-33.58428,-32.99527,-32.10695,-32.29413,-31.85946,-30.97763,-30.06549,-29.98016,-29.51481,-29.09185,-28.75633,-28.42424,-28.3499,-28.59465,-28.48694,-28.9995,-28.86994,-28.38345,-28.17555,-27.6215,-26.68755,-26.15391,-25.55861,-24.94688,-24.38193,-23.71395,-22.92677,-22.56472,-22.41296,-22.26789,-21.97776,-21.26645,-20.99626,-20.17319,-19.12685,-18.10319,-17.15444,-15.97323,-14.99272,-14.19799,-13.07604,-12.25389,-11.52025,-11.04962,-10.53319,-10.01045,-9.261268,-8.495162,-7.722856,-6.978823,-5.453724,-4.164211,-2.986975,-1.80078,-0.6338467,0.8658496,1.719294,2.454109,3.518897,3.394937,3.916857,4.803121,5.23303,5.99698,6.981026,7.929337,9.321947,10.65108,11.78856,12.70639,13.84912,14.9244,16.20204,16.34477,16.34931,16.42845,16.88378,17.20355,17.89843,18.148,19.16636,20.10485,21.01164,21.98146,22.5467,23.30402,24.03197,24.57196,24.92751,25.17337,25.37881,25.53617,25.68627,25.84489,25.64426,25.9563,25.88897,26.8087,26.98987,27.6214,29.00441,30.1772,30.92744,31.71646,32.1943,33.47018,34.30033,35.31474,36.45864,37.09581,38.48872,40.3441,41.43463,42.36386,43.69546,44.64313,45.87234,46.23563,46.70615,46.47848,46.58396,46.61433,46.86522,46.19986,46.31292,46.52431,47.22354,47.27707,47.12946,46.8429,46.15818,45.92252,45.47908,44.43218,42.82728,41.81937,40.76146,38.99043,37.31223,35.35842,34.17686,33.32486,31.8408,30.52562,28.35123,26.18443,24.27751,22.15269,19.34908,16.60381,14.17429,11.60127,9.114579,5.976278,3.235073,0.8699878,-0.8851684,-2.821246,-5.125106,-7.512406,-9.742961,-11.94551,-14.0982,-16.4784,-19.20661,-21.57245,-23.31517,-24.9139,-27.05157,-29.38468,-30.63388,-31.51296,-32.67205,-33.77636,-34.90099,-36.25775,-36.95797,-37.72013,-39.05761,-40.87971,-41.71328,-42.69441,-43.28109,-44.81614,-45.17013,-45.47607,-45.02678,-44.98424,-44.8631,-45.26338,-44.73644,-44.94827,-44.62189,-44.72457,-45.41315,-45.43784,-44.70403,-43.80369,-43.53909,-44.10114,-44.49572,-44.53845,-44.78669,-45.58113,-46.71042,-46.99788,-47.51709,-47.79392,-48.83573,-49.22445,-49.56131,-49.98961,-50.1152,-50.22238,-50.84639,-50.96842,-51.7169,-51.56072,-51.47778,-51.53643,-51.41816,-51.07951,-50.65292,-49.92517,-49.57733,-49.3017,-48.58325,-47.84531,-46.84449,-46.31327,-45.3011,-44.2325,-42.35972,-41.14392,-39.44656,-38.30242,-36.84138,-35.00047,-33.15379,-31.44969,-29.63576,-27.62151,-25.67107,-23.65018,-21.86976,-19.55398,-17.54198,-15.17857,-13.09309,-11.33785,-9.296737,-7.125284,-5.089626,-3.282762,-1.695896,-0.02850052,1.576978,3.641556,5.299423,7.022828,8.149448,9.427484,10.99304,12.27352,13.49989,14.4846,15.90246,16.75129,18.13857,18.76321,19.55996,20.40498,21.44796,22.14876,22.71291,22.93735,23.69954,23.66038,23.22443,23.35325,23.17131,22.65836,22.76529,22.49798,22.31927,21.21362,20.77323,20.4343,19.64833,18.27132,17.24913,16.34669,15.52635,14.21843,13.31661,12.26175,11.04748,10.342,9.77952,9.276237,8.976724,8.989222,9.129801,9.191722,9.380702,9.462678,10.10626,10.03489,8.997846,8.325589,8.662344,8.583442,8.519088,8.774969,8.686427,8.929174,9.024911,9.337162,9.286798,9.290658,9.100595,8.912533,8.782482,8.50264,8.389562,8.378545,7.958395,8.928068,9.353372,9.691654,10.27223,10.51087,10.92759,11.28918,11.42745,11.68726,11.73162,12.01717,11.8851,12.11831,12.27684,12.72534,13.44358,14.31332,14.80256,15.15336,15.94026,16.40532,16.55854,17.21883,17.41566,16.87224,16.81942,16.64743,16.84176,16.6567,16.75921,16.71026,16.9077,16.99952,17.44306,17.48921,17.45801,17.30306,17.3404,17.09548,16.49691,16.28766,15.28587,15.09945,14.2937,14.13164,14.42039,14.69668,14.89985,15.25333,15.55795,14.88812,15.17472,14.93621,15.09724,14.18064,13.794,12.87822,12.86656,12.44842,12.13064,12.57094,12.909,13.37841,13.48455,13.87762,13.88638,14.23036,14.05936,13.70576,13.67775,13.19574,12.15471,11.91593,11.74374,11.51132,11.68804,11.65249,11.8884,12.42349,12.45608,12.19155,12.62923,12.70632,12.33029,11.91481,10.89846,10.20816,9.749935,9.13288,9.471913,9.328529,9.815683,10.40217,11.6865,11.57862,11.43723,12.53609,12.90149,12.84029,12.47055,12.51428,11.61903,11.97853,11.65918,11.38428,11.28962,11.65624,11.61299,11.82446,12.584,14.15277,15.34041,16.03537,16.71214,15.86939,15.66901,14.65321,13.09168,12.48942,10.28062,8.60015,7.337832,6.605834,5.052988,3.597303,1.846808,0.521338,-1.025098,-3.418087,-5.264983,-7.240377,-9.372088,-11.11425,-13.18261,-15.42657,-17.02015,-18.15885,-18.87124,-19.94722,-20.57557,-21.65649,-22.34395,-22.89523,-23.37394,-24.2298,-24.61097,-25.58092,-25.53983,-26.09647,-26.77297,-26.92652,-26.97165,-26.06949,-25.65831,-25.01258,-24.12386,-23.825,-23.2602,-22.96083,-22.79948,-23.03176,-22.43522,-22.06943,-22.05441,-21.93153,-21.6939,-21.50875,-20.20272,-19.75762,-19.32303,-18.53867,-18.80416,-18.53764,-18.36458,-18.53776,-19.55025,-19.69658,-20.50395,-20.81378,-21.29645,-22.32032,-22.74303,-22.57695,-23.01503,-23.34971,-23.9899,-24.97326,-25.62718,-25.97867,-27.37169,-28.77443,-29.73921,-30.80073,-31.88506,-32.96937,-33.91932,-34.45708,-35.1089,-36.64411,-37.29026,-37.69476,-37.84442,-37.86556,-37.32097,-37.07095,-36.59548,-34.66769,-33.80961,-32.1133,-30.07691,-28.10625,-25.72682,-22.3598,-19.52957,-15.35235,-11.98263,-7.594345,-3.330631,2.192097,7.409545,12.10343,16.03511,19.7894,23.85636,26.94902,30.54736,33.47116,36.35291,40.06157,42.24075,45.34175,47.83319,50.04882,52.01648,54.17952,55.72603,56.81379,57.77943,58.44899,59.68512,59.8863,59.90135,59.97248,59.98591,59.75589,59.11836,58.35673,56.99913,55.81363,54.71707,52.68942,50.85714,48.97829,47.32696,45.31899,42.79282,40.34061,38.32647,35.5009,33.07021,30.67946,27.73815,25.79382,23.53608,21.57152,18.95315,16.40121,13.99928,11.73286,9.773233,7.104234,5.419496,3.252984,1.586895,0.7266129,-0.6823201,-1.955752,-2.881774,-4.176058,-4.785649,-5.748405,-6.947227,-7.664995,-8.542145,-9.267915,-9.918635,-10.45762,-10.30931,-10.0536,-10.09225,-9.875109,-9.42998,-8.906373,-8.169426,-7.206294,-6.847778,-6.302528,-5.450083,-4.914145,-4.61793,-4.331477,-4.355305,-3.769422,-4.073364,-3.895528,-3.96856,-4.699851,-5.296625,-5.677885,-4.247637,-3.744867,-3.96989,-3.223148,-3.222314,-2.828905,-3.157942,-2.847071,-2.814663,-2.54151,-2.029332,-1.852026,-1.258775,-1.193407,-0.9007741,-0.3385864,-0.9048639,-0.8978292,-1.454355,-1.853258,-2.293473,-3.283569,-3.643506,-4.153746,-4.493846,-4.395772,-4.765393,-4.997547,-5.474138,-5.347232,-6.201045,-6.173496,-7.41073,-7.923778,-8.420366,-9.3971,-10.83331,-11.61228,-12.3222,-12.83985,-13.00367,-13.56513,-14.24934,-14.98756,-15.13064,-16.09594,-16.8465,-18.01658,-18.90607,-19.77853,-21.04443,-21.72015,-22.23908,-22.83513,-23.36878,-24.15872,-23.87972,-24.2987,-24.9388,-25.61697,-25.85264,-25.70793,-26.28122,-26.21119,-26.7426,-26.88552,-27.55956,-28.2643,-28.80821,-28.74406,-28.84425,-29.00297,-28.51072,-28.76167,-28.15071,-27.8645,-27.76079,-27.851,-27.96517,-27.78727,-27.46288,-27.70123,-27.5293,-28.00392,-28.01854,-27.8146,-27.82428,-27.72844,-27.35572,-27.66639,-27.03193,-26.46116,-26.31226,-26.15999,-26.17354,-25.98048,-26.02785,-26.07637,-26.21646,-24.90617,-23.63518,-22.981,-22.43255,-22.34589,-22.3981,-22.48529,-22.48297,-23.19608,-23.98778,-25.23861,-26.03161,-27.69954,-28.77258,-30.09434,-31.68312,-32.74453,-33.91786,-34.45183,-35.57665,-36.26604,-36.43646,-37.17922,-37.60859,-38.43363,-38.79567,-39.50098,-39.71857,-39.77953,-39.99338,-40.11482,-39.32163,-38.66138,-37.12523,-36.06622,-34.7825,-33.06642,-32.06745,-30.20214,-28.63362,-26.96872,-25.73244,-23.06615,-21.57032,-19.39259,-17.33629,-15.04708,-12.50862,-9.055053,-6.512137,-3.432081,-0.03326827,2.719506,5.63715,8.63699,11.33158,13.7259,17.07667,19.76339,22.87169,25.03268,27.91877,31.41921,33.88357,36.56215,39.15064,41.8328,44.43896,46.16894,48.20063,49.84252,51.57772,53.43087,54.43801,55.76429,56.78943,57.72075,58.47149,59.22907,60.05858,60.45083,60.33693,60.58363,60.82038,60.60885,59.94885,59.92172,59.41083,58.89666,58.14565,57.7567,56.23948,55.8078,54.55065,53.61378,51.6574,49.7899,47.34543,46.14006,44.87356,44.21034,43.84823,43.36701,43.57405,44.17278,44.70938,45.79687,47.34263,49.54091,51.39814,54.20428,55.29214,56.40916,57.64141,58.58304,59.8471,60.17046,61.54482,61.98588,62.8011,63.06941,63.29846,63.8868,64.00031,63.40783,63.17317,62.21184,62.17096,62.01282,61.01921,60.51558,59.04546,57.63407,56.42311,54.86213,53.06888,51.31364,49.45009,47.29128,44.848,42.44295,40.05936,37.292,34.66644,31.99779,28.71198,26.32828,24.62579,22.61927,19.65664,16.53517,13.32171,10.43185,7.110023,4.014502,0.893341,-2.347506,-6.016773,-8.462649,-12.18729,-15.02336,-18.10927,-21.06683,-23.70142,-26.07546,-29.08229,-31.74213,-33.97026,-36.15476,-38.3289,-40.8178,-42.15824,-43.83282,-44.00123,-44.24172,-44.24385,-44.56184,-44.07854,-43.08783,-41.86567,-40.47833,-39.23167,-37.54218,-35.21496,-32.98186,-31.09253,-28.75069,-26.01602,-23.30311,-20.78451,-17.51489,-14.97465,-12.24806,-9.220115,-6.699699,-4.489091,-1.90582,-0.6432316,1.686342,3.087943,4.276598,5.04707,6.098285,6.233641,6.207732,5.42017,5.296959,5.112246,6.072564,5.825084,5.679286,4.947572,4.206434,3.621004,2.893042,1.538256,0.563152,-0.6473735,-1.839644,-3.398214,-3.998755,-5.953371,-7.702913,-9.331371,-11.27994,-13.45548,-16.31371,-18.6924,-21.30819,-23.88074,-27.07075,-29.85342,-32.78249,-35.58318,-37.78094,-39.52713,-42.14912,-44.07169,-46.28413,-48.85444,-50.97021,-53.72934,-55.49839,-57.37198,-59.10561,-60.90141,-61.84982,-63.65025,-63.92885,-64.16668,-63.58451,-63.49106,-62.66147,-60.96141,-59.7205,-57.88337,-55.83664,-54.00442,-53.64754,-52.04558,-50.53734,-48.51086,-46.82359,-44.58112,-41.87242,-39.47911,-37.29139,-35.07449,-32.19142,-29.94722,-27.24036,-25.29782,-23.59057,-21.89041,-20.25974,-19.66389,-17.70372,-16.46885,-14.81511,-12.96417,-10.78745,-8.590107,-6.639876,-3.847946,-1.693712,-0.2952593,1.499783,2.774371,4.350367,5.566893,6.365825,6.923483,7.381319,8.731304,10.10252,11.54651,12.74574,13.90949,14.79158,15.9348,17.35767,17.17217,17.48169,17.73354,17.551,17.50607,17.54024,17.42922,17.75263,18.46009,19.48632,19.44215,19.59922,20.1113,19.8937,20.63221,20.39466,19.63794,19.02805,17.49238,16.47121,14.1713,12.38596,11.39535,9.996149,9.302194,7.958914,6.672782,5.499837,4.486423,3.681318,1.72534,0.2802093,-1.145693,-3.370241,-5.128128,-7.483754,-9.780639,-11.91192,-13.43996,-14.96389,-16.88084,-18.92976,-21.1324,-22.74201,-24.69263,-27.10015,-29.28852,-31.51629,-33.64819,-35.54381,-37.99483,-40.28158,-42.89477,-44.32043,-45.85711,-46.74927,-48.56658,-49.41623,-50.63998,-51.24684,-52.43608,-53.50144,-54.31453,-55.53163,-55.02247,-55.56888,-56.16039,-56.44361,-55.61278,-55.15175,-53.59225,-52.96761,-51.60527,-49.55347,-47.39129,-45.75584,-43.5677,-41.76283,-39.67615,-37.26275,-34.85289,-32.58218,-29.88273,-27.08222,-23.69933,-19.97065,-16.60752,-13.22252,-9.309859,-5.178792,-1.197146,2.006433,5.782156,8.743209,11.96327,15.65295,18.29446,21.32455,24.58471,28.20178,31.85942,35.26081,39.24233,42.7741,46.05134,48.62748,52.35914,54.70938,57.71354,60.53152,63.15632,65.96269,67.51131,72.66152,76.03758,80.29014,83.1565,85.70979,88.94988,91.02537,92.92108,94.62247,95.71211,96.57838,97.61142,98.54221,98.14199,98.11127,97.41295,97.41015,97.46346,97.83308,97.47165,97.5722,97.68804,97.37133,97.64988,96.69208,96.86572,96.9399,96.45935,96.18478,95.63253,94.64691,94.46658,93.94792,93.06161,92.13345,91.52539,90.34417,88.95085,87.37372,85.4065,83.95599,82.2501,80.45587,78.76506,76.04493,73.50427,71.19068,68.25653,65.93856,62.5036,60.17912,57.04391,54.55717,50.97664,47.61545,44.12997,41.01308,37.68648,34.16489,31.12296,27.89988,25.12383,21.62053,18.63368,15.32649,12.2285,9.591914,6.82154,3.824516,0.493828,-2.055145,-5.436299,-7.76268,-11.04636,-14.31708,-16.43109,-18.9892,-21.37946,-23.45457,-25.88164,-28.21841,-29.95715,-32.13884,-33.899,-36.18983,-38.40428,-40.08355,-42.04132,-44.29408,-46.46256,-48.8073,-50.1311,-51.3537,-53.13714,-54.52295,-55.62177,-56.52061,-57.28128,-58.43077,-59.35725,-60.61855,-61.39877,-62.23958,-61.98681,-63.62781,-63.49159,-63.52588,-62.61839,-62.18805,-61.15921,-59.46694,-60.06622,-59.32719,-59.6611,-59.79995,-59.81424,-60.26529,-60.23694,-60.71676,-60.86161,-61.23942,-61.18981,-60.95618,-60.99753,-61.01902,-61.15042,-60.98062,-59.68032,-59.62401,-59.67388,-59.11368,-59.25633,-58.34344,-58.29638,-58.40272,-57.82674,-57.52588,-56.87235,-55.24821,-54.14302,-53.36414,-52.37095,-50.54994,-49.54749,-49.14476,-48.25949,-47.82947,-46.83179,-46.49998,-46.10061,-46.27016,-44.76389,-44.03614,-41.807,-40.83945,-39.93455,-39.03375,-38.18623,-37.14357,-38.07392,-36.99702,-37.2602,-36.80686,-36.82419,-36.9129,-37.09056,-35.94955,-35.61679,-34.01069,-32.16742,-31.72635,-29.72358,-27.8739,-25.49399,-25.01635,-23.01931,-21.8809,-20.42874,-19.22144,-18.36362,-17.24003,-15.52308,-13.46989,-11.97806,-8.924792,-7.010562,-5.301332,-2.56622,0.4517069,2.201843,3.612328,5.525432,6.71246,8.656315,9.680602,10.00824,11.89498,13.22285,15.11925,16.77048,18.65965,20.16988,22.15426,23.63352,24.98755,25.92031,26.71986,27.23627,27.622,27.97399,27.08183,26.99473,27.63277,27.93311,28.21666,28.77131,28.34009,28.88694,28.64023,28.2275,27.3922,26.97956,26.01021,25.10111,23.84944,22.24856,20.73056,18.96605,19.32552,17.82303,16.40293,15.30073,13.98611,13.28552,11.47911,10.53987,9.467993,7.784495,5.83502,4.209595,2.178714,0.008280281,-2.150272,-4.000238,-5.131998,-7.025388,-7.911837,-9.200791,-9.266089,-10.61636,-12.03692,-13.55033,-14.00392,-14.22578,-15.88917,-16.16062,-17.22887,-18.05283,-18.51117,-18.63873,-19.38867,-18.65137,-18.95238,-18.35122,-19.35578,-20.52876,-21.54835,-22.12715,-23.12836,-23.86384,-24.12262,-25.32063,-25.54745,-25.57296,-25.53471,-25.24051,-24.25297,-24.54969,-22.31973,-21.79209,-21.19403,-19.73783,-19.03788,-18.10381,-17.36393,-15.94406,-15.36611,-13.70691,-12.61314,-10.31943,-8.486052,-6.171632,-4.49585,-1.471831,0.9123273,2.773132,5.413356,7.552146,10.37436,12.54181,13.49556,15.34927,16.68342,19.51194,22.20668,24.80334,28.05483,31.78177,34.97364,38.56898,41.85566,44.86429,47.96598,51.3065,53.88372,57.07376,59.10062,61.4312,64.41086,66.52383,68.91031,71.29719,73.94431,75.81155,78.2259,79.12072,80.15534,81.27471,82.18758,83.30459,83.91095,83.91613,83.88717,84.01335,84.13785,83.47246,83.14247,82.4619,83.05677,80.77843,80.21707,78.02677,77.41688,75.25065,73.95046,72.27429,69.58499,66.79551,64.73587,62.08373,59.12707,55.96614,52.92248,50.4173,47.7984,44.57052,41.87219,38.06623,35.78527,32.75588,29.34618,26.53614,24.27846,21.78188,18.30768,16.3169,12.67817,9.905932,7.553273,5.372134,2.554432,0.1715233,-3.114261,-5.300342,-7.158064,-9.315795,-11.96469,-12.96223,-14.65061,-15.9392,-17.48387,-18.88839,-19.84499,-20.74813,-21.21374,-22.02792,-22.56467,-23.78752,-23.75905,-24.74466,-24.31911,-25.44652,-25.18529,-25.42627,-24.60916,-24.67109,-23.95199,-23.85024,-23.5391,-22.52597,-22.5933,-22.6456,-22.35082,-22.76454,-22.31925,-22.78219,-23.50038,-23.59878,-24.23312,-24.68911,-25.7015,-25.45558,-25.52031,-25.12783,-24.23655,-24.8696,-24.67252,-24.67563,-25.5499,-25.25748,-25.41786,-26.41871,-26.6758,-26.77364,-27.15042,-27.1382,-27.58327,-27.56001,-27.60061,-27.06658,-26.97927,-27.87851,-27.83365,-28.62674,-28.80394,-29.40657,-29.82357,-31.02981,-30.86237,-31.09231,-31.5049,-31.51224,-31.87028,-31.6462,-31.29112,-30.927,-31.33794,-31.46652,-31.62541,-31.80148,-31.80166,-32.23624,-32.44663,-32.89624,-32.77299,-32.455,-32.69277,-32.52778,-32.12478,-31.4002,-30.38667,-30.58932,-30.5447,-30.50321,-30.2963,-30.26111,-30.58824,-31.20188,-31.27463,-31.10226,-30.90806,-29.97418,-29.48944,-29.3201,-28.53192,-27.53938,-27.49236,-27.23085,-27.11048,-26.51765,-27.00917,-26.78072,-27.33658,-26.88533,-26.09037,-25.88256,-25.26543,-24.59774,-24.76479,-23.78701,-23.41673,-21.89238,-22.51081,-22.59474,-22.19741,-22.52819,-22.45644,-23.1044,-22.98197,-22.61581,-22.61339,-22.85549,-22.36555,-22.79705,-22.36423,-22.36207,-21.79962,-22.26449,-22.25108,-21.69833,-21.55333,-21.45104,-21.49182,-21.83947,-21.39081,-20.74409,-20.61656,-19.82654,-20.14562,-18.90963,-18.02662,-17.69112,-15.68304,-15.16974,-14.13105,-14.14175,-13.71924,-13.3979,-13.97519,-13.73178,-13.25718,-13.46927,-13.04769,-13.59009,-12.99073,-13.05448,-12.32043,-12.77109,-12.94059,-12.78635,-13.17977,-13.36918,-13.31688,-14.18995,-13.73816,-13.21005,-13.07234,-12.81629,-12.34035,-11.83746,-11.0619,-9.419368,-9.244661,-8.473232,-7.993468,-6.890615,-6.711564,-5.527585,-5.280139,-3.986502,-2.899797,-1.482,-0.6737684,1.268719,1.977942,4.668655,6.044682,7.948225,9.392027,10.7084,12.35813,13.20255,14.51402,15.60019,16.90497,18.40224,19.65943,21.30137,22.60528,24.52236,26.27753,28.332,29.79442,31.06034,32.73227,34.31908,35.81599,36.85893,38.1785,39.2617,40.55897,42.36351,43.02155,44.60394,45.92881,47.37312,48.93135,49.63775,50.78717,51.63037,52.53141,53.61401,53.04096,53.74605,54.21989,54.42597,54.89152,54.77603,54.5078,54.71221,52.88426,52.56266,51.72231,50.90958,50.33207,50.27379,50.81571,49.93949,50.29117,49.88015,50.02026,49.98416,50.3394,50.2377,49.81565,50.62092,50.44097,51.17895,51.86037,51.97286,53.69203,54.22858,55.47269,54.59814,54.26279,54.3458,54.40214,54.22978,53.46685,52.72597,52.26501,51.89867,50.55769,49.41195,48.12401,46.85331,46.0712,44.24488,42.52239,40.89125,39.1286,37.08077,35.26794,33.17333,31.16698,29.11126,26.65293,24.6956,21.75677,19.79431,17.2516,15.38647,12.19063,9.689696,6.759013,4.957799,1.777201,-0.305267,-3.271575,-5.748602,-8.033662,-10.06667,-12.50905,-15.10781,-17.46454,-19.58552,-21.70496,-23.75735,-26.43451,-28.85402,-30.66036,-32.33367,-34.36362,-36.30219,-37.48214,-38.91701,-40.03118,-41.23024,-41.93623,-43.13623,-43.68637,-44.22978,-44.77643,-45.49759,-46.72888,-47.09573,-46.98484,-48.13348,-47.8212,-47.92002,-47.93255,-47.34661,-47.03768,-46.39396,-46.65177,-45.02169,-45.19053,-44.90379,-44.46262,-44.77875,-44.35352,-44.5522,-44.13144,-44.13358,-44.46197,-44.53912,-44.49529,-44.17656,-45.11675,-45.63575,-47.05036,-47.14414,-46.79877,-47.20802,-47.91324,-48.21185,-48.06471,-49.02214,-48.46906,-49.16136,-48.29513,-48.43758,-47.31553,-47.45302,-47.13092,-46.08417,-45.86072,-44.64452,-44.1471,-43.82404,-42.43927,-42.52175,-40.90291,-39.48958,-38.8966,-36.57533,-34.9211,-32.71092,-30.84752,-29.72566,-27.16983,-25.29905,-23.44963,-21.06231,-19.69634,-17.33889,-15.75599,-12.62752,-10.91079,-8.072313,-5.483296,-2.272621,0.7931101,3.551501,6.019662,8.302097,11.01855,13.73193,15.66721,17.60394,19.37645,21.33495,23.63257,25.68056,27.26372,29.50695,31.47055,34.1428,35.95009,37.56216,39.20848,40.85491,42.52623,43.25673,44.58525,45.09972,46.41242,47.00479,47.41086,48.30936,48.51431,49.31988,49.83845,50.89163,51.39586,51.05198,51.97433,52.17488,52.55274,51.56594,51.50644,51.37668,51.53558,50.76047,50.16201,49.8818,49.71856,49.69521,50.17437,49.62825,49.31125,49.57088,49.77226,49.46543,48.71841,48.56765,47.19361,47.26616,46.95715,46.30861,46.37429,45.39527,44.6487,44.13802,43.45149,43.34898,43.46502,43.57045,43.55581,43.57531,43.24404,43.11528,43.95388,43.98278,43.90909,44.3967,44.80585,45.17815,46.17091,45.91847,46.34658,46.47144,47.39581,47.11158,47.06255,46.2697,45.52807,45.68923,44.41142,43.59988,42.73606,41.37618,41.42088,40.32957,38.9417,37.86434,36.31721,35.22521,33.22971,31.45797,29.50929,26.99292,25.42182,23.28245,20.4761,18.04041,15.86054,14.65483,12.05805,10.35807,7.361459,4.950472,2.302873,-0.6235681,-3.67016,-7.404698,-10.07583,-13.26888,-16.12142,-19.29146,-22.17782,-25.22353,-27.22784,-29.94203,-32.61661,-35.21766,-37.81483,-39.92999,-42.44311,-44.81901,-47.48877,-49.87098,-51.91588,-54.01506,-55.77496,-57.73308,-59.37583,-61.35756,-62.26649,-64.2863,-66.00061,-66.61128,-67.30371,-67.72875,-68.72806,-69.23133,-69.88568,-70.38805,-70.26989,-70.45535,-70.57643,-70.22609,-70.00227,-69.40889,-69.50138,-68.73015,-68.98716,-67.26832,-67.05653,-64.8774,-63.81335,-61.94062,-60.68375,-59.60736,-59.79155,-59.04479,-59.90199,-59.0715,-59.81192,-60.03791,-61.65675,-63.13451,-64.03201,-64.00194,-64.49422,-65.40503,-65.83756,-65.85697,-65.72388,-66.18847,-66.21425,-66.353,-66.37586,-65.73365,-65.77031,-65.59453,-65.44364,-64.8892,-63.75552,-62.72399,-61.97641,-61.0455,-60.14067,-58.79892,-57.54608,-56.01435,-54.81964,-52.9909,-50.67504,-48.80858,-46.55454,-44.96498,-41.74474,-39.46916,-36.54818,-34.13803,-31.38794,-28.47918,-25.54178,-22.86707,-19.82662,-17.69412,-14.41463,-11.6414,-9.254439,-6.370054,-3.913167,-1.296582,1.35347,3.947053,5.844789,8.547264,10.82877,13.38385,15.8268,17.64992,19.85417,21.93768,23.95998,25.88626,27.36296,28.41915,30.10975,31.51884,32.98941,33.98064,35.70507,36.57053,37.9133,38.88761,38.91789,39.79691,40.0598,40.9995,40.62488,40.85015,39.59915,39.71687,39.1941,38.68272,38.63588,37.99061,37.13407,36.75442,36.04506,35.01637,33.52819,33.13374,31.884,30.86691,29.80733,28.48509,27.37523,26.48546,25.77696,25.89423,25.28725,25.89224,26.35276,27.94282,27.95343,28.11857,27.68517,27.38881,27.30975,27.08545,26.35153,26.36106,25.48206,26.08618,25.4234,25.41858,25.10272,25.22161,25.00876,25.57483,24.80701,24.60504,24.29666,23.94788,23.27759,22.20598,20.7586,20.73441,19.93042,19.46014,18.92316,18.49049,18.26093,17.92524,17.25753,16.95182,16.00819,16.16111,15.46469,15.38451,13.82836,13.53067,12.76368,12.59009,11.8253,12.28092,11.71421,12.12608,11.28149,12.70126,11.80782,11.88837,10.7675,11.85207,10.66901,9.96059,9.067181,8.401,8.216263,7.800914,7.326161,7.327647,7.403693,7.967022,7.491909,8.270702,7.113011,7.465196,6.935723,6.65239,6.189086,5.137114,4.584413,4.574524,4.499178,3.99502,5.295213,5.321551,6.60731,7.031911,8.148315,7.378177,7.855691,7.646057,8.021425,7.510995,6.917544,6.436572,6.398975,6.289737,6.207669,6.998731,7.074299,8.020758,8.224475,8.922514,7.496989,8.665888,7.248376,7.167143,5.805202,4.772519,2.595514,2.827387,0.8554353,0.5119256,-0.7476591,-1.099064,-1.535224,-1.784519,-2.463281,-3.915343,-4.073702,-4.920326,-6.112284,-7.743067,-8.958432,-11.57794,-12.18936,-13.69845,-14.21002,-15.25567,-15.61285,-15.9775,-16.27502,-16.87203,-18.3471,-19.57414,-20.41555,-21.64999,-24.00041,-25.43803,-27.94091,-28.98179,-30.76022,-32.22065,-32.61916,-32.31257,-32.65396,-33.24402,-33.45491,-34.94945,-36.30442,-37.32804,-38.85068,-40.90325,-43.64835,-44.07172,-46.5344,-48.17734,-50.80186,-53.05846,-55.02141,-56.63918,-58.76786,-59.68427,-63.02601,-64.23301,-66.78912,-67.23629,-70.93604,-72.45002,-75.03373,-76.02732,-78.71663,-79.47604,-81.64105,-82.17088,-82.49149,-82.93345,-82.97789,-83.20287,-83.60156,-83.17913,-83.66414,-82.4653,-83.06126,-81.46603,-80.71557,-79.21838,-77.35843,-75.87453,-72.7352,-70.27659,-66.40497,-63.478,-59.35737,-56.77264,-52.43949,-48.94667,-45.18452,-42.04993,-38.10185,-33.79491,-29.28962,-25.33933,-20.1293,-15.68212,-9.807394,-4.987675,0.832123,5.544219,10.58137,15.80454,20.87326,25.97395,29.22243,35.31275,38.00215,43.39586,46.99888,51.61065,55.64062,60.86841,64.37871,69.24386,72.39665,75.85632,78.7028,82.29326,85.05469,87.40005,90.01457,91.44118,94.54767,95.86486,96.71102,97.67619,98.85642,102.1578,102.5611,104.7877,105.9435,107.0541,109.1978,109.3891,110.545,111.1889,112.8246,113.6444,114.978,115.7798,116.9497,119.1305,120.5769,122.3815,124.2354,124.9566,125.6615,126.0636,127.1028,126.3974,126.5994,126.1698,126.0856,125.9441,125.3199,125.2282,123.0425,121.715,120.3755,118.4365,116.7611,114.3083,112.1503,110.1017,107.0803,104.7117,101.342,98.37493,94.98368,91.23414,87.50018,83.5432,79.9469,75.84273,71.36103,67.4901,62.79846,58.01722,53.92425,49.19154,44.22308,39.78365,35.61287,31.76326,26.88591,22.66709,17.90605,13.43744,9.882013,4.975548,1.558678,-3.217207,-6.413339,-10.94252,-14.76038,-18.88318,-22.12975,-25.38177,-28.14923,-30.83147,-33.34112,-36.13605,-38.53209,-40.94635,-42.76678,-45.07571,-46.42385,-48.25494,-49.08146,-50.34591,-51.76855,-53.05684,-54.07087,-54.33808,-55.00754,-54.63841,-55.36472,-54.88761,-54.00311,-54.77508,-54.47238,-55.24085,-55.10138,-55.5764,-55.45342,-55.96317,-55.88695,-55.83899,-55.72657,-56.1611,-56.95709,-57.47819,-57.40049,-58.53614,-58.82525,-58.97372,-59.29927,-58.19701,-59.58252,-58.46413,-58.70306,-59.09056,-57.94521,-58.08898,-56.57992,-56.94908,-55.61414,-55.68277,-54.46957,-53.76822,-53.01898,-52.78145,-52.13217,-51.40245,-50.64349,-50.00839,-49.43899,-48.92172,-47.99335,-46.97452,-46.0124,-45.41694,-43.9105,-43.01005,-41.9091,-41.45653,-40.89292,-40.32529,-39.71408,-38.96454,-38.56821,-38.49207,-37.42722,-36.92639,-36.25378,-35.25801,-34.7997,-34.12046,-33.06566,-31.85365,-31.83817,-31.56159,-31.6889,-30.53301,-31.03176,-31.05887,-31.88175,-31.16998,-29.96963,-29.176,-28.91936,-28.38985,-27.56657,-26.65221,-25.73013,-26.59484,-26.29063,-25.99711,-25.01538,-25.20159,-25.72222,-26.61466,-26.08351,-26.10133,-24.94312,-24.24063,-23.92866,-22.76427,-21.42399,-20.18168,-20.17852,-20.72389,-19.87983,-18.69266,-18.08745,-18.19414,-18.64693,-18.57803,-17.10804,-17.04293,-16.14895,-15.18574,-13.75018,-11.79559,-9.612853,-8.710217,-8.917296,-7.788343,-6.604434,-6.610561,-5.560576,-6.453407,-5.183814,-4.003964,-2.763959,-1.537453,-0.8718202,0.5329245,2.402636,4.400806,5.783751,6.040485,7.554848,8.962133,9.747552,9.564512,9.217705,9.313789,10.75431,12.13102,13.2823,14.21781,15.32621,16.9945,19.16899,19.65698,20.98642,21.51211,22.94895,23.98389,24.64449,23.83644,24.33378,25.6779,26.36601,27.62088,28.15847,28.72385,30.53965,32.41232,33.18437,32.67847,33.65666,33.15816,34.04987,33.28102,33.01921,31.7914,32.01152,32.55465,32.33547,32.13554,32.64078,32.37405,34.25433,34.38403,33.23353,32.56736,32.90185,32.26141,30.95573,29.96822,28.83217,28.56972,26.99386,26.37864,25.29062,24.53352,24.43991,23.75235,22.95552,21.85257,20.74538,20.14143,18.67903,17.20484,16.4381,14.44762,13.91177,12.25812,11.26663,10.66271,9.779062,9.168391,9.084361,8.410209,7.419075,6.894902,6.03466,5.177954,3.762892,2.567687,1.631272,0.09825263,-0.7139745,-1.641039,-2.691074,-3.007713,-3.420834,-3.934605,-4.190133,-5.084915,-6.035252,-6.298195,-7.446235,-8.319177,-9.952029,-10.55838,-11.35548,-12.65654,-12.6669,-14.24443,-13.86275,-14.27297,-14.41482,-13.95083,-14.0756,-13.0384,-13.36892,-13.21777,-14.34893,-15.4474,-15.48998,-17.34426,-17.92356,-19.7341,-20.12244,-21.33728,-20.89205,-22.31888,-22.00941,-23.18045,-24.38566,-24.83594,-25.49919,-26.13825,-26.98905,-27.53432,-27.98774,-28.13932,-27.69172,-28.53361,-27.06843,-26.6929,-25.60008,-24.52312,-23.88243,-22.90642,-21.59705,-20.19417,-19.20527,-18.43095,-17.30551,-16.47227,-14.49601,-13.38524,-11.43793,-10.05443,-7.690916,-5.603825,-3.160028,-1.478324,0.9020423,2.151277,4.985011,5.995813,7.467505,9.417383,10.78602,12.10364,13.94484,14.85088,16.28083,16.84172,18.41646,19.20605,19.81214,21.47462,22.3802,23.5474,24.24955,25.31466,25.59227,26.84498,26.87649,28.22766,27.71109,28.17536,28.57836,27.64639,28.33563,28.0234,27.37793,27.46164,27.16664,27.15524,26.30642,26.11918,25.4533,24.91345,24.53116,22.94769,22.49795,20.3923,19.71942,17.65134,16.49312,15.286,13.34002,12.49754,11.14604,9.966708,8.227008,7.260286,5.982198,5.880333,4.531552,3.497228,3.158128,1.470265,1.679898,0.3870798,0.5934349,0.1799593,1.174625,1.52347,2.50669,2.942039,2.425696,3.033014,3.335862,4.059238,3.540792,3.017395,3.183546,2.426144,2.07089,0.5799418,0.9715033,-0.777789,-0.5095432,-1.541999,-1.608708,-2.031946,-2.172698,-1.623816,-2.470625,-2.940246,-3.768101,-4.43211,-4.808525,-6.5354,-6.9746,-8.649281,-8.830107,-9.911982,-10.44162,-10.60894,-11.14514,-11.05847,-11.71063,-11.16198,-12.48074,-12.19068,-13.21419,-13.2257,-13.73442,-14.72826,-15.91615,-15.61894,-16.48744,-16.77751,-15.85786,-16.75689,-16.1183,-16.40612,-15.83658,-16.45972,-16.67365,-17.02286,-17.01925,-17.99878,-17.8263,-19.34022,-18.76446,-19.2719,-18.69071,-18.20473,-17.89166,-17.31006,-16.93283,-15.17002,-14.78778,-14.61166,-14.02216,-13.46448,-13.45238,-13.15041,-13.41407,-13.2199,-11.64532,-11.3855,-10.04295,-8.50762,-7.503228,-6.317449,-4.151187,-3.163263,-3.362308,-1.730399,-1.910926,-1.548157,-1.271893,-2.346754,-1.427145,-1.197171,-0.7695971,0.1048682,0.1082387,1.13358,1.563285,1.967559,3.236286,2.390996,3.050334,2.549068,2.260861,1.165551,0.8346282,-0.9453685,-0.4355907,-0.9928568,-0.9229873,-0.832838,-0.5436785,-0.7567688,0.1553987,0.4186355,0.5934066,-0.4408264,-0.09314189,-0.7458166,-2.156557,-3.022207,-4.519118,-5.244582,-5.653733,-6.025722,-6.018728,-6.192149,-6.046117,-5.626062,-5.779711,-6.116187,-6.32354,-7.156583,-6.680924,-7.289066,-7.215836,-8.407634,-8.378933,-9.670246,-10.72032,-10.86516,-11.76932,-11.75468,-12.37844,-12.49762,-13.96033,-14.30251,-15.75075,-15.76744,-18.12176,-17.83542,-19.71181,-20.44261,-21.66942,-21.99796,-23.00943,-22.07314,-22.8981,-21.76022,-21.4608,-22.01951,-21.95266,-21.95389,-21.83281,-22.61287,-21.55696,-22.30526,-21.27876,-20.71654,-19.8817,-19.80791,-18.28666,-17.43592,-15.72345,-14.05046,-11.78446,-11.2114,-9.098417,-8.01183,-6.969698,-6.156741,-3.979622,-3.018023,-1.092424,0.8823144,2.568066,5.157497,7.446929,9.346853,12.80207,14.58635,16.83569,18.71653,21.11984,21.61002,23.17113,25.19875,25.70479,27.98166,29.29,30.86149,32.67943,33.8403,35.595,37.85588,38.52512,40.14334,40.7452,41.73248,42.64761,41.84097,43.07094,42.2943,43.22554,43.02853,43.51517,43.29275,44.11423,43.94891,44.89967,44.41425,43.61796,42.19474,41.67856,40.82943,39.52903,38.33838,38.37462,37.2583,36.90946,36.67211,36.26482,36.92544,37.16825,37.32858,38.47328,38.34207,39.11963,39.39864,40.71243,41.29583,41.87667,43.0673,44.74517,44.61,45.26437,44.49629,44.8682,43.12055,44.30969,44.34012,43.87595,44.23836,43.13987,43.04564,42.13037,41.61735,40.3805,39.56444,37.88535,36.73299,34.26278,32.36842,30.73731,28.86087,27.09272,25.62539,22.68976,21.40678,18.81442,16.68624,14.53102,12.02731,9.672554,7.583087,5.483117,2.702561,0.1046811,-2.919856,-5.638453,-7.960768,-10.09557,-11.71005,-13.85772,-15.44951,-17.57744,-20.11678,-22.02847,-23.95388,-25.52737,-26.45312,-27.92989,-29.94253,-31.0279,-32.25152,-33.60607,-34.09521,-35.15232,-35.75741,-35.28027,-36.21232,-36.44945,-37.48945,-36.83124,-37.53541,-36.90397,-36.50299,-36.57642,-36.03043,-35.85033,-35.28479,-34.90563,-34.40793,-33.65354,-32.97639,-32.2185,-31.37174,-30.62147,-30.13328,-29.05134,-28.98298,-27.90776,-27.9543,-26.93932,-26.88904,-26.30731,-26.03636,-26.38518,-26.45127,-26.77607,-27.5819,-27.68734,-28.08888,-27.53382,-26.38637,-26.56,-25.95086,-26.54099,-26.41437,-26.93068,-26.83737,-27.28577,-26.97107,-27.61271,-27.15494,-26.41463,-27.3689,-25.82655,-26.73748,-25.10549,-25.1156,-24.33436,-23.51323,-23.86824,-22.44523,-22.39325,-21.62881,-20.6677,-20.60429,-18.39789,-18.18431,-16.41641,-16.38391,-15.82415,-15.23617,-13.92034,-14.18535,-13.72278,-13.79572,-12.95986,-12.71003,-12.04094,-12.24637,-11.61317,-11.55991,-10.63968,-10.48335,-10.22738,-9.641972,-10.32996,-9.816474,-10.32289,-11.02083,-11.40387,-11.27313,-12.58034,-12.86213,-14.20522,-14.86713,-15.20611,-15.76596,-16.72819,-16.84485,-18.16082,-18.83475,-19.68069,-20.35183,-21.40076,-21.45229,-22.8427,-21.79551,-24.28647,-25.42377,-25.39461,-25.67584,-25.6476,-26.63395,-27.16878,-27.52271,-27.45253,-25.13694,-26.56639,-26.05457,-26.07179,-25.40382,-24.84914,-25.34308,-26.49155,-26.14129,-26.22803,-26.02397,-25.40759,-25.42484,-25.70488,-25.26158,-25.2081,-26.13896,-27.15849,-28.35236,-27.95796,-28.55537,-29.40658,-31.13075,-31.29244,-31.86959,-31.28976,-32.34569,-33.49597,-33.82289,-33.57222,-32.42626,-32.76432,-33.60025,-33.49538,-32.59063,-33.39429,-33.48408,-34.759,-34.84505,-35.02606,-33.92517,-34.3302,-34.72177,-34.97476,-33.87262,-33.15382,-33.32047,-32.7377,-33.73368,-31.33305,-31.20505,-29.91106,-29.99929,-29.94405,-28.01463,-27.09209,-25.73316,-25.56862,-24.44608,-22.21516,-20.30386,-18.39636,-17.945,-15.52842,-13.53014,-9.95671,-8.901564,-5.959172,-3.708153,-0.4658524,2.967623,6.020194,8.567451,11.48239,15.14601,19.35798,22.74855,25.85451,28.85264,32.3988,36.91527,39.83895,43.22018,45.91892,49.70518,52.64251,56.36878,58.48531,61.27461,64.37401,68.18951,71.18481,74.09728,75.2551,78.83511,81.8639,84.58707,86.6007,88.55336,90.33533,93.63897,93.55271,95.52797,96.029,97.41297,98.9501,101.1362,103.1055,105.3776,108.6615,111.7664,112.6495,115.91,117.6461,120.8781,122.9736,125.5423,127.4627,130.1755,131.8777,134.8477,136.9587,137.858,138.4378,139.4115,139.8919,139.9766,139.8648,139.1167,138.9183,138.2449,136.8825,136.2167,135.1098,133.8108,132.4545,130.5493,128.6596,126.4326,124.9031,122.6699,119.8988,117.0813,114.345,111.4001,107.8182,104.7072,100.9781,97.22961,93.26075,89.78466,85.02338,80.95643,76.23551,71.69961,67.46238,62.35607,57.66848,52.26309,48.25774,41.99301,37.44822,31.29128,26.2608,21.07192,15.97046,10.80716,5.573739,0.8849763,-4.174268,-9.00413,-13.86972,-18.92614,-23.23804,-28.496,-31.99305,-36.91392,-40.08079,-44.69249,-48.28323,-51.42051,-55.3813,-59.09685,-62.57206,-65.86479,-69.21267,-72.06587,-74.98713,-78.26347,-81.149,-83.88806,-86.93232,-89.57795,-92.50772,-94.88991,-97.56355,-99.83858,-103.0639,-104.8972,-108.0444,-109.7167,-112.8641,-115.0021,-117.877,-119.1789,-122.3287,-124.7795,-127.3068,-130.5517,-133.3735,-136.1984,-139.8266,-142.2139,-144.9122,-145.5427,-147.275,-147.7307,-149.0705,-149.4964,-149.6758,-149.991,-148.8977,-149.1658,-148.087,-147.5599,-146.2193,-145.0976,-143.3289,-141.5926,-139.1522,-136.6222,-134.2299,-131.0865,-128.7393,-125.448,-122.0903,-118.1087,-114.5541,-110.4556,-105.714,-101.315,-96.55691,-91.58371,-87.1546,-82.08482,-77.1287,-71.64612,-66.63769,-61.3099,-55.7012,-50.53506,-44.33418,-39.216,-33.58295,-28.23946,-22.74167,-16.92816,-12.01104,-7.035645,-2.000923,3.496339,8.668833,13.63153,18.13861,22.66155,27.41713,31.08339,35.35091,38.48992,42.27848,45.00014,48.4282,50.65809,53.50832,55.28483,58.12684,60.29221,62.34938,63.81333,65.3684,66.68576,68.30166,69.28024,70.50128,70.95017,72.6779,73.15132,73.89111,73.74089,74.21808,74.17986,73.70325,73.09341,72.31153,71.29085,70.49665,69.48911,68.24827,66.43682,65.12808,63.7007,62.31281,59.893,58.47519,57.49217,56.23956,54.96188,52.74297,50.5687,47.26388,44.56666,41.32417,38.07601,33.48155,29.73462,25.12886,20.76036,16.72705,11.63144,7.193611,2.984298,-1.83707,-5.721533,-10.22759,-13.99129,-18.62362,-21.3974,-25.92005,-28.69979,-32.7427,-35.18977,-38.09874,-40.71498,-43.22313,-45.6622,-46.54001,-48.06434,-48.53189,-50.17089,-50.57637,-51.43044,-51.13744,-51.12803,-50.83049,-50.27821,-49.66242,-48.3055,-47.16266,-46.31967,-45.23781,-42.27153,-40.28766,-38.56574,-36.95619,-35.04662,-31.87277,-28.85715,-26.30157,-24.08343,-21.35148,-17.47899,-14.07108,-11.12963,-8.918525,-5.926215,-2.500549,1.194487,3.756523,6.310422,9.189164,12.60475,15.99151,17.99077,20.6644,21.84994,25.5227,27.3034,29.93738,30.59149,32.24898,33.46874,35.53016,35.93119,37.4165,37.09583,39.28127,39.80896,40.28201,39.47025,39.16913,39.43876,39.68583,39.20681,38.07053,37.10279,37.00958,36.50284,35.9278,33.81504,32.93584,31.57237,31.36192,29.7915,28.72095,26.64009,27.12556,26.35541,26.98286,25.32432,25.8212,25.83744,27.39854,27.94969,29.63662,30.31959,31.05235,31.69393,31.052,29.58914,27.89275,27.16938,27.76715,27.37842,27.05567,26.57393,27.67464,28.03815,29.71018,29.36412,30.3838,31.35612,32.51088,34.17037,34.57836,35.09487,36.06995,37.8105,37.91002,39.30704,37.82398,39.35044,39.53855,40.52088,40.22842,39.96541,40.34034,39.99747,40.09411,38.73153,37.63483,36.37711,35.83595,34.32143,34.16173,31.25785,30.07478,28.89754,27.29961,24.44954,22.02804,20.20325,17.01725,14.41229,11.07973,7.793631,5.122055,1.80497,-1.328469,-4.840544,-7.883636,-11.11229,-14.40501,-17.30817,-20.51549,-23.61414,-26.24413,-29.11785,-31.69596,-34.39777,-36.91854,-39.34644,-40.81857,-43.11351,-44.55562,-46.96123,-47.78562,-49.32007,-50.33659,-51.96423,-52.63733,-53.1112,-52.9259,-53.29827,-52.09305,-52.48868,-50.41812,-50.50854,-48.53617,-47.77352,-45.73689,-43.49481,-41.51114,-38.48479,-36.66449,-33.43141,-31.19237,-27.72523,-24.75352,-21.52415,-18.13841,-14.83667,-10.91437,-7.289585,-3.847227,-0.4919034,3.549313,6.154766,10.71262,12.71223,16.50834,18.54425,21.75415,23.42582,25.38564,26.31801,27.02649,27.20193,27.59864,27.25956,27.57717,28.20881,29.42204,29.02636,29.66641,28.68961,29.82031,28.24859,29.56249,27.94694,27.71699,26.55496,25.84143,25.38783,24.14135,22.77715,21.48674,20.39882,18.68892,17.6779,15.53073,14.54281,13.25095,11.86194,10.16642,8.218054,6.722919,5.397974,4.600482,3.121002,1.821256,0.7319457,-0.5124324,-1.263246,-1.811414,-4.758701,-5.128888,-7.715471,-8.652395,-10.31481,-11.3272,-12.4927,-13.85419,-14.28829,-16.2551,-17.10931,-18.43991,-19.26209,-19.96793,-21.33975,-21.87443,-23.23384,-24.35684,-25.10759,-25.85622,-26.40045,-27.80209,-27.18078,-28.49356,-28.26914,-30.13583,-29.69422,-30.74781,-31.22,-32.42228,-33.13819,-34.61063,-35.58699,-36.87075,-37.33389,-37.83055,-38.81157,-38.95224,-39.36152,-40.0895,-40.43175,-41.27975,-41.67606,-42.03338,-42.56185,-43.52759,-44.66005,-45.48015,-46.71389,-47.74729,-48.78941,-49.69569,-50.08437,-50.53936,-51.19996,-52.2791,-52.54879,-53.09477,-52.92241,-53.98281,-54.61625,-55.52694,-54.87272,-53.60414,-54.25971,-52.85375,-54.62361,-54.06896,-54.96345,-55.75185,-56.93846,-57.90936,-58.94188,-59.5372,-61.02806,-62.77177,-63.74973,-65.92564,-66.94541,-68.06321,-69.66975,-71.28565,-71.67225,-71.52069,-72.99015,-73.34919,-73.48913,-73.02327,-71.79827,-71.92482,-70.64301,-70.70321,-68.89208,-67.8364,-66.22374,-64.78076,-64.04326,-60.44488,-58.3028,-55.28581,-53.42908,-49.60015,-46.25071,-41.89525,-38.72572,-36.0813,-32.84888,-29.39356,-25.2154,-22.05262,-18.2644,-15.37637,-10.88888,-5.748002,-1.536307,2.502668,6.823561,11.10672,16.98607,20.52367,24.54359,28.30302,32.33351,36.8361,40.40705,43.89026,46.96596,50.39736,55.78965,59.0969,62.92763,64.79165,70.06396,72.15102,76.47472,77.08386,80.48387,81.25769,84.39385,84.87547,87.69675,86.91169,90.19351,90.80248,93.27523,93.08112,94.09786,95.08101,95.88718,96.94828,97.03293,96.04192,96.4496,95.97063,95.43465,94.24233,92.64676,91.59596,91.73208,90.03292,88.00593,86.12927,85.2655,85.17043,84.62773,84.55592,84.23264,84.41125,85.14505,86.02982,86.85949,88.31358,90.647,92.87165,93.83947,95.33328,95.05822,96.64584,98.20369,98.92875,99.72411,99.62892,99.21676,99.8125,99.43488,97.7246,96.93678,95.49794,95.75252,94.6104,93.75389,91.99151,92.15017,90.33587,89.7273,87.62891,86.55735,83.68111,82.5783,79.67425,78.04736,73.4508,72.38764,69.12145,67.07969,64.35848,61.37821,59.38557,55.92522,53.32784,49.6629,46.99226,42.77024,38.93696,34.98702,30.57551,27.38016,23.36323,20.12025,16.83076,13.78451,9.614991,7.600681,3.668004,0.9342504,-2.151334,-5.348886,-8.733207,-11.22566,-15.16415,-18.24169,-20.34225,-23.72837,-24.98674,-27.57988,-28.75004,-30.62711,-32.11939,-33.2097,-33.94925,-35.70756,-36.27878,-37.82219,-38.65857,-40.41982,-40.74644,-41.74469,-42.20447,-41.68152,-41.16355,-39.06293,-38.29289,-37.53389,-36.29008,-35.47914,-34.59906,-33.44709,-33.79066,-33.26494,-33.54583,-34.36682,-33.82408,-34.41135,-34.39086,-34.7988,-34.73757,-36.83943,-37.00024,-39.18763,-41.0853,-41.70203,-42.18609,-42.56292,-43.35997,-43.70788,-43.81488,-44.03874,-43.74815,-42.88258,-41.83559,-40.73555,-39.62082,-37.68366,-36.89816,-35.17492,-34.17662,-32.60407,-32.61036,-31.10916,-30.82262,-30.37354,-29.77032,-29.72468,-28.61038,-28.39925,-27.36683,-26.63006,-25.46545,-24.84018,-23.47433,-22.71463,-21.7216,-22.19427,-21.35154,-21.96797,-21.85291,-22.07261,-21.87232,-21.31221,-20.90452,-20.31908,-19.80536,-19.07758,-18.88748,-19.13218,-18.80188,-19.30864,-19.90176,-20.46071,-21.17996,-21.83175,-22.66893,-24.4736,-25.20941,-25.6099,-26.51975,-27.43484,-28.26969,-29.31296,-30.00082,-30.81195,-32.43903,-33.23809,-34.98818,-35.77131,-37.30337,-38.54363,-39.94809,-40.88215,-42.10343,-41.95153,-43.10421,-44.22621,-44.25242,-45.27774,-45.35534,-46.28324,-46.85678,-47.52905,-47.25755,-48.45673,-47.8141,-48.97058,-47.80461,-48.17864,-46.0062,-46.31623,-43.81651,-42.99198,-40.90833,-40.09966,-38.70963,-39.94882,-37.39383,-39.06363,-36.73831,-37.47537,-37.30471,-36.7479,-36.69019,-35.63525,-34.96551,-35.10399,-34.83055,-35.02962,-35.51472,-36.19789,-36.48969,-37.21669,-37.12562,-37.3117,-37.74283,-38.26681,-38.38211,-38.38479,-37.89012,-37.61002,-37.61055,-37.79709,-37.3892,-37.07209,-37.27115,-37.1207,-38.13952,-37.97518,-38.54128,-38.84913,-39.32177,-39.70587,-39.85732,-39.35825,-38.4684,-37.87248,-37.21013,-36.10048,-36.34456,-36.93495,-38.91875,-38.56331,-40.62802,-40.53509,-43.5137,-45.33607,-46.63146,-48.21186,-48.70922,-49.93064,-51.49078,-52.34598,-52.00826,-52.85465,-53.63086,-54.93837,-55.74384,-55.84631,-55.48104,-56.00469,-56.32297,-56.3071,-55.21195,-54.7648,-54.40756,-54.45481,-52.83915,-51.61692,-49.50022,-48.41956,-47.00566,-44.83901,-42.56515,-39.34717,-37.57409,-34.82121,-32.83652,-29.15784,-26.03419,-22.89469,-20.21602,-16.57034,-13.04915,-8.503528,-5.847958,-2.157503,1.090198,5.470782,9.619494,14.02336,17.42954,21.06301,26.05014,29.6499,33.91162,36.91876,40.22935,44.26464,48.66491,51.26069,54.73415,56.54059,60.45717,62.90985,65.94885,67.30362,69.54708,71.73237,74.58774,76.01181,76.75357,77.94394,79.14732,80.91373,81.53161,81.92583,81.83824,82.96119,83.13422,83.47989,82.6425,82.18191,81.59001,82.09327,80.88469,80.29069,78.59039,78.00732,77.31071,76.25519,74.63341,73.7104,72.33662,72.32904,71.02898,70.11615,68.75037,68.38069,68.44428,68.01478,68.344,67.39728,68.74183,70.15661,70.59114,70.54717,69.90329,70.11109,69.01899,68.94,67.86633,68.74691,66.88,68.12187,66.12036,66.3654,65.36813,65.13579,65.07242,64.70947,64.41771,64.69883,64.59974,64.43251,64.82763,64.64068,64.64458,65.36439,65.13586,66.19655,65.70162,66.26236,66.64358,66.57296,67.12773,67.43328,67.27316,67.64612,68.08824,68.2205,67.77943,66.94436,65.93296,65.67482,65.42738,65.22435,65.28916,66.04787,66.75498,67.51239,68.52154,69.14761,70.44369,71.72384,72.87963,73.89298,74.92967,76.18519,76.86597,78.46859,78.49504,78.75655,79.09654,79.32939,79.23709,78.98769,78.14365,78.04391,76.98774,75.99494,74.37142,72.78718,71.15764,68.83298,67.11676,64.36659,61.76897,59.27865,56.1378,53.10861,49.59814,46.12747,42.16487,39.25271,34.58365,31.69986,26.2401,23.85715,18.18087,15.22185,10.31949,6.242989,2.704061,-1.546923,-6.096851,-9.928956,-14.47494,-18.40783,-22.4925,-25.95256,-29.59199,-33.87888,-37.55968,-41.24044,-44.47646,-47.88687,-51.63767,-55.27701,-57.38624,-60.79244,-62.78871,-65.76124,-67.7555,-69.89709,-71.68575,-73.71053,-75.03748,-77.17108,-79.08773,-80.70485,-81.31397,-82.46284,-83.98,-84.39325,-84.91727,-86.04252,-85.22973,-85.80415,-84.88298,-84.63561,-84.07147,-83.43806,-82.6888,-81.93704,-80.57629,-78.83767,-78.27292,-76.39264,-74.83526,-72.93569,-72.02057,-69.98396,-68.76564,-67.18164,-66.3538,-64.68818,-64.71671,-64.05924,-64.11997,-64.28379,-64.45945,-65.2242,-63.21204,-63.67629,-61.04568,-61.23765,-58.66516,-57.97397,-55.74086,-54.60891,-53.20422,-51.78821,-50.60923,-49.23602,-48.3304,-47.10782,-45.85762,-44.36628,-43.20538,-41.42174,-39.92361,-38.53997,-36.69969,-35.04519,-34.00531,-32.42162,-31.07869,-30.59974,-28.87976,-28.31372,-27.25895,-25.78729,-25.24055,-23.87836,-22.41107,-21.49689,-20.00857,-19.24962,-18.70311,-17.27467,-17.14166,-16.13778,-16.4066,-14.79759,-15.82268,-13.37751,-14.32939,-12.5178,-13.6572,-11.65264,-11.76804,-10.37978,-10.15959,-10.47179,-9.936836,-9.533098,-9.628082,-10.27273,-9.886846,-10.49045,-10.11062,-10.90927,-10.36224,-11.17198,-9.912808,-10.88222,-9.912018,-9.623257,-9.118833,-10.15544,-8.9701,-10.13928,-10.11429,-11.21878,-11.22474,-12.17104,-11.97111,-13.71261,-13.17035,-13.31425,-12.45653,-12.98065,-13.17647,-12.81076,-13.29404,-13.45821,-13.22798,-14.46438,-15.03795,-16.12127,-16.73628,-16.60287,-17.07431,-17.90912,-16.75596,-17.48836,-17.57894,-16.02718,-15.90487,-14.36082,-13.986,-13.83119,-14.61705,-15.47715,-17.47148,-17.57293,-19.83539,-20.93271,-22.83951,-23.37649,-24.52732,-26.22815,-27.27923,-30.14722,-30.82788,-33.25626,-34.44052,-37.19342,-38.75182,-41.8366,-42.97499,-44.45253,-46.56758,-47.56746,-48.89774,-48.59134,-48.85996,-49.02511,-49.89386,-48.915,-49.46636,-49.01961,-49.17801,-48.43136,-47.72776,-47.39464,-45.90462,-45.99826,-43.62244,-43.37507,-40.35198,-38.59724,-36.39822,-33.78068,-31.14842,-27.99612,-25.25466,-22.55224,-19.79048,-16.62189,-13.67119,-9.877634,-7.412754,-2.812828,-0.330744,4.7468,7.206932,11.22903,14.72796,17.97536,21.81291,24.44908,27.20293,29.80065,32.73684,34.81163,37.399,38.90669,41.70433,42.54115,45.21217,46.31318,47.87207,48.26477,49.36693,49.38612,50.39826,49.47372,49.08122,47.70299,47.71672,45.7125,45.43055,43.23269,42.80952,41.07903,40.57224,38.1254,37.71188,35.17659,34.42042,32.47424,30.94056,28.73832,26.40236,25.29861,23.57307,22.25898,20.91214,20.19654,20.27661,20.26464,20.87237,20.69592,22.06966,22.45873,25.26272,26.888,28.39003,29.9274,31.18985,32.64361,34.62618,36.3741,38.4171,41.57614,43.08511,45.69855,47.06689,50.50374,52.10363,55.14974,57.1884,60.34736,62.35866,65.80484,67.99364,71.52801,73.87008,76.98328,79.80381,81.79936,84.19705,86.56138,89.17094,92.16619,93.86919,96.06301,97.7411,99.39994,100.8082,102.7448,103.907,105.4659,105.6218,105.7918,107.5853,106.7009,107.6993,106.5351,107.0535,105.8733,105.274,103.7374,102.4441,101.1316,98.93995,97.721,95.12441,92.84665,90.69146,88.02113,85.34968,82.47611,79.05803,75.84295,72.65762,68.96734,65.26374,61.55534,57.77949,53.83451,50.1566,46.37058,41.55666,37.34196,33.15736,28.82455,24.76188,19.4549,15.59771,11.11976,6.427364,1.597136,-2.426682,-7.509233,-10.92819,-14.77611,-18.83861,-22.71443,-26.52662,-30.23933,-33.36842,-37.20654,-39.93236,-43.61916,-45.74327,-49.23926,-51.52935,-54.03419,-55.18781,-58.33548,-58.78755,-61.37305,-62.49828,-63.67332,-63.9798,-65.35508,-65.81581,-67.62633,-67.37032,-68.9511,-68.37542,-70.97078,-70.59687,-71.04263,-70.92913,-71.23536,-70.83981,-70.98073,-70.99277,-70.1925,-69.85803,-70.14255,-69.29322,-70.47958,-69.85317,-69.99192,-69.62634,-68.79534,-68.28675,-67.40281,-67.12681,-66.00966,-65.97647,-65.27556,-64.88229,-64.04416,-63.07131,-63.7035,-63.71466,-63.40419,-61.92939,-61.90545,-60.58238,-59.85814,-58.85159,-57.92122,-57.20504,-56.95016,-55.62127,-55.43647,-53.77006,-52.98388,-52.33982,-51.45394,-50.00348,-50.00103,-47.94666,-48.1055,-46.9052,-46.10966,-44.81074,-43.83668,-42.44499,-41.71057,-40.60522,-38.83976,-37.97982,-36.54229,-35.42211,-34.61116,-32.55382,-31.61068,-29.50844,-29.0043,-26.52242,-25.37881,-23.08869,-21.95641,-20.66871,-18.79647,-17.54532,-15.72446,-14.95603,-13.12826,-12.09999,-10.31854,-8.996004,-8.187059,-6.744553,-5.945589,-4.755269,-4.04125,-2.523824,-2.189094,-0.5693683,0.5681814,0.9100208,2.416583,2.101175,3.559386,4.313979,5.018028,6.196053,6.229981,7.64118,7.932987,9.398279,10.32177,11.02405,11.36144,13.34619,13.89476,14.90933,15.75207,17.13617,17.20345,18.97553,18.75964,20.83922,19.71081,22.20756,21.68403,24.32649,24.41847,25.25941,26.46054,27.36402,28.78094,29.08126,31.20891,30.33166,31.78431,31.70574,32.28796,32.65085,34.35934,35.04004,37.8165,38.04388,40.19835,41.27679,43.75147,44.43597,46.11332,47.54764,49.32199,51.0633,51.51736,53.58251,54.43588,56.26546,57.22903,59.35283,59.69928,60.8233,60.95283,61.71201,61.89927,62.49794,61.90518,62.32226,61.77341,61.40717,60.79267,59.32783,59.88879,58.0751,57.49219,55.5718,54.69389,52.0392,50.8808,48.73962,46.36056,43.97741,41.94207,39.2693,36.49986,33.68842,31.08841,28.80991,25.93898,23.6856,20.56669,17.83709,15.29791,12.26232,9.604072,6.541134,4.072021,0.7112059,-1.205365,-4.170155,-6.921701,-9.730028,-12.24681,-14.26267,-17.46944,-19.32087,-22.43078,-24.37088,-27.08327,-28.17214,-30.77905,-32.41821,-33.99706,-35.05504,-36.5773,-38.00689,-39.30187,-40.08887,-41.03532,-41.48323,-42.49044,-43.31602,-44.0544,-44.41726,-44.72127,-44.67496,-45.35588,-45.02725,-44.92051,-45.2115,-44.63086,-45.15782,-44.53174,-44.79948,-44.19,-44.40946,-44.66962,-44.1631,-44.80899,-44.06473,-44.66042,-45.83757,-43.76789,-44.28445,-43.20278,-45.13415,-44.65347,-46.79983,-46.13256,-47.47196,-47.54343,-49.3026,-48.87253,-50.80262,-50.66426,-52.93569,-53.6675,-55.3267,-56.37072,-57.10522,-58.11487,-58.46749,-59.69203,-60.19677,-60.25079,-60.94429,-60.85191,-61.58708,-60.3284,-60.8231,-60.256,-60.3427,-60.0468,-59.54729,-58.18693,-57.61508,-56.80124,-55.33033,-54.11301,-52.65776,-51.3526,-49.58568,-47.13492,-46.58644,-43.11879,-42.33298,-39.66109,-38.56911,-34.82915,-33.35296,-30.7375,-29.02089,-26.479,-24.77707,-21.85534,-19.68782,-17.25888,-15.45057,-12.37208,-10.65533,-7.526444,-5.9982,-3.113424,-1.620688,1.199998,3.732191,5.256154,7.168002,9.066066,10.64978,11.89868,12.57002,14.13129,15.26359,16.80098,18.24084,19.82147,21.05971,22.24368,23.78311,25.03841,25.78276,26.20317,27.19162,26.81805,27.8344,27.10712,27.39144,26.65574,27.35776,27.39058,26.93975,26.96738,27.27743,27.38249,28.29706,27.72393,28.25938,27.87423,29.33053,28.14912,28.69047,28.29647,28.56328,27.64844,28.71244,27.92991,28.33021,28.43981,30.18432,30.61613,32.45031,34.40906,34.23276,35.23703,35.68421,35.4265,35.72663,34.45764,36.29772,34.63272,35.51468,34.04436,34.12782,33.75279,34.43202,33.65617,34.20195,33.41602,34.36284,32.65037,34.87785,31.36505,32.98295,30.23927,31.82948,29.59636,29.03073,28.31686,26.36952,26.46706,24.9188,24.4975,24.06763,23.56118,23.68053,22.58083,22.4229,20.92578,20.63288,19.6214,19.92485,18.27513,18.44823,17.1766,17.41571,16.7922,17.27901,16.89563,17.19559,17.53394,17.23637,16.77322,16.8982,16.92471,16.65326,16.55372,16.73224,16.316,16.82598,17.45514,17.23887,18.07974,18.64878,20.00013,20.79542,21.37916,21.71635,21.52055,22.12426,22.73972,22.77359,23.73764,23.40845,24.89966,25.25087,26.56568,26.03437,26.69005,26.77895,27.63333,27.07365,27.00588,26.78538,25.3546,26.20984,24.293,24.17441,22.14903,22.72013,21.52012,21.14378,20.35922,20.48463,19.12885,18.95386,17.27962,17.47699,15.27017,15.32786,12.98412,13.39751,11.01499,10.2501,8.14203,9.781706,7.628193,8.769766,7.919042,8.769808,8.922963,9.335524,9.761653,8.881728,8.935487,8.931777,7.720808,8.448084,5.942083,7.933422,4.424826,6.87151,4.854948,5.955156,5.801712,6.909401,6.499988,7.559344,7.149296,6.577889,6.801427,6.91055,4.34287,4.698483,2.612658,3.244525,0.9297836,0.9096286,-0.4217638,-1.09339,-0.8287919,-1.56813,-0.7504751,-2.038106,-2.85668,-3.787346,-5.354805,-7.030489,-9.265266,-11.37519,-13.12352,-14.84209,-16.69166,-18.79562,-20.65463,-21.52972,-23.18005,-23.89229,-26.28951,-26.78338,-29.78779,-31.15062,-33.68698,-35.67482,-38.77678,-40.55493,-42.55522,-43.93596,-45.42585,-46.8796,-47.86705,-48.09991,-48.516,-48.97784,-48.96793,-49.91554,-49.37223,-51.23053,-51.26727,-52.48669,-52.81066,-53.48132,-53.09626,-52.63067,-51.81999,-50.24153,-48.89377,-47.53499,-46.53182,-45.00549,-43.70403,-42.48937,-41.48901,-40.95029,-39.80073,-39.39284,-38.69413,-38.17379,-36.76707,-35.41345,-33.85116,-32.61618,-31.13061,-29.72946,-29.48357,-27.67318,-26.71211,-24.96551,-25.79073,-23.39321,-23.13406,-21.59631,-21.27503,-19.85019,-18.70581,-17.80261,-15.99394,-14.90878,-13.92671,-12.54213,-11.04045,-11.36405,-9.652293,-11.13557,-10.11745,-10.89474,-10.68542,-10.8057,-12.06655,-10.80933,-10.63911,-8.182665,-7.892281,-6.980772,-5.202447,-2.564433,-1.290907,0.1390219,0.7468003,1.241171,3.943046,3.937147,6.598156,5.705294,8.808582,9.598175,13.27112,14.19887,17.00801,18.676,22.02719,25.19654,27.16934,27.10321,29.14524,30.09886,32.316,31.71764,33.41818,32.0811,36.81296,35.94874,39.4352,37.76724,40.65676,40.89885,43.57795,43.62334,43.14167,43.13546,42.52658,42.34625,41.30056,38.77007,37.44161,37.49732,36.55101,36.33007,34.26674,33.21082,32.82954,32.2771,31.34153,28.17051,26.84291,23.32003,22.14508,18.06318,14.88576,10.99465,7.825486,6.038717,2.25155,-0.7193622,-5.07857,-6.574432,-10.4302,-13.02758,-17.50806,-21.00339,-25.17186,-27.45105,-32.12342,-36.01664,-40.48412,-45.19709,-46.65371,-50.1491,-52.33725,-55.26599,-56.56981,-57.88549,-59.28003,-60.56871,-62.0678,-63.66236,-62.90551,-63.93548,-64.53119,-64.84402,-64.35827,-64.19361,-62.62319,-62.4078,-61.79013,-59.73935,-56.20557,-54.51338,-51.96537,-49.99175,-47.49017,-45.20009,-41.57479,-40.28651,-37.83979,-35.61132,-31.59454,-28.50696,-25.28838,-21.29791,-16.78581,-12.42136,-6.972011,-3.565679,2.35728,6.222383,10.16512,14.60837,18.6403,21.71891,26.05629,29.4047,33.74937,36.38557,41.32866,44.02341,49.18978,53.28811,56.94713,60.45975,64.19937,67.44831,69.26616,71.89155,73.3814,75.66409,76.3628,78.42197,79.16927,80.20796,83.02023,82.34075,85.00671,84.61384,86.28081,86.46156,87.65599,86.03788,85.6568,84.82514,83.29688,81.56735,80.40504,78.42163,77.04555,76.79547,74.25051,74.09402,72.18769,71.58624,69.87508,69.14481,67.48013,63.53141,63.23229,60.32131,59.16373,56.16216,53.09531,51.75688,48.77508,47.91345,44.38052,42.64937,39.84975,39.02123,35.89459,34.21752,29.92129,27.86741,25.22246,23.77492,20.70856,18.67211,16.06114,14.08755,13.24986,10.4113,7.529554,5.360989,2.652884,1.2648,-2.47676,-5.167311,-9.084699,-12.55606,-13.81668,-18.2584,-21.23273,-24.32833,-26.35511,-28.76169,-30.56133,-34.03392,-35.66873,-36.73461,-37.61087,-40.06353,-41.69651,-44.17447,-45.15569,-46.51039,-47.78546,-49.38404,-51.19912,-51.62371,-51.54471,-52.15929,-53.02068,-52.67829,-52.4288,-51.23454,-51.14447,-51.83749,-51.77849,-51.63766,-50.69284,-49.81358,-50.18637,-49.73572,-48.96644,-47.44863,-46.81018,-45.53654,-45.13498,-42.81928,-40.78489,-38.67696,-38.56658,-36.98445,-36.36433,-34.55915,-34.50751,-33.24509,-34.03078,-31.47887,-31.74634,-28.59755,-29.82984,-27.64083,-27.07265,-24.81445,-23.50903,-22.68181,-22.0848,-21.26738,-20.54392,-21.27683,-21.14656,-22.67362,-22.37918,-22.57254,-22.42754,-23.29755,-24.41037,-24.27643,-25.37147,-25.05385,-26.67904,-27.46565,-28.31862,-28.67118,-29.65107,-31.36641,-31.66754,-33.0748,-33.82037,-34.12723,-35.73114,-35.23926,-37.53323,-36.49093,-37.31691,-36.89742,-37.39254,-36.25432,-36.3163,-34.75501,-34.91907,-33.69718,-32.27783,-29.58444,-28.10225,-26.43179,-24.58972,-22.70289,-19.92152,-17.73458,-14.95927,-12.26608,-9.300154,-6.169377,-3.557182,-0.8055715,2.711121,5.134531,9.960649,12.13229,15.84235,18.77801,21.99035,25.40516,28.28949,31.29103,35.22746,38.06096,41.46418,43.25643,46.84112,48.37447,51.76321,53.72313,56.301,57.82511,59.10705,60.50424,63.00495,63.25554,65.43892,64.86759,66.67267,66.50082,67.10894,67.29962,67.26172,67.70008,67.19496,67.3629,66.28837,65.52125,64.54606,64.03574,62.65258,61.73543,60.59247,59.24435,58.49625,57.02254,55.88981,54.26471,52.58885,52.40443,50.04249,50.26296,47.74964,47.48657,45.80192,45.67787,43.45959,42.83287,41.23527,41.37686,39.81906,38.8261,37.84101,36.49837,35.93743,34.45198,34.19939,32.1437,32.39839,30.67532,30.40241,29.35652,27.73582,27.16662,25.89182,25.21632,24.19476,23.6924,22.05703,21.73703,19.9528,19.55099,17.1798,16.39628,15.27312,13.93153,12.13946,10.84828,8.734515,7.524756,5.183053,3.341276,0.293555,-1.94003,-5.504092,-7.817802,-10.91551,-14.00154,-16.58991,-18.63904,-21.82803,-24.04486,-27.13699,-29.53212,-31.6724,-33.64967,-36.23303,-39.18141,-41.24268,-44.64548,-45.84947,-49.064,-50.19157,-53.99775,-54.23991,-57.53335,-58.19398,-61.65032,-62.00203,-64.52919,-64.40811,-66.87279,-67.94785,-70.21915,-72.09461,-73.19618,-75.00107,-77.34415,-77.94291,-79.91995,-80.0368,-82.00983,-82.45682,-83.82086,-84.1057,-85.23782,-85.21192,-87.91242,-87.21911,-89.771,-89.51287,-91.08026,-92.22237,-93.37135,-93.63086,-93.89345,-94.73947,-94.60854,-95.06272,-94.83088,-93.99943,-93.16612,-93.16865,-92.63276,-91.46888,-90.87333,-89.83633,-89.38965,-88.66619,-86.5233,-85.7035,-82.91344,-81.85704,-79.69498,-76.49169,-74.70273,-70.81686,-69.15693,-66.14269,-62.58297,-60.90945,-57.25779,-55.66546,-52.63989,-50.13163,-45.73915,-42.77225,-38.28202,-33.76247,-28.74954,-23.67432,-18.0573,-13.63501,-9.45552,-4.819364,0.02490553,4.6871,8.792085,13.41563,17.25633,22.77929,26.70806,31.70694,36.44457,41.51558,45.73043,51.30326,54.97053,59.56435,62.01612,65.85899,68.73958,70.96164,72.6383,74.63397,76.26808,78.38232,78.50451,79.99589,81.8207,81.65004,83.22131,82.60584,83.75503,82.48059,82.31614,80.15205,79.01996,76.88113,74.16916,73.28376,69.34094,68.08941,63.8336,62.97279,59.06191,57.89945,54.27342,52.98039,48.87273,47.11659,42.08836,39.74171,35.62929,32.12856,29.59441,26.12289,24.00267,21.4261,19.21596,17.58009,16.02024,14.67482,13.20349,12.51256,10.05319,9.185299,6.822443,6.585054,4.184793,4.16273,2.843923,3.578456,2.673176,4.167945,4.140244,6.423866,7.738102,9.515202,11.33527,13.58575,13.99092,16.27004,17.27022,19.37728,20.29866,22.35447,24.79851,27.32311,30.18644,32.58672,36.27798,38.40325,42.39646,45.12722,49.31965,51.90358,55.09065,56.54039,58.93212,59.02198,60.7433,60.90033,63.33287,63.16298,65.97088,65.31678,67.91016,66.90897,67.79374,67.21182,66.22709,64.68479,62.11093,61.78688,58.02159,56.96864,53.95657,51.37513,49.11811,47.31851,44.77634,44.28266,42.10424,40.47223,38.68139,38.20958,34.79153,33.08976,29.93603,27.95941,25.18917,22.92063,20.90116,18.4311,17.68631,15.31736,14.28355,13.3967,12.88798,11.2886,11.66237,11.52645,11.12848,10.27158,10.21124,9.856268,9.999116,9.554431,9.494766,10.01138,11.03441,12.94268,13.82851,16.52539,17.02731,19.79395,23.1213,25.1889,27.21783,28.20887,29.79962,29.8095,30.11685,29.44279,29.04209,28.8507,28.14814,27.19903,26.31731,26.16568,24.68151,22.75347,21.34995,18.97909,13.86567,13.39908,7.385398,5.338285,-1.105908,-3.405727,-9.10414,-10.5028,-16.42394,-18.11577,-23.23748,-25.22242,-29.89107,-33.10804,-36.80294,-41.15451,-46.03895,-48.5269,-54.60752,-57.17434,-63.29765,-65.11113,-69.00904,-70.48921,-74.37338,-75.29756,-76.70475,-77.67035,-77.32693,-78.37824,-76.94855,-79.70055,-78.13787,-81.03673,-80.06094,-82.32947,-81.56739,-81.13362,-80.98739,-79.86615,-79.83702,-77.9293,-77.11098,-74.53896,-73.98528,-71.84561,-71.22379,-68.21213,-68.7353,-65.60503,-67.17418,-64.0863,-64.55553,-62.52192,-60.78936,-60.04824,-58.00967,-56.50893,-54.38591,-54.05602,-52.35899,-51.91533,-51.40786,-50.92063,-51.92475,-52.25055,-53.0004,-53.8057,-55.05578,-57.1195,-57.71969,-60.22384,-59.82414,-60.91002,-62.09446,-62.99341,-63.86231,-64.04492,-65.81816,-67.53133,-68.57499,-70.69887,-71.1237,-72.89718,-72.8488,-73.695,-72.79326,-72.70009,-70.91454,-70.0255,-67.78336,-65.19224,-61.51278,-60.97688,-58.36727,-58.46887,-55.81648,-56.0557,-53.49228,-53.49014,-50.75162,-49.72599,-46.90408,-45.42164,-42.5488,-40.30095,-39.07853,-36.06811,-34.47723,-31.6959,-31.76985,-27.96582,-27.09109,-23.16344,-23.17388,-20.77061,-19.366,-16.57474,-16.32194,-14.20744,-15.12027,-13.78184,-14.84119,-12.87387,-13.81993,-14.31196,-15.49598,-13.74836,-16.2778,-14.64288,-16.72721,-15.3726,-15.76682,-14.52186,-15.20628,-13.82748,-13.75902,-12.90505,-12.30388,-11.29226,-11.15693,-11.54016,-9.980297,-9.617852,-8.342152,-7.715633,-5.447793,-4.579336,-2.305778,0.2679524,1.755116,5.599545,6.535996,10.98489,11.90589,15.58868,17.9034,20.48067,23.13565,26.51509,27.87714,31.47725,34.23636,37.75128,41.27433,44.52553,48.47672,52.33619,56.22829,59.28935,63.00947,65.79911,69.36345,71.75876,75.16968,78.07891,80.3981,83.04987,85.61612,88.80617,91.55418,94.54897,96.12399,100.143,101.379,103.8833,105.249,106.9225,108.141,108.5207,110.7088,110.1698,112.079,111.5656,113.1656,112.4585,113.7953,113.4067,114.4819,114.7106,114.5406,114.6086,113.6965,113.674,111.4077,108.9613,106.8733,104.217,103.3328,101.6379,101.6191,99.93815,100.7259,100.0143,101.6327,102.0231,102.7092,103.9087,104.6715,107.0586,107.3043,108.7318,109.5666,109.7175,109.0311,109.0942,109.457,107.3792,106.8323,105.1112,103.2063,101.964,99.90908,99.06498,95.72848,94.33361,90.55312,88.49936,84.30272,81.72172,77.8872,74.0243,70.77076,66.03839,62.71644,57.98034,54.36656,48.26608,45.93133,39.29689,35.86815,29.48454,25.30417,19.43156,15.22429,9.46194,3.982713,-1.247544,-5.870418,-12.57765,-17.0698,-22.98675,-27.56887,-32.29032,-36.93614,-41.47057,-46.06821,-51.62722,-54.7502,-60.06778,-62.58365,-67.47703,-70.06186,-75.17069,-77.28674,-80.72326,-82.08912,-85.07464,-86.27452,-88.58202,-88.97767,-90.81858,-91.61706,-91.95208,-92.53189,-93.55528,-93.67141,-94.29251,-93.96274,-94.26843,-94.13709,-94.29557,-93.7557,-91.1774,-91.34025,-88.40068,-86.32891,-84.47512,-82.77008,-79.20688,-77.23719,-75.51836,-72.662,-70.89192,-69.10198,-67.12946,-65.02118,-64.8507,-61.45874,-61.06951,-58.98933,-58.3503,-55.10253,-55.11312,-54.24555,-53.23775,-51.85955,-51.50667,-48.92139,-49.04044,-47.54466,-47.82172,-46.20941,-46.5462,-44.65068,-44.87142,-43.45535,-42.81919,-41.17567,-39.99157,-38.41175,-37.94074,-37.35954,-37.05715,-35.92913,-35.99593,-35.79946,-36.23972,-35.3139,-35.04289,-34.51745,-34.67253,-33.41444,-32.77139,-31.42009,-30.44152,-29.01521,-28.11017,-27.58936,-26.45312,-25.66012,-24.88825,-25.05453,-23.73922,-23.4323,-21.42575,-21.25978,-20.47803,-17.49652,-17.60764,-14.13822,-14.35706,-10.90732,-10.61377,-8.566327,-7.838676,-6.947373,-5.609821,-5.804451,-4.055952,-2.80597,0.06841943,-0.7761091,1.587795,2.383378,4.59049,5.172141,6.920821,9.715063,9.202655,11.51401,10.88015,11.35342,11.64657,13.04358,14.20593,15.2162,15.9846,16.05243,17.52022,18.2829,18.96991,19.62983,21.01202,21.19674,21.00071,22.09719,20.81399,20.9945,19.39169,20.67387,19.14961,22.28663,20.50989,21.77558,22.41679,23.17225,22.24689,23.45333,24.69285,24.21849,23.59513,24.54849,22.70041,22.68252,21.80693,22.00152,22.13,23.73755,23.15858,25.87435,25.9858,29.09356,26.47959,29.21664,28.85582,27.84486,28.48134,27.28705,26.74469,25.47048,25.82388,24.87828,25.61015,25.29043,25.87651,26.85995,27.69274,28.00298,27.77324,29.17132,27.55851,26.78476,26.34823,24.65685,23.66234,22.7333,22.54315,21.38792,22.24978,21.07397,22.2594,23.46602,23.07021,24.06113,23.83575,25.47986,23.29097,23.62307,22.96995,22.04988,21.44544,20.24832,21.03156,18.82406,21.32502,18.82151,21.3243,20.24748,21.0893,20.20952,21.65743,20.98423,19.54019,18.01017,17.76535,15.45608,14.43124,12.41395,11.07539,10.31648,9.598221,7.354558,8.433085,6.408287,6.53506,4.769866,4.867935,2.557091,-1.14103,-1.86361,-5.357369,-7.136865,-10.72981,-12.28712,-15.21522,-15.49717,-18.73841,-19.77921,-21.15002,-22.35836,-22.8006,-24.52827,-24.79958,-27.8248,-29.35544,-30.61967,-33.60676,-35.11382,-37.53713,-37.5148,-39.48709,-36.7133,-40.21719,-38.30205,-39.64367,-38.75039,-39.8029,-39.64274,-40.2268,-41.76522,-43.44349,-43.49378,-46.14124,-47.05606,-48.93984,-47.69101,-49.18594,-48.74232,-49.93805,-48.2998,-49.18344,-47.80449,-48.27315,-47.55477,-47.6332,-48.83482,-47.38432,-49.6459,-47.69305,-48.64405,-46.29279,-46.82376,-45.18788,-45.68463,-43.40792,-43.13854,-41.65363,-42.49038,-41.60037,-41.04516,-43.18147,-42.14756,-43.75796,-43.35783,-43.64231,-43.12068,-42.61069,-41.6042,-40.87569,-40.64422,-38.80775,-37.99111,-37.63527,-36.22705,-35.40809,-34.1724,-33.90169,-32.17739,-31.7154,-30.23754,-28.96315,-26.12004,-25.3724,-22.55776,-20.18766,-18.0723,-14.80766,-12.97285,-10.58577,-8.574901,-6.614418,-4.5189,-3.353255,-0.7703043,1.139436,2.864044,5.726996,8.225245,10.79775,15.0514,16.56172,20.93872,22.79113,25.69094,28.0241,30.28533,32.38466,33.27299,34.42235,36.4477,36.96137,38.67912,38.81858,41.42159,41.43874,44.08326,43.70566,46.72729,46.12481,48.12488,48.02071,48.68785,49.10899,48.00119,48.34649,48.06125,47.73102,48.31703,48.27697,48.96277,49.21606,50.21002,48.77623,48.8716,47.8443,47.61763,46.80601,45.36261,44.8154,41.66343,41.17053,39.0994,37.87282,35.78102,34.80448,34.00948,31.87411,32.18037,29.40483,30.30521,27.54253,28.48159,26.22812,26.01555,24.00427,23.45385,22.53594,22.62947,22.02648,22.1004,21.24775,21.79784,21.48234,21.66177,22.03478,21.18042,22.39353,21.776,22.4931,22.27514,21.61974,22.70932,22.04737,22.55573,22.60571,23.27953,23.53549,24.06197,23.49723,24.16463,24.21592,24.53471,25.16136,25.68875,25.74044,25.80269,26.28798,26.15279,26.04123,25.75188,25.67318,25.43489,24.29429,24.64374,23.13042,22.69486,21.88238,20.49652,19.55326,18.26036,17.16745,16.90553,15.26386,15.16347,13.22038,12.62711,11.64798,10.67211,9.628547,8.715445,7.157864,6.391222,5.125511,4.671378,3.342542,2.541978,1.814414,0.906265,-0.02681105,-0.9305729,-1.803301,-2.371191,-3.078449,-3.600962,-4.565178,-5.261224,-5.262625,-5.415152,-6.777443,-6.287463,-7.266605,-7.660312,-7.541756,-8.565291,-8.510429,-8.793418,-9.307834,-9.439979,-10.61656,-11.23636,-12.26536,-12.69701,-12.42486,-12.58113,-12.59035,-12.28953,-11.44876,-10.60819,-9.292486,-8.426468,-6.801524,-4.970596,-3.506739,-1.485659,0.04087346,2.060413,3.544264,6.003853,7.084688,9.509409,10.21027,12.83468,13.75664,16.12429,16.73571,18.99153,18.91513,21.29387,21.45319,22.96579,23.15612,23.85274,24.15643,23.77203,24.25563,23.25995,23.58921,22.00912,21.92802,20.44689,19.42803,17.74077,16.96779,14.92908,14.39005,11.18504,10.50602,7.344087,6.388488,2.801728,1.548326,-1.823772,-2.971369,-6.63935,-8.724122,-12.31392,-14.13038,-17.63264,-19.73771,-22.98786,-25.42397,-28.79056,-30.85642,-34.17355,-36.34018,-40.239,-41.79172,-45.81462,-47.05015,-51.30044,-52.53152,-56.2463,-57.37759,-60.11185,-62.04391,-64.11326,-65.83435,-67.68563,-68.77849,-70.27641,-71.58329,-72.23611,-73.02829,-73.01803,-74.02248,-73.98514,-74.74222,-74.38184,-74.28082,-73.1923,-71.90278,-70.95826,-69.73389,-67.96057,-66.00357,-64.56556,-62.98771,-63.50237,-62.08212,-62.30058,-62.7007,-63.01467,-62.82215,-64.00123,-64.40949,-65.44358,-66.58519,-67.67803,-68.38278,-68.61796,-69.85559,-70.12253,-70.76092,-70.9984,-71.4787,-71.56981,-71.36991,-71.06982,-70.59808,-70.5772,-69.65466,-69.14113,-68.33311,-66.75802,-65.36158,-63.78279,-61.87812,-59.67451,-57.14785,-55.56585,-52.44127,-50.62903,-47.29105,-45.15842,-42.01291,-39.22893,-35.64366,-33.07295,-27.71599,-25.47813,-20.95477,-18.88627,-14.65782,-12.0513,-7.964404,-5.130974,-2.00269,1.800082,5.434427,9.382176,12.97827,17.08144,21.27912,24.97251,29.41966,32.29916,36.23724,39.38139,43.2871,46.26926,50.0707,52.64141,56.41386,58.93232,62.02716,63.94544,66.44616,67.49061,70.33396,70.9171,73.22912,73.00656,74.72891,73.81578,75.19763,73.89722,75.02227,73.30466,73.85647,71.88695,72.34145,69.9189,69.84244,68.302,67.28974,66.02836,64.23392,63.12947,61.70077,60.22432,58.59037,57.49101,55.08284,54.73135,52.59313,52.29731,51.08735,50.39121,50.4793,50.46872,50.65223,49.68475,49.76419,49.36209,49.35455,47.65429,46.63048,45.1456,45.69034,43.67788,44.4092,43.18005,43.61462,42.98611,43.53063,44.26961,43.99347,44.86548,45.15607,45.44138,44.88647,45.9785,45.18887,46.95296,46.39879,47.29494,47.47646,48.03508,48.28253,48.72523,49.84849,49.32178,50.81454,50.71704,52.20478,51.91926,53.0319,52.23163,52.8698,52.37594,53.65685,52.31583,53.65188,52.24058,53.6844,52.45906,53.18246,51.24824,52.52681,49.48477,49.98807,47.48172,46.97215,45.11247,44.63066,42.97295,41.78237,40.89495,39.11667,38.70621,36.65615,35.68346,32.73875,31.86394,29.55558,28.47186,25.99471,25.33919,22.56787,21.71365,19.4496,18.2413,16.47469,14.50851,12.74124,10.79548,8.603274,6.170334,4.735905,2.19878,0.6895554,-1.576857,-3.658231,-5.460358,-6.930305,-8.206811,-8.943248,-10.0255,-10.16635,-10.28752,-9.749196,-9.677786,-9.384375,-8.408916,-7.932525,-6.507518,-6.498477,-5.597144,-4.749213,-3.910793,-2.801332,-2.151973,-1.439251,-0.06305117,0.2253862,1.531448,1.639045,1.332212,2.902104,2.61009,3.630397,2.195225,2.203204,1.306915,1.841405,0.6027799,-0.2799235,-1.724497,-2.33355,-3.810675,-4.258475,-7.383918,-8.2994,-11.01103,-11.39661,-14.004,-16.05618,-19.01831,-21.21029,-23.37265,-25.77288,-28.61731,-32.36233,-34.14698,-37.4674,-39.49983,-42.92579,-46.86458,-49.56576,-52.3969,-55.17297,-58.63867,-61.83627,-65.13055,-67.30491,-70.29998,-73.08697,-76.25892,-78.3871,-79.66547,-82.07938,-83.97458,-86.22044,-88.18746,-88.73771,-90.01182,-90.97357,-92.58322,-92.91766,-93.07443,-92.67887,-93.10245,-93.09206,-93.15897,-91.57611,-91.15902,-90.12361,-89.26074,-88.71105,-86.74405,-84.54303,-84.04449,-82.2688,-80.11428,-78.53046,-75.02462,-74.68885,-71.50927,-70.91676,-67.61514,-64.32453,-61.67518,-60.32233,-58.22613,-56.86021,-55.05452,-54.48432,-55.33101,-54.91119,-56.56281,-55.35758,-57.00054,-58.00071,-59.45388,-59.97739,-60.49916,-60.09856,-61.73471,-61.62617,-62.35682,-61.64685,-61.73292,-62.07497,-61.71637,-60.78036,-59.2072,-58.39998,-57.09686,-55.81186,-53.60953,-50.97987,-48.06583,-46.46218,-43.67013,-41.16762,-37.43434,-34.84388,-31.68584,-28.28308,-24.95711,-20.34956,-17.07905,-13.0622,-9.132111,-4.536809,-0.8074959,3.390738,7.77854,11.50888,16.49753,19.84792,25.26119,29.03697,34.12747,38.40038,42.78552,47.01394,51.36811,55.10127,59.12317,62.43777,66.43055,68.73859,72.67713,75.56689,78.92478,81.94818,84.75032,88.29981,90.62731,93.3899,96.46371,97.98579,100.2556,100.9169,103.609,103.2228,105.0092,103.7797,105.6113,103.9149,105.4315,103.1175,103.4491,101.9119,101.6691,100.5442,99.51455,96.50289,95.46845,92.51926,91.35628,87.26927,84.94847,82.16473,80.41181,77.0087,75.45394,71.19484,70.24573,66.73134,65.17278,61.58614,60.06456,56.69978,56.55622,52.95525,52.83739,49.72003,50.65326,48.84849,48.60008,45.4436,45.46377,41.97819,41.9402,38.76425,35.31399,33.57221,29.76132,28.5144,23.86564,21.93626,17.14271,16.15814,12.61967,11.30342,7.44817,6.134464,2.414277,2.637368,-1.073293,-2.48189,-5.361126,-6.655403,-9.333897,-11.11392,-13.79427,-15.67283,-17.10046,-19.17051,-19.52335,-22.62021,-22.54671,-25.51545,-25.01816,-27.353,-27.6678,-30.12956,-30.62661,-32.4967,-34.11971,-35.78517,-37.60538,-38.49888,-40.19113,-40.28696,-41.7956,-42.62544,-43.22239,-43.90078,-43.33153,-45.78997,-45.52711,-48.28848,-48.38029,-50.58215,-51.4245,-54.35235,-54.70301,-56.77083,-56.4112,-58.20399,-57.50967,-59.18318,-58.38238,-58.54653,-58.69315,-60.43638,-60.74598,-61.8026,-62.68005,-64.92269,-67.22207,-68.48238,-69.32197,-71.19626,-72.01771,-74.04437,-74.18834,-76.33968,-76.14286,-79.34539,-80.00357,-81.01937,-82.40776,-84.05096,-86.87704,-89.68672,-90.8502,-93.13185,-93.73381,-96.57117,-96.81406,-97.20651,-96.90614,-96.20371,-97.13719,-98.13354,-98.20541,-99.74671,-100.1599,-102.6219,-102.563,-104.4504,-104.5661,-106.0853,-106.1158,-106.3219,-105.7661,-106.2946,-104.6215,-104.7811,-103.073,-102.4832,-100.3724,-98.70617,-97.43715,-94.03047,-92.8095,-88.65442,-86.31416,-80.73398,-77.87681,-71.85175,-67.94337,-62.1295,-56.33525,-51.74408,-45.39904,-39.46995,-34.03309,-27.35492,-21.47282,-15.108,-8.533459,-1.551232,5.238397,12.28745,19.34422,26.35879,34.56011,40.79111,48.18552,54.16614,61.41036,67.18247,73.48852,79.38117,84.8929,91.22675,96.27152,102.6346,107.2509,113.4944,117.4444,123.5376,126.7382,132.0777,134.4073,139.4474,141.0542,144.6735,146.3295,149.0306,150.4813,153.0248,154.5681,156.8892,158.2545,159.7995,161.1559,162.2316,162.501,162.9883,163.2862,163.3085,163.0394,161.7998,161.6609,159.8779,159.4949,158.2593,157.7265,156.4254,154.7499,152.7681,150.1769,147.9683,144.7388,141.9395,139.9458,136.683,135.9546,133.989,132.5062,131.3324,131.2798,130.6919,131.4557,131.5136,131.4961,132.4841,132.4388,133.1525,131.9237,131.7635,128.2953,128.001,124.8714,123.0408,120.0852,118.418,114.5694,112.6525,107.9053,106.1917,101.4528,99.60897,93.89656,91.40583,86.36123,82.73943,77.36309,73.97784,68.2516,64.95642,59.15213,55.16977,49.28705,45.00892,38.93702,35.46338,28.63192,25.11635,18.52151,14.66162,9.32061,4.183969,-0.6761337,-5.854243,-10.93679,-15.12126,-19.95622,-23.31465,-28.75103,-32.14076,-37.47268,-40.90092,-45.80379,-49.54585,-54.2765,-57.90333,-62.2118,-66.4035,-70.48134,-73.69589,-77.26244,-79.3804,-83.74146,-85.33059,-88.3878,-89.2945,-92.23487,-93.39891,-96.21891,-96.67923,-99.00353,-99.3205,-101.874,-101.5928,-103.4386,-103.2033,-102.983,-103.2573,-103.001,-102.5876,-101.384,-100.8338,-100.4754,-99.64474,-100.036,-97.67109,-97.96364,-96.03273,-96.02884,-94.09997,-93.04576,-91.16059,-89.43172,-88.46571,-85.82896,-85.21265,-82.84863,-83.90077,-81.4965,-83.07401,-80.17336,-80.88564,-78.46603,-78.31633,-75.44729,-74.37435,-69.60256,-68.57125,-64.44987,-63.36113,-58.81302,-57.46956,-53.78895,-52.52688,-50.17226,-47.60092,-46.50618,-44.19397,-43.13058,-41.00858,-38.95882,-36.79451,-35.53598,-33.6112,-32.21147,-30.62994,-29.03708,-27.27187,-26.6541,-25.10587,-24.37808,-23.26495,-24.0921,-24.02252,-25.29147,-24.04587,-24.90475,-23.79209,-25.98543,-24.91407,-25.91261,-25.36046,-26.64573,-26.81364,-28.19363,-27.66935,-29.42952,-28.41907,-31.33118,-30.24722,-31.7179,-30.61947,-32.0604,-30.38355,-31.60887,-28.61032,-29.5603,-27.58127,-30.38186,-28.23848,-29.98093,-28.6933,-30.00148,-29.75997,-31.13709,-29.20976,-30.5887,-29.29159,-29.37624,-27.76059,-27.24701,-25.27473,-25.53837,-23.32066,-23.13418,-21.85797,-21.33696,-20.2907,-20.1979,-19.35279,-17.75179,-17.25619,-15.08856,-14.60504,-12.31647,-11.20486,-8.608319,-8.437895,-6.519382,-6.549444,-4.871865,-5.276722,-5.000149,-5.058843,-5.372953,-3.072637,-4.328572,-1.311989,-1.873415,0.5993349,1.068211,4.210674,4.126171,5.724194,5.793553,6.78121,7.103079,7.291941,7.346208,6.543945,7.043639,7.561347,8.48131,8.748622,8.557687,10.58244,10.46049,10.34455,9.170334,9.596452,8.028868,8.076002,6.456367,4.978249,2.723038,1.176019,-0.9712017,-1.630118,-4.777343,-5.343821,-7.601927,-9.482467,-11.4404,-13.62397,-15.65127,-18.03681,-18.62228,-21.35029,-22.75793,-25.37751,-26.95634,-29.56886,-31.17818,-32.9844,-34.05875,-34.08364,-35.98,-35.08237,-37.45241,-35.99871,-37.90408,-36.18124,-37.65428,-35.69563,-36.23959,-34.32513,-33.68836,-30.77085,-30.7136,-27.39673,-25.63457,-21.76904,-19.67371,-15.22667,-12.81543,-8.88968,-5.91434,-2.125659,0.8644751,5.2961,8.571235,12.77319,17.27486,20.87273,25.42079,29.52878,33.91706,38.78417,43.08656,47.63439,51.2328,55.88947,59.00667,63.71314,65.95849,70.7811,72.8631,77.74233,80.06231,84.41752,87.45438,89.91158,94.23788,96.04608,99.4466,100.5251,103.2583,104.3162,105.7507,106.6928,106.5717,107.8334,108.0561,109.2728,108.9096,109.6207,108.8906,109.9831,107.9071,108.714,106.3125,106.1567,102.5585,101.7513,98.44981,98.44926,96.0317,96.92808,94.74481,96.64303,94.87129,98.26746,95.79843,98.47319,95.80091,98.31129,95.26119,97.05196,94.97208,96.25646,93.28925,94.30511,91.67914,91.50182,88.95784,87.59992,85.30312,83.5383,81.23199,78.7813,75.66211,72.38299,69.21317,66.38838,63.08743,59.79476,56.62597,52.63286,49.50703,44.82632,40.35062,36.29489,31.36187,28.2307,21.85347,18.77818,11.94743,9.657931,3.122756,0.9784669,-4.146503,-7.050051,-12.8395,-16.23187,-22.88948,-27.45244,-34.56664,-40.39227,-46.94556,-52.87353,-59.06187,-64.58741,-69.93906,-74.93115,-79.3831,-85.07567,-88.46861,-93.44958,-95.26653,-99.73414,-101.4128,-104.7234,-106.5223,-109.6836,-111.0015,-113.9725,-114.2193,-116.8957,-116.0643,-117.4211,-116.7822,-117.5925,-116.2019,-115.9033,-113.6612,-112.6213,-108.775,-108.1275,-103.3306,-102.4163,-98.13537,-96.43333,-91.73705,-89.58724,-84.4239,-81.48652,-76.17925,-73.47428,-67.33574,-64.2595,-59.03849,-54.76442,-51.03428,-46.52492,-43.62097,-40.58837,-37.87267,-35.14399,-33.43582,-29.99457,-30.03242,-27.34046,-26.45447,-23.4042,-22.1741,-18.49891,-17.42629,-14.61406,-13.87776,-10.18308,-11.70857,-8.830781,-10.68669,-7.8122,-9.623205,-7.345804,-7.595535,-5.688633,-6.002947,-4.988832,-5.662434,-4.795926,-6.297324,-5.817646,-7.410053,-7.676806,-9.982586,-10.75107,-12.67275,-13.99698,-15.60934,-15.97937,-16.59209,-16.13248,-17.30205,-17.08284,-18.35989,-18.78979,-19.34118,-20.28835,-20.39223,-20.65013,-20.8311,-20.4851,-20.34813,-18.75913,-18.47629,-15.7331,-15.08555,-11.72487,-11.15981,-9.94612,-10.49045,-10.31138,-10.17226,-11.38642,-11.79129,-11.90437,-10.95328,-11.42656,-9.955581,-9.33325,-7.557894,-6.467815,-3.930835,-3.260924,-0.1571972,0.7521068,3.96359,4.571865,7.008774,6.805514,7.803297,8.583103,10.34002,11.66797,13.2614,15.26493,18.21161,19.95374,21.4702,22.46578,24.55758,26.70129,28.60091,29.78993,32.11956,30.92961,34.92013,34.08005,38.01987,36.71666,41.83344,42.08806,47.14228,46.85335,52.02954,50.22368,56.07394,54.17113,58.26306,56.26834,58.45944,57.79873,59.26131,58.44117,59.77669,59.56772,60.75528,61.30388,61.00797,61.617,60.00531,60.50333,59.04655,58.77403,55.43207,54.27999,51.35032,50.12663,46.19239,45.22797,42.22513,41.65999,39.14547,38.42173,36.38397,33.33907,31.29563,28.35921,26.10991,22.05732,18.81581,15.70139,12.3789,9.400179,5.066142,3.107139,1.168476,-0.2136559,-2.024764,-2.603215,-6.691712,-7.322746,-11.02156,-12.42487,-16.30411,-18.46034,-20.27195,-22.68219,-24.04928,-27.56522,-29.10824,-31.69008,-32.18957,-34.37701,-34.99328,-36.86394,-37.03467,-37.98067,-38.96351,-41.03718,-43.03951,-43.51524,-43.61484,-45.11251,-44.80256,-45.54411,-44.94017,-44.96366,-44.00975,-43.91956,-43.4997,-42.81914,-41.31617,-40.87255,-40.28638,-40.35684,-38.67649,-39.02361,-37.66441,-38.40297,-36.67515,-36.41036,-33.23184,-31.65943,-29.93386,-28.32174,-27.51392,-27.18553,-27.40136,-27.61556,-27.99857,-27.99195,-29.31108,-28.9435,-30.52573,-31.25098,-31.50038,-31.2286,-31.88886,-31.9713,-31.933,-32.51471,-32.25774,-32.37014,-32.5057,-34.73295,-32.52964,-34.53905,-32.53124,-33.80379,-31.73742,-32.33882,-29.5746,-29.68113,-27.51105,-27.37984,-26.07359,-25.62336,-24.35065,-23.4245,-23.64716,-21.06255,-20.66336,-17.92774,-17.32422,-13.91444,-12.35439,-8.090325,-6.007283,-2.089187,0.350311,3.711003,7.06699,10.3246,12.97553,14.92009,17.56216,20.25674,24.27457,26.81938,30.52127,33.29701,36.50592,40.1402,42.24827,45.91099,47.71954,50.36946,51.61302,53.40939,53.34486,56.25877,55.46599,58.34694,58.32831,58.09566,58.17299,56.58702,56.46185,54.95386,54.09302,52.59473,52.03513,50.95815,49.22093,47.48651,45.57488,43.76477,41.69883,39.21361,37.24475,34.7832,32.89731,30.13352,27.84967,25.29116,22.56297,19.76431,17.71454,14.79048,12.46435,10.01456,8.140327,6.199359,4.175752,2.578304,0.6254506,-0.7984604,-1.119132,-2.227671,-1.981572,-2.74721,-0.8610929,-2.330409,-1.510684,-3.330921,-3.168861,-4.977746,-4.17468,-5.756816,-5.177658,-6.671453,-5.916154,-6.845585,-5.754319,-7.033395,-5.865829,-6.272454,-5.784009,-5.557886,-5.727663,-5.136075,-5.197259,-3.993269,-4.731339,-3.375164,-3.736423,-3.429631,-2.923934,-2.623999,-2.889538,-2.551913,-2.705281,-2.736512,-3.605924,-3.647415,-5.001827,-4.366601,-5.437729,-4.979923,-6.637422,-5.41114,-7.076891,-5.62807,-7.012509,-5.821414,-7.02889,-6.288762,-6.17645,-6.067744,-6.037221,-6.037119,-6.073913,-6.475553,-5.695386,-6.75414,-6.16911,-5.484093,-4.662842,-4.610172,-4.886293,-4.847225,-5.039388,-4.271617,-5.172059,-3.780511,-5.323368,-4.000059,-4.946449,-3.514015,-4.219538,-4.19722,-4.906515,-4.553794,-5.593288,-7.309943,-6.715833,-8.403567,-7.117491,-8.588393,-8.159126,-8.938611,-9.18161,-9.266169,-10.40349,-10.57663,-11.69423,-11.26969,-12.42281,-11.39467,-12.31432,-11.58328,-12.4821,-11.08122,-12.21226,-10.94328,-11.425,-11.03024,-10.42609,-10.15654,-10.51705,-9.910634,-9.797973,-9.072059,-8.756814,-8.145954,-7.942136,-7.167119,-6.531195,-5.806689,-5.198984,-4.968399,-3.135997,-3.739423,-1.465916,-2.199918,-0.7228143,-0.8847957,0.4666823,0.6866622,1.751389,1.779788,2.897377,2.642042,4.449891,3.406001,4.716964,4.176851,4.706842,4.592139,4.69366,4.396087,4.350055,4.209887,4.083045,4.186452,3.423924,3.225732,3.69285,3.137086,3.559538,3.057967,2.83705,2.031331,2.686852,1.993872,1.878334,1.64429,0.6388694,1.212887,0.5247578,0.9803429,-0.314765,0.9156527,0.007706358,0.9945067,0.2043497,1.213604,0.4854022,0.8299534,0.6368673,1.25302,0.2497637,1.187525,1.336043,1.489091,2.237537,2.815598,3.828071,4.891817,6.14755,7.197776,8.493805,9.598642,11.71254,13.8854,14.86266,17.51494,18.52593,21.30189,22.65407,25.16347,26.9736,29.22613,31.15783,33.21844,35.12405,36.76605,38.61537,40.33576,42.42341,43.29022,44.73522,45.76943,46.46756,48.51235,48.47202,50.30801,49.99363,51.75446,51.11629,52.71663,50.92168,52.82412,50.13056,52.3423,49.65607,50.12325,47.99629,47.65391,44.71295,45.45239,41.63045,41.44886,38.40685,36.68023,35.64066,32.77069,31.18222,28.12368,26.56907,23.04685,20.96878,16.32149,14.53733,9.994295,7.410498,3.0249,-0.6893286,-5.369538,-8.263535,-13.55486,-16.89259,-22.29649,-25.21781,-30.72603,-33.68358,-39.2191,-42.99857,-48.36486,-51.75485,-56.73025,-60.71328,-64.56457,-68.99815,-72.44957,-76.50152,-80.51546,-84.32096,-87.90049,-90.85189,-93.93262,-97.17177,-99.71203,-102.064,-104.5593,-105.9221,-108.7408,-109.3768,-111.19,-111.6869,-112.4389,-113.6328,-113.416,-114.1728,-113.5597,-113.7966,-112.8802,-113.0848,-111.3659,-110.8483,-108.38,-107.6025,-104.9445,-103.1196,-99.98478,-97.24263,-94.08812,-90.76472,-87.454,-83.29951,-79.54311,-74.74574,-70.28859,-65.29615,-60.04499,-54.9737,-49.37138,-43.8502,-37.28227,-31.76798,-24.66787,-19.02218,-11.95413,-6.253583,1.002523,7.387081,14.46992,20.50793,27.66218,33.69817,40.86696,46.55515,53.13947,58.36745,65.4924,69.96755,76.92671,80.64705,86.86364,91.22245,96.48121,100.9003,105.6156,109.2548,114.0623,117.109,121.4837,123.5953,127.4678,128.9392,133.0375,133.3875,136.3167,137.0379,139.4112,140.8808,140.0104,141.7378,140.1969,141.1618,139.9354,139.0396,137.9591,136.5636,134.8752,133.0891,130.971,128.6953,126.2765,125.4479,122.1831,121.0676,117.8331,116.2352,112.868,111.3385,107.2723,105.1606,101.1189,98.8862,96.10531,93.13858,90.93335,86.88585,85.96223,82.26116,81.17072,77.69724,76.67822,73.25686,72.45699,69.69156,69.1891,66.19369,66.2688,63.92989,63.75167,62.04544,61.1714,59.94509,59.4447,57.55995,57.58356,55.61162,55.75328,53.82145,53.85906,51.85447,51.62677,49.76483,49.59236,48.27948,46.43014,45.49363,43.69635,42.14283,40.47527,38.46853,36.26904,34.39591,32.09942,29.97952,27.05944,24.2459,21.62512,18.59191,15.95443,12.53795,9.817088,5.528586,3.335389,-0.829806,-4.158331,-8.725936,-11.69819,-16.58914,-19.1067,-24.53384,-26.77524,-32.50598,-34.81235,-40.27266,-42.53437,-48.06225,-49.63759,-55.24891,-56.78544,-62.05424,-63.94395,-67.87663,-69.97821,-72.79623,-75.3547,-77.6731,-80.25783,-81.83054,-84.18854,-86.13121,-88.35034,-90.28782,-91.67195,-93.63077,-95.01004,-96.46433,-98.53699,-99.48481,-101.3112,-101.8104,-104.0769,-104.1331,-106.0683,-106.6634,-107.2935,-108.483,-109.5338,-110.0047,-111.4153,-108.9299,-110.2584,-107.4358,-109.8089,-108.4955,-110.4575,-110.6557,-112.4016,-113.2132,-115.4256,-116.43,-117.9149,-119.7747,-120.6731,-122.6357,-123.5098,-126.0134,-125.9697,-129.2905,-128.6061,-132.336,-131.2584,-134.6267,-133.1402,-135.8683,-134.8824,-137.8127,-136.4187,-138.058,-136.4653,-137.6323,-135.4451,-136.4701,-133.5952,-133.8428,-130.6807,-130.463,-127.2812,-126.3558,-122.8461,-121.2118,-117.5301,-115.6297,-111.6209,-109.1375,-105.6113,-102.0481,-98.40775,-94.29965,-90.22839,-86.36139,-82.2473,-78.2857,-73.75786,-70.15632,-65.44673,-61.53827,-57.60302,-53.31811,-49.91371,-44.67049,-41.5404,-36.18071,-33.23475,-27.83682,-25.93356,-20.75101,-18.76121,-14.5488,-11.96011,-9.341229,-6.169293,-4.529298,-0.9150425,1.520888,4.720116,6.795248,9.144006,11.33977,13.40097,15.85337,17.54622,19.61319,20.06725,22.37754,22.49794,24.66345,23.76984,25.47285,25.98787,26.92364,27.0496,28.03424,28.28157,28.62876,29.01718,29.23078,28.26833,28.67107,27.41507,27.71635,26.77422,26.3696,25.52138,26.63575,25.7249,27.04954,26.74297,28.90599,29.46433,33.55437,31.76243,33.95069,32.55992,34.03955,33.00159,33.86306,33.05773,33.67461,33.49051,34.34879,34.65921,34.05352,35.27502,35.19981,36.25291,35.46053,35.82142,34.90417,35.26911,33.64527,34.00875,31.67137,32.32641,30.06389,31.12288,29.20574,31.3535,29.39447,30.75678,29.91372,30.57366,28.84859,29.83612,28.1633,28.11191,26.75855,26.28869,25.31702,25.76597,24.02532,25.26419,23.71474,24.44145,23.58569,25.131,24.17548,24.90405,24.11693,24.67886,24.03329,24.60123,23.41307,24.82448,23.54441,25.66794,25.75044,27.27298,28.25678,29.8921,32.40444,33.73658,34.87959,35.71118,37.18917,37.18304,38.94778,38.16134,40.56171,40.03271,43.35666,44.33978,47.55663,49.54491,52.84563,55.18512,57.5209,59.6096,62.28882,63.58502,66.3735,67.21166,69.47191,71.00829,73.56055,75.80361,78.95812,81.01854,85.17493,87.57323,90.89027,93.31009,96.08785,97.72553,99.92093,101.1176,102.6608,101.765,104.0922,103.3104,105.885,105.8744,107.9028,108.5204,110.7525,110.7109,112.5566,111.7916,112.9577,112.0547,112.1834,110.8409,110.043,108.7133,108.01,106.5861,106.1917,105.4787,104.679,103.508,103.0469,101.6816,100.051,98.30209,95.9207,93.14902,90.03399,87.05905,83.67409,81.14725,77.52079,76.62371,73.27288,72.41659,69.05594,68.23409,64.89686,63.0238,58.99677,56.99332,52.67186,50.11275,45.03965,43.24007,37.93268,36.20259,32.69651,31.13024,27.77062,26.15559,22.56173,21.28188,17.36762,15.426,11.85658,8.682141,4.690517,0.2604072,-2.340407,-6.360944,-8.839538,-10.97844,-12.29911,-13.44483,-14.94685,-14.58609,-16.16501,-16.34101,-17.80601,-18.36784,-19.9749,-21.06555,-23.93283,-23.16351,-26.37571,-25.51543,-27.57404,-26.53884,-27.39627,-26.99824,-26.69931,-26.76608,-26.6335,-27.85671,-28.10147,-30.35647,-31.26455,-33.29682,-34.49418,-36.14384,-37.88675,-38.31764,-39.5389,-39.66166,-41.08526,-40.75225,-42.64651,-42.54062,-44.98905,-45.58204,-48.10955,-50.07241,-52.4327,-54.39855,-56.27653,-59.25235,-60.67071,-62.76545,-62.64549,-65.41139,-64.60215,-66.89752,-67.65392,-69.8228,-71.57207,-74.49009,-76.75727,-79.43686,-81.79471,-83.33532,-86.62247,-86.64714,-88.76853,-88.526,-89.68255,-89.85973,-90.19583,-91.09309,-91.28619,-92.41947,-93.63697,-93.69457,-95.61097,-95.13949,-97.26982,-96.57779,-96.37367,-95.02684,-94.25561,-92.86068,-91.67746,-88.94873,-87.9296,-86.49374,-85.89251,-84.90576,-83.8277,-83.74358,-81.14234,-82.26955,-79.24877,-79.20298,-72.82392,-73.28234,-68.75606,-67.90624,-64.28037,-62.95482,-61.16717,-59.88931,-59.16329,-58.771,-57.2097,-57.22573,-57.32743,-58.46565,-57.13054,-58.13703,-56.01023,-58.47215,-56.0988,-57.0321,-55.72565,-57.64282,-56.30651,-59.22099,-58.0466,-59.21621,-59.75109,-60.11448,-60.65698,-60.13702,-58.40707,-56.87414,-56.49611,-54.20467,-52.88972,-50.68485,-49.59578,-48.07458,-46.75517,-45.7789,-43.59098,-43.13016,-41.21186,-40.18675,-37.22601,-34.85814,-30.81868,-28.42409,-24.92475,-20.42765,-16.59762,-12.80445,-9.307093,-6.413824,-2.971803,1.427755,4.3868,8.415434,11.64067,15.9978,21.11446,26.37677,30.69956,34.62517,40.7417,46.55626,50.07376,54.37542,57.86313,60.4976,64.02914,66.28521,68.39626,70.37951,72.65771,75.72355,78.87223,81.01438,81.72059,85.33936,86.22926,87.37669,87.15384,87.61964,85.29296,85.77122,83.98369,81.27063,79.87202,77.77182,75.78531,75.15191,72.56674,70.81825,68.82989,66.93435,63.49875,60.25973,57.53057,52.53379,49.78257,44.74001,41.48219,36.91851,33.30279,29.99559,28.62359,24.81755,24.42454,21.24486,22.69847,16.20184,17.76769,12.30901,12.6862,9.082896,8.660589,6.583403,5.690075,4.321223,3.783034,2.944997,2.309658,1.560696,1.991115,1.326158,2.657714,0.7108894,1.520605,-0.244497,0.09904118,-0.9279483,-0.2631969,-2.490492,0.5422814,-1.7925,0.536332,0.9433947,1.473734,3.001658,4.409299,4.746391,5.782604,6.627052,5.862703,6.148289,5.59701,4.958291,5.76134,3.652364,5.790173,4.750713,6.550449,5.611034,6.389943,7.329189,7.702833,7.263075,7.962027,7.109256,7.037107,5.011022,5.336894,2.96973,4.192229,3.074269,4.003736,4.39961,5.06166,4.309157,6.497307,4.240337,6.062705,4.299208,6.069386,3.612431,3.262038,2.210411,1.595281,0.4790846,1.396922,0.6509466,1.948707,1.689341,3.185345,3.005399,3.899904,3.30074,4.180768,4.07275,3.933888,3.931629,4.671616,4.462013,4.439083,5.655303,6.218521,7.711287,9.631482,10.09837,12.81896,13.37695,15.35145,15.48947,17.82819,17.55095,18.2341,18.64559,19.47715,19.52016,20.81775,21.25191,21.76462,22.82005,22.39338,24.44439,24.20406,25.27738,24.20288,24.83189,23.53134,23.11713,21.63855,22.14419,19.87223,20.19403,18.19386,18.69998,16.25478,16.31833,14.35826,14.86793,13.35249,12.82522,11.82561,10.38845,8.727039,6.535786,4.861383,2.964489,1.128369,-0.5486676,-0.6867333,-2.739998,-3.210803,-6.581583,-6.476177,-9.389727,-10.91811,-12.71014,-15.59776,-16.9517,-18.71204,-22.07554,-24.18028,-27.27295,-28.7663,-31.652,-32.24449,-36.40013,-35.54748,-39.91471,-40.10236,-43.25749,-43.64631,-45.75478,-47.11285,-48.68551,-49.23733,-51.3059,-51.61228,-52.75207,-51.42383,-51.83266,-49.8873,-50.50837,-48.3531,-48.62419,-47.3196,-47.35047,-45.43532,-45.75031,-42.49903,-42.91575,-40.0104,-40.14487,-37.16525,-36.06586,-32.75348,-31.47389,-28.29519,-27.05973,-24.09072,-22.77246,-19.88584,-18.64441,-16.14629,-14.04553,-11.918,-9.861016,-7.69211,-4.915448,-2.817892,-0.7840317,1.523485,4.182582,6.037766,8.52344,10.42251,12.36341,13.72852,15.67813,16.80103,18.72854,19.68329,20.93311,21.41106,23.36095,23.85426,25.22073,25.25104,26.48945,26.63306,27.549,27.73881,27.93014,28.22572,27.80157,27.94962,27.43274,27.29611,26.89787,26.52995,26.70864,24.79753,25.69142,22.99921,24.43321,22.46175,23.25986,21.46171,22.08958,20.82749,21.0085,19.84273,19.6843,19.29605,20.0446,19.14296,20.89132,20.7069,22.47431,23.13436,23.26284,23.89388,24.76433,25.88119,26.78734,28.28786,29.56229,30.55216,32.88086,33.06065,34.90818,37.02692,36.9487,39.31185,39.26633,41.3943,41.16412,42.71087,42.35876,43.9914,44.14187,44.81189,45.02962,45.52958,45.56105,46.09582,46.20732,46.35389,46.55046,46.32107,46.5322,45.59889,45.19174,43.98428,43.62021,42.72024,43.29599,42.52042,44.90599,44.55102,47.69605,47.38669,50.17913,49.0733,52.28207,51.63826,53.80665,53.69475,56.27064,55.83373,57.63208,56.94862,58.76272,57.17061,60.33405,57.95612,60.95322,58.37736,59.20509,56.87558,56.89253,55.41703,55.77047,54.16258,54.4265,52.88414,52.36623,50.07538,49.84026,48.06137,46.36798,44.46844,42.07216,39.78074,37.61637,35.15288,31.85698,30.37192,27.2773,24.97988,22.18616,20.13352,16.03261,14.46892,10.61336,7.479298,4.825907,0.3298197,-2.209982,-6.622788,-9.068581,-14.16589,-15.62742,-21.8463,-22.88395,-28.08562,-29.98705,-34.28973,-37.00762,-42.04715,-44.27791,-49.60154,-51.43358,-56.2357,-58.01643,-62.28701,-63.94429,-68.45971,-70.01177,-73.45783,-74.68614,-76.60723,-77.53211,-79.28115,-80.30461,-81.87119,-82.54456,-83.70483,-84.25322,-85.22648,-84.3893,-86.13129,-85.92981,-86.87271,-87.03064,-87.75675,-87.54704,-87.47038,-87.34167,-87.36214,-88.12343,-88.59965,-89.88779,-90.49305,-92.20013,-92.38295,-94.14113,-94.64349,-97.61741,-98.2253,-100.6577,-101.3994,-103.5424,-103.7108,-105.4828,-105.6628,-106.1303,-106.6325,-106.7552,-108.4252,-108.515,-110.1663,-109.7447,-112.6744,-111.1879,-112.8954,-111.8167,-113.4912,-112.7833,-115.5133,-115.4232,-117.4299,-117.1853,-120.3812,-119.6956,-124.4293,-122.6427,-127.0392,-126.6784,-128.5021,-127.8342,-128.2717,-127.6391,-127.9995,-128.7962,-128.5806,-129.7979,-129.5019,-130.2454,-130.5291,-132.0397,-130.0023,-130.9391,-129.1545,-129.2161,-126.8481,-125.8908,-122.6481,-121.2969,-119.2357,-117.1188,-114.4521,-112.243,-109.0503,-107.1142,-103.4354,-100.1633,-97.89045,-93.62618,-90.65727,-85.52383,-81.42769,-74.28674,-70.60133,-62.6616,-57.43933,-50.07812,-43.91785,-37.62469,-31.41166,-23.99718,-17.72126,-9.759171,-2.928894,4.550714,11.44012,19.48951,26.34438,35.10193,41.43823,50.66459,57.00588,65.77197,71.38984,79.4556,85.34695,93.26217,99.32466,106.3223,112.0265,118.7753,124.5359,130.7939,135.4195,141.7531,145.9845,151.8483,155.3856,159.6326,162.1387,165.3317,168.091,170.8843,173.5857,175.4117,177.9134,179.5069,180.98,181.9887,183.6156,183.8869,185.134,184.9138,185.6702,183.6067,184.5104,182.2824,183.3176,180.6351,181.4565,178.9833,179.714,177.4896,176.9932,175.7423,174.4736,172.6152,170.9954,168.7892,166.3343,164.1107,162.2886,160.1524,158.5729,156.7915,154.6371,153.9193,151.8014,150.4072,149.1532,147.0162,145.839,142.9701,142.2377,137.9005,137.9293,133.9435,134.5706,130.9302,131.3005,128.4363,129.5866,127.0087,126.4913,122.1902,121.0075,117.1844,114.788,110.4322,105.4357,102.1507,98.40029,95.08921,90.22182,86.62169,81.9988,78.53112,75.48213,72.28363,69.63784,66.92678,65.49228,63.73338,60.42436,58.32662,56.05448,55.10932,52.56074,50.78369,48.73593,48.1345,48.24533,45.92722,46.4985,43.86071,45.57285,43.86296,44.8184,43.38218,43.83792,43.74021,43.94007,43.83776,42.78789,43.43179,42.6804,42.89491,44.30093,43.481,43.88255,42.99179,43.34851,41.45229,40.47882,38.16719,36.45542,33.63545,31.4543,27.78374,25.17298,21.39886,18.87881,14.12223,11.1435,5.652318,3.435907,-2.444855,-5.354728,-11.24506,-15.9348,-20.58065,-24.69843,-29.63925,-34.37842,-39.81411,-43.64195,-48.81332,-52.88994,-58.64993,-62.80831,-67.16185,-70.94919,-75.85922,-79.81993,-84.42602,-87.60306,-90.89058,-94.61226,-98.12832,-101.0932,-103.9237,-105.6521,-107.9148,-110.4092,-111.8454,-114.2283,-113.3057,-117.8961,-116.3393,-119.043,-118.1852,-120.312,-118.4173,-119.5792,-119.1021,-118.0437,-116.0998,-115.3261,-113.5791,-113.2312,-110.7784,-110.8715,-109.1408,-111.5413,-110.2062,-110.7386,-110.4054,-111.4472,-111.7068,-112.9277,-111.5514,-113.3031,-112.4926,-115.4938,-114.8346,-117.0886,-116.1145,-119.521,-119.9438,-123.4959,-124.2046,-127.7755,-129.6303,-134.5856,-135.9571,-139.6395,-141.485,-145.8846,-147.9438,-151.6036,-153.1454,-156.9947,-160.1539,-163.2108,-166.6739,-169.2689,-172.6343,-175.4296,-178.6971,-181.0343,-183.8104,-185.6493,-188.5963,-189.574,-191.379,-191.96,-192.6565,-192.3568,-195.5087,-195.3466,-197.4998,-197.2074,-199.2422,-199.867,-200.7545,-201.3002,-201.4179,-201.4958,-201.2993,-201.0127,-201.0146,-199.737,-199.9703,-197.9992,-197.6836,-195.045,-194.5881,-191.5675,-191.2097,-186.588,-184.7209,-180.8628,-179.1349,-174.1054,-171.0898,-165.3341,-162.3663,-157.1834,-152.1038,-146.2538,-139.8269,-134.8683,-128.8639,-121.6493,-114.6725,-107.0972,-101.0655,-92.98468,-86.51466,-76.90238,-67.52903,-58.37403,-49.32155,-40.63388,-30.97142,-23.25283,-13.94164,-9.099504,2.687562,8.001223,17.79282,22.32484,32.45437,36.10518,46.53224,52.06416,61.14141,65.57179,74.98067,79.75731,89.95234,93.77087,103.1058,106.8597,117.3685,121.4742,130.5881,134.1993,143.3627,147.9435,156.6843,160.1143,168.6523,172.3603,182.2488,185.2131,192.8569,195.5507,203.8164,206.5041,214.4102,216.2506,222.9231,225.5632,231.751,233.5684,237.9538,240.2144,243.4322,246.4146,248.2375,249.3599,250.7586,251.0166,252.5031,252.3459,252.807,251.7046,252.3145,250.8897,250.6467,247.6989,246.4673,244.7096,243.0183,241.1653,237.8147,235.5518,231.8023,230.0068,225.0776,221.9445,216.5751,214.244,209.2307,205.9521,200.568,196.1152,191.3727,186.4842,181.9978,175.9961,169.5068,163.6488,157.5224,151.1803,144.9711,138.9494,133.6047,129.4315,123.0834,119.0743,113.7563,110.7531,106.7884,103.0295,98.37086,95.78842,92.65586,90.59582,87.52819,84.26839,82.13945,80.16171,78.80692,76.2727,74.76894,73.55668,72.80008,73.62496,72.91438,70.20982,69.3364,66.91139,66.16487,63.02457,61.49546,57.34473,56.89561,53.22364,51.41327,46.09422,44.67936,39.86251,39.68969,34.35691,32.48632,26.85261,25.32028,20.60815,18.70871,13.00277,10.01802,5.653242,1.635005,-3.04059,-6.928361,-11.87267,-15.11018,-20.76575,-23.05509,-29.46188,-31.43293,-36.57783,-38.26684,-44.55915,-46.53743,-51.11577,-52.65026,-58.25356,-58.88475,-63.76125,-64.653,-68.4828,-70.04029,-73.64055,-74.34756,-76.19264,-77.388,-79.53299,-81.421,-82.94204,-83.52906,-85.12052,-85.98272,-87.58261,-87.84826,-88.20679,-88.03394,-89.7019,-89.5326,-89.94874,-88.38222,-87.43468,-87.89725,-86.80996,-86.08517,-84.2733,-84.44601,-83.38888,-83.38465,-80.69442,-80.40042,-77.63762,-78.5535,-77.45402,-76.93877,-75.68,-75.78642,-76.35812,-77.2223,-79.02389,-78.33092,-79.81201,-80.33114,-82.05249,-81.70981,-81.7639,-82.12183,-82.26296,-83.34089,-83.01333,-82.71341,-81.82801,-81.85783,-82.14007,-80.90641,-79.82765,-79.21046,-78.26732,-79.27976,-78.12392,-77.2963,-76.68479,-75.69629,-76.3112,-75.03595,-74.08066,-72.6738,-71.62312,-71.7046,-70.79733,-68.19129,-68.44304,-66.54141,-67.41283,-65.86433,-65.54322,-63.47251,-63.86115,-63.05177,-63.03489,-60.65595,-60.10515,-57.95271,-58.54264,-55.84541,-55.28733,-52.55993,-53.26708,-50.81998,-52.67465,-49.72153,-50.91645,-49.42494,-49.70277,-48.79169,-49.14938,-48.2487,-48.54009,-46.89366,-48.59257,-45.88043,-45.8185,-45.16666,-46.31044,-45.54888,-46.10451,-45.47319,-46.39948,-44.97765,-47.17308,-45.38644,-46.14004,-45.74073,-45.556,-45.17586,-44.237,-44.2262,-43.55311,-43.25102,-43.7105,-42.54454,-42.49672,-42.25698,-42.8255,-42.2447,-41.80682,-41.52295,-40.81578,-40.2211,-39.26797,-38.28122,-37.36299,-36.94699,-36.11481,-35.33878,-35.3608,-34.00294,-34.33952,-32.86143,-33.75037,-32.79834,-31.96791,-31.58778,-30.79057,-29.68405,-30.07212,-26.43372,-27.12249,-23.91391,-25.04432,-22.3477,-25.09287,-24.6453,-27.94651,-26.47987,-29.54664,-29.95856,-32.3997,-33.70128,-34.94431,-35.43943,-37.06978,-38.52323,-39.7845,-40.81873,-41.52226,-43.03038,-44.49384,-46.48451,-46.61986,-47.84811,-47.75358,-48.10964,-48.8884,-47.51659,-46.54531,-45.27361,-43.97341,-43.88521,-40.20933,-39.93227,-37.35903,-36.69609,-34.73307,-33.06103,-29.25433,-28.67189,-23.81188,-22.57194,-16.47726,-13.44749,-7.395718,-4.894743,1.980488,6.931287,12.44591,16.43558,21.61256,26.76233,31.59765,37.44444,41.40593,47.6737,52.56297,59.96075,65.91809,72.28744,77.43427,83.50427,89.82895,95.29999,100.6033,103.5485,109.2685,112.8031,117.6496,120.2001,123.8041,126.9245,130.7648,135.6756,137.9267,141.6391,144.5409,148.1305,151.3629,152.6141,154.9245,154.9626,156.8829,157.6514,158.1009,156.4166,157.8051,157.1296,159.2762,157.9799,158.9775,157.0984,159.0966,157.6029,159.0856,155.8392,155.5883,153.3704,153.0962,150.1844,148.1453,146.0065,145.0411,144.1815,143.3516,140.8408,141.0429,139.4194,141.4601,139.9942,137.7904,136.0863,133.0609,131.7058,127.0256,124.8046,120.3921,119.7344,114.5388,113.4256,108.4267,105.8168,102.4053,100.2436,95.69614,91.50603,86.79662,83.71592,79.68073,74.68596,70.61476,65.80102,62.4821,58.98632,55.74362,51.97623,48.26518,46.14406,43.07564,39.81999,36.27361,31.78926,29.60594,24.64155,22.38488,15.74433,13.97221,8.183966,6.766662,1.284476,-0.1514499,-5.760855,-6.206303,-10.92408,-12.54129,-16.97951,-18.20257,-23.52301,-25.50274,-30.51784,-32.64205,-38.11171,-38.76563,-43.90611,-44.07176,-48.27575,-49.41092,-53.46551,-55.02664,-59.20912,-60.6361,-65.14771,-66.53719,-71.62337,-73.63963,-78.54189,-81.56791,-85.94028,-88.48852,-92.0985,-93.98905,-97.64336,-98.86731,-101.5212,