ConstAcc,0.5,0.42138,-424.5003,-425.3934,-424.8572,-423.0539,-420.1377,-416.2543,-411.5415,-406.1293,-400.1401,-393.6886,-386.8825,-379.8223,-372.6015,-365.3067,-358.0183,-350.81,-343.7492,-336.8976,-330.3106,-324.0382,-318.1247,-312.6093,-307.5256,-302.9026,-298.7643,-295.1301,-292.015,-289.4295,-287.3801,-285.8696,-284.8966,-284.4565,-284.541,-285.1389,-286.2356,-287.8138,-289.8536,-292.3323,-295.2251,-298.5049,-302.1427,-306.1076,-310.3671,-314.8873,-319.6328,-324.5673,-329.6536,-334.8535,-340.1285,-345.4395,-350.7472,-356.0123,-361.1957,-366.2584,-371.1621,-375.869,-380.1135,-376.1022,-375.2692,-379.5461,-381.9279,-384.4359,-386.1579,-387.9218,-389.4177,-389.8005,-390.0035,-389.9159,-389.1071,-388.2768,-387.2844,-385.4486,-383.0646,-379.8128,-376.2458,-372.1952,-367.7605,-362.6077,-356.9061,-350.8763,-344.7413,-339.0811,-333.6304,-328.3697,-323.3337,-318.1359,-313.0577,-307.8031,-302.6414,-297.6308,-292.826,-288.4955,-284.4084,-280.823,-277.382,-274.3394,-271.8125,-269.6736,-268.1355,-267.2523,-266.8805,-266.8338,-266.966,-267.3125,-267.7824,-268.2754,-269.0948,-269.9554,-270.9214,-271.6989,-272.5912,-273.4455,-274.5119,-275.65,-276.8347,-277.8912,-278.7264,-279.4126,-279.6812,-279.6601,-279.4403,-279.079,-278.5512,-277.6322,-276.4117,-275.0082,-273.4628,-271.8516,-270.2664,-268.5942,-266.9084,-265.1897,-263.6721,-261.9953,-260.2488,-258.4317,-256.6903,-255.0072,-253.2167,-251.1179,-248.6999,-246.0931,-243.4435,-240.7841,-238.2044,-235.8913,-234.0314,-232.7321,-232.0252,-231.8912,-232.367,-233.3944,-234.9246,-236.8659,-239.0466,-241.294,-243.5094,-245.5816,-247.2971,-248.543,-249.2559,-249.4792,-249.264,-248.5858,-247.296,-245.3584,-242.9335,-240.1904,-237.016,-233.4697,-229.7275,-225.5837,-221.3313,-216.7592,-211.9549,-206.7954,-201.3846,-195.9557,-190.343,-184.4302,-178.3772,-172.1593,-166.2322,-160.2913,-154.316,-148.2373,-142.2525,-136.371,-130.5327,-124.6664,-118.7962,-113.0047,-107.1269,-101.1297,-94.96467,-88.76321,-82.39686,-75.9386,-69.57995,-63.0333,-56.50077,-50.05469,-43.62917,-37.25699,-30.82383,-24.51998,-18.354,-12.28303,-6.360938,-0.6501628,4.891894,9.878672,14.54492,19.24579,23.74245,28.08443,32.21986,36.35402,40.18678,43.76197,47.12438,50.27849,52.99641,55.52032,57.58493,59.61179,61.43726,62.88555,64.30859,65.34567,66.11769,66.63814,66.91085,67.11738,67.12295,67.15035,67.23402,67.2176,67.14291,67.13888,67.30564,67.67784,67.85339,68.71789,69.74309,71.1282,72.76427,74.68344,77.34684,80.25895,83.01294,85.3574,87.21957,88.80934,90.00674,90.86568,90.78508,90.29541,89.11325,87.41646,85.0219,82.35196,79.68126,76.94193,74.48948,72.10841,69.54351,66.85381,64.86093,63.481,62.14424,60.70768,59.42769,58.19791,57.18953,56.52419,55.84333,55.4786,55.21426,55.39451,55.66764,55.90136,56.45117,57.09839,58.14287,59.44821,60.86235,62.3624,63.90076,65.63608,67.26336,68.88921,70.41317,72.05485,73.56322,74.77945,75.81429,76.89918,77.97285,79.22284,80.94502,82.82315,85.20569,87.54741,89.95119,92.58814,95.17001,97.78152,100.3319,103.0372,105.5477,108.1791,110.7851,113.3812,116.0407,118.6061,121.1165,123.3911,125.374,127.0988,128.8332,130.4827,132.5534,134.8643,136.7189,138.651,140.5799,142.3832,143.7182,144.9768,146.1828,147.1184,147.8301,148.3536,148.5535,148.9036,149.0923,149.1658,149.2994,149.1218,149.0977,149.2093,149.2014,149.1759,149.1733,149.5943,150.1665,150.6714,150.905,151.116,151.1904,151.3489,151.3933,151.9418,152.0522,152.4922,152.9217,153.5535,154.1865,154.3194,154.3948,154.5926,154.9803,155.4325,155.8606,156.3969,157.1386,158.3133,159.4932,160.3262,160.6359,160.6856,160.6534,160.175,159.4911,158.4695,157.7032,157.5468,158.0238,158.451,159.0516,160.0994,161.6083,162.3885,162.8289,162.643,162.152,161.673,161.3243,161.5151,161.8674,162.7403,164.3416,165.86,167.5297,168.9135,170.0458,170.4617,170.3816,170.2579,170.3151,171.0942,172.6062,174.344,176.3253,178.4141,180.6651,183.0841,185.0679,187.1293,189.178,191.0528,193.1641,194.8887,196.4886,197.9147,199.1025,200.308,201.2902,202.4448,203.4362,204.4864,205.3391,205.8574,206.2126,206.0112,205.8709,205.4525,205.0829,204.6437,204.1827,203.4474,202.698,201.551,199.9754,198.444,196.8134,194.8722,192.3216,189.944,187.2795,184.4643,181.5072,178.4302,175.0365,171.6023,168.1206,164.3438,160.7147,156.8708,153.0942,149.2251,145.1871,141.4862,138.0293,134.6172,130.9337,127.0994,123.204,119.3956,115.6354,112.1985,109.0298,106.2098,103.373,101.0624,98.68501,96.65645,94.59914,92.68408,91.08215,89.60086,88.4371,87.66429,87.46091,87.47853,87.55565,87.39613,86.96742,85.95587,84.84147,83.97296,83.86019,83.93824,84.42797,85.25294,86.45784,87.95769,89.39393,91.07765,92.77435,94.1358,94.98435,94.95306,94.8838,94.67038,94.76726,94.89821,95.73474,96.58277,97.34081,98.13905,98.71933,98.81395,98.4683,97.60738,96.2513,94.8344,94.01129,93.85456,94.16652,95.08195,95.8009,96.26301,96.70018,96.9265,97.10216,97.33576,97.4255,97.65834,97.62515,97.70716,97.88258,97.75051,97.46214,97.13468,97.30159,97.55744,98.08911,98.82443,99.54103,100.3311,101.002,101.2485,101.3584,100.9355,100.7436,100.2392,99.5503,98.89949,98.24038,97.58526,97.16168,96.94649,96.94351,96.96599,97.05133,96.9612,97.01422,97.56328,97.60541,97.61891,97.71756,98.05273,98.31479,98.61485,98.77908,99.16626,100.0894,100.8841,101.7625,102.7509,104.2991,106.453,108.7603,110.6472,112.2536,113.388,114.4908,115.2489,116.0183,116.2403,116.366,116.0456,116.1202,115.039,114.9643,114.9017,115.2361,115.6533,114.7778,114.4393,114.4128,114.3686,114.6272,114.3368,114.0354,113.5293,113.4222,113.6417,113.3977,113.3018,112.6515,112.7097,113.1553,113.0405,113.1213,113.3706,113.6835,114.3244,114.2671,114.7003,115.7076,117.1176,117.6777,118.6257,119.9073,121.2211,123.5558,125.6479,127.9108,130.448,132.6154,134.8884,136.8617,138.7124,140.8677,143.0289,145.9883,148.3682,150.504,152.6067,153.7005,156.1557,159.1074,161.8072,164.2308,165.6063,167.1023,169.3286,172.2716,176.086,180.106,184.4869,188.6736,192.6396,196.8596,200.538,205.0064,208.7214,212.2412,215.9291,219.4223,222.562,224.5111,227.0265,228.215,227.7872,226.4207,224.5256,223.5451,221.8094,219.0457,216.7948,214.3148,211.5479,208.5208,205.2089,201.4109,197.4083,192.663,188.6913,184.7485,180.6658,176.3453,172.0628,168.1472,164.9212,161.9153,158.2299,155.3345,153.51,151.42,148.6827,145.3563,142.0672,137.9201,134.1876,130.7985,127.1725,124.2219,121.0981,118.3985,116.0946,114.3903,111.968,111.4047,109.4019,108.343,107.4847,106.4383,105.911,105.2984,105.1886,105.8032,106.425,107.0842,107.5927,108.4855,109.4917,110.073,111.0083,112.0161,114.4658,116.0273,116.1916,114.7558,113.434,112.2391,111.1641,110.0485,110.6568,111.263,111.6691,112.509,114.1098,115.8354,116.5281,117.4987,118.1081,118.4228,119.3452,119.8982,120.4728,120.1083,119.6137,119.2977,118.6073,118.196,116.4333,113.9865,111.9066,109.2038,108.3254,106.8231,105.0167,103.0739,100.6142,99.05944,98.3799,97.54996,95.67137,93.58219,92.11825,89.60453,87.98188,86.15078,84.92771,84.44242,83.39378,83.09769,83.38822,83.51613,83.03525,81.43395,80.52359,77.47232,74.1714,70.90161,68.01784,67.12595,64.93516,62.72841,62.30649,61.34282,60.00062,57.85507,56.09859,54.31865,52.88866,52.0599,51.20577,49.84826,49.39014,48.92675,49.01953,48.95073,48.41436,47.34582,45.65154,45.52486,44.93089,43.82624,42.66977,42.32365,42.34328,41.2245,40.91777,40.25923,39.70714,40.13317,39.78774,40.08073,40.14138,40.35951,39.39444,38.85624,39.14663,40.22849,40.48113,41.14626,40.88284,42.10116,42.94548,44.67757,45.54605,46.57237,47.86568,49.60414,51.30616,52.01486,52.50487,52.68839,52.01212,50.18275,47.28694,44.93767,43.87273,42.95553,42.27395,42.23129,42.21776,41.97691,41.3664,41.70555,41.0483,40.38044,39.19139,38.93293,38.91222,38.33112,38.33381,36.66003,34.95207,32.66268,31.12372,29.85432,28.31579,26.75807,24.3581,21.79507,19.7932,18.39165,17.49912,16.1636,14.47115,12.99313,8.75375,6.520377,4.661879,2.710274,-0.5968832,-1.409316,-2.968223,-5.047961,-5.547126,-6.778562,-6.733424,-7.136359,-7.673808,-7.408577,-6.153148,-4.741089,-4.096685,-3.754337,-2.762092,-2.157259,-1.502753,-0.503578,1.248994,4.086356,6.265105,8.818412,11.99006,14.25923,16.3924,18.89459,22.32006,25.73418,28.36035,31.4388,34.38614,37.57596,41.35731,44.30917,47.03178,49.19979,51.8361,54.44777,56.78538,60.09933,63.33472,66.59336,69.76144,73.03022,75.4206,77.56392,80.0295,83.30429,85.92958,88.97979,91.92986,94.28006,96.08709,97.93675,99.26919,101.8506,104.4146,105.8321,107.2386,109.2936,110.1148,111.9803,112.8691,114.1398,114.5927,115.7188,116.4017,116.8064,116.3333,115.6271,115.2797,114.6245,113.7017,112.9808,111.3488,112.429,111.6416,112.6977,112.9794,113.037,112.5147,112.888,113.1599,114.2345,115.357,116.6061,118.7775,120.6682,121.7222,122.2252,123.1029,123.563,124.5654,125.0449,125.4762,125.6937,125.803,125.6722,124.5198,123.1146,121.5792,120.8528,119.1562,116.9221,113.7926,110.1687,105.8198,103.7671,100.0165,95.83386,91.38713,88.35642,83.56423,79.47129,74.58167,70.14096,66.22571,61.79791,57.39055,53.20985,49.55056,45.19221,41.40234,37.1331,32.17226,30.21265,28.3904,25.85886,23.20148,21.15363,19.31455,17.8249,16.62697,14.92884,13.3762,12.13762,10.86535,9.290279,7.693908,6.841354,5.88614,5.117609,5.307508,5.188566,4.395696,4.091625,4.416758,4.194798,4.371299,5.145804,5.509614,5.762246,7.374943,8.274249,9.032159,9.967796,11.39432,13.35828,14.62597,16.36997,18.41788,20.19312,23.27626,26.14099,28.47484,30.93729,33.39063,36.67826,39.34272,42.60181,45.68528,48.40008,51.08056,53.53588,56.1522,58.19795,60.53231,62.25997,63.50305,64.53568,65.3624,65.25522,65.75116,66.08557,66.7596,68.54915,68.5323,69.78382,69.21568,68.73207,68.56349,68.74924,68.35158,67.54244,67.45355,67.04815,66.94057,65.75126,64.14247,62.30774,62.09123,61.4028,61.37991,60.806,59.80188,58.67591,57.66258,56.32117,55.2196,54.02694,53.16395,52.37356,51.20719,49.76374,48.3485,47.40941,46.99558,46.67539,46.1834,45.53627,44.92539,44.18416,43.68267,43.26517,42.91727,43.55009,43.38754,43.16851,42.67913,42.65863,43.48067,45.02926,47.23129,48.37216,49.76945,52.9898,53.72905,54.34086,56.02508,58.06876,60.03776,61.96249,64.1305,65.87958,67.49573,69.21451,71.0767,72.99505,75.04744,76.94132,78.85034,81.31174,83.83237,85.81545,87.12039,88.7144,90.25562,92.01933,93.99611,95.50917,96.85565,98.64872,100.8791,101.9726,103.0772,104.1748,105.853,107.4561,109.0023,110.3994,112.0327,113.4908,114.9686,115.9426,116.7946,117.9258,119.6676,121.3419,122.4139,123.7522,124.6191,125.2777,126.7411,127.6359,128.7338,129.5836,130.7563,131.7026,132.7049,133.8368,134.6688,135.4139,137.209,138.9777,140.9042,142.443,143.7195,144.8314,145.8934,146.686,147.1273,147.0445,146.8712,147.14,148.1021,148.0942,147.5423,146.7293,146.0559,145.9278,146.4258,145.7061,145.5074,144.2448,143.0387,141.705,140.7032,139.3897,138.4059,136.6606,135.0762,133.2277,131.9489,130.4617,128.7576,127.063,125.5232,124.2395,122.7576,120.6985,118.6163,116.9201,115.4153,113.93,112.5622,110.7782,109.1435,107.8716,106.7171,106.0991,105.309,104.2728,102.62,101.2141,99.60063,98.29102,96.61578,95.3594,94.66794,93.75439,92.4034,91.01344,89.99655,88.71771,87.62631,86.63315,85.16232,83.76821,82.72424,81.91503,80.27436,79.3732,78.23706,77.00763,74.87112,73.61535,72.74472,71.75093,70.48063,68.88028,67.36719,65.83796,64.80852,63.37084,62.46982,61.26191,60.0698,58.48183,57.19667,56.08291,55.07523,53.72982,52.18795,50.76387,49.97481,48.78462,47.61618,45.82433,44.09827,42.98941,42.32238,41.15353,40.03427,39.099,38.1937,37.29265,36.16454,35.17247,34.05649,33.00437,31.48288,30.21088,29.66018,28.95423,27.46413,25.95881,25.15717,24.40934,23.80364,22.64726,21.34171,20.36275,19.32652,18.62248,17.56433,16.69681,15.37751,13.90916,13.07647,12.05825,10.26107,9.210589,7.74896,6.779129,6.517114,5.147053,3.716528,2.127284,0.9625638,-0.1876764,-1.774884,-3.234021,-4.32784,-5.975158,-7.419516,-8.596627,-9.653244,-10.39826,-11.0543,-11.49783,-11.72804,-12.12742,-12.71905,-13.297,-13.68405,-14.09903,-13.83692,-14.03322,-14.47013,-14.54618,-14.93787,-15.4978,-15.95157,-15.69636,-15.83501,-16.31964,-16.51431,-16.49708,-16.39116,-16.54084,-17.44416,-18.72306,-18.62846,-18.32525,-18.02036,-18.3598,-19.21467,-19.14674,-18.93965,-18.89944,-19.43466,-19.97306,-20.96416,-22.41661,-23.39638,-24.34553,-25.30633,-27.33727,-29.42005,-31.68816,-33.40674,-35.00734,-36.9698,-38.82072,-40.32216,-42.49893,-44.9635,-47.36239,-49.37081,-51.36919,-53.52021,-56.04334,-58.49361,-60.65369,-62.35453,-64.87243,-67.26313,-69.43263,-71.58955,-72.49095,-74.07273,-75.76602,-77.53688,-79.04057,-80.81988,-81.82901,-83.93388,-85.50839,-86.99773,-88.18051,-88.88467,-89.81413,-90.47444,-91.29108,-91.82136,-92.22116,-91.79998,-92.12406,-92.63949,-92.71793,-92.12365,-92.39351,-91.94534,-91.98555,-91.28259,-91.19753,-91.66024,-91.95683,-91.56796,-91.23425,-90.11243,-89.23173,-88.80424,-88.67725,-88.60749,-89.86699,-90.24396,-90.74764,-91.4064,-92.199,-92.34143,-92.60835,-93.84758,-94.87248,-95.56893,-95.92838,-96.46754,-96.5715,-97.13994,-97.12569,-97.48243,-98.59365,-99.05214,-99.89983,-100.2506,-100.4122,-101.0608,-102.8072,-103.2727,-103.4901,-104.2261,-104.7618,-105.4506,-105.2423,-105.7194,-106.1505,-106.1031,-106.9096,-107.4876,-107.3297,-107.8878,-107.4878,-106.9089,-105.9102,-105.7674,-105.4741,-104.8795,-104.1197,-103.3977,-103.0716,-102.6165,-102.5127,-102.0236,-102.2392,-101.4824,-101.1647,-100.6931,-101.1074,-101.0659,-100.522,-99.84571,-99.78483,-100.3631,-99.90565,-99.47057,-99.93368,-100.1563,-100.4978,-100.7494,-100.8817,-100.9798,-101.3454,-102.0894,-102.9406,-103.2779,-102.9908,-102.9845,-103.7522,-103.7277,-103.5794,-103.7088,-103.8828,-104.9307,-105.4299,-105.8645,-105.8601,-106.8999,-107.5147,-107.9964,-108.4482,-108.7165,-109.4752,-110.1255,-111.2443,-111.9553,-112.5149,-112.2563,-112.9444,-113.9897,-114.2074,-114.0448,-114.8173,-114.9772,-116.5846,-116.8932,-117.9864,-117.724,-118.0593,-118.4075,-118.7147,-119.2628,-120.2125,-120.9674,-122.3684,-123.0151,-123.6778,-123.9679,-124.6458,-125.8705,-126.5574,-127.0567,-128.1872,-129.3165,-130.0722,-131.2371,-131.7623,-132.2528,-132.4751,-133.503,-133.7527,-134.6709,-136.0375,-136.6776,-137.7112,-138.5086,-139.0174,-140.1256,-140.3448,-140.4725,-141.5835,-142.5491,-142.9848,-143.4916,-143.6395,-144.2203,-144.3884,-144.6257,-145.396,-146.1633,-146.5939,-147.4052,-147.1428,-147.4683,-146.8497,-147.5675,-147.7561,-147.7114,-147.9542,-147.8973,-148.0075,-147.7569,-147.6284,-147.2457,-147.6401,-147.3851,-147.2599,-147.0019,-146.8446,-147.1605,-147.8578,-147.8167,-147.5112,-147.3434,-147.0057,-147.5833,-148.1979,-147.6148,-147.3927,-147.7827,-148.1491,-147.9183,-147.7608,-147.0049,-146.496,-146.1586,-145.2502,-145.1699,-144.8279,-143.9437,-143.4518,-142.2802,-141.3481,-140.7343,-140.3105,-140.6479,-140.543,-140.4689,-140.4091,-140.5577,-140.8373,-140.4275,-139.9951,-139.7956,-139.8129,-138.6735,-137.6069,-137.0047,-136.5894,-136.0765,-134.9613,-133.5049,-133.2981,-132.6442,-131.8884,-130.9329,-130.3503,-129.0612,-128.2277,-127.4865,-126.4645,-125.5138,-124.3923,-123.8159,-123.1925,-122.0599,-120.8891,-119.8644,-118.8398,-118.2621,-117.6022,-116.801,-115.6651,-115.0802,-114.4803,-113.8282,-112.8996,-112.3206,-111.6464,-111.5152,-110.936,-110.7018,-110.4042,-109.6879,-109.3872,-109.8462,-109.7606,-109.7254,-109.2955,-109.2785,-109.3131,-109.1811,-108.7565,-108.3446,-108.3602,-108.6748,-108.9038,-108.9511,-108.5337,-108.5972,-108.6556,-108.4439,-108.0301,-108.0041,-107.7702,-108.2486,-108.3335,-108.2685,-107.7078,-107.4744,-107.5892,-107.7882,-107.3425,-106.6756,-106.8484,-106.7483,-106.6402,-106.3472,-106.2573,-106.1245,-106.2182,-106.0025,-105.5452,-105.0245,-104.188,-104.2356,-103.6123,-102.9308,-102.1581,-101.3322,-100.3283,-99.53549,-98.82517,-97.58962,-97.02987,-96.23967,-95.17068,-94.23309,-92.55652,-91.40262,-90.45049,-89.75048,-89.60792,-88.75309,-88.38545,-88.02472,-87.49007,-86.72864,-86.23843,-85.48201,-84.44458,-83.8117,-83.85951,-83.19373,-82.53195,-81.54555,-81.22711,-81.2005,-80.38027,-79.80274,-79.22354,-78.47794,-78.43619,-77.22764,-76.8749,-77.43634,-77.41574,-76.84942,-76.08654,-75.96799,-75.86782,-75.9369,-75.7483,-75.51325,-74.84925,-74.24899,-73.76047,-73.57062,-72.8904,-72.64836,-72.01343,-71.55048,-71.2958,-70.95868,-70.44179,-70.05504,-69.34895,-69.25756,-68.55986,-67.58616,-67.33609,-67.18313,-66.85558,-66.28326,-65.57801,-65.13896,-64.95886,-64.20876,-63.39942,-62.10292,-61.72003,-60.95677,-60.21847,-59.58242,-58.55377,-57.52018,-56.58531,-56.31655,-54.63242,-54.11366,-52.78466,-52.03336,-51.39839,-50.34335,-49.19528,-48.47214,-47.97122,-47.64964,-46.07032,-45.57609,-44.87851,-44.29171,-43.08768,-42.02538,-41.2785,-40.21941,-39.24383,-38.78184,-37.74297,-36.74243,-35.67477,-34.78385,-33.76285,-33.04208,-32.11248,-31.84681,-31.28068,-30.66196,-29.33508,-28.02362,-28.27974,-27.75785,-27.17692,-26.21636,-25.43975,-24.92561,-25.00037,-23.83259,-23.24489,-23.16095,-22.91227,-22.51644,-22.27289,-21.06153,-20.47294,-19.96031,-19.34554,-19.28567,-18.4444,-17.79573,-17.67362,-17.21175,-16.97697,-16.40967,-16.17858,-15.96599,-15.32613,-15.09354,-15.16719,-14.66899,-13.1489,-12.65753,-12.80322,-12.44066,-12.56253,-12.28061,-11.53859,-11.17856,-10.96182,-10.96792,-10.81076,-10.99882,-10.9258,-11.19474,-10.83956,-10.08779,-9.735102,-9.989582,-9.430665,-9.18442,-8.847206,-9.527597,-9.384013,-8.767407,-7.952848,-7.618206,-7.164423,-7.744645,-7.208339,-6.108239,-6.375132,-6.026954,-5.95962,-5.749161,-5.370184,-5.873257,-6.577772,-6.036086,-5.976403,-5.657284,-5.844193,-5.621726,-6.407063,-6.387831,-5.979208,-5.883915,-5.275211,-5.105438,-3.936744,-3.45347,-2.165391,-2.037334,-1.007468,0.618202,2.045611,3.004916,4.452215,6.720374,8.66429,9.939958,11.60728,13.19786,15.43843,17.53764,19.52506,21.18067,22.71029,23.96056,25.56968,26.85574,28.81944,29.58491,30.11385,31.48178,32.73271,34.20668,35.01944,35.65642,36.36849,37.23103,37.26382,38.12602,37.83841,38.0701,38.46675,38.6209,38.08501,37.53901,36.73282,36.35501,34.95367,34.29028,33.3615,32.18001,31.87747,30.67065,29.00375,27.28671,26.51002,24.8505,23.65349,22.03985,19.95116,17.67131,16.49629,15.30143,13.36378,10.76199,8.364063,7.316897,6.121851,3.619317,1.695647,-0.1971099,-1.524681,-2.823384,-4.037477,-5.157308,-6.518418,-8.081752,-8.625834,-9.423464,-10.75283,-11.41026,-11.76351,-11.93211,-12.01551,-12.87027,-13.64959,-13.78627,-14.02651,-13.25466,-12.77447,-12.30363,-11.75863,-11.25973,-10.41066,-10.15591,-9.52263,-8.765636,-9.058899,-8.747467,-8.654647,-9.05255,-9.028085,-8.657187,-8.096206,-7.903179,-7.9782,-8.82302,-8.732405,-8.994255,-9.337814,-9.981474,-10.04474,-9.875733,-9.363973,-9.894737,-10.31915,-10.98836,-10.41445,-10.98153,-10.81908,-10.31732,-10.78061,-9.80577,-8.922018,-9.314867,-9.36203,-9.216177,-9.297008,-8.756218,-8.586809,-8.801761,-8.788392,-9.52927,-9.074703,-9.585257,-10.25291,-10.32948,-9.412014,-10.19617,-9.903798,-10.00902,-9.69975,-9.120161,-9.646724,-9.875695,-9.745508,-9.495356,-9.124932,-8.890008,-8.933572,-8.894485,-8.662355,-8.84771,-8.283379,-8.445004,-8.234156,-8.800978,-9.010207,-8.547259,-8.745958,-8.593844,-7.786148,-7.949596,-7.854524,-7.571879,-7.804786,-7.694296,-7.540195,-7.514762,-7.592898,-7.924563,-8.475051,-9.385888,-10.63955,-12.14011,-14.07469,-14.4415,-15.37245,-16.41084,-17.37059,-18.20804,-18.57402,-18.93388,-19.16322,-20.06549,-20.8677,-21.65461,-21.51898,-22.08766,-22.38821,-21.69398,-21.97774,-21.36205,-20.53503,-20.89347,-20.80501,-19.92941,-19.2955,-18.05564,-17.92286,-17.10683,-16.19799,-15.31605,-14.44349,-13.55421,-13.50088,-12.4682,-11.57936,-10.23868,-8.862191,-8.141422,-6.84002,-4.957126,-3.560496,-2.717314,-1.621752,-0.7685719,1.257933,2.42268,3.526944,5.009996,6.718192,7.930015,9.766435,10.678,12.16505,13.73452,16.11074,17.32718,19.5267,21.2935,22.08938,24.86141,26.12604,27.21933,28.22408,28.09192,28.92847,29.69344,30.08855,30.46736,30.11874,29.86401,30.85639,30.35719,30.84752,30.84336,30.65739,29.94769,31.57331,32.61637,33.57868,33.24487,32.64982,32.636,31.56102,30.1836,28.31619,25.9963,24.30421,21.18668,18.13167,15.00729,12.29695,8.892,6.200086,2.851211,-0.09037916,-2.533187,-4.475385,-6.821837,-8.976424,-11.25755,-12.77152,-14.34962,-15.87564,-17.06156,-17.69368,-18.00947,-18.73288,-19.04612,-19.98799,-20.31302,-20.13113,-19.74097,-18.93528,-16.80384,-16.14648,-14.91264,-13.12407,-10.88531,-8.625459,-6.306147,-2.864288,0.4587615,4.053842,7.465383,11.52253,16.19239,20.91899,26.48,30.6391,35.21241,40.31957,45.38649,50.31864,55.11953,60.26509,66.01392,71.59451,77.13681,82.33096,86.83424,91.9361,96.78209,101.0342,105.6987,109.1882,111.7775,114.5678,116.6829,118.7399,121.457,124.0979,127.5703,131.1405,134.8258,137.9385,141.0686,144.6172,148.0433,150.3416,153.1163,155.9544,157.9799,160.4028,161.7453,162.5794,163.1108,163.8018,164.0955,163.7917,162.7962,160.7059,158.7817,156.3567,153.7267,151.1771,148.1692,144.978,141.6792,137.8057,134.636,131.1863,127.6118,124.4182,120.5699,116.943,114.1659,112.1415,108.1222,102.9017,97.57241,92.41589,87.5866,81.68421,75.08627,68.32369,63.22439,56.86665,50.10855,44.01957,37.57704,31.25126,25.29053,18.78037,12.16891,6.0136,-0.2924164,-6.697339,-12.63491,-18.19182,-24.00876,-29.69833,-35.46943,-40.52135,-44.80871,-49.38765,-53.96816,-58.56365,-62.17056,-66.31666,-70.18705,-73.19707,-76.24988,-79.08474,-81.26445,-84.21369,-86.51005,-87.90016,-88.87484,-90.15593,-90.56454,-90.82902,-90.52428,-90.03965,-89.66275,-89.28975,-88.30998,-86.88146,-84.72654,-83.97737,-82.57377,-81.05707,-78.87246,-77.15231,-75.36677,-73.05995,-71.12427,-69.65081,-68.38633,-67.04078,-66.06421,-65.64247,-65.85473,-65.92626,-66.55199,-67.9185,-69.21301,-69.35158,-69.25113,-69.34195,-68.34281,-67.36493,-66.16663,-65.09116,-64.20891,-63.9251,-63.21898,-61.88035,-60.85744,-59.59875,-58.53088,-58.09801,-56.79713,-55.12118,-53.52463,-52.47756,-51.25009,-49.68468,-47.93405,-46.16542,-44.99266,-43.2934,-41.19371,-39.79159,-38.2707,-36.91054,-35.1603,-33.59404,-31.37919,-30.11172,-28.36261,-27.41026,-25.42849,-23.71649,-22.54331,-21.62324,-20.08942,-18.87066,-17.4372,-16.60233,-16.36379,-15.31074,-14.08902,-13.01327,-12.59456,-10.80486,-9.171212,-8.768595,-7.377304,-6.619312,-6.015305,-5.067389,-3.544871,-2.316182,-1.655298,-0.8101611,0.06723708,1.043599,2.224195,3.190147,4.314401,5.188728,6.353238,7.900943,9.430542,9.803782,10.70522,11.91598,13.86875,14.60502,15.4059,16.39744,17.46345,18.79063,19.83572,20.2411,21.06145,22.21257,23.13288,24.50752,25.69702,26.66809,28.07688,28.39773,29.07573,30.83512,31.86046,32.761,33.58662,34.57465,35.00325,35.46544,37.21545,37.95167,38.93153,40.03698,40.57408,41.50467,42.30503,43.33009,43.81722,43.56849,44.41136,45.57578,46.28795,46.7406,47.242,47.50817,48.13658,48.16402,49.34735,49.28986,49.94601,50.44915,50.46457,50.82782,51.34887,52.20654,52.50617,53.13884,53.47288,53.48502,54.16222,54.5799,54.3329,53.50973,53.26586,53.40429,53.93362,54.66702,55.12626,55.78117,57.04961,58.3677,60.40346,62.4408,65.02577,67.01735,69.25293,71.70972,74.65127,76.54351,79.03529,81.00553,83.27051,85.43209,87.1289,88.48846,89.83921,90.77177,91.75427,92.86688,92.95086,93.24897,93.27608,93.1216,91.99176,90.52089,88.85357,87.34383,85.56252,83.40501,80.98241,77.89795,74.58151,71.60149,67.7387,63.57885,59.1364,55.41327,51.29483,46.37669,41.30867,35.93812,30.61573,25.09405,19.80115,14.54373,8.339837,1.986615,-3.422485,-9.603956,-15.79938,-21.82784,-28.09357,-33.83205,-39.56644,-45.77789,-51.54015,-56.74647,-62.23732,-67.17351,-72.33815,-77.21053,-81.55054,-85.71478,-90.75714,-94.82416,-98.76882,-101.8757,-105.8695,-108.7153,-111.2525,-114.1012,-116.338,-118.4138,-120.8939,-122.5059,-123.9804,-124.7795,-125.1553,-125.5989,-125.6945,-124.4524,-122.1687,-119.8884,-117.7835,-116.3559,-115.7111,-115.0376,-113.8136,-113.6005,-113.3397,-113.7467,-113.623,-113.4255,-114.1718,-115.1437,-116.6424,-117.3533,-119.2071,-121.1459,-122.824,-125.1272,-127.5971,-129.08,-130.282,-131.3387,-132.3575,-132.8042,-132.8445,-132.8508,-132.4924,-131.8745,-131.2255,-129.6139,-128.2791,-126.8376,-124.4733,-121.8875,-119.0106,-116.2857,-113.2763,-109.664,-106.2499,-102.6409,-98.8534,-94.06391,-90.26021,-85.83549,-81.2521,-76.80545,-71.9114,-66.9254,-61.93314,-56.4645,-51.37573,-46.06323,-41.08862,-35.46987,-30.24326,-24.66869,-19.90063,-15.32687,-10.26291,-5.160195,-0.7828663,3.801055,8.233539,12.97637,17.2774,21.19322,24.98066,28.36669,31.93671,35.53505,38.26176,40.88998,43.02285,45.67547,47.77442,49.2329,51.16701,52.43671,53.5364,54.66075,55.20431,55.85313,56.19366,55.85997,56.09446,55.70877,54.81582,53.50168,52.43317,51.17734,49.92888,48.25028,46.2103,44.55743,42.41364,40.63258,38.62352,36.31519,34.82729,32.80003,31.66594,30.89382,30.15699,29.41476,29.1079,30.31618,31.3235,33.28057,34.40303,34.76628,34.95032,33.98789,33.53334,33.96657,34.34165,34.71097,34.24863,34.59338,34.66593,34.70298,35.05493,35.75291,36.56227,37.00184,37.00497,37.63552,38.23854,38.10666,38.66583,39.07634,39.55735,40.04383,40.20169,40.36829,40.51592,40.53495,40.60777,40.97194,41.53756,42.37621,42.17418,42.80622,43.42419,43.42473,43.97375,43.94173,44.48277,44.2717,44.04034,44.37172,44.53073,44.47409,43.3932,43.64564,43.58433,43.7659,44.13976,43.68087,43.53308,43.36316,42.53136,42.57376,41.67369,41.25525,40.84997,40.36973,39.33151,38.4916,37.66834,36.81535,35.76502,35.97662,35.04835,33.76042,33.15479,32.24475,31.60952,30.48985,29.55877,28.55851,28.02388,27.2958,25.93182,25.42395,24.34088,24.64038,24.00066,23.275,23.09181,22.4214,22.38923,22.6122,21.8527,21.25243,21.64357,20.84093,21.01511,20.98389,20.92383,20.62023,21.29963,21.03954,20.94696,21.11457,20.86553,21.19519,21.54543,21.21893,21.25803,20.71158,21.34863,20.90341,21.21906,20.79588,21.32654,22.36355,22.30331,22.4564,22.85049,23.17054,23.42736,23.77454,24.73872,24.65799,24.52526,24.41412,24.17074,24.53996,24.78413,26.11428,27.45592,28.33026,29.31881,29.90828,31.37866,32.84318,34.39182,35.18903,36.48808,37.51109,38.71757,40.02645,40.41711,40.80088,41.47994,42.50436,43.46791,44.40951,44.47557,44.34432,44.55974,44.99916,44.99774,44.05408,43.9385,42.97462,42.12584,40.5148,39.18703,38.06734,36.83201,35.49594,33.74326,31.96093,30.09293,28.10563,25.7361,23.45706,20.93327,18.02684,15.53167,13.23467,9.939638,7.068986,3.578938,-0.02697883,-3.297188,-6.154038,-9.855644,-13.16335,-16.15712,-19.11869,-22.98691,-25.97014,-29.51419,-32.76665,-35.55822,-38.88572,-41.82108,-44.84824,-47.68021,-50.99819,-53.77184,-55.47813,-58.18331,-59.89206,-62.41686,-64.24964,-66.12508,-68.49141,-69.71041,-71.31353,-72.63163,-74.05023,-74.7162,-76.08245,-76.48703,-77.65216,-78.13284,-78.58298,-76.69723,-75.44335,-74.05091,-73.8881,-73.94355,-73.91668,-73.71484,-74.20285,-74.59085,-74.74469,-75.03075,-75.72949,-76.00128,-76.8838,-77.2195,-77.96482,-78.50333,-79.34516,-80.41992,-81.3709,-82.1922,-82.54344,-83.51659,-84.81077,-85.97614,-86.5618,-86.19441,-85.61967,-85.44827,-84.8574,-84.29396,-83.56908,-82.11997,-80.85186,-79.88623,-78.54827,-77.13662,-75.46881,-73.6365,-71.4588,-69.83323,-67.51024,-65.42151,-63.07351,-60.57288,-57.90357,-55.15247,-52.3263,-49.91649,-47.06301,-44.87672,-41.50698,-38.12752,-34.95741,-31.91124,-28.66179,-25.469,-22.10023,-19.11076,-15.48702,-12.71842,-10.27423,-7.415285,-4.444911,-1.933315,-0.1712619,2.221644,4.841116,6.539657,8.65165,10.57279,12.07396,13.6019,15.79324,16.02087,18.02574,18.71908,19.9716,20.65355,21.19081,22.08458,22.22796,22.72025,22.68221,21.97875,22.56079,22.27247,21.85376,21.88987,20.78729,20.17102,19.50425,19.16661,18.67017,17.7293,16.6139,15.87788,15.46485,14.59826,13.97015,13.60322,13.24608,13.42198,12.89141,13.36572,13.14737,13.93411,15.20639,17.48978,19.04492,21.42085,21.84153,22.12372,22.38343,23.20356,23.89368,25.06787,25.49354,26.23754,26.91408,27.28025,27.12706,28.15194,29.01921,28.73063,28.7447,28.81457,29.34505,29.61946,29.83493,29.89273,29.92924,29.87221,30.45298,29.66511,29.4979,29.70382,29.47672,29.23611,29.45493,28.66987,28.52353,28.65809,28.20847,27.75604,27.53644,26.51842,26.5686,26.70322,26.3785,25.41476,25.0677,25.11903,24.19042,24.04861,23.91152,23.32096,23.10136,23.10846,22.82004,22.66653,23.24653,23.24267,23.37167,23.1098,23.68648,22.57412,22.86817,23.32209,23.21356,23.03482,22.91609,23.06126,23.19803,22.65055,22.54134,22.94332,23.2597,24.0149,24.27573,24.08451,24.4779,25.29644,25.70438,25.26586,26.42276,25.58202,26.23679,26.78395,26.89567,26.87909,26.21003,27.34924,27.36542,27.986,28.56151,28.22306,28.5543,29.35472,28.89366,29.62563,29.84516,29.79551,30.53095,30.49996,30.6848,31.02581,31.11415,31.63691,32.22356,32.50513,32.6047,32.66533,33.31777,34.19315,34.3858,34.60501,35.25714,35.59888,35.81569,36.66999,36.02573,36.95431,37.78055,38.65978,39.03923,39.87552,39.62145,40.21447,40.81018,39.97011,38.71307,38.89789,38.37218,38.64769,38.63322,38.82887,39.66748,40.10308,40.52373,41.65649,42.36899,42.74596,43.98224,44.23863,45.73877,45.80482,46.32216,47.14836,47.07976,47.56154,47.4477,47.37275,47.62505,47.4498,46.98708,46.56728,46.63821,46.21989,44.92509,43.93598,43.28156,41.95637,40.45224,39.64985,37.67852,35.64506,33.83607,32.48836,30.49988,28.24166,26.12962,23.74815,22.12332,19.48531,16.98927,13.97268,12.18157,9.106491,6.014664,3.881356,0.32622,-2.881231,-5.806625,-8.773083,-10.80011,-14.13244,-17.42093,-19.35433,-23.04738,-25.31324,-28.4538,-31.51682,-34.9492,-37.54368,-40.39767,-43.7904,-46.24808,-48.7676,-50.76254,-53.76723,-55.64723,-56.84681,-59.79334,-60.88091,-62.24185,-64.29186,-65.32198,-66.43412,-68.06621,-68.43277,-70.0392,-71.37511,-71.53603,-72.36479,-72.85467,-74.94732,-72.81379,-71.37203,-70.98015,-70.85171,-71.55554,-71.82951,-71.7357,-71.67524,-73.06558,-73.31159,-73.41907,-74.44064,-74.67956,-75.48701,-77.30688,-76.9137,-77.98319,-79.03286,-80.01378,-81.02118,-82.67025,-83.84439,-85.3976,-87.149,-88.24697,-88.61764,-88.53572,-88.43849,-88.63303,-88.40383,-88.22192,-87.55356,-87.09099,-86.05552,-85.29644,-84.58419,-82.66422,-81.69097,-79.60882,-79.18237,-76.63668,-74.89161,-72.52354,-69.71457,-68.3281,-65.76339,-63.31754,-60.81627,-58.27899,-55.84565,-53.42653,-50.89444,-48.3338,-45.62205,-42.8235,-40.89985,-37.39412,-34.14034,-31.87606,-28.64901,-25.74305,-22.57204,-19.45731,-17.23234,-13.84918,-11.38812,-7.677597,-5.499294,-2.877907,0.3609877,1.760369,3.819384,6.111782,8.725689,9.871991,11.39246,13.20904,14.91611,16.47308,17.07264,17.89002,19.35196,18.85804,20.21178,19.51706,19.20505,18.56391,18.91573,18.70952,18.30691,17.09172,16.56113,15.76214,14.92196,14.2679,13.54647,12.40892,11.86336,11.55793,10.15941,9.420425,8.466502,8.085066,8.059822,7.291662,7.461687,7.526581,7.832491,8.260324,9.22107,12.1241,10.6585,10.43227,10.49008,10.25262,10.76214,9.979819,10.32425,9.922245,11.30725,11.04782,10.49458,10.91383,11.35555,11.02532,12.2351,12.14054,12.09623,13.24539,13.1628,13.33429,12.95646,13.41862,14.6473,15.06968,15.39718,15.97696,16.56501,16.75097,17.20015,17.91105,18.06299,18.46373,19.53371,20.55111,20.71403,20.84575,21.18352,23.18822,23.04648,24.36623,24.86507,25.77925,26.05339,27.13237,27.17092,28.15386,28.3646,28.72169,29.40168,29.48078,29.53061,29.96517,29.75477,30.86077,31.12827,31.98968,32.13821,31.81741,32.77038,32.93375,33.64932,34.19482,33.91441,34.74498,34.96251,35.03373,34.58285,34.71641,35.51529,34.66337,35.6603,35.28652,36.13565,36.51441,36.51378,36.60071,37.22536,37.46473,37.65667,38.13589,38.25482,37.70597,38.65733,38.20197,39.12387,39.19196,39.81051,40.04403,39.69275,39.74079,40.15574,40.11458,40.64405,40.55663,40.79866,40.25135,40.30647,41.04551,40.1394,40.2796,40.431,40.55221,41.10096,40.77526,41.15024,40.75125,40.96767,40.60571,40.86778,41.52411,40.43456,40.43299,40.76079,40.52464,40.36989,39.58425,40.96711,40.5699,41.5403,41.23417,41.25737,42.74959,42.82493,43.54664,44.3809,44.80462,45.11284,45.35434,44.74653,44.74793,44.63469,45.56193,46.04218,46.38594,46.99992,48.60978,49.91848,51.14446,53.96775,55.58614,57.39418,60.0667,61.97644,64.11366,65.54993,67.87282,70.21418,72.46588,72.8319,75.12832,76.50193,77.26763,77.98486,78.90528,78.26882,79.19961,78.1957,77.73975,76.9592,76.00443,74.38584,72.78252,70.8751,69.82466,67.05439,64.53346,61.312,57.91845,54.59784,50.83513,46.82589,41.9387,37.55712,32.83497,27.86727,22.9976,17.1432,12.26392,7.13765,1.35903,-4.181943,-9.911175,-15.42621,-20.94968,-27.18626,-32.85059,-38.3471,-44.39038,-49.22359,-54.52826,-60.15528,-65.5811,-70.18878,-75.05868,-78.93155,-83.75148,-87.64752,-91.76297,-95.30123,-98.83521,-102.0129,-104.843,-108.0056,-110.1733,-112.314,-114.0555,-115.4768,-117.1984,-118.4584,-118.2059,-118.6406,-118.8719,-118.6278,-118.7623,-117.8222,-117.6211,-116.8636,-116.139,-115.2459,-112.8656,-110.3364,-107.4482,-104.6748,-103.5472,-101.9297,-99.97524,-98.43147,-98.31826,-96.78535,-96.7537,-96.08943,-96.48703,-97.64571,-98.20532,-99.17305,-100.3191,-102.8178,-104.8904,-106.2339,-106.9685,-108.237,-108.8316,-110.2951,-109.9475,-110.0342,-109.5266,-109.5039,-108.7648,-107.4724,-106.6853,-105.0821,-103.7705,-102.2609,-100.3098,-97.97734,-95.26486,-92.83207,-90.87727,-88.0568,-84.80391,-81.75035,-78.8548,-75.13724,-70.86985,-67.59051,-63.10949,-59.6721,-55.86229,-51.3896,-46.90554,-42.9198,-38.19488,-33.6376,-29.63682,-25.12893,-20.4983,-16.41017,-11.73197,-7.199192,-2.307611,1.663783,6.280117,11.15267,14.57612,19.18334,23.62427,27.11346,31.63504,35.4615,39.59376,42.38205,46.45974,48.87238,51.62982,53.61125,57.56199,59.68695,61.50047,63.49019,65.51465,67.17878,67.4787,69.46409,70.85079,71.60503,72.15577,72.29761,72.05719,72.04605,71.01484,71.59444,70.5395,69.64151,69.11475,68.09399,67.58607,66.37949,65.03073,64.34394,63.32268,62.06666,61.05448,60.48488,59.01293,58.46571,58.22959,57.98082,58.85312,59.26634,60.90259,61.92093,60.93539,60.47939,59.06731,59.32705,58.81304,57.45914,56.635,55.87632,54.32965,54.13551,52.683,52.20346,51.30694,50.52455,49.36003,48.91571,47.46142,46.5479,45.71512,43.84299,42.99837,41.48032,40.66015,39.13652,38.63059,37.08588,36.07896,34.50831,33.50887,32.89588,31.76479,30.55905,29.24055,28.67035,27.16907,26.46913,25.0342,24.33998,23.25444,22.7936,21.86295,21.208,20.35529,18.89654,18.40017,17.3532,16.81472,15.78216,14.66011,14.15167,13.38712,11.52863,10.57028,10.0229,9.04716,8.213447,7.426636,6.082313,4.657524,3.384757,2.651789,1.657647,0.1831719,-0.4071348,-1.60988,-2.484531,-3.61952,-5.092123,-6.759277,-8.389762,-8.428507,-10.76856,-11.80577,-12.77714,-12.99445,-14.85767,-16.01625,-16.56043,-17.6222,-18.60438,-19.93977,-20.12111,-21.47596,-23.17531,-23.16236,-25.34543,-25.6416,-26.85502,-28.25705,-28.57088,-29.2218,-30.82866,-31.82103,-32.7565,-33.32116,-34.03138,-34.88191,-36.58433,-37.41094,-37.68957,-39.14324,-40.15348,-41.83709,-42.23885,-43.09485,-44.64781,-45.0398,-46.77037,-48.53375,-48.6554,-50.35027,-51.32611,-52.74786,-53.4594,-54.92384,-55.64594,-56.90301,-56.17492,-56.16885,-55.34671,-56.56813,-57.14308,-57.45847,-58.29385,-58.91955,-59.52623,-61.36799,-61.91324,-63.43393,-65.30141,-65.96741,-68.25664,-69.64009,-71.60808,-73.59305,-75.24156,-76.36691,-78.76646,-79.39305,-80.28473,-81.96149,-83.53696,-83.9838,-84.36667,-85.45946,-85.06171,-84.90402,-85.00096,-84.98215,-83.88453,-82.42978,-81.38233,-80.12325,-79.0365,-77.03146,-74.89417,-71.69315,-69.63608,-66.94637,-63.29151,-60.30043,-56.74887,-53.01236,-49.01018,-44.98551,-40.62615,-36.77198,-32.41636,-28.4785,-23.57889,-18.92403,-13.69033,-8.558007,-3.867585,0.9502144,6.529568,11.04957,16.61464,20.94587,26.33362,30.65991,35.90691,40.17076,44.85023,49.84907,54.22375,57.8169,62.29379,65.76048,70.23613,72.93381,77.17071,80.31959,83.61439,86.01011,88.77963,91.77595,93.27309,95.51051,97.72729,98.97378,99.65815,101.4141,102.3958,103.2794,104.1876,104.0782,103.7378,103.5909,103.169,100.7241,100.1183,98.2789,96.97056,95.52684,95.01083,94.61925,93.06046,92.58142,93.71805,93.21172,93.88594,94.79743,95.90269,97.23773,99.47665,100.8754,104.2981,104.6007,106.4733,106.7219,109.2536,110.8494,111.5745,112.5973,112.8817,114.1011,113.6366,113.6705,112.8213,112.423,111.4632,110.7184,108.5348,107.2866,106.5041,103.7277,101.6983,99.99191,97.20788,93.60775,91.37467,88.76893,84.95344,81.29263,78.51256,74.32798,70.42304,65.98003,62.67421,57.4299,53.61594,49.2749,44.37642,39.95797,36.46179,31.80653,26.37044,21.49052,17.14804,12.53269,7.271792,1.935706,-2.248875,-7.750511,-11.83188,-16.44219,-20.35324,-24.2897,-28.1956,-32.08015,-34.9828,-38.3986,-41.92151,-45.52482,-46.82174,-50.26194,-51.95895,-55.36977,-56.47261,-58.51635,-59.0926,-60.65694,-61.0091,-62.07121,-62.71358,-62.88051,-62.50447,-61.93201,-61.08915,-61.03336,-59.37527,-58.42363,-57.18647,-56.46003,-54.60801,-53.31198,-51.45959,-49.68406,-48.10805,-47.75461,-45.56669,-44.3751,-43.54231,-42.8055,-42.38584,-42.06348,-42.48722,-43.01372,-42.9853,-44.29274,-43.33435,-43.65261,-42.69734,-42.62258,-41.88324,-42.0001,-41.86994,-40.87348,-39.76101,-40.69023,-39.21537,-37.37409,-37.65857,-37.25005,-36.54297,-36.62955,-35.33059,-34.44842,-33.57205,-33.8551,-32.18799,-31.99569,-31.38029,-31.03273,-30.6872,-29.80347,-30.66789,-28.8435,-29.24903,-28.7959,-28.86587,-27.88616,-28.11789,-26.78329,-26.78076,-26.80506,-25.6571,-24.88598,-24.62462,-24.36909,-23.5216,-22.90863,-22.58187,-21.51622,-21.0874,-21.39016,-19.81138,-19.65888,-18.7055,-18.45686,-16.67637,-16.80958,-16.04998,-15.12356,-14.35013,-14.8539,-13.92511,-13.0679,-12.68194,-12.35946,-12.7094,-11.69876,-10.59741,-10.54354,-9.885349,-9.582128,-9.089253,-8.545723,-8.913607,-8.575446,-7.811406,-8.2119,-7.781136,-7.01298,-6.346762,-7.268608,-6.549465,-5.53174,-5.654581,-5.38753,-5.144516,-4.420192,-4.37808,-4.08772,-3.702397,-3.953091,-2.623844,-2.166303,-2.146658,-2.131134,-1.937469,-1.155795,-1.462845,-1.070127,-0.770938,-0.5399621,-0.471663,-0.5472205,-0.7646861,-1.878505,-0.7666264,-1.491813,-1.382874,-1.507583,-2.209367,-2.344225,-3.428926,-3.421863,-3.148032,-4.10856,-3.661441,-4.396294,-4.701941,-5.836539,-5.995587,-6.835816,-7.57666,-7.933218,-8.459175,-9.409377,-7.592367,-7.565197,-8.71596,-8.738826,-8.861566,-10.27475,-10.49455,-10.99351,-12.65289,-13.69682,-14.33481,-16.29302,-16.95569,-18.68687,-19.46672,-21.45991,-22.24636,-22.85904,-24.57464,-24.62485,-26.66129,-25.98744,-27.87232,-27.36853,-28.23089,-29.14963,-28.48017,-29.32654,-29.45733,-29.88805,-29.21049,-29.39464,-28.86737,-28.28189,-28.07112,-27.55004,-26.152,-25.33754,-23.99722,-22.71329,-20.97744,-20.40964,-17.35653,-16.81122,-14.6905,-13.71866,-11.73048,-9.459886,-8.204936,-5.586962,-4.618313,-1.731754,-0.2452789,1.29388,3.572612,5.090821,6.891482,8.622465,10.03064,11.32239,13.23034,14.20743,16.04664,17.30377,18.44093,19.94355,21.21629,23.28289,23.30993,25.35071,25.87806,27.41529,28.16535,28.94551,30.4476,30.34115,32.7139,31.5196,32.60534,32.96113,33.02728,33.72613,33.50206,34.20873,34.12731,33.32465,33.32697,32.02354,31.65109,31.53354,31.3054,30.65848,31.00212,31.07627,31.12503,30.94666,31.59437,31.80051,33.36451,33.02025,34.16388,34.38965,35.62072,35.9067,37.33715,37.60114,38.97981,40.18535,42.65396,43.87753,46.17695,45.96614,47.67483,47.39979,48.63931,48.26693,49.3513,49.11941,48.89903,49.07997,48.10474,47.41638,47.66565,46.7381,46.49269,45.28703,44.69015,43.42208,42.77705,41.35817,39.03817,38.31014,36.28039,35.06913,32.99161,30.71986,29.0515,25.80147,24.22253,22.49298,19.81779,16.90365,15.33303,13.89271,10.69843,9.248584,6.657071,5.250738,3.461065,1.168152,-0.9745167,-3.220759,-3.152858,-6.297184,-5.902174,-7.842432,-8.918695,-9.376273,-10.48474,-10.3939,-11.59976,-10.73148,-11.71778,-11.36445,-11.24308,-11.66929,-11.41241,-11.25983,-10.8013,-10.0448,-9.158392,-8.332136,-7.929105,-5.792895,-4.01738,-3.344704,-1.859333,-0.2166262,0.3455463,2.350652,3.557484,5.050115,6.455973,7.736563,9.863037,10.29394,12.3305,12.1809,14.36058,15.1885,15.48575,16.45278,15.81843,16.73854,15.84521,15.37391,15.31422,13.9116,13.96607,13.97752,13.69873,13.89465,13.42123,13.55641,12.42066,12.47041,11.88081,10.42081,11.68832,9.104322,9.337788,7.69054,7.538822,4.687574,4.978757,3.307445,3.281037,1.530295,1.41116,-0.07766497,-0.4223893,-2.494999,-2.837407,-5.238107,-5.184408,-7.351118,-8.054372,-10.36011,-10.79438,-12.44163,-13.69258,-13.82284,-15.55661,-15.52414,-16.73497,-17.80688,-18.16033,-19.83253,-19.06878,-20.93041,-20.99418,-22.94301,-22.49083,-23.75172,-25.17547,-25.57941,-27.58761,-28.05929,-28.51477,-29.05769,-30.67147,-30.94805,-31.57318,-32.56051,-34.27232,-34.43781,-35.58258,-36.34212,-37.50519,-38.86534,-39.07798,-39.39977,-40.20968,-41.65965,-41.10876,-43.03107,-43.47076,-43.40987,-44.52811,-44.3206,-44.45546,-44.81739,-45.7469,-46.19589,-46.12101,-46.37056,-46.88997,-46.31236,-47.12792,-46.24656,-46.41668,-45.84821,-46.75256,-45.11859,-45.84759,-45.81602,-45.67875,-46.13294,-45.84593,-45.86092,-45.71263,-45.94797,-46.06626,-46.21654,-46.64859,-46.40013,-46.4522,-46.55853,-46.71004,-46.74356,-46.69904,-47.02291,-47.57971,-47.38237,-48.38244,-48.1225,-48.77728,-49.27422,-49.54117,-49.14876,-49.73986,-49.18979,-48.90355,-47.74649,-47.56731,-46.46677,-47.18919,-46.43249,-46.4327,-47.96393,-47.61413,-49.47765,-50.13081,-53.01465,-53.11979,-55.45768,-56.59561,-59.26476,-60.68969,-62.50888,-64.29035,-66.72039,-67.55461,-69.29107,-70.67619,-72.04218,-72.44194,-73.79873,-73.41209,-74.0689,-73.68177,-72.59653,-72.67056,-70.71067,-69.92008,-68.14057,-66.44335,-64.75935,-61.47701,-60.46229,-56.72793,-55.18848,-50.2765,-47.79158,-44.15023,-39.7407,-36.10193,-31.45298,-27.0249,-23.06563,-17.89311,-13.85499,-9.261834,-4.705193,0.1757961,4.931491,11.37717,14.87185,20.40059,24.74829,29.99508,34.91105,38.99164,44.36934,49.09489,53.14306,58.43948,62.54999,66.45118,70.67585,75.6082,78.32236,82.83178,86.30343,89.94091,93.49612,95.90744,99.35225,101.6199,104.8195,106.0805,108.8431,109.2363,112.0116,112.259,113.1723,113.2992,113.8109,114.1859,113.9611,113.735,112.7378,112.8311,110.2752,108.6142,106.9998,104.3151,101.6752,100.6183,98.01527,98.16614,95.8684,95.8754,95.18916,94.77047,95.0932,95.65652,96.86427,97.60819,99.35083,100.9751,104.4922,105.3797,107.7809,107.8794,110.6281,110.6721,112.0104,111.9768,112.3136,112.0645,111.6983,111.6332,109.9392,109.5985,108.1541,106.7357,105.4209,103.9046,101.3935,98.5402,96.41977,94.14066,90.36305,87.74185,84.00874,80.58792,76.84619,72.97145,67.90391,64.39847,59.5523,54.77907,50.04117,44.95661,40.31781,34.0113,30.00212,24.49746,19.07128,14.51797,9.147956,4.515041,-0.8518756,-6.018792,-10.77904,-15.06874,-20.43924,-24.2786,-29.90265,-33.50373,-38.51794,-42.79373,-46.32098,-49.9558,-54.21391,-57.27171,-61.46558,-64.17071,-67.01045,-69.4107,-71.65754,-74.01948,-75.8104,-76.98454,-78.50467,-79.3892,-80.32026,-80.29736,-80.46984,-79.94533,-80.83071,-78.60656,-78.83408,-77.62097,-76.10596,-75.66789,-73.41645,-71.71989,-70.74057,-68.74845,-66.58708,-65.7371,-63.07424,-62.3812,-60.59675,-58.6531,-57.36019,-56.4197,-55.37163,-55.40763,-54.36943,-54.52353,-56.03413,-55.64835,-56.14313,-54.82569,-55.2163,-52.83987,-54.154,-51.04804,-52.13278,-50.01372,-49.1771,-48.51361,-47.25178,-45.81189,-45.05618,-43.86568,-42.88238,-41.94719,-40.85407,-40.64294,-39.0631,-38.26026,-36.46755,-37.12355,-35.31151,-34.67149,-33.50001,-33.16685,-31.77302,-30.47165,-29.87726,-28.32173,-27.95555,-26.22018,-25.45537,-24.17593,-23.99724,-22.56621,-21.00502,-20.78026,-19.49385,-18.58043,-18.41673,-17.07859,-16.2181,-15.885,-15.35435,-14.05153,-13.9027,-12.31799,-11.95977,-10.79337,-10.27561,-9.857646,-7.784318,-6.980185,-5.850308,-5.239851,-4.192619,-3.757213,-1.684115,-1.39009,0.208209,0.7336635,1.824076,3.382807,3.312658,4.891517,5.680529,5.80976,7.823082,8.578025,9.197884,10.85126,12.36451,12.89951,14.49401,14.9229,15.83573,17.40285,18.63267,20.66502,20.18274,22.58855,23.71843,24.51147,24.97845,26.49755,27.85201,29.3048,29.90896,31.56412,32.73219,33.48057,34.81352,36.3619,36.41161,38.18004,38.04182,39.57228,40.01145,40.49888,41.23374,41.50873,41.96319,42.88414,43.35336,44.24374,44.37419,44.49721,45.37903,46.08485,46.82805,47.62231,47.29594,48.86986,48.94256,50.28581,50.28646,51.90141,52.69493,53.02684,53.98857,55.15398,55.84733,56.73567,58.19799,57.71681,59.23406,59.60047,61.13072,61.5113,60.0273,61.25664,60.54442,60.48785,60.93561,60.72346,61.36125,61.65329,62.21748,63.08731,64.28138,65.07333,66.61565,68.31781,69.05723,71.02992,71.82699,74.17476,75.47065,77.02909,77.65191,78.8273,80.2938,79.97006,81.24082,81.51984,81.771,81.25678,80.78778,80.83985,79.10465,78.23005,76.61024,75.1967,73.30939,70.5481,68.60774,65.25999,63.00189,59.17773,56.33649,51.9965,48.68001,44.44728,39.8569,35.56027,30.65819,25.52317,21.41733,15.96296,11.6272,4.951354,0.2055094,-6.014437,-10.89177,-17.19278,-22.51521,-27.70593,-33.33196,-39.56219,-44.87353,-50.08739,-55.70773,-61.23549,-66.25187,-70.89533,-76.09184,-81.08016,-85.10943,-88.8808,-93.65011,-97.68324,-101.482,-103.8573,-108.7132,-110.5861,-114.7133,-116.8067,-120.2314,-122.1771,-124.1941,-126.024,-127.9794,-126.6718,-126.4839,-125.7751,-125.3739,-124.0878,-123.5954,-123.7082,-123.6644,-123.783,-124.7044,-124.5867,-124.8789,-125.8493,-125.7308,-125.3469,-126.5248,-126.0242,-126.2035,-125.9703,-126.1445,-126.4697,-125.808,-126.2559,-126.1878,-126.9417,-126.7538,-127.9117,-128.2442,-127.474,-128.291,-127.0306,-125.8698,-125.0276,-123.0416,-121.3231,-118.665,-115.9878,-113.0187,-109.8296,-106.3603,-102.5186,-99.4268,-94.56696,-90.61638,-86.03504,-81.75066,-76.70598,-72.89431,-67.00772,-62.35064,-58.10766,-51.59268,-48.03926,-41.81351,-38.05028,-32.21561,-27.66789,-22.924,-16.89484,-11.9707,-6.561851,-1.51342,3.478946,8.70919,13.2892,18.13235,22.37086,26.84369,30.86867,35.01796,38.41876,42.8094,45.26835,49.18669,51.90823,54.71344,57.66364,60.08517,61.17715,63.2489,64.87131,65.48788,66.46892,67.30489,67.48735,67.584,66.48059,66.84967,65.99229,65.62284,63.44185,62.96471,61.22044,60.11406,58.28185,56.83456,55.08844,53.66656,51.78635,50.95362,48.80604,46.43571,46.24654,44.00139,44.04771,43.02726,43.74618,43.22263,44.44487,45.18197,47.73101,47.84621,47.87326,49.21679,47.68846,47.74816,46.60283,46.74478,46.05746,45.61789,45.91037,44.81047,45.01829,44.68335,44.56197,43.27059,43.70428,43.12763,43.19497,42.1973,42.22795,42.08276,40.96197,40.02791,40.14485,40.37412,39.46851,39.18827,38.35652,38.22861,37.19049,36.79127,36.84272,35.70063,35.51803,34.24534,34.45782,33.56311,32.82857,32.04834,31.57903,30.5714,30.6478,30.27014,29.154,28.73544,27.98124,26.63616,26.7418,24.60643,24.90026,23.28635,22.05922,21.74743,19.67135,19.618,18.07977,18.06466,17.48176,15.77595,16.07349,14.72529,14.24054,13.07408,12.28822,12.04574,9.96999,10.1378,8.648097,8.159318,7.148856,6.590508,4.829229,5.105189,4.603357,2.81732,2.804727,1.062875,1.086198,-0.6161256,-1.047978,-2.70567,-2.904555,-3.956451,-4.847677,-5.821111,-7.372258,-7.458029,-8.719567,-8.791206,-10.69925,-10.66565,-12.17839,-11.78679,-12.67353,-13.9462,-13.62367,-14.98003,-15.53516,-16.40598,-16.37986,-17.26687,-17.91044,-18.5133,-18.71227,-19.51447,-20.04204,-21.06224,-21.85126,-21.68759,-23.70102,-23.13336,-25.32818,-25.07984,-26.91797,-26.73951,-28.5529,-28.81632,-28.98461,-30.49848,-30.67683,-31.46021,-31.75951,-33.09988,-32.68517,-33.35263,-33.75656,-34.54807,-33.01803,-33.18537,-32.29119,-32.63813,-32.73918,-32.54505,-33.03263,-33.30124,-34.24444,-33.97066,-36.29118,-34.99607,-37.34777,-37.58634,-37.56325,-38.19772,-38.24457,-39.08824,-38.60978,-40.25256,-39.60693,-40.87583,-40.41379,-41.0376,-41.64017,-40.63568,-42.12252,-41.23611,-41.58321,-41.08608,-41.21835,-40.79407,-38.91581,-39.80519,-37.99202,-37.38909,-36.00027,-34.13535,-33.09988,-30.78535,-29.91939,-27.92544,-25.68303,-23.99342,-21.9018,-19.96231,-16.97634,-15.62372,-13.48419,-9.991143,-8.499306,-4.799505,-3.08791,0.05437717,2.646644,5.357586,8.47501,9.818451,13.8881,15.56984,19.10464,20.45041,24.32591,26.12308,28.92454,31.56402,33.35851,35.76779,37.43895,40.20692,42.12691,44.3239,45.53006,48.22606,49.40241,51.11431,53.40694,52.93825,55.96823,55.92799,58.19588,58.13493,60.7255,59.36418,60.38318,60.63828,59.68417,59.63453,58.79142,58.36468,57.60345,58.10652,57.14661,58.41242,56.62035,57.41411,57.70143,57.41149,57.19323,57.82681,57.83883,57.29738,58.74916,58.6485,57.86723,59.20147,59.72976,59.57348,60.21706,60.58158,61.9625,60.95753,60.75905,59.76106,59.2659,57.67392,57.52891,56.01828,55.44977,54.32842,51.90533,52.48245,49.43809,48.82222,46.93333,44.70071,42.33788,40.88872,36.99467,34.88488,32.04802,28.59472,27.00731,22.51922,20.68982,16.28884,13.90208,10.30992,6.649856,3.32436,-0.7720898,-2.49387,-6.468423,-9.499518,-12.96504,-15.74011,-19.13948,-21.72866,-25.66025,-27.71153,-31.80742,-33.42436,-35.88866,-38.58134,-40.77425,-43.48573,-44.69271,-47.1859,-47.90692,-49.89788,-51.46231,-51.95082,-53.36023,-53.44549,-54.90978,-55.24353,-55.74307,-55.96433,-56.26849,-56.28763,-57.3366,-56.53705,-57.1231,-57.28594,-57.50979,-56.40671,-57.06997,-56.31367,-56.67411,-54.94301,-55.15751,-54.0298,-52.44471,-52.00432,-50.10319,-48.4396,-46.91018,-46.22809,-43.68219,-41.9254,-41.48972,-39.56084,-38.92776,-38.67113,-37.80496,-37.80705,-36.32748,-35.32602,-34.30189,-32.18654,-31.05481,-28.62431,-26.06655,-26.04526,-23.4728,-21.78449,-19.28787,-18.51971,-15.76783,-15.07656,-13.25042,-11.58402,-9.295061,-7.988959,-6.831591,-4.370274,-4.081171,-1.396244,-0.5947949,0.2669078,2.274272,2.961635,4.282175,5.632812,6.95601,6.753251,8.666858,9.203125,11.02162,11.12033,12.61042,12.46399,13.39889,14.02514,14.04491,15.56205,15.51166,15.98568,15.93729,16.74816,15.81853,16.70334,16.19928,15.91224,15.59185,14.51002,15.39274,13.86262,13.86589,14.3539,13.43137,13.63581,13.00247,12.32866,12.48671,12.31878,10.76698,10.85656,10.84589,10.36882,10.11637,9.928385,10.09746,10.41455,10.18516,10.72106,12.07835,12.15741,13.26573,15.16608,15.77441,16.57735,18.59147,18.86365,19.84558,21.08297,21.80803,22.6459,23.29232,24.79959,23.95503,25.75466,25.64639,27.10517,26.63575,28.70154,27.68727,28.18997,28.89045,30.88724,30.03955,31.51827,31.79921,33.10564,34.06192,34.74058,35.49738,36.87762,37.36989,38.66251,39.06448,39.93212,40.18633,41.14241,43.09581,42.78987,45.01918,44.59599,46.33838,47.9296,47.56258,47.83649,48.21105,47.63815,49.09241,48.60184,50.0659,50.06761,51.86114,52.15378,55.4364,56.54866,58.95903,60.65917,62.94443,65.27621,67.44299,69.57507,71.23167,73.9441,76.13817,76.85896,79.55691,80.37111,81.79359,82.04873,83.6204,83.67332,83.93812,83.29179,83.61315,81.2059,81.49983,79.98501,78.69398,76.87014,74.3594,72.05959,69.0411,66.17741,62.66739,59.34342,54.65312,51.84966,46.20752,42.30242,38.20104,32.74138,28.20516,23.84572,16.92418,12.89757,7.027253,0.9466866,-3.659114,-10.60748,-16.42685,-22.06006,-27.58619,-34.27269,-38.69791,-45.95503,-50.49899,-55.98335,-61.49615,-66.06827,-71.60035,-75.64435,-81.4465,-84.6778,-90.40156,-94.01867,-97.55492,-102.3453,-105.1062,-108.3881,-111.7307,-114.3036,-116.6871,-118.8434,-121.5968,-122.4986,-124.0357,-125.2219,-126.9035,-124.8787,-124.7424,-123.3412,-122.1541,-120.3609,-120.1109,-119.0654,-119.3368,-118.3227,-117.859,-118.0948,-116.8772,-116.9175,-117.4074,-116.8212,-116.123,-117.5368,-116.4894,-117.4291,-116.527,-117.6378,-117.4789,-118.532,-119.1726,-119.4201,-121.2131,-121.2231,-120.7771,-121.5673,-119.8292,-120.0955,-117.787,-117.4113,-114.7688,-112.7735,-110.0185,-107.5722,-105.4742,-101.5666,-97.88746,-94.56438,-90.63309,-86.20645,-81.70938,-76.84912,-72.35729,-67.79556,-62.50722,-57.79259,-52.87315,-47.21639,-42.1999,-36.54772,-31.80594,-25.77578,-19.98805,-15.31468,-9.017331,-3.453184,2.137744,6.897016,13.54574,17.67445,23.39161,29.21267,32.8438,38.41416,42.667,47.44596,50.4751,55.4699,59.50085,61.65777,66.19058,68.34729,71.11128,74.11858,76.2889,78.20383,79.66309,81.52796,82.28805,84.24812,84.357,84.8901,85.69163,85.35207,86.1444,84.76355,85.08836,83.08623,82.57481,81.09549,78.79174,79.09387,75.8551,75.18363,72.78495,71.42903,68.57977,67.73626,65.38633,63.53303,61.76948,60.45883,59.0522,59.16842,58.55362,59.88239,59.16163,62.77882,61.70991,62.50155,61.51032,61.4663,61.00187,59.09904,58.51291,58.06819,56.5817,55.73362,55.00911,53.13615,51.88179,51.15444,49.98611,47.80521,47.18489,45.33753,44.96262,43.88012,41.2461,41.04298,39.81882,37.88605,36.56983,35.41462,34.15537,32.51192,31.81797,29.63193,28.90907,27.28461,26.18509,25.04945,23.22984,21.85626,20.66815,19.58365,17.86075,15.87192,15.5287,13.57508,11.38999,11.30119,9.574104,8.102443,7.289346,5.949257,3.929006,3.948398,1.821038,0.6576755,-0.6342289,-1.896253,-3.195526,-4.480674,-5.604131,-6.592344,-7.502882,-9.526325,-9.173197,-11.34997,-11.61644,-12.79864,-14.46077,-14.92487,-15.87366,-17.52769,-18.75719,-19.74886,-20.88749,-22.49745,-23.46561,-25.18472,-25.92737,-26.84016,-27.75324,-28.90323,-29.6116,-30.03375,-30.74231,-31.30521,-33.39031,-33.42493,-34.13951,-34.80469,-35.72955,-37.6496,-36.5843,-39.57154,-38.69029,-40.03075,-39.43599,-41.77341,-42.13987,-42.26086,-43.78441,-44.75959,-46.28415,-46.06087,-47.87009,-48.90274,-49.00585,-50.39205,-50.53302,-51.46166,-51.69988,-51.8066,-53.76378,-50.62888,-52.14052,-51.17538,-51.79324,-51.39564,-52.26518,-52.94808,-52.81121,-55.00398,-56.55361,-57.23808,-60.55509,-61.78305,-63.29629,-65.97669,-67.96658,-69.91167,-71.77101,-73.52883,-75.50726,-77.23109,-79.58224,-80.19245,-82.25379,-83.86043,-84.17896,-84.92364,-85.31824,-85.18188,-85.07719,-84.70197,-84.11889,-82.18888,-82.48024,-79.88905,-79.35177,-76.08455,-74.3882,-72.33966,-69.1949,-65.79855,-63.5691,-59.36534,-55.24742,-51.08384,-46.91321,-43.03267,-37.80156,-34.00254,-29.15779,-23.68686,-19.85923,-14.17212,-9.287731,-3.636798,1.40719,6.905039,12.21407,17.84177,23.01899,28.07636,35.49137,38.30142,45.11268,48.99684,53.89833,58.95074,63.71256,67.09247,71.65516,75.26255,78.6044,81.83364,85.71921,88.13361,91.3164,93.59864,95.88943,98.09496,100.0609,100.6496,102.414,102.9563,103.4136,104.9199,104.894,105.124,105.1269,103.951,104.6161,101.27,100.7438,98.74769,97.04231,94.43033,95.12438,92.78431,92.70129,91.95222,92.1907,92.6673,91.47052,93.03904,93.03554,94.04796,95.65203,95.87541,99.17865,100.872,103.1563,106.6993,106.4324,109.3897,109.9867,110.5965,111.6703,112.7975,111.7314,111.4593,111.1032,111.0126,108.1973,107.9003,106.7354,103.5572,102.5167,99.74154,96.83392,95.02218,91.03746,88.25348,84.34808,79.80807,77.0563,71.7741,67.85414,64.25892,59.41217,55.85153,50.09324,45.68221,41.8641,35.78342,30.96627,26.82805,21.60874,16.9502,11.60449,7.221568,2.048894,-1.472195,-9.076138,-10.92168,-16.69754,-21.05178,-25.00764,-29.84915,-33.74716,-37.85826,-41.52699,-44.4581,-48.57436,-51.06498,-53.72614,-56.50643,-58.6546,-60.70974,-62.8664,-63.82906,-66.22372,-65.77021,-67.29945,-69.09641,-68.0943,-68.64311,-67.95668,-67.07371,-66.70054,-65.84091,-64.78008,-63.1612,-62.46998,-59.73323,-59.51345,-57.00741,-55.13089,-54.55246,-51.90958,-50.02133,-49.24219,-47.8192,-45.88116,-45.00586,-44.25045,-41.85547,-42.87301,-41.80098,-42.93295,-42.53672,-43.75159,-44.60688,-44.77413,-45.15156,-45.75931,-44.12082,-44.61512,-44.3854,-43.48933,-43.13373,-42.72556,-42.49784,-42.7095,-40.7364,-41.7794,-39.65029,-40.24438,-39.57791,-37.98453,-37.68594,-37.53436,-36.36388,-36.22346,-35.58931,-35.44773,-34.75944,-32.92361,-33.02935,-32.43128,-31.68974,-30.84648,-30.2678,-29.39162,-28.43397,-28.21724,-27.09436,-26.34053,-25.5942,-25.40217,-24.89817,-24.23136,-24.40077,-22.98199,-23.4745,-20.68802,-22.69087,-19.61811,-19.94832,-18.63801,-18.48586,-17.63104,-16.75176,-15.67691,-16.49731,-14.08598,-14.05159,-13.48078,-12.33612,-10.904,-10.92865,-9.322731,-8.792878,-8.606512,-6.234039,-6.488318,-4.922985,-4.211703,-3.659888,-3.164584,-1.797824,-1.696193,-0.3642656,-0.9387164,0.4846841,0.944446,0.7825529,2.870439,1.413214,3.173192,3.791853,3.269052,5.795096,4.337197,6.496656,7.382685,8.226669,9.324969,10.31794,10.75654,11.92102,12.93761,14.12034,14.72773,16.47044,15.85293,19.84594,17.7251,20.66232,20.65228,21.86388,21.80104,24.42067,24.49079,25.58212,26.34879,27.63545,27.50531,29.94464,29.98435,31.67599,31.89893,33.24049,34.48135,34.67701,36.35731,38.65308,38.30341,40.2035,41.41739,42.29367,42.51795,44.06769,43.61987,44.30429,43.94727,44.31566,43.74373,44.57454,44.03422,44.83495,44.28106,45.2676,46.02488,46.3304,48.39474,49.77395,51.7354,52.31623,53.73258,55.26956,56.48456,57.77002,59.41578,59.58011,60.57622,62.27756,61.71295,62.96461,61.86861,62.56107,63.10943,61.90028,63.21445,61.68434,61.69,59.24819,58.62948,56.6919,55.40635,52.88703,51.51628,48.43863,47.41407,43.64467,42.43786,38.99477,36.55854,34.10127,31.33067,26.97882,24.97111,20.88123,18.12126,14.26129,10.4335,7.33539,2.44659,-1.428525,-5.309734,-9.212301,-13.59925,-17.28734,-21.61015,-24.82381,-30.45536,-32.70115,-37.83789,-41.58647,-44.82108,-49.53336,-52.77053,-56.43987,-59.66692,-62.08592,-65.99684,-68.66855,-71.50358,-74.00825,-76.31341,-78.37153,-80.29846,-82.24469,-84.03513,-83.60006,-84.52065,-84.07713,-85.61465,-85.63733,-87.60481,-88.00367,-89.1091,-90.03922,-92.05081,-91.83688,-93.63488,-93.60579,-94.23714,-95.11097,-95.20857,-95.89892,-95.49765,-95.251,-95.262,-94.93459,-94.1213,-93.3168,-94.01073,-92.72652,-91.71745,-92.65651,-91.414,-91.51728,-92.03105,-90.6614,-90.30938,-89.21618,-87.45238,-85.79344,-83.95366,-81.69985,-79.46816,-76.60645,-73.91397,-70.21691,-66.41069,-63.33853,-60.14643,-55.60361,-52.99105,-48.55155,-45.05939,-40.58338,-36.22434,-31.68971,-28.21217,-24.07338,-19.87474,-15.40307,-11.17678,-6.024547,-2.57788,2.423823,6.692753,9.512166,14.07118,16.93255,20.76384,25.20877,29.14147,33.08157,35.81595,39.49834,43.29937,45.98164,48.95914,51.96269,53.76539,56.93498,59.61201,60.89971,63.37591,64.74156,65.98108,68.00626,67.31748,70.12958,69.00801,70.25462,70.08319,70.32012,69.45884,70.33641,68.59851,68.38265,66.89874,66.91567,63.94976,64.4943,62.55691,60.58943,59.7092,57.73733,56.98632,55.16237,53.8348,53.38911,51.07954,51.58517,49.79357,50.50772,49.40441,49.43431,50.52716,50.58277,50.35031,48.84289,48.24916,46.52367,45.0185,44.24946,41.8843,40.89829,38.83512,37.19254,34.31084,32.44978,29.89054,28.15201,27.0654,24.08813,23.02529,19.83075,18.52284,16.66044,14.32847,12.97366,10.9501,9.571882,7.44856,5.647515,4.158445,2.147956,0.2452961,0.3604298,-1.995112,-2.929195,-3.75302,-5.339462,-6.017457,-7.164843,-8.386728,-9.411746,-9.744757,-10.26259,-10.84132,-12.14594,-11.88185,-12.29572,-14.56095,-11.95318,-14.98274,-13.07945,-14.64428,-13.50495,-14.44534,-14.50991,-12.94257,-14.1187,-12.43163,-13.16415,-12.96143,-12.06155,-12.36974,-12.34819,-11.09407,-10.6697,-10.48723,-9.986041,-8.997916,-8.74625,-9.681582,-7.66357,-8.98711,-7.026517,-8.709836,-5.968059,-8.637733,-6.288305,-7.095228,-7.70334,-6.888909,-8.144701,-7.164485,-8.465801,-7.995631,-8.630867,-9.990108,-9.747544,-10.3972,-10.72685,-11.75659,-12.20028,-13.49202,-13.59937,-15.01724,-16.36599,-17.23591,-17.61096,-19.5639,-20.19608,-21.39993,-22.22842,-22.78062,-24.98512,-23.9925,-26.87152,-27.2438,-28.4197,-28.96369,-30.07259,-31.12577,-32.07828,-33.03428,-34.62287,-34.60863,-36.50156,-37.02922,-38.02488,-39.57919,-39.55163,-41.39902,-42.67927,-44.26511,-43.44079,-44.41737,-44.70576,-44.98685,-45.49957,-46.38905,-47.73554,-49.10791,-50.44919,-51.54202,-54.18565,-55.65909,-57.47922,-60.13748,-61.82027,-64.62972,-66.25041,-68.94731,-70.6623,-71.74298,-73.64121,-75.10298,-76.29906,-76.66715,-78.01836,-79.13556,-79.35132,-80.00354,-79.0245,-80.00677,-78.90314,-78.121,-78.18345,-75.95161,-75.00297,-73.89001,-69.52213,-70.35351,-64.90149,-64.91217,-59.44968,-58.195,-53.80351,-49.79802,-47.26096,-42.34409,-39.27381,-34.2095,-30.64214,-26.04381,-21.99201,-16.5593,-12.09473,-7.830155,-2.881628,2.200836,6.778327,11.78765,16.85745,21.48234,26.91767,30.98915,36.37626,40.03757,45.53698,48.74672,53.67627,58.30651,61.65365,66.84878,69.20404,73.04781,76.64658,79.19367,82.37437,84.79887,87.21875,89.33352,91.26208,93.308,94.13452,95.21245,96.47496,97.41844,98.64013,99.21181,98.52154,98.40136,97.5642,96.53563,94.89053,94.76581,92.13796,93.3553,92.02392,92.48307,92.06421,92.69495,92.3914,93.94457,93.23909,95.32556,96.02893,97.28173,99.41314,99.70024,102.7088,103.7015,106.5927,108.3364,111.3465,111.1626,112.6383,113.2638,113.4596,113.9655,112.833,112.8203,112.5353,110.0772,109.4036,106.0573,105.2595,102.1861,100.3682,97.39855,94.00805,91.50248,88.72675,85.36978,80.74451,77.76459,73.92312,69.31991,65.47788,59.69128,57.12482,51.71381,46.34309,42.1748,37.29808,32.27749,27.28972,23.5824,17.90564,14.06678,9.101824,3.262155,0.5348231,-5.197777,-8.789525,-13.36639,-17.62323,-22.1066,-25.27523,-29.19229,-32.46165,-35.89146,-39.04359,-41.50126,-44.6572,-45.42887,-48.98248,-50.18636,-51.69387,-52.90429,-53.28691,-53.85342,-55.22649,-53.9308,-54.58838,-53.93285,-53.39645,-52.51723,-51.30848,-49.34828,-48.00531,-47.0013,-44.65106,-42.6655,-40.54213,-40.17848,-35.97638,-36.32918,-32.4306,-30.89254,-28.79056,-26.40834,-25.24198,-23.93819,-22.25392,-21.94278,-20.55505,-20.22516,-19.54491,-20.02607,-20.50352,-20.84749,-21.63741,-21.27081,-22.02721,-21.91082,-21.45861,-21.08221,-20.97801,-20.54768,-20.06089,-20.46707,-19.03522,-19.84294,-19.6578,-18.6087,-18.0818,-18.1174,-17.33952,-17.51602,-16.99404,-16.57735,-16.55796,-16.56097,-16.42301,-16.0856,-16.92553,-15.7503,-16.95186,-15.97095,-16.61989,-16.11259,-16.48842,-16.79326,-16.87797,-17.8445,-16.29651,-17.76607,-16.82646,-17.6019,-17.96573,-17.06965,-18.18513,-17.25928,-18.00932,-18.12902,-17.51805,-18.87969,-17.60427,-18.81249,-18.05453,-18.78192,-19.67841,-18.37912,-19.50636,-19.56105,-19.06274,-20.47682,-19.16069,-20.46843,-20.47732,-21.09964,-20.75603,-21.88125,-22.62878,-22.24663,-23.764,-23.60825,-24.13772,-25.01028,-24.91511,-25.78384,-25.02817,-26.81984,-26.3248,-26.26801,-27.7243,-27.02406,-26.88038,-27.57381,-27.02044,-28.44829,-28.28968,-27.42978,-28.30209,-28.68367,-27.91258,-28.92455,-28.4268,-28.16836,-29.66795,-28.55143,-28.35648,-29.35989,-28.57421,-30.80104,-28.85977,-30.70888,-29.72736,-30.01505,-30.28396,-30.57121,-32.05947,-31.06473,-31.78568,-32.43344,-31.97886,-32.45532,-32.67546,-32.4257,-33.18997,-34.82233,-33.61427,-35.56727,-35.41533,-35.80056,-36.30336,-37.38759,-37.78811,-38.93755,-39.44785,-40.92218,-40.78087,-42.68164,-41.57413,-42.08626,-41.60823,-41.57299,-41.52551,-42.08508,-42.0445,-42.27297,-44.72941,-43.95226,-47.85485,-46.85218,-50.52999,-50.813,-54.04407,-54.62844,-56.95172,-59.14849,-60.69486,-61.64715,-64.41205,-65.36795,-66.49844,-68.18406,-67.45711,-69.50856,-68.02884,-70.00967,-68.18225,-68.78569,-68.47915,-67.26836,-66.30617,-65.11941,-63.58643,-61.60954,-60.52939,-56.41068,-56.41986,-51.04271,-49.8589,-45.88479,-42.75933,-40.21405,-34.4692,-33.02856,-26.78711,-24.38956,-18.50672,-15.80224,-10.18198,-6.103648,-0.4745427,2.938378,9.557447,13.66128,19.80242,24.36588,29.35509,34.23461,40.51565,44.16996,49.87391,53.68523,59.04801,62.80528,67.83145,71.35411,76.7145,79.79631,84.53592,87.16822,90.66622,93.42973,97.01451,99.24233,101.8198,105.0618,105.1991,107.4457,109.5211,108.3202,111.5774,109.9642,112.5378,111.0471,112.1433,111.5272,110.5979,110.4555,107.095,107.1296,104.3417,102.9414,101.8732,100.6218,99.53409,98.5451,98.94824,97.10404,98.18401,97.43711,96.64978,96.91482,96.61342,98.10182,97.99557,99.36375,99.99992,100.9708,103.6787,103.498,105.8765,105.8635,105.992,106.512,106.5554,105.5342,104.7719,105.1163,101.8364,102.414,100.2487,97.69499,95.77721,93.26885,91.28909,87.7591,86.95792,82.92585,79.81421,77.04512,74.1001,70.29868,67.37235,62.72142,59.60126,55.36184,51.49732,46.75592,42.79732,38.45799,33.12647,30.00247,24.86556,20.47948,16.40051,12.74374,6.84743,4.459876,-1.661788,-4.008752,-9.328196,-12.21683,-16.33955,-20.42995,-22.8918,-26.94878,-29.30927,-34.09158,-34.74776,-39.06827,-39.87398,-44.23858,-43.67868,-47.29893,-46.9017,-49.78035,-49.87695,-51.18215,-51.26295,-52.48844,-51.63587,-52.09041,-51.39218,-50.84783,-49.88851,-48.79409,-47.17825,-46.91687,-44.54478,-43.97574,-41.05405,-40.56112,-37.8278,-36.87818,-34.55376,-32.43808,-32.83051,-29.44576,-30.16692,-28.04077,-27.17531,-26.35323,-24.5896,-26.23892,-22.70159,-26.25639,-25.42273,-27.12773,-28.02752,-26.8613,-29.71537,-27.10906,-29.33462,-28.5138,-29.16516,-28.35595,-29.15217,-28.88377,-29.14154,-29.23203,-29.19851,-29.65605,-30.20413,-30.25497,-31.46932,-31.0663,-31.74628,-31.27533,-32.19269,-32.39031,-32.4507,-33.07298,-33.28836,-32.93677,-33.56225,-34.0152,-33.94205,-34.17517,-35.58759,-34.18278,-35.61529,-36.05047,-36.54096,-35.90707,-36.76132,-36.8961,-36.62279,-38.2203,-38.45126,-37.88169,-38.82643,-38.18617,-38.47165,-38.83763,-37.42102,-39.31391,-38.22696,-38.60817,-38.98801,-38.47238,-39.02,-37.31676,-39.06894,-37.68368,-37.67331,-37.57368,-36.85469,-36.85653,-36.46299,-36.32603,-36.14655,-35.40429,-36.00013,-35.17441,-34.69514,-35.4338,-34.04123,-35.3939,-33.80797,-34.92075,-33.08914,-34.33922,-32.70199,-33.78807,-33.43093,-33.53476,-33.34077,-33.4545,-32.39882,-34.14286,-31.52874,-33.82682,-32.54332,-33.51095,-33.23592,-32.89082,-33.78921,-34.10454,-33.82975,-33.39765,-34.07561,-34.31219,-33.56206,-34.15315,-34.2122,-33.20476,-35.5317,-32.85171,-35.03306,-31.97641,-33.3848,-31.54767,-31.44131,-31.0661,-29.37402,-31.01301,-27.31696,-28.36955,-26.566,-26.70645,-27.61128,-25.82304,-28.5988,-26.27447,-29.24431,-27.48825,-30.57858,-29.17397,-31.22412,-31.45234,-31.44963,-33.52692,-32.5406,-34.59181,-34.23079,-34.75104,-34.29851,-35.25863,-35.58213,-34.81093,-34.88164,-33.9404,-33.36697,-31.80868,-32.13273,-30.4035,-29.04323,-27.89078,-26.1992,-25.56686,-23.28712,-22.06546,-19.95506,-18.23915,-16.93979,-14.00022,-12.24225,-9.354785,-7.669971,-3.612951,-2.271779,2.026811,3.903924,6.42918,10.14968,10.96347,16.30864,17.14548,21.52798,23.79016,27.07285,30.63234,32.80879,36.05034,38.80024,41.50353,44.81677,46.71485,49.76149,52.42238,54.60072,57.20929,59.7047,61.79308,64.21269,65.82741,68.84371,69.14237,72.05066,73.47912,74.57838,75.6986,77.26293,77.33364,78.60581,78.81508,79.50303,79.75173,78.97828,79.62653,79.77726,77.74314,79.07493,76.89284,76.19444,73.81072,71.72239,70.31013,68.98456,66.74504,66.58435,64.34783,64.45056,63.31779,62.38516,62.66777,62.81591,63.40714,63.12899,63.91641,63.83949,66.01966,66.28594,67.31285,67.77151,69.8579,70.51365,70.59669,70.38922,70.10557,69.4218,69.13958,68.60929,68.18383,66.09534,66.38204,64.02893,63.41134,61.84276,59.2647,59.21106,55.55454,55.19259,50.98691,50.28494,47.2864,44.64474,42.99383,39.73428,37.16123,34.8591,31.25182,29.82986,26.30054,23.57476,20.48777,18.18455,14.54843,11.86779,7.614889,5.012447,0.8865456,-1.699519,-6.124736,-9.204022,-12.01331,-16.95179,-19.0385,-22.81117,-25.22966,-29.61335,-31.53211,-34.69693,-37.34801,-40.10271,-42.85789,-44.2648,-47.5589,-48.44164,-51.3766,-53.18652,-54.19938,-57.1996,-57.39492,-58.65068,-59.87465,-60.29408,-61.49464,-61.35533,-61.87937,-63.04098,-62.75034,-61.3799,-61.96848,-60.93916,-60.2077,-59.27673,-58.93613,-56.293,-56.22142,-54.90948,-52.8326,-51.90046,-50.18649,-48.57784,-47.74829,-45.8973,-45.14532,-43.55645,-41.38923,-42.35418,-39.65948,-40.54897,-39.29063,-40.80003,-39.9633,-39.84156,-38.31287,-38.47009,-36.95423,-36.20774,-35.95902,-34.17945,-34.31749,-32.7447,-31.47052,-30.20667,-31.11738,-28.43111,-29.25679,-26.98688,-26.80539,-25.73127,-25.02079,-23.43719,-22.78342,-21.49377,-21.92706,-19.80959,-20.13087,-18.5749,-18.39392,-16.72921,-16.87201,-16.19889,-14.90672,-14.64781,-13.61705,-12.66551,-11.457,-10.55983,-9.166217,-8.86841,-7.990472,-5.948508,-6.279101,-3.232506,-3.305234,-1.315812,-1.1189,1.529407,1.486919,4.875703,4.386343,7.327443,7.005933,9.131759,9.146324,10.78748,11.90443,11.81881,13.99073,14.25124,14.5693,16.4475,17.00577,16.4561,19.18104,18.87879,20.39208,20.36069,21.3641,21.79519,22.71978,22.73506,23.93594,23.91945,24.29484,24.95435,25.04382,24.9678,26.61026,25.05592,27.39924,25.97149,26.46547,26.11198,26.45351,26.62682,26.62346,26.33375,27.48358,28.19326,26.69998,28.26493,27.43083,27.77786,27.30976,28.74536,27.43613,28.96959,28.09815,28.97589,28.99292,28.52198,29.83305,28.03044,30.33704,29.0996,31.01893,29.7882,31.48874,29.94731,31.96086,31.16927,32.54521,32.3579,33.34236,33.34935,35.20024,33.22962,36.04979,35.2719,35.85025,37.37845,36.21169,36.31667,35.463,36.78104,35.74877,36.60547,36.52628,36.99235,37.77252,39.2207,38.5646,40.98898,40.50908,43.44812,42.79145,45.93215,45.45035,47.42853,48.08381,50.38028,50.90527,52.41941,53.16292,53.82853,55.53279,54.9809,56.96616,54.87935,57.08529,55.51723,55.82922,55.5662,54.11753,53.80806,52.27085,52.14071,49.66297,48.8271,46.29014,45.38102,42.13712,40.59228,37.6543,35.7062,33.58302,29.32919,28.70941,23.37932,20.52674,17.92405,13.83313,11.0419,7.013863,4.324852,0.9766732,-3.804132,-6.775805,-10.42075,-14.1066,-17.88462,-22.13715,-25.8206,-29.69702,-34.00963,-36.491,-41.31754,-43.69281,-48.49002,-50.45453,-54.62403,-56.68009,-59.56143,-62.0869,-64.75827,-66.49759,-68.60873,-71.02525,-73.30012,-75.56544,-75.94,-79.00227,-79.09949,-81.18289,-81.84757,-82.86145,-82.77213,-83.53125,-81.04483,-81.61045,-80.09742,-78.65275,-80.00949,-77.81332,-79.60773,-77.12988,-79.1899,-77.419,-78.45919,-77.62803,-78.09632,-78.38111,-78.78803,-79.26411,-79.67359,-81.19834,-81.51701,-81.26531,-82.99431,-84.51936,-84.6399,-86.27052,-86.937,-86.45972,-88.56875,-86.64621,-87.98931,-86.95303,-86.93654,-85.95471,-85.99008,-84.52965,-82.48356,-81.51861,-79.84568,-77.56453,-75.9411,-74.71457,-71.00871,-69.30491,-65.56153,-64.49311,-59.35883,-58.6486,-53.56631,-52.27491,-47.39502,-45.5273,-42.43534,-37.91925,-35.71392,-30.75798,-28.44825,-24.02515,-21.16666,-16.79837,-13.24628,-11.33901,-7.048291,-4.260355,-1.951313,2.483972,3.353289,8.118399,9.24687,13.16005,14.03774,17.76238,17.96234,21.19059,22.42584,25.55118,25.37192,27.44301,28.38661,30.09187,29.32883,31.52903,30.6455,32.23371,30.60328,31.35067,30.3022,30.57129,29.30129,28.87405,28.40874,26.49694,26.1853,24.55751,23.39329,22.78011,20.27412,20.21884,17.00417,17.55643,14.28334,13.67511,12.41463,10.99295,9.780948,10.01522,8.660076,9.306872,8.419795,10.7489,10.16511,12.67663,12.87004,12.68396,14.44665,12.77581,13.73266,13.28772,14.21729,14.25152,13.52503,15.19004,13.93599,15.23631,15.39572,15.03138,16.57039,15.82833,17.31046,16.60419,18.8659,17.09917,19.82335,17.47757,20.87474,19.93822,20.95506,21.56184,21.21901,22.98473,22.20916,23.56715,23.92416,24.26993,24.91851,25.52393,26.17569,26.20256,25.74344,27.14163,26.76363,26.87089,29.64404,26.8252,30.57601,27.58968,30.47954,30.22146,30.42789,30.01425,31.77414,30.37829,32.09635,32.87977,31.86978,32.97324,32.79522,33.45791,33.61455,33.09903,33.29586,33.24583,33.1533,34.01533,32.21213,34.53394,31.85516,34.16746,32.09697,33.69515,32.06181,33.44205,31.68068,33.6408,30.95417,32.92303,29.89559,32.38439,30.01661,32.10209,29.32692,31.38382,29.48154,30.11129,28.34557,30.31667,27.96407,30.07556,27.8933,29.59904,28.80963,28.05312,29.73794,28.40808,28.76201,28.68179,27.7275,30.1157,27.08788,29.71627,27.40743,29.79624,28.44653,28.93547,27.88872,30.56088,28.47691,29.86695,29.4763,30.16447,29.13433,30.57729,29.7887,30.40188,31.18767,29.21691,31.76377,30.00243,31.60296,30.3711,31.22651,31.54318,31.10343,31.66607,29.80117,29.05499,29.39713,27.06088,28.83664,26.84164,28.00299,27.16219,29.63433,27.37562,30.9018,28.1706,30.99772,30.74804,31.46118,32.62313,33.06955,33.43933,34.14524,33.88131,34.52741,36.02562,35.03586,36.02043,35.35338,37.56019,36.31177,36.49365,36.68974,35.37211,36.42855,33.5484,34.98437,33.17233,30.86925,30.26876,27.62757,27.37368,24.4558,23.45998,20.12157,18.90108,16.27707,13.44093,11.88743,7.617202,6.608661,3.731871,-0.1566291,-0.4555923,-6.411301,-6.979229,-11.94408,-13.56863,-16.64068,-20.11821,-23.24536,-25.86355,-29.56865,-31.06342,-36.75611,-37.78104,-42.55814,-43.54677,-48.1146,-49.51845,-53.86425,-55.54778,-58.93327,-60.85605,-63.49935,-64.88818,-68.43432,-68.8399,-71.32147,-72.6403,-74.04336,-76.49893,-76.06242,-79.03071,-77.7958,-78.79824,-79.77768,-78.33981,-80.67605,-79.05261,-80.39985,-80.14366,-81.27044,-81.28288,-81.44726,-79.92287,-81.71427,-80.65066,-80.13891,-80.79391,-79.46833,-80.31453,-78.80658,-79.62469,-78.13901,-79.26724,-77.82442,-78.75671,-77.40678,-78.00981,-76.42222,-78.02208,-76.65394,-78.04578,-76.85779,-77.16803,-74.92236,-75.17399,-72.16448,-72.73762,-70.0858,-69.19642,-66.91759,-66.13926,-63.37379,-62.42274,-59.79762,-57.14677,-56.7488,-51.1575,-52.24327,-47.47644,-45.90056,-42.36859,-39.39173,-36.81999,-34.49382,-31.59003,-27.1974,-25.86659,-22.24132,-20.93354,-16.48662,-14.43623,-11.11119,-9.16621,-5.17376,-3.63794,0.9335644,1.439191,7.157552,7.256416,12.16494,13.73915,16.22344,18.88801,20.63824,22.76462,25.18754,26.84312,28.72501,30.40951,31.7673,34.26712,34.87628,36.82169,38.9617,38.9874,41.83647,40.79561,44.23437,43.32521,46.0072,45.35777,46.59349,46.85896,47.18803,47.26267,47.30662,47.24969,47.13108,46.79719,47.07405,46.50695,46.49764,46.20117,46.01937,45.66256,45.66162,45.02354,45.77332,44.58403,46.60206,45.01667,47.24806,45.79865,45.73874,47.26601,44.64849,46.15232,43.87694,43.8819,43.10957,42.18366,41.88651,41.69575,40.01296,39.60228,38.86326,36.93234,37.33602,34.40485,35.6103,31.58155,33.71376,30.09669,30.96916,29.17788,29.167,28.09354,27.2848,25.70467,26.45339,24.32191,24.74594,22.25186,24.69588,19.8647,23.08491,19.66978,21.48219,18.84722,20.47647,17.14301,18.61257,17.20939,16.17026,16.93022,15.31303,16.26176,13.33539,14.98679,13.22438,13.02328,11.65394,10.66999,10.97425,8.455492,9.383096,5.250471,7.917922,3.964282,6.49916,2.773015,5.405428,1.418536,3.028162,0.4277982,1.580424,-1.250017,0.2889354,-1.871483,-1.894813,-3.185967,-4.537942,-4.726092,-7.235962,-6.986324,-8.74081,-9.582934,-10.60461,-10.60001,-12.20918,-12.5542,-12.89816,-13.31978,-13.76075,-15.05052,-14.99233,-14.94086,-15.83434,-15.77473,-16.11572,-16.95245,-16.83221,-17.4803,-18.73516,-18.30091,-19.60587,-20.20115,-19.89137,-21.9793,-19.74508,-23.27743,-21.13598,-23.29915,-22.93324,-24.49628,-24.42483,-25.38072,-25.53129,-26.6287,-26.92232,-28.05575,-28.25186,-29.41783,-30.69472,-30.38929,-33.50757,-32.27635,-35.09027,-34.65434,-37.0908,-37.19876,-38.46743,-39.37646,-40.15946,-39.92993,-39.668,-41.17593,-39.51458,-40.93345,-41.25573,-43.49894,-43.61188,-46.78477,-46.68224,-51.0518,-51.50336,-55.12342,-56.75824,-59.10055,-61.03845,-63.47252,-65.25742,-67.4,-68.53667,-70.94478,-70.9409,-73.90265,-72.93695,-76.08587,-74.23924,-76.76974,-74.9118,-76.12256,-75.3082,-74.36359,-74.17179,-73.1937,-71.9616,-69.97935,-68.68386,-66.25457,-63.878,-61.50362,-58.21586,-56.42352,-52.33737,-48.41134,-45.2834,-40.73961,-37.07953,-33.55593,-28.97152,-25.92292,-19.29774,-16.83247,-11.06932,-7.504249,-1.927668,3.72121,5.587483,13.85198,14.09924,22.62258,24.50297,31.05545,33.63031,38.72623,42.63614,46.25858,50.59716,54.39276,57.89929,61.15079,64.30425,68.30337,70.58778,74.86693,75.38887,80.34071,80.89518,84.17913,84.00235,87.68937,86.47269,89.61882,89.08203,90.01608,91.1282,90.14329,92.31476,89.73207,91.72959,89.11335,89.20336,86.51191,84.96832,82.17624,80.4787,78.07874,77.1876,76.16717,74.49875,73.88577,73.91014,73.35816,73.24456,73.99661,74.17608,75.24461,75.56561,78.13752,78.65904,81.69914,84.16831,85.44413,88.14283,88.03355,90.78402,90.65319,90.02391,91.37009,90.42484,91.37564,89.88849,89.32022,89.0617,87.4289,86.11288,85.04994,82.35314,81.18363,78.07817,76.72726,74.19038,71.90467,68.14867,65.78621,61.73627,57.93857,54.47359,50.56551,45.54535,42.41738,37.73602,33.25131,29.03974,24.11706,20.20905,14.79835,10.51153,5.854603,0.8032926,-3.701601,-8.704347,-12.70477,-17.94562,-21.3731,-28.60795,-30.29998,-37.20505,-39.80101,-44.87787,-46.90853,-52.84846,-55.6513,-59.13052,-62.01168,-65.10653,-67.45815,-71.25989,-70.93876,-75.20197,-74.45786,-78.00425,-76.01497,-80.85438,-79.16927,-81.1601,-80.36453,-81.3037,-80.6622,-81.52503,-78.86414,-79.86488,-77.37598,-77.11375,-75.93509,-74.59454,-72.62668,-70.90517,-70.6406,-68.24178,-66.77505,-65.97246,-63.40584,-63.21249,-62.37334,-60.42835,-59.74561,-58.01396,-57.86743,-57.75865,-57.69248,-58.26625,-57.63563,-58.35031,-57.18782,-57.48594,-55.39308,-55.17878,-52.61258,-53.82586,-51.54994,-51.28427,-50.04266,-48.5102,-48.04614,-45.69296,-45.85386,-43.37617,-42.91291,-40.32324,-40.2172,-37.56196,-37.50371,-34.05373,-35.06859,-32.09834,-30.80372,-31.38542,-27.21765,-28.83838,-24.50869,-25.54534,-21.88092,-21.88116,-19.49887,-19.23883,-15.82656,-16.7565,-11.89533,-12.82157,-8.908632,-9.283102,-6.004218,-5.715874,-2.898616,-1.983884,0.8798969,2.662364,5.521941,6.544645,9.270143,10.8879,12.79654,14.65532,16.48584,18.25367,19.6807,22.55676,24.31433,26.53214,27.23736,29.67622,31.33131,33.03182,34.70178,36.06902,37.33501,40.0328,40.35574,42.7485,43.57959,43.13729,46.88439,46.08743,48.65054,48.29283,51.2411,50.96593,54.11391,52.26154,56.53928,54.38632,58.82961,55.32605,60.74923,58.4202,61.1929,60.34468,63.26637,61.71184,64.63752,62.99926,65.51778,64.98438,64.71859,67.09762,65.42833,67.22928,66.11644,67.47908,67.07683,67.47949,67.01618,67.21488,67.71082,67.99955,68.21631,68.38047,68.36144,69.08354,67.94356,68.79321,68.7587,68.73349,68.69518,68.9333,69.17556,68.96159,69.61677,67.84627,68.73903,68.25439,68.53651,68.17315,69.18621,68.76754,70.20683,70.7668,71.77154,73.71403,73.15127,75.66468,75.73125,77.5802,78.17701,79.88377,80.44434,81.02444,84.38328,83.65581,85.77299,84.7681,86.81937,85.76415,87.09515,85.40071,87.06752,84.11943,85.66086,82.3932,82.84105,79.66508,79.21001,76.33035,74.56516,71.30422,69.41881,65.41264,64.16428,57.37433,56.5691,50.76877,47.98099,44.10692,38.75793,35.39941,30.42747,25.02357,21.58013,14.6777,10.68946,5.988381,0.5439474,-3.644484,-9.706208,-13.30988,-19.8688,-23.16096,-29.25005,-32.73286,-38.89586,-42.5689,-47.56179,-52.74442,-56.19666,-61.66955,-65.34692,-69.61206,-73.1534,-77.77281,-78.70808,-85.26199,-84.52993,-90.68285,-91.25864,-95.36276,-96.75974,-100.011,-100.816,-103.2483,-104.3071,-106.2808,-107.5819,-108.4756,-108.9772,-108.631,-111.07,-108.786,-111.4819,-108.6337,-110.7759,-110.1967,-109.5469,-109.5753,-106.1695,-106.3374,-103.4958,-102.3531,-101.3353,-100.518,-101.5639,-101.2211,-101.954,-102.8449,-105.506,-105.0255,-110.0059,-110.9594,-114.4782,-116.9876,-119.5085,-122.5711,-125.1629,-126.5674,-128.9621,-131.1298,-131.5983,-134.9582,-133.8495,-136.8705,-136.3342,-137.0978,-137.6598,-136.7676,-137.2067,-134.9966,-134.911,-132.4717,-131.4704,-129.4016,-127.2437,-124.5772,-121.4045,-119.0003,-115.0371,-111.9716,-108.3476,-105.8622,-101.2782,-97.42559,-93.65238,-89.53394,-86.03579,-80.58446,-78.21996,-71.02164,-68.84918,-63.16217,-58.35987,-57.13418,-48.42294,-48.2687,-40.85263,-39.27164,-33.98451,-29.81229,-26.73946,-22.96292,-18.84801,-15.54763,-10.28851,-6.882371,-3.638883,0.1114701,2.841528,6.44596,8.411981,10.88796,13.703,15.16267,17.18873,19.92693,19.05404,22.13208,21.66841,22.90555,23.1741,23.95779,23.95855,23.458,24.51756,22.43536,23.94071,21.99147,22.19047,22.17776,20.60819,20.07172,19.39065,18.28018,16.52025,16.09433,14.49605,13.668,12.87612,12.24273,11.85291,12.40568,11.55446,13.06665,12.70044,15.15903,17.11847,18.63101,22.96944,23.05164,26.05047,26.45687,27.09144,28.8121,29.27989,30.77378,32.17747,32.14733,33.21228,35.25109,33.5012,35.75243,35.84264,35.82071,36.32197,36.32733,36.15053,36.48913,35.86261,36.08287,37.96158,35.46364,36.8823,35.67025,37.2254,34.83382,35.9077,35.69933,35.40368,36.68005,35.48584,36.70427,36.54818,37.24033,37.01566,38.34159,37.81717,37.36105,38.116,37.95393,37.84794,37.33099,37.94408,36.798,37.25052,36.64619,36.28304,37.49342,35.15555,38.0669,34.41274,37.45178,35.17189,35.65145,37.19721,35.99303,37.02695,36.54966,37.40231,37.49979,38.28075,38.32257,39.78664,39.5444,40.39447,40.36197,39.86021,40.74993,41.0579,40.17993,41.22504,40.67895,41.35872,41.43681,41.70018,41.53669,40.62372,41.99391,40.51113,42.72244,41.23276,43.25059,41.32809,43.3215,43.43129,44.33389,45.81154,45.18824,46.5973,46.7366,45.73495,47.65471,45.97507,47.72023,46.1811,48.4823,46.12359,48.62334,46.48952,49.21485,48.72083,48.59857,49.59938,48.85956,51.5555,49.84416,51.88223,51.35683,51.89499,52.84203,52.39245,52.8497,53.05811,53.06556,54.46392,53.61967,54.61712,53.81292,54.26159,54.18891,52.93886,54.22649,52.55007,52.36778,51.6396,51.4599,49.96036,51.13203,49.22632,49.68343,48.75805,46.70103,47.57479,46.50079,45.46379,45.01308,45.13887,44.19012,44.26431,43.35345,43.25133,42.05333,42.39252,40.4473,39.86014,39.19328,36.1271,38.16877,34.36284,35.31418,32.28422,31.04409,29.9422,27.91991,27.8846,24.94447,26.17089,23.66696,23.92942,23.53593,23.1707,23.69561,23.48833,23.84399,24.38832,24.01731,24.04969,25.91277,24.53821,27.28053,25.13163,25.99775,26.13155,24.82409,26.73006,25.21215,25.74831,25.79184,25.24152,22.9947,25.30666,21.59292,22.52413,20.66239,19.31178,17.8231,16.87206,14.42819,13.45886,10.66827,8.686661,7.588325,3.519451,3.701406,-0.768741,-1.573285,-4.360731,-7.449845,-9.472179,-12.94637,-15.49691,-18.28878,-21.78373,-24.44967,-27.64848,-30.687,-34.05423,-36.10974,-40.39096,-40.86247,-45.74966,-47.89086,-49.74627,-53.47122,-54.99301,-59.52676,-59.32363,-63.40658,-65.44533,-67.11982,-71.6325,-72.00129,-74.7002,-77.93398,-76.77663,-82.8908,-81.49543,-85.61287,-86.58448,-85.86888,-87.78293,-87.7115,-90.47734,-90.16841,-92.5373,-93.17496,-94.54328,-94.9714,-96.87345,-97.76556,-97.48225,-100.2009,-99.0562,-100.0502,-101.0864,-100.5664,-102.7356,-101.1038,-102.8079,-102.6636,-102.5531,-103.1336,-101.3916,-103.8568,-101.787,-103.1992,-100.646,-101.8913,-101.4716,-100.6206,-101.1137,-100.181,-100.3258,-98.58316,-98.17966,-96.77993,-95.19235,-92.96164,-91.09599,-89.29297,-86.6536,-85.17854,-81.54653,-79.4855,-77.12282,-74.17346,-71.47828,-68.19379,-66.41453,-61.88305,-62.05776,-56.13739,-54.8678,-50.61454,-47.89373,-45.57067,-42.05864,-39.33851,-35.22228,-34.52051,-28.63114,-29.47463,-23.35571,-22.80222,-18.79526,-16.61876,-14.5069,-12.06603,-10.342,-7.415632,-5.796773,-2.928399,-2.42049,0.8804441,1.872234,3.895951,5.861179,5.586462,9.101077,7.926607,10.37503,10.75511,11.492,12.09689,12.61856,12.65211,13.93269,13.46313,15.34112,14.03595,14.58929,15.85168,15.02342,16.75282,15.70122,16.67932,16.55368,16.66415,17.06291,16.61082,17.08395,17.84105,17.59263,18.3031,19.98069,18.49692,22.3313,21.67921,24.6113,26.70418,25.89333,28.52643,27.43864,30.88465,28.74342,31.86305,30.82266,32.98726,32.8662,34.08957,35.54638,34.16947,38.36649,36.39894,38.29582,37.96048,38.61764,40.0467,39.93959,41.39501,41.88499,41.81586,43.14275,43.23681,44.18054,44.22066,45.66753,44.26545,47.56407,44.99889,47.1461,46.19003,47.41719,47.95604,48.05532,48.28404,48.43158,49.32401,48.16783,49.52272,48.97362,49.02108,49.7664,48.349,49.78888,48.22301,48.99792,47.47294,48.01732,46.68316,45.70079,46.17792,44.24702,44.60415,43.45597,42.35644,42.84089,41.77138,42.31935,39.97284,41.38528,38.83035,40.00991,38.26738,37.96149,36.85713,35.71984,35.77362,33.92343,34.87373,32.43925,32.3076,31.49254,30.77864,30.57304,29.16696,28.45927,29.08116,28.02048,27.57017,28.09236,26.63933,26.62435,26.1594,25.87148,26.05393,25.54228,25.61832,25.90236,25.18812,26.53978,25.25987,26.04176,26.0416,26.00505,25.20938,26.66331,25.11202,26.89937,25.08882,27.98764,24.80843,28.27361,25.16672,27.81156,25.72464,26.96956,26.55504,26.57737,27.38748,25.76335,26.99182,24.01193,26.11294,23.13903,25.50458,21.43077,23.67549,21.9008,22.24662,20.85795,19.65725,19.91916,17.90037,18.27611,15.45546,17.02181,13.59016,15.85691,12.47166,12.98647,10.56301,10.17856,9.474764,7.058759,7.842039,5.334086,6.971056,5.458403,6.475962,7.216303,6.899433,8.539171,8.30269,11.0404,9.922584,13.30785,11.77727,15.79479,14.6879,17.83947,17.43088,20.15053,19.82909,22.60422,20.72974,23.64816,23.33436,23.50054,25.09607,24.58142,25.63741,26.32695,25.11973,26.6599,25.28818,25.74765,25.14644,24.32004,23.23651,22.9603,21.25791,19.76217,18.27197,16.49772,16.1823,11.70802,11.73666,7.402848,7.28701,3.211514,0.03592292,-1.557516,-6.046489,-6.973757,-11.9496,-14.21037,-16.78905,-21.2749,-23.11884,-26.82858,-30.6788,-34.01595,-37.92187,-39.46763,-44.91109,-46.27963,-51.56863,-52.25224,-57.58246,-58.31809,-62.94217,-63.62463,-67.27638,-68.3061,-71.47191,-71.68285,-75.1123,-73.77358,-77.47717,-75.77562,-80.26865,-77.01825,-81.36533,-77.30354,-79.16643,-75.69236,-77.56148,-75.48187,-75.49085,-75.27631,-73.62498,-75.26477,-72.41267,-73.10445,-71.1609,-72.60494,-70.40947,-70.30561,-69.52059,-68.86219,-68.55405,-67.73527,-67.2414,-65.95561,-66.21209,-64.25787,-66.81358,-63.42567,-66.41853,-64.49268,-66.10097,-63.84885,-65.4685,-62.73391,-63.45774,-61.20002,-61.00833,-59.2722,-58.72542,-54.78579,-56.19888,-51.52173,-52.14807,-48.01418,-47.88928,-43.87639,-44.03847,-39.67493,-38.97184,-34.74974,-33.88074,-30.19475,-29.31115,-25.82321,-23.49045,-20.1167,-17.55912,-14.91551,-10.29297,-9.068465,-4.38426,-3.128654,-0.2644642,3.477054,6.290165,8.017362,12.01971,12.79284,16.81339,19.51286,20.8437,23.38936,26.23342,28.11888,31.16078,31.16518,35.26396,34.50055,38.79081,37.29287,40.20434,41.22018,41.98501,44.36548,43.71788,45.65991,45.16541,46.59172,45.91584,48.09279,46.73001,47.09439,47.71878,47.4837,46.88917,46.3818,46.59832,45.21658,45.43799,45.30518,44.13514,42.84647,42.90318,41.16881,41.74629,40.3325,39.76201,39.43359,38.65913,39.44618,37.80562,39.08793,38.51001,39.00751,39.64206,39.24001,36.51311,38.50277,35.22037,36.69647,33.95114,34.40313,32.88944,32.58832,31.99812,30.52098,30.04912,29.6001,29.08515,27.81384,27.52624,26.35816,26.27653,25.34678,23.98114,23.53068,21.64627,22.0014,20.68396,20.17014,20.59486,18.95113,17.10932,18.28459,14.39106,17.0701,12.29228,15.57348,10.80113,14.87336,8.672385,12.23682,7.672575,9.318893,7.611397,6.669127,5.461886,5.193222,3.823524,4.054366,2.377383,2.275977,1.022522,1.236116,0.4078384,1.702401,-0.7127886,0.9380433,-1.856516,0.005555176,-2.38985,-0.9027628,-3.087546,-1.69439,-3.250001,-3.091747,-3.709457,-3.595294,-4.842331,-3.972658,-5.824509,-5.502681,-6.167065,-7.544912,-6.73029,-8.709272,-8.17224,-9.746566,-8.261088,-11.58396,-8.784904,-12.43425,-11.08019,-12.7075,-12.44755,-13.96788,-13.46386,-14.87142,-14.79304,-15.54033,-15.9467,-17.22571,-16.50797,-18.56995,-17.57252,-19.84153,-17.69231,-21.12182,-18.8169,-21.50096,-20.79386,-22.17312,-20.83755,-23.18834,-21.96159,-23.16242,-22.76403,-24.53284,-23.20515,-25.18305,-23.6679,-25.93199,-23.81112,-27.02289,-23.94302,-26.98255,-25.69118,-25.43547,-27.14111,-25.73176,-26.63082,-24.96972,-24.34837,-23.61514,-22.39781,-22.26946,-20.8406,-20.53082,-21.02437,-20.41843,-20.82443,-21.10353,-21.76747,-22.85754,-22.60276,-23.66969,-22.75469,-26.04584,-23.84062,-27.44736,-25.22587,-28.33544,-27.3099,-28.33964,-28.75108,-28.27239,-29.55855,-28.79405,-30.21926,-28.60738,-29.21931,-26.95983,-27.46172,-26.09084,-24.95876,-24.45177,-22.33711,-20.66531,-20.88624,-16.25949,-18.00496,-13.27192,-13.71926,-10.04396,-10.39404,-4.855927,-7.665996,-0.2618655,-2.562537,4.061519,2.376395,9.147401,6.517452,13.74436,12.28922,17.62926,18.28296,22.49802,23.32864,27.2463,29.37004,32.20118,35.0243,36.87976,40.39081,42.11388,44.68471,47.69378,48.67844,50.45212,53.28893,53.25095,55.86863,56.16014,58.4196,56.61612,60.4895,58.05385,59.81416,58.79681,58.54063,57.80294,57.56306,57.01206,57.59106,56.03454,57.67149,55.61217,56.5545,55.46313,55.05299,55.34325,53.91088,52.29533,52.44573,50.84734,49.6475,47.92398,48.20792,45.22664,46.02172,41.66149,44.07218,39.04118,40.58174,37.80555,37.59316,35.56886,34.41868,33.91838,33.23899,33.41627,32.2371,29.20342,30.42963,26.58077,26.38693,22.98283,21.3777,18.2897,16.20836,12.3037,11.05151,6.069794,5.812109,-0.9412373,-0.8460645,-7.862386,-7.520119,-14.85213,-14.15514,-21.29542,-21.3915,-27.42251,-28.6287,-33.79315,-34.44987,-38.26854,-40.031,-43.11069,-44.24787,-47.44066,-48.76137,-51.71316,-52.46571,-55.43549,-55.38248,-58.25082,-59.50434,-58.85933,-63.01775,-60.2701,-63.90926,-62.79632,-64.37601,-63.53972,-65.00719,-62.51692,-65.33139,-62.22326,-63.85811,-60.7622,-61.54714,-58.09243,-58.38188,-55.47685,-53.37404,-51.03865,-49.43912,-47.27505,-43.61977,-42.68334,-37.73329,-36.88966,-32.56321,-30.09995,-27.65857,-23.76061,-22.55644,-18.33154,-17.35857,-14.04345,-11.88436,-9.472065,-7.043526,-7.126088,-2.006095,-5.862265,0.06532502,-2.641953,1.023678,1.118924,4.563019,5.184641,7.205791,7.261774,10.63242,9.91593,12.77886,12.19824,13.68848,15.52743,13.79512,16.07657,15.31495,16.60849,17.02675,18.24828,18.63864,19.45138,19.47284,21.13005,21.37425,22.00631,21.73187,23.51164,22.01824,25.28101,23.19882,26.8448,24.74805,28.55407,27.0464,29.58661,30.68713,29.98782,33.6086,31.31684,34.79066,32.1256,35.86535,33.06545,36.84337,33.99575,36.82443,34.45811,36.5789,34.60703,36.27733,34.63061,36.59154,35.02548,36.54344,34.893,37.12192,35.98274,36.59813,37.75703,36.08001,37.97708,36.56074,37.94568,37.00125,37.75823,36.25837,35.92218,36.84202,33.58937,36.60097,32.16621,32.0471,30.86228,28.05438,27.31291,24.91068,22.56784,22.27413,19.09667,17.92412,15.7022,13.1173,11.2715,8.21799,5.716918,3.119771,-0.3026653,-1.902012,-5.895355,-9.170028,-11.39879,-14.14883,-18.34446,-18.97381,-23.77368,-25.50523,-28.8227,-31.51552,-33.18132,-36.90822,-36.9348,-42.50471,-41.89255,-45.31889,-46.88095,-49.27345,-50.96729,-52.3991,-55.19278,-53.75053,-58.37036,-57.92762,-61.73338,-61.14871,-65.93725,-66.77881,-70.00301,-71.29256,-74.8364,-76.11929,-79.81496,-81.52978,-84.76959,-87.20993,-88.07269,-90.37828,-90.67862,-93.83135,-92.83537,-94.45388,-95.27803,-95.03976,-95.99206,-95.09131,-94.67543,-94.30901,-92.76895,-91.90317,-89.63542,-87.58896,-83.75587,-83.06086,-77.7797,-76.0257,-71.83399,-68.27505,-65.45332,-60.28973,-58.45833,-51.97839,-50.4375,-43.83946,-42.19047,-35.9262,-33.24249,-27.93904,-23.53183,-20.15859,-13.82271,-10.34028,-4.291205,-0.9542038,4.414991,8.361457,13.74066,18.71035,21.94753,27.25023,32.84323,35.94824,41.55008,44.7267,49.43052,53.38246,57.12243,60.5352,63.99773,67.29514,69.34779,74.02006,73.31722,78.30736,78.88192,80.53586,84.75491,83.65444,88.10356,86.56375,90.27817,88.39643,91.04821,89.36151,89.30043,87.80695,87.59161,84.6974,84.96848,81.51398,81.96921,80.87218,80.98833,80.49642,80.05796,81.22034,81.58141,81.20134,83.91714,83.19622,85.31136,85.76048,89.09224,89.00758,92.31925,94.08321,94.82574,98.02404,98.53444,99.7032,100.8865,101.5715,101.814,100.9999,101.7558,100.3119,98.63742,98.00705,96.43151,93.10159,92.60735,88.38798,86.64847,82.81848,79.81612,75.80016,72.57528,67.34575,64.56411,57.43223,56.28148,47.42744,45.08171,38.27843,33.50664,29.95478,21.96048,19.51172,10.63256,9.205702,-0.4297752,-0.7153903,-11.0405,-12.24565,-21.44713,-23.85403,-31.39338,-36.19147,-40.52747,-46.57925,-50.11516,-56.43172,-59.04597,-64.41421,-67.81529,-71.29066,-74.53999,-76.66881,-80.33717,-82.30628,-83.89568,-86.42536,-87.78538,-89.81401,-89.59409,-91.67357,-91.31836,-91.45433,-91.90929,-90.53894,-90.01034,-89.59569,-88.18427,-86.23196,-85.06374,-82.43653,-81.43797,-78.13825,-76.81679,-74.60286,-71.26779,-70.47008,-65.88415,-66.0545,-61.42585,-62.11419,-55.51272,-59.21501,-51.97776,-55.49464,-50.41413,-52.59782,-49.65535,-50.82504,-51.5209,-49.48567,-51.96854,-48.66306,-50.04966,-47.36841,-47.22839,-44.87687,-44.9772,-42.5256,-42.33329,-40.75921,-38.90186,-38.8743,-35.32852,-36.07308,-32.76963,-31.93124,-29.20882,-27.2178,-27.73325,-23.04529,-25.16609,-19.80291,-21.73016,-17.27061,-16.87321,-15.04621,-12.00128,-11.48835,-8.294355,-8.35255,-4.660068,-3.678723,-0.9235869,-0.3189672,4.041302,2.777876,7.007118,7.266543,9.331435,11.00619,13.1415,13.58297,17.31407,16.54182,19.85673,19.35611,23.17246,22.58441,25.88016,26.06615,27.36497,29.83218,28.8392,32.56767,29.71706,33.88959,31.42423,35.55684,31.73823,35.72878,33.54663,35.08585,35.65011,34.47786,35.58734,34.54325,35.9876,34.92156,36.10357,35.52615,35.51504,36.47875,34.93371,37.16604,35.48509,35.98513,35.86099,36.57781,36.15192,36.80737,36.06865,37.13988,36.66634,37.67063,38.51655,36.68943,40.19409,38.21425,40.2976,40.0511,41.01549,41.10344,41.511,41.60039,42.90687,41.35137,43.24067,41.84414,43.39722,42.88506,44.52806,42.57696,45.00141,44.52085,45.48844,46.52174,45.60867,48.48858,45.80469,50.65696,46.94948,52.13668,49.0546,53.35694,50.2811,53.75815,52.55499,53.07342,54.39533,53.21168,54.65362,53.78277,54.80969,54.07128,54.46633,54.84804,55.84315,56.76296,56.18808,59.99993,58.34581,61.9906,61.9549,64.64692,65.49651,67.51487,69.07329,70.17564,71.87248,72.51855,75.33367,74.08283,78.01782,76.58203,78.50467,77.60042,79.0424,77.70835,78.61524,76.91403,76.1399,74.53385,73.51295,71.78914,69.04576,67.5963,65.1602,61.39922,60.3497,55.04047,54.07377,48.45006,46.07522,41.42492,37.62673,34.08735,29.68321,24.5844,20.28167,15.93136,9.909424,5.010902,-0.01666141,-5.82594,-9.658561,-16.55773,-20.48232,-26.63714,-31.55017,-37.58592,-42.59208,-47.40994,-53.31263,-57.93126,-63.40274,-68.05242,-73.25542,-77.82573,-82.14211,-87.12817,-91.68103,-94.88374,-99.75497,-101.8491,-106.3376,-109.1135,-111.2748,-115.3422,-115.4156,-119.689,-120.5874,-123.0228,-124.7849,-125.3316,-127.2222,-126.604,-125.9744,-124.1973,-124.4714,-121.9558,-123.0025,-121.3086,-121.1552,-120.1671,-120.8759,-120.3683,-120.5242,-120.0065,-121.4793,-117.7937,-122.4326,-117.385,-123.0682,-118.6208,-123.1607,-119.9873,-123.3883,-121.656,-123.2514,-123.1028,-124.2856,-123.1589,-124.8075,-122.8284,-124.2416,-120.7149,-121.5377,-118.0066,-118.6832,-113.5949,-114.819,-109.6074,-109.0412,-104.4608,-102.5988,-97.72685,-95.39907,-90.97105,-86.75336,-83.05871,-78.75224,-74.57633,-69.14377,-66.75084,-60.44193,-57.54636,-51.52228,-48.97003,-42.37421,-40.26414,-33.4634,-31.31786,-24.90727,-21.86216,-17.79844,-12.99847,-9.703869,-5.806146,-1.646571,1.307288,5.547762,9.116464,12.3412,15.61496,19.37289,22.83175,24.06334,28.5591,30.02553,32.82041,34.35953,37.91527,38.29682,41.33381,42.60051,43.79066,46.12693,45.6042,48.17981,47.35327,50.34187,48.3927,51.20335,48.43785,51.7284,48.2761,49.59405,48.25057,47.93035,45.96676,46.31987,42.89495,44.74195,41.96659,42.76985,40.32594,40.65388,39.06114,39.97677,37.88494,40.26128,38.24175,40.54781,40.45425,43.12776,44.18274,47.13423,46.39727,47.61123,47.64693,48.5216,47.52645,48.71248,47.33778,48.7639,47.71966,48.88111,47.60872,48.9374,48.27777,47.61883,48.67867,46.37871,49.32038,46.07201,49.30054,45.92465,48.66143,45.74104,47.95924,45.46746,46.89857,44.38699,46.44642,43.43194,45.44133,42.85672,43.86598,41.29141,43.18433,40.64342,41.80023,39.9838,40.35038,40.11373,39.96378,39.38833,38.33142,39.31745,37.6379,38.68999,37.0245,37.42549,35.74502,37.38132,35.21393,37.72403,33.77196,37.3059,34.48621,36.3145,33.78613,35.73616,32.43594,34.82711,31.88555,32.3628,30.88306,30.39309,29.7614,28.69485,28.2247,27.23897,25.74067,26.1441,23.7326,23.2662,22.47625,20.22304,19.83081,18.582,17.32166,15.21263,14.75209,12.68579,12.47608,9.89499,9.752662,8.135422,6.479287,6.502981,3.545186,4.052225,-0.02503175,1.994715,-2.969384,-1.559475,-4.61066,-6.084076,-8.084906,-8.939255,-10.89627,-9.699476,-14.92019,-12.39756,-16.36551,-15.4661,-18.51711,-17.46569,-20.89057,-18.29809,-23.41294,-19.94612,-24.58401,-22.20146,-24.73116,-23.75129,-26.05865,-26.07477,-25.97811,-27.79494,-27.66308,-27.85161,-29.0715,-28.08789,-29.64587,-28.89376,-30.10131,-29.92635,-30.95191,-29.52714,-31.8231,-29.95755,-32.27136,-29.28729,-31.40051,-29.80367,-30.26021,-30.79455,-28.66626,-31.03357,-28.21546,-31.00894,-28.35998,-31.94489,-30.0563,-33.5058,-32.3169,-35.56074,-34.64775,-38.6098,-37.09062,-41.30837,-40.25864,-43.00527,-44.48479,-46.07995,-47.16345,-49.22364,-49.57427,-52.24722,-52.76322,-53.1583,-55.05593,-53.328,-56.54245,-53.00753,-57.43693,-52.95308,-56.1429,-53.36871,-53.96917,-51.78005,-51.73219,-49.01901,-48.51735,-44.78797,-44.64778,-40.83553,-40.00618,-35.73412,-34.3585,-29.06541,-29.41465,-22.39126,-22.56499,-15.99662,-15.66705,-10.40632,-7.934691,-3.581347,-0.1867301,4.581164,6.819265,13.48544,13.47629,21.56248,20.96359,27.48603,28.0332,34.25715,35.17493,40.05893,42.13396,45.5046,47.29654,50.2384,52.6891,53.74915,57.00188,58.00249,61.70694,61.23864,63.88418,64.85305,65.61266,66.02141,67.19252,67.90879,67.08224,67.55466,65.78678,66.75957,63.24161,65.83943,62.9039,64.02002,62.93551,63.00828,62.65403,63.11584,62.68334,64.75058,62.81071,64.44461,63.19394,64.53278,64.43222,64.78409,65.32308,65.5449,65.42064,67.59947,66.4396,68.90245,66.58841,69.52163,67.24279,68.88988,68.11279,66.68969,67.39178,64.25214,65.90669,60.64851,62.79276,57.39701,59.389,54.01023,53.28622,49.51171,47.06474,44.13282,40.72294,36.37012,33.63991,29.05042,26.63574,20.36328,17.48329,11.35566,8.153446,2.963181,-1.736691,-5.359239,-11.98625,-13.82166,-21.32664,-22.28276,-29.88892,-31.6817,-36.84022,-40.45783,-44.80339,-49.02796,-52.6101,-57.21218,-60.801,-63.3293,-67.01494,-69.81248,-71.82133,-75.33081,-77.26425,-79.0967,-82.39567,-82.54927,-86.49518,-84.9354,-88.70316,-87.06448,-89.69816,-89.3229,-90.32221,-90.15251,-92.40773,-88.23601,-92.16101,-86.74037,-89.85883,-85.11828,-87.2014,-82.87499,-83.65165,-80.88418,-79.51746,-78.16648,-75.04538,-74.22255,-71.89392,-70.02635,-68.16754,-66.95144,-63.95881,-64.14026,-60.73608,-60.37058,-58.1838,-57.67134,-56.52973,-55.81205,-53.40089,-53.23285,-50.2339,-48.08935,-46.84232,-43.76769,-40.9147,-38.16913,-35.9884,-31.48196,-30.13157,-24.47604,-24.09788,-18.37297,-16.63842,-12.0424,-9.245807,-5.525321,-3.243227,1.301805,4.457344,7.106743,11.14396,14.34121,16.8819,21.16019,22.97236,26.77694,28.81948,32.35604,34.07641,37.83726,40.07303,41.46577,45.45565,45.62861,49.04059,49.73384,51.1495,53.73477,54.13433,56.76532,55.91715,58.64683,57.31187,58.87393,58.32381,58.60314,59.46127,58.58597,59.48048,58.82442,59.60558,59.4722,58.67493,59.20899,58.4748,58.54552,57.57141,57.92843,56.60729,56.15416,55.79056,55.23028,55.0134,54.54333,54.37332,54.51734,54.33101,52.83768,54.65482,50.96726,54.55482,51.55303,52.52961,51.7339,50.34998,52.18157,48.7371,51.64947,47.23646,51.408,47.78243,48.67834,48.23519,47.84715,48.42776,46.68289,47.23884,46.09703,45.65441,46.08197,44.66665,45.86463,43.5083,44.4779,43.51956,43.56536,43.16366,43.39693,43.06851,43.24406,43.49858,42.48212,43.95766,42.06175,43.8892,42.57621,43.8871,42.92565,43.31285,44.02285,42.54587,43.89601,41.57097,43.07557,42.31631,41.88487,42.10533,42.11942,43.23687,43.17451,44.42164,44.97728,45.54201,46.74145,47.41453,49.15099,49.82656,51.70301,51.99224,52.60655,55.58107,55.41527,56.78493,57.68424,58.87613,58.32863,59.87407,58.96944,59.6831,58.6886,59.18015,57.99743,58.38731,55.95286,55.62481,54.06671,51.97408,50.93597,47.53851,45.60527,43.25185,39.795,37.21628,33.52733,31.11,26.59525,24.29377,19.68289,15.13101,12.07653,6.993047,3.905822,-2.383965,-5.448313,-10.38486,-15.06221,-18.60894,-24.04225,-28.74036,-32.90371,-37.72023,-41.68887,-46.75605,-50.9536,-54.98892,-58.65906,-62.778,-66.24507,-70.10683,-74.36646,-75.7828,-81.38667,-82.88189,-86.28138,-90.02749,-90.04481,-94.91409,-94.88487,-98.93612,-99.37557,-103.4222,-103.6189,-105.9344,-107.0623,-107.8465,-111.5203,-108.7787,-111.4433,-110.0675,-109.3159,-109.1697,-107.5398,-108.4951,-105.6309,-108.352,-105.8623,-108.5231,-107.5564,-109.709,-109.6827,-111.9768,-112.4617,-114.0506,-115.594,-116.6357,-118.651,-119.6951,-121.1894,-124.1358,-124.1231,-127.8866,-126.5318,-130.6338,-128.1863,-130.7629,-129.4577,-129.1421,-129.0215,-126.5948,-127.0501,-125.3636,-121.9989,-122.4531,-117.9924,-117.313,-113.2603,-110.5551,-107.3146,-103.7948,-99.76493,-96.06666,-91.16647,-87.66488,-83.48007,-77.82408,-75.38331,-68.45163,-65.79637,-59.4397,-56.8344,-50.65384,-47.23235,-42.47028,-38.95276,-35.20053,-30.74151,-27.32345,-22.23127,-20.10113,-14.56959,-13.40941,-7.265647,-6.184326,-1.773841,0.1402501,3.411114,6.820266,7.871888,9.310172,12.67391,12.26318,16.20968,14.40703,18.37406,17.73748,19.134,19.63581,19.79763,19.59941,20.13414,18.79851,20.37273,18.05931,19.54776,17.48975,17.72612,16.46322,15.22123,13.64365,13.27115,11.91299,11.24781,11.12568,8.605547,8.684424,7.420162,7.400061,6.011443,6.233261,5.611284,5.658847,6.602718,6.243061,8.046757,8.949413,11.69043,14.52247,16.74414,21.20847,23.03405,25.79698,28.69451,30.1613,33.45101,33.07559,37.64491,36.69079,41.31255,39.88473,44.04704,41.39921,46.42712,44.28447,48.69552,46.80318,49.92803,49.52104,50.53481,51.26586,51.96702,52.09769,52.04874,53.04891,53.5496,53.12779,53.1941,53.10324,52.60948,53.26409,52.51361,53.15844,52.90694,52.98292,52.7171,53.74785,51.80547,54.38809,51.6336,54.44701,52.00264,53.96709,53.10982,54.36297,54.30499,55.99579,54.90014,56.21049,56.16825,56.33005,56.32777,57.08729,56.30982,57.70257,55.80849,58.3215,57.20305,58.55923,57.87282,58.3761,59.20357,58.55125,60.49295,59.06319,60.91208,59.53038,60.92851,59.84925,59.98235,61.17567,60.366,61.56038,61.75832,61.16705,63.8399,60.99625,63.52261,62.11116,64.4759,62.21156,64.7703,62.98751,65.15813,63.9303,65.2241,64.53122,65.19352,64.61954,64.25587,65.33089,65.07602,65.54799,64.41508,65.38854,64.5523,65.38272,64.59187,64.72647,63.80331,63.47545,63.84484,61.8624,63.21999,61.88599,62.96476,62.86245,62.26094,61.76848,62.33822,62.40761,61.19895,62.74654,61.50189,63.05851,62.04161,62.84822,62.65213,60.41928,61.27762,58.34589,60.32415,57.21322,60.76539,57.83349,62.23479,59.88316,63.37432,63.5103,64.05471,67.94031,65.70361,70.03388,69.07064,72.89948,70.51653,74.04479,73.16896,74.17665,74.95641,75.67684,74.89141,75.1102,74.36174,73.893,72.68008,72.05649,69.04139,69.1337,64.79642,64.99744,59.06938,58.87503,53.10974,51.85142,45.95605,43.64513,38.01497,33.75934,29.77197,23.41932,20.13365,13.5928,8.121307,3.712513,-4.005796,-6.714798,-15.57886,-19.11253,-27.20776,-30.53536,-37.33904,-43.19656,-47.85252,-55.11869,-59.57972,-65.50119,-70.57096,-75.91719,-81.70815,-85.29069,-92.69308,-94.75951,-102.2481,-105.4658,-110.7614,-114.3558,-118.1342,-121.1542,-125.6977,-127.8976,-131.751,-133.1152,-137.0431,-137.674,-141.2242,-140.8003,-144.8277,-143.4133,-146.1438,-144.8323,-146.6886,-145.6981,-146.4921,-144.6525,-142.8465,-141.227,-139.1776,-139.0511,-135.4748,-136.1632,-131.8689,-132.5567,-129.1375,-129.6184,-128.4823,-127.1671,-128.2682,-127.0052,-127.0159,-127.0502,-126.3403,-128.3276,-127.5383,-129.0626,-130.8444,-131.2669,-133.543,-133.9753,-135.4988,-135.2544,-135.4557,-134.8617,-134.5275,-134.0141,-130.997,-131.8999,-127.6761,-127.9397,-124.2105,-123.2356,-120.6481,-118.6671,-115.4082,-113.4777,-109.6868,-106.0646,-102.1807,-99.63867,-93.59989,-92.39128,-86.79536,-82.32581,-78.4209,-73.04783,-69.40043,-65.75426,-58.56091,-57.26585,-49.40071,-48.17331,-40.86622,-38.36753,-31.65938,-29.527,-23.29748,-19.82742,-14.92544,-11.37281,-6.000471,-3.353225,1.330662,5.360112,7.97634,12.93089,15.33097,19.01316,22.44228,24.18005,29.52754,30.3782,34.27581,35.36875,38.73632,38.27858,41.87282,42.11725,43.44293,42.9814,44.92162,43.28002,45.17144,42.94782,44.15741,41.36761,44.05951,41.59208,41.71774,40.14727,39.0536,38.70034,36.73317,37.53836,33.33217,35.5151,31.17378,33.88473,28.55864,32.61302,27.81128,30.64533,29.6409,31.23268,31.60452,32.40334,35.45923,34.16647,35.28585,35.9892,35.86373,37.555,37.21652,38.39706,37.71951,38.81406,38.26936,40.05827,38.84396,41.3564,39.09998,42.4078,39.73349,42.92117,41.3528,43.60465,41.79785,44.4913,43.27615,45.6373,43.51063,46.86362,45.1519,47.75157,45.84152,48.59994,48.02231,48.58372,50.11599,48.90766,51.08432,48.63098,51.89516,49.05458,52.5196,50.78779,51.79365,51.59211,51.90674,51.11723,52.1425,50.09326,52.81646,50.76082,51.71095,52.10964,49.45869,52.37525,50.41323,51.00086,50.45981,50.24536,51.06562,48.8074,50.68898,48.01366,49.95993,47.12701,49.56579,46.83957,49.0741,46.18795,48.2163,46.59997,46.68876,47.41549,45.38201,46.83246,45.60945,46.93953,46.1798,45.86885,46.59902,44.43722,46.99857,43.75286,47.11395,44.14966,46.38886,43.32559,46.95955,42.60413,47.28985,43.0196,47.81308,44.40125,48.20341,44.66465,47.84441,45.0109,48.73194,45.48867,48.63306,47.15553,48.05221,48.62492,48.22221,50.28812,47.66928,51.98822,48.92385,53.23451,50.60358,52.54781,51.86753,52.65043,53.65087,52.11011,54.00042,53.97771,53.80936,54.86519,54.06207,55.052,54.91662,54.92503,53.83887,53.71632,51.88769,52.01705,50.4802,51.62298,48.98741,51.68439,49.13262,52.41041,50.29505,52.49257,52.99551,54.68078,54.28072,56.50431,55.83321,57.44171,57.8012,59.70369,59.26085,60.22269,60.57932,59.44705,60.93941,59.35995,59.24273,59.00003,58.24124,57.46446,55.51057,55.42175,51.4696,51.67981,48.12596,47.00042,44.61479,40.70424,40.02115,35.22181,32.76293,29.39937,26.1166,23.32753,18.54808,15.51195,10.98744,6.509564,2.491381,-2.058215,-6.376921,-11.91499,-14.92771,-21.47696,-24.31264,-30.08363,-33.69342,-40.52394,-42.55074,-48.48425,-53.57642,-57.36839,-63.57257,-66.11329,-73.23603,-75.30019,-81.59359,-85.88276,-87.89474,-94.83526,-94.52358,-102.1694,-102.2918,-108.5065,-107.5658,-113.6982,-113.9072,-117.5865,-118.6991,-121.9346,-123.3064,-125.3088,-126.5816,-127.8271,-127.2506,-129.7962,-127.1919,-129.2822,-127.4001,-125.9779,-123.466,-121.5464,-120.0079,-117.6514,-116.6754,-115.5005,-116.7169,-114.097,-115.0413,-113.2559,-113.9296,-114.0096,-114.2066,-113.1082,-115.2171,-114.657,-116.4792,-117.2642,-118.3855,-119.3521,-121.5486,-121.544,-123.254,-121.6106,-121.7785,-121.5633,-120.4902,-119.8856,-117.7402,-115.6994,-115.1365,-112.4014,-110.2619,-107.879,-105.0096,-102.5109,-98.61119,-97.00566,-92.55865,-88.94245,-86.34647,-81.64576,-78.80604,-73.42344,-68.86362,-65.78684,-61.49446,-55.99984,-52.57481,-46.1356,-43.76243,-37.508,-34.94051,-28.59162,-24.26452,-19.33833,-14.29276,-11.68281,-4.096379,-2.803452,5.346385,5.869102,12.71288,14.77794,20.46375,22.61113,28.19766,28.64714,35.58478,35.84585,41.52881,42.01385,46.64402,47.68972,53.06049,53.15857,55.79002,57.51231,60.43814,60.42438,62.60511,62.60836,63.20031,64.46958,63.64778,64.60635,63.04637,62.80746,64.0546,62.31072,62.46336,60.44383,59.89145,58.91067,58.57937,56.92977,55.32949,54.68497,52.98604,52.75625,51.77185,50.39507,50.53759,50.93807,51.52694,51.58368,53.35813,52.7464,56.83487,57.10578,60.3869,58.4606,60.34784,59.42808,60.56457,60.04926,59.93727,61.17698,58.81372,60.88296,58.87367,59.6847,58.11544,59.70588,56.67375,59.00396,56.28899,56.5118,55.78498,54.84204,54.53788,53.19142,52.50918,51.80427,51.31056,50.10807,48.79023,48.66359,46.78907,47.66502,44.05486,46.16194,42.08401,45.06281,40.22693,44.36665,38.64028,40.68983,38.10129,39.72722,36.26697,37.75193,34.30975,35.73984,32.57311,33.39498,31.6947,32.0343,30.23641,29.71889,28.54811,27.92405,26.78078,26.14159,25.60277,24.33146,24.1329,21.29756,22.46824,18.78789,20.66371,16.08397,18.75085,14.57147,16.36805,12.89654,14.47222,10.42852,13.00587,7.588938,12.30515,5.532764,9.404037,4.555661,7.797767,2.989333,5.14194,2.322033,2.424141,0.9332468,0.0500954,-0.3262661,-3.257609,-2.073301,-5.919102,-4.214751,-7.765382,-6.326645,-9.438919,-9.340954,-12.44617,-11.9513,-15.91245,-15.10823,-18.61376,-18.702,-22.07877,-21.83672,-25.44831,-26.12275,-29.31134,-29.4572,-33.05059,-33.55447,-36.27112,-37.03523,-40.30967,-39.76898,-42.90138,-43.05051,-45.69192,-46.43383,-48.22042,-49.6503,-51.33571,-53.17515,-55.32903,-57.63093,-60.29936,-61.78925,-64.01484,-66.74416,-68.72748,-71.28973,-72.29382,-75.57418,-77.1295,-79.41642,-79.90316,-82.70503,-82.51766,-85.5772,-83.93954,-86.6764,-85.18371,-87.04097,-85.20604,-85.82875,-85.33298,-83.36512,-83.68691,-80.06282,-80.78501,-76.79125,-76.60819,-72.24137,-71.76505,-67.51822,-66.36468,-61.93642,-60.08865,-55.58489,-53.52717,-47.77563,-46.258,-39.90666,-38.01556,-32.15982,-29.8834,-24.24381,-20.18399,-15.81585,-11.13764,-7.869401,-2.233679,0.9957692,5.745189,8.656731,13.56537,16.40236,21.74718,24.83755,30.11834,31.45801,38.10263,38.41629,45.81155,44.9111,51.4721,51.36993,56.83771,56.55742,60.75653,61.32193,64.19236,64.7064,67.96027,68.08962,71.64103,71.22683,73.71102,75.14438,74.55906,79.9034,76.72445,82.78426,79.39013,85.30965,82.2924,87.20485,85.04909,89.21392,88.80205,91.26437,92.10101,93.29961,95.55743,95.75416,96.53474,97.89977,98.56819,99.69855,99.96623,101.9119,101.6769,103.4787,102.2545,105.2762,102.9995,103.3571,102.3703,101.9533,100.7596,97.7034,97.39716,92.99579,92.52929,86.63561,86.57902,80.28253,79.30129,72.76934,71.40034,64.61517,62.98655,54.74276,54.13851,45.34457,44.42782,35.12851,32.91156,26.11193,22.17244,16.12242,10.87485,5.699699,1.73858,-5.276594,-7.053719,-13.90253,-16.12292,-22.10485,-25.24809,-30.06121,-32.8483,-37.56915,-39.04304,-44.53093,-44.43242,-49.60189,-49.34933,-52.62423,-53.77117,-53.04139,-57.50343,-53.08125,-58.43852,-52.77911,-57.11739,-51.94652,-54.40966,-49.92218,-50.46486,-46.66994,-45.60385,-43.46234,-40.66927,-39.02787,-34.47925,-33.99925,-27.95907,-27.62756,-21.58834,-21.88962,-15.20562,-17.07182,-8.802202,-12.51566,-4.828728,-7.974229,-2.279451,-4.38272,0.2081431,-0.4027194,1.209502,1.630471,3.769132,2.084381,5.290624,2.512862,4.528475,3.035446,4.293544,3.914517,1.15463,3.865363,-0.7733638,3.084779,-2.555707,0.8206698,-3.407017,-1.094903,-3.180082,-4.172375,-4.140269,-5.629432,-5.354909,-7.488325,-7.145518,-8.114548,-9.311097,-9.077546,-10.20141,-9.918006,-11.70443,-11.42025,-12.91242,-12.4146,-14.41384,-14.25665,-15.3291,-14.45724,-16.78488,-15.50162,-16.53966,-16.98223,-17.09127,-17.68147,-16.5605,-18.67135,-17.46083,-19.2487,-17.75454,-19.98308,-19.38285,-19.89546,-19.88101,-19.92305,-20.0801,-20.77376,-20.9146,-20.40664,-22.35559,-20.92038,-23.35725,-22.36766,-22.1866,-24.12064,-21.98942,-25.51561,-23.39231,-27.20531,-24.89294,-27.61574,-26.61602,-28.26681,-28.20877,-28.75851,-29.65534,-29.3661,-30.39834,-29.70666,-30.96248,-29.13082,-33.0215,-29.02625,-33.60003,-29.04218,-32.97955,-29.4446,-32.79132,-29.26071,-32.2759,-28.72688,-33.08936,-28.96745,-32.60562,-28.82172,-31.4317,-28.40566,-30.53712,-28.2532,-29.25487,-29.22161,-27.70099,-29.56275,-25.56723,-29.26375,-24.73245,-28.5584,-24.2383,-27.27738,-23.36698,-26.70976,-23.28764,-25.88238,-22.67251,-26.62789,-21.91064,-28.09388,-23.63813,-27.76806,-24.32091,-28.48066,-26.19776,-28.82875,-29.01599,-30.32745,-32.25529,-32.01785,-36.05122,-34.78989,-39.84924,-39.39255,-43.67538,-44.07929,-48.63598,-48.09911,-53.8743,-52.711,-57.75717,-56.75862,-60.70845,-60.01736,-64.79303,-62.62917,-66.17049,-65.45495,-66.71808,-65.86964,-68.57468,-65.54797,-68.79524,-64.19185,-67.2607,-63.78262,-64.5651,-61.66447,-60.65453,-59.77817,-56.20501,-55.70143,-51.17642,-50.33628,-45.96643,-42.57455,-40.51503,-35.64585,-33.85633,-28.52789,-26.19861,-21.18029,-18.90617,-13.12232,-10.60077,-5.599555,-1.852646,1.466581,6.571971,10.19304,14.09632,18.63515,22.58012,27.1272,29.85922,35.23847,37.17565,42.92076,44.26377,49.60084,50.94085,55.48176,56.96173,60.24104,62.86322,63.48008,68.56097,66.87025,72.90463,70.58693,75.20382,73.47616,77.6793,76.70794,77.97487,79.80546,78.48827,81.42545,79.42428,82.07367,79.60334,81.3917,80.26548,82.05791,80.5224,81.00326,80.46963,77.80744,79.11981,75.49437,77.13748,74.57056,76.58011,75.84684,78.11926,77.6645,81.64438,80.71142,86.14827,84.41416,91.86258,90.17665,97.01422,95.85496,101.5297,100.8863,105.3105,105.1881,107.8929,109.9185,109.1753,111.9037,110.1678,111.0949,110.1641,109.3176,108.2619,107.084,104.4266,104.1993,102.0609,98.51114,97.62146,92.57686,91.0785,86.56692,83.50185,79.13299,75.52266,70.21461,65.86935,60.65972,55.89205,51.02553,45.55501,40.09098,35.45042,29.56811,25.10568,18.20917,15.14828,6.890506,4.098002,-3.226587,-6.484324,-12.3768,-16.95193,-21.45281,-26.02545,-30.23029,-33.88975,-39.78405,-40.75267,-46.47561,-47.35824,-52.69086,-53.18889,-57.36078,-59.07492,-60.97075,-63.54147,-64.28904,-66.79557,-66.82291,-69.45594,-68.68934,-70.36553,-70.37649,-70.36936,-69.79801,-70.21994,-68.89893,-68.87052,-67.88397,-66.38803,-66.79629,-62.67804,-64.74384,-59.92689,-61.16645,-57.87419,-57.72776,-54.37593,-55.59865,-49.85301,-52.95502,-46.56129,-50.72388,-44.4634,-49.11978,-43.14369,-48.53351,-42.99094,-50.16688,-45.41144,-51.92733,-49.32275,-54.97016,-52.83628,-56.71292,-55.64608,-56.88418,-56.53518,-57.69402,-56.03759,-58.05685,-56.3158,-58.35744,-56.18078,-58.61143,-54.6952,-58.76866,-53.9081,-57.62369,-52.32647,-55.49624,-49.97468,-52.73566,-48.05127,-48.69356,-46.29934,-45.46644,-43.4657,-41.95053,-40.20967,-38.52868,-37.02791,-34.85353,-33.01518,-30.89202,-27.86596,-27.30668,-23.24687,-22.84038,-19.53355,-18.47895,-15.33541,-14.8242,-12.02655,-10.36625,-8.521336,-5.875368,-5.085175,-0.9587889,-1.916653,4.452482,1.892112,7.161238,5.612235,9.67601,9.232106,12.10829,13.89774,14.06806,16.38678,17.0107,17.80539,20.49438,19.75573,22.08981,22.2127,24.38494,24.3771,25.72484,26.29536,26.32137,28.68896,26.4672,29.57006,28.37301,30.80397,29.3077,32.13238,30.0493,32.6422,31.56282,33.53202,31.91883,35.0001,32.06205,35.98151,33.19079,36.6058,33.39565,37.43943,34.34002,37.66687,35.35144,37.15805,36.55926,37.08398,37.38337,37.56866,37.67803,40.16432,37.37024,41.92928,37.20854,43.28807,37.21278,43.82581,37.64687,43.69525,37.81923,44.696,36.68605,45.7222,37.44213,45.40358,39.34167,44.71037,42.93056,43.78377,44.03034,44.37425,43.85161,45.09204,44.36386,45.33676,45.47332,45.52059,45.28174,46.03229,45.72364,46.79462,46.7668,48.12205,46.88206,48.33653,48.79964,48.34867,50.38307,48.71765,50.47295,48.05091,50.13092,47.43097,51.28503,46.56623,51.55956,48.10765,52.31745,50.97565,53.1637,53.26434,56.04148,56.94842,59.60293,61.63324,64.11154,65.21573,69.43514,69.16338,74.27301,73.34102,78.14048,77.29725,81.80056,80.27694,83.89259,82.30162,85.48806,84.43545,83.93812,84.25589,83.6538,81.90246,82.48615,77.85239,77.81217,74.76134,71.54295,69.312,65.62369,61.70404,57.63811,54.72111,49.09099,45.30423,39.43361,35.03581,28.51506,24.27794,16.10268,13.27548,3.171607,0.6805554,-7.943922,-12.00609,-20.75893,-23.71807,-34.38348,-35.42053,-48.25599,-48.20512,-60.29908,-61.41363,-70.67215,-74.85003,-81.64668,-86.79437,-92.4539,-97.52379,-101.8676,-106.6005,-112.6171,-114.3584,-120.9442,-121.5699,-128.385,-128.0272,-133.3847,-133.6695,-138.7741,-137.4974,-142.8044,-138.5025,-146.3115,-139.8606,-145.1033,-138.0944,-141.8571,-135.248,-137.9505,-132.2534,-133.0677,-130.4747,-129.6187,-127.9388,-128.0281,-126.9481,-126.4888,-125.6239,-124.4314,-125.2863,-122.0397,-125.7208,-121.0649,-124.9774,-120.8916,-124.9592,-121.5958,-125.5087,-123.5495,-125.5078,-124.8685,-125.3585,-124.952,-125.7268,-123.0513,-124.7288,-120.5255,-121.9969,-117.7204,-117.3537,-113.8962,-111.9942,-108.8568,-106.6024,-102.3947,-100.1083,-94.46199,-92.16265,-85.78379,-83.50519,-76.94854,-73.40778,-68.25403,-64.06174,-58.23612,-53.81323,-48.58504,-43.49638,-38.78015,-33.70575,-28.67701,-23.67396,-19.01882,-13.32809,-9.063562,-2.518467,0.6460663,8.907195,9.599078,18.98918,19.07373,28.56136,27.68565,35.39615,37.28491,41.93236,44.2374,47.94815,50.71964,54.22656,55.4831,60.21839,60.73779,63.8884,64.5231,66.96718,67.00148,70.19645,68.10579,72.98299,68.65508,73.97448,69.67309,72.6846,70.25978,70.40018,69.42466,68.73369,67.98224,65.37629,65.50419,64.31582,62.70682,61.83595,59.94603,59.66289,57.51469,56.55486,55.73415,55.45648,54.63302,55.22222,55.74407,57.14987,59.08843,58.2989,60.7351,60.19114,60.59899,60.70183,60.88122,58.83383,61.20576,58.3698,59.50905,58.00425,57.4986,58.28633,56.1103,57.61784,56.44336,55.38835,56.53497,54.50564,56.36159,53.93477,54.96274,53.59864,53.73486,53.45548,51.1826,51.68567,50.75677,50.72528,48.79178,49.00465,47.72004,47.12917,46.71137,44.67504,44.88578,42.9007,43.01855,41.49118,43.51178,39.56303,41.88623,38.76984,39.06189,37.46951,37.01688,34.52974,34.77964,32.28708,31.62626,30.72352,27.67202,28.98215,25.22546,25.95165,22.13302,23.37609,19.19856,21.7987,17.20526,19.53592,15.23259,16.26982,12.86915,13.64501,10.40179,10.36877,7.446398,7.61108,5.075693,3.300755,2.560075,-0.07591998,0.1412267,-2.359016,-3.148643,-5.506069,-5.323103,-7.92397,-7.712377,-10.14091,-9.635431,-12.26191,-12.45855,-13.02533,-15.2635,-13.65237,-17.84512,-14.339,-20.09087,-16.66152,-20.92392,-19.7745,-21.75,-22.43433,-22.45213,-25.18868,-23.89788,-28.04014,-25.72434,-29.15005,-28.66315,-31.69804,-28.71503,-32.79964,-29.68814,-33.77512,-31.84664,-35.88275,-34.11721,-38.8816,-36.50392,-42.40465,-40.93867,-46.41551,-45.51524,-51.78766,-51.05019,-57.27028,-56.567,-62.23746,-62.15499,-65.96949,-66.18153,-68.90342,-69.68148,-71.37166,-72.92327,-72.5781,-74.51342,-74.17124,-76.14208,-75.31202,-76.45833,-76.27785,-76.05742,-75.01434,-74.51506,-74.23343,-72.22203,-71.4279,-69.28409,-68.85462,-65.2094,-64.43863,-60.70915,-58.52627,-55.72641,-51.90629,-48.77587,-45.66324,-41.83532,-38.56772,-34.64628,-30.9751,-27.67701,-23.66316,-19.18519,-15.13503,-10.67876,-6.342614,-2.468128,0.9557656,5.444677,9.317254,12.75754,18.81075,20.13518,26.40925,27.79507,33.23328,34.6882,39.66941,41.96444,45.80279,48.65073,50.929,54.05057,55.06563,58.41139,58.80286,62.66909,60.50126,65.99084,63.99321,66.70294,66.42707,68.38354,66.85858,70.2898,67.23471,70.29164,66.66954,69.60714,67.18364,67.59081,66.53768,66.79402,66.74101,66.16949,67.81766,65.69595,68.13538,66.59264,68.36399,68.701,69.13882,70.31369,70.97831,73.22283,73.9326,76.57266,76.64196,82.53684,78.56533,86.16006,80.69551,87.4846,82.95799,87.47697,82.82474,87.31285,80.34082,84.6106,78.15223,80.51936,75.09899,76.04369,69.7968,71.90461,64.47761,66.57447,59.06042,59.27913,53.05705,52.48184,46.53333,43.85495,39.83071,35.29862,31.33283,27.02133,23.48969,19.19082,15.00669,11.41596,7.135954,2.92576,-1.015736,-5.939179,-9.329812,-15.38886,-17.84858,-23.49153,-27.34013,-31.44175,-35.17874,-39.16931,-42.9304,-46.65361,-49.92479,-54.24683,-56.64845,-61.08635,-64.08379,-65.47732,-69.77467,-69.82379,-74.83688,-73.79383,-78.96205,-76.93085,-83.07796,-77.68468,-84.23605,-79.6465,-83.74585,-81.99451,-83.96459,-81.82413,-82.6069,-80.08357,-80.50983,-78.06634,-77.67381,-75.86534,-74.84473,-73.58988,-71.65477,-69.72684,-68.86723,-65.1748,-66.71374,-61.16364,-63.52227,-58.94463,-58.69231,-56.65467,-55.3639,-53.90681,-53.37265,-51.61982,-50.8182,-49.48369,-48.58602,-47.53896,-44.30858,-45.32325,-40.67882,-43.04033,-37.44598,-39.82991,-34.21794,-36.25877,-30.51579,-32.50328,-26.41647,-28.19483,-21.93239,-23.65067,-17.30024,-18.25644,-14.27942,-12.52533,-11.18316,-8.666621,-7.695516,-5.318733,-4.146071,-2.583406,-0.8143553,1.588218,1.428328,4.071702,4.551048,6.348426,7.699407,7.533156,8.70294,10.08594,8.533721,11.2566,8.966787,11.53501,10.69875,11.95517,11.8795,13.09256,11.6311,14.65858,12.56541,15.83525,14.14603,16.42458,15.24905,16.76427,16.45683,16.61595,16.86645,15.69825,18.0969,15.80182,19.35494,16.81999,18.53068,18.7533,18.57889,19.76212,19.09067,19.44366,20.45191,19.74679,21.4121,19.79689,21.70061,20.63329,22.40054,22.44751,22.92827,24.06256,24.00394,25.65146,26.14037,27.17897,27.66691,28.07498,29.14004,29.15237,30.61382,31.69544,32.01717,33.11216,33.287,35.39282,33.71666,37.05846,35.32,39.26991,36.86165,40.92141,38.84435,43.34139,39.42699,45.70064,41.2372,46.94991,44.08146,47.47148,45.93,48.00396,48.00201,48.5098,50.27427,49.25931,51.17039,50.94104,52.46265,52.12149,54.46187,53.02953,56.71972,54.63316,57.70376,56.76218,58.66434,58.66069,60.85662,60.06036,62.26604,60.16817,62.44745,60.61037,63.36985,60.8461,64.31492,62.26615,65.91464,65.77899,68.7306,70.09173,74.24888,74.80678,79.00616,80.3965,84.48227,85.61793,91.27786,90.63831,97.14954,95.07948,101.8958,100.0848,106.1729,105.3873,110.3327,109.2499,113.1035,111.5572,113.6531,113.2258,112.5324,113.6945,110.6564,111.0958,108.4808,105.505,104.6981,100.1766,98.00635,93.55623,90.64786,85.7338,82.31888,75.06286,70.2747,65.55611,57.23332,54.22257,44.7305,40.08335,32.20662,25.38788,18.2099,10.63591,3.005918,-4.592109,-10.72405,-19.79923,-24.76806,-34.97698,-39.4986,-49.78558,-53.56154,-64.1396,-67.61395,-78.402,-80.80037,-91.13112,-92.95752,-104.2238,-105.7562,-114.6932,-116.3566,-124.1603,-126.4667,-132.3807,-134.6521,-138.0752,-141.8935,-143.5431,-147.0634,-147.8826,-149.7933,-150.9126,-151.9855,-151.6775,-151.1733,-150.8532,-149.3215,-147.4769,-147.1121,-143.6432,-142.5326,-140.9747,-139.311,-138.5371,-137.5864,-135.9728,-136.6764,-135.2575,-136.7005,-135.8139,-138.1423,-136.4123,-140.0131,-137.9947,-142.2443,-140.7779,-144.3122,-144.9919,-145.8106,-146.5839,-147.0041,-147.5646,-147.17,-147.2998,-146.304,-144.3061,-144.0041,-140.0868,-140.8457,-135.705,-135.8715,-129.7757,-130.8161,-123.5029,-123.7815,-116.9157,-115.0345,-109.0784,-104.9532,-101.0532,-92.84052,-90.74273,-81.58387,-80.7344,-70.53903,-69.0313,-58.91416,-57.59715,-47.9354,-45.14503,-38.60135,-32.43239,-27.36308,-21.79093,-15.53246,-10.61352,-3.883167,-0.339667,6.234105,8.084707,15.38616,15.65272,25.10089,24.97522,31.43211,32.85647,37.73051,38.60673,43.22097,44.74779,47.97243,49.2207,51.56626,52.70147,54.4528,55.05256,56.82255,56.06359,57.76177,55.96251,57.62219,55.73507,55.4678,53.86242,52.67382,51.73128,49.38001,47.81065,47.51855,43.55899,43.97202,39.60525,39.76185,35.03008,37.27387,30.97517,32.93828,29.06306,30.15284,28.1075,28.59335,27.58267,30.83574,30.03407,32.17622,33.78799,34.10955,37.41378,36.19957,39.86866,37.98502,41.84867,38.82168,42.35788,40.79103,42.74043,41.40307,43.36833,41.6525,43.34813,42.22126,44.34083,42.20417,44.97922,41.38464,45.662,41.73071,44.39073,42.86191,43.39514,42.8234,43.15116,42.26147,43.09382,42.24826,42.54237,42.98837,40.96565,42.15098,40.3293,39.70544,39.0512,38.21694,38.33341,36.65694,36.53225,36.02825,35.11501,34.03345,33.31228,32.45469,31.99323,30.80748,29.8845,29.19851,28.74402,26.6193,27.73049,25.20539,25.99564,23.56093,25.04913,22.40587,23.86491,21.64326,22.14847,20.61386,19.01875,19.52479,16.48273,19.71155,