ConstAcc,0.5,0.42138,3.943048,2.214812,0.5000203,-1.167005,-2.7548,-4.234679,-5.580664,-6.769408,-7.780116,-8.594476,-9.196578,-9.572839,-9.711931,-9.604703,-9.244106,-8.625115,-7.744661,-6.601545,-5.196372,-3.531469,-1.610814,0.5600419,2.974051,5.622742,8.496295,11.58362,14.87243,18.34933,21.99985,25.80857,29.75919,33.83455,38.0168,42.28737,46.62714,51.01645,55.43519,59.86291,64.27886,68.66207,72.99142,77.24576,81.40391,85.44482,89.34756,93.09146,96.65618,100.0217,103.1686,106.0779,108.7311,111.1107,113.1998,114.9823,116.4431,117.568,116.3452,113.4139,111.7478,111.1134,108.6433,106.3932,104.7023,102.1972,99.52019,96.78244,93.82893,90.85949,87.28317,83.70604,79.88638,76.78113,73.18337,69.10449,65.01691,60.54152,55.65635,50.27139,44.29175,37.64687,30.71354,23.53344,15.94785,7.934879,0.01819315,-7.964012,-15.92438,-23.37911,-30.90092,-38.17404,-45.18862,-51.61019,-57.75496,-63.08786,-67.70379,-71.53216,-74.23076,-75.99907,-76.93726,-76.90481,-75.92847,-74.01585,-70.94487,-66.6418,-61.12133,-54.84098,-47.87179,-40.30035,-33.14869,-26.22435,-19.03989,-12.07389,-5.028808,1.789422,8.419548,14.7899,20.85685,27.10008,33.0048,38.3176,43.11555,47.56216,51.49166,54.92102,58.22657,61.12585,63.90207,66.50603,68.41984,70.16304,71.53691,72.9031,74.20519,75.63828,77.24572,78.97444,80.7807,82.58565,83.80862,84.59257,84.97884,84.84127,84.3962,83.67382,82.53498,81.06826,79.50205,77.82902,76.03469,74.31802,72.60497,70.93487,69.14128,67.27092,65.16099,62.64372,59.98229,57.10827,54.08245,50.88513,47.46251,43.9046,40.21619,36.5427,33.01455,29.51828,26.23687,23.55034,20.98254,18.69462,16.31976,14.41194,12.78103,11.64395,11.11896,11.19254,11.87264,12.98924,14.35011,16.03481,17.63549,19.33688,20.83865,22.05691,23.14479,23.89077,24.28611,24.40237,24.21123,23.6317,22.86711,21.87389,20.60775,19.21701,17.77351,16.05486,14.09605,12.01951,9.790601,7.494204,5.010159,2.593007,0.2194231,-1.843698,-3.508403,-5.234288,-6.846664,-8.657803,-10.51169,-12.14729,-13.98185,-15.84291,-17.40929,-19.02406,-20.72535,-22.51494,-24.06702,-25.43789,-26.69884,-27.60709,-28.14445,-29.01193,-29.41022,-29.97064,-30.39587,-30.86471,-31.39643,-31.72577,-32.44343,-33.11579,-33.88953,-34.56094,-35.11982,-35.62083,-35.88254,-36.18489,-36.24985,-36.29701,-36.41042,-35.89525,-35.43366,-34.66841,-33.84266,-32.58067,-31.08684,-29.66702,-28.42431,-27.45057,-26.83013,-26.25099,-25.87384,-25.47574,-24.8803,-24.32819,-23.71704,-22.78345,-21.74012,-20.57999,-19.36124,-18.06459,-16.92343,-16.08302,-15.41691,-14.73466,-14.17167,-13.88741,-13.44307,-13.08545,-12.75379,-12.56791,-12.40767,-11.98423,-11.67505,-11.3757,-10.881,-10.54055,-10.21567,-10.25283,-10.45857,-10.6316,-10.88631,-10.76301,-10.58412,-10.45914,-10.13357,-9.81945,-9.924987,-9.99526,-10.06646,-10.26184,-11.01874,-11.79656,-12.08602,-12.48668,-12.60168,-12.72041,-12.53464,-12.50005,-12.66689,-12.94693,-13.19407,-13.40923,-13.40511,-13.33519,-13.33189,-13.33854,-13.15632,-13.0204,-12.69515,-12.28745,-11.77215,-11.04926,-10.38981,-10.14515,-9.745479,-9.610197,-9.57107,-9.700932,-9.684746,-9.616931,-9.599921,-9.609197,-9.4562,-9.494166,-9.630171,-9.622123,-9.789002,-9.944359,-10.41998,-10.82126,-10.95698,-11.80817,-11.9899,-12.00842,-11.91329,-11.76654,-11.39816,-10.49837,-9.428461,-8.563413,-8.024215,-8.519034,-9.917332,-12.02255,-14.3492,-16.54635,-18.53319,-20.53952,-22.42408,-23.79056,-24.62125,-24.86266,-25.26839,-25.24073,-25.66962,-26.09348,-26.62635,-27.39025,-28.07624,-28.90696,-29.90078,-30.50933,-31.62823,-32.64153,-33.31681,-33.62255,-33.85974,-33.70777,-33.63442,-33.79412,-34.09456,-34.37113,-34.08072,-33.93102,-33.33185,-32.38736,-31.83421,-30.86009,-29.4179,-27.90897,-26.40535,-25.09419,-23.51529,-22.53981,-20.56722,-18.71248,-17.06965,-15.45474,-14.01409,-12.01155,-9.837425,-8.114501,-7.230893,-6.953174,-6.712665,-5.571087,-3.926032,-1.683218,0.587856,3.202286,5.714319,8.008235,10.02633,11.36438,13.27999,15.71103,18.16328,20.60975,22.99777,24.85277,26.40027,27.80283,29.41711,30.58613,31.56745,32.80949,33.69772,33.59315,33.04194,31.68642,30.07657,27.6982,24.92057,21.68959,18.64486,14.61103,10.76618,6.181268,2.017306,-2.846721,-7.263909,-12.31568,-17.76685,-23.79846,-29.85016,-36.09529,-42.16249,-48.0791,-53.53145,-58.34229,-63.02072,-68.32314,-73.49296,-79.37726,-86.32619,-93.21672,-100.0169,-106.6249,-112.8842,-119.2322,-126.6221,-135.9348,-145.1292,-154.798,-164.1574,-172.7649,-180.4028,-187.5039,-193.476,-198.8367,-204.1819,-209.4194,-214.2667,-218.669,-223.4321,-227.1947,-230.5552,-233.7408,-236.0471,-237.266,-237.9097,-237.7877,-237.4884,-236.0807,-233.9928,-231.5803,-229.3302,-227.2947,-225.1522,-222.1508,-217.6247,-211.7604,-204.4444,-196.1372,-186.9528,-177.5462,-168.4722,-158.9207,-148.9844,-139.2934,-130.2059,-120.5415,-110.4099,-100.8557,-90.73521,-81.56274,-73.13527,-64.16259,-55.90458,-47.85697,-41.11425,-35.5041,-30.0677,-23.57533,-16.37161,-8.725638,-2.300591,3.836103,9.229581,13.53055,16.89013,19.87839,23.39151,27.51997,31.78178,35.16576,37.97425,40.38934,41.74379,42.23679,42.80795,43.28897,43.33125,42.51587,41.60923,40.08792,38.01568,35.23398,32.35454,29.20494,26.31528,23.51972,21.18052,18.58847,15.52477,11.36149,7.380164,2.760309,-1.730997,-6.255479,-10.34681,-15.13016,-19.20006,-22.19728,-24.6845,-26.64175,-27.48405,-27.68241,-27.2001,-27.31985,-26.923,-26.72167,-26.57816,-25.55879,-23.85002,-21.24943,-18.17132,-14.05725,-9.731059,-6.265561,-4.461649,-2.74607,-0.9737276,0.5792491,3.070136,6.280025,10.22312,14.10268,17.5298,20.37137,23.07743,26.81662,30.08928,32.87559,35.81672,39.07189,42.0346,44.80853,47.93526,51.61158,54.30526,56.89353,59.03305,60.7272,61.91164,62.34319,62.68517,63.29521,64.84085,67.07676,69.96074,72.88126,75.82673,78.69112,80.30087,81.54366,82.41955,83.83756,85.65673,86.8222,87.72596,88.88185,90.20865,91.32164,92.55197,93.20923,94.54558,95.964,96.96721,97.80866,98.66111,99.365,100.1573,101.0071,101.3867,101.649,102.6031,103.8138,104.8194,105.6322,107.1618,108.2645,110.0281,111.3808,112.0749,111.7302,112.0168,113.0416,114.7213,116.8693,117.6361,118.0158,117.0791,115.7091,115.1757,114.9095,115.5543,116.8229,118.9682,121.5787,124.8085,128.5892,131.4455,133.1177,133.9945,135.9048,137.9435,139.3948,140.3702,142.1185,143.0911,143.6483,145.4035,146.6085,147.9878,148.8047,149.6024,150.9275,153.4774,157.2191,160.3781,161.4943,160.4228,158.8558,156.0162,151.1951,146.5519,141.7713,136.2499,130.5515,124.1078,117.3847,109.8989,102.1515,95.16373,87.80451,80.13505,72.21039,64.50913,57.57239,50.69387,43.30073,35.81834,28.29068,21.77276,14.8229,8.227455,2.825841,-2.133201,-6.646831,-11.68289,-16.394,-20.99397,-25.47301,-29.74773,-33.77431,-37.21677,-40.48041,-42.89352,-44.95296,-46.11792,-46.82883,-47.38097,-47.2579,-47.7229,-47.3386,-47.01072,-45.74465,-44.25239,-42.18046,-40.02999,-37.7485,-34.2912,-30.80358,-27.14494,-22.8919,-18.24988,-14.6157,-9.857647,-5.32092,-0.6491613,4.038636,8.874924,14.97576,21.30673,27.04597,33.4275,38.2078,44.09836,49.25158,54.36198,59.35275,64.25388,67.46811,70.71757,73.01671,76.25594,78.79014,79.4268,78.52924,75.49749,72.61894,69.12436,66.36701,64.21778,62.0942,60.06464,58.01349,55.84492,52.83071,50.01322,46.96831,43.90266,41.8123,40.14615,38.25403,34.99219,30.52609,26.41659,22.6465,18.83732,15.8635,13.57098,11.60156,11.02777,10.36657,11.08587,12.43593,13.70026,13.81813,11.38668,8.602912,5.740286,3.605362,2.142577,-0.1475682,-0.09426585,-0.7754883,-0.1965226,0.4861199,0.5026905,0.9759686,1.405957,2.150248,3.322385,3.924004,5.823649,6.546832,8.537989,10.41147,11.05528,11.79507,12.98387,13.59936,15.23809,17.39498,19.60804,22.63745,24.36669,26.29011,28.20947,29.69147,31.16236,32.307,33.69039,34.88868,36.63745,38.05944,40.17873,42.66625,45.31687,47.17066,46.81661,45.69461,44.15401,43.05192,41.90565,41.13916,40.12008,39.32861,37.66025,35.91461,34.33023,32.84612,31.61103,29.61446,26.89743,24.41071,23.18153,21.46884,20.15112,18.43,15.83306,14.0767,11.56856,9.089531,8.154566,5.562308,4.443107,2.077391,-0.09534318,-1.640544,-4.362019,-6.761289,-8.713732,-11.85321,-14.48578,-17.05644,-19.67265,-21.35809,-23.59925,-25.25048,-26.74112,-29.07241,-30.35428,-31.53428,-32.66307,-33.59865,-33.78588,-34.37046,-34.21997,-34.08879,-34.10204,-34.29488,-36.48009,-38.64911,-41.06913,-43.82879,-45.70355,-47.8031,-48.81355,-51.13012,-52.77189,-54.84158,-56.28319,-58.42244,-60.6865,-62.4986,-63.74637,-65.69157,-67.76352,-70.32236,-72.2714,-74.83224,-76.34306,-78.59906,-79.62879,-81.32437,-82.58515,-84.41038,-85.64861,-87.16445,-89.24914,-90.40721,-91.36893,-91.4525,-91.16247,-92.11815,-92.11231,-93.22312,-96.06915,-98.35274,-101.5589,-104.0186,-105.7059,-106.4571,-107.7036,-108.7396,-110.3582,-111.3303,-112.0481,-112.9447,-113.7519,-113.682,-113.706,-112.8284,-112.1144,-110.972,-110.233,-108.8821,-108.7507,-109.3616,-110.8504,-111.5783,-111.0999,-110.467,-109.1237,-108.5356,-107.3001,-105.6022,-103.561,-101.631,-100.0843,-99.42772,-99.87711,-101.149,-101.5623,-102.2316,-102.6643,-103.0537,-103.3855,-103.7866,-103.6477,-102.2794,-100.4862,-98.5391,-96.81355,-95.32786,-92.88124,-90.70208,-88.49556,-85.63392,-84.10887,-82.33124,-80.11704,-78.16756,-75.35228,-72.91051,-72.08909,-70.14106,-68.95827,-67.56999,-67.04976,-66.87609,-66.27222,-65.91817,-65.68977,-65.15143,-66.07364,-67.16892,-68.42216,-70.87439,-72.60808,-75.46676,-78.11857,-79.6731,-80.97469,-80.98289,-81.2945,-82.84353,-84.69121,-88.64311,-92.26434,-97.90243,-102.2591,-108.2556,-114.8686,-121.088,-128.2623,-136.8904,-145.633,-154.8168,-163.4267,-172.7509,-180.548,-188.7228,-195.9186,-203.1025,-209.1806,-214.2001,-218.3923,-221.8063,-223.3373,-223.8165,-224.6436,-224.4039,-224.6058,-224.6237,-224.3135,-223.4358,-222.3875,-220.0018,-216.7986,-211.6607,-205.6763,-198.7246,-191.8958,-185.5579,-179.4667,-173.5015,-167.4988,-162.045,-155.4996,-147.0369,-138.3052,-127.7587,-116.7682,-104.2614,-92.3432,-79.23956,-66.57821,-53.54321,-40.01984,-26.28577,-12.20149,1.601538,15.03391,28.72792,42.28465,54.49038,65.93367,75.31417,84.27367,91.72878,98.4602,104.8674,110.4209,116.197,121.3008,125.395,128.9087,132.1193,134.5569,136.2367,137.3454,137.7052,137.8179,138.5225,137.8029,135.6888,131.4338,126.9059,121.1733,115.0601,108.609,101.1135,94.01238,86.1983,78.19991,71.12961,62.73942,54.64982,46.4126,38.17543,30.47902,23.03649,15.3974,8.747084,1.174177,-4.823003,-10.04966,-13.78284,-16.08283,-18.57169,-18.3724,-18.15393,-17.42664,-15.8493,-15.58991,-15.27711,-15.43571,-15.17332,-14.78775,-13.60397,-12.40175,-12.20529,-11.40903,-10.25703,-9.602228,-9.692976,-9.879542,-9.772024,-8.940163,-7.634126,-6.974347,-5.321338,-3.301666,-0.8558632,1.994167,4.378618,6.749111,9.481281,11.85775,14.95963,17.58314,20.53048,23.21919,26.92557,30.31521,33.09893,35.5142,38.13058,40.52591,43.11403,44.29227,44.03944,42.70807,41.44437,39.28353,37.20644,34.67627,33.70277,33.51192,33.43144,33.00096,32.73486,32.28945,31.53183,30.04607,29.18626,27.78884,26.802,26.16022,25.51315,24.06822,22.6807,21.64182,21.41103,19.77534,18.72328,18.05641,16.72319,15.6805,14.87728,14.15216,13.97601,13.41387,14.16175,14.13655,14.27678,14.59358,14.82462,15.08533,16.00439,17.47579,18.33353,19.24646,19.83784,19.39881,18.61755,17.46864,16.63123,16.23186,15.36783,14.89878,15.38526,15.70063,14.72544,14.64605,14.47585,14.05868,14.07728,13.53073,13.28695,13.47597,12.96839,12.78772,12.75849,11.70717,11.36161,11.94329,11.78835,10.81616,10.60433,10.78768,10.22003,10.21318,10.46258,10.22363,10.03065,9.500719,9.069489,8.845449,9.383029,9.338463,9.581421,9.535186,9.263196,9.526496,9.544164,9.777738,9.382,9.314656,9.841539,10.07336,10.87137,10.97934,11.20902,11.05836,11.33642,11.37144,11.62009,11.52619,11.9835,11.52548,11.45947,11.70608,11.45354,11.4465,11.42949,11.39463,10.98724,10.38883,10.04544,9.083032,8.544521,8.215887,7.825882,7.515316,7.280052,7.513505,7.82892,6.877854,6.781576,7.003584,6.407943,5.778751,5.168356,4.723418,5.077073,4.941361,5.026851,4.960792,5.160015,4.664056,4.478284,4.998875,5.300736,5.267517,5.296777,5.162548,5.112688,5.33767,6.075904,6.443994,6.56203,6.541754,7.130922,7.974907,8.096871,8.566773,8.839224,9.309319,10.03371,10.60656,11.00388,12.01749,12.73057,13.54802,14.48734,14.70836,14.48437,15.00423,14.89279,15.91855,17.23032,17.67447,17.42509,18.37655,19.11442,20.55062,21.31729,21.72927,22.70331,23.83316,24.25283,25.19964,26.35767,27.65481,29.31677,31.44369,32.73881,33.53419,34.97411,36.32052,37.50847,38.6051,39.23388,40.12247,40.81124,41.97417,42.78944,44.25718,45.99696,47.28446,48.2598,48.45714,49.26425,50.15721,51.55277,52.38544,53.16242,54.23762,55.6725,56.46724,57.40563,58.43684,58.97924,59.86287,60.6156,61.14081,61.57928,61.68782,62.30501,63.12355,63.71233,64.18134,64.60147,65.17008,64.80805,65.11185,64.60586,63.40643,61.79357,60.7404,60.54663,60.05631,60.33943,60.55482,60.35664,60.14816,59.53829,59.46311,59.37352,58.71719,58.02,57.64443,56.74247,56.64192,55.89886,55.66075,55.13664,54.84165,54.2695,53.83599,53.444,53.11147,52.35512,50.90057,49.69312,48.95466,47.56748,46.38921,45.45981,45.08599,44.8882,45.16382,45.06282,44.72475,43.58092,43.04787,41.33611,40.09494,38.12479,36.85483,35.3227,33.0246,29.95547,27.06913,24.15797,21.50041,19.35567,17.53703,15.37397,13.88712,12.49006,11.07524,9.496962,9.041347,8.415883,8.828052,8.840901,9.671482,11.26683,13.4129,15.09267,16.36755,17.88105,18.55544,18.58403,19.43906,20.04904,20.20266,21.73118,23.05466,24.32453,24.93272,26.37898,27.5937,29.44119,31.59848,33.83819,35.66572,38.01374,39.69367,41.3299,43.45953,46.05129,48.98015,51.91003,54.29805,56.30204,58.12157,60.00775,61.71584,63.73082,65.33139,67.17166,69.14329,70.87406,73.05251,75.03832,76.4358,77.58416,77.78519,77.39964,77.02987,75.92526,73.8511,71.88225,70.76389,68.40812,65.71128,64.12421,62.68355,61.86366,60.04147,58.45054,56.28222,54.49007,52.89008,51.35881,49.61937,46.66095,44.58562,43.38114,41.51893,39.88168,38.83594,36.99801,36.53676,35.55227,34.24019,33.28752,32.11447,31.05297,30.16874,29.79288,29.12517,28.7141,29.1439,29.78235,31.54371,32.76592,34.34958,35.95721,36.68753,36.88377,36.98192,37.11459,37.22859,37.32244,36.86644,35.75182,35.38325,34.30481,33.23697,32.07342,31.19524,30.34604,29.83778,29.26726,28.70367,27.94387,27.28958,26.92289,26.49509,26.08118,25.96446,25.96558,27.24902,27.79801,27.81044,27.56554,26.26818,24.14302,22.17547,20.59708,18.40575,16.74743,14.89104,12.89731,10.89416,8.951782,6.83401,4.751485,2.606061,0.7114078,-1.201267,-2.272707,-3.313808,-4.547098,-6.20592,-7.544266,-9.417371,-11.57772,-13.34953,-15.73074,-18.12201,-20.62524,-23.08628,-25.25381,-26.96336,-29.00418,-30.88537,-32.07267,-32.91195,-33.32191,-34.38459,-35.33989,-36.06126,-37.40744,-39.01154,-40.91301,-42.32245,-43.313,-43.84497,-44.47183,-45.06993,-45.18214,-45.05638,-44.86596,-44.82109,-44.74221,-44.83007,-43.38985,-42.20396,-40.49429,-39.37549,-37.39428,-35.37713,-33.82032,-31.18237,-28.61984,-25.35488,-22.5525,-19.2927,-15.98592,-12.794,-10.11197,-6.766289,-3.743852,-0.4615779,2.542108,5.508396,9.1455,12.49063,16.56198,20.1851,23.81912,28.02872,31.90326,35.70912,39.09718,42.28382,45.94159,49.23288,52.9099,56.29506,59.02535,61.71999,64.56653,66.98858,69.73654,71.72566,73.46584,74.87269,75.54867,76.73445,77.34434,77.86388,78.43496,78.33085,77.60049,76.50106,75.32707,74.34611,72.87239,70.36677,68.28032,66.6323,64.74983,62.01984,59.55304,57.49986,54.89556,52.90732,50.54672,48.42957,45.55847,42.06996,40.10945,37.73842,35.22293,33.18343,30.57095,28.64709,27.6806,26.75015,24.70108,22.75787,20.16099,17.56115,14.73155,11.76827,8.34329,5.100583,2.217234,-0.7434884,-3.409121,-6.296125,-8.702917,-11.60845,-14.41872,-17.09317,-18.95303,-20.99623,-23.94777,-27.24427,-30.08848,-33.88208,-37.4277,-40.89276,-43.68468,-46.64589,-50.48725,-54.27788,-57.88538,-61.04511,-64.65522,-68.00388,-70.59831,-73.45463,-76.32817,-78.91974,-80.91945,-82.79834,-84.07758,-85.54725,-86.23027,-88.05603,-89.36432,-88.99875,-89.53811,-90.84691,-90.99225,-90.98154,-91.30264,-91.52721,-91.8137,-91.06282,-90.83158,-89.9344,-89.19836,-87.95743,-86.63491,-85.363,-83.48604,-82.08296,-80.62742,-80.05518,-78.82135,-76.55351,-74.46964,-71.84253,-69.10142,-67.32206,-65.0988,-62.6272,-59.7887,-56.57636,-53.76187,-51.41221,-50.57793,-49.47316,-47.59175,-45.88074,-44.74559,-42.89646,-42.50181,-41.30328,-40.85369,-40.63036,-40.34567,-38.98996,-37.63449,-36.56482,-36.66295,-37.25153,-37.11005,-37.95752,-38.83348,-40.23064,-41.44919,-42.75014,-45.58815,-47.04537,-49.49642,-51.15809,-53.45044,-55.70355,-58.29771,-60.44785,-61.63534,-63.47182,-65.20058,-66.50445,-67.83521,-69.70045,-70.66221,-71.70512,-73.12066,-73.6094,-74.0817,-74.32824,-73.94386,-73.75701,-72.0768,-70.79557,-68.3887,-66.40083,-64.26875,-62.04563,-59.50143,-56.64467,-53.49388,-51.25391,-48.85754,-46.14566,-42.68935,-40.20114,-36.60367,-34.07544,-30.0954,-27.31712,-23.8704,-20.62945,-16.4543,-13.03702,-8.944455,-5.868386,-2.385309,1.091055,4.438083,9.163582,12.61547,16.59876,19.70806,23.38865,26.78756,29.96328,33.17938,36.6101,39.02571,41.65891,44.8195,47.26994,50.14826,52.97932,55.13936,57.28638,57.54422,57.48092,58.39928,59.94102,61.69818,63.18342,64.31343,64.82912,65.51417,66.5068,67.65858,69.25235,70.85492,72.18174,72.85935,73.38529,75.11388,76.19094,76.44467,77.68095,77.29539,77.17895,76.21101,77.0153,78.19576,77.45661,76.37304,76.36398,75.92226,76.47777,75.70979,76.09257,76.16664,77.19624,76.47465,73.82016,71.71268,68.4128,66.53076,64.12762,62.53748,59.80971,56.21218,53.36151,50.46679,47.68531,44.26879,41.42855,37.69345,34.55628,31.4532,28.69825,25.33909,21.58668,18.31272,14.57714,10.50013,7.215847,3.360061,-0.1799582,-3.818866,-6.601876,-10.62062,-13.47235,-15.68994,-20.09113,-22.17147,-26.08595,-28.60796,-31.51751,-33.96665,-36.47403,-39.14948,-40.25999,-41.7957,-43.82593,-45.3136,-46.14027,-46.83605,-48.06559,-48.71837,-49.72858,-49.27774,-49.65126,-49.31555,-48.59276,-48.24083,-48.40449,-47.66285,-47.86797,-47.1521,-45.90429,-44.80093,-43.51189,-43.92107,-42.73918,-41.88605,-40.56143,-40.3052,-39.25037,-38.54233,-37.48565,-36.82105,-35.87134,-35.59459,-35.00397,-34.72654,-35.41273,-35.99657,-36.86041,-38.13693,-38.12636,-36.82545,-35.91344,-35.23352,-34.35812,-33.57627,-32.82637,-33.09362,-32.22108,-32.79878,-32.88098,-33.80005,-34.87684,-35.33089,-36.46606,-37.17941,-37.86105,-38.01967,-37.36754,-38.14927,-38.14935,-37.9398,-37.72256,-37.10051,-37.32468,-36.89258,-36.33955,-34.95369,-34.14193,-33.53179,-32.37212,-32.08153,-31.21728,-29.5189,-29.38645,-27.61739,-26.33231,-24.32615,-22.77044,-20.41477,-18.81077,-17.8334,-16.14753,-14.04556,-12.6973,-10.05671,-7.996855,-6.074264,-4.05163,-2.156998,-0.7472838,1.732845,3.588104,4.574421,5.80797,7.488039,9.536643,10.87197,14.00819,14.73278,15.99525,16.52976,18.24507,19.39709,19.93075,21.2725,21.57075,22.9147,23.00521,23.40426,24.15616,24.80505,25.49007,25.31819,25.57536,26.08443,26.46259,26.0225,26.14133,26.04393,26.26126,25.86669,25.474,24.60794,24.05676,23.34521,21.81302,21.23342,20.06821,19.13241,18.37329,17.67091,15.60341,13.38138,13.03901,12.32873,12.11077,10.56762,10.18008,9.062259,8.939984,9.085939,8.459671,7.982841,8.327901,8.117228,8.806465,9.590704,10.24799,11.35905,12.9067,13.1988,15.2893,17.38415,19.62419,21.6402,22.00835,21.57995,22.16655,21.92707,22.51294,22.28555,23.71813,23.45589,23.61638,24.81518,25.09262,26.02255,26.33448,27.31905,27.57203,28.69789,27.74899,29.0508,29.37128,29.67602,30.21478,30.70212,29.79762,30.56919,30.55178,30.95697,31.15825,31.86622,31.74505,32.51309,32.51755,32.73654,32.90942,33.70588,33.05439,32.44206,33.06703,33.50457,33.95812,34.39483,33.18619,33.17812,33.59897,33.66921,33.80233,34.30033,33.46578,33.54918,33.86304,34.32006,34.02004,35.15807,36.08254,34.52061,33.65575,32.40854,31.67029,31.47069,30.88305,31.14028,31.62463,31.14255,30.70183,32.01627,32.92607,33.20836,33.7717,35.16514,35.24332,35.62758,36.66746,36.74305,36.74603,37.14444,37.66548,38.07089,38.1932,37.64065,38.30312,38.16274,37.62023,37.0563,36.15572,35.98806,35.0234,34.60393,32.31198,31.49739,31.81,29.76144,28.296,26.04219,24.71748,22.58236,21.34502,18.81358,15.71784,14.06202,11.62694,8.907255,6.433941,4.045181,1.409248,-1.866442,-4.812891,-8.439697,-11.52042,-13.92382,-16.38408,-19.35734,-23.30573,-26.79336,-29.55859,-32.24435,-34.89921,-38.40458,-40.87596,-44.38068,-46.79106,-49.4379,-52.50958,-55.04221,-57.9178,-60.41684,-62.86009,-64.21157,-67.23704,-68.65538,-70.8512,-72.52079,-73.98835,-75.7492,-77.09833,-77.57918,-78.91721,-79.42103,-80.80682,-80.77839,-81.55269,-81.93171,-82.09904,-80.74349,-78.76299,-76.81383,-76.72116,-77.2714,-75.66054,-75.21861,-74.99179,-75.58785,-74.9156,-73.68725,-74.39156,-74.87911,-74.39408,-73.75938,-73.47493,-72.54037,-72.26239,-72.46243,-72.69191,-71.52989,-72.76589,-73.45357,-74.07656,-74.29784,-72.44248,-71.95478,-71.14976,-70.08692,-69.30631,-68.67033,-66.74355,-65.75635,-63.67525,-61.92817,-60.19705,-59.20999,-57.97471,-55.2472,-52.82461,-50.90115,-49.01875,-45.18273,-43.15206,-39.73282,-38.29214,-35.79281,-33.11554,-30.18381,-27.3338,-25.57457,-21.652,-18.91293,-16.82334,-13.20636,-11.15804,-7.372822,-5.022625,-3.312441,1.241176,4.241109,6.641439,10.05459,12.3921,15.01352,18.30219,21.55172,23.77169,25.44573,28.9044,31.36305,32.80193,34.97668,36.41414,37.99534,39.32263,42.65756,43.59031,44.31725,45.70297,46.74668,47.37648,47.42726,48.69061,48.86679,49.06344,49.85416,49.84324,49.92766,48.92876,47.51053,48.35635,48.12018,47.25436,46.54027,45.00075,44.21892,43.1775,43.57894,42.23806,41.79441,41.16786,40.36037,38.87869,39.36942,38.32654,38.63239,38.32002,39.18159,39.88193,40.64278,40.12708,39.89525,38.21845,37.28027,38.24941,36.55842,36.16104,34.98567,34.5798,33.36249,31.53071,32.5027,31.615,30.79175,29.6749,28.73452,27.43974,26.14608,25.21004,24.68826,23.47139,22.89579,21.29644,20.35247,20.04667,18.04139,17.48056,16.5142,16.48099,15.70349,15.61617,14.61543,14.8747,13.77137,12.55514,12.4923,11.0814,10.45231,8.575615,7.948529,5.904157,4.455711,1.515192,0.2957088,-1.702549,-2.824711,-4.770709,-5.705873,-6.927373,-7.030343,-7.693904,-8.401453,-9.233836,-9.678276,-9.950333,-10.00044,-9.796394,-9.723135,-9.022046,-9.790828,-8.905056,-8.755032,-8.690244,-7.764891,-7.363549,-6.101815,-5.70914,-5.339637,-4.07059,-4.159135,-2.86633,-2.500911,-2.519275,-1.761982,-1.149438,-0.410957,-0.713241,0.1424379,0.5492325,0.8517076,-0.1374349,1.044751,2.549447,1.767363,1.942586,1.823211,1.299388,0.9057228,0.585429,0.4408269,1.452129,-0.1614649,-1.276203,-1.901148,-2.368167,-2.824655,-3.15788,-4.398903,-6.688214,-6.458111,-8.536804,-9.547932,-10.75643,-11.74612,-13.5485,-14.30672,-16.15576,-17.56817,-19.37395,-20.51187,-21.48443,-22.58049,-25.33025,-26.44692,-27.37271,-29.58854,-30.67369,-32.87513,-34.1874,-35.5208,-35.86741,-35.46492,-36.42007,-36.48603,-38.18643,-39.61835,-41.77121,-42.67633,-45.29357,-47.13772,-48.83135,-50.46841,-52.23558,-53.51625,-55.83876,-56.14767,-56.5666,-57.91292,-57.44709,-57.90114,-57.80025,-57.93615,-57.58013,-58.1328,-58.64391,-57.51941,-58.64316,-57.65887,-57.70959,-56.90089,-57.33394,-56.78221,-55.19965,-53.60515,-52.118,-50.88673,-49.29218,-46.35329,-43.8913,-40.92566,-39.55892,-35.95897,-33.1671,-29.83016,-26.89496,-23.49703,-20.14922,-17.49868,-12.91751,-9.624733,-5.525482,-2.4148,2.09657,5.880566,10.395,14.25563,17.36481,20.93904,24.87725,28.32208,31.23635,34.03129,37.85553,41.12504,44.44725,46.99389,49.38627,53.00237,55.47665,57.89247,59.23973,62.73291,64.59187,65.16459,67.17474,68.96406,71.4832,72.77134,73.30269,73.85903,74.07129,73.8984,74.74552,74.73931,74.95001,74.0409,73.36551,70.44844,68.76636,67.95404,66.83466,66.10735,64.19673,63.33075,63.20241,62.49659,60.81865,61.3609,61.47114,61.28663,60.45265,60.15204,60.63027,61.30413,61.94001,61.88988,62.95386,64.25477,65.90465,68.74931,70.59392,70.86618,71.38916,69.96953,69.14232,68.46321,67.20331,66.55142,65.18886,63.75187,61.87228,59.28476,56.89978,54.88711,53.2419,51.61249,47.72843,44.47418,42.77217,39.55628,36.6328,33.81508,30.62537,26.9819,24.21577,21.96822,18.15438,14.48366,11.62602,8.359523,3.991324,1.274213,-2.022596,-5.222667,-8.728404,-12.50205,-15.49394,-18.59457,-21.7906,-24.40051,-27.71657,-30.11921,-32.29164,-35.32939,-38.2113,-39.7088,-42.00399,-43.82527,-45.7354,-48.53655,-48.38215,-50.38773,-51.3659,-52.66421,-53.72725,-55.14739,-54.93018,-55.44196,-55.6954,-56.13531,-56.9314,-56.60538,-55.18555,-54.44936,-54.01126,-53.22305,-51.63372,-50.10689,-50.25878,-50.29346,-50.18533,-49.34922,-49.91976,-50.75153,-49.87531,-49.06732,-49.40612,-49.674,-49.12688,-48.63317,-49.03962,-48.28151,-47.39208,-47.192,-47.49585,-47.10958,-46.30412,-46.7364,-45.46202,-43.424,-41.23556,-40.07638,-39.05611,-36.67145,-33.52609,-31.91431,-30.34206,-27.62653,-25.41429,-23.99931,-21.50601,-19.93288,-17.05383,-14.45304,-11.88547,-9.070321,-6.962064,-4.058392,-1.2534,0.7508827,2.082958,4.673102,7.101779,8.545834,9.813185,12.06867,13.14023,15.61232,16.76028,16.61613,18.26229,18.68639,20.22233,20.62239,21.65069,19.59206,19.67029,19.83906,20.51147,19.95853,19.49876,19.38055,18.50494,18.24156,17.5433,16.8249,15.3163,14.75235,14.19862,13.51196,11.73286,12.24247,10.48374,8.828836,7.972725,6.257147,5.938303,4.095082,3.541238,2.966081,2.029387,1.453405,0.8549386,-0.2865,-1.141851,-1.110418,-1.879476,-2.846848,-2.618554,-2.371949,-1.838889,-2.348442,-1.087678,-1.113657,0.5776698,0.7416612,2.460059,3.735033,5.446557,6.49514,7.644055,11.03415,14.0464,14.42589,16.07167,18.43284,18.35953,19.17578,19.17964,19.38831,19.5206,19.83089,19.55324,19.64424,20.83162,21.00239,20.67214,21.61738,21.46029,21.86012,22.76977,23.35627,24.25726,25.30101,25.59252,26.13111,26.95415,27.09023,27.35649,29.29851,29.81783,30.1963,30.29354,32.00308,32.31639,30.70032,30.73211,30.85333,31.61521,31.83487,32.90032,33.14322,35.70102,36.98943,39.25907,41.16041,42.26557,43.93957,46.24159,48.39047,50.57512,53.16652,54.82748,56.3733,58.56059,60.6563,61.77581,63.89121,64.47779,65.34208,65.95383,66.52496,66.92424,66.17058,66.47386,65.01418,65.6675,64.2027,63.15456,61.51662,59.19903,58.44989,55.84853,53.5688,50.86448,48.1111,45.23432,43.22939,39.78192,37.00653,32.77919,29.96113,24.84093,21.7874,19.43091,14.97013,11.49814,7.693262,3.960792,0.4345808,-3.148473,-7.118089,-12.19406,-15.45372,-19.25652,-22.91937,-26.8973,-29.68918,-32.89218,-36.65928,-39.52916,-42.97142,-46.14746,-49.11277,-51.17573,-54.92294,-56.47694,-58.53863,-61.06992,-63.46647,-64.43908,-65.15307,-67.22137,-69.36178,-69.74462,-70.62528,-71.94997,-71.46255,-73.35087,-73.41809,-72.95431,-73.44213,-73.52879,-74.3295,-73.13006,-73.33814,-73.01921,-71.74268,-71.39744,-69.97724,-70.40731,-68.96971,-67.93229,-67.34329,-67.04934,-67.60012,-65.92432,-64.40991,-62.53953,-60.61508,-61.43235,-61.26671,-62.95902,-63.07469,-66.04479,-68.10073,-68.99008,-70.463,-71.7756,-73.22308,-74.72927,-75.58533,-76.67962,-77.7358,-79.0661,-80.78414,-81.66803,-82.89754,-82.28891,-83.02779,-83.6565,-82.82994,-83.1325,-83.05131,-82.49338,-83.21791,-80.97242,-79.9352,-79.04573,-77.58269,-75.31505,-72.0504,-70.67235,-67.71476,-65.02983,-61.53755,-58.7042,-57.20138,-54.37167,-51.20931,-48.85288,-46.1524,-43.98918,-41.65419,-38.95588,-36.75311,-34.13464,-30.61783,-28.01944,-25.10753,-22.36969,-18.81476,-14.89791,-10.40257,-6.540134,-2.637851,2.076818,6.375506,10.65918,15.76286,20.19194,24.56818,27.85888,34.00307,37.28434,42.47885,46.85485,50.46785,54.29502,58.94154,62.46445,65.60979,69.67382,72.97988,75.73944,78.24354,80.7126,83.89027,84.82525,86.68822,88.46611,89.65737,89.48722,89.72594,90.31072,91.59559,89.92614,89.50904,89.17637,88.06696,87.48751,84.46496,83.24957,80.74527,79.80421,77.05423,75.39379,72.77545,70.78275,68.27089,65.96181,65.21273,62.43797,61.5126,59.34538,57.53043,57.49769,56.44725,54.50162,52.56642,49.44404,46.45483,43.6154,41.16964,37.23113,35.17194,33.2529,29.56189,27.32211,24.70474,22.50764,19.31476,16.17755,14.83712,10.92542,8.469702,6.72573,4.196422,2.458388,0.06621903,-1.923497,-3.395136,-4.602541,-6.282643,-6.958854,-8.349818,-7.144388,-7.65901,-7.566831,-7.252911,-6.345441,-5.595803,-5.10819,-5.29778,-4.512717,-4.197224,-4.759866,-5.028068,-4.409092,-3.910038,-4.968025,-5.317172,-5.304319,-6.590961,-7.336223,-6.887766,-8.810039,-7.82532,-9.900786,-9.791539,-10.97715,-11.10713,-10.20581,-12.20533,-11.81865,-12.53178,-12.25437,-12.88421,-13.75912,-14.23352,-14.21796,-14.93526,-15.70964,-15.28716,-15.92206,-15.43327,-16.59582,-16.45853,-16.82755,-17.5896,-18.1646,-18.01722,-18.81176,-19.06773,-19.55125,-20.81361,-21.50369,-21.26215,-21.98106,-22.54273,-22.79997,-23.55398,-24.62396,-25.64238,-25.40887,-26.60845,-26.89064,-27.39108,-27.65292,-29.28936,-29.66882,-30.99778,-30.32367,-31.53747,-31.94318,-32.18254,-33.13359,-31.90157,-29.78083,-30.53959,-30.43807,-31.21474,-30.50116,-30.82759,-32.4839,-33.10029,-34.11727,-33.66228,-35.29968,-35.25365,-36.70917,-38.3631,-38.93832,-38.49624,-39.14584,-39.52531,-39.87765,-42.34444,-40.86805,-41.34517,-41.7687,-42.21403,-41.38583,-41.17932,-41.63927,-40.93095,-40.24405,-39.18783,-39.02595,-37.83123,-36.44295,-35.4772,-33.53683,-33.34047,-31.0936,-29.2958,-27.269,-25.22769,-22.75244,-21.55801,-18.52596,-17.24189,-14.58597,-12.54493,-10.05422,-7.929694,-4.734033,-1.69942,0.7550827,4.049028,6.328518,9.954797,11.80303,14.52985,16.78496,20.86374,20.33234,26.26554,26.78938,30.56409,31.61439,35.08535,38.54795,39.22369,42.35319,44.19204,46.4321,47.47617,49.60325,51.24704,53.80796,54.52786,56.14367,57.45828,57.75646,58.34233,58.99912,59.39066,58.58558,59.411,60.3721,58.61956,59.92721,58.49483,56.67673,53.7317,54.15478,54.32249,53.55749,52.20087,51.30312,50.12276,48.61977,48.66949,48.82518,47.24137,47.81767,46.4606,47.24096,46.27502,47.10129,48.04314,47.26358,46.62573,48.37288,49.23615,49.42391,50.98884,50.59639,49.89208,49.02149,49.61811,48.89221,48.01691,47.28073,46.22865,45.50545,44.45874,42.99027,42.99445,40.78989,39.09127,39.35153,37.91139,34.70122,33.58146,31.98578,28.71561,28.70846,25.70641,23.73672,21.21419,19.09797,16.8032,14.02116,12.36023,9.379191,8.183461,5.484062,2.962664,0.9533473,-2.111292,-3.440071,-7.157418,-8.668019,-10.58764,-13.40457,-15.57712,-17.02968,-19.95297,-21.4592,-24.49243,-24.86349,-27.06367,-29.22364,-29.12364,-31.25136,-31.93568,-32.66529,-32.66969,-33.36012,-33.71575,-34.66374,-33.86241,-33.12821,-32.28763,-32.44493,-30.45009,-30.27724,-30.77776,-30.12525,-29.14946,-29.58175,-31.24889,-30.19793,-30.43472,-30.98191,-30.82975,-29.98595,-30.56464,-30.17457,-29.22317,-28.73342,-28.25055,-28.26227,-26.7622,-25.97758,-25.4837,-24.06085,-23.32253,-23.20382,-22.78232,-20.97926,-22.08411,-20.44026,-19.38996,-16.29196,-15.16663,-15.91119,-13.59299,-13.01873,-11.00685,-9.549442,-7.520624,-8.020393,-5.187293,-3.036741,-2.093946,-0.5353655,0.4303771,2.511951,3.327764,3.964693,5.241549,5.864183,7.01122,8.229357,8.187507,9.344505,10.28204,10.61745,10.67859,11.44833,12.27241,11.53401,11.08792,12.53442,11.95413,12.49581,11.41032,12.15776,11.25828,12.4393,10.68671,10.46856,10.4187,8.725179,8.237029,7.227761,5.673737,4.987898,3.103675,2.637528,1.109917,-0.1974449,-0.6869961,-3.579459,-2.865458,-5.976446,-7.635809,-8.669939,-10.56269,-11.60622,-14.5577,-15.40331,-16.363,-17.86753,-19.30243,-19.73261,-21.4615,-22.81991,-23.06495,-23.25295,-23.85783,-24.00586,-24.23792,-24.19269,-23.39931,-21.69855,-21.1122,-20.11872,-18.28472,-16.72519,-14.76669,-13.49034,-12.58589,-11.3037,-10.9157,-10.08963,-10.91816,-9.120073,-10.17471,-9.996779,-9.258992,-9.164125,-9.600023,-9.725903,-9.29283,-9.189829,-9.662182,-9.219925,-8.724778,-9.319249,-8.363241,-9.54154,-9.311627,-8.396681,-9.336471,-8.997022,-9.334737,-9.563231,-8.631291,-10.23893,-8.991186,-10.29846,-9.674052,-11.58318,-11.77879,-12.91112,-11.21603,-13.88879,-13.39409,-14.78699,-15.88833,-16.37685,-13.86806,-14.80737,-16.25057,-15.72725,-17.87941,-17.42541,-20.03289,-19.9345,-22.77626,-23.01077,-22.03564,-24.34804,-26.17422,-26.19175,-27.89931,-27.90572,-30.82759,-28.57473,-32.16038,-31.15057,-32.13364,-30.49003,-33.42141,-32.24626,-31.97918,-31.21243,-32.00594,-31.6097,-30.63504,-30.0771,-29.53267,-28.94307,-26.41485,-27.96048,-25.95923,-24.08586,-23.52882,-21.37231,-20.30619,-17.63846,-15.35225,-14.70405,-11.05023,-10.82251,-7.442545,-5.679804,-4.242039,-1.20647,0.06511622,3.646416,5.789718,7.954883,11.37712,12.87884,16.41556,17.40741,19.59549,22.05539,24.24066,26.05478,26.99886,30.51517,31.22785,34.95584,35.82055,37.81127,40.10284,40.82674,43.10791,43.31375,44.99562,46.03593,46.24688,48.11835,48.29729,48.88445,48.74566,49.93396,51.09494,50.31883,50.967,49.38085,49.08122,49.8299,48.68859,49.63762,49.69721,48.98138,49.38302,48.20942,48.77871,48.89346,48.0236,48.09647,48.03872,47.34406,46.99724,46.26587,45.90156,45.90835,45.17244,44.00166,43.97266,42.63901,43.36892,41.5094,41.74856,40.53753,41.41619,41.92029,41.30751,38.49597,38.24423,36.45399,34.49908,33.71949,31.42226,31.24944,27.02343,28.07677,26.27363,23.46673,21.55305,20.03373,17.7807,17.71007,13.32938,13.93553,9.125823,9.713159,6.961658,5.314852,2.178554,0.7652023,-1.845283,-4.876592,-5.768631,-9.6432,-8.608994,-13.14287,-14.23545,-15.11456,-17.43953,-20.72583,-21.29858,-23.18885,-24.32412,-25.9142,-27.37487,-28.11347,-29.83884,-31.92395,-32.16642,-33.62876,-34.13856,-34.8956,-36.39979,-35.69666,-37.21596,-36.85217,-37.27605,-37.62559,-36.5008,-38.47418,-38.0135,-39.22235,-38.65453,-36.86498,-36.84384,-35.43573,-35.3093,-34.44535,-34.06996,-32.8501,-33.93202,-33.10739,-33.95441,-33.44918,-33.48324,-33.99668,-34.0565,-34.81175,-34.98368,-35.32059,-35.96403,-36.76394,-36.89402,-35.45184,-36.70975,-37.37196,-37.97265,-37.08356,-34.89622,-33.65159,-33.73358,-30.87182,-30.36036,-29.96526,-26.23431,-25.32752,-22.70075,-20.88188,-18.65285,-17.46786,-14.96111,-12.67793,-10.96932,-8.194679,-5.726864,-2.138246,-1.17889,2.126375,2.728053,5.065133,8.432119,8.980463,11.30637,14.19927,15.73126,16.86238,16.40344,20.25771,20.90924,20.55441,22.26914,22.05659,23.79997,23.32771,23.94863,26.50375,24.65969,24.26071,24.88121,25.08637,23.78361,24.34845,22.43863,23.91887,21.59674,22.15147,20.80172,18.7621,17.31237,16.77271,15.44761,14.52209,13.99745,11.44463,12.60908,10.18446,9.007868,8.53217,4.790935,4.734664,3.296442,1.188832,1.122927,-1.558989,-1.475795,-3.958031,-4.684399,-5.204329,-5.768504,-7.195973,-8.512188,-9.171455,-10.10767,-9.681656,-9.548568,-8.932601,-8.157099,-8.735451,-5.849613,-5.899874,-4.570351,-3.247814,-0.3546768,2.658005,2.889557,5.469197,6.395182,7.31551,10.57076,11.18714,11.57415,14.48091,15.05315,17.90514,17.60906,19.4358,20.0794,21.80767,21.90876,22.69441,24.84237,23.50417,26.93143,27.97845,26.34448,29.01036,30.05099,31.28777,32.61075,32.09932,34.74225,34.85671,35.75102,36.57945,38.38319,38.3025,40.44733,39.49711,40.50716,40.18683,41.62062,42.29972,42.25381,43.5606,44.61329,45.23727,47.10502,47.35886,48.10239,49.60907,51.29245,51.92142,53.01131,54.39426,53.59668,53.95841,54.42222,55.79968,54.23546,54.75617,54.41889,54.15954,53.20658,53.29309,52.52755,50.81131,51.02124,48.7608,48.60218,46.34072,44.87281,43.79974,42.30297,41.13641,38.00966,37.31978,34.89117,31.90955,31.21831,29.28778,25.46221,23.77347,20.59369,18.61209,16.70396,13.14084,9.028201,7.851977,4.171888,2.034357,-2.145609,-5.532916,-7.616988,-11.57225,-14.60552,-18.8126,-20.34328,-24.12842,-28.63491,-31.4661,-33.12198,-37.69909,-38.91614,-41.9631,-43.74465,-46.33104,-48.44873,-50.80786,-52.11313,-54.62189,-56.63951,-56.32876,-59.06617,-59.78814,-63.07023,-61.05595,-63.49065,-64.81463,-63.58442,-65.32244,-65.5499,-63.9228,-64.81229,-62.44409,-63.5048,-62.48473,-63.16652,-61.97956,-62.9274,-60.89244,-61.6466,-61.4322,-60.24112,-60.96315,-61.08513,-60.11412,-60.06034,-61.26336,-59.86534,-60.10685,-58.79278,-61.2615,-59.47222,-60.43116,-59.40568,-60.13887,-58.76752,-62.34509,-60.01282,-60.85888,-59.59777,-59.00026,-59.19659,-55.82789,-55.96534,-52.86925,-53.65815,-51.38391,-51.25333,-48.52527,-47.19816,-46.21717,-44.80476,-43.82237,-42.33381,-40.77066,-38.1754,-37.7071,-34.87486,-34.83192,-30.64673,-30.17369,-28.51946,-25.70688,-25.44959,-22.27191,-19.48741,-20.17041,-16.98365,-15.86561,-12.43135,-11.70739,-8.812028,-8.189752,-6.730404,-4.225961,-3.380649,-2.235658,-1.112253,0.2089644,-0.01857534,2.981346,3.891306,5.137257,5.018033,6.349383,5.44127,7.668664,7.410272,6.655109,6.90018,7.452562,6.591451,5.891114,6.099701,5.079769,4.642378,4.331945,2.909081,2.561748,1.691823,0.01203894,0.4771832,-1.265896,-2.549714,-3.489886,-3.806094,-5.203448,-5.906349,-6.301099,-7.607282,-7.171285,-9.496389,-8.845856,-11.53707,-9.438277,-11.51658,-11.0933,-10.21874,-11.17961,-10.68213,-9.078506,-9.602875,-8.943192,-10.53077,-9.755752,-7.990466,-6.74403,-8.011178,-6.169929,-8.533857,-6.693419,-8.175146,-8.163094,-9.635129,-9.894779,-11.54699,-12.07288,-12.584,-14.49318,-16.4345,-18.05031,-18.38146,-18.79751,-21.12706,-22.08291,-22.68099,-23.12944,-21.79325,-23.05822,-21.32223,-20.53101,-20.78416,-17.35959,-18.94758,-16.50341,-16.40389,-12.24845,-12.81264,-8.505757,-7.943909,-6.03321,-2.635834,-1.982201,0.9748513,2.919353,5.967895,7.169627,11.52163,12.27855,16.61032,17.08669,20.36471,23.49363,25.33353,28.14586,30.41044,33.58743,34.51601,39.37982,41.01054,41.49152,44.89782,46.71735,48.67941,50.69915,50.75499,53.111,54.98819,56.52366,56.41454,59.2417,58.94818,59.3437,59.26671,59.94322,58.59247,61.42696,58.56896,58.90198,58.30633,58.04279,56.06164,54.49163,54.07533,52.07683,50.13903,49.94041,45.5707,45.79089,42.35635,41.63771,39.16888,37.46507,35.34352,34.35849,31.94758,30.59441,28.02696,26.97647,24.60399,23.13728,20.78937,19.14232,18.92984,17.90693,16.39536,16.403,15.13775,15.59373,15.65165,16.81534,15.2267,17.58954,17.77663,19.25209,20.57562,21.1202,21.26477,22.13391,21.37555,24.2106,24.25485,24.79087,24.73831,25.62899,25.25698,26.19713,25.79595,24.97787,26.38699,24.76229,25.63262,26.05841,24.6333,26.21551,26.17319,27.04201,26.30247,28.23966,28.00302,28.98255,29.2453,29.95424,29.50495,31.51221,31.25102,31.17977,31.59161,33.25232,30.99441,30.78156,29.66331,29.1738,29.86366,30.1669,30.2166,30.9556,31.82323,32.24081,33.70883,33.94304,36.50304,37.95204,37.90914,40.79381,42.16029,43.14422,42.49152,46.66684,44.53652,47.37095,48.44899,48.94404,49.32703,49.60038,50.50883,51.68454,52.05851,51.15401,51.23174,51.2282,49.96486,49.62433,47.69765,47.67332,46.4358,44.86109,42.62538,41.55258,37.69578,37.33985,32.8355,30.32317,28.38982,25.22763,20.81108,19.16412,14.52119,12.07489,8.234027,5.066856,1.788642,-1.709898,-5.08619,-8.599028,-13.29504,-16.2577,-21.54473,-22.48084,-28.13508,-30.79484,-34.5714,-37.68391,-41.71113,-45.30423,-47.59964,-50.96448,-53.56231,-56.64673,-60.19985,-62.70627,-65.33333,-65.68152,-70.64882,-70.60075,-72.85305,-74.38862,-74.65878,-76.90622,-76.48634,-77.10223,-77.37122,-76.86993,-77.25429,-77.06872,-77.19175,-76.91541,-75.56198,-75.87141,-73.24622,-75.55802,-71.28213,-70.95348,-68.16031,-65.24962,-65.56038,-64.20984,-62.42829,-61.67595,-62.33492,-60.23749,-62.21396,-61.48498,-61.49852,-61.69383,-64.33915,-64.56605,-65.622,-67.39589,-70.47792,-70.80598,-73.36373,-71.7027,-74.22437,-73.65762,-74.40548,-75.28339,-74.52843,-75.68461,-73.76114,-75.34145,-73.38216,-74.91102,-72.75112,-73.25084,-72.49888,-72.49898,-70.57414,-69.24717,-68.05639,-65.41381,-65.30749,-62.32953,-60.36344,-58.549,-55.55971,-53.98817,-51.03847,-48.73697,-46.02214,-42.43962,-40.33286,-36.80483,-34.45119,-30.43874,-28.01769,-25.02829,-20.93436,-19.48663,-15.33014,-11.05384,-11.08478,-6.365057,-2.964714,-0.5571829,1.837154,4.875732,7.63469,9.125836,13.07569,14.37423,18.30707,19.30909,21.70015,22.2052,23.80543,25.16154,25.90197,27.94738,26.8176,28.12903,28.29643,28.96768,27.98597,28.78503,28.75879,28.40612,27.97354,26.56822,26.33177,26.41562,25.50566,23.77433,22.30141,23.30611,22.09711,20.60493,21.97916,18.57708,20.17109,16.57616,17.3414,13.98356,12.20613,9.778643,7.967563,6.257271,5.64932,2.214176,2.918298,-0.7018222,1.173997,-1.405081,0.4007429,-1.681071,-4.565862,-3.184522,-3.218575,-3.582567,-3.593308,-3.028489,-3.519152,-1.410445,-1.647065,0.1463741,-0.5112216,2.149491,3.520471,3.737899,5.645528,6.978031,7.664292,10.71995,11.669,14.25669,15.20562,16.54378,19.81783,20.97547,22.80173,23.64014,26.62414,27.99618,29.82241,29.36648,32.84958,31.94537,34.74106,34.94777,37.18088,36.51604,37.14759,38.88731,38.51403,39.71532,39.89392,39.42581,40.48799,40.29309,39.77823,39.39006,39.62035,39.36014,39.23364,38.81044,37.22188,37.50601,36.64459,36.06926,35.67749,33.97311,32.71875,33.84532,30.84604,29.4192,28.93682,27.32319,26.37826,23.63254,24.02025,20.81085,21.84414,17.31731,16.78886,13.82775,14.68944,10.8619,11.54708,10.28967,8.815395,8.654167,7.55226,7.204046,5.540567,6.738873,6.980879,6.358367,7.209467,8.453354,8.343759,11.48323,11.27121,14.72805,16.02774,18.2097,21.15869,21.63265,24.96329,24.72462,26.7485,26.17977,28.8988,27.44389,29.27477,28.08099,29.6046,30.02166,29.28383,29.80229,30.76472,30.63188,31.47631,32.37212,33.96665,33.16184,34.51818,36.42877,36.14384,37.82009,37.53322,38.6579,39.83388,40.33682,41.05412,41.16601,40.53185,41.23633,41.12037,41.78481,42.17006,43.69273,43.96275,46.3797,47.6844,47.94893,50.29496,50.67672,54.75325,55.41165,55.76517,59.89702,59.93207,62.54543,63.23308,65.73104,66.72614,67.21183,70.39111,68.95818,70.35998,70.15142,71.25635,71.86239,70.73468,70.24888,70.14276,67.34935,69.01058,65.30567,65.91659,62.99517,64.21559,59.44774,57.4657,55.40896,52.79759,50.95662,47.38006,45.39193,41.03485,38.24163,34.34269,31.97101,27.25251,23.90816,20.01059,15.42065,11.24477,6.477627,2.761585,-2.225606,-4.897254,-13.52298,-13.8364,-19.77635,-23.31559,-28.92019,-31.75058,-36.52171,-39.99058,-44.45209,-49.60297,-51.23135,-56.17615,-59.4938,-62.38678,-65.09316,-67.63738,-71.26999,-73.70643,-75.70954,-78.33202,-79.9273,-82.20149,-84.18201,-85.15454,-88.26717,-88.25992,-89.68629,-90.22193,-91.22404,-91.20908,-93.27204,-92.08988,-92.5843,-92.42853,-90.25898,-88.82739,-86.53287,-86.3849,-83.39704,-84.32778,-81.46284,-81.83672,-82.07652,-80.54634,-81.45875,-82.13328,-82.34989,-84.13409,-85.27513,-85.29887,-88.6308,-88.88507,-91.46929,-93.194,-93.50881,-94.03797,-94.55412,-97.61573,-94.84858,-97.36788,-95.83306,-96.6072,-96.26203,-95.68849,-95.4466,-93.34047,-93.88403,-91.56916,-89.75979,-87.97764,-86.19167,-84.70475,-82.75326,-81.47245,-78.21403,-76.14812,-75.15278,-72.16659,-69.07617,-67.27174,-63.12694,-61.86036,-57.83525,-54.85542,-52.42015,-46.99387,-45.67881,-41.1575,-37.44596,-34.50884,-32.86164,-27.82877,-24.50942,-21.03024,-17.10456,-13.80009,-10.27817,-7.372188,-4.140232,-1.194068,2.294798,5.213082,5.938362,11.88637,12.06937,15.92079,17.511,19.53976,22.29585,24.26213,25.70922,28.7441,29.39227,30.37889,32.56254,31.43093,35.51707,34.08951,35.39627,35.17844,36.97556,34.98892,36.05515,34.54417,35.57711,32.43866,32.7779,31.50662,30.35087,29.68939,27.08853,27.37518,24.50676,23.98285,22.76845,21.2507,19.68516,18.79812,16.95604,17.06587,15.58693,15.06557,15.89164,14.63879,17.08867,14.76239,14.9019,14.88594,13.94644,12.24586,13.0036,10.77719,10.70804,10.47961,8.233631,8.356838,6.420668,7.712543,5.818758,6.721292,5.656412,5.096153,5.464513,4.96669,4.525256,4.771591,4.739201,3.765751,5.420719,5.496185,4.293225,5.279347,3.951341,5.356772,4.981622,5.729645,6.308704,6.622564,5.691757,7.053495,6.123562,6.802845,6.33541,8.626299,8.342308,7.744886,7.693472,9.284389,10.35121,9.919829,11.36163,9.865445,12.03426,12.66104,13.48904,14.67296,16.43777,15.52946,17.98341,16.52438,18.17799,18.33672,17.17902,18.2004,16.40807,15.66405,15.57945,14.66403,12.72422,12.70806,11.13418,11.59798,9.471803,10.65126,7.459984,10.31526,7.565639,8.177993,9.375328,8.337106,10.06967,8.773193,9.778988,10.65311,11.71338,12.58867,16.23565,14.60662,19.01965,18.35827,21.85347,22.67407,24.61547,26.8174,29.98776,31.58733,34.52633,36.30375,38.60416,41.27644,42.90226,46.22766,47.37496,49.66323,52.48569,52.609,55.4136,56.57741,58.45677,59.72382,60.02078,61.5319,62.71775,62.21892,64.65266,63.38312,65.94116,65.08673,65.17609,65.82605,65.15815,66.30139,65.69033,65.19648,65.26373,65.35163,64.17979,64.57008,62.93776,63.49212,62.51147,59.78058,61.40263,58.87321,57.71802,58.08372,55.26583,54.75724,53.11679,51.4418,50.40652,49.59706,47.20058,47.09732,45.08823,43.33515,40.23303,39.43773,37.81363,36.09743,35.60365,34.63282,34.72001,36.06545,33.80806,35.49956,35.50978,37.70203,38.53528,38.16248,40.05369,41.94118,43.913,46.95459,47.08407,51.56026,50.97312,52.21473,53.716,54.03217,55.26513,55.12151,54.68085,54.90188,53.80013,54.74754,53.43978,52.55977,49.94649,49.13318,48.01375,45.75371,43.44302,40.89029,38.52822,36.15207,32.48522,29.03506,26.85649,21.23442,19.13589,13.86807,12.22456,7.168143,3.906928,-0.09516093,-3.702436,-7.77982,-10.35178,-16.13395,-17.96603,-22.9303,-27.05576,-28.33579,-36.07807,-37.05582,-43.23605,-44.64584,-50.02282,-51.63015,-56.16466,-58.11604,-61.92061,-64.22219,-67.07455,-70.06212,-71.73865,-74.64632,-75.60148,-78.37578,-80.20477,-82.07765,-83.01103,-83.96701,-85.23572,-85.60279,-85.91298,-87.8724,-86.97763,-88.77155,-87.4855,-86.56378,-88.24173,-86.06267,-84.88432,-82.77459,-81.66285,-80.54514,-79.33541,-78.61663,-77.61807,-78.29879,-75.41383,-76.89157,-76.60435,-76.34726,-77.60283,-76.67068,-79.20334,-77.17228,-78.01344,-80.4043,-80.11581,-82.37662,-82.611,-85.15939,-86.47666,-84.6397,-87.27517,-87.02472,-85.81694,-87.09533,-85.0121,-86.46568,-84.86557,-83.70376,-83.66843,-82.13458,-81.94993,-81.91882,-78.34297,-78.87198,-75.57036,-74.91778,-73.66594,-70.2386,-70.89884,-66.40418,-66.36451,-63.1446,-61.79277,-60.12656,-56.87374,-55.54082,-50.79989,-49.16737,-46.58706,-42.62878,-42.0125,-36.93361,-34.99086,-34.03294,-29.14546,-28.28888,-24.49807,-22.32779,-20.34882,-17.74583,-14.95541,-12.80462,-8.628536,-6.421577,-3.506398,-1.274683,2.33996,2.744002,5.522185,6.929418,7.003713,7.583054,8.070027,5.958494,6.943975,6.254616,4.817563,6.199575,4.593194,5.010103,4.368344,4.627675,2.702799,4.966157,2.640247,4.05744,3.621491,3.113837,4.247601,4.129135,5.13799,3.866957,5.066514,5.344009,7.448176,5.5601,8.500171,8.138984,7.979942,9.609622,11.07309,11.56881,16.06845,16.64015,20.10984,22.49834,26.27268,26.79228,27.22194,27.63463,29.09882,27.83048,28.74298,28.58327,29.3304,26.54051,28.71085,25.93802,25.65235,27.06156,25.63094,26.5357,24.25289,26.03977,25.07506,23.67161,25.61498,24.43175,25.33582,25.13324,25.67801,25.70207,25.55046,25.97445,26.54541,27.54745,27.92429,27.13991,28.04862,27.15314,28.6018,28.32805,27.79462,27.11024,28.0044,26.73118,26.82552,27.0461,25.94851,26.60999,24.3542,26.55662,24.21176,26.22697,25.02688,25.43841,26.60728,23.8583,26.61657,25.92231,23.73031,26.47205,23.8185,26.43018,26.29847,27.20362,27.37051,28.27928,29.34955,31.76446,31.92123,33.91289,34.14368,35.07629,36.83664,35.61887,36.86582,34.64433,36.65215,34.87531,33.0992,33.95156,31.97861,31.29032,31.92961,30.76824,29.65012,29.21517,28.32147,27.04438,27.18954,25.02724,25.04157,24.87286,22.26492,24.32867,21.85077,22.06233,22.67522,21.1282,22.12203,21.32251,22.29079,21.87259,23.07075,22.20013,24.05929,23.37054,24.6624,25.69585,26.63265,28.88749,29.62823,30.54643,31.42772,31.90969,31.94466,31.78482,31.51525,31.2739,31.65236,30.57672,31.6696,30.19143,29.86293,28.99378,31.75961,27.44822,30.92123,31.29191,27.84877,31.81905,29.47458,30.89482,29.88049,29.8064,31.90593,29.99664,30.87952,30.1004,31.65558,30.36087,30.93496,31.01445,29.67281,31.08215,27.97747,30.00091,28.58164,29.63869,29.50415,28.71121,30.19357,29.24052,30.92298,30.8706,31.16567,32.57489,32.02617,32.52742,32.51171,34.02703,30.79745,34.47981,31.50223,33.44953,30.5691,30.77508,30.92372,28.68234,27.30006,27.98445,25.73715,25.60827,22.36112,22.92856,19.07302,19.27107,16.2302,15.92782,12.21171,11.1636,9.084171,6.97072,5.095337,1.424826,1.058948,-1.883314,-1.858377,-6.992108,-6.202484,-8.960988,-12.05933,-14.63378,-16.24113,-18.69349,-21.02185,-22.47169,-26.13644,-26.61041,-29.41695,-31.62815,-32.71044,-35.98034,-36.50413,-39.78779,-41.10293,-41.62253,-43.62243,-43.93074,-46.33324,-47.10553,-47.14097,-49.29228,-48.89831,-51.43224,-51.25096,-51.68692,-52.19984,-52.56118,-53.08106,-51.30174,-54.27519,-52.24621,-54.35618,-53.75068,-54.17713,-54.4728,-54.64487,-55.27385,-53.26398,-52.83339,-50.73566,-53.08116,-50.224,-50.55657,-48.51731,-49.4311,-48.28922,-49.37115,-50.39966,-46.0837,-52.19915,-48.7951,-50.02964,-51.30986,-50.54409,-51.2061,-51.61115,-53.08072,-53.77951,-53.68732,-56.08984,-55.78534,-57.50528,-56.55688,-58.09048,-56.99251,-57.4556,-55.68477,-56.94299,-55.55121,-53.08023,-56.25953,-51.68215,-52.85403,-50.77013,-50.59019,-47.99399,-47.09329,-46.95977,-43.33518,-43.22683,-39.40427,-39.33187,-37.41318,-35.77669,-32.35214,-32.59953,-29.35595,-28.80336,-25.10799,-24.88439,-22.22095,-19.81224,-17.08456,-16.00054,-13.39108,-12.22631,-9.388385,-8.066482,-5.547811,-4.147584,-2.431843,0.1300713,1.38808,3.105159,6.000137,5.535064,8.315604,9.488387,9.689422,11.68852,13.37592,14.68812,14.81732,16.76128,16.15964,18.06636,17.82927,18.13752,18.33461,18.25246,18.72802,18.5365,18.5413,19.24981,18.73734,18.62733,18.88465,17.66647,20.61174,19.74554,18.95045,19.19577,17.64135,19.59425,17.28249,17.86545,15.98066,14.21879,14.78203,10.50097,11.73986,7.460797,6.461588,5.711124,3.481836,4.780639,1.010278,4.203086,2.24621,0.9750709,0.4112904,1.537346,0.3040568,1.640255,0.1986003,0.552005,2.121143,2.554978,5.346757,3.04593,7.00534,7.693014,8.635465,11.33586,12.51519,13.54036,16.28359,19.46205,19.94026,22.68035,24.98682,25.35134,28.89472,29.18511,33.43931,33.19736,37.17282,38.25834,39.38317,42.80618,41.46737,46.75931,45.31666,48.38966,48.96358,52.14611,51.27982,53.35307,54.77299,54.60206,56.50638,54.15183,57.33494,55.11068,56.41451,54.14209,55.42023,53.90387,53.90177,52.33899,52.60696,50.36231,48.84874,45.92217,45.94189,41.88942,41.25403,38.64762,35.46644,33.40925,30.62939,28.3129,24.20691,21.92124,18.64952,16.57562,14.07261,9.913489,8.391323,5.137399,2.055703,-0.2658917,-3.727713,-6.019033,-8.858771,-10.90797,-12.99456,-15.06793,-17.19914,-19.69091,-19.24721,-22.4491,-22.06299,-23.51443,-23.66733,-23.14278,-21.97933,-21.42876,-20.08076,-21.07016,-19.63878,-20.08003,-17.19349,-18.31885,-18.18663,-17.53435,-17.356,-17.70045,-15.55602,-18.62666,-16.08162,-18.47734,-17.88794,-16.441,-18.24779,-16.99225,-19.05597,-15.69972,-19.0151,-19.86068,-17.96657,-21.11098,-18.82224,-21.25078,-21.89985,-19.77202,-21.52354,-21.33748,-21.11351,-24.64521,-22.22189,-23.55722,-24.42315,-25.36293,-25.84736,-25.39234,-25.82406,-25.45886,-28.72651,-26.675,-29.5313,-29.97396,-28.54117,-32.1198,-29.68209,-34.3657,-29.23507,-32.29644,-31.25631,-29.74675,-33.23842,-31.57693,-33.61029,-33.33965,-36.06622,-34.44732,-35.59737,-36.54869,-40.0211,-38.43859,-41.118,-41.18848,-41.57963,-44.85027,-44.97543,-45.19298,-45.92345,-46.41199,-47.62788,-48.13901,-49.04309,-49.81966,-49.40065,-50.42168,-51.4673,-49.05236,-49.87528,-47.68803,-49.85424,-47.53395,-46.70815,-46.24944,-44.653,-43.16914,-42.32954,-38.86396,-38.14123,-35.41707,-34.15504,-30.57462,-29.78119,-25.95406,-25.71688,-22.52772,-19.18782,-18.69003,-13.7997,-12.44573,-9.191251,-7.405222,-4.071774,-1.173334,1.792692,4.774279,6.693638,11.52646,14.8877,15.5849,20.65327,21.04183,26.46126,27.75471,32.36406,32.53079,36.86023,39.08249,43.32894,44.63971,47.71529,48.85424,52.23638,53.97786,56.53598,59.7157,60.25892,61.86284,63.51794,65.88024,64.09503,67.52661,68.28702,69.00025,70.36552,70.45782,70.63192,73.29572,70.06127,73.83665,71.15192,68.25122,70.01286,66.74858,65.15995,66.5291,64.38674,66.53168,64.57732,66.14693,65.38422,67.12769,66.91263,68.80214,69.82864,69.21142,73.02886,72.65165,76.36114,75.78239,77.39918,77.71,73.76032,78.72202,76.29474,77.2984,75.87009,77.00702,75.51106,73.54008,71.66563,73.08379,68.62827,68.8861,65.26509,64.20177,59.8544,60.93676,54.44077,53.2988,49.42255,46.82521,42.04233,38.33266,36.61492,30.97631,28.45341,26.99525,17.64372,19.41949,10.31422,9.676407,2.32274,0.1401859,-3.55643,-8.012506,-12.50568,-15.68364,-20.18722,-23.9453,-27.20776,-31.09476,-35.05686,-39.27666,-42.64963,-45.33216,-49.60913,-52.25227,-54.22497,-56.51701,-60.51781,-61.04121,-65.20636,-63.83288,-67.12194,-67.16282,-68.46183,-67.74672,-68.75281,-71.38197,-68.10377,-70.77043,-69.95813,-72.55825,-68.54536,-72.12363,-70.26325,-69.54879,-70.86145,-69.90052,-70.30811,-68.08461,-69.31653,-65.94084,-66.75937,-63.7827,-64.1079,-60.92951,-59.81342,-58.17406,-55.25099,-51.61048,-50.8526,-46.98453,-46.35034,-41.96518,-41.25394,-36.47931,-36.33274,-32.25118,-33.88555,-29.04241,-27.3658,-24.72663,-21.94012,-15.38897,-15.74022,-9.561445,-7.825628,-3.7845,-0.3875026,1.984996,6.119138,8.124905,12.07329,13.65163,18.14762,19.44771,21.35093,26.27694,26.05887,30.40126,29.04263,36.72092,33.30064,37.71932,37.86708,39.51558,41.0895,40.8579,40.59673,43.02089,42.65402,42.83233,43.64289,42.30049,43.81104,43.04064,41.69346,41.00133,40.64878,39.8475,37.25765,37.21486,36.22747,34.10609,32.85209,31.3447,28.00722,28.60028,23.86027,22.96679,20.57566,18.67377,16.23133,12.26452,10.61968,10.34188,5.629604,5.199675,2.581981,-0.9048726,-0.8420557,-5.82261,-4.319105,-8.890745,-7.451937,-9.90949,-10.14343,-10.84753,-11.13563,-11.2699,-11.03041,-9.54652,-10.61194,-9.204696,-9.38333,-7.905092,-10.59049,-9.21792,-8.163739,-8.861868,-10.75141,-7.407988,-8.400308,-9.038494,-9.16266,-7.526069,-11.01665,-9.714728,-12.04208,-10.94394,-13.33589,-13.47344,-14.90892,-14.59215,-15.99324,-15.18056,-18.48338,-17.76396,-18.9772,-21.46372,-21.42015,-23.72987,-23.82722,-24.83455,-24.55495,-26.88608,-27.73819,-28.47504,-29.59543,-29.41827,-30.62004,-29.73465,-29.54322,-29.06778,-31.86133,-28.87775,-31.38732,-33.1837,-32.61233,-34.60072,-34.42712,-36.56303,-37.79943,-39.37667,-39.46113,-41.23962,-42.52214,-43.45079,-45.48086,-45.67807,-47.12843,-47.02969,-50.82011,-50.43266,-50.87515,-52.02463,-51.95276,-54.7575,-53.47305,-52.16633,-52.17389,-53.22359,-50.89013,-51.82941,-48.66165,-50.17892,-47.93748,-46.88893,-44.41643,-43.58165,-42.14731,-38.61801,-38.62144,-34.03615,-33.84616,-29.04321,-29.18009,-24.06182,-24.30903,-20.14405,-18.7326,-15.90065,-12.88519,-9.551165,-6.11324,-2.413861,-2.173507,4.026017,5.968135,9.188845,13.00561,15.27598,19.13023,21.92761,26.60475,27.11482,31.99591,33.24042,36.83499,37.93102,41.361,42.76125,45.25667,45.99217,49.71556,49.73085,52.48608,53.86649,54.97765,57.09906,57.24726,60.66412,58.64277,62.67812,60.12024,64.46338,60.75699,63.79599,62.31247,63.5469,61.89114,60.57653,60.56207,60.37843,58.26296,58.98371,57.83857,58.47022,59.65746,58.04178,60.46367,59.61414,62.28529,62.11375,64.05872,63.645,66.57247,67.85855,68.86635,71.22548,73.15528,75.0349,75.14348,76.41597,76.90514,77.38764,75.24008,76.29818,75.5485,75.07122,74.42452,73.71528,71.14838,70.60478,69.14622,65.69151,64.15834,61.96223,58.20945,57.20425,54.06516,49.44794,46.72847,42.80077,40.05411,35.18825,31.65953,26.83941,23.5249,20.96885,13.50755,11.54417,5.856985,2.169026,-2.606854,-7.289875,-11.1362,-15.5233,-19.9271,-23.70041,-27.99388,-31.001,-35.82674,-37.93402,-43.18214,-45.5368,-50.75947,-51.64959,-57.34888,-57.32392,-61.92758,-63.24431,-65.06769,-65.03682,-68.44927,-66.8753,-68.60152,-66.39363,-68.67016,-67.7107,-68.00949,-67.30649,-67.07416,-66.27272,-67.11785,-66.61066,-66.36495,-66.753,-64.1844,-66.15011,-63.60456,-62.26563,-61.76898,-61.36253,-58.4264,-59.61012,-55.9803,-56.30072,-53.76915,-52.42271,-49.62363,-48.54973,-46.30931,-43.63227,-42.94568,-38.5936,-39.02397,-37.3473,-35.10227,-33.15327,-31.42145,-29.36147,-25.02509,-23.04002,-18.60477,-14.8905,-11.21633,-7.91027,-4.129831,-2.489688,3.818237,6.738911,10.48136,11.58367,18.05775,17.92834,25.07278,24.06554,29.08957,30.64377,33.42269,35.408,37.16439,40.17358,40.72881,42.24068,43.80939,45.54268,45.53395,48.44514,45.75113,48.46267,45.47745,47.14686,46.50213,43.99064,46.09979,43.9452,42.01023,43.15078,38.83387,39.17063,34.59136,35.07057,30.09524,29.74705,25.60859,23.44936,20.43851,18.02349,12.18844,12.97218,6.449206,5.933393,1.127443,-1.930268,-3.363708,-8.913141,-9.288645,-14.91662,-15.89901,-18.72629,-21.61253,-24.53707,-25.65801,-28.18346,-30.16761,-29.80488,-32.80431,-31.97724,-32.79066,-32.78673,-30.54565,-29.95394,-29.57851,-27.60304,-26.7167,-25.33303,-24.39347,-21.47619,-20.33969,-19.97243,-17.01331,-16.55489,-14.87734,-13.11871,-11.81891,-11.31711,-11.13951,-11.6251,-9.510139,-11.51478,-10.52219,-12.27856,-10.99259,-13.33567,-11.99129,-12.80945,-13.61139,-11.22873,-13.18601,-12.09598,-13.33662,-10.44817,-12.7423,-10.6536,-12.83519,-11.30951,-8.665093,-10.01941,-9.458745,-9.732899,-8.53289,-7.725933,-6.315988,-8.25194,-5.731806,-6.053168,-5.557485,-5.069548,-3.17797,-4.11567,-2.928517,-3.996643,1.291759,-3.193592,2.472493,-1.917072,3.398674,-0.6832067,2.229297,3.173919,3.132284,5.444717,3.407991,5.365486,4.727632,7.09313,4.491856,6.529867,3.91195,7.428746,4.264605,7.945666,5.49282,7.90077,7.134927,9.433044,7.776744,8.537448,8.192681,8.55316,5.473023,8.103454,4.887456,6.838758,4.201501,5.519654,2.85069,3.558724,2.358406,2.497369,-0.7333457,2.070318,-2.886831,-0.4618492,-2.340023,-5.300943,-2.92028,-6.8961,-5.260791,-7.056418,-8.084053,-9.220283,-7.905207,-10.45949,-9.836891,-10.99828,-10.83691,-11.44224,-10.01823,-12.26317,-9.432796,-9.745055,-11.80071,-8.803592,-8.384688,-9.083437,-5.302903,-6.05919,-4.64744,-3.88501,-1.124195,-0.7705061,0.1167208,0.8839022,0.5760022,-0.04950501,2.219955,2.06004,1.75125,2.833579,2.938008,3.078436,5.368685,4.521451,6.70754,6.579241,8.428803,8.800664,9.344576,11.37479,11.24365,13.55941,11.86999,13.66385,15.14649,14.0898,17.83354,14.30342,17.09308,17.99023,18.97698,18.00963,20.53101,18.64538,20.48623,20.48966,19.95123,20.172,20.07071,18.28626,21.00455,18.20033,23.01268,19.20608,21.15918,21.85581,21.82462,22.28098,24.22846,24.70402,23.88045,25.83009,24.6355,27.54697,26.48275,27.33443,26.09649,27.95398,28.37644,28.71283,29.15465,29.9677,28.83762,30.51857,29.06645,30.41223,27.69418,27.79133,26.76248,26.67635,22.35499,24.99498,20.36477,19.7426,19.43679,16.42375,15.93334,13.71337,10.93456,9.157135,6.87741,5.774771,1.102364,1.411385,-3.095306,-4.699795,-8.405512,-10.19362,-13.47392,-15.38723,-19.568,-19.87889,-23.66199,-25.40765,-27.73586,-31.43069,-30.42378,-34.71248,-35.40134,-39.11899,-39.38347,-42.54591,-43.92358,-44.73682,-46.14451,-49.00364,-47.66164,-51.92819,-49.98196,-52.74733,-52.6913,-53.69967,-53.53551,-54.91181,-54.20789,-54.37465,-54.44395,-53.88999,-53.99983,-52.71629,-52.40311,-50.22519,-49.73331,-48.79414,-47.84685,-45.70694,-44.20459,-42.77146,-39.95008,-39.32775,-37.88361,-35.84552,-33.83669,-31.26793,-29.32697,-28.85355,-24.3831,-27.86018,-20.65853,-24.05925,-21.44812,-22.75688,-21.23965,-23.40639,-22.81819,-22.88148,-25.83681,-23.86439,-25.799,-24.65239,-25.98563,-25.00452,-24.852,-25.43245,-24.27161,-22.38558,-24.48563,-19.61531,-21.60305,-19.25996,-17.81934,-17.27041,-14.02277,-15.2107,-11.8622,-11.01003,-8.33668,-7.348865,-4.02035,-4.195785,-0.07086336,-1.470221,4.037223,2.098567,7.891043,6.973244,10.62954,12.3751,13.56156,16.95447,17.0825,22.05461,22.59657,26.56074,29.76389,29.49892,34.03674,35.32385,37.2025,39.76615,41.49947,42.97477,45.12277,47.30173,48.07808,49.17694,51.02545,52.2665,53.45642,54.28483,56.19954,56.25316,55.45693,58.10505,56.67482,57.05918,57.59251,55.75725,56.04533,55.48325,53.84667,54.39687,52.18804,50.23126,50.40429,45.63336,46.98677,42.70611,44.19078,39.02697,39.2856,36.632,34.44103,31.38032,31.11667,28.43925,25.87043,25.77137,22.80025,21.25495,20.26581,18.68159,17.16024,15.19089,13.75827,15.02151,11.61452,12.91369,11.70702,11.37135,11.28122,13.46646,11.29329,13.71502,11.69986,13.76282,11.66383,13.10366,12.61047,10.96461,12.24091,10.57252,9.983409,12.1062,8.829137,12.05707,8.731391,11.25663,8.111276,10.32981,8.653419,11.66798,8.802495,11.53145,10.22406,11.97426,11.02863,13.45166,10.84381,13.29352,13.06305,12.61074,15.28932,12.9745,15.3678,14.70469,15.29892,15.04691,15.48308,14.40503,15.51436,12.20427,14.87529,10.72873,14.96078,11.36497,12.93777,12.6359,11.41189,14.82368,13.52452,14.01844,15.98093,15.53919,16.21623,17.24491,18.43754,19.43938,17.52808,20.71109,19.9699,21.55463,20.521,22.57155,21.6078,22.6483,22.53258,21.33503,23.353,20.5859,22.3682,19.17062,20.92789,18.98727,18.47291,16.98665,17.03676,15.4089,14.2942,12.39151,11.18575,11.21165,7.834714,6.884667,5.794904,2.635339,3.791132,-0.97182,0.1450253,-5.053484,-4.948807,-6.740742,-9.759926,-10.70168,-13.28893,-14.59257,-19.18155,-19.6224,-22.45916,-26.45771,-27.22456,-31.41503,-33.664,-35.37276,-38.73169,-38.70512,-43.56026,-42.39474,-46.77569,-45.92951,-48.24869,-48.86603,-51.33015,-50.72696,-53.80153,-52.7426,-53.01168,-52.87462,-54.71946,-53.58906,-54.24576,-52.67079,-55.25004,-53.51859,-54.81354,-53.80329,-55.37477,-55.14999,-53.90996,-56.42158,-54.38089,-54.79,-56.206,-54.71938,-54.22613,-54.55906,-53.36475,-54.07141,-51.57675,-53.79871,-50.35068,-52.67872,-49.26636,-51.14399,-49.29372,-47.29403,-49.5292,-46.16045,-48.10162,-46.27495,-46.45541,-45.46525,-44.99792,-43.30484,-43.76421,-41.24435,-41.38265,-38.83057,-37.52848,-34.42474,-35.77891,-32.38919,-30.96509,-29.9989,-27.55838,-25.6024,-24.88946,-22.71373,-21.47407,-17.99615,-18.809,-14.53017,-14.27489,-11.67314,-9.211255,-9.15351,-6.109043,-4.529926,-3.918854,-1.234262,-0.2203616,1.553092,3.245481,4.164781,6.856321,8.325275,9.308355,10.57532,12.8082,12.85635,14.91914,16.02894,16.12116,17.80459,19.28647,19.38201,22.05727,21.19272,23.3288,22.81704,24.32426,24.36676,23.52141,24.21181,23.0152,22.92868,21.50412,22.35948,21.75609,19.55815,20.12445,18.1756,18.20871,17.01636,15.88214,15.31516,13.83807,13.5639,12.22891,12.68859,10.90404,11.16371,9.512052,10.95754,10.17383,11.22465,11.55138,8.548787,11.22873,9.36618,10.76181,9.903333,7.922055,9.888069,7.466029,8.621826,7.017679,6.179033,7.572563,4.631289,6.122217,6.138301,2.787172,6.143786,1.98661,5.4089,2.761142,2.92638,3.551726,0.9647552,3.211613,0.9122505,4.540314,0.6672185,3.481966,3.358072,2.657538,3.750209,2.985821,3.468429,3.880203,3.114929,3.269359,3.786925,3.458537,5.606499,3.986528,6.018378,6.065277,5.441951,5.326635,6.843273,5.27301,6.912998,5.927717,6.232511,6.886272,6.921355,8.138547,7.417615,6.947158,9.685835,7.640495,7.692496,9.458828,7.309338,8.900718,9.29058,7.987679,10.25134,9.386893,10.6899,10.66033,11.49147,11.70541,10.93474,10.80296,12.29364,10.34182,12.02082,12.18536,12.26192,13.02602,12.53019,14.9797,13.77946,14.74854,15.43806,14.16811,14.71312,15.14629,16.05561,15.87921,16.73367,16.4065,18.99278,16.29238,18.02814,15.93253,16.90069,15.20031,14.09902,13.80817,12.69744,12.35459,10.71912,9.995868,9.370209,8.770333,8.934541,8.276128,8.235539,8.257723,10.58495,8.393376,11.65096,9.487901,13.62938,12.08062,14.87867,15.98747,17.52898,17.94072,20.40421,19.59393,23.69222,22.03659,26.11812,26.92568,27.99172,29.79738,31.58322,31.94832,35.48106,35.53389,39.64745,38.09361,40.66989,42.894,41.3117,43.78082,43.09904,45.53802,44.85184,47.06688,48.04529,48.63648,48.58745,52.23263,50.11724,52.99475,52.95893,54.96014,55.3302,56.14969,57.22878,56.61365,58.93846,56.51116,57.45473,58.22781,56.36137,57.48831,54.41348,55.34768,53.47654,51.26259,52.44086,47.72877,47.67796,44.64188,42.69845,40.1439,37.61358,35.67959,32.62496,29.25723,28.10137,23.23661,21.85907,18.21858,15.41463,12.50941,8.663992,5.424271,1.831993,-0.7060198,-3.577254,-7.570194,-7.971397,-13.33635,-15.33517,-17.01467,-20.29922,-21.15515,-25.42283,-25.35299,-27.67675,-31.25125,-29.26117,-33.4543,-31.20272,-36.87369,-34.56364,-39.12581,-38.27276,-43.9152,-41.88746,-45.82384,-46.29314,-49.77257,-51.14292,-52.01137,-53.93667,-55.40291,-56.89474,-58.45015,-57.97192,-58.58925,-59.6002,-58.26169,-59.85864,-57.08688,-59.45182,-59.04474,-59.18655,-60.33996,-59.27525,-62.21223,-59.55883,-62.6108,-60.84535,-63.96885,-61.73623,-64.91291,-61.99523,-64.09894,-62.69914,-63.61678,-62.51973,-63.82243,-62.51165,-63.8315,-62.35372,-63.95862,-63.07219,-63.88196,-64.93267,-62.336,-66.92643,-63.49487,-64.81043,-61.84261,-62.42569,-62.27674,-59.21132,-59.69606,-58.12184,-56.07416,-56.65653,-54.232,-52.54025,-52.54339,-49.85352,-48.88754,-46.28839,-45.54888,-43.07565,-42.64231,-39.36552,-38.03385,-36.00127,-36.09214,-32.12935,-32.22265,-28.7734,-27.83764,-23.94231,-26.42651,-21.46535,-20.91819,-20.68685,-16.43016,-17.44283,-15.17783,-13.85939,-12.72117,-10.75919,-10.25968,-8.20014,-8.222566,-4.846414,-6.133053,-4.900466,-3.660163,-2.16572,-2.449334,-0.6097782,-1.230144,-0.193777,-0.8352241,-0.4881839,-0.8946244,-0.9936121,-2.419468,-2.586664,-2.166602,-6.234175,-4.423867,-6.15652,-8.612064,-6.891118,-11.20114,-10.36533,-13.11177,-14.45881,-14.13223,-17.7045,-16.87469,-19.72133,-19.37511,-21.47437,-20.93072,-22.79462,-22.41479,-23.4503,-22.27729,-20.89256,-21.06557,-19.38387,-18.31346,-19.3391,-15.75931,-19.38256,-15.70315,-16.96487,-14.40357,-13.97427,-12.32017,-10.4188,-8.041143,-5.83989,-4.174655,-0.4784358,2.067336,6.35588,9.66663,11.47017,18.35733,20.42463,24.45323,28.72863,31.4237,38.59506,39.33745,46.66763,49.22809,54.57774,57.10133,61.92718,65.38245,68.89054,73.41158,75.66087,77.51883,82.82358,82.38558,85.29499,88.08061,87.43005,90.79205,90.12052,92.28075,92.10627,92.69158,92.16008,90.86453,90.3513,90.12522,87.3931,87.2724,85.07794,81.69349,81.28481,75.97652,76.18712,70.34304,68.46142,63.1329,60.66078,57.77333,50.54514,49.26436,41.73065,40.00904,34.3262,31.02832,26.38261,23.10155,18.59355,15.557,11.79601,8.457892,4.554579,2.755311,-0.3269966,-3.479258,-5.779805,-8.054283,-9.825161,-11.63258,-13.88031,-14.96324,-15.8885,-18.29961,-17.74907,-18.65653,-20.40574,-18.4861,-19.52834,-19.17399,-17.82978,-18.00435,-17.63543,-14.73286,-16.05418,-12.16248,-15.35056,-10.02792,-12.26575,-10.52833,-9.219516,-8.918089,-6.536358,-6.123546,-6.267926,-1.993462,-4.007742,-2.081966,-1.918045,-2.408082,-1.282295,-1.0206,-2.760301,-0.6224522,-2.079153,-2.580997,0.1839612,-4.971423,0.07184119,-4.785738,-0.8312775,-3.946811,-2.401477,-4.329089,-3.225918,-4.807912,-5.786277,-3.617066,-7.330515,-7.334775,-7.465061,-8.592826,-7.230845,-10.63811,-8.075559,-11.4585,-11.05935,-13.02448,-11.74259,-14.59706,-14.475,-15.15718,-15.37405,-16.72444,-17.52374,-16.96041,-17.04805,-15.46407,-19.06418,-16.78245,-18.35395,-18.60658,-19.11334,-22.06015,-21.46072,-24.33576,-22.90994,-26.22496,-25.29359,-26.35887,-27.58244,-28.73787,-30.12081,-27.91567,-31.95124,-30.37404,-31.79977,-31.8537,-33.25629,-31.89986,-33.91033,-33.38696,-31.94671,-33.00278,-30.87721,-30.36602,-31.06718,-28.95554,-29.23943,-27.58263,-27.85681,-24.60266,-26.18218,-22.35357,-22.43818,-20.30484,-18.36459,-16.74906,-13.8423,-13.84611,-12.11224,-9.622803,-8.968317,-7.18806,-4.281445,-4.06504,-0.6448359,-0.2917341,3.526153,3.025391,7.40365,7.697583,9.884145,12.79484,10.73307,17.19598,13.21476,21.11929,17.04772,22.71339,22.6716,25.36268,25.22093,26.84173,27.28707,30.10283,28.86191,32.44411,30.5077,33.37309,32.74545,34.58518,33.64601,34.11291,33.16307,32.63235,34.13262,28.59517,34.91121,29.01903,33.50519,29.57106,31.42924,29.26306,32.03937,29.8825,30.10267,30.79725,28.55861,30.53709,28.91457,28.43762,28.86539,27.50641,29.20234,27.30634,26.93513,27.61797,26.71247,26.99844,26.02438,27.11241,27.32647,26.0515,28.07156,28.04059,26.52799,29.39997,24.39269,27.27598,25.22017,23.28184,24.01597,19.53296,20.87481,18.44681,15.43787,15.94826,12.68183,11.14654,8.925089,6.545702,5.760184,3.1931,1.038303,-1.106835,-2.852414,-4.613313,-7.915383,-7.531891,-12.25058,-14.10421,-13.3166,-17.7134,-18.55327,-20.52194,-22.65842,-23.00393,-23.86904,-27.56028,-26.19679,-29.7333,-28.97209,-31.10174,-31.80481,-31.23694,-34.09369,-32.83485,-33.4058,-35.39189,-34.8434,-34.09243,-36.41697,-34.53237,-35.10057,-37.10152,-32.51527,-37.17607,-32.27762,-35.46191,-31.81031,-33.9447,-30.74336,-31.48557,-29.85938,-27.61176,-29.15921,-22.90482,-26.63383,-19.12622,-22.5659,-16.26702,-18.96992,-14.5123,-15.00166,-12.04297,-14.54713,-10.06563,-14.08106,-11.77962,-13.11665,-13.20413,-15.42392,-16.70955,-16.42434,-18.52975,-19.10477,-18.87959,-18.2651,-19.88956,-18.54593,-19.0785,-18.21411,-17.77343,-16.15029,-15.87458,-16.67631,-13.15369,-12.98137,-11.4221,-10.63655,-8.496683,-7.076946,-4.055866,-3.821111,-1.269415,-1.515684,4.494471,1.858005,7.239863,6.869525,10.63122,10.76347,15.08736,14.10719,17.84643,20.05259,20.80835,22.29541,25.20836,25.18408,28.07683,26.75084,30.78191,29.78225,30.61314,30.77329,33.281,31.85198,34.48564,32.99822,34.03084,34.77043,33.16886,35.67877,31.38076,34.54475,31.10117,31.77001,29.82927,29.17291,29.87692,27.33405,27.50752,24.09716,26.01883,23.81368,21.60991,20.5874,16.97103,17.85675,13.84443,16.20432,9.81335,12.7126,8.736202,8.484759,6.38491,5.877402,3.566894,1.997408,1.884297,-2.418927,-0.2866285,-4.789669,-3.262853,-4.382528,-8.341218,-3.820404,-9.933909,-5.453908,-9.677339,-5.884418,-8.364987,-6.046265,-6.237821,-3.818242,-3.172513,-1.87812,-0.3647351,-0.2584301,3.759884,0.3706733,5.339288,2.924329,3.65048,2.366505,6.042059,1.021008,5.836615,1.971703,4.508587,2.106242,1.030048,1.606552,-0.2632078,-1.166712,-1.2617,-3.340417,-3.441766,-3.834232,-5.512048,-4.364199,-7.6896,-5.856917,-9.528569,-7.759384,-10.04131,-10.80012,-12.04119,-13.01748,-13.12159,-13.70348,-13.33749,-14.00002,-12.85475,-14.54032,-13.87161,-15.94038,-14.22269,-18.48062,-16.33819,-19.43377,-18.03472,-21.35903,-20.65486,-21.6738,-24.45223,-21.3534,-25.63624,-24.07988,-24.44289,-27.94582,-24.40479,-28.63964,-27.76876,-26.48476,-28.20484,-27.22641,-28.10313,-27.87037,-26.55174,-27.6603,-24.92861,-26.94594,-24.68772,-25.29182,-25.13064,-22.41274,-22.7523,-20.71677,-20.00179,-19.99819,-16.73171,-17.34671,-14.35047,-13.3199,-15.14724,-10.13118,-9.514815,-7.904013,-5.326957,-3.154686,-3.535437,-0.3668911,0.5901319,1.416457,3.116204,4.537261,5.110481,6.838691,7.121961,9.247293,10.4088,11.32238,13.75425,12.71201,15.25766,16.57504,14.37654,19.10973,17.69431,20.08926,20.03061,21.02212,22.76209,22.49009,23.45109,24.38473,24.66852,26.87229,25.67027,27.11248,26.72494,27.94405,25.76737,29.41649,28.31795,28.31099,26.95235,25.80597,27.91059,24.33623,26.50089,25.82637,24.24729,24.63043,24.70739,25.49345,24.61373,26.44215,25.0175,26.30626,25.45464,25.73613,25.9847,24.94307,25.35006,26.04776,27.4332,26.27512,29.4193,28.58475,29.36047,29.92408,29.06686,29.65751,28.28036,29.73278,27.6372,27.62187,27.85085,24.85193,25.32578,23.25612,22.47186,21.95934,18.806,19.23942,15.00169,15.70205,12.11174,10.82549,10.75206,6.695364,5.21566,3.688196,0.7602494,-0.08545634,-3.856015,-4.876268,-8.018374,-9.707509,-13.97558,-15.84624,-17.36102,-21.49674,-22.19085,-24.50784,-26.88393,-28.36602,-30.5849,-32.96561,-33.09733,-35.6998,-37.89274,-38.83762,-40.84056,-40.20519,-42.43425,-44.11486,-43.31593,-46.02565,-46.7465,-46.18368,-47.12922,-49.68019,-47.43124,-50.08707,-48.64409,-50.16999,-50.54536,-49.82007,-51.91346,-50.22551,-53.7049,-53.63138,-53.29306,-55.26542,-52.76939,-55.07447,-53.00169,-54.4146,-53.50157,-52.57788,-50.65835,-50.84897,-48.22773,-47.3813,-44.0047,-42.83113,-40.77938,-36.92257,-37.34774,-30.86439,-32.83223,-27.09106,-25.48778,-24.74625,-21.03726,-17.24629,-14.31339,-12.45227,-7.707697,-7.810171,-2.01586,0.1712521,3.840197,6.544816,9.518708,13.25948,14.69914,17.78113,22.44214,20.1821,28.74256,25.39188,32.50126,32.22164,34.23364,36.98138,38.38316,38.90332,41.68913,42.67186,44.01928,45.85501,44.76289,47.84037,45.6958,46.8256,46.03766,46.31016,46.0374,46.01552,45.36128,44.53575,43.9641,42.02653,41.73684,40.47918,39.94433,38.03446,36.69771,34.77808,33.91063,30.82238,30.34024,27.13583,24.73166,24.66085,19.71681,21.78457,14.68292,19.68081,12.61687,14.27208,10.74162,10.5368,9.151316,7.715458,5.955717,5.953053,4.448528,3.598988,5.308677,3.961941,4.969038,4.25561,5.091994,5.642507,7.504583,6.827756,9.448065,9.488365,9.752881,10.71277,12.70675,11.98145,13.1237,14.04864,13.82832,14.13185,14.58386,13.93129,13.97671,13.63459,15.50826,12.78761,14.80078,12.46179,14.42761,13.93731,12.54126,16.17726,12.7255,14.02661,16.43252,12.78142,17.54769,13.83715,16.04973,16.39304,14.50807,17.92564,15.53164,17.88324,17.82434,17.14816,19.06149,17.81142,19.43463,18.78102,19.82262,19.16421,21.6521,19.22484,23.29817,19.49658,22.04428,21.74563,20.70496,21.47427,21.58423,20.94673,24.92316,21.51975,23.83546,23.72127,24.25598,27.12612,26.9142,27.73015,30.35467,29.62593,30.85641,31.78351,31.99381,32.61293,32.43785,35.11618,33.76079,36.02559,32.69406,37.11121,32.63519,36.44293,32.83459,34.47946,33.21414,33.48881,32.69391,31.12622,30.64822,28.98345,27.24405,27.7445,24.92818,23.79155,22.04361,21.80427,16.91449,19.0883,12.44154,15.34107,8.988241,8.745238,6.085537,3.032997,1.338678,-2.042555,-2.584019,-6.749676,-8.237584,-10.29703,-11.99736,-14.98579,-18.69655,-19.89543,-23.02777,-24.34073,-27.57073,-30.02613,-32.26323,-34.21683,-36.36259,-38.79528,-39.21831,-43.01707,-42.84593,-45.5922,-47.2902,-48.35117,-49.75007,-52.75309,-52.05812,-54.59026,-53.51446,-57.15364,-55.45118,-57.56781,-55.47207,-55.11738,-55.75527,-54.85202,-56.54181,-53.42683,-56.52579,-55.51441,-55.90189,-56.77484,-58.37492,-55.718,-59.6421,-54.39097,-60.43686,-54.33826,-61.05917,-54.82058,-61.0101,-56.58269,-59.30794,-58.66976,-59.23725,-60.01151,-60.0942,-60.73686,-60.36756,-62.6105,-60.30784,-61.73113,-63.29343,-60.84195,-61.57417,-59.7839,-59.99469,-58.29333,-58.23845,-54.79022,-55.3505,-52.41778,-51.98802,-50.43973,-47.97287,-47.14847,-45.93467,-43.20011,-41.4031,-40.53829,-37.51427,-35.82979,-34.7405,-31.45285,-32.04386,-25.57757,-27.34184,-21.15495,-21.99922,-18.15367,-16.89021,-14.0197,-13.19993,-9.018774,-9.060913,-6.202503,-5.862604,-2.141201,-5.854414,0.8596814,-1.774926,2.682547,-1.088396,6.083672,0.5170115,6.088161,3.214044,5.522147,5.600295,4.163639,6.148639,4.688179,7.140828,4.161133,5.646931,3.837529,4.825325,1.981944,1.90859,1.678171,-1.541353,-3.492835,-4.550651,-8.759628,-7.80927,-13.31112,-14.60391,-17.79148,-20.32504,-22.3697,-27.29824,-26.1483,-30.38882,-30.53749,-32.31749,-33.2877,-31.67191,-34.06413,-31.71203,-32.37328,-28.74395,-28.4904,-23.4099,-24.45597,-21.0306,-19.51655,-16.13765,-13.60531,-13.11857,-6.187661,-7.712288,-1.011868,-0.9041141,5.365284,6.547326,11.67737,10.57037,20.07951,16.00489,25.90171,23.39331,31.68771,28.67682,36.70212,35.62936,38.33067,43.4028,42.56386,47.76141,47.93336,49.80709,50.6771,52.1674,55.03557,54.39864,57.73164,57.45208,58.08181,58.97719,58.30136,58.1633,59.77586,58.10924,58.24839,57.19815,56.73448,54.75107,54.05238,54.60094,48.27753,53.67093,45.79089,49.08719,43.90823,43.33452,42.24782,39.77089,38.92015,35.01677,35.16034,33.36508,31.60542,29.38567,26.98232,25.35495,23.30321,21.20566,21.08587,17.36976,19.86553,16.13888,17.11391,14.27588,16.83447,13.18151,18.0569,14.19739,17.6998,16.13185,18.89907,21.46892,20.54087,24.96155,22.0228,27.78587,26.17561,30.87345,31.1622,33.1423,31.57604,33.79415,35.14442,34.37708,35.33838,37.01877,34.61045,38.42982,35.82551,37.03459,38.12493,35.41545,40.96082,36.75037,39.48715,39.05488,40.97847,40.25687,40.91488,42.65892,41.35664,43.38821,42.04472,44.21857,43.36124,44.15785,46.69969,42.39289,48.88949,43.75029,49.20332,45.45075,48.80235,46.01342,49.33025,47.1914,48.54339,48.62637,49.33414,47.00118,49.94689,47.52178,50.37617,47.45213,51.28242,48.68256,49.78581,53.16937,49.52589,54.76583,52.77708,54.03434,56.32683,56.72831,56.81485,59.04156,59.21431,60.12275,59.97125,61.86378,61.12392,62.5852,64.41396,60.9099,64.61037,62.28984,62.13691,61.36917,60.5691,60.28915,55.51056,59.5351,51.42465,56.00242,47.28973,49.75508,44.59206,44.7161,39.96106,38.05767,35.80884,30.99674,29.59947,22.58299,22.34013,16.22019,13.41654,7.824506,3.613682,-0.3732737,-3.913262,-9.672258,-13.52665,-18.70232,-21.61475,-27.74786,-30.27529,-37.19794,-39.47117,-45.55942,-47.33524,-53.29189,-58.15088,-61.44485,-65.35016,-68.9608,-72.8326,-75.68116,-80.8253,-82.75733,-88.2057,-87.03698,-93.73263,-94.23715,-96.11689,-99.64456,-100.9131,-101.6163,-105.6787,-104.768,-107.0157,-107.7289,-108.0087,-108.3643,-110.3001,-107.5471,-107.5215,-107.6443,-102.615,-104.3164,-103.4705,-100.7869,-102.7682,-100.1483,-101.7054,-99.64792,-100.0678,-101.6179,-97.25302,-103.1393,-97.83302,-103.337,-100.4303,-103.8327,-101.4259,-105.7452,-104.3965,-106.4375,-108.0544,-108.8964,-109.1178,-109.1015,-109.8124,-109.7729,-109.9043,-109.7277,-110.0083,-108.6288,-108.2688,-107.7145,-105.8895,-104.9281,-102.9034,-100.6462,-100.461,-95.20173,-96.52272,-91.18686,-89.25897,-84.75057,-82.82737,-78.00864,-75.74496,-73.09156,-65.93308,-66.45147,-59.81194,-57.07522,-53.13375,-49.89438,-44.56519,-41.13463,-37.99433,-32.45879,-31.51088,-22.41415,-22.99002,-14.56991,-13.44797,-7.433472,-4.882106,-0.6610143,2.24184,5.520364,10.36901,11.82191,15.28386,18.07005,20.65984,24.7432,25.43961,27.36868,31.03911,31.10346,34.59021,33.79535,37.94311,36.60969,40.34136,38.95069,42.74782,40.97758,42.17107,43.27279,44.06664,41.5238,43.70709,39.94625,41.14919,38.49086,35.42945,34.59576,30.89625,29.41033,25.94221,23.4201,22.2354,19.60386,15.66595,18.49124,14.49123,15.56519,14.02753,17.58983,15.64764,21.26881,18.70685,24.27107,23.01161,24.91107,25.09028,29.47341,25.44103,33.67417,29.4422,36.56321,34.69685,39.60737,38.99214,41.92407,43.78447,44.8587,47.49733,49.77555,51.82848,52.01115,54.99234,55.82416,57.28272,59.30383,59.65407,62.23764,61.31022,63.61538,62.30874,63.59749,63.26871,63.88159,64.08485,63.4096,64.6367,63.79596,62.35469,64.96209,57.67923,66.06242,54.44864,64.01392,54.81711,59.44782,52.43881,55.55738,50.28062,51.72663,47.51514,47.68017,44.22964,42.5773,40.97514,36.84478,38.02657,30.3334,32.77806,26.43175,27.4417,22.93364,22.65447,19.96151,17.87053,15.03835,14.20885,11.44139,9.81309,9.350182,6.196347,6.360643,3.601124,6.098913,0.4143175,3.20984,-0.183176,1.31355,-0.6107353,-0.2136809,-1.418451,-0.297873,0.02203564,0.005198847,1.267906,2.159703,4.519242,2.759024,6.86997,6.977711,7.490016,8.537098,10.02539,9.681437,11.5967,10.84629,13.30338,12.35314,14.03252,14.06537,14.09141,14.80906,14.53145,13.49874,14.60105,15.63117,12.29138,14.60123,13.23336,15.26812,12.9909,16.02949,13.07479,17.20919,14.49977,17.9964,15.98991,19.19665,17.53142,21.66665,17.87051,25.48901,20.05794,25.13367,21.4801,27.33073,23.14944,27.28006,24.09625,27.94871,27.6378,27.85981,31.81724,30.75947,33.47093,34.76394,34.23432,39.05083,37.16127,41.1864,40.87838,41.29729,45.31364,43.9678,46.41428,47.27892,47.39828,49.11724,48.47663,49.79589,46.26699,52.82282,43.95713,53.45522,43.09995,50.34002,44.39803,46.10947,43.79644,40.67309,42.38951,38.61585,36.14127,35.00668,31.96681,27.78836,27.44345,19.9731,23.12536,14.21691,17.64027,7.153083,11.44516,1.927039,2.174618,-2.021083,-5.706333,-8.013862,-12.09899,-14.44643,-17.18356,-22.14,-23.12011,-29.60674,-30.33301,-36.89518,-37.77862,-43.27952,-46.7755,-48.33151,-54.50406,-54.70427,-60.78205,-60.50989,-64.3636,-65.63661,-66.64294,-69.38483,-68.30276,-70.34289,-70.05681,-70.84064,-71.14246,-70.86758,-70.81989,-72.81446,-72.09709,-74.3287,-74.78153,-73.19243,-79.39978,-74.54288,-81.06735,-77.98265,-80.38189,-79.15033,-81.38634,-80.03511,-78.16623,-79.02762,-78.68523,-76.4138,-75.62861,-72.75542,-73.06084,-70.06343,-69.2741,-67.04654,-66.12635,-65.00927,-63.84293,-61.61043,-64.26643,-58.87398,-62.65542,-58.00426,-61.25298,-54.76767,-59.00709,-51.47867,-53.52719,-50.33797,-46.46103,-49.24208,-42.2896,-44.11411,-41.47915,-38.34065,-38.78159,-35.20228,-35.42806,-32.53417,-28.87766,-31.27778,-24.97773,-28.00887,-21.27067,-24.62045,-18.65501,-21.79019,-16.14627,-16.14846,-13.8454,-12.0841,-11.95212,-7.869107,-10.7251,-7.183109,-6.515372,-7.22654,-1.483394,-6.456263,-0.711569,-1.768299,-0.2975857,0.01851967,-0.3675498,0.3959754,0.7768174,-3.014922,-0.007828549,-5.857473,-1.504707,-8.862347,-5.349347,-12.01072,-8.917505,-14.27325,-13.34955,-16.99377,-15.97434,-21.33662,-17.52627,-22.94439,-19.49444,-24.54063,-20.64196,-24.26301,-22.49957,-22.14643,-22.26691,-21.65179,-17.75716,-17.69705,-14.97368,-12.92131,-10.11763,-9.599847,-3.924679,-3.528286,-0.6723808,2.087391,3.33271,9.211127,7.195334,13.98403,12.4444,17.15984,19.17035,22.9787,23.04633,26.92228,28.32084,31.08699,33.17554,33.81843,36.45618,37.87711,40.85951,40.82907,42.10227,46.04431,45.70307,47.93515,47.31905,50.79628,50.70549,50.91568,52.11208,51.4624,51.4003,51.19997,51.39163,51.33593,49.64321,50.6502,48.22139,49.26492,46.27494,47.61442,43.71105,44.99141,42.29849,39.18979,41.75244,34.44451,36.66854,32.78532,30.92369,28.0181,26.87025,22.93841,22.7449,18.63821,18.96465,14.00012,16.87315,8.4598,13.69215,5.36271,10.5262,3.370672,6.462748,2.884037,3.300704,4.29629,0.9921966,6.199047,1.836359,7.186297,6.783114,7.72098,11.31974,10.23882,13.22532,12.2642,15.80914,14.46717,17.54242,16.0604,21.60307,16.12196,23.8349,19.11912,24.20085,22.09672,26.48204,23.56808,29.1086,25.4396,30.52319,28.47269,32.10917,32.88537,31.783,35.97159,33.23468,36.04987,35.62547,39.0202,36.16305,39.36652,39.30836,37.99155,41.88449,39.2147,41.66038,40.69229,43.10464,40.3829,43.80227,41.76967,43.39971,44.16462,43.42964,44.38323,43.08049,43.84558,45.03534,44.05466,44.44496,42.14766,46.41685,41.08639,45.02505,40.65123,44.01464,39.78566,42.5088,40.35581,40.36398,41.46605,36.9189,40.19313,37.61016,39.60629,37.65498,38.86505,37.3485,38.6364,37.91577,39.06349,39.67075,38.67078,41.20369,40.43523,41.01926,44.83592,42.55171,45.06072,45.722,46.83463,48.35269,46.82608,49.18144,46.36866,49.49468,46.07538,48.34019,45.28446,46.41653,45.81843,45.09684,43.98475,43.54302,41.2098,42.23496,37.27871,39.33718,32.87721,34.74253,29.64582,28.70491,26.83465,22.78887,22.04062,15.35935,17.06064,9.793302,10.26252,3.67811,2.78531,-2.212356,-4.877038,-7.658242,-12.35144,-14.20884,-19.84242,-20.71125,-26.61607,-27.74206,-34.40395,-32.75005,-40.51875,-40.21108,-45.35081,-48.6451,-48.52427,-55.5695,-54.31051,-58.98091,-59.74184,-62.42837,-63.96815,-67.58578,-66.8007,-71.62606,-71.31537,-74.6623,-72.95143,-79.26536,-74.06293,-81.7946,-74.60941,-81.92642,-77.99692,-81.64144,-78.01082,-78.44222,-76.97792,-77.5933,-75.91619,-77.4665,-75.69503,-76.08285,-76.9625,-76.34875,-77.70599,-73.80044,-78.83799,-75.01166,-78.20944,-75.76447,-79.36157,-76.60434,-81.8603,-77.41359,-84.15376,-79.04689,-87.41384,-82.14775,-88.93261,-85.6328,-86.68755,-86.24332,-88.21547,-86.82312,-87.31329,-88.12658,-86.41333,-88.68098,-86.46911,-86.87359,-85.1985,-84.02866,-83.6833,-80.66116,-79.91346,-80.05147,-75.99612,-77.21032,-75.49422,-74.27258,-74.6426,-72.34373,-71.31356,-68.76597,-69.32295,-65.76068,-65.27719,-63.9205,-60.42034,-60.57489,-56.74934,-56.20619,-54.63335,-52.07372,-52.43795,-50.95749,-49.86053,-49.16101,-45.88514,-45.70882,-42.19705,-44.62162,-37.64764,-39.99959,-32.97108,-33.94129,-27.44777,-26.18562,-22.07883,-18.90435,-16.52437,-13.70559,-12.6731,-11.53556,-5.626513,-9.275454,-2.209678,-5.9548,0.02749509,-1.723396,2.409698,-1.310936,5.883932,2.39519,8.532098,6.742471,11.14535,9.282536,14.80271,14.46975,17.22301,18.76997,20.27202,22.96522,24.30458,28.6438,31.886,31.32514,38.15828,35.08077,44.22467,37.78194,48.36706,41.56707,51.8423,46.82005,50.23142,48.9877,51.25385,49.93022,51.86876,50.57588,52.95217,50.3234,54.29348,51.58812,51.32632,53.26797,50.10768,52.06939,49.21965,50.30847,46.94341,50.2553,44.47488,50.43946,43.16754,50.6739,43.25168,47.35333,42.82469,45.62983,42.26441,44.10684,43.8164,41.46384,44.25284,41.69636,44.18288,42.45236,42.95614,44.226,43.0026,44.12267,42.90099,43.52976,43.44167,42.21761,42.26967,42.53587,41.09864,42.96294,41.21548,43.19747,39.83391,42.53301,40.2755,39.17404,40.10779,38.80862,38.34311,36.55716,35.84426,34.36576,34.24413,30.91047,33.12193,28.33924,32.58155,26.64616,30.0207,26.48978,31.20595,29.18074,30.32279,31.48578,30.26592,31.9834,28.9188,32.3604,26.26848,30.4158,24.98234,27.15345,26.51093,21.62467,25.04234,20.66,23.55759,19.11409,22.10541,17.78236,23.29812,17.49981,22.2245,19.10733,19.77337,20.11801,21.88407,22.36939,22.12417,24.70479,25.86452,26.05211,30.03008,28.45857,31.7053,30.92522,32.86046,33.29558,34.06896,33.44604,36.34466,33.96246,38.10363,35.64742,37.39215,39.23243,37.79824,39.4442,39.18531,39.92484,42.43535,39.98781,44.28772,40.62311,43.46628,43.37176,44.46876,43.9195,44.20023,45.85914,43.27255,46.93392,44.66586,48.06809,46.15389,48.46352,47.70812,51.84226,50.67274,55.26102,55.02062,58.37479,59.18544,60.7429,63.91997,63.53973,66.19005,66.47411,69.58713,70.05374,68.90223,73.48934,70.53396,72.0949,72.01085,71.18269,70.82617,71.10056,70.09428,69.43177,67.17541,67.22169,63.25577,63.12572,59.92719,57.01954,55.99454,51.96719,49.08695,46.31344,41.07696,38.76474,33.6922,29.02822,25.18616,20.55556,15.31831,11.15068,7.610391,0.5707298,-1.03561,-8.193247,-12.80032,-16.78204,-22.92274,-26.51213,-33.23876,-34.95684,-44.11595,-42.99001,-54.00317,-53.22058,-60.7387,-63.78721,-67.8208,-71.73164,-76.44962,-79.95011,-82.26205,-86.28265,-88.95488,-91.67556,-95.92935,-96.76311,-99.43403,-101.4774,-102.2536,-104.1013,-106.5366,-106.5958,-108.423,-109.5503,-108.2391,-111.7542,-104.7115,-109.5837,-102.6901,-104.602,-103.0793,-100.181,-102.1121,-100.1465,-100.5582,-100.9444,-100.0578,-100.7819,-101.7147,-101.9025,-101.2124,-103.5246,-100.6349,-105.6255,-103.3662,-106.7286,-105.9745,-107.4342,-108.8586,-110.7822,-112.0499,-111.2235,-114.4493,-111.168,-114.2113,-110.864,-112.4291,-110.5799,-109.932,-107.1763,-109.6693,-103.1037,-106.6109,-99.69897,-102.0188,-96.29838,-96.18282,-91.70866,-92.17179,-84.09682,-85.3308,-79.36978,-78.90371,-71.26972,-73.94647,-65.78017,-64.57081,-61.13075,-57.71787,-55.66044,-49.04504,-51.75557,-44.12771,-42.45229,-40.87417,-36.84559,-34.70966,-32.43983,-28.72652,-29.02527,-23.85382,-24.39804,-20.9572,-19.33885,-16.44016,-14.21436,-12.95061,-8.668128,-8.243681,-1.053799,-0.1437516,4.565373,8.343071,8.902301,14.93838,14.40211,19.72034,19.75521,22.71066,24.46265,24.77264,28.09961,26.98567,30.34839,29.65948,32.80837,31.61275,33.90902,33.75354,37.00553,36.75759,38.57789,39.07914,42.20704,41.57152,46.25311,45.50226,46.75884,50.23054,52.12584,52.08431,58.54269,58.70537,63.73939,65.91588,71.04635,76.145,75.8844,82.13759,80.57107,85.0341,86.17861,85.85447,89.81444,89.06745,90.18934,92.27502,90.82314,91.39208,92.99821,92.30528,91.6659,92.59031,88.99007,89.15926,88.15923,84.95748,83.38416,80.2703,77.57906,75.12073,73.50957,66.73971,67.08172,60.5977,60.06647,54.50685,52.50477,47.4905,46.66324,40.70249,41.64932,34.73374,36.92398,28.87675,31.6185,25.43328,26.24878,22.5773,22.60941,17.91037,20.37094,13.73212,18.67899,11.4589,15.41837,10.7657,12.12965,9.292309,10.47509,8.991473,6.373556,9.993777,4.677133,7.006374,4.388216,6.867186,1.71212,5.235494,0.3491835,5.809672,0.3626179,4.642558,2.312413,3.835785,4.999872,4.330914,8.529993,7.078963,10.18493,9.384774,11.04692,10.82464,10.17398,10.01757,10.78041,8.365982,9.239407,6.393368,6.689435,4.57214,4.119241,3.269006,0.4588094,1.514976,-1.982719,-3.785583,-4.564934,-7.365189,-5.955017,-13.52603,-10.31279,-14.16846,-15.09905,-17.20223,-19.01081,-22.07028,-22.39215,-23.10949,-27.05683,-26.89018,-28.24313,-32.76284,-30.95542,-34.89667,-34.43739,-37.52394,-38.06658,-39.62704,-40.76392,-40.94325,-40.77392,-43.20068,-40.25589,-43.91037,-40.97036,-43.04195,-41.41343,-41.18737,-38.12775,-40.65386,-37.991,-37.95731,-38.25111,-37.52026,-34.92311,-36.10796,-34.00856,-31.64412,-34.66349,-29.83587,-32.93908,-31.091,-31.78753,-32.26416,-31.66929,-31.90164,-33.52386,-32.16117,-34.52708,-34.33397,-35.55577,-36.67666,-38.16773,-38.24313,-40.6904,-39.23267,-41.38616,-41.73659,-43.01586,-41.87593,-42.82342,-44.59868,-40.8432,-45.59909,-40.35579,-45.28141,-38.56121,-43.86277,-37.21778,-41.79204,-34.5452,-38.45382,-31.9956,-33.11794,-29.12478,-28.33653,-24.97715,-22.10965,-20.39207,-16.16761,-16.48894,-10.51047,-8.117916,-6.698153,-0.1262851,-1.215257,6.955423,5.68823,12.9078,14.74388,18.14813,22.47354,23.97545,27.4075,32.61091,32.34041,38.53269,39.58174,43.73042,47.19152,49.14276,51.91381,54.99156,57.42158,57.44562,61.01635,62.34113,63.74993,67.02552,64.60274,71.11045,69.41547,69.90085,73.36301,70.23747,74.72715,70.30166,75.02172,70.36001,73.43657,69.06104,68.97787,66.62638,65.66471,62.14938,62.62671,58.77393,60.48251,57.6948,57.68699,56.50846,55.25684,57.0105,53.48762,56.51204,53.52342,56.2876,54.36209,55.34091,53.92715,55.95654,56.55258,55.14474,58.50868,57.85895,59.69198,57.91705,60.59168,55.27796,61.43252,51.61757,59.31998,50.57254,54.62691,51.90366,48.01809,48.78475,44.9107,41.52618,41.39255,35.62639,34.17888,31.08011,27.25019,24.53753,20.31952,16.84116,11.90613,10.67517,5.542118,2.16995,-3.30063,-3.710492,-11.77069,-12.02167,-20.02915,-20.61264,-28.01359,-31.27408,-35.64924,-39.31158,-46.32136,-45.53236,-56.70466,-54.14687,-64.65508,-62.32321,-72.7627,-69.68169,-77.52794,-76.14661,-81.66756,-81.88992,-87.41082,-86.6885,-92.19113,-91.78763,-97.75568,-95.18534,-102.5023,-101.3132,-104.4634,-105.2555,-107.8215,-107.9468,-108.834,-109.8276,-107.1966,-110.064,-107.3535,-108.8648,-107.2605,-103.9977,-104.9319,-101.3011,-100.1693,-95.50567,-95.30941,-89.54037,-90.05577,-83.66337,-82.91383,-78.20565,-74.90091,-72.1717,-68.30269,-66.67255,-60.72106,-60.80569,-55.39762,-54.25415,-50.14827,-46.72422,-41.58838,-38.03066,-33.64505,-29.08394,-23.63382,-20.48705,-14.56693,-11.08628,-5.843256,-1.609673,2.042716,7.795958,11.80825,14.00077,20.80403,23.88845,26.9669,32.82266,33.06044,37.03865,42.19424,41.38302,48.28914,45.64682,52.66153,49.23116,55.45374,52.41374,59.59369,54.14294,60.43444,58.55929,56.67581,62.47836,57.66747,60.6754,58.58634,58.68485,58.21841,59.33737,53.75283,58.60593,50.95923,56.02383,50.87194,53.28163,49.64723,49.79118,49.22936,47.53527,46.62245,45.57299,43.35304,42.06983,43.91749,38.83607,44.03943,36.4385,41.88214,39.69848,39.06945,40.74399,41.65781,41.20713,43.06829,44.3412,44.31636,47.36188,44.93411,49.0101,46.14876,51.45082,46.07187,51.43109,47.8343,52.89989,48.41272,52.62419,50.13293,51.96601,51.90737,52.10588,53.05974,52.11002,53.64109,51.5184,53.4755,51.40472,51.89981,50.83019,50.01181,50.12175,48.54056,48.43367,46.94252,45.12482,44.88475,43.56513,41.42158,42.27647,40.1632,38.74784,37.17639,36.69549,35.31719,34.89504,34.25318,33.29577,32.03073,31.87296,31.33601,30.41971,28.6693,28.7929,28.32217,27.80302,27.65239,26.11831,27.9456,26.86515,25.95335,27.36709,25.0544,23.88577,27.693,23.7253,24.55793,25.81688,24.57301,27.23584,27.73601,27.71538,32.16718,30.51689,34.15606,34.47028,38.06353,39.06245,42.03556,43.10829,45.64155,47.38853,47.99346,52.50968,49.89832,52.41627,52.4827,55.15672,52.4575,55.82063,50.61453,56.60078,50.97578,53.01921,51.42267,50.2285,49.2529,47.43834,44.87403,43.28711,40.53591,37.10555,35.05165,32.30369,31.0436,23.66542,24.68432,17.15569,16.20132,10.79914,6.610381,2.597088,-0.8557108,-6.827041,-10.36892,-13.87671,-19.47231,-20.74279,-29.68428,-29.45936,-37.73887,-37.47342,-45.90882,-45.83881,-52.68779,-54.47438,-59.53991,-63.41968,-65.92249,-69.57033,-71.53714,-76.47406,-78.53907,-81.53153,-83.95824,-87.77941,-88.86984,-93.35603,-93.70896,-96.28771,-97.40361,-99.61398,-99.68401,-102.8934,-100.061,-104.4909,-98.11505,-102.7297,-97.88022,-101.1849,-98.12468,-102.8818,-98.75001,-100.9711,-102.1012,-100.4077,-103.2779,-102.5986,-104.1193,-103.3284,-106.8896,-105.1739,-105.861,-108.393,-104.6842,-111.0516,-106.211,-110.7138,-107.8098,-111.961,-110.2543,-111.3189,-111.4487,-110.3389,-111.0211,-109.6703,-109.4838,-106.4981,-106.7333,-104.341,-101.9925,-100.2354,-95.06898,-96.44102,-89.53783,-88.80255,-83.61256,-82.79198,-76.95167,-74.23128,-69.64941,-66.91808,-62.34948,-57.29921,-54.55947,-48.47564,-45.63036,-39.80803,-38.40651,-29.66982,-30.64971,-22.07665,-19.82038,-18.08443,-7.990865,-12.4381,-2.608312,-2.498893,2.138072,5.369241,6.851657,11.90241,14.0306,16.09812,19.09681,20.09705,24.24728,22.64768,26.07683,28.70965,27.95631,31.50425,29.75113,32.03648,29.94368,33.46869,28.38582,33.93679,25.81332,30.70069,25.43371,25.97451,22.18418,19.90729,19.41444,13.9237,15.45853,9.303012,11.33711,5.546552,6.611764,2.321415,0.696557,1.765015,-2.477201,-2.258009,-1.057325,-4.846406,-0.3470293,-3.044869,0.3313216,-0.4470767,4.765564,3.574678,10.85183,9.027132,17.49611,13.28167,20.0971,19.4206,23.6544,24.02627,28.02192,29.90745,32.04192,36.69467,37.11719,41.1823,42.99795,44.32337,49.43725,49.53876,55.05648,53.05735,61.03442,58.50482,65.4707,64.4524,68.5702,68.25349,71.36264,72.08641,71.67364,75.93642,71.83293,77.58099,75.4192,76.70398,76.15662,77.24152,76.73059,75.57249,76.77323,73.92137,74.20317,71.74365,71.93905,67.95391,69.94904,63.95766,64.4602,60.37448,60.83767,55.14228,54.9909,50.79229,47.23857,46.42029,41.45463,41.86374,35.95835,35.72681,30.75957,27.47232,26.59173,19.37729,22.53045,13.87549,13.2404,11.15329,7.758427,7.465624,3.875077,1.891337,3.101347,-1.482367,0.3205771,-2.454396,-3.019444,-0.8687073,-6.128933,-2.149228,-6.516578,-3.345552,-7.118201,-3.421941,-7.797565,-5.113311,-9.004631,-5.115723,-10.00625,-8.390093,-10.53833,-9.764197,-11.13999,-11.56511,-10.17232,-12.40321,-10.77648,-13.22803,-9.894967,-13.83981,-12.40344,-9.994329,-15.57685,-8.942405,-14.23122,-10.7766,-10.72616,-13.23917,-9.271208,-14.52792,-8.023106,-14.93674,-9.121053,-14.27121,-11.30169,-13.55488,-11.3035,-13.09596,-12.6015,-12.22537,-12.1798,-13.46116,-10.12914,-14.81263,-10.0623,-15.98987,-11.83555,-15.00736,-12.3614,-14.55078,-12.46871,-14.99633,-12.9183,-14.52175,-14.79618,-15.28785,-17.03684,-16.5353,-18.66345,-16.40644,-20.52484,-15.33145,-23.29661,-15.89217,-20.19409,-16.90785,-19.69732,-16.48533,-19.5263,-18.37341,-19.61272,-20.08557,-22.4066,-20.84506,-25.20346,-23.94381,-26.77905,-26.87758,-27.50102,-28.76784,-30.70087,-30.92244,-31.02964,-33.90925,-33.1954,-32.89678,-35.14777,-32.90344,-36.26237,-34.37675,-36.16733,-34.53184,-36.54168,-33.87018,-36.49607,-33.07209,-37.05701,-29.48521,-36.49794,-28.16812,-32.24548,-27.42367,-27.36825,-26.84916,-22.12914,-23.32329,-19.52613,-17.05174,-16.87155,-11.52168,-12.123,-8.989124,-6.441189,-4.709037,-0.8571409,-0.7240915,4.891136,3.171863,7.490098,9.296428,10.77936,13.72879,15.20936,18.65223,18.90383,22.15537,22.27572,25.36672,26.09638,27.19707,28.32976,31.74675,30.18458,34.32335,32.14307,38.11336,32.87452,39.59236,36.45925,39.9776,38.7086,41.86477,39.20472,42.79619,39.71342,44.01338,39.16829,42.48893,38.96421,38.40105,37.13044,35.49761,37.76977,32.96042,38.32602,31.65496,37.6612,33.38537,36.33288,36.32923,33.70418,37.54815,34.58614,37.37964,33.0868,38.43181,33.34015,38.59871,34.86301,38.27704,36.67582,38.34716,38.44109,41.39975,38.34983,43.67324,36.99176,44.71734,34.59077,42.43655,34.41123,40.75743,32.56379,37.47149,31.70176,32.42616,31.38361,28.54219,27.60414,24.97574,22.93214,22.65586,17.63516,18.48252,14.04671,13.17822,10.08634,8.38982,5.385569,2.263868,1.534537,-4.573511,-4.332972,-10.5663,-10.66717,-15.549,-17.93583,-19.6339,-23.53624,-23.34705,-27.9122,-27.55746,-31.62572,-31.51005,-31.71304,-36.02987,-33.6287,-39.17534,-36.33165,-42.14648,-38.53171,-45.66919,-40.12521,-47.50181,-42.09938,-49.44532,-44.87476,-50.32235,-45.83257,-51.29688,-45.58432,-50.62715,-44.93093,-50.10999,-44.04161,-46.99039,-43.39664,-42.00366,-40.05481,-39.12883,-35.39369,-32.83138,-30.0933,-27.21648,-23.78801,-19.19437,-19.9386,-8.722404,-12.57904,-2.403846,-3.403858,4.246884,1.858838,9.92965,8.037961,12.006,10.45473,13.83558,11.43875,15.94871,13.26673,17.15551,16.33016,18.54294,17.66757,18.751,19.56662,19.5493,19.81387,19.85184,18.91365,22.1505,17.44179,21.96211,18.31918,21.4563,16.49044,19.53486,16.79203,17.39846,17.16719,15.82305,16.09379,13.91662,13.16027,15.74083,9.073531,13.54047,7.70215,10.55645,6.483157,7.033506,5.441475,3.927185,4.226338,1.05728,3.738994,-2.899996,0.7482756,-3.569816,-1.137053,-6.297368,-3.837716,-6.267068,-6.906816,-8.298784,-7.107033,-10.32821,-7.794137,-12.76347,-6.05484,-14.5476,-7.51324,-10.79635,-8.0768,-9.011047,-5.687795,-7.704126,-2.130605,-5.407503,-0.4851579,-0.6926599,0.9823746,2.620321,2.996284,3.391792,5.669894,4.042331,7.542025,4.896481,7.668598,3.396714,9.300547,1.671822,7.973078,0.744444,6.107977,0.05189606,3.111913,-1.411197,1.348221,-4.948848,-1.237132,-6.338188,-3.314975,-9.907953,-4.410148,-11.99076,-7.595799,-12.03159,-11.38472,-11.90129,-15.14547,-12.03626,-16.396,-12.72722,-16.98796,-10.09848,-17.82668,-10.88438,-16.09819,-12.93189,-15.12168,-15.50504,-14.19931,-17.84557,-16.15581,-17.49113,-16.86595,-18.64049,-19.7553,-17.70152,-20.04066,-19.21291,-20.55285,-19.9254,-20.73509,-22.10516,-19.14269,-19.21691,-18.45796,-16.55426,-19.66209,-15.90349,-18.23214,-18.6224,-17.60117,-19.36034,-17.34787,-19.47099,-18.39837,-19.10548,-20.251,-19.32385,-21.30459,-19.39625,-22.74949,-19.85566,-21.83601,-22.25855,-20.28559,-23.0936,-19.93258,-24.19494,-19.61384,-24.25981,-20.95167,-22.94148,-20.81476,-22.53215,-19.92432,-23.38892,-17.06861,-21.80654,-16.9577,-18.8059,-14.625,-17.06209,-12.90296,-15.16792,-8.690525,-12.3999,-5.557537,-7.761694,-3.372987,-3.11196,-0.3825131,-0.5153603,4.953583,1.755709,9.664297,6.887604,11.05363,12.1892,15.80446,17.21922,19.79396,22.23036,24.05627,25.28054,28.43401,30.0447,30.96852,33.27628,35.50965,36.60134,40.351,38.99552,43.33073,43.02209,46.44703,45.58892,48.11912,47.94148,49.81028,49.36239,51.78547,47.56053,54.11797,45.55389,50.85221,46.48205,47.0907,46.4284,43.60007,44.2547,42.901,42.7815,39.94139,40.08597,40.80946,37.2324,40.80345,34.48406,39.92227,33.69582,36.62871,34.6615,34.28359,32.90291,33.95859,32.3118,30.85571,32.23878,28.58743,31.5201,27.55701,31.28315,29.02098,29.44165,27.93209,28.65948,23.88254,26.64994,22.32584,24.17831,19.76711,20.98755,16.75556,17.45492,13.76716,13.78555,9.744844,9.532492,5.103603,6.540641,0.9572251,1.718685,-4.182295,-1.773249,-11.10115,-5.538614,-14.64076,-11.52829,-16.23705,-17.42805,-18.89421,-22.76998,-23.34458,-26.73934,-26.25112,-30.79829,-28.95,-34.39637,-33.35788,-35.80036,-37.85445,-38.09649,-40.87407,-42.80295,-40.37795,-45.10447,-43.54161,-46.31786,-45.10143,-48.88265,-47.35614,-47.21482,-48.97976,-48.09861,-47.55305,-48.79536,-45.43626,-47.49532,-43.7213,-46.1515,-42.88602,-43.02746,-43.48099,-43.44656,-42.76288,-45.23834,-42.29905,-44.53344,-42.94571,-42.83032,-43.83699,-42.90563,-43.58412,-43.85613,-43.57558,-44.27276,-42.66927,-45.77029,-41.03594,-48.69053,-41.33217,-48.58848,-43.20702,-47.90611,-42.83323,-48.81418,-41.11651,-47.82551,-39.93333,-44.54843,-38.16094,-40.9435,-36.24466,-36.4871,-31.55311,-34.42713,-24.57008,-31.98655,-19.80985,-25.27223,-17.12956,-16.90774,-14.05538,-10.44969,-8.992862,-5.161967,-4.256197,0.9110752,-0.137284,7.45553,4.108803,13.22918,9.75242,17.10024,15.28227,21.17239,21.22357,25.11192,27.20807,30.26347,30.18898,33.4104,34.01721,36.17482,35.92386,38.35948,38.15434,39.47857,38.88141,40.96387,38.72455,40.32185,38.97935,41.34218,37.57825,42.40121,36.45595,39.90504,37.15204,34.86433,37.80335,31.66612,37.42885,29.42984,34.10863,29.37741,29.66147,29.18959,25.98394,26.97859,25.1811,23.7488,21.77431,24.25305,20.05776,21.69376,20.29687,19.11516,18.49956,18.67922,18.08792,20.82072,16.88061,23.10217,18.35293,23.95003,21.92171,23.47178,26.09694,23.27996,26.76917,26.66429,25.16378,27.31064,26.14716,27.07673,28.72861,25.05187,30.21053,24.67404,29.17281,25.79633,26.97478,27.04182,27.64298,26.10098,26.49403,26.29622,27.57699,24.05091,29.71954,23.49291,29.25251,26.82089,26.2278,29.2191,27.16844,29.08092,29.16218,28.0107,31.14317,29.85577,31.38926,32.60437,30.82876,35.52824,33.43054,35.18733,37.36046,36.25,38.77519,40.10541,40.07141,43.04305,42.33888,45.14076,42.40336,45.65806,42.51758,47.27852,43.47908,47.4616,47.69384,48.47452,50.08202,53.15823,52.44929,55.58835,59.00687,56.24913,62.32914,60.98382,65.56612,64.19497,68.50631,68.74854,70.07512,71.62545,70.42752,75.60126,71.65521,75.47139,73.09257,75.94873,73.26625,72.83708,72.74037,70.51114,69.68535,68.74,67.22588,64.27994,65.64836,57.43744,61.14485,53.92002,53.1008,51.12891,43.6181,45.06177,38.49781,34.68303,32.78232,27.68078,21.46353,21.35109,11.08133,11.46655,4.792452,0.3689271,-3.397208,-9.031794,-12.64574,-17.63294,-23.2605,-25.24136,-34.30094,-32.7211,-44.52949,-41.33202,-52.47814,-49.07138,-62.57311,-57.17859,-70.998,-64.4713,-78.18407,-73.47964,-81.9666,-82.04305,-86.04171,-89.2561,-90.0132,-92.97478,-95.19443,-96.91506,-99.43984,-98.53467,-102.0282,-101.6228,-102.7425,-103.882,-103.5228,-103.3954,-102.8658,-99.11857,-104.3015,-95.14064,-104.5601,-93.35291,-101.9488,-95.29318,-99.92314,-95.72562,-99.38577,-95.27889,-98.20149,-97.03792,-97.40299,-98.67412,-96.78918,-100.2197,-97.77519,-100.3989,-100.823,-101.6458,-104.5686,-101.5497,-106.1709,-101.0708,-107.0603,-102.0854,-103.6748,-106.6149,-99.66395,-104.5902,-100.2421,-99.29019,-100.042,-96.84375,-95.0315,-93.82866,-94.24761,-89.11831,-90.44078,-84.05176,-85.34901,-79.60576,-78.30114,-73.47761,-73.57798,-67.39783,-66.00453,-61.52429,-61.12661,-55.39047,-55.63205,-50.6469,-49.73227,-44.3121,-44.47837,-38.708,-39.86307,-35.9815,-31.97084,-31.83677,-27.56964,-26.23226,-25.18841,-21.32409,-20.03519,-17.06902,-16.16261,-12.78838,-11.97306,-8.079115,-8.91581,-3.035959,-3.884691,-2.725886,3.217174,1.666674,7.77571,7.439912,10.677,13.33824,11.41445,17.43401,12.71947,21.25438,14.21979,22.30107,15.42864,24.24276,16.29945,26.94753,17.26729,29.50208,18.15925,31.09001,22.21751,31.36625,29.07938,32.83879,33.43783,37.10743,37.59403,42.3933,41.94827,45.18861,45.22836,48.91494,48.64177,53.5988,53.02531,54.63878,52.98447,57.81119,51.60014,61.22724,50.54911,62.95015,52.53206,62.53063,55.43801,62.23279,58.48815,60.25726,61.03884,61.50913,61.72657,61.842,65.507,62.7157,64.72812,65.52703,64.63365,67.82338,63.41937,70.05015,63.48446,68.18708,66.12004,65.19457,70.1452,63.51238,69.24886,64.34612,66.39534,65.66694,63.42336,64.77154,60.63986,65.56092,61.15967,63.40048,61.84062,61.30699,62.53075,58.87249,61.61743,57.1599,58.24989,54.89502,53.96323,53.57566,49.01096,49.96855,47.02164,46.8277,42.68271,44.22369,35.85061,42.97987,31.95323,36.02479,28.24836,30.19769,23.81251,24.60538,20.88223,18.24102,16.44484,12.28467,13.51265,5.635326,9.428596,3.968143,4.971195,-0.4163046,4.27311,-2.390405,-0.6746034,-3.5325,-8.017592,-4.634421,-13.01291,-9.845531,-13.03399,-16.11207,-14.3304,-21.16184,-15.19833,-21.7229,-18.30225,-21.65493,-20.76889,-20.05385,-22.36472,-15.42366,-25.37988,-12.18711,-22.06904,-14.33175,-18.55476,-14.1011,-17.72158,-13.7167,-18.87664,-14.59589,-19.86421,-15.2003,-20.03428,-16.82358,-20.7935,-18.4884,-20.81437,-18.46135,-22.83508,-19.34405,-27.00685,-20.88497,-30.05009,-25.43787,-32.65945,-28.61378,-35.72472,-31.31101,-38.40857,-33.83463,-40.7644,-35.50898,-39.67784,-38.47449,-41.16219,-38.09961,-41.16752,-36.66983,-39.80745,-36.11388,-38.6857,-37.34108,-35.66202,-38.99945,-34.02455,-38.43483,-36.44812,-35.27251,-39.00456,-34.74092,-39.71257,-34.09111,-38.84881,-34.91778,-37.35328,-36.19772,-35.26729,-36.73129,-33.98418,-35.9866,-32.79967,-35.41853,-31.56609,-33.52293,-31.16553,-30.53924,-30.62964,-28.25946,-25.93627,-28.42021,-24.75395,-23.79728,-26.37084,-17.67018,-25.82433,-17.4427,-20.69683,-16.99537,-16.72901,-16.20256,-14.10844,-14.01345,-12.03618,-12.79939,-7.752933,-11.75073,-3.771214,-8.678726,-1.097573,-5.404212,3.63208,-2.762786,7.396935,2.039667,9.012884,9.314316,8.524627,13.53447,12.29997,15.377,17.50409,17.1252,21.63196,21.32953,23.00883,23.63142,26.52998,26.27172,29.48745,28.27225,30.35668,34.09738,31.22339,36.66757,35.99938,36.70604,41.06686,39.01678,42.36905,44.24037,42.17881,45.73135,44.12207,45.5804,45.31956,47.47729,46.00485,47.28476,45.61615,48.7779,44.91018,50.61423,45.41223,48.93182,50.26475,47.94722,51.48051,49.22722,50.05619,50.95796,50.85591,53.35637,52.93353,52.76466,53.5816,55.74173,56.00658,54.22782,56.75669,51.41619,57.35972,47.95953,56.65809,46.45121,54.75913,44.45464,50.20584,43.15987,43.53198,42.58842,36.8526,40.03512,32.05276,34.41223,30.54342,27.71221,27.03783,23.63948,21.10747,19.11608,14.77049,13.93032,9.916443,8.474388,5.052617,2.068326,1.18203,-4.892132,-2.473234,-12.24146,-6.198212,-14.91844,-13.89032,-16.96011,-19.96741,-20.09108,-22.13582,-24.58578,-24.95513,-29.17565,-26.82448,-32.23202,-31.61941,-35.40922,-34.22565,-36.50553,-37.74738,-37.31715,-39.2921,-38.85894,-40.50758,-40.12555,-38.75854,-43.78438,-37.55783,-45.17792,-38.50273,-41.77647,-37.81369,-38.6818,-35.62582,-36.1899,-34.267,-30.2994,-30.77155,-27.52053,-23.55509,-22.59627,-17.93627,-17.93701,-12.58003,-10.54868,-7.419559,-5.790329,-1.471354,-0.2825873,3.641749,4.294533,7.382912,7.257936,9.518093,10.63116,13.69391,14.95519,17.00757,19.74816,20.13361,24.03288,24.03203,27.9436,25.48984,31.44225,27.62,32.04795,32.01892,28.91662,35.94919,27.33229,35.24684,27.6027,36.16903,27.07278,33.28188,26.24602,31.79701,25.62534,29.21961,21.26695,29.8999,17.12457,26.408,15.1562,22.96643,12.01784,18.71003,8.270044,12.60045,4.938065,8.457237,0.2547782,4.269944,-2.30476,-1.441981,-6.206404,-6.675398,-11.35572,-11.9813,-16.34852,-16.68118,-20.35444,-21.88796,-23.22791,-26.13212,-28.52722,-28.84294,-32.25111,-31.90654,-34.27672,-31.98924,-36.08637,-33.45273,-34.52125,-35.62042,-33.12929,-34.19491,-32.60507,-32.24475,-32.95906,-32.45879,-30.71391,-30.34426,-33.60638,-27.00623,-33.20717,-26.01175,-30.88091,-26.16123,-29.90386,-25.47566,-29.8825,-25.9018,-29.98177,-25.34616,-29.70614,-26.31329,-30.03658,-24.88847,-29.40999,-25.99627,-29.9718,-25.33996,-31.63533,-24.80088,-31.05896,-24.13325,-32.07938,-24.02143,-32.3945,-27.31642,-30.66943,-29.93959,-27.36452,-34.39127,-27.17071,-34.38106,-28.96188,-34.83245,-30.0653,-34.72911,-30.61456,-35.52924,-31.6587,-34.5355,-34.89733,-32.87017,-34.99831,-33.15596,-33.26964,-34.7634,-32.78829,-34.44392,-31.31502,-31.99259,-31.71332,-29.44119,-34.45152,-27.42273,-37.09754,-28.64506,-36.46478,-29.3822,-37.32123,-31.84827,-37.08557,-33.2106,-38.02115,-36.31883,-37.93735,-37.16919,-41.1154,-39.09757,-39.6495,-41.92721,-40.40333,-42.25232,-42.40912,-42.56585,-41.85258,-42.30332,-43.61747,-39.22856,-45.19987,-38.56521,-42.90162,-37.80706,-40.554,-36.33932,-36.32154,-33.47035,-34.03991,-31.71621,-28.98796,-27.64837,-27.28519,-19.06406,-25.8851,-13.94652,-17.96626,-10.63889,-11.60401,-6.002002,-4.083987,-1.607062,3.454584,4.759855,8.896739,11.97214,14.69249,19.13176,20.90961,26.15474,25.5031,35.32403,29.38788,41.64447,35.54732,45.17703,41.03644,49.57952,45.76404,53.92333,51.12017,60.23217,54.57406,62.74511,59.98093,65.4574,65.01959,67.38243,70.08551,69.17827,74.07257,72.15169,75.50197,74.37466,74.13717,73.91985,72.09094,72.61354,72.52342,70.00647,71.79073,66.53909,72.06807,64.68796,72.42572,64.95265,71.04491,66.93553,67.37943,67.13983,67.92861,67.96935,67.29803,69.96246,68.06984,70.0543,70.88111,70.15373,73.33238,74.45932,73.92602,76.80076,72.75887,78.11828,70.62586,79.23421,69.57849,77.86402,69.535,74.39985,68.18654,71.2056,67.29779,67.42152,64.4036,63.35652,61.9278,58.74057,56.14729,54.78081,51.5201,48.93194,45.8372,42.7013,39.66778,34.80063,34.58243,28.32992,27.14921,23.61739,18.90104,18.94725,10.95292,12.1932,4.045583,6.468158,-2.85316,-0.0867975,-10.18779,-6.493477,-13.58163,-15.70798,-19.44902,-19.56153,-28.08873,-21.59625,-32.8165,-27.732,-36.54766,-32.2195,-37.90307,-36.826,-39.25405,-40.81518,-42.13809,-41.60142,-41.92217,-44.663,-42.00101,-43.39916,-42.83634,-42.63015,-42.0375,-42.7956,-43.03836,-41.70645,-39.51214,-41.51099,-36.89453,-38.62275,-34.42809,-35.70324,-33.71979,-31.135,-32.68914,-26.21751,-29.4712,-24.86524,-25.24778,-25.8823,-20.28247,-26.28963,-21.28724,-25.37121,-24.15469,-25.47429,-23.49237,-26.28669,-22.29558,-28.18525,-22.33326,-25.52878,-23.89673,-24.46182,-23.0083,-25.455,-21.68957,-26.70234,-24.09472,-24.03348,-25.37457,-23.68833,-27.10254,-22.98829,-27.79032,-24.43902,-24.34882,-26.67266,-24.0128,-25.33867,-25.20706,-24.049,-27.40594,-23.33155,-29.8627,-22.74401,-30.83596,-24.05194,-30.55657,-24.29198,-29.48288,-25.51476,-29.33782,-24.39334,-28.29311,-25.48765,-26.24614,-24.13387,-25.87292,-21.57345,-24.44376,-20.00631,-22.49796,-17.08728,-21.35919,-15.41112,-17.50182,-14.36288,-14.20565,-13.50952,-12.62957,-9.002211,-11.64712,-6.616977,-9.641987,-3.247647,-8.114004,-0.8348961,-7.84575,1.786589,-6.444142,1.364445,-1.796484,2.949934,-1.136683,4.196798,-0.1364251,5.244555,2.551777,5.046154,5.01214,3.720706,7.31105,5.265076,8.79789,7.916229,8.840954,7.312477,11.08806,7.164504,11.46751,8.913796,11.71068,9.263187,11.61508,10.71097,11.9967,8.954367,14.56433,9.243345,14.15614,9.977913,13.68153,11.14534,13.01459,12.85575,12.67435,14.3395,12.59281,15.34092,13.12374,14.97822,13.37019,17.33234,14.20571,19.02563,16.27697,18.89097,19.49363,19.15465,21.00691,21.54485,19.36855,23.95334,19.07898,23.53593,21.4693,20.80831,21.33731,22.90899,20.22623,21.80198,20.39395,22.58198,18.86471,26.0873,18.54545,24.00108,22.5374,24.88498,23.67883,24.95085,25.83034,28.15404,24.81022,32.37493,25.9724,32.31192,27.65137,33.20952,28.55796,34.61645,31.57764,37.89235,36.56265,41.8183,42.41273,47.58226,48.1833,52.55057,53.75747,57.6976,60.21715,60.90607,65.17819,64.77644,68.61793,69.55107,72.04974,71.30791,74.81938,74.57303,73.87403,74.92032,74.22434,75.69382,71.98684,73.95197,70.00247,72.52768,66.80576,67.44886,63.66401,61.78354,57.50853,57.10575,51.4126,50.26909,45.51729,41.67275,38.49482,32.74017,31.43357,23.70047,22.68818,13.34165,12.2282,6.01826,0.3587354,-2.370967,-8.590979,-12.50564,-17.88551,-23.74931,-27.71173,-34.85205,-37.02406,-43.07511,-46.78251,-51.24609,-58.03781,-57.9207,-66.50941,-66.70173,-71.35197,-72.6432,-76.60401,-79.22229,-81.24704,-84.43371,-84.75992,-85.05693,-87.18663,-87.09231,-88.79254,-89.39235,-88.65585,-88.74405,-85.7921,-86.82628,-85.23003,-82.99115,-87.16228,-82.15026,-86.80017,-82.76525,-87.29565,-84.94759,-88.29738,-86.66741,-89.64002,-89.66651,-89.86183,-92.10676,-90.92847,-91.19474,-95.37985,-90.72207,-96.49884,-91.19001,-97.01711,-93.00688,-95.54233,-95.0725,-97.86468,-93.5615,-101.8748,-94.43901,-100.2143,-94.20032,-97.82214,-91.49336,-93.93739,-88.31671,-87.42938,-85.27856,-81.22702,-78.30131,-77.58211,-71.1231,-69.51926,-65.3427,-62.05528,-59.99931,-52.52792,-53.58941,-44.67193,-44.25502,-36.87956,-37.6044,-27.63665,-28.39137,-21.35587,-19.36238,-13.7045,-10.18587,-8.418725,-0.7396784,-2.112369,6.515827,5.065823,12.97147,14.34983,18.06461,20.80312,25.81554,25.83714,32.10053,31.3539,36.43755,36.51881,40.51846,40.52395,42.93794,44.35083,44.71556,46.37852,47.5869,45.2451,48.7657,47.06187,48.01141,47.63985,44.23447,48.79465,41.71959,48.2451,39.74367,44.81291,39.68147,41.07378,40.14698,36.06932,42.12608,32.6521,38.29201,29.24996,35.07687,28.20897,28.17342,28.31966,22.94198,24.01527,19.08981,22.88293,17.63231,23.39501,17.91067,24.25697,15.98136,23.10496,17.05066,20.27503,19.55887,17.46841,20.61118,18.66899,22.15266,19.75798,23.73559,21.95573,23.4323,25.56947,23.82294,29.41041,24.43795,30.19238,29.91533,31.01517,34.40652,32.06051,37.72509,33.80333,40.50726,35.83695,42.37317,37.94767,44.65358,40.59271,44.94628,44.2781,46.05848,45.80809,47.20095,48.2499,47.05501,48.39421,49.49914,47.33196,51.06402,48.23439,49.40587,48.95486,47.52429,51.58886,43.8166,52.82563,43.49897,49.78643,42.92305,49.02209,39.39079,45.76286,39.91994,39.03359,40.00606,34.97525,37.41193,31.53178,33.52773,28.0839,29.64421,23.72511,24.69465,20.47843,20.87319,13.2886,17.68952,9.341606,13.04334,4.401058,8.770707,-0.7569085,3.008442,-2.72108,-3.217906,-7.042605,-6.387543,-10.75532,-9.153614,-12.08885,-14.19482,-14.34138,-18.28453,-12.81647,-22.26474,-14.03241,-21.1436,-15.14941,-20.85564,-13.14892,-22.21682,-13.28227,-20.66261,-18.66467,-18.37006,-20.87586,-18.6743,-22.75636,-22.43875,-22.07312,-26.22104,-24.07788,-27.17939,-25.29291,-28.75234,-26.3493,-32.63216,-25.25384,-35.5173,-26.81527,-35.10614,-29.77613,-34.95363,-33.25877,-29.90349,-34.95669,-26.48551,-36.00158,-25.5826,-36.7331,-26.32542,-34.66156,-28.98925,-31.85491,-33.53834,-29.80741,-33.62179,-31.27759,-31.00019,-34.12705,-31.43646,-32.65673,-30.74066,-33.63748,-31.03991,-32.70324,-32.8262,-31.90964,-34.02278,-30.08445,-34.9354,-28.73306,-35.97252,-28.45156,-35.87546,-28.20263,-32.83383,-27.75548,-29.98779,-25.31886,-27.06587,-25.12409,-21.86512,-23.22394,-19.03668,-20.06105,-16.95611,-14.88498,-13.63672,-10.40178,-10.30389,-6.154437,-5.598053,-4.104338,1.062555,-2.542963,5.053413,0.2162156,10.16973,4.312055,12.27597,10.32144,14.90953,15.00782,19.04595,17.35476,26.93813,18.18557,32.05055,21.13228,33.92982,22.48972,37.03749,27.34914,37.20692,32.6711,38.07869,34.47379,38.97729,34.9314,38.60359,35.76738,39.40116,37.85987,36.53098,37.80702,39.17259,32.26499,38.32359,32.51381,30.77014,33.31916,27.67866,33.46153,27.62011,30.19871,29.3794,27.78213,29.20934,30.43513,26.38268,31.50336,24.54775,33.61813,26.24276,30.61828,27.6624,30.19467,26.90965,31.68699,26.64636,32.15805,27.87305,32.36277,30.58632,31.37381,32.13274,26.29557,32.89945,25.43137,31.97971,24.12109,27.48666,24.52895,22.16221,26.55997,17.94664,23.28551,16.95626,17.56086,15.9392,13.31053,12.33962,9.032328,8.450107,5.855202,1.075738,2.022053,-2.63341,-1.230125,-7.725283,-6.485629,-13.08736,-10.30916,-16.17062,-14.91785,-19.59053,-18.07892,-24.28058,-19.71297,-27.46564,-25.78185,-26.9851,-31.62507,-27.04001,-36.21401,-25.13494,-39.46981,-27.18878,-38.80581,-29.67998,-39.42694,-33.04311,-40.45338,-35.82345,-42.76943,-38.38319,-44.37822,-39.00244,-46.40792,-39.45921,-46.63479,-39.42445,-45.4652,-39.44763,-43.96828,-37.22342,-43.83019,-33.12679,-42.11681,-28.89254,-36.23019,-25.44536,-31.72795,-21.03062,-27.00025,-19.27987,-23.50718,-17.59491,-20.30453,-15.27775,-16.69113,-13.74251,-15.5835,-10.75622,-13.82112,-7.589543,-13.80544,-4.747306,-7.376456,-5.060459,0.5436743,-1.431147,5.320622,3.534581,8.807515,10.1808,11.46202,17.73627,16.61346,18.70998,25.29775,23.60982,30.78446,27.4866,34.8842,33.44195,37.99308,39.36367,40.34737,44.19458,43.20196,47.5316,46.28112,49.55136,50.89149,48.8183,53.7421,50.64953,54.55742,50.95484,53.17744,49.55595,53.4653,47.48058,53.26343,44.04262,50.25604,42.59413,43.37711,41.89085,37.78589,41.64318,29.43709,37.86571,26.16625,29.36798,24.82756,22.03434,18.00524,17.16205,11.70174,11.96895,6.417877,6.655348,0.6988628,3.087297,-2.277687,-3.229382,-2.745303,-9.096747,-5.278553,-11.17608,-9.61637,-12.97791,-12.87337,-13.04357,-17.25049,-14.71166,-19.03657,-19.95455,-23.1577,-22.45089,-27.67395,-25.29843,-30.81873,-28.42584,-31.92836,-31.50263,-33.68938,-33.00798,-35.20607,-33.49864,-39.78135,-34.13307,-37.92352,-35.28794,-38.07052,-34.80214,-36.07315,-34.77386,-36.45795,-35.62786,-37.64641,-37.11338,-38.96051,-38.10769,-42.05744,-39.52103,-42.69178,-42.80848,-41.89767,-45.28154,-43.63066,-45.92879,-45.548,-46.33738,-45.64171,-48.04469,-43.02134,-50.27075,-41.71283,-49.78227,-43.61616,-48.60222,-47.62201,-47.59547,-49.14021,-49.54874,-52.15582,-50.77783,-52.2829,-56.02964,-54.85486,-57.687,-57.59997,-62.26559,-57.94608,-66.49949,-59.99859,-67.06229,-63.23558,-65.60371,-66.49869,-65.66393,-67.54183,-67.24731,-65.89699,-68.43387,-65.33193,-65.51671,-65.22733,-62.87424,-61.54142,-61.7469,-57.65593,-59.14636,-54.01608,-54.86013,-48.8285,-47.69726,-44.30528,-40.45182,-40.298,-32.16699,-32.51279,-26.96258,-22.11762,-22.54005,-12.30365,-14.13531,-4.961369,-5.764345,5.130032,2.475979,13.41368,12.27228,19.46189,20.26323,30.0193,25.31709,39.28748,32.9922,45.83123,42.76167,51.53644,50.89241,56.95636,57.62376,62.47075,63.40625,68.53871,71.88607,70.85756,78.16005,73.38924,84.69705,77.11167,86.09631,80.89086,88.22377,83.6861,87.82523,85.6875,89.33968,87.08865,87.91489,88.30248,86.41615,87.43066,83.73391,85.63535,80.54707,80.25642,77.21488,77.79021,72.85407,72.09822,72.11588,70.32383,69.08784,72.10029,67.43214,73.66963,68.56563,75.7197,72.5556,78.33446,76.61749,81.7121,80.79342,83.34269,83.71286,84.78596,88.37377,84.42145,91.48877,85.90223,87.85419,90.25375,85.11333,89.67929,83.35048,88.77193,80.04853,85.55865,76.86749,82.80131,70.53963,79.13267,65.51008,73.62555,59.65402,65.48391,54.47622,55.52426,49.73608,44.99369,43.6461,35.09744,35.26216,24.9265,28.62589,14.28695,19.9894,6.920925,9.968348,-0.4426407,0.4413981,-6.131009,-10.40184,-13.87685,-18.36017,-22.79869,-26.10358,-30.63421,-35.87203,-39.38837,-45.68637,-49.29758,-55.56196,-56.96843,-66.01617,-64.63952,-75.27287,-73.62195,-82.0876,-82.6512,-88.06214,-88.04385,-95.72642,-91.57729,-101.499,-96.09993,-104.474,-100.2536,-105.4753,-102.6767,-106.7176,-101.8674,-104.0467,-102.1489,-100.7817,-98.87236,-98.12944,-91.0545,-91.42832,-86.15289,-83.63691,-78.38477,-75.20965,-71.26918,-67.9405,-61.99953,-59.90059,-54.00517,-49.3758,-48.61131,-42.79081,-38.93993,-36.70331,-32.67033,-31.2929,-25.06095,-24.87076,-18.11564,-16.55563,-11.05405,-7.225222,-2.865866,0.2711322,5.312871,8.250859,10.38817,16.55065,17.22155,22.31746,24.01785,25.93064,29.82217,30.40653,33.53129,33.64874,38.61415,36.86414,38.06658,39.78785,38.23536,39.39584,40.2967,37.84022,40.51422,37.22616,36.97627,34.98247,33.91533,32.37988,29.78327,27.78226,27.32624,22.1534,22.63602,16.48253,17.99169,10.86001,11.76352,5.333665,6.087488,1.32176,-1.562485,0.02610849,-6.708754,-1.215025,-11.4867,-2.073192,-12.86382,-5.015066,-13.46474,-7.513928,-13.14219,-10.35425,-11.77805,-11.77315,-14.07793,-11.02887,-13.94832,-12.62876,-12.77122,-13.40406,-12.57831,-10.94992,-11.85099,-10.08597,-10.3574,-7.233095,-10.55966,-5.408096,-7.441777,-5.591305,-4.408446,-3.533069,-3.304087,-2.667302,-1.731934,-1.349136,-0.5928561,0.4170052,-1.227373,0.4605741,1.769552,-2.413453,2.43417,-1.594345,2.491583,-1.794652,3.894198,-1.313872,4.053796,-1.478549,5.274354,-1.220846,4.277908,2.05744,4.597563,3.803046,7.536159,6.671147,6.341369,11.48437,8.935427,12.47465,11.81092,15.59241,14.70219,18.65086,17.95464,22.12605,21.68376,22.9848,27.88656,25.44784,29.70253,31.06556,30.3015,36.26376,31.06625,39.51367,32.857,37.14216,39.04454,36.25647,41.41091,38.93352,43.03853,41.87436,45.84569,45.04326,49.1631,46.50892,52.52186,50.49057,53.37827,53.36405,52.52269,58.8705,53.10884,61.69218,53.46133,62.7491,53.72701,60.71126,54.45091,58.87677,53.26848,55.50127,50.96379,52.77739,50.14773,49.36507,46.32036,47.34765,40.3113,44.89024,36.69529,39.77149,30.56998,34.43437,26.96604,26.48857,22.62609,18.08459,18.01967,9.175279,12.4776,4.403862,4.185484,-3.227599,-2.452711,-10.48091,-6.898811,-17.23498,-12.47671,-21.9597,-21.28585,-24.33259,-29.30443,-27.15198,-33.57184,-33.97021,-35.99014,-37.88848,-41.54084,-40.56823,-46.87204,-42.47178,-51.70027,-45.3754,-55.4016,-48.50971,-57.56643,-53.45979,-57.95944,-57.37339,-60.65866,-60.18664,-64.06358,-59.29127,-67.26542,-61.99086,-67.64662,-65.80988,-64.88081,-64.92972,-65.10886,-64.31023,-64.59448,-67.16083,-64.44352,-67.02463,-66.40056,-67.76301,-66.20466,-68.56371,-65.95271,-67.35755,-67.11187,-66.3615,-66.31306,-67.63394,-62.14366,-71.53661,-61.66411,-71.007,-64.815,-68.49965,-66.92473,-68.46768,-68.15739,-65.83875,-66.96344,-64.56648,-64.75056,-60.53106,-62.1573,-58.71906,-57.66344,-58.25015,-52.37233,-56.32058,-46.79492,-50.62042,-45.01004,-43.90081,-39.43999,-36.27447,-37.86151,-30.22489,-33.58157,-25.09795,-31.86246,-19.11842,-25.97546,-16.09367,-19.93411,-12.43204,-13.32711,-8.242773,-8.748089,-2.616078,-4.806285,2.193402,-0.611368,8.556959,5.110601,10.50253,10.71243,17.15472,14.29407,21.37341,18.84228,23.6506,22.8497,24.45436,25.09237,25.23276,23.12451,26.73142,21.4987,26.40827,21.59899,21.98702,20.24755,19.93921,17.20834,19.2133,12.28512,17.1178,10.6651,13.92435,9.952006,10.52604,8.525827,9.935965,6.381302,10.76186,4.333376,12.34439,5.091801,9.262856,7.49055,10.20117,7.626563,10.55685,9.491174,13.99718,13.14124,19.13067,16.20407,22.96229,21.99018,27.11534,29.86708,27.42774,34.7521,32.6154,36.45423,35.43004,40.19536,38.08272,42.60348,41.74898,46.71575,44.62274,51.17919,46.33121,54.65665,46.49623,58.74307,45.4421,60.57028,47.21771,59.88382,49.49645,60.54489,50.90176,59.16753,52.21708,57.61817,54.15392,54.75758,54.03649,50.77914,54.51122,45.45264,51.93341,44.35057,46.43724,43.41709,41.91638,40.34861,38.43321,35.64692,35.00744,28.79011,30.14279,22.55254,25.38313,16.98734,20.01777,10.65831,16.74982,6.417193,10.05481,2.966027,4.195436,-0.8115366,-0.699442,-4.161927,-3.500389,-9.155596,-7.456196,-10.95285,-8.911065,-12.70102,-10.41201,-13.59734,-10.027,-13.52957,-10.64183,-15.17194,-10.2363,-16.76669,-9.688033,-18.86324,-9.577022,-20.67068,-9.75732,-20.48976,-10.68974,-18.75512,-12.76333,-15.76217,-13.25404,-14.88608,-13.87404,-15.43993,-11.84667,-16.39421,-10.6882,-15.88963,-11.50453,-14.37911,-12.98814,-14.61505,-12.66855,-15.98299,-12.33904,-18.17037,-11.56801,-18.86467,-12.79735,-20.1377,-13.51927,-19.74331,-12.48765,-23.85356,-12.36709,-26.41337,-13.77078,-28.05981,-15.18342,-29.25089,-21.21966,-25.40143,-26.43968,-28.18176,-28.0939,-32.32241,-28.57858,-34.0373,-31.32114,-34.47729,-33.80959,-34.58722,-35.12102,-35.15039,-38.05172,-34.84485,-42.49896,-33.78244,-44.69024,-37.09979,-44.51423,-40.4813,-46.08311,-41.51149,-48.89877,-43.88186,-47.52987,-49.12187,-47.86121,-52.54488,-46.2134,-53.93027,-46.14147,-53.35092,-47.11982,-52.62586,-45.688,-53.93344,-42.47637,-52.67796,-43.57199,-49.03258,-42.19178,-44.91253,-41.40263,-40.52829,-37.36701,-37.87113,-32.60638,-33.55886,-31.33702,-27.07229,-27.22303,-23.3808,-23.31116,-18.6737,-20.42271,-14.04973,-15.99976,-10.11913,-10.61705,-4.725933,-7.588114,-1.55675,0.1622396,0.6544298,4.663896,5.262745,10.97551,8.195408,15.34428,