ConstAcc,0.5,0.42138,73.08794,69.16137,65.00318,60.65409,56.15259,51.53502,46.83556,42.08634,37.31746,32.55702,27.83121,23.1643,18.57877,14.09526,9.732691,5.508292,1.437632,-2.465313,-6.188124,-9.719883,-13.05113,-16.17383,-19.08127,-21.7681,-24.2302,-26.4647,-28.46986,-30.24511,-31.79092,-33.10881,-34.20127,-35.07173,-35.72449,-36.16471,-36.39832,-36.432,-36.27314,-35.92975,-35.41045,-34.72442,-33.88134,-32.89133,-31.76495,-30.51308,-29.14696,-27.67805,-26.11807,-24.47887,-22.77246,-21.01089,-19.20627,-17.37066,-15.51608,-13.65441,-11.79738,-9.956499,-8.23065,-5.438256,-2.503158,-1.177337,1.572944,3.228016,4.445311,5.316572,5.622612,5.5623,4.393764,2.24146,-0.3387837,-2.471585,-4.146904,-5.593653,-6.465578,-6.427491,-6.126645,-5.027166,-3.46077,-1.151634,1.669297,4.872102,7.835372,10.45871,12.74924,14.69453,16.1277,17.20088,17.78667,18.11096,18.16828,17.92277,17.52669,16.93782,16.03305,14.99283,13.82911,12.25531,10.33756,8.033427,5.566542,2.967236,0.2911492,-2.405403,-5.163126,-7.757891,-10.29742,-12.54128,-14.47232,-16.1283,-17.20391,-17.9863,-18.32511,-18.53609,-18.71154,-18.88552,-19.39307,-20.34666,-21.34077,-22.64111,-23.9135,-25.45033,-26.9273,-28.20407,-29.32251,-30.42839,-31.42861,-32.49065,-33.54822,-34.59537,-35.58146,-36.63112,-37.49101,-38.15004,-38.33976,-38.16528,-37.61998,-36.63781,-35.38997,-33.53228,-31.33417,-28.98168,-26.15103,-23.20372,-19.86489,-16.15978,-12.29768,-8.056395,-3.602099,1.341079,6.437435,11.89072,17.7552,23.79808,30.10757,36.35111,42.56194,48.53575,54.42731,60.20743,65.98509,71.51928,76.78714,81.82592,86.59174,91.12673,95.27635,99.29216,102.9499,106.1895,108.9981,111.4919,113.7893,116.1869,118.8766,121.4227,124.1498,126.9495,130.0968,133.5824,137.1716,140.4486,143.5755,146.5919,149.4952,152.5402,155.5029,158.6543,161.5063,163.9488,165.8993,167.3125,168.3808,169.01,169.5104,169.5345,169.3885,169.0007,168.1174,167.226,165.8376,164.1395,162.0973,159.6195,156.703,153.6845,150.4081,146.7321,142.8949,138.9197,134.8654,130.5876,126.1191,121.1964,116.0186,110.7365,105.3522,100.153,95.0035,90.02082,85.23714,80.42634,75.65823,70.65496,66.10218,61.67735,56.71392,51.41166,45.80911,39.61375,33.18719,26.64353,20.42291,14.23216,7.985986,1.369823,-4.610297,-10.34714,-15.69642,-20.81608,-25.83054,-30.57023,-35.20007,-39.77864,-44.29895,-48.60062,-52.68617,-56.35022,-60.0796,-63.18619,-66.17447,-69.0756,-71.38451,-73.43539,-74.81539,-75.76231,-76.28649,-76.54291,-76.72283,-76.21379,-75.50777,-74.00808,-72.05474,-69.74555,-67.16306,-64.33325,-61.14773,-57.46741,-54.09493,-50.66581,-47.23201,-44.06097,-41.09804,-38.10941,-35.46011,-32.56015,-30.01379,-27.27557,-24.69894,-22.33784,-19.77003,-16.8872,-13.53022,-9.83756,-6.134386,-2.644336,0.9852408,4.575534,8.341268,12.12053,15.6387,19.18811,21.75883,23.69643,25.07044,25.84353,25.78995,25.95251,25.25253,24.33684,23.31927,22.20822,20.91217,19.42008,17.80645,16.20228,14.53795,12.73453,10.8727,9.242643,7.393338,5.550205,3.477731,1.228441,-0.8280816,-2.76666,-4.703146,-7.047635,-9.431352,-11.77082,-14.34162,-17.06603,-19.7461,-22.77034,-25.95905,-29.10137,-32.07532,-34.70021,-37.12546,-39.3881,-41.50686,-43.12122,-44.64494,-45.79672,-46.90412,-48.21878,-49.67769,-51.09986,-52.46343,-53.78047,-54.79825,-55.3295,-55.57911,-55.7064,-55.72967,-55.39619,-54.32356,-53.35559,-52.54613,-51.9058,-51.45119,-51.01206,-50.83167,-50.68901,-50.3799,-49.80729,-49.0623,-48.10831,-47.2337,-45.99419,-44.92443,-44.1502,-43.30855,-42.62112,-42.21276,-41.84689,-41.65319,-41.85177,-41.57759,-41.03085,-40.38507,-39.75805,-39.28498,-38.68589,-38.31767,-37.35624,-35.60907,-33.8063,-32.39516,-30.52063,-29.55602,-29.53414,-29.94301,-30.47107,-31.00518,-31.16643,-30.88036,-29.8378,-28.57754,-26.92938,-24.63918,-21.94888,-18.59524,-14.73234,-10.60788,-6.543933,-2.173247,1.636109,5.629184,9.177283,11.91295,14.01812,15.14659,16.79438,18.31181,20.05893,22.01101,24.8146,27.12923,29.67311,32.55467,34.94907,37.27514,39.73496,41.46351,43.15762,44.38646,45.35462,46.86412,48.21001,48.82588,49.57405,49.32085,49.58427,49.49466,50.02736,50.6551,51.52306,52.84637,53.99146,54.37128,54.17898,54.05671,54.11643,53.99496,53.78011,53.63782,53.0041,51.77392,50.26136,48.46389,47.06439,45.0254,42.45385,39.28806,36.60489,34.10803,31.8133,29.65412,27.57703,25.56755,23.44576,21.1616,18.84437,16.34741,14.04203,11.98531,9.660896,7.518174,5.368986,3.051113,0.7001029,-1.724864,-3.965397,-6.409421,-8.937914,-11.33849,-13.80398,-15.90066,-17.99368,-20.56792,-23.26444,-25.70082,-28.35894,-31.36792,-33.86106,-36.72779,-39.26521,-41.54523,-44.12363,-46.48321,-49.26903,-51.55451,-53.84336,-56.05545,-57.89849,-60.19115,-63.57791,-67.28138,-71.46594,-76.62878,-81.7522,-86.1029,-90.13192,-93.82708,-96.96571,-99.86844,-102.2433,-104.8754,-107.0211,-108.7339,-109.9469,-110.8285,-111.3019,-112.4389,-113.5101,-114.6746,-116.1904,-116.9853,-118.5152,-119.5474,-120.2377,-121.002,-121.1374,-121.4902,-121.2061,-121.0122,-120.702,-120.4061,-119.9788,-119.6834,-119.5572,-119.2041,-118.96,-118.9546,-118.5996,-117.8514,-116.9611,-115.6698,-115.1148,-115.0357,-113.7467,-112.3565,-109.905,-107.9525,-105.7308,-104.126,-103.1788,-102.5013,-101.9954,-101.5399,-100.3114,-99.16222,-97.82937,-97.11865,-96.54954,-96.56338,-96.99607,-97.78336,-98.36114,-99.76808,-100.5905,-102.4147,-103.4683,-104.5028,-104.5597,-104.1593,-103.6467,-103.0702,-102.3888,-102.3031,-102.2259,-101.8959,-101.5132,-101.2012,-100.7687,-100.7952,-100.6529,-100.9004,-100.8624,-101.4321,-101.472,-101.3553,-101.0512,-100.6083,-99.81315,-98.9309,-98.65519,-98.16816,-97.62834,-97.29459,-96.80285,-96.64493,-96.07139,-95.34641,-94.72234,-93.64782,-92.91128,-91.989,-91.42667,-90.55449,-90.32415,-89.90013,-89.23525,-87.82715,-86.05071,-84.07607,-82.12856,-79.47322,-76.95428,-74.85813,-73.65623,-73.39243,-74.10168,-74.95345,-75.47234,-76.15935,-76.46137,-76.4614,-75.33801,-73.85889,-72.08958,-70.52566,-69.23429,-68.41657,-67.28576,-66.36448,-65.38861,-63.92734,-62.57942,-60.80762,-59.38864,-58.57733,-58.10783,-58.06257,-58.18694,-58.17382,-58.55157,-58.55424,-58.31952,-57.50586,-56.49501,-54.71308,-52.72573,-50.52886,-48.5317,-46.9912,-44.9094,-41.97721,-38.72145,-35.57516,-32.07448,-29.90084,-28.7645,-27.89089,-26.7188,-26.06655,-25.31249,-23.88103,-22.70465,-21.61285,-20.54065,-20.13785,-19.10522,-18.45119,-18.09991,-16.92525,-14.96867,-12.96301,-10.80286,-8.967656,-6.376248,-4.925187,-2.957004,-1.864615,-0.3494249,0.8175273,1.19931,1.765443,1.882655,2.330856,2.783571,3.835442,3.880307,4.091975,4.388603,4.339015,4.526611,4.182581,5.402417,6.657546,8.096568,8.866215,9.004775,9.324206,9.309279,9.181882,9.044142,10.63254,12.64589,14.40517,16.39768,17.71143,19.41766,20.51123,21.86392,23.8903,26.15092,29.36651,31.35886,34.37966,36.85646,40.41044,43.63908,48.18775,52.04435,56.4188,60.17407,64.16833,66.45138,68.25224,69.97283,71.32364,73.74816,76.15739,79.13169,81.48883,84.75636,88.34532,91.6871,93.75591,96.27008,98.45997,100.8346,103.3094,105.5783,107.6333,109.8759,111.6271,112.5455,113.1902,112.7476,112.0508,111.012,110.7245,110.8026,111.1565,110.7395,111.2029,111.599,111.9949,112.2368,113.0552,112.9316,112.6855,112.0638,111.1228,111.9091,111.5279,110.6465,109.4352,108.315,106.8804,105.4743,104.4029,102.9374,100.5095,98.64257,96.05938,93.50033,91.18248,89.78995,88.50616,87.57247,87.98912,88.66621,90.9192,92.19913,92.89753,93.01836,93.51537,93.92906,93.19534,93.28453,93.19704,93.21081,93.48579,93.6604,93.76346,93.42726,93.48416,92.95459,93.21591,92.40024,92.61222,92.23078,91.40853,91.32287,91.118,91.00879,89.90791,88.19266,86.95562,85.83522,85.29105,84.60966,83.45374,82.15958,81.02988,78.90435,76.88329,74.65443,72.21253,70.09222,67.96748,66.21889,65.09576,63.13918,60.44927,56.57966,54.04622,50.85902,48.80306,46.25857,44.7941,42.08439,40.19903,38.09256,35.83114,32.53385,30.19749,28.24386,26.30316,24.96776,22.78985,21.02147,19.34008,18.01226,16.32346,14.14825,11.97165,10.62182,9.068638,7.331442,6.286469,4.750503,3.080561,1.87364,0.5573282,-0.4362697,-0.966239,-1.012409,-0.6069471,-0.7873936,-1.583544,-2.872147,-4.248787,-5.177904,-5.997256,-7.055921,-8.080185,-9.276361,-10.47771,-11.81687,-13.39023,-14.90898,-15.97776,-16.47318,-17.64077,-17.64779,-17.29729,-17.80103,-19.02031,-20.90731,-22.61027,-24.76957,-26.61452,-28.14706,-29.25207,-29.74139,-30.15034,-29.53007,-29.20545,-28.7925,-28.28296,-28.16371,-27.6002,-26.88259,-26.75615,-26.88483,-26.22844,-25.28829,-24.02174,-22.42667,-21.27454,-20.28315,-19.0271,-18.25858,-17.99724,-16.84775,-15.71265,-14.07613,-11.90444,-10.38359,-9.294195,-8.194971,-6.692917,-4.230753,-2.591692,-0.8811339,1.25801,3.596176,5.226545,6.776171,8.087164,9.099465,9.884477,11.2427,12.83635,13.80483,15.29749,16.15584,17.90968,19.55553,20.94703,21.84378,21.93888,22.03102,21.89891,21.5333,22.16794,21.82249,22.41625,22.03217,21.87833,21.82384,22.08292,21.42982,20.18462,18.89351,17.98018,17.17051,16.44697,15.33215,13.99645,13.37495,12.94856,12.26245,11.95952,10.1296,8.793253,6.870322,6.152456,5.810998,5.803823,4.787534,4.081426,4.389778,4.974682,5.73534,6.189788,6.209982,4.957426,3.727829,2.058852,1.818421,1.745723,0.9538954,-0.2319645,-0.9948649,-1.67276,-2.621337,-3.424363,-3.70019,-4.085321,-3.93773,-3.959143,-3.668111,-3.197926,-2.528015,-2.323479,-3.045986,-4.735367,-5.236235,-6.822877,-7.254295,-8.216272,-9.51358,-10.43254,-12.19205,-14.27976,-16.12477,-17.72985,-18.7924,-19.86165,-20.32944,-21.42489,-22.15424,-23.14044,-23.73585,-23.69381,-23.62463,-23.30683,-23.80864,-23.60512,-23.19728,-22.75241,-22.486,-22.366,-20.89247,-19.99116,-18.6133,-17.54001,-16.18725,-14.8162,-12.85907,-11.40779,-9.880612,-8.983692,-7.820835,-6.707588,-6.18059,-5.568959,-4.804861,-3.446113,-2.777325,-1.949414,-0.5279312,0.6782537,1.150264,2.156174,3.079004,4.879646,6.658321,7.102656,6.895693,7.733684,9.169047,9.338796,10.01338,10.72632,10.92226,11.77054,12.46201,13.03918,13.08053,12.62932,11.4962,10.9887,10.34739,10.1081,10.42206,10.6347,10.44354,10.31906,10.36839,10.3141,9.151862,7.196752,5.322899,4.368022,3.177589,2.61612,1.932873,1.208745,0.1627537,-1.050546,-2.383834,-3.287747,-3.920011,-5.483506,-6.538548,-7.452197,-7.919586,-8.116851,-7.961564,-8.906015,-9.856167,-10.10468,-9.915614,-9.119283,-8.728838,-8.469634,-7.548158,-6.36187,-4.859648,-2.91802,-1.672616,0.364243,1.834728,3.148,3.389777,2.294003,2.866549,2.224454,2.756534,1.957526,1.419889,0.9056406,0.4776035,-0.1340106,-0.1598904,0.01092416,-0.1033348,-0.7280686,-1.242433,-2.091056,-2.778395,-3.453765,-4.498236,-5.188831,-4.687429,-4.924131,-6.459367,-6.253527,-6.747298,-6.548648,-6.817009,-6.925861,-6.920661,-7.023114,-7.589737,-8.235651,-8.109656,-8.955407,-9.760485,-10.33651,-10.42787,-10.68768,-11.09388,-11.47467,-11.40269,-11.68323,-11.91284,-11.37933,-11.43602,-10.32028,-9.875457,-10.48618,-10.37544,-9.6994,-8.958581,-8.13293,-7.188761,-6.893133,-5.846403,-4.110825,-3.571015,-3.080555,-2.618719,-1.651592,-0.2095025,1.460609,2.038883,2.699613,3.413551,3.965999,4.561714,5.432994,6.49278,7.452247,8.368787,9.516441,9.680598,9.414199,9.105066,9.14648,8.875382,9.413674,10.05635,9.674846,8.688984,8.228085,8.176502,8.176474,7.829895,7.317261,6.245872,6.46049,6.579518,6.528134,6.136988,5.429617,5.191218,4.847997,4.233006,4.262635,4.243472,3.795227,3.611291,3.611579,2.627131,2.060903,2.340416,2.354118,1.973085,1.826596,1.536195,2.071005,1.664873,1.070133,0.2165361,-0.5224613,0.263285,0.1517186,0.5602325,0.9326286,0.383058,0.659141,1.71263,2.134818,3.021576,3.051639,3.627915,3.959484,4.627937,4.76552,4.987915,5.934461,6.808059,7.340528,9.18639,9.153544,9.863913,11.54475,11.19508,12.5083,11.90187,11.82136,11.35002,10.30689,9.885682,9.750327,9.987861,9.747747,9.477781,9.926197,10.55122,10.72085,10.37162,10.39256,9.598877,7.996533,7.861694,7.084376,7.146263,6.668726,6.217361,5.799978,5.329582,4.05594,3.091916,3.734607,3.58807,3.572782,2.782574,2.746483,2.091343,1.533806,1.620892,1.744761,0.9151317,-0.08824866,-1.983691,-2.7072,-3.686273,-3.994817,-4.646676,-5.311096,-7.068846,-7.170053,-7.795395,-7.955767,-9.240562,-10.64229,-11.05924,-11.21636,-12.2291,-13.44638,-15.62594,-16.46755,-16.4322,-15.27105,-15.24683,-14.75181,-15.59408,-16.86331,-18.27229,-18.61665,-21.20902,-23.54699,-25.35288,-27.24059,-28.69393,-30.68532,-32.65722,-33.77969,-35.2571,-35.59776,-35.85664,-37.29899,-37.90898,-37.78341,-38.03927,-38.82758,-39.87708,-39.42905,-39.51027,-38.6786,-38.79143,-37.21107,-36.40365,-35.01723,-33.33275,-31.79362,-30.03047,-28.66346,-26.44608,-23.73458,-21.02476,-19.08546,-17.64181,-16.162,-13.7407,-11.93502,-9.738827,-7.984947,-5.899756,-4.583568,-1.996645,0.4098205,3.506117,5.164428,6.737941,7.887194,9.717499,11.66387,12.03962,12.88723,13.25549,14.47438,16.59437,17.81336,18.74548,19.79763,20.68951,21.76684,23.22031,23.72062,23.80121,24.02132,23.42219,23.6416,24.72847,24.70509,25.23213,25.0225,25.29337,24.39159,23.4349,22.35947,21.91586,22.38161,20.75141,20.58483,19.88986,18.2193,17.16206,16.51391,15.84757,13.84466,12.07939,11.05255,10.59427,10.09054,9.30557,8.565579,7.490351,7.152251,6.322071,6.579833,6.523519,7.297006,7.885804,7.440339,7.832687,8.68118,9.819944,10.81047,12.2774,14.05882,16.16764,18.1512,18.47031,20.06781,19.81812,20.41072,20.45148,19.57979,18.78445,19.27019,19.33204,18.19986,17.45906,17.17152,17.41631,17.51727,17.75849,18.07647,16.5127,14.94681,15.25103,14.09602,13.1946,12.07522,10.8554,10.86347,10.1863,11.36591,10.95014,11.42395,10.30685,11.31342,11.72012,11.51725,11.06621,11.39213,12.05697,11.92814,12.60284,12.37495,12.18483,12.38156,12.6715,13.46792,14.1838,14.82803,15.93719,16.2895,17.24832,16.96366,17.55336,17.37762,18.31759,19.0789,20.40228,20.10987,21.00091,21.08589,20.4478,20.4445,21.51049,22.94873,24.08732,25.3861,25.91394,27.16843,29.06425,29.64064,31.59879,32.60832,33.08562,33.5545,34.31149,35.68763,36.19625,36.65315,37.33566,37.22236,36.54077,36.64114,37.23388,37.53327,37.22323,37.11355,36.83481,35.00494,35.37784,34.14803,33.33134,32.33787,32.27868,31.09266,30.22905,28.00303,26.21509,25.31487,23.74336,21.82634,19.65566,17.59353,16.35209,14.58765,12.43312,9.684905,8.715141,6.628993,3.551548,0.4665138,-1.058582,-2.716163,-3.479634,-5.330573,-7.851598,-10.24931,-12.82029,-15.27746,-17.18142,-20.0762,-21.71382,-24.06556,-25.66256,-27.76593,-30.34644,-31.68863,-33.75455,-35.56654,-36.95858,-39.71709,-41.30603,-42.70628,-44.77349,-46.88611,-48.04873,-49.31228,-50.32373,-51.59666,-52.54102,-53.35532,-55.20629,-55.99741,-56.10833,-57.02451,-58.51496,-58.82457,-57.24691,-55.0878,-53.93304,-54.19593,-53.47018,-54.37342,-55.61929,-56.03036,-56.00295,-56.0396,-56.25393,-56.92078,-57.34366,-59.09819,-60.41373,-61.54658,-61.90683,-62.47563,-62.68852,-63.50802,-63.56131,-63.87985,-64.055,-65.72304,-65.67641,-63.93325,-62.22667,-62.4105,-62.90987,-61.60752,-60.44778,-58.94777,-57.98104,-56.99564,-54.75177,-54.3281,-53.26655,-51.52474,-49.07443,-46.06039,-44.38031,-41.62242,-39.88715,-38.22794,-36.33152,-33.65046,-31.03365,-28.536,-26.07473,-22.87041,-19.95816,-17.75236,-14.38015,-11.7197,-8.409311,-5.665849,-2.713628,-0.7292724,1.229579,3.524808,6.546682,9.292477,11.56671,14.28818,16.61886,17.64492,19.76394,20.85304,22.72853,25.15681,27.49773,27.68322,27.6318,29.12314,31.40299,31.20169,31.78041,32.06386,32.13507,33.12641,33.87539,33.14124,34.05544,33.41163,33.39812,33.19451,31.31106,29.21886,26.70196,24.72756,22.62301,19.38867,16.61872,14.01967,12.98984,11.29888,8.818519,7.333772,6.106877,4.753826,2.949814,2.156772,2.725457,2.396192,1.351379,1.332209,1.969023,3.321693,6.204627,8.949655,10.75736,12.4108,11.86289,11.5054,12.48762,12.25987,13.90834,15.82239,16.30469,17.08138,17.67893,17.83602,18.52737,18.51291,19.90261,21.36336,22.96981,24.436,25.41801,26.32779,27.15385,28.56098,29.1423,28.33606,30.05761,30.84398,31.48959,31.99429,32.02459,32.9994,32.72498,32.68413,32.69716,33.16745,33.48174,32.57684,32.50223,32.6002,32.49933,31.4732,30.83127,29.32096,27.902,26.9897,26.91329,25.56845,25.06806,24.3777,22.87695,22.40522,20.00729,18.75212,17.44914,15.63906,15.50035,13.65416,11.64975,9.73193,8.148838,8.092753,6.981045,5.566491,4.227537,2.905901,0.369669,-1.004512,-1.358634,-2.153981,-1.228431,-1.434478,-1.672077,-3.658803,-3.83585,-2.794074,-2.958924,-4.059884,-2.805021,-2.263664,-2.272191,-1.741513,-1.976578,-1.888857,0.02563577,-0.5564732,-1.924596,-2.603602,-3.664978,-3.513032,-5.900245,-7.626097,-8.125539,-9.498727,-8.867287,-9.160446,-9.910866,-10.11191,-11.5726,-11.50049,-12.07715,-12.15804,-12.11529,-11.77537,-12.28789,-13.25511,-13.87536,-13.98432,-12.81773,-12.24202,-12.68873,-14.02433,-14.86944,-14.47084,-15.48165,-15.1866,-16.12671,-16.54705,-16.05264,-16.35616,-17.31021,-17.86123,-18.51712,-18.10944,-18.0025,-17.50317,-16.97529,-17.29188,-17.11581,-16.77497,-15.4146,-14.73957,-14.61641,-14.00576,-14.32082,-14.49925,-14.13103,-14.99308,-15.6454,-16.72504,-17.28455,-17.02703,-17.29157,-17.72085,-18.23386,-19.7386,-20.65222,-20.84743,-20.8186,-20.98527,-22.0407,-22.9419,-23.55869,-23.97011,-24.13938,-23.119,-23.78127,-24.87526,-24.79837,-24.71142,-25.58503,-25.09866,-25.59482,-25.39843,-24.67618,-24.15552,-23.11292,-23.50215,-22.96602,-21.66769,-19.82134,-19.56336,-19.23976,-18.49999,-17.10968,-15.49125,-14.00722,-11.8619,-10.84602,-8.536108,-7.253978,-5.000077,-3.911312,-2.560113,0.3272425,1.423928,2.801895,4.886539,7.295388,9.37087,11.48025,14.44421,16.399,18.04126,20.78662,22.10496,23.14359,25.24766,26.61299,28.36923,27.86202,29.83004,31.90308,33.05611,35.2405,36.31877,38.16904,38.49342,38.76102,39.98399,39.13949,40.35747,40.6531,41.01951,41.80225,41.82281,41.37929,41.07765,41.06287,40.05793,39.05528,38.25818,37.38764,35.97006,33.31202,31.17185,30.43725,30.85189,29.82544,28.62982,27.85096,27.29364,27.19416,28.22718,28.48708,30.14638,30.57449,31.78364,32.88566,33.76259,34.23292,34.18659,33.81596,34.15506,33.61725,33.993,32.91671,32.60023,32.34109,31.88019,31.25841,30.1306,29.66557,27.93793,27.37822,25.89765,25.03626,23.8788,21.26301,19.12657,18.03201,16.73308,14.68919,13.15558,9.680278,7.837634,4.493171,2.084572,-0.1803011,-3.622731,-5.063028,-7.167497,-9.905774,-11.46305,-12.48696,-13.86659,-16.34239,-18.58806,-20.92444,-23.99187,-26.1483,-29.72761,-32.4711,-35.85096,-38.11911,-40.83987,-43.32559,-46.78402,-49.40174,-51.02011,-53.38442,-54.26446,-56.28723,-57.06753,-58.48308,-60.30945,-61.18856,-61.00935,-60.36515,-59.41893,-58.49134,-58.81995,-57.50814,-56.41768,-54.03172,-52.53202,-49.85797,-47.72924,-45.54008,-42.81421,-40.8214,-36.35479,-32.8143,-28.71575,-24.85958,-21.57879,-19.19481,-16.15802,-12.43825,-9.097873,-6.532195,-2.105904,1.578845,4.346347,6.788251,9.279668,10.83234,13.81192,14.74546,17.30603,18.91394,19.66234,18.97036,18.02841,19.31467,21.19492,22.4574,22.56512,22.46459,23.60988,24.77334,23.64712,24.71159,25.61966,25.80529,25.53664,25.29444,25.17917,24.07437,23.46783,22.10401,21.56577,21.16657,20.26474,18.67218,17.05939,14.87862,13.91092,12.3746,10.76605,8.998815,7.763026,6.873611,4.81388,3.262487,1.310771,-0.9027703,-2.322856,-3.832245,-3.540457,-3.521274,-5.216591,-7.194542,-7.978045,-9.826569,-9.108277,-8.715896,-9.436771,-8.860834,-8.836895,-5.972002,-5.827863,-4.110668,-2.223751,-0.6711709,0.1896925,0.3228964,1.887616,3.482602,4.231058,5.157712,5.488084,6.150719,6.309947,7.806619,7.894744,9.395719,9.808973,10.9985,12.13728,12.83868,13.56531,14.0832,15.0036,15.22623,15.94483,17.3612,18.34423,19.6243,19.49771,20.3165,21.03757,23.63745,24.64011,25.91382,26.99766,27.56899,25.67574,26.82464,28.91499,30.88422,33.18169,33.21313,32.68692,32.67221,33.73146,34.87528,37.35961,37.537,38.01096,38.53824,39.95646,40.22484,40.32693,39.80626,41.14002,40.88024,41.69882,41.10277,41.16032,39.75302,38.51446,38.05318,37.95336,38.61908,36.86083,36.13747,35.72414,34.32388,33.60012,31.96567,29.71446,29.9483,27.85763,27.76961,26.14577,24.47061,22.33189,20.56856,19.33031,17.54042,15.59941,13.91199,10.49821,7.656857,6.470754,5.597226,3.017704,0.4284368,-1.322928,-3.127858,-5.480907,-7.65498,-10.72775,-13.47352,-13.78821,-15.97281,-17.75756,-18.64931,-20.6403,-22.7925,-24.87837,-27.32361,-28.41069,-30.55961,-31.03055,-32.95598,-35.23839,-36.20181,-36.19516,-36.75926,-38.20788,-39.44076,-40.29913,-40.64443,-42.34081,-41.62905,-41.3043,-41.24611,-42.70242,-43.79347,-43.01959,-41.39689,-41.67753,-41.51673,-41.9487,-40.81245,-41.43099,-41.93957,-42.21783,-42.39399,-42.78292,-43.60325,-44.16508,-45.5113,-45.56343,-45.90624,-47.83543,-47.19783,-47.56882,-46.93016,-47.68261,-49.53767,-50.16775,-51.83514,-52.79399,-53.95151,-53.42439,-52.35348,-51.42997,-51.96821,-52.7918,-53.77268,-52.87178,-50.79832,-48.93835,-46.80002,-45.38778,-44.13523,-43.17044,-42.03325,-40.27634,-39.14423,-37.14868,-35.73899,-33.22393,-31.80827,-30.80773,-28.68635,-27.94127,-26.83951,-24.5714,-23.30417,-22.40448,-21.16448,-19.79875,-17.97896,-16.73987,-17.03682,-15.04699,-14.09501,-11.8144,-9.700385,-9.287582,-7.457093,-7.322977,-5.677684,-4.027606,-2.90535,-1.885188,-1.787496,-1.340228,-0.3582676,-0.2082219,0.8586972,2.613478,1.880734,1.144526,2.059064,1.095543,1.640574,0.5445398,0.7217488,0.2918526,1.684179,1.530943,1.043895,1.405997,1.237333,0.7893448,1.014553,1.332658,-0.3555724,-0.538976,-2.410345,-3.606803,-5.956449,-7.464716,-7.645989,-8.055353,-10.97255,-11.76037,-12.78328,-12.34149,-12.25792,-13.00934,-11.89011,-12.25288,-11.70617,-10.83876,-9.34312,-7.229972,-5.426995,-5.868507,-4.775524,-2.421009,-1.387951,-0.2314125,0.2659071,3.200885,5.105904,5.275986,6.476083,8.441137,10.66131,12.97018,13.51506,13.49814,16.38693,16.90078,17.59922,16.85745,18.61623,20.50681,20.48889,22.84784,23.56,25.04008,24.69209,26.032,25.98929,26.44116,27.60156,28.54629,29.45041,31.2094,33.39471,32.59076,33.51323,33.34615,33.62992,35.1401,35.47363,35.57587,36.12999,36.41333,37.33011,34.8054,34.92803,34.68158,33.4803,33.39259,32.86082,32.9311,31.46565,31.19076,29.70965,29.45166,27.80462,28.39344,27.13434,26.10643,24.88026,23.71913,23.11237,22.53146,20.78297,18.90722,18.68207,17.08319,15.18904,14.44503,14.21372,11.7492,12.05039,11.01125,10.10038,10.05827,10.22954,8.758825,9.382283,9.415121,10.91645,11.59136,12.73306,12.66344,14.79353,14.66801,15.52047,16.35915,16.69179,16.74713,16.21953,16.04989,15.25189,15.32623,14.2584,14.66253,15.70561,14.12818,14.04287,15.44135,15.45015,15.60353,15.98047,14.99181,15.83686,15.58677,17.13322,17.56556,18.24578,18.7472,18.53855,19.1173,19.85378,19.61558,19.64245,20.73264,21.99295,22.72595,21.88429,21.70776,23.02261,23.65517,23.02499,22.61135,22.50919,22.61362,23.29845,22.00138,21.2608,21.03926,20.87191,19.84113,18.72848,19.18388,18.31317,18.08828,17.28172,17.16842,15.27313,15.76751,16.47943,17.11172,17.63547,18.29766,17.90156,17.21025,18.94605,18.00406,19.01066,19.80551,19.45525,19.9761,19.23959,19.15938,19.25023,17.90085,19.70458,19.39849,18.39953,18.93456,19.86813,18.6973,17.14412,17.73176,17.13899,17.07083,16.25007,15.35574,13.98916,13.68921,12.21806,10.3076,8.724849,6.601839,5.661729,5.521812,5.004403,2.630969,-0.01474664,-1.21469,-2.171959,-4.602346,-5.783971,-8.240902,-9.022418,-11.68348,-13.19513,-15.92283,-16.99151,-16.89645,-19.74926,-21.08596,-23.08076,-24.98257,-26.11466,-28.02163,-28.02201,-30.6757,-31.6397,-33.8296,-34.15462,-36.56091,-37.94792,-39.20044,-39.77903,-40.40957,-40.62349,-41.47456,-41.74434,-42.30306,-43.89513,-44.26645,-43.14831,-44.46656,-43.9083,-44.38056,-43.46566,-43.36841,-44.76103,-44.43881,-43.88153,-43.46371,-43.3246,-42.97781,-41.79213,-41.17467,-40.37701,-41.61827,-39.79587,-39.90775,-38.28211,-37.77346,-36.58081,-35.39432,-35.53116,-36.87405,-37.66904,-39.09485,-40.45235,-41.98386,-44.40469,-44.71099,-47.93097,-49.19242,-51.11639,-54.33815,-54.73918,-57.91027,-58.7038,-57.81463,-58.76651,-60.00216,-60.32816,-61.70326,-61.91974,-61.52483,-63.39658,-63.54048,-62.17493,-62.14482,-61.59898,-61.49985,-60.51456,-57.98395,-55.83161,-54.35157,-52.7279,-51.60228,-48.72255,-45.81849,-43.87058,-41.75229,-37.27993,-34.65709,-30.84607,-27.24554,-23.86613,-22.30977,-19.79082,-16.04624,-13.69203,-11.62857,-9.625091,-8.368465,-5.045389,-3.597092,-1.936612,-1.626928,0.3078893,4.489326,6.80135,8.243147,9.840299,13.36157,16.94674,17.81366,20.46205,23.16299,26.34692,27.91734,29.59877,32.50835,34.51789,36.23206,39.30592,41.76881,43.18702,44.79398,46.59239,48.19672,49.34511,48.855,52.21706,53.16168,56.25316,56.00995,56.33675,56.81598,57.47853,58.81107,58.93429,60.62865,61.03018,59.69138,59.80263,58.67981,58.74654,58.66907,56.50811,57.31752,56.44305,55.4983,54.44254,55.28892,54.40632,54.18182,54.07247,53.09829,55.78241,55.24999,57.09205,55.78408,55.80799,56.06142,53.96852,52.38627,51.16711,50.04553,47.69279,45.6822,43.33076,40.29955,36.86533,35.74838,33.44404,30.51492,30.24759,26.51398,25.25446,23.15111,20.26496,17.57809,15.60088,11.77154,9.797409,7.747291,4.943241,4.045156,2.863636,-0.2624165,-0.1383361,-1.470516,-1.888158,-3.308772,-3.581566,-4.270266,-4.742135,-4.553729,-3.705394,-3.862421,-4.273929,-2.735958,-2.110228,-3.379434,-1.250424,-1.490252,-3.44543,-3.931543,-2.728184,-3.415362,-5.198298,-6.853209,-7.718578,-8.143757,-8.096014,-8.74272,-10.40341,-9.528453,-7.811058,-7.321375,-9.864998,-9.731785,-9.296221,-8.411733,-9.656744,-10.41984,-9.469512,-9.770897,-11.31663,-11.61484,-12.0494,-13.5565,-12.37941,-13.8147,-13.32315,-17.09306,-17.51231,-16.84808,-19.4021,-20.2528,-21.85472,-21.58058,-18.90868,-20.79529,-20.94805,-23.52059,-22.17824,-22.43958,-22.63951,-24.72213,-24.74344,-26.10184,-28.12725,-28.95523,-30.55566,-31.83535,-32.62762,-32.50686,-33.54552,-34.43745,-36.29751,-37.78061,-37.31927,-36.85319,-39.64209,-40.48433,-40.62458,-41.96382,-40.65864,-42.38919,-42.26751,-43.00592,-43.62424,-41.85224,-43.63237,-43.13004,-42.90443,-42.44583,-42.03084,-41.59669,-41.59407,-41.26461,-39.45737,-37.41598,-36.82611,-35.82576,-32.31385,-31.84807,-29.07268,-27.18136,-25.1626,-24.25379,-22.13628,-21.51986,-16.83799,-15.07524,-12.17896,-10.55459,-5.962174,-4.581503,-0.826946,0.4479988,4.171891,8.02731,10.46381,14.37379,15.4148,17.27232,19.0615,21.52552,23.69204,26.51952,28.40025,30.918,32.21087,33.13527,34.5125,37.12677,38.51833,38.54235,39.98674,41.62897,41.02006,42.76453,43.85282,44.56955,45.90116,46.7699,45.97854,45.35412,43.25808,42.99537,44.33319,44.50884,43.94065,44.36046,42.28114,42.65619,42.34286,43.68682,41.61574,42.22971,43.7092,41.88169,42.48578,42.03794,45.02841,44.25541,43.63523,44.54824,45.58918,45.91782,46.717,44.37088,44.55886,45.32314,44.66777,43.24742,41.78722,40.84038,40.53822,38.15547,38.47462,38.29663,37.27144,36.63615,34.90422,34.96442,32.66543,30.21193,28.17301,26.68424,25.19437,22.10317,19.78728,18.4214,15.97843,13.384,11.51245,8.534952,5.865033,3.683221,1.250632,0.006415654,-3.229946,-6.645954,-9.023823,-12.04834,-14.17239,-17.47535,-20.2659,-22.39657,-23.85136,-26.81323,-29.36929,-30.15792,-31.78398,-34.10477,-36.85149,-39.31289,-41.25509,-43.78936,-43.47387,-46.03006,-45.03098,-47.07047,-46.16513,-47.57331,-46.30096,-46.97944,-45.68465,-44.75831,-42.17474,-41.90001,-42.89808,-41.28646,-43.31577,-42.46963,-42.50822,-39.80506,-41.10115,-41.00046,-40.55244,-38.14037,-37.63783,-36.02503,-34.48813,-33.77488,-30.92939,-30.22732,-29.08546,-27.6899,-26.5158,-22.90011,-22.17829,-20.74125,-20.47666,-20.39234,-19.40875,-17.29002,-16.72992,-13.97305,-10.64258,-10.34613,-9.73558,-7.693922,-7.203529,-4.653101,-3.202172,-1.090483,-0.4892422,2.07782,5.103545,5.126962,7.055161,8.573028,9.174561,9.781656,11.78631,12.02966,12.7681,11.62089,13.30157,13.47771,14.69944,14.59623,13.02748,13.87372,12.8436,13.4329,13.10184,13.30535,14.23856,12.62789,13.19795,11.38984,10.82613,11.13403,9.619473,8.045778,8.592684,6.946281,7.511748,7.238091,6.681702,5.452431,4.822852,4.803233,4.413666,2.525174,2.052423,2.517386,1.948477,0.3979183,0.1286604,-1.795957,-1.356031,-2.059118,-1.582552,-3.168435,-2.802342,-4.098859,-4.39265,-5.665358,-4.410338,-4.707345,-6.536617,-5.8439,-6.122892,-4.749336,-5.268552,-3.215831,-2.861176,-2.192053,0.04904691,3.040468,4.187782,4.918487,7.400881,8.47517,10.3013,11.62852,12.88654,12.43898,13.60693,13.19584,13.08159,13.17561,13.78074,15.45492,13.45744,15.61731,17.13916,17.04869,17.09032,17.55619,18.32057,18.31379,19.28622,18.87029,19.00188,19.35827,20.5534,21.23786,21.42401,21.81576,21.71444,21.82115,22.2608,23.67147,23.63844,24.35133,24.47766,23.18759,23.88624,24.39917,22.99505,23.88695,24.97614,24.6023,24.44996,23.09823,22.6633,21.45828,23.31639,23.18926,21.29528,22.91059,23.07641,22.50733,22.04339,22.99923,25.0912,24.00371,24.44208,25.22408,24.85254,26.69666,26.51146,25.88557,27.28267,27.22066,27.58539,27.9363,28.07164,27.36602,27.0681,26.28679,25.49879,26.37913,26.42039,23.29724,24.29303,23.34903,22.78005,20.86332,20.69937,18.58104,18.41295,16.0257,17.18512,15.98121,14.48549,12.70333,11.07762,10.28452,9.482706,7.309174,4.402575,2.849574,1.648293,-0.5724731,-3.156856,-4.882143,-6.026752,-9.557724,-10.34839,-11.81597,-14.15772,-16.40754,-19.51624,-20.47869,-21.53038,-23.24363,-25.73999,-26.26251,-28.44425,-30.08969,-31.09637,-33.36704,-34.03958,-36.49839,-37.39908,-37.9543,-38.66661,-41.66141,-41.09166,-42.48686,-43.0371,-43.09634,-45.2301,-44.08663,-44.3445,-46.17934,-46.02586,-47.14404,-45.64579,-44.57948,-44.26565,-43.7579,-44.5556,-43.28588,-41.50717,-42.80026,-41.41513,-40.74589,-41.52586,-41.75265,-40.54376,-41.3583,-40.19366,-40.84218,-40.39379,-42.20548,-41.40373,-43.06661,-42.21012,-41.88544,-42.70279,-44.29578,-44.93627,-46.2785,-44.60544,-43.99088,-44.05858,-44.32957,-44.42242,-41.43925,-42.33425,-41.99057,-42.87344,-39.66394,-39.53733,-38.98078,-36.94019,-37.30872,-35.1069,-32.3222,-33.87665,-31.88031,-29.38444,-28.53392,-26.92755,-26.3237,-24.75749,-23.04199,-22.96202,-21.49492,-19.68913,-18.4673,-17.95337,-17.47809,-13.40724,-11.93503,-10.35865,-9.099326,-7.38076,-6.688339,-1.862033,-2.006416,-0.3114033,0.7179187,3.218716,5.865236,5.811263,6.689725,8.661747,8.458152,9.628976,10.6102,10.44762,9.210022,8.473451,9.859607,9.079837,7.881561,8.457857,7.219026,6.717567,6.503171,6.633634,7.003702,7.052628,5.544887,7.211487,8.889836,9.468576,9.459279,9.035732,9.409737,10.67617,10.37194,11.32058,9.772049,9.549528,9.891612,10.88107,8.836525,9.856608,10.96523,11.11434,12.54895,12.80102,13.78215,15.18114,18.09802,21.05776,20.29601,22.19219,23.36885,24.24823,27.2534,28.02988,28.90601,32.11686,31.80509,31.21169,34.12876,34.85732,36.19248,37.47369,38.01589,39.9518,39.52729,40.30166,41.83618,43.20794,42.57072,40.9914,42.46262,44.29332,44.04878,43.17382,43.02552,44.61213,43.79921,41.89533,41.86378,39.59068,38.64777,38.41914,38.58946,36.25571,36.46807,36.11516,33.93539,33.51968,31.34817,29.15219,28.67886,27.60165,25.35657,22.75383,22.0253,20.23072,18.2774,16.23186,14.53651,13.94922,11.4911,11.00496,9.21907,10.09695,5.480021,7.005933,5.570125,3.80827,3.144696,2.303761,1.883164,1.194779,1.221492,1.451225,0.8221487,-2.554079,-2.049478,-1.75958,-3.706787,-5.026086,-6.22448,-6.809272,-7.209814,-7.99981,-9.065411,-10.99882,-10.66124,-9.842924,-11.33624,-11.56805,-10.26604,-10.69097,-9.414472,-8.820785,-8.599642,-7.597183,-7.884123,-8.591555,-7.990701,-8.369749,-8.684424,-9.208584,-9.952714,-9.113837,-10.79927,-10.44569,-11.69754,-12.02264,-12.69599,-11.2698,-13.26965,-13.55522,-14.71056,-14.01807,-15.24205,-16.01566,-16.44588,-16.34311,-16.54011,-17.3731,-17.62168,-15.89948,-15.459,-17.33238,-17.79948,-19.22897,-18.97777,-19.70017,-19.36989,-21.30302,-22.01614,-21.83321,-22.9296,-24.2098,-25.79376,-25.49908,-25.45645,-27.38625,-26.7763,-27.41905,-25.62426,-27.64072,-29.81154,-29.85601,-27.5546,-27.5999,-29.32242,-30.10338,-30.51226,-29.43456,-29.70245,-28.27428,-28.11512,-26.94699,-24.7104,-25.61746,-25.98704,-24.62532,-23.06074,-22.45527,-22.07395,-21.21334,-20.03641,-19.04384,-16.56523,-16.62933,-13.30315,-13.36885,-11.90253,-9.18971,-8.144469,-5.630249,-5.091887,-3.140848,-2.131114,0.3546653,1.100088,1.632147,3.594884,5.253055,7.738547,6.368997,10.57998,11.8194,11.91061,13.38961,15.72439,15.90849,15.74373,17.56328,18.80852,19.83716,20.24229,18.62638,20.04585,19.74608,21.19027,21.83874,19.86058,20.88472,22.78258,21.7763,21.89708,20.10174,21.93345,21.36647,19.78679,20.6074,21.94192,20.74273,21.00748,22.86398,24.56662,23.63751,22.65774,23.76828,24.75621,26.37177,25.87954,24.86061,25.07537,27.55425,27.62472,27.71255,27.25072,29.54874,30.26627,31.30944,31.20107,31.34211,34.08909,34.66367,32.23785,31.73102,32.7886,31.67555,33.84499,31.74867,30.71518,30.40314,29.47533,30.79141,28.27776,28.93807,29.42605,28.89291,27.45761,26.22298,26.24673,24.74353,23.23789,21.14513,21.91153,19.70413,18.92998,17.38038,14.94482,11.90971,10.49602,9.22495,6.847276,5.403989,2.269077,1.580703,-0.07684108,-4.061335,-3.487913,-5.874889,-7.282046,-9.963471,-11.50536,-13.56615,-12.86906,-15.90027,-17.04595,-17.73605,-16.84984,-17.81122,-16.90895,-17.23177,-18.13105,-19.19827,-18.17341,-18.19342,-19.30215,-19.05856,-18.76773,-21.13351,-21.8286,-22.46745,-23.77287,-22.71123,-22.64646,-22.71755,-23.6351,-24.16725,-25.09767,-23.78557,-23.58854,-21.79945,-23.31472,-22.65873,-22.03002,-21.75736,-20.13986,-19.1054,-18.68342,-16.38832,-17.32367,-13.44298,-11.53915,-13.6128,-11.91199,-9.921788,-8.27071,-8.777283,-6.995036,-5.267063,-2.445862,-1.859346,0.8227808,2.452416,3.273069,3.683173,7.219147,8.080093,9.838243,10.26474,10.71775,12.21108,12.7859,14.35276,15.19556,15.48392,16.89153,17.27365,17.43446,18.11578,17.5931,18.09278,16.98903,17.05259,15.69362,16.51631,16.64443,15.3783,16.33946,13.62517,14.22566,14.11815,13.06099,11.93011,11.08357,10.54872,9.73307,7.356498,6.906228,4.92522,5.265054,3.863796,2.10189,0.7501782,0.5164775,-3.247742,-3.594858,-4.557745,-8.015499,-9.819829,-10.80039,-12.87226,-14.00999,-15.67913,-15.87403,-16.10071,-19.36878,-19.30063,-19.30992,-21.63744,-21.80728,-24.02117,-23.58958,-23.5627,-22.92369,-22.75277,-22.60804,-20.6828,-19.6076,-18.65309,-18.38748,-16.22453,-15.90818,-14.86957,-13.18258,-14.2984,-13.72905,-14.33108,-15.72601,-16.04611,-14.5526,-14.46169,-16.10848,-14.46099,-13.94828,-12.78701,-16.09089,-14.3606,-13.74924,-12.81475,-13.61072,-14.35399,-14.10562,-14.36433,-11.92902,-11.88889,-13.11415,-12.56792,-13.24427,-12.34161,-12.45299,-11.53045,-12.72721,-14.79399,-12.6485,-12.33569,-13.47863,-13.33554,-13.03357,-12.27062,-11.80158,-13.79564,-12.56737,-11.58684,-12.46931,-12.34209,-9.99375,-12.58836,-12.17686,-11.29246,-10.4968,-9.497101,-9.734789,-8.019564,-9.26612,-7.873262,-9.312973,-9.211251,-8.300191,-7.699145,-9.561778,-7.981099,-9.812766,-8.315702,-9.941068,-9.434209,-9.342525,-10.40983,-10.00934,-11.29733,-10.91987,-11.44995,-11.67824,-11.57298,-12.10855,-12.77851,-11.91154,-12.23456,-10.41357,-12.02333,-11.53278,-12.10607,-12.87806,-10.27028,-12.46206,-10.65932,-9.609743,-7.292641,-8.697776,-8.551824,-7.266743,-6.274743,-4.844211,-4.777148,-3.76582,-2.817717,-2.216063,0.08578908,-0.9504762,0.7591553,1.583035,1.448805,3.501243,4.504668,5.749937,6.492249,5.659703,8.435626,9.994801,10.16266,12.49876,11.70915,12.66436,13.62,14.33192,15.14858,14.63425,15.35115,16.915,17.29948,19.43767,18.44644,21.01483,22.51357,22.66705,22.43511,22.52692,26.33134,24.65458,26.09296,26.78309,25.86647,26.31577,26.3836,28.2679,27.42505,27.98209,29.31233,29.58961,30.58598,31.2465,31.40763,31.99845,31.68788,33.11421,33.77725,32.10233,35.26593,37.38259,36.67251,35.70764,36.8566,38.32762,39.18851,36.52293,38.23833,39.90418,36.74231,38.76809,40.62788,39.429,40.12968,39.09296,37.68638,38.72353,38.47093,36.62912,37.48454,36.73843,34.22851,33.06137,32.23738,31.85024,29.38485,26.90363,26.75941,26.1861,24.33753,22.56137,19.30453,17.50571,17.10829,13.37476,11.77187,8.48832,7.293231,6.029247,2.673911,0.2010469,-3.795608,-4.617695,-6.922791,-8.066212,-8.737158,-14.1125,-11.28719,-15.78937,-17.39942,-19.91022,-21.6926,-22.04961,-24.85717,-26.98402,-27.4782,-27.98704,-30.38932,-31.45838,-31.33277,-33.28666,-33.51025,-33.65085,-35.04797,-32.60998,-35.62089,-35.3566,-35.73183,-34.97007,-33.53164,-33.7166,-34.40421,-31.9034,-32.90168,-29.1822,-29.08393,-28.00076,-28.34642,-28.1102,-27.00505,-27.10335,-25.86024,-27.39644,-27.09873,-27.8178,-27.53452,-27.57949,-27.16495,-27.59063,-27.32708,-27.20931,-25.92743,-26.89563,-26.62989,-25.665,-24.72746,-21.61254,-22.57419,-20.88897,-20.12009,-18.63942,-16.95514,-15.84415,-13.88304,-11.36537,-11.44699,-9.04023,-5.241175,-6.317967,-2.00879,-0.9314893,-0.9018373,0.6996901,1.142005,3.655395,5.771485,4.519177,8.470423,8.341878,9.73023,11.41523,12.0288,12.30983,14.36851,14.92192,16.13733,15.62067,17.02766,18.31391,17.2479,19.03208,17.98786,19.59457,18.47868,18.78405,18.28074,17.60958,18.19414,17.75885,18.5586,15.86555,16.52938,15.44567,17.59786,14.90444,15.42275,15.08171,12.54207,13.25079,11.4171,11.32822,10.96894,10.36119,8.735738,8.790194,7.595542,5.555619,6.52845,2.304852,3.58305,2.158676,1.347527,-0.9107149,-2.615324,-1.594997,-2.02045,-3.928018,-5.870878,-3.794507,-4.759121,-5.709381,-4.336826,-3.859983,-5.636633,-3.973238,-5.11771,-3.129842,-3.087093,-2.293627,-2.062136,0.2976714,0.356266,3.350508,2.464306,4.486795,4.809562,4.863752,4.293559,4.567318,4.154665,4.50101,4.325815,2.135145,3.437981,3.791226,5.091041,3.30234,4.894492,3.746924,5.687923,8.00397,5.527539,5.481848,6.748027,8.331967,7.479392,9.572366,7.448725,8.113865,9.522168,9.710394,10.99129,10.55991,11.4187,9.900294,7.348664,11.37658,10.51256,8.682018,11.01651,11.54918,10.91823,12.03119,12.03906,14.66488,14.41708,12.10519,13.33198,14.07545,14.28952,12.65773,13.84235,15.64694,15.49307,14.11242,14.90613,12.80775,15.78481,13.73183,13.6443,13.28632,11.05307,11.85893,10.88087,11.40479,10.65906,7.891998,10.5316,8.61503,8.127258,5.22427,6.294067,6.078025,4.313829,2.800127,1.70688,1.53767,-1.226064,-0.7059625,-2.088179,-4.365524,-5.009082,-6.696797,-8.848987,-10.12491,-11.74347,-13.23994,-13.92042,-16.15143,-16.28924,-18.37533,-18.24084,-20.93494,-21.26549,-20.62619,-22.32297,-22.98423,-25.14255,-23.83933,-25.52128,-24.7899,-25.49496,-26.66627,-26.51305,-27.24462,-27.03754,-28.18965,-27.26673,-28.45395,-27.17782,-26.09975,-26.91361,-24.92744,-25.2154,-23.24117,-23.93932,-22.76819,-24.21735,-23.05279,-22.3463,-22.55079,-22.03622,-22.15746,-19.80641,-20.74322,-19.8745,-18.67663,-17.41419,-17.99163,-17.33324,-16.20146,-17.10121,-14.34646,-13.99367,-13.26976,-14.35101,-13.15361,-12.73026,-13.70799,-10.31724,-11.96017,-12.45121,-12.30165,-11.7608,-13.22716,-10.48821,-8.687944,-10.0068,-7.969695,-8.497158,-6.810615,-8.358809,-5.015343,-7.364637,-5.857716,-6.178424,-7.249054,-4.330881,-2.968909,-3.729931,-3.571527,-1.783157,-0.4919765,-1.501303,-1.03181,1.266326,1.224578,2.677502,3.063882,3.479494,4.577852,6.437153,6.265362,7.948379,8.23997,8.574524,8.765396,10.73939,10.90134,11.03907,12.67453,12.72077,14.037,11.89174,15.16795,13.79228,14.74901,13.89976,15.94917,15.78288,13.46329,14.60615,14.48855,15.14401,15.27315,15.79558,17.01161,15.63833,18.16554,16.88612,16.08082,15.66892,13.00842,12.00613,11.54305,7.646833,6.731234,4.729827,3.538116,3.444603,2.004041,-0.5251408,-0.3117937,-1.185996,-1.767676,-2.487768,-2.20943,-1.932022,-2.778975,-1.183631,-1.850015,-0.5164472,-1.342225,0.6909902,0.074465,0.214377,1.087913,1.189227,2.323572,1.830705,3.394097,3.799611,4.609059,6.312427,4.744999,6.250459,6.77682,7.230738,8.377802,8.684506,10.68724,11.05989,13.35505,11.71085,13.44964,13.07837,15.11358,13.89059,13.80634,15.41001,15.13021,15.22035,16.49399,16.03713,15.79442,15.61879,16.39207,15.28823,16.05613,12.87896,13.75357,10.72194,12.2304,9.644555,11.70453,9.320427,8.423173,7.540038,7.527251,6.655622,3.252295,4.932491,2.022859,1.352191,0.6364013,0.9450317,-0.1875038,-1.585221,-1.543879,-3.728049,-3.626028,-4.812054,-5.994798,-4.944426,-8.10155,-8.341868,-9.875729,-9.488183,-10.61665,-12.85302,-12.28567,-13.99739,-14.6908,-13.34705,-13.31597,-13.70428,-13.3811,-12.83039,-11.53707,-15.11356,-12.75015,-10.77617,-8.707417,-7.678457,-7.558327,-5.427836,-5.263476,-4.934515,-4.013525,-5.541697,-6.047925,-6.875359,-6.579461,-7.173262,-7.077692,-7.881318,-8.221879,-9.068641,-9.42023,-6.562138,-10.66708,-10.77744,-7.628391,-8.54381,-8.465418,-9.041309,-9.509374,-9.107181,-10.39563,-9.22549,-11.56063,-11.29354,-13.51631,-11.15502,-12.90306,-13.70505,-13.5242,-13.35518,-15.74269,-14.85194,-14.135,-15.10426,-15.65945,-16.19262,-16.57686,-16.809,-16.55288,-16.25262,-14.56587,-15.58829,-15.56098,-14.1158,-14.33269,-15.27236,-13.09379,-11.96778,-11.08637,-13.46793,-8.954035,-7.971051,-6.746386,-7.171895,-6.202119,-5.297896,-2.113939,-0.6896212,0.05843595,-0.6387337,1.389321,0.7684926,3.134988,2.8233,5.718121,6.21733,6.823592,6.404843,8.488337,8.597405,10.24324,9.934792,10.99857,12.11297,10.27424,12.89523,13.61189,14.25235,15.47415,13.34244,13.62302,14.65273,15.32323,14.67463,14.96493,15.40153,15.37972,16.05327,15.56772,16.69409,16.23871,16.71137,17.86718,15.36465,17.04999,17.73398,15.99721,15.89803,15.68908,15.39223,15.67748,14.44022,18.23827,13.72863,14.16246,13.177,12.82016,14.38584,13.08871,13.13238,12.62751,14.78834,13.58758,13.84943,14.34438,14.18107,15.67446,15.72366,14.32353,16.25741,16.52795,19.34093,16.3648,20.15936,21.10846,20.03988,20.33483,21.09989,20.11004,22.93738,20.41243,20.44661,17.37964,20.48079,19.80975,19.18618,18.16578,17.85829,16.96532,15.81154,14.33861,13.65475,14.40307,10.70601,9.453906,7.220866,7.285176,4.253953,2.685791,3.92972,0.2234739,-1.499748,-3.257258,-3.631303,-5.631958,-6.665896,-8.823302,-9.475626,-12.02916,-13.58523,-13.20097,-15.6454,-17.53319,-16.75888,-17.63995,-17.72458,-17.40887,-19.99811,-21.939,-23.32065,-26.27797,-27.69041,-30.84323,-32.41428,-34.85392,-37.64063,-39.10071,-41.49036,-41.71837,-44.44243,-44.96013,-45.27971,-43.79281,-47.23889,-45.22256,-44.37066,-41.17577,-41.6226,-40.00141,-40.46032,-37.66502,-36.3136,-36.15286,-32.57617,-30.46569,-29.75251,-26.61994,-25.28754,-23.20479,-20.06628,-18.47676,-15.6892,-14.00622,-11.75557,-6.984112,-3.618963,-3.488929,-1.051796,2.703655,3.202819,5.973499,8.017681,9.340983,9.216482,13.66068,14.10737,17.44455,17.35014,20.6703,19.78627,23.06521,22.45239,23.53037,24.90424,25.47575,25.94922,25.87618,25.37315,27.33833,29.57861,27.76509,29.02901,26.30913,28.04718,24.82942,24.70215,23.74755,23.19965,20.74355,20.73324,16.02731,17.37799,14.28366,14.76518,11.40228,8.684766,8.263849,7.640999,2.688681,4.58274,0.9591565,0.321109,-1.082542,-5.596819,-5.027684,-7.028485,-7.626321,-12.01428,-9.614749,-10.59081,-13.44414,-12.50308,-12.60052,-11.39276,-11.20669,-10.90471,-10.22333,-7.868511,-7.760424,-6.196176,-4.167005,-1.518029,0.6276987,2.980023,2.78665,5.260695,6.426927,6.240353,6.08342,5.762523,5.471378,6.473226,5.430091,6.464861,6.812228,7.241651,7.216943,8.385398,9.348936,9.255872,11.03315,12.85238,13.12629,12.32338,16.24678,16.80266,17.34967,15.31515,16.54373,17.03231,15.60625,16.99053,15.04577,16.35572,15.34947,15.66328,16.40249,15.35263,16.52708,16.22116,15.61262,16.1485,17.7068,16.95715,17.86751,17.16825,15.5395,17.49436,18.82361,16.34133,19.36957,18.03346,18.12701,18.44779,18.44614,18.96889,19.75699,18.59888,19.9617,16.19241,19.99453,17.21492,20.66657,21.29221,20.43503,21.25202,23.85749,25.3916,27.97895,27.11972,29.12984,29.38874,31.64592,30.76645,33.92743,32.81795,37.36599,36.65305,37.40767,37.05815,39.5248,42.13634,40.15883,42.07038,42.22801,42.68218,44.50324,42.8221,42.57777,43.71687,41.51933,42.15651,40.2695,39.99174,38.96052,37.62876,36.3663,34.39948,34.73588,30.05134,30.20474,28.08323,25.94646,23.28605,21.37932,19.23191,16.65441,13.29433,11.38087,9.289885,6.441545,3.449096,0.01164834,-3.394943,-6.485644,-7.357558,-11.7341,-13.92716,-18.30471,-19.31521,-23.84137,-25.27768,-28.30979,-31.17629,-31.81132,-36.53842,-37.43808,-39.7474,-42.71062,-45.31846,-45.72731,-48.40645,-49.59768,-50.05548,-51.20861,-53.41142,-56.66993,-54.97785,-56.75918,-56.40849,-59.00043,-57.90049,-60.32562,-58.3119,-56.25936,-56.4391,-56.06987,-54.77923,-56.06628,-54.49074,-55.65119,-54.29517,-54.10243,-55.79517,-54.87363,-55.16396,-54.84985,-56.54625,-55.16934,-57.01884,-54.64139,-56.27096,-56.69649,-57.96063,-57.64257,-57.64407,-59.44837,-60.0052,-60.42505,-61.26708,-58.62955,-61.99,-61.78312,-59.2321,-62.59086,-60.87321,-59.74345,-58.41541,-58.69167,-58.0502,-55.74795,-56.16371,-53.70542,-53.44249,-49.81326,-52.52684,-44.41259,-48.86622,-44.72309,-43.80936,-38.44156,-38.03783,-36.85997,-33.19304,-31.59921,-28.25089,-27.45516,-24.48781,-21.13963,-20.48937,-15.82293,-12.47783,-10.2192,-8.622096,-5.61214,-3.594016,-3.211692,-1.738612,-1.440394,-1.972976,2.052301,-0.2795183,0.5114264,0.4353857,0.6709155,-0.802754,0.6659626,0.0437368,0.3236929,-2.074537,-0.999378,-1.792177,-0.6724993,0.1976912,-0.1983772,1.988172,1.604301,3.356383,2.148046,3.656401,4.65866,5.329984,7.195421,6.470489,8.862425,6.629525,9.708431,8.982732,11.22419,11.27966,14.316,15.16667,18.14046,16.86613,18.27008,20.69753,23.37383,24.28093,27.20087,29.3708,29.60195,33.33831,35.19653,38.66587,40.12839,40.41362,43.84202,42.67059,44.11311,45.52226,44.71071,48.03046,47.96242,47.98641,47.55154,49.21913,48.71765,48.55228,49.14069,49.69259,49.00424,47.6408,46.19993,46.69324,45.93441,42.48797,42.28182,40.5014,37.65237,34.97199,34.57217,29.25625,29.2121,28.51003,22.63753,22.96043,20.77461,17.30281,14.73603,13.62888,12.09295,10.33665,6.278146,6.440036,3.56229,1.273901,1.52993,-3.046489,-0.5777297,-4.253581,-2.05441,-3.404984,-3.758759,-4.037239,-3.695753,-3.265019,-3.884943,-0.3042454,-0.1908093,1.053798,3.768995,4.303076,6.183164,5.174643,6.786496,5.981568,6.238667,9.380797,6.023288,7.735287,8.850509,6.771568,7.838592,7.277274,9.165636,8.117301,8.770507,8.665688,8.327858,9.113197,10.29519,10.70071,12.68368,12.07557,12.12699,13.91117,13.48971,13.43028,13.72383,15.29044,16.30491,13.97121,16.5035,15.67958,15.8886,15.02847,18.64274,16.995,18.65165,17.95204,18.63971,19.92536,17.85035,19.07546,20.29966,20.75262,20.40179,18.78448,22.62433,18.55771,19.63451,18.17096,19.78376,18.3855,18.57546,19.91135,18.88342,17.67805,19.79397,18.69717,19.84727,19.69877,18.15902,18.78555,17.23999,19.35671,17.56133,17.29453,18.15748,18.64355,17.88898,17.83946,17.585,18.26996,19.68028,17.43267,20.79776,17.09639,20.66758,19.06002,22.65095,19.36979,20.8441,19.73166,21.05542,19.87461,20.01321,20.66921,21.70568,20.85659,20.90272,20.47401,20.75304,22.17562,18.97688,19.06514,19.40297,19.56489,18.51099,18.14374,19.78007,16.75592,15.20621,13.86044,15.17332,12.17334,11.66899,11.44835,9.656046,8.214068,6.829637,4.751528,5.425386,-0.397895,0.0083634,-2.530472,-3.635186,-5.750251,-9.441268,-9.285465,-12.6872,-13.60303,-17.14546,-16.6761,-19.40197,-23.3868,-23.70337,-24.8881,-27.21345,-28.61401,-31.39266,-30.84747,-34.16525,-35.48303,-36.55728,-37.04137,-39.28312,-38.25981,-37.61891,-39.09624,-41.96853,-40.46378,-40.77714,-41.21201,-41.6569,-40.07873,-39.91355,-40.01214,-39.2473,-38.87766,-38.97617,-38.44583,-39.5953,-34.43563,-38.14994,-36.16839,-35.52256,-34.62417,-33.54483,-35.5468,-32.07864,-35.34134,-31.61549,-31.53524,-32.13547,-32.95726,-35.16666,-32.57915,-34.83596,-35.43104,-37.46401,-36.52558,-37.64692,-39.10453,-40.32667,-40.56753,-40.61064,-42.21123,-43.10534,-40.96093,-44.80297,-43.86104,-44.60416,-42.80596,-42.72153,-48.3607,-42.45117,-45.84768,-41.11927,-44.13599,-40.82521,-44.60718,-42.08389,-42.14108,-40.49378,-39.88704,-38.84578,-37.49858,-36.65218,-35.82274,-33.86302,-31.90458,-29.24496,-29.12632,-28.70562,-22.77162,-22.9106,-21.47905,-20.51902,-18.68524,-19.37071,-19.90512,-19.26448,-17.47959,-17.68171,-17.61039,-16.65784,-15.86702,-14.87295,-13.86825,-13.17734,-10.7904,-9.575002,-8.64485,-7.294374,-6.241672,-6.79561,-5.853619,-5.79112,-5.252576,-4.498679,-4.60971,-3.652638,-2.612585,-3.469433,-1.133619,-0.0470112,-0.7230517,2.425581,1.862498,4.631406,7.374763,6.010628,8.675577,8.938832,10.05848,9.141473,12.29392,11.61144,10.82461,11.31909,15.88265,12.71682,16.54022,17.15092,17.6326,18.99691,21.06986,21.98747,24.77962,25.88413,27.24305,29.89886,34.23779,33.13364,38.79134,40.16207,41.51316,42.44128,42.98069,47.96878,44.82113,50.64546,50.07954,48.42068,51.45986,51.9521,52.16563,52.27438,50.88329,50.94241,53.53471,50.73507,50.61876,50.60173,49.14924,50.38263,46.61421,46.40797,46.56918,42.56254,44.09112,40.6478,40.35931,36.69609,34.69311,37.61891,31.39319,33.46277,28.36441,28.23494,25.87244,24.27557,23.93629,22.11964,21.71415,20.03959,19.23895,18.99428,18.35317,18.47865,17.9671,18.53358,15.94852,15.95077,16.96316,13.09112,12.1964,11.53933,8.874032,7.302189,5.925491,5.157276,3.344084,2.850552,3.486456,2.446415,2.637469,0.8943665,3.331587,1.66916,2.517998,1.039561,1.220052,-1.233575,-1.98594,-3.920677,-2.339348,-6.152946,-3.000786,-5.125369,-5.788323,-4.52011,-6.351591,-3.982286,-3.505401,-4.203877,-3.666248,-0.6511448,-2.751888,0.8469624,-1.870346,-2.494749,-2.403547,-1.692471,-2.865348,-3.387379,-2.493858,-4.460252,-2.596871,-4.096501,-2.2302,-4.77224,-2.422083,-2.992947,-2.676976,0.2413137,-0.5454894,-0.7963907,0.7874753,1.039738,2.733717,2.74317,3.027225,3.637201,4.300982,5.209054,4.018749,6.470455,6.914669,8.538212,7.27947,9.487711,10.99078,9.861085,12.74338,11.85751,11.37657,13.87799,12.19886,15.6192,15.35478,16.84541,16.66554,17.73138,17.50431,19.75662,18.44657,19.54557,19.91126,18.52751,19.66992,18.85828,20.30011,17.7628,18.79425,18.71133,16.94287,17.99504,14.84874,17.00453,15.38726,13.5497,14.16524,11.18225,11.53198,10.53433,8.187522,8.420332,5.968586,4.475978,3.72338,3.954566,1.191952,0.6504634,-0.9807226,-3.571332,-4.196798,-5.219513,-8.744161,-7.812738,-9.890991,-10.97444,-12.20631,-13.3266,-13.4152,-16.21131,-15.36041,-19.10369,-15.26315,-21.78096,-20.47621,-20.55971,-23.17896,-23.47876,-24.27419,-24.56846,-23.87967,-25.84734,-24.2528,-28.43285,-27.15773,-27.49065,-30.26827,-27.96839,-29.89467,-29.11334,-29.6955,-29.47516,-30.5129,-29.05999,-30.39941,-27.26586,-28.22236,-29.50232,-29.75226,-29.84636,-30.39033,-30.0393,-29.53102,-33.45044,-30.36045,-31.98603,-32.57454,-32.3049,-34.25165,-31.31324,-35.37673,-34.29943,-33.7562,-34.99833,-34.60487,-39.52304,-35.28882,-36.27426,-35.57759,-35.27405,-35.53043,-36.54651,-35.64317,-37.28165,-34.50346,-35.0144,-30.97232,-34.56064,-30.55476,-32.09317,-31.21126,-28.38182,-28.79336,-26.75357,-26.80188,-22.98373,-23.64102,-21.84806,-20.17304,-18.29944,-17.34256,-15.42456,-13.81485,-12.22652,-7.799455,-10.14159,-4.142802,-5.964629,-2.742515,-0.5812784,-0.8155501,2.234303,2.375498,4.708357,5.265807,5.835921,8.798491,8.760443,11.19102,12.1853,12.20177,13.22816,12.81563,15.53641,17.60431,18.28316,16.83534,18.45423,20.05069,18.71853,21.12729,20.39655,20.97431,22.05035,21.28515,20.45816,21.99899,20.95386,21.37151,19.43793,20.82883,18.75954,20.85208,16.079,20.52667,17.22802,17.36678,16.02291,17.23483,13.58181,15.43581,15.72186,11.76786,12.19262,13.28579,11.90966,10.41803,14.19832,10.71675,13.21832,12.22931,14.03023,13.08871,14.39755,16.75724,13.76576,12.80141,13.79278,15.36671,14.09578,13.47077,14.21739,13.50609,11.32821,11.48664,12.5761,11.68139,11.75953,10.30632,11.64737,8.310223,11.02361,8.572157,9.848919,7.163791,7.440507,10.18331,6.790317,8.515734,5.978547,6.68329,5.01525,7.024491,3.873563,5.46205,2.914532,2.363962,-0.7042808,-2.5179,-4.584003,-4.541443,-5.669554,-7.042062,-5.859932,-6.868755,-6.000584,-5.282365,-7.531167,-6.411788,-7.292358,-8.38785,-7.251952,-10.41491,-10.06769,-11.11421,-12.01563,-10.4482,-13.72558,-10.63055,-11.84319,-11.64263,-8.868729,-9.563591,-8.76467,-6.617928,-6.72085,-3.183495,-4.154093,-1.542659,-1.630563,0.7907281,1.942962,3.998434,5.996533,8.424789,8.837733,10.14928,13.65658,14.01068,14.49989,18.10265,18.95338,19.82128,19.97973,22.58856,23.06492,24.81022,24.89276,25.01525,25.31254,26.3969,26.07816,26.14892,24.50396,25.96769,22.74864,24.5149,21.03517,22.77388,20.74423,21.98654,20.53251,16.78736,16.59289,13.97222,12.82368,11.7138,10.85463,7.160138,6.714872,5.205116,3.162063,-0.8190923,-0.07255597,-3.205283,-6.895929,-6.238555,-9.701848,-12.46246,-13.28542,-17.97288,-19.26794,-21.26562,-23.67124,-24.42543,-25.60751,-27.08324,-28.68371,-29.05445,-30.34046,-31.45473,-32.59218,-33.37146,-33.0429,-35.61145,-33.86067,-36.26838,-36.46791,-35.50891,-39.21199,-35.76792,-40.57111,-40.3021,-40.05507,-41.33695,-43.64812,-42.95222,-42.04473,-43.83046,-40.84591,-41.48625,-39.64756,-37.63862,-36.60695,-36.42575,-35.78565,-33.47498,-36.14124,-33.17427,-33.89608,-34.23832,-31.709,-33.0231,-29.64482,-29.77467,-28.24697,-27.79923,-24.03237,-22.87822,-22.55772,-19.51868,-17.9565,-17.39417,-15.47267,-12.59488,-12.77184,-9.336506,-10.52841,-6.079177,-7.220419,-1.36822,-2.000407,0.7294495,3.389458,5.625598,7.854998,8.578279,12.20496,13.90227,16.21802,18.09258,20.46266,23.0584,24.15402,26.21802,26.7269,29.12678,29.63119,32.35302,33.16436,33.94781,37.29989,34.19887,39.22828,38.53155,39.43619,39.05346,40.45191,42.23127,42.46929,41.1487,40.21982,39.8418,38.0054,40.79423,41.1661,39.02216,39.61309,41.12771,39.8446,42.21495,40.26863,41.15532,42.83639,40.38792,43.20294,41.12873,41.94471,43.50176,43.39903,43.60493,45.46101,47.52642,46.31822,46.29975,46.90068,50.1003,47.16872,48.2369,45.5956,46.24174,46.60992,46.08213,43.14995,41.62704,43.42349,39.82011,37.16853,38.70527,33.80968,36.50979,29.41466,32.35298,29.87388,23.35443,25.36337,22.53732,20.60806,17.20077,15.11953,12.09828,10.4673,9.648071,3.954045,3.241668,0.9756599,-1.121718,-5.150523,-6.017946,-8.617403,-9.904686,-14.04868,-13.03731,-18.3513,-17.40714,-21.6171,-20.24229,-25.3919,-24.32057,-26.85332,-29.3896,-30.77316,-32.03225,-33.66614,-35.28928,-37.3059,-37.59909,-37.91602,-37.36624,-39.46648,-36.44885,-40.13041,-37.78079,-37.12487,-37.74365,-35.56474,-35.19532,-32.52516,-31.50985,-30.81128,-30.56164,-31.38608,-30.93765,-32.87151,-31.22797,-31.6295,-31.80161,-31.14797,-28.8796,-31.84014,-30.01544,-29.58936,-31.25021,-26.83664,-31.46429,-27.83416,-28.84004,-25.92615,-26.8683,-25.71834,-26.36116,-25.91479,-24.93163,-22.70801,-21.05934,-19.88786,-17.74113,-16.70209,-13.78148,-13.00775,-10.70971,-10.3192,-8.883479,-6.44405,-5.624817,-1.368639,-3.137081,2.067084,1.154998,4.916388,5.900206,5.865451,7.277355,7.989869,9.37925,11.47941,11.95445,10.80336,13.76105,12.72544,14.93246,16.2781,14.36768,16.02009,17.59345,16.79469,15.14541,15.65897,17.77752,15.97076,17.19399,14.89081,17.17141,14.5847,14.96378,17.04017,12.55697,14.84438,13.41814,11.21078,11.58535,10.12088,8.887202,5.056654,6.17722,5.101852,1.848737,2.794325,1.096917,0.4880348,-0.9654901,-2.227054,-2.323155,-4.433738,-3.502817,-5.564044,-7.069053,-8.130913,-7.086207,-12.10848,-9.567601,-11.14771,-11.27829,-11.3741,-11.84142,-12.53013,-11.49861,-10.52197,-11.17381,-9.259871,-6.748166,-4.530972,-3.605543,-1.392534,0.2404308,1.9308,3.242061,3.738082,4.325935,3.116159,2.683983,3.072697,4.280175,4.241488,3.515469,3.195733,3.993389,6.318162,4.423146,5.297361,6.30259,5.946926,6.252171,7.672877,7.423184,8.465651,8.91191,9.456272,10.28123,10.54273,11.37464,11.47918,14.71942,15.24125,16.21713,17.27173,18.89174,18.55836,21.54445,22.80514,21.88093,23.92474,23.28601,27.33179,24.98672,28.24729,28.13416,28.80223,29.52488,32.91469,31.02284,34.36376,34.116,36.54931,34.24849,36.83358,36.16482,37.23332,39.63682,37.53613,38.66692,39.65153,37.95697,38.96105,38.0813,35.4966,37.90095,35.70283,36.12167,34.23979,33.40848,32.03313,30.72512,31.02574,29.88007,26.09225,25.76633,25.51962,21.26951,19.95408,19.97113,16.43258,13.82077,13.30186,10.20764,10.07029,6.976496,7.150977,1.913249,2.116677,-0.5709651,-3.356867,-4.961073,-5.403151,-9.910846,-10.61655,-15.03126,-12.69048,-20.28226,-17.51946,-22.51876,-22.41314,-25.42577,-26.49111,-28.33145,-29.80777,-30.28981,-29.75406,-32.59912,-31.02451,-32.45425,-33.72134,-34.47975,-33.92858,-35.57825,-35.7308,-36.59445,-37.14891,-36.7931,-38.32227,-36.95729,-36.63798,-38.87911,-37.68075,-37.38081,-35.93627,-36.26785,-34.10429,-34.37512,-31.28543,-33.29106,-32.67524,-31.90314,-31.79011,-31.45561,-32.81387,-31.59316,-31.98512,-31.54625,-34.53521,-31.10462,-34.61371,-32.39674,-35.85709,-32.98934,-36.2168,-32.98722,-38.63442,-35.55504,-37.56663,-38.46216,-37.93804,-39.86256,-38.04732,-39.0778,-37.2218,-39.36825,-37.46467,-38.2814,-36.9646,-37.82149,-34.98433,-37.52088,-35.56447,-36.3153,-34.28891,-34.53671,-33.46312,-32.44173,-32.5913,-30.71475,-29.20449,-29.54293,-28.24711,-27.53353,-26.76908,-23.9474,-24.84509,-21.99188,-21.24709,-20.84221,-19.72438,-18.21968,-14.54608,-17.02105,-13.86651,-12.00852,-9.465716,-9.807458,-5.67844,-6.534273,-5.104185,-1.482293,-0.7856352,0.8057463,3.980857,5.061494,5.950649,5.010911,8.852658,7.40935,7.180683,8.259322,6.571944,6.128912,6.13103,3.713931,3.846063,0.3691021,2.543094,-2.424505,3.485222,-3.120599,-2.5638,-2.745024,-5.064083,-4.838392,-5.753744,-6.050969,-6.228034,-6.427411,-6.196373,-3.933838,-5.280175,-3.785297,-2.232744,-3.232314,0.009314426,1.255118,1.668483,4.919339,6.126655,8.657993,11.38614,16.37788,16.63629,19.60002,23.97833,25.98375,28.93659,28.21037,31.16198,34.59671,35.89144,38.07531,39.3982,41.20953,42.93288,44.05998,45.47558,47.90518,48.05487,48.9996,50.50277,51.64066,52.43898,53.62483,49.37092,55.28558,51.89982,53.30793,52.97481,52.33563,52.6248,51.87397,49.34808,50.81593,48.18948,47.02049,47.34098,44.52727,43.02491,41.61065,39.68857,36.35318,35.09217,32.47807,31.7057,29.32593,25.61417,24.84604,22.18297,18.49584,18.26919,14.08585,13.22441,9.56442,6.830371,5.05907,1.343531,-3.403826,-1.977415,-6.05862,-6.280081,-11.20137,-8.142973,-12.56991,-12.78981,-12.70188,-12.75367,-14.0198,-11.05501,-11.03998,-13.00563,-9.816965,-8.513545,-9.222485,-11.02388,-8.961774,-9.539454,-11.00822,-10.27715,-9.420723,-10.73898,-8.952605,-11.2115,-10.9915,-9.523514,-10.88429,-10.54142,-10.63777,-9.785041,-14.80764,-9.98092,-13.4192,-11.51221,-11.10756,-12.09526,-11.65695,-12.87776,-11.05418,-12.15285,-11.46901,-11.95279,-12.84747,-10.43512,-13.19248,-10.57661,-12.25892,-10.67757,-11.80329,-12.01217,-10.21976,-12.83518,-9.159081,-12.06036,-12.32586,-11.06924,-14.09672,-11.32607,-15.72492,-10.99835,-12.40283,-12.72323,-12.95721,-12.85431,-13.73041,-14.90544,-12.9961,-12.80009,-13.26929,-12.63753,-15.74281,-13.8497,-15.17696,-16.80922,-19.26106,-19.25048,-18.65835,-22.71515,-21.40073,-23.12633,-24.81278,-25.70569,-27.94103,-28.23246,-29.01119,-31.93551,-31.18218,-34.14541,-32.54968,-33.92472,-32.54683,-36.03246,-33.85055,-34.17428,-35.50838,-32.78815,-35.00405,-34.92036,-31.97848,-31.57329,-33.89513,-27.96774,-31.43018,-29.22945,-28.70409,-25.82807,-25.5463,-26.07437,-23.60623,-20.46566,-21.33228,-16.36582,-18.73239,-11.55976,-14.28449,-8.867879,-4.570161,-6.72804,-1.678627,0.0009031363,2.270954,2.284511,7.580558,9.019475,8.116437,12.8561,15.98906,15.04597,20.26858,20.3691,24.58456,24.14987,27.75038,29.16368,28.34852,31.7344,32.85965,34.72952,35.59145,38.1336,40.29418,40.83284,42.06183,43.45493,43.65817,44.06394,44.41003,47.60351,46.05562,47.28397,47.82799,46.55391,47.00002,45.00694,42.82873,44.27001,41.83828,41.09211,40.69069,39.58968,40.929,38.44523,39.50272,38.1462,36.40415,39.00772,36.37423,40.83704,35.97139,41.53683,36.16018,40.01309,39.36499,37.64987,41.38383,39.4547,41.71708,42.17128,38.56773,40.227,39.16084,39.67833,37.37623,37.55804,35.26457,36.91453,32.45597,31.94648,31.7993,29.18142,28.02064,26.12237,22.85814,23.77127,18.85984,18.66363,15.9731,14.62672,12.59509,10.32604,8.51346,3.313335,3.054064,-0.6550749,-2.798728,-4.110368,-8.479852,-11.8657,-9.047668,-15.19123,-17.94766,-15.95228,-21.41096,-24.97705,-23.04309,-28.0841,-30.74058,-32.3243,-32.4901,-33.88094,-34.79274,-35.48355,-38.65261,-35.221,-40.77161,-40.787,-42.23764,-45.90952,-46.05906,-50.50505,-49.1611,-55.08111,-52.1487,-57.33185,-57.12988,-58.41055,-60.4292,-62.20126,-60.01705,-61.88893,-60.98077,-62.77098,-60.4321,-61.30922,-60.57964,-56.52866,-55.56695,-56.82305,-51.91748,-49.46997,-48.56211,-47.06825,-40.13397,-42.55427,-36.36642,-34.2473,-31.15641,-26.75025,-28.18341,-22.54675,-22.56275,-19.60991,-17.35028,-14.93359,-12.15122,-8.931734,-7.197954,-4.454302,-1.369025,-0.1864697,3.410893,4.444722,6.708355,8.277503,13.16739,12.65387,17.40991,19.58675,17.57058,23.81166,21.89952,25.64884,26.38908,25.82428,30.67356,28.54559,29.28682,31.71319,26.19319,33.60082,29.96255,28.95246,30.62736,29.03359,27.40116,29.17967,24.60441,26.63223,24.81856,23.14448,22.03372,19.50388,17.25858,17.5429,14.67133,15.29648,12.34056,10.44153,9.676305,8.279173,6.727309,5.330521,4.379063,3.371583,1.833386,-1.091435,0.4464928,-2.277841,0.4393958,-4.200205,-1.862147,-2.936995,-4.224412,-3.866196,-1.220393,-0.5366753,-0.3396661,2.15845,1.104844,5.756835,4.743542,5.439574,5.706545,7.788216,6.082734,7.822677,7.695231,6.566026,6.099018,9.03681,7.437716,5.535297,8.4424,5.90853,9.673612,5.28255,5.843785,9.081022,8.612823,8.296147,6.748924,8.108752,9.312843,9.289982,8.995908,5.954767,9.52653,7.176903,9.246993,8.547697,9.147227,9.42902,10.14669,9.566324,11.19412,11.54235,12.46083,12.82534,13.1753,16.47939,14.64515,17.35626,17.87049,16.85412,18.29692,19.27855,18.67474,19.74802,20.30372,20.31836,21.02393,22.95689,22.97668,25.09595,25.1428,23.17608,27.26803,22.86105,24.87204,27.79724,27.71301,28.37764,31.09968,30.95885,34.48561,34.40891,34.76523,36.70498,39.63553,41.16898,39.3595,41.9321,42.65506,42.41694,44.86789,44.82305,44.51703,47.85934,45.11491,47.16771,46.91391,45.45842,46.17937,49.14932,44.48585,45.77106,42.94426,42.56409,43.46099,42.30837,39.46158,39.11448,36.48328,36.86555,31.83919,31.32197,31.43136,26.8609,25.84628,25.12976,22.65752,19.12154,17.95876,15.09775,13.19134,10.8244,5.386024,4.29469,0.9347669,-0.0591119,-5.566958,-7.211979,-11.67065,-10.22017,-17.65233,-19.83536,-23.17245,-24.96189,-26.65895,-28.96169,-34.16704,-35.3527,-35.19641,-41.66253,-40.68794,-45.43821,-45.5739,-44.01313,-49.27825,-49.42768,-51.73844,-51.89841,-53.41291,-56.54278,-57.61474,-58.98687,-57.69757,-59.35119,-59.09601,-57.53519,-59.00108,-57.62274,-56.96204,-57.62833,-54.19833,-53.23672,-52.14709,-51.21236,-50.56099,-49.79833,-50.28647,-48.26487,-48.78188,-51.535,-48.04654,-50.17742,-50.47511,-51.57918,-50.15107,-53.84107,-51.33276,-53.02223,-54.04283,-57.29366,-56.3809,-58.19094,-58.27795,-59.06482,-59.98133,-56.69248,-57.89092,-59.45285,-56.25272,-57.32038,-55.89612,-56.75632,-56.18141,-54.77752,-53.94543,-57.55838,-52.38491,-50.81061,-50.30977,-49.3879,-46.52743,-45.80805,-43.62952,-41.57461,-42.3215,-37.2961,-39.332,-36.67206,-35.40097,-32.16365,-33.93946,-27.2607,-27.86747,-22.88065,-19.93409,-19.88912,-17.57191,-15.06348,-13.6567,-11.68883,-13.32017,-6.608075,-10.15648,-6.067299,-6.177347,-5.244905,-3.815019,-5.994672,-0.05495206,-3.594024,3.068911,1.278671,4.854322,6.539097,8.278758,10.11407,12.78667,11.93821,14.27299,14.1381,13.69801,14.69515,16.35519,14.08769,16.06366,14.52508,13.11655,14.81234,15.75244,10.78937,17.11272,13.22401,13.76413,14.75634,15.66403,13.5278,15.56582,14.69389,14.81215,15.61444,17.21121,16.19198,19.22131,20.24491,20.9766,23.23117,22.53103,26.3988,27.8743,29.04393,34.33293,33.85651,38.63989,37.58589,41.406,39.254,41.549,40.75625,40.21932,38.86752,41.93912,38.20121,39.7937,37.31724,39.84369,36.27295,39.48507,37.12272,36.22826,33.29828,38.11816,31.44125,36.35606,32.26914,33.0309,36.04008,29.15954,33.55622,32.0882,30.74463,31.17112,29.43699,30.80729,27.29496,27.90661,27.28673,27.44202,26.37839,24.18315,23.67749,25.49581,22.28969,23.0674,21.20238,20.18308,20.52484,18.14901,17.80311,19.62108,19.1326,18.25909,20.29826,18.23938,19.55005,17.85505,15.08738,15.68269,14.131,12.92852,12.65781,9.446129,11.60073,6.05403,9.220076,4.317399,8.241404,4.731482,6.203387,7.869751,5.554577,10.82518,6.096471,10.63768,6.928912,10.85503,7.026919,6.837614,6.550391,5.925801,4.669736,3.625063,1.959323,2.830431,0.05126669,1.054225,-0.6975161,-3.149062,-0.835081,-3.978286,-4.023352,-3.498997,-6.064429,-5.92441,-6.447064,-6.688839,-8.383704,-7.987323,-9.578496,-10.36651,-8.851318,-12.5085,-10.26025,-11.32562,-11.73153,-10.0982,-10.84598,-10.75488,-8.780008,-9.523678,-8.294397,-6.136315,-5.377877,-5.163126,-8.108114,-6.994103,-9.24552,-6.994699,-10.76186,-10.0981,-10.35122,-12.18749,-13.83451,-8.963149,-15.36099,-10.59587,-13.84484,-14.7425,-13.25293,-16.08994,-17.07466,-16.72819,-17.24846,-20.56362,-20.44888,-20.33855,-22.99014,-24.61057,-22.64052,-25.81507,-26.72931,-27.60178,-28.14105,-30.11383,-32.55079,-30.5094,-31.8379,-31.78292,-33.01492,-31.49354,-33.03274,-32.00677,-32.07111,-32.76726,-31.33981,-33.15642,-31.00091,-29.59898,-30.15505,-26.53263,-28.72725,-27.15596,-22.90613,-25.33327,-22.03511,-20.48466,-19.57467,-16.92198,-15.37242,-13.5224,-10.9331,-11.3832,-8.664867,-7.658501,-3.908582,-3.369368,2.049748,-0.9385558,4.456314,4.878333,7.245757,9.341292,10.01656,12.98581,11.48531,17.43355,13.94887,18.44865,21.25655,19.12788,24.02427,23.7491,25.70414,27.72075,28.4289,30.15337,32.06285,30.82187,35.50843,30.71071,37.43621,32.95529,36.20926,35.45706,36.83961,37.80415,36.17087,37.17029,36.59355,37.20353,33.97833,31.39979,35.05142,30.57894,30.06502,33.96625,27.62426,30.8823,30.59932,30.57022,31.39935,31.18215,32.40873,31.93536,32.71711,31.86161,34.63487,32.50675,34.24942,35.13836,35.1081,36.59734,37.56948,39.41742,37.51218,40.42224,38.82322,39.11282,40.6037,36.42609,38.15899,34.95704,37.23143,31.923,35.73679,30.82545,29.85057,30.34327,24.36483,27.14494,22.19033,21.91906,19.38956,14.96272,16.03201,10.94717,9.417005,6.698006,4.683071,0.8914862,-0.6954341,-3.057073,-5.888008,-8.828483,-10.09483,-13.77098,-14.26228,-17.14834,-21.91757,-22.97064,-27.3151,-26.39215,-29.04085,-34.90556,-31.73972,-35.96557,-37.42284,-40.07518,-41.45663,-42.69254,-46.71598,-44.38436,-50.79333,-48.55197,-49.4072,-50.4004,-50.77274,-52.57133,-50.96348,-51.53515,-51.18821,-52.13517,-52.31553,-54.65301,-53.29378,-55.42605,-55.32487,-57.13354,-53.82997,-57.09867,-56.44319,-57.7493,-56.69735,-54.15399,-55.18287,-52.31827,-50.66359,-50.27564,-45.84386,-48.33956,-42.17447,-45.70816,-41.89822,-42.11244,-40.50588,-41.68321,-39.05195,-36.99066,-39.04296,-36.79977,-37.83826,-31.84335,-32.03777,-30.29739,-28.41501,-20.92239,-24.73157,-15.83665,-17.23683,-13.61839,-9.409369,-7.65349,-2.810521,-2.435732,2.315092,4.505251,7.886858,10.77374,13.42853,16.29974,18.66478,22.5399,24.24219,27.39398,30.93795,31.68976,34.31287,36.462,38.3035,38.16054,41.04443,39.18806,45.31153,42.0707,45.00252,45.25918,44.12358,46.77472,43.19886,48.81814,43.66917,44.44217,42.91524,41.72444,42.71655,36.89535,41.61511,36.47309,37.30694,33.80844,35.21102,32.97411,30.83044,32.31037,25.73444,28.40067,21.44433,24.15993,18.63459,19.00379,17.02208,16.52956,13.08014,12.85899,12.31283,8.23252,7.581619,7.41534,3.826901,5.289415,3.486151,3.012014,1.051257,5.490815,3.5835,3.113159,5.660491,5.07154,4.07305,4.097247,7.150176,3.348799,4.281198,2.005415,4.654581,1.501689,4.581739,3.720877,3.141296,3.642846,3.017982,4.156006,5.724138,4.433264,5.483221,7.535569,6.004713,6.647589,7.224598,3.805192,4.008539,3.685586,2.148261,3.161257,1.413313,1.977541,1.629468,0.5629207,-0.5231207,-0.2376592,0.7681238,-3.296825,-2.482089,-2.429121,-4.759203,-2.146,-8.497002,-4.807663,-7.431568,-5.829133,-6.463388,-9.383913,-6.886688,-11.1337,-7.777245,-10.22629,-9.947498,-10.48555,-11.9195,-9.394363,-12.31398,-9.357365,-11.4547,-8.615529,-10.06824,-10.23543,-9.904487,-9.690561,-11.52583,-8.811217,-11.35226,-8.389872,-8.976664,-7.814763,-8.875577,-7.934719,-8.242685,-5.826539,-9.372304,-5.878711,-8.403002,-7.347157,-5.573892,-9.116562,-4.279611,-9.313304,-3.780622,-8.050979,-3.827409,-8.460691,-3.290411,-5.057058,-3.741703,-2.846217,-6.194943,-1.688531,-5.598269,-0.5123236,-6.54201,-3.453593,-4.469053,-5.118077,-5.1209,-5.49511,-8.596754,-7.912918,-9.083984,-10.1156,-13.31658,-9.488843,-14.13968,-13.24391,-14.57178,-14.85608,-16.16546,-15.63869,-15.48393,-19.63929,-16.22607,-17.54146,-17.25158,-19.88552,-16.87413,-18.46361,-15.35058,-17.37885,-16.18606,-15.96323,-18.28205,-13.4253,-19.70398,-15.02953,-16.46949,-14.17776,-14.25404,-10.68391,-15.03862,-7.907393,-9.845487,-9.406801,-7.472984,-4.277692,-6.345781,-2.104044,-3.836649,1.36652,-0.49882,3.738647,1.277273,6.476475,5.592549,6.66887,11.52857,8.438089,11.37803,11.27889,15.34708,14.05934,17.3712,16.69279,18.12273,17.76936,20.66025,19.09965,22.0887,22.11712,21.13495,22.93516,24.10412,23.72893,21.95779,26.73498,21.78014,26.61058,22.68881,24.86529,21.99685,26.48685,20.56317,27.15992,23.66982,25.2637,24.7296,24.64032,22.95712,25.53521,22.62153,21.49805,21.75408,22.90319,21.99379,21.78202,22.14206,20.21107,22.79306,16.94369,22.06211,19.90918,17.335,19.52752,18.67129,18.79729,18.98787,15.48703,15.08002,15.5527,13.74619,13.74558,12.40365,13.2708,12.67377,9.438738,10.64812,5.420157,4.959604,2.133099,-1.806332,-2.867127,-4.703791,-7.031843,-11.57656,-10.74461,-18.02433,-13.97251,-21.31364,-18.10134,-24.79781,-22.94069,-24.04149,-26.13794,-25.95968,-26.72987,-25.42619,-27.3308,-27.16227,-26.96426,-26.35805,-26.73295,-24.94012,-22.63677,-25.22691,-18.66483,-18.97049,-17.14161,-14.94074,-13.62635,-13.03622,-6.914754,-8.820196,-5.840596,-5.860412,-0.8726356,-2.389374,1.740793,2.491207,6.276173,6.429526,7.737551,12.0981,12.21919,12.98993,16.50812,16.00442,15.92481,20.06298,19.76931,24.01909,16.56722,26.47531,23.11823,23.75498,24.85155,25.1624,24.31345,24.68595,25.16854,22.5414,20.78785,22.12161,17.82786,18.34545,15.75759,13.08838,13.70657,9.884247,7.331777,5.596342,6.660696,0.8431959,2.88062,-1.64379,-4.608925,-3.026442,-10.03616,-8.844583,-11.42857,-13.83064,-15.20428,-15.68288,-17.03753,-19.24518,-19.91207,-20.6965,-23.67381,-24.27522,-25.23892,-22.62644,-26.20538,-26.59773,-22.21581,-29.05543,-19.85344,-24.92431,-23.18342,-20.02663,-18.28993,-18.52655,-14.23717,-13.83108,-14.1611,-11.16013,-10.88098,-12.77745,-10.29879,-9.206786,-12.23433,-9.147297,-8.757911,-9.749875,-10.99332,-10.01627,-9.735166,-12.28392,-9.081318,-12.41438,-8.667458,-13.00281,-11.56767,-10.59621,-11.50676,-12.97135,-11.18583,-10.77721,-14.0371,-12.90939,-9.000025,-13.86611,-10.9216,-10.70382,-10.37376,-12.39301,-8.743756,-10.19917,-9.641044,-5.375788,-10.81853,-6.830768,-8.592707,-8.128421,-8.05296,-9.572073,-5.808195,-10.38539,-5.974785,-8.197761,-6.845393,-6.42184,-7.895532,-4.601397,-9.307133,-4.038599,-5.437186,-4.277385,-5.073879,-1.992604,-3.038822,-2.862396,0.07005634,1.33492,0.9319633,0.6695491,2.42761,4.6468,3.874412,4.841414,5.042735,4.224065,5.576975,7.246824,5.759009,4.69778,6.128425,5.851116,5.678974,4.176964,6.71061,3.993738,4.646687,3.590852,1.25657,2.959094,0.3519956,2.963587,-2.541344,0.9717033,-1.282806,-2.114378,-2.478345,-3.524903,-2.219622,-3.359706,-4.138738,-4.518958,-6.301052,-4.064103,-5.583376,-5.16796,-6.262424,-4.622254,-5.104699,-6.053623,-2.579182,-6.499374,-2.700723,-4.591715,-5.089058,-4.697895,-2.893862,-2.392933,-4.984307,1.272492,-3.397139,1.572643,2.612678,3.283063,4.240347,6.471133,5.282538,7.090396,7.373596,9.717028,9.208755,8.484532,12.32771,11.0773,12.77281,11.07381,12.5305,17.66872,12.17454,17.59403,15.1577,15.90041,15.79484,18.46349,18.13472,14.45011,19.65681,16.64163,16.82692,16.27687,17.94528,16.96791,17.35864,17.1554,14.17595,17.41637,17.08424,15.46115,17.61771,14.19088,17.14444,16.18093,17.11372,16.10002,15.79732,17.62849,15.74764,17.7582,16.94217,18.10352,18.45564,15.67274,19.40966,16.98301,18.19027,16.5389,19.12148,15.80951,19.42371,16.67423,18.99524,18.86381,16.14419,17.48143,18.05913,17.22342,16.80737,16.57247,14.70713,14.02596,13.69247,10.47486,11.04956,8.930496,8.220081,4.372771,4.419189,4.429314,1.093153,2.628576,-1.25676,-0.2547629,-3.837357,-4.443585,-6.432171,-7.580836,-8.204258,-11.66672,-9.539893,-12.63877,-14.60734,-13.85621,-17.03964,-16.4826,-18.54817,-17.13344,-18.39184,-19.77616,-19.80741,-18.96739,-24.48814,-23.99731,-21.41455,-27.21548,-26.4938,-25.85173,-28.78011,-28.84279,-31.00237,-28.89474,-31.70924,-29.93741,-35.57768,-29.11039,-34.6088,-31.07427,-33.15946,-31.27863,-29.90484,-29.57594,-26.69327,-25.46882,-21.74405,-20.70862,-17.77921,-19.42261,-15.11704,-12.58283,-16.25961,-9.979446,-13.64474,-10.25258,-8.145169,-8.228037,-9.17783,-6.142262,-4.531799,-6.656869,-3.387905,-0.7993456,0.2902635,1.291675,4.114191,5.935667,7.494814,11.46641,10.65619,12.73648,15.11886,15.89759,18.30422,21.21422,19.66965,23.61329,20.90391,27.99943,22.36376,30.72306,25.60681,30.05083,29.53066,30.24121,32.92526,31.12152,32.93676,30.90329,33.80307,31.28309,31.96103,31.32014,32.28835,31.00836,31.95928,31.79661,31.36197,26.07695,27.828,26.7354,24.96033,24.87335,23.1154,20.44038,21.99632,18.13349,16.67121,15.37439,14.08505,12.31723,9.330576,8.708786,4.749823,3.412697,2.951867,-4.344854,-0.2230907,-6.922741,-4.655408,-7.180491,-7.691726,-9.735984,-11.14248,-11.21456,-14.12462,-11.66604,-13.02299,-13.49962,-13.88129,-14.11861,-14.49236,-14.74561,-17.36199,-14.78674,-14.63828,-19.62652,-18.29073,-17.24016,-21.60961,-19.56595,-21.7446,-22.21843,-21.42285,-24.53647,-21.68041,-20.05504,-23.56238,-19.27737,-19.04512,-18.9642,-15.83651,-16.67188,-13.61424,-14.2943,-13.78798,-12.83165,-15.3484,-14.51419,-12.59473,-13.37317,-16.24283,-10.52372,-14.47275,-15.03802,-10.7617,-15.70971,-11.32036,-13.66237,-14.03672,-13.3041,-11.14291,-11.56011,-11.58954,-13.20619,-8.400749,-12.11399,-9.005878,-10.67009,-8.614045,-10.50738,-8.053993,-9.809719,-10.44484,-9.57576,-11.48716,-10.52167,-12.18756,-11.64864,-14.40838,-10.70831,-16.65054,-12.62754,-20.15507,-15.1162,-23.90832,-17.17084,-25.7968,-23.04129,-24.93128,-26.63294,-25.58138,-29.37635,-28.04099,-30.05742,-29.44958,-32.65694,-31.75597,-34.56672,-28.76503,-32.96619,-30.16938,-33.92042,-30.59541,-33.32773,-28.88202,-33.44824,-28.91431,-29.74702,-28.5324,-29.29079,-27.44357,-24.03154,-27.47587,-22.98969,-23.36009,-24.05815,-18.00166,-21.22271,-14.5926,-15.99097,-15.39255,-9.923793,-11.67348,-7.097107,-6.660155,-1.366215,-4.055214,2.602873,1.821463,6.092641,6.032636,9.649176,12.02189,13.35901,14.84188,19.49813,17.95861,24.49057,21.37107,26.56276,26.99057,28.08592,30.58637,30.74124,34.2593,33.1649,34.44931,39.31356,37.11658,39.54599,37.50763,41.57216,39.86224,41.51752,41.09605,41.37729,42.18823,41.90969,43.72487,40.03311,43.00681,39.49171,40.23154,37.09238,40.33703,35.30982,38.30282,33.1189,39.18159,36.43433,38.73988,37.40056,40.49817,38.44338,44.48454,38.59584,46.4654,42.40257,47.12111,44.16824,49.1211,45.69617,49.65903,48.1286,50.04273,49.60533,50.22152,49.30644,49.42421,51.80386,46.01772,49.8231,45.94094,50.37385,45.29848,48.9917,43.96916,46.45913,43.53286,41.66806,41.47479,38.7721,39.50316,33.76593,35.87074,30.14056,29.76465,25.40891,25.43155,21.24543,19.09601,17.59454,14.56531,12.87508,9.23608,6.052686,4.773557,0.8549207,-2.344095,-1.694275,-5.931106,-8.32047,-14.40349,-14.80906,-21.02337,-23.0651,-27.38407,-30.08046,-34.07569,-36.99856,-39.33931,-43.3023,-46.51132,-46.74865,-51.73464,-52.44226,-56.63636,-54.51123,-60.10485,-57.22847,-62.62342,-58.17498,-60.724,-60.23606,-59.92332,-56.57627,-57.50582,-54.82813,-55.28971,-52.01185,-54.70827,-49.89842,-48.14491,-50.29415,-44.38867,-45.46237,-39.16833,-38.69714,-37.62881,-33.2766,-32.65146,-25.58913,-26.74056,-21.78013,-20.86509,-17.03235,-14.03434,-11.48886,-10.19512,-10.80504,-5.050003,-11.59004,-2.350855,-7.983279,-3.901641,-4.003614,-2.99288,0.003185413,0.7757178,2.827586,2.062111,4.899389,5.662982,4.544408,8.796302,7.277064,9.416799,7.10308,11.10273,8.586439,10.62398,10.08698,11.22061,9.470525,13.0336,9.054445,11.27794,11.20053,10.86496,10.56856,8.53843,12.13982,8.300534,9.320993,9.024121,8.49177,9.022058,7.664149,6.543511,6.759386,6.349815,4.845975,3.936962,1.740019,3.155095,-0.1791107,0.3226221,0.6540994,-0.5685077,2.547933,-1.36424,4.333729,0.07866202,4.117279,2.836251,4.255031,5.631328,6.282347,6.837752,7.399274,4.717466,6.077355,5.990108,4.153962,4.563108,1.645468,2.984277,3.697413,-0.06821647,3.158042,-0.8152585,-1.427686,0.5146301,-0.3954936,-1.017834,0.2465103,-1.420823,1.125355,-0.8326265,-0.06486217,0.01407011,3.086072,-1.649015,4.216237,2.205042,2.881488,4.402188,-1.383178,5.902669,-1.420824,2.349072,1.710734,1.969138,-0.1844835,4.109644,1.279181,3.790901,4.12242,3.294311,5.600981,5.588216,7.11905,7.896777,8.79186,10.90479,10.49398,12.98523,10.38171,10.98984,14.51227,11.34293,11.608,13.68666,13.5562,15.17278,16.26817,15.8266,19.60514,19.20489,18.54021,20.70783,21.75992,22.31278,22.83892,25.94783,23.31253,24.54818,27.16472,27.20214,27.97783,29.55095,30.59266,29.28501,32.2505,30.97972,30.18216,35.36396,31.69326,32.1725,31.87378,34.27675,30.81807,34.7062,30.19038,34.3572,31.29791,30.61024,31.33793,28.54065,28.76269,27.50637,25.71026,25.36273,20.77788,22.39225,19.25372,18.97598,17.48359,15.29556,14.77967,10.9673,9.101173,9.31096,3.523477,4.537653,0.4632793,2.741771,-5.458055,-2.885563,-8.326004,-9.2245,-12.16593,-13.16469,-16.00881,-19.51963,-21.08759,-21.79932,-23.55312,-27.41748,-25.89986,-31.39777,-28.28082,-33.11335,-29.62662,-34.07444,-32.93278,-34.67021,-34.25984,-37.59689,-35.82176,-37.89553,-38.01847,-37.02019,-36.43839,-39.7484,-36.24932,-38.04766,-37.01234,-36.13266,-37.9242,-35.33697,-36.48279,-32.73348,-34.31332,-31.92065,-33.71675,-30.75747,-31.60075,-32.60098,-32.75574,-30.02229,-32.17789,-30.04703,-31.33781,-31.07909,-31.04814,-31.5852,-31.47132,-32.88431,-29.8486,-34.57334,-32.54595,-32.95026,-31.72252,-32.79116,-35.33824,-32.61342,-36.36953,-32.2911,-37.74178,-28.70233,-37.67329,-31.20688,-34.64532,-30.26267,-34.23738,-28.59549,-32.46279,-27.62211,-31.37303,-27.09941,-28.67316,-27.45876,-25.78932,-27.10965,-23.49363,-24.01292,-20.9899,-20.73362,-18.52358,-17.17214,-18.66968,-11.39934,-17.60041,-10.02741,-11.57251,-9.386157,-9.793397,-5.102344,-5.497155,-4.298239,-1.13589,-3.998211,0.73326,0.508459,1.606488,2.884134,1.593686,3.275706,2.921954,5.382001,3.371257,5.918205,4.499083,8.060499,4.004551,9.551514,4.655923,9.840789,6.567901,10.29424,9.956403,11.29922,11.56632,9.637125,12.30064,10.07623,8.898035,5.653502,8.718537,1.632426,5.746726,0.7605175,2.689256,-2.899835,-3.004306,-5.764434,-7.194825,-7.594402,-9.442879,-9.323628,-11.47739,-9.554341,-12.23365,-10.3986,-8.171458,-10.93647,-7.050255,-11.17121,-3.387544,-8.56597,-1.870185,-2.154939,-0.7052994,-1.216066,2.382094,3.660366,4.491059,5.956107,8.014934,11.39967,10.17147,15.40997,14.59944,17.83224,17.12912,20.14422,21.95837,20.25131,25.17496,23.27245,25.46247,26.70956,26.275,28.72122,25.00316,33.1434,25.222,37.90924,26.55701,37.52789,28.77798,34.26913,31.89792,33.81738,32.70545,32.42198,31.44951,31.20202,30.8695,30.64996,27.81858,30.92774,25.29169,29.27693,26.84284,27.31019,26.44295,25.15195,23.29635,23.38447,21.98068,23.2853,15.43221,22.53845,15.52897,15.67066,15.54896,13.87287,13.35934,10.66122,11.87731,6.243189,10.67063,5.13198,6.920628,5.680868,3.191808,5.585498,1.871611,3.164145,1.437433,0.9051145,4.934593,0.8830796,3.848817,6.823068,6.197776,5.970618,10.6905,7.193933,13.1673,9.464275,10.77391,11.81932,10.63593,13.30707,9.034507,12.12481,12.93256,9.778245,13.68822,9.88225,11.69512,10.31437,11.64861,10.64043,15.38733,10.69853,14.53778,15.00149,13.47692,17.72001,15.81233,16.97699,18.1759,16.87485,19.2432,17.9986,22.56447,18.72464,24.44779,20.72136,23.40405,23.52621,26.28936,21.82158,27.46825,24.08713,26.42357,23.86563,26.93159,27.0544,27.37009,28.12139,28.92807,29.05565,28.98669,29.42884,31.82093,31.79814,31.63424,34.48212,33.79779,35.3124,36.5325,38.6812,37.1778,40.00924,36.24233,42.22282,36.41916,40.74018,38.16981,38.89371,38.64949,37.06011,37.71952,35.56826,37.69476,34.6167,32.97882,36.23026,29.43276,34.1821,28.28499,30.36568,26.54797,26.49005,22.91003,23.7543,19.34675,18.01284,14.55059,15.14662,9.171649,9.33825,6.042173,2.47022,2.92931,-2.964334,-3.775754,-4.671283,-9.360368,-10.35249,-13.08764,-16.60207,-18.73557,-20.71019,-25.60439,-26.58614,-29.53516,-31.47862,-32.48655,-35.96123,-37.70417,-39.1231,-42.85538,-43.81459,-44.79267,-49.30466,-44.5478,-52.50192,-49.859,-50.30527,-54.22825,-51.71177,-58.56947,-52.44898,-57.94625,-56.86978,-57.67052,-59.58324,-58.70088,-57.18242,-57.13184,-54.35559,-53.95122,-55.56616,-52.49647,-54.55897,-54.68585,-54.07726,-54.50182,-55.54048,-53.47324,-57.86208,-54.42356,-58.81488,-55.58788,-61.07809,-59.94736,-61.71019,-61.15353,-63.47306,-64.34665,-67.7867,-64.634,-71.58441,-68.62469,-71.56594,-69.29054,-72.0344,-71.32005,-71.45771,-72.79291,-73.1203,-69.75171,-70.27502,-69.76344,-69.24575,-67.07829,-65.38464,-66.408,-62.20717,-61.33475,-59.655,-55.90952,-57.3826,-49.23112,-52.63492,-51.00001,-45.23207,-48.1602,-44.18852,-41.88209,-41.05126,-40.64928,-37.93337,-35.55927,-35.66038,-34.03024,-29.92219,-34.36986,-27.08624,-31.41111,-24.75262,-29.29435,-24.68925,-24.44959,-22.96403,-21.47017,-18.84235,-18.22876,-16.81316,-13.0318,-10.90989,-8.893259,-6.633079,-3.569406,-0.3779794,0.8343478,4.946113,4.533009,8.929666,12.30191,13.68843,18.8726,15.60805,24.1952,21.51241,29.31552,26.74274,32.25498,30.50174,35.67283,34.49301,37.29467,39.88325,38.77925,41.44139,42.50684,41.60815,43.42953,44.12809,45.55058,46.78192,44.99163,49.12417,46.52175,49.61295,50.22508,50.06327,52.7484,55.44172,52.35842,56.36378,51.576,54.82021,52.26393,53.16897,50.79071,52.75395,47.08474,50.14165,47.08197,44.0757,46.40569,41.38511,43.82898,35.17952,39.75106,32.44411,33.55106,28.68661,26.69205,25.70936,20.81887,19.64315,20.45336,12.75807,17.12196,11.12627,10.63006,10.7298,7.968818,8.86813,6.840006,5.67345,6.442835,6.495085,6.779981,6.4177,9.459238,7.724357,11.99533,12.08036,14.74483,14.2891,16.29153,15.92745,18.11726,23.7504,16.41513,24.86377,23.01072,24.04121,24.47805,26.34068,28.58211,27.71728,27.79041,26.45869,28.49633,28.5648,26.48861,28.50506,24.16264,28.40449,25.88454,26.41318,27.26959,25.55484,25.01177,26.73539,26.21712,25.33989,24.68847,24.11827,25.00321,25.23188,23.03704,26.86035,22.83337,25.27423,26.51816,24.97263,26.14771,22.78244,28.80171,21.5028,29.2077,21.83072,28.89184,20.20609,31.93366,18.30654,29.16438,21.62541,25.5996,20.99301,23.15529,22.1201,23.41749,21.58559,23.79278,22.37608,21.46387,23.77493,22.0315,22.13335,21.72428,21.07981,18.58087,21.55829,18.85047,19.44297,19.36765,20.09923,20.27727,16.70188,23.43979,17.31184,20.20731,22.79251,16.94486,22.81815,19.89529,19.99837,19.01127,18.50331,19.52201,16.83674,19.73755,16.74136,17.27238,18.235,16.32489,17.78196,16.54144,14.15628,17.30741,13.26693,14.48472,14.8756,10.58782,14.58766,7.794149,12.94245,7.670106,7.487179,8.287561,3.537199,6.015181,3.038727,3.693247,-0.9867018,-1.107522,-1.030289,-5.411827,-3.889674,-7.661976,-7.154629,-11.46675,-7.642039,-14.80835,-11.45631,-14.89042,-15.90515,-14.17422,-20.97683,-17.61771,-20.30739,-21.30977,-21.93029,-24.79014,-24.03128,-27.39734,-24.22985,-29.55396,-27.00408,-31.9859,-29.74325,-33.13863,-31.18859,-36.17102,-34.38595,-34.5523,-39.21474,-34.70079,-39.59773,-38.92232,-38.73535,-41.07679,-39.61453,-40.0654,-41.79964,-41.06476,-42.06289,-42.75692,-42.14867,-42.70527,-43.53716,-41.54502,-44.93059,-38.34742,-48.87969,-36.26616,-48.19863,-36.96215,-46.59464,-37.25626,-41.04947,-38.98078,-39.56088,-38.34853,-40.13101,-39.64973,-41.77184,-40.12803,-44.72999,-41.29885,-48.1186,-43.27903,-45.46776,-45.24436,-46.78635,-45.09236,-49.96223,-45.45095,-50.60378,-43.97419,-52.62935,-46.01279,-50.30129,-49.36089,-47.84962,-50.1402,-46.85402,-47.76134,-46.24711,-48.76197,-44.00581,-45.65077,-44.42336,-42.90875,-44.41653,-40.05529,-42.74418,-38.52082,-38.48683,-37.45126,-35.43162,-34.33134,-31.67057,-31.9511,-27.67113,-28.45036,-24.69991,-24.4338,-24.09839,-20.25184,-24.45236,-16.80406,-22.34765,-20.98697,-20.46369,-19.08239,-17.98614,-18.69441,-18.94374,-16.4728,-15.73651,-15.11335,-13.6774,-12.07728,-10.07671,-9.47334,-6.21671,-3.205344,-2.852531,3.006031,-0.006134708,5.247863,6.984102,6.397032,11.60154,6.704468,14.5038,12.29149,15.9319,14.19189,20.62677,16.80812,24.5144,19.8793,25.42442,24.86067,24.13788,29.88134,27.55667,31.82441,31.05823,33.04158,33.18319,36.34345,34.84624,39.16581,37.34134,38.95034,41.52835,41.71695,42.92284,44.71419,44.21376,46.76551,48.12712,48.73549,50.99427,53.60434,50.33747,55.93329,51.73169,55.03795,54.62091,54.02745,53.66138,52.73637,53.37839,53.46935,50.85304,53.62961,47.2089,53.52371,47.13608,47.61441,46.36179,42.10984,42.32845,41.17431,37.69495,39.15773,34.35702,34.21598,33.65064,28.99864,28.46965,28.7589,25.23243,23.1481,20.54485,20.99051,18.23135,17.15932,13.4011,16.60407,10.2258,16.69533,7.658903,14.32442,8.028673,11.00075,7.828103,10.45817,7.360066,8.276658,8.377234,7.703288,4.755325,7.724539,0.2555163,8.311184,-3.312053,6.424164,-3.872873,-0.7673507,-1.767159,-4.091873,-3.832228,-5.403337,-7.15093,-5.629773,-6.331903,-7.592081,-6.597559,-7.578906,-5.717529,-7.874987,-5.193063,-6.310908,-7.967172,-5.658259,-10.15379,-7.392008,-9.679783,-11.47858,-10.54854,-12.93098,-7.804417,-12.16363,-11.13251,-11.38491,-10.82536,-12.49909,-12.24751,-13.12502,-12.81944,-12.80915,-12.86546,-12.83564,-13.10641,-13.15744,-15.09857,-13.09593,-12.79392,-14.89922,-13.84308,-12.26392,-14.00302,-12.08701,-15.43755,-9.827965,-15.8875,-10.1906,-14.11001,-8.791785,-9.118476,-9.758223,-7.726772,-11.02009,-8.278225,-10.66644,-9.178533,-9.011568,-9.604247,-12.58933,-8.607205,-14.87087,-8.00193,-16.89722,-9.658106,-17.05781,-13.98447,-13.31632,-16.9092,-15.7467,-17.46858,-17.25718,-17.59857,-17.8374,-18.00337,-18.69016,-19.03155,-19.94282,-18.63188,-19.92527,-20.64911,-15.73633,-23.03217,-15.50195,-22.9897,-13.44188,-21.51518,-14.27889,-19.97793,-13.64906,-16.70127,-15.81593,-13.58315,-12.28161,-14.17756,-8.738825,-14.83342,-6.789201,-12.01346,-6.257563,-7.430683,-6.100639,-4.290337,-4.052356,-3.428542,-0.6489864,-3.360547,5.253416,-2.459015,4.623185,3.702551,2.866794,7.559462,5.987182,7.756043,8.717283,11.87486,10.95556,13.00861,14.53234,15.46866,15.12012,18.66602,18.20598,17.74373,20.49404,17.6739,22.89744,18.596,24.17134,21.89449,25.59383,22.9763,22.82072,22.90158,19.90317,22.25071,16.86607,21.92815,20.12925,19.11996,21.53467,17.90845,21.17278,18.47687,21.44762,19.18256,24.27362,20.94103,24.36587,23.58736,27.50774,22.073,28.69654,24.15997,31.84416,26.84577,31.61954,29.48058,32.19587,30.97888,28.45103,29.74593,29.79322,26.43291,30.53692,25.41081,27.25364,23.29833,22.23674,24.87836,15.75028,25.24297,12.50222,21.95375,9.567874,16.08367,10.41684,9.102893,7.208187,5.413419,4.98588,0.3004266,2.599267,-3.464671,-0.6120196,-6.874695,-7.567099,-8.512152,-12.66619,-16.80459,-15.18002,-24.22604,-22.78039,-29.63523,-28.41938,-37.96176,-37.8729,-43.84344,-42.50906,-49.16471,-50.2212,-49.51575,-57.46753,-55.06425,-56.89942,-61.4504,-56.6216,-61.20212,-57.50989,-58.99751,-57.09729,-57.8653,-58.10096,-55.23267,-56.76861,-53.8222,-52.5453,-52.6815,-49.62541,-50.14028,-45.36371,-42.96428,-42.92839,-38.77538,-35.51085,-33.03804,-30.22898,-28.28679,-24.09847,-21.56804,-17.64056,-14.86928,-12.69335,-9.96761,-5.909489,-3.355187,0.3841974,0.3476897,6.059953,4.635485,9.999454,7.714577,9.492571,12.19066,10.66374,15.29453,13.54854,18.02717,15.87092,19.38144,19.49975,20.70441,22.79862,21.26019,27.14261,22.00787,27.89375,23.10464,26.8128,23.0071,27.38425,21.80104,28.3422,23.14082,26.50396,23.60339,23.3956,21.16617,21.62207,20.7153,18.69319,21.04388,14.68248,18.85478,15.92621,13.43321,14.61645,11.80348,14.3114,11.20261,11.71066,11.95538,10.14067,10.82926,9.926914,11.42723,10.82853,13.26596,12.22584,14.61791,15.83838,15.45058,19.34559,17.34057,19.9819,18.05949,21.80093,18.84974,22.40385,18.46385,22.3231,16.8045,19.4701,14.40645,24.57948,11.2921,21.75304,16.51548,16.17754,21.15233,15.20389,18.99392,18.38542,20.15104,21.4101,18.14984,24.70207,20.68961,20.98723,23.84622,21.48603,18.8254,20.9572,19.13151,18.31319,20.00263,18.67686,18.54843,16.8908,14.97318,20.56991,14.33463,15.52229,16.07409,13.47214,17.42371,11.52566,17.28649,13.27787,17.35647,12.91287,18.87533,12.97394,19.10501,14.45579,16.8393,17.43909,16.45562,18.99155,17.60676,15.54751,16.89274,15.20126,17.73179,13.32056,18.00554,15.09526,16.7364,17.86015,18.02683,16.15521,21.10402,17.93488,23.52286,20.57316,21.74743,24.77987,21.51337,25.06303,25.08927,25.79111,26.20789,25.82503,27.86055,26.07416,28.24497,27.77316,25.35563,29.5837,25.89863,28.42369,23.43475,25.04143,25.45256,23.59308,20.52407,23.67816,18.9785,20.27022,14.46798,20.29655,9.971463,17.12745,3.607324,15.16662,1.742653,9.306527,1.405936,1.730642,-2.25786,-1.812136,-7.155968,-5.44348,-11.0417,-10.15186,-13.8925,-13.30152,-19.22772,-17.7163,-21.41043,-25.0386,-24.65028,-27.05702,-26.3719,-25.03757,-36.0593,-25.52632,-35.19484,-34.88156,-28.84362,-43.86324,-30.53159,-40.63781,-39.28101,-40.52732,-42.00626,-40.96931,-44.71642,-42.93699,-41.33096,-47.81804,-41.66296,-46.58823,-42.7533,-47.12726,-44.00393,-49.62573,-48.58234,-51.11671,-51.13268,-49.31414,-55.04438,-52.73926,-56.51186,-53.61505,-54.54148,-56.92261,-53.81931,-58.20901,-55.26091,-58.62516,-53.89284,-60.76632,-56.9127,-58.71671,-59.93372,-56.99252,-61.0914,-59.20828,-61.68971,-61.66293,-59.74157,-61.42898,-58.89235,-62.33222,-56.67386,-59.3317,-55.35298,-57.32236,-51.92805,-53.38311,-47.09144,-48.70481,-45.39173,-46.13133,-41.3021,-40.38138,-37.90952,-35.75496,-32.41016,-33.55553,-25.84228,-27.98924,-20.81073,-23.88313,-15.74527,-17.43605,-15.22439,-9.949385,-12.45372,-4.771102,-7.56261,-0.2473497,-3.158231,2.450598,1.407201,9.17936,4.13357,11.59316,9.140199,12.26439,11.61359,17.30602,12.33777,22.2085,14.49982,21.29769,18.98873,22.00044,20.68452,21.79761,21.39829,19.63213,18.64381,19.6273,13.26419,15.17679,8.034146,12.28897,6.120721,3.885465,7.425556,1.000044,2.695966,-1.396034,0.6260343,-3.594291,-2.624439,-6.575606,-0.8923899,-8.972726,-1.850789,-6.886356,-3.078973,-6.358973,-2.217453,-2.517945,-1.949049,0.3600858,-0.1288961,1.37632,7.138223,1.018802,12.00319,3.163096,12.34868,7.221233,14.02406,11.19981,15.48246,15.51283,17.16794,18.40876,18.88999,25.87601,19.78387,29.04654,24.28593,31.00138,27.46969,33.15963,31.50738,32.95414,34.96865,36.28938,34.8632,39.66079,35.94417,41.93907,37.73798,41.45324,39.68556,41.51725,41.89812,40.1591,43.68179,40.69602,43.69702,41.25934,41.95869,38.74007,40.78813,37.84238,38.71444,36.52222,37.62109,34.35383,34.25368,33.23997,30.3771,30.13046,31.67922,22.79746,29.64388,21.14224,25.32633,22.04565,19.1478,20.83278,17.22275,17.47909,14.44208,15.46684,12.44269,15.67467,13.4217,13.71614,11.49689,14.20884,12.31592,13.21163,17.33934,13.24882,17.68756,16.95995,17.58671,17.31317,20.37466,17.39132,18.85679,17.48379,17.87456,17.73222,15.27626,18.61119,10.96648,16.83598,13.75952,15.84059,10.04964,14.80715,12.43756,12.43266,12.42194,16.21905,12.1991,15.29622,16.13115,14.13226,18.7972,14.49763,16.58856,19.35967,15.64606,15.16192,20.29271,15.6773,16.97965,17.99716,20.31011,19.89194,18.87343,22.20982,21.01738,17.56446,23.6911,21.30772,23.24948,22.67582,25.91861,25.75756,28.71834,27.65826,30.15584,32.80318,30.61133,36.4263,32.35854,38.25148,33.38684,39.55995,37.42904,38.5153,41.15758,37.85046,43.21668,38.7028,44.72214,40.48125,40.4033,40.7897,39.82304,41.09051,37.27937,37.77409,34.92525,36.80847,34.17774,31.83702,31.1119,29.32883,28.13934,24.82303,26.41851,17.4161,22.47089,12.4902,16.38782,12.20506,7.597477,9.052776,4.186608,0.5387836,2.403203,-5.339266,-4.057253,-9.222691,-12.18066,-14.92647,-15.7045,-19.75435,-22.01285,-23.50582,-27.14856,-27.74838,-31.26295,-31.72219,-35.97359,-35.8324,-38.42546,-43.32087,-40.32393,-47.02721,-42.55178,-51.1895,-47.72367,-50.29976,-51.35608,-53.68431,-52.4934,-55.84318,-54.07449,-56.86975,-58.31042,-56.34357,-60.52516,-57.42097,-59.80748,-60.83154,-60.2632,-57.85496,-56.73617,-57.53962,-54.84006,-56.45869,-55.72407,-56.37011,-54.97444,-57.41662,-55.18705,-58.6648,-57.11187,-57.20093,-61.92261,-59.04318,-61.45699,-63.4427,-63.11149,-64.3197,-65.00337,-68.61934,-67.18059,-67.059,-70.75267,-68.19438,-68.67356,-68.52868,-69.19483,-67.21149,-68.92712,-64.17377,-69.33903,-66.14749,-65.24871,-65.43238,-63.51668,-62.78433,-62.36271,-60.1077,-61.71767,-54.86509,-60.38222,-52.14735,-53.01927,-50.93558,-46.61574,-49.45794,-40.16186,-46.82431,-34.30841,-41.89795,-34.75442,-35.62501,-34.44789,-29.92752,-30.72459,-26.5576,-26.94251,-25.61942,-23.22021,-22.99638,-20.88151,-20.60897,-16.69664,-17.48327,-10.41397,-13.06725,-5.301369,-7.439732,-4.781701,-1.654889,-4.641762,-2.563565,-3.571008,-0.2925177,-4.01461,-0.7400901,-0.8478455,-4.653114,1.719863,-3.229241,-0.9394415,1.980172,0.6816391,2.256396,5.224392,3.19183,5.725579,6.781985,8.187772,10.93233,11.78608,13.11596,13.73431,16.23734,15.61459,17.34725,15.51896,20.57429,18.64212,20.80242,25.43235,21.15452,29.11084,27.13973,28.42744,35.8435,33.80478,37.98158,39.75402,43.19187,45.5595,47.97839,47.0316,50.6374,53.29532,52.85937,57.79219,56.7156,60.09427,60.64793,63.83689,62.18346,64.92308,63.90574,60.87554,64.68927,59.86162,63.57247,58.08208,60.12693,59.23602,55.20519,58.37808,50.03997,56.03354,48.13845,51.37758,46.63036,46.12686,43.90141,42.8219,40.13386,40.21942,38.75432,35.61291,36.62258,33.81496,33.10286,31.08372,31.79367,29.11412,31.39377,28.84142,29.17249,27.17473,28.94114,27.34492,27.2343,27.74549,19.82442,26.30509,21.04921,22.86771,21.38804,18.45548,21.04393,18.28117,14.75025,21.35135,15.12789,19.65105,17.20387,21.23888,17.47221,20.11366,20.49024,16.6112,19.49261,15.44028,14.27674,12.0491,12.18372,10.17085,11.19648,4.416062,10.17815,1.989809,4.66326,4.622634,1.85094,5.944612,0.6646543,3.935228,-0.02733889,2.608856,0.4472429,0.135282,-0.2680308,-0.02772059,-0.9057949,-4.437767,-0.6249617,-5.845515,-6.57105,-8.805746,-9.65094,-11.54751,-11.33279,-17.04124,-13.05806,-17.13748,-19.17285,-17.56475,-22.9292,-19.80449,-21.14337,-27.50324,-24.27493,-24.22869,-26.79501,-24.70717,-27.02461,-27.75109,-22.57818,-25.31716,-24.56395,-21.9004,-24.19922,-21.19346,-22.10638,-19.04009,-23.2259,-19.56899,-22.51445,-24.71045,-19.57741,-25.94726,-22.11296,-27.02129,-23.28007,-27.33075,-26.7029,-25.99093,-32.07562,-24.42541,-33.67971,-28.11455,-31.1653,-31.7906,-32.60323,-31.12744,-34.03676,-30.61007,-33.32909,-34.58714,-28.95305,-34.90209,-31.35522,-33.36451,-30.17245,-30.02538,-31.57315,-26.05427,-30.21999,-25.68254,-25.54771,-25.25418,-20.17511,-25.76713,-19.99306,-19.12473,-21.42438,-13.96106,-19.52393,-15.38904,-13.8511,-14.65715,-12.62252,-9.578489,-10.90682,-7.676732,-8.378866,-6.221663,-4.004775,-1.557791,-0.4966839,-2.624867,5.49427,-0.02676851,6.743147,2.463506,7.870662,7.759447,7.024625,10.95713,10.66806,11.67384,14.32464,13.84031,15.28771,20.65645,11.63392,24.55732,14.72029,25.42462,19.56801,23.74764,25.71474,25.25314,25.78588,29.28169,27.29087,29.13454,26.88253,32.82227,23.51037,28.30875,27.10924,24.91037,30.22203,25.25173,30.08731,27.04553,31.22887,28.64002,30.40498,30.96981,33.03417,30.78321,34.23162,34.43751,37.4773,37.01747,40.23441,36.56335,43.90357,40.64037,42.33191,43.50176,44.43956,42.00436,44.32135,42.06397,44.7337,39.07836,47.48577,36.90225,42.34432,37.62594,38.24952,35.48469,35.5174,31.30047,31.235,29.46363,24.02586,27.1567,20.31215,19.25734,18.29782,14.14933,14.53802,9.617635,7.49581,4.234508,2.203459,-2.231262,-5.036788,-9.808536,-7.212566,-16.24836,-14.22205,-21.39927,-19.86351,-25.52166,-24.60219,-29.62177,-29.28646,-34.38343,-31.84327,-36.95215,-37.83254,-34.53417,-45.1256,-37.61604,-44.70586,-44.92123,-47.88401,-49.09717,-50.09522,-53.56921,-52.33975,-55.66649,-52.92472,-57.75752,-55.54265,-56.68787,-53.71376,-55.85587,-54.65959,-55.89467,-48.87346,-53.23147,-48.85319,-46.45023,-49.08444,-40.59216,-44.72378,-38.7614,-36.7071,-34.00379,-35.69299,-24.71464,-33.00072,-19.41394,-28.38771,-16.8275,-21.56569,-17.52361,-14.01443,-14.3884,-12.92715,-11.81067,-11.93381,-8.688034,-13.21769,-7.81438,-3.199602,-8.441954,-1.369192,-3.646758,-0.3443958,-1.306676,1.864808,0.9641312,2.844138,4.399848,5.992195,5.788979,12.62969,6.875731,11.55633,9.743217,12.34903,10.75846,13.90075,10.64657,13.84973,11.05927,13.98861,9.18597,18.38615,9.433625,14.79253,11.75031,13.0312,9.570858,13.36065,10.0772,14.64986,9.554715,11.72459,10.34685,11.86673,10.4298,8.242913,13.15761,6.567375,11.55109,9.389659,7.970934,11.15372,6.527733,7.26574,9.655038,6.613594,9.778415,6.815784,11.02341,11.59045,8.732037,15.44494,10.09903,19.78328,10.81817,23.19377,14.19265,25.92213,20.32842,27.05674,25.57971,27.12591,29.77419,25.38814,33.23594,24.83512,30.76455,28.55063,29.64323,29.63246,29.93408,29.00921,31.34936,29.47645,33.53845,30.16964,32.22008,31.55788,32.55953,30.81062,33.39048,31.64799,31.52741,32.43756,31.64918,31.36966,36.104,29.02327,34.80584,33.46009,32.64018,33.34734,35.13915,30.38046,35.40908,30.91771,36.246,31.94559,37.55404,33.64324,34.76946,34.40594,33.80146,35.73422,36.71799,31.54734,41.53578,35.27342,40.20815,38.45512,41.01032,39.78478,40.67842,44.90272,43.84181,45.01139,49.53559,46.58028,50.49082,47.68134,49.48176,50.19783,52.84057,48.95878,53.79802,48.2288,52.3768,47.08586,50.25384,48.53881,48.82667,48.59327,44.86876,48.10625,44.12327,43.46916,43.57464,40.13518,40.27643,39.67815,32.26828,35.4446,29.87955,29.26411,25.63445,22.91768,22.86126,15.08197,15.16186,11.8091,8.073094,6.197458,1.906042,-0.732617,-1.108839,-7.992132,-8.604491,-13.39771,-15.05054,-18.98391,-22.20917,-23.48245,-29.28992,-30.54787,-36.99507,-32.83347,-43.73122,-37.10102,-47.65511,-42.92749,-51.07185,-49.3677,-52.94248,-54.80584,-54.57889,-60.65451,-54.55147,-62.4871,-58.16172,-61.84025,-62.49734,-61.16329,-62.39868,-63.00032,-62.93744,-63.68995,-65.2765,-63.44501,-64.48573,-63.45369,-62.6235,-64.06166,-60.80368,-66.32262,-60.77809,-64.22833,-63.65198,-66.54328,-61.51998,-65.81021,-65.77283,-64.67882,-66.58794,-67.06207,-67.01131,-66.62484,-69.78743,-68.69996,-71.82236,-73.10846,-72.29538,-74.37519,-73.51859,-72.58404,-73.86249,-74.99161,-68.97848,-78.4092,-69.49605,-77.56866,-69.77414,-71.33311,-71.86312,-66.59172,-70.85435,-65.85201,-67.44943,-63.25243,-64.12221,-63.92279,-57.57441,-60.10427,-57.0708,-56.39817,-51.83649,-54.70452,-46.90599,-49.24917,-41.34076,-44.95303,-40.31146,-41.76264,-35.33635,-38.44925,-36.56915,-33.99826,-34.20137,-32.02172,-32.04845,-31.0924,-30.6343,-29.59864,-27.22819,-29.39421,-24.09542,-25.83779,-23.82454,-22.35454,-19.36745,-16.889,-13.80302,-14.60832,-7.54155,-11.28808,-4.770042,-7.611287,-5.427344,-3.22072,-4.44014,0.3228756,-5.366472,2.620371,-3.048607,2.663786,0.692381,4.485239,3.933592,5.733564,4.785489,8.512716,6.620744,9.377188,8.450068,12.03652,10.96618,13.27823,15.11421,15.71989,17.07199,17.79168,19.14857,21.92496,20.64592,25.06605,23.43003,25.84397,27.46141,29.29774,29.04117,32.59354,30.64008,32.64837,30.71332,32.8834,34.84178,32.43904,33.74818,35.90793,35.47625,36.25293,37.56927,36.26161,35.61065,33.86052,35.51932,32.59071,33.06493,32.01687,29.93404,32.05908,27.69908,29.2422,29.66077,28.37616,27.25109,28.07046,28.34584,26.03683,29.30853,27.92432,27.46115,30.00546,26.21575,32.34338,27.11891,32.49201,30.95297,36.05065,33.3667,37.68339,38.86192,39.73958,41.07126,45.87694,43.4817,47.55802,47.22917,47.71527,49.72147,50.23799,48.76107,50.97155,51.80515,48.63883,50.96831,50.62898,47.66075,50.18347,46.62238,45.56212,47.96757,41.75987,46.99195,40.91604,45.50275,43.9951,43.74672,40.87037,44.50295,39.7961,41.20217,36.82405,38.64215,32.19895,33.9873,29.90974,29.33433,25.24078,25.27653,22.74508,18.49137,22.22691,14.57245,16.15442,12.21911,13.13777,10.63062,7.600658,9.927837,6.42564,6.432138,3.425794,7.195881,0.9284296,3.379832,0.2916244,1.183681,1.254442,-3.15289,1.180009,-3.396549,-1.75396,-3.407634,-3.02355,-5.455252,-5.70504,-2.242297,-12.13249,-4.07873,-8.818301,-6.790853,-9.647036,-7.393159,-8.608329,-8.218779,-9.238454,-7.656913,-6.325945,-10.33987,-7.942627,-12.37099,-9.033905,-13.98141,-9.953543,-14.20988,-12.89394,-13.91654,-14.68029,-16.1453,-15.54135,-16.88894,-15.73932,-15.00905,-18.55386,-15.41271,-16.47911,-19.83014,-16.10366,-19.1313,-17.65034,-18.9535,-15.40273,-17.83111,-16.54582,-18.87532,-15.49112,-18.20328,-15.40398,-18.52723,-18.27815,-18.044,-19.23678,-19.23814,-16.3095,-22.67499,-16.0497,-22.53434,-17.62558,-20.50327,-18.49049,-24.63376,-16.31861,-24.69359,-19.23278,-22.82222,-20.58875,-25.23627,-17.77502,-26.70709,-21.31861,-19.93215,-23.70153,-19.43285,-21.64222,-20.12687,-19.44167,-22.65975,-19.46475,-18.22668,-19.30265,-18.59938,-16.42725,-18.48983,-14.46524,-15.68451,-13.57201,-14.75379,-14.41984,-12.0664,-11.33939,-10.66348,-10.46484,-8.66252,-10.09254,-4.42418,-7.330851,-3.73697,-4.629217,0.272074,-4.561595,1.980878,-1.308037,4.224595,-0.9834116,6.223284,2.735118,9.395702,5.273856,9.933434,9.405448,13.27,11.13999,15.45422,12.86385,17.28671,14.78548,18.50711,13.94763,21.68849,15.7378,19.57924,14.58356,19.53086,14.00627,21.24744,14.92137,21.55185,17.09098,17.81286,21.61091,19.88605,23.03303,19.90079,24.05089,19.85835,25.44896,18.81806,24.54001,18.01728,26.32713,19.05206,24.4554,20.14289,22.43048,21.86358,18.39493,22.7634,23.59512,19.25469,22.54016,19.98903,21.04119,19.18977,16.31652,18.2886,14.77651,15.60753,13.89704,10.55915,9.67034,6.452844,5.293346,2.805495,-0.1207174,-4.655589,-3.350059,-9.325997,-8.294998,-12.83388,-12.44128,-16.03551,-13.77335,-19.49571,-14.12953,-20.28276,-16.90814,-24.31681,-17.17745,-28.25531,-20.33364,-25.58818,-25.41717,-24.48283,-27.13437,-26.33861,-26.02333,-27.31027,-24.33281,-28.51975,-24.04104,-28.58637,-22.79211,-26.98872,-20.12627,-24.24408,-19.96354,-21.49467,-18.74418,-19.26022,-13.48198,-18.89926,-10.18651,-16.01206,-9.731045,-9.601553,-7.906337,-4.851904,-4.932704,-3.457993,-1.005001,1.39461,0.9003289,4.531583,1.726327,9.320286,4.917776,12.04197,6.93495,13.70291,10.21403,15.54759,11.45055,15.4724,14.07562,14.03517,13.91542,13.31665,10.05167,13.03267,8.629091,7.947535,6.821046,9.479799,5.343779,9.861686,3.365222,8.145001,2.806018,4.454546,4.134879,2.301823,3.037506,-0.3415394,0.5587845,-1.792746,1.652613,-6.217991,0.2008995,-5.435051,-1.70287,-5.734856,-4.29601,-5.61081,-3.233951,-4.287167,-2.893001,-0.09168652,-3.20424,-3.776703,0.8057281,-5.111366,1.169222,-4.467228,1.194738,-1.918942,0.466505,-3.041649,-0.3837186,-6.618707,-0.6294789,-8.139658,-0.7668864,-10.09833,-3.637282,-7.698815,-3.932312,-5.947853,-5.417062,-4.375887,-3.601756,-2.188035,-1.802481,-4.027625,0.1577219,-4.693879,-1.116275,-2.580609,-2.874519,-2.614709,-1.022386,1.060639,-3.370717,0.7146539,-3.198364,2.043334,-2.027926,0.3067748,0.311781,-1.004521,2.33653,-2.271369,4.841021,-1.498478,3.684542,-1.581549,3.734045,1.917413,-0.2254981,6.337703,1.250515,7.382504,3.298074,5.939189,8.85513,5.62958,10.327,8.228606,8.041783,8.74146,10.15977,8.669284,11.88506,8.656884,12.5483,12.97544,11.76133,15.45499,11.57022,17.045,13.21737,19.38173,14.32658,18.64894,17.39298,15.07033,21.92657,15.76679,20.36425,18.48092,18.7443,18.32914,17.61102,21.22173,15.71299,22.84282,16.80233,21.8306,21.25059,19.52684,25.0586,23.02475,26.60375,23.94999,28.63321,26.55912,28.6646,23.47928,31.34427,25.05473,29.30624,29.68068,26.83132,34.54139,27.22441,33.22051,28.26952,31.01302,29.11589,26.90089,31.43455,23.68979,30.47385,24.46739,26.46658,22.45715,24.65032,18.90852,23.59899,16.72279,22.48606,12.21273,21.75078,7.656268,18.15022,10.04638,10.63683,10.72163,4.49479,7.956031,1.769465,3.415124,-3.641212,-0.686191,-3.866864,-6.830432,-5.041915,-12.12888,-9.026835,-12.6519,-12.45558,-17.38043,-17.68918,-17.80781,-21.026,-21.32053,-24.17197,-25.98653,-26.52484,-28.68255,-30.27107,-32.51487,-30.57227,-38.39509,-33.26975,-36.89276,-36.6231,-35.9688,-40.71671,-33.2346,-43.77508,-33.29314,-43.37299,-35.10642,-39.95787,-41.22954,-38.34014,-42.371,-38.01332,-41.81957,-38.8894,-40.83565,-40.08636,-40.66639,-40.1368,-41.77942,-39.40164,-44.09678,-38.78437,-41.00433,-41.50072,-39.21414,-43.26703,-38.76861,-42.73655,-39.40874,-41.60807,-41.64046,-44.05212,-41.19254,-42.9108,-43.75323,-40.7053,-41.2611,-41.24538,-39.38304,-41.61671,-38.34677,-36.79176,-40.0276,-29.47039,-37.98518,-30.03835,-33.03944,-31.51958,-29.77262,-29.543,-25.98476,-26.04888,-23.4727,-20.39947,-22.24761,-17.82362,-16.85062,-17.88546,-12.03983,-14.28252,-9.220569,-8.508513,-6.430228,-6.102032,-5.434286,-4.770367,-1.916869,-5.184051,-0.2401264,-2.960656,-0.5355664,-1.208396,-1.061013,-1.87649,-2.349914,-0.7281896,-3.310991,2.10768,-1.269853,-1.762365,2.585803,-3.188506,5.821259,0.198894,6.019318,3.49101,8.572484,8.128654,8.348318,10.90927,10.36371,15.18614,11.20578,18.41941,14.07225,21.96173,16.59498,23.60848,20.65468,26.6638,21.57895,31.66707,23.80389,32.82668,29.03204,32.10126,33.67042,34.93882,39.31365,34.66399,42.38672,39.73092,42.80801,41.86774,44.73972,43.69144,44.00338,45.40614,40.36075,48.11422,39.25842,47.42259,36.04533,44.21664,37.54265,39.08039,38.59964,35.13044,38.00458,34.52615,33.97189,34.80858,33.2012,29.81439,32.15271,27.38892,29.14767,28.8322,23.46594,26.51351,22.19945,23.65351,21.61184,19.40985,17.40758,19.37087,12.73776,16.02803,10.63386,10.77943,9.424825,8.877051,7.914781,4.479004,5.163109,0.9633717,5.630344,-4.044291,6.937034,-4.668881,2.870647,-2.512547,1.458364,-2.857015,-0.1607491,-0.432661,-0.1525892,2.907939,-1.424822,4.117053,0.9234984,3.159296,2.498901,0.5059698,2.714361,1.73688,0.8859493,0.3036086,1.026124,-1.962674,-1.937535,-4.616998,-4.781668,-7.869581,-7.570498,-8.148386,-9.101373,-9.868068,-10.95668,-12.86769,-11.39366,-13.10573,-12.34605,-15.67013,-13.5578,-17.13208,-15.71603,-18.54602,-17.70927,-20.22181,-18.0971,-21.0774,-18.13845,-21.38851,-18.13481,-20.54961,-20.50605,-16.56649,-19.8595,-17.00459,-19.50398,-15.70196,-18.95973,-13.50124,-18.20215,-15.53799,-14.45511,-15.49494,-9.50096,-15.09556,-6.98086,-10.81774,-10.73766,-6.433461,-12.91315,-4.589397,-13.5488,-4.353206,-12.80808,-7.177802,-13.50545,-7.300021,-14.65796,-7.293976,-14.53325,-11.23535,-14.37478,-13.16776,-16.35719,-13.68985,-16.32624,-15.5465,-15.60755,-18.53745,-14.77327,-18.27363,-13.39741,-18.26762,-18.44941,-14.38264,-19.19477,-14.29133,-19.37063,-13.59882,-20.04333,-10.60477,-19.74402,-10.62794,-16.98959,-11.64621,-13.121,-11.66334,-10.59066,-13.73242,-6.654643,-12.05811,-3.607746,-12.42896,-0.4390577,-9.180998,1.065452,-5.57221,1.063082,-2.195397,4.038218,-0.6328668,8.058452,0.9883332,6.768812,8.69391,6.835004,9.322433,12.50414,9.513673,15.87936,14.51967,17.31908,17.45358,20.46823,16.76948,22.13375,21.40734,20.61308,24.86154,22.37512,26.08588,23.02636,28.35617,22.03114,28.9973,26.31756,25.67472,26.71849,27.63428,26.53895,25.33586,29.48762,22.32414,31.56485,19.46316,31.76586,20.29431,27.93528,19.05984,23.35839,20.32024,18.14736,23.60131,13.99767,21.99388,15.05853,18.39507,15.95741,17.74009,15.85932,18.20212,19.13474,20.67975,20.14035,20.39815,22.79432,19.30559,22.50039,22.47392,18.82875,26.51672,14.68265,26.69823,15.9237,22.71384,19.85075,19.06419,18.95703,18.22896,14.97582,15.66719,11.12835,15.54685,6.972207,14.84913,5.369091,8.640967,4.490682,4.484551,4.081574,0.3586812,1.465227,-5.373008,-1.907949,-5.960572,-7.581455,-7.828056,-10.51128,-10.92772,-13.61001,-10.32688,-16.24849,-14.49466,-17.44174,-21.05169,-19.80218,-27.77123,-23.3333,-33.31244,-27.33309,-35.4425,-34.92404,-38.98549,-37.44876,-40.36483,-41.05502,-43.42471,-41.63984,-43.22062,-43.43974,-44.19335,-40.43618,-44.31191,-39.31172,-41.37403,-36.64346,-41.56958,-34.32001,-39.50508,-34.55536,-36.79323,-33.00569,-36.47193,-30.12693,-34.17046,-27.3599,-30.78575,-27.28073,-23.76305,-25.97186,-20.14225,-19.25985,-18.28872,-14.92637,-13.42598,-12.07814,-10.89312,-6.283653,-5.167491,-3.813122,-1.085417,1.251297,1.769571,6.560002,3.325398,8.92357,6.400235,8.541225,8.786495,12.54992,13.26177,13.26594,16.96979,11.94413,22.80217,13.28475,23.53641,18.07482,23.12234,20.79953,22.93256,22.62033,22.48627,22.70699,24.66785,23.27638,23.34693,24.61743,23.20462,24.2062,21.73925,22.16863,22.94177,20.76763,21.93362,20.98898,17.54905,21.96424,14.27152,18.21831,15.20512,12.61133,15.40304,8.271272,14.7813,4.955679,10.55232,4.640478,8.711126,3.262084,4.679655,5.730602,1.314849,3.737843,3.809409,1.354487,3.949277,1.252572,3.01547,2.553358,1.579971,2.138928,-1.97401,2.530307,-7.230321,3.132185,-9.803038,0.8161576,-11.77672,-0.2186076,-11.56712,-5.392085,-6.845389,-8.046934,-3.412081,-9.172606,-2.082223,-4.152212,-3.319781,-2.075248,-0.08342548,0.9830517,1.466844,1.382124,4.232429,1.659874,0.6858069,4.796917,0.8183402,3.310467,2.81385,5.810992,2.095821,7.672121,6.501078,6.480458,8.90567,8.651938,8.518689,8.766892,11.34116,10.08368,11.43806,11.59501,9.006862,15.8623,10.66946,18.51805,12.97496,18.26615,15.88233,19.98042,18.38131,18.60988,20.75128,19.41996,19.15849,20.58607,21.45037,21.7072,22.64868,22.63309,23.66201,26.19316,28.52485,25.61624,31.52662,28.17503,33.45627,31.60005,34.39014,35.34364,36.43924,37.19793,36.90216,40.13986,38.50827,40.56015,38.6066,41.52676,38.32933,42.27706,40.21847,40.30424,41.7431,41.36472,38.25584,42.09674,32.48068,42.74438,31.39735,34.18508,32.38176,28.52254,29.18769,24.67512,24.18342,21.5657,19.62825,17.48514,16.7786,12.66723,8.709658,8.079017,5.291946,-0.9315106,0.8748516,-4.747531,-6.891576,-10.01154,-11.88867,-16.71875,-16.97115,-22.38653,-23.54314,-27.22619,-29.90406,-31.92258,-34.19454,-33.7091,-40.17704,-36.49146,-43.82087,-42.29434,-44.21256,-47.76839,-46.72977,-51.77127,-50.81908,-52.34932,-51.91632,-53.84792,-52.67884,-55.33279,-53.51371,-55.69305,-55.87089,-56.35145,-55.70744,-56.66052,-55.17941,-53.8776,-56.06557,-50.45212,-55.17102,-52.11656,-52.88632,-52.47087,-49.76389,-49.93654,-47.03892,-49.14361,-45.72414,-48.12086,-43.59726,-43.75646,-43.02952,-42.0194,-43.48052,-40.09604,-41.87695,-40.87865,-41.91598,-42.83935,-40.9084,-44.33449,-42.69533,-40.01451,-43.93866,-40.25889,-42.00795,-39.67736,-40.60866,-39.47515,-36.7315,-38.73082,-35.90854,-34.71421,-34.91552,-37.56444,-34.17039,-39.55303,-36.17093,-42.11021,-38.69647,-41.62484,-40.80925,-44.99464,-41.7031,-44.77149,-43.91534,-47.46997,-42.17007,-48.28028,-41.8703,-47.13557,-44.89408,-44.59803,-43.5792,-39.4106,-45.93611,-36.86663,-39.89139,-35.81408,-36.81723,-30.99054,-32.79902,-26.42623,-26.51044,-21.83047,-24.25959,-16.56455,-20.00848,-11.38294,-11.68425,-9.596795,-2.732472,-6.648557,1.966748,-0.4607175,7.309853,4.641777,12.92849,10.08975,17.70176,19.03466,22.84162,25.88913,30.76004,30.06337,37.29138,34.88105,40.2339,42.55091,43.44306,46.80025,47.00972,52.05899,51.23642,55.11895,55.3596,56.86585,57.18353,60.44792,57.32563,61.1312,58.71746,61.56553,61.42229,61.11245,62.70648,60.69325,60.3365,60.62289,57.41729,57.60891,56.16935,54.64241,51.19298,49.87429,46.10253,45.47114,43.08695,41.13342,40.81452,35.79688,37.84057,30.5843,34.56905,27.70767,31.37257,25.59969,28.07329,24.08887,25.19919,26.03976,23.05429,26.01212,25.65903,27.07725,26.08938,33.27934,29.70569,33.46328,35.05504,32.44663,35.27337,34.40008,31.696,32.81242,33.66255,28.67484,35.34625,26.94438,35.4104,28.70216,32.48126,30.47118,30.81727,30.82727,32.45857,30.17349,34.93534,29.6832,34.66007,32.22543,35.48579,33.72087,35.21039,35.15989,35.6822,39.19624,34.05967,42.01371,33.79096,43.41782,33.04276,42.11117,32.38028,38.01211,31.93372,37.27503,27.78437,33.96469,29.55743,26.94739,28.21802,21.70507,24.28114,21.06349,22.00959,18.17346,20.679,15.5779,19.32228,16.04305,13.12617,17.01196,11.39627,12.96045,13.27119,10.27523,9.954111,7.902013,8.802424,6.640059,7.403425,7.183099,4.346463,4.464737,4.511234,3.052094,3.987391,6.950987,1.841311,8.454555,3.781401,7.594344,6.561597,8.332138,7.630443,6.696546,7.652603,7.717872,6.96842,6.129089,7.440683,5.319259,5.852202,6.042029,3.618426,5.554761,3.643918,1.437787,4.599438,-1.08303,3.108231,-0.6554298,2.125385,-1.743563,1.64359,-4.691361,1.605135,-6.257171,-0.3952844,-1.920471,-4.880115,-0.3564812,-6.60035,-1.683247,-8.524451,-1.356952,-14.86689,-6.980265,-14.53554,-14.05255,-16.82089,-20.32893,-19.87917,-23.2687,-23.73027,-30.25296,-23.75948,-35.3973,-26.79922,-38.23441,-32.79728,-35.88567,-40.54649,-35.29948,-41.09108,-40.24047,-40.56446,-41.52633,-41.39136,-41.01757,-42.44719,-40.98222,-43.44395,-37.97739,-41.00799,-39.21716,-40.68428,-36.78233,-42.26475,-34.40798,-41.10447,-36.43108,-39.57266,-36.33852,-38.84048,-35.03015,-37.64654,-33.57479,-35.10477,-35.38375,-33.9577,-33.30454,-34.85999,-29.89421,-36.21789,-30.66046,-33.46434,-33.69138,-31.09066,-35.1704,-31.25668,-32.58005,-33.38522,-31.94722,-32.95117,-34.54857,-34.35737,-33.80979,-32.7967,-34.68809,-35.68906,-32.76718,-37.96501,-33.70731,-33.6885,-38.00719,-30.41506,-36.62586,-32.35615,-34.21838,-33.08877,-32.51536,-32.82272,-31.61308,-31.95931,-29.87821,-30.51523,-25.90654,-29.31122,-24.98169,-24.60319,-25.79042,-22.40442,-24.9584,-22.88577,-22.04079,-19.12473,-21.1305,-13.97955,-18.34473,-11.82264,-13.36527,-12.66732,-8.733659,-11.54306,-6.608145,-10.27973,-6.072855,-7.749588,-7.011146,-9.248132,-9.645283,-9.165105,-7.196521,-13.2908,-6.166919,-14.066,-5.866359,-15.70188,-9.393765,-11.84119,-13.14172,-8.619614,-11.84221,-10.37891,-11.40925,-7.017314,-12.90984,-5.569855,-10.21591,-5.650019,-4.893668,-6.232501,-2.601041,-3.129868,-3.227187,1.138355,-4.497432,1.722476,-2.903406,1.216621,1.706858,-0.7715943,6.567681,2.620352,5.084332,6.749461,9.20105,10.4982,12.36794,12.72743,13.98262,20.69823,17.50436,26.89028,23.12957,28.97575,28.0517,31.68518,33.52978,35.40221,36.11488,36.75717,42.31972,36.51304,45.06542,40.42612,45.77934,44.28687,45.88996,47.99492,45.68416,49.77357,45.14725,48.85193,48.26124,48.3555,47.37324,48.16649,44.55169,46.56115,45.80938,43.90684,42.36192,40.43287,38.05531,39.95812,32.90453,36.78267,29.64647,31.07993,27.5635,24.03076,26.61399,20.27441,21.63472,15.02614,18.63897,9.696479,12.50154,9.59767,6.737789,9.509759,2.822363,6.853612,4.943535,2.906313,5.274597,2.269483,2.864664,2.552725,-1.009014,2.131355,-1.814409,-3.57002,-1.818381,-6.923631,-3.227207,-12.66727,-4.803799,-16.01103,-5.898861,-15.60061,-7.884287,-17.63624,-9.976641,-17.5427,-10.88829,-18.60465,-12.65608,-14.08555,-14.64378,-12.03164,-13.62008,-12.14838,-11.58655,-10.41562,-10.07481,-5.789817,-10.10543,-3.915747,-6.043936,-4.860024,-3.235394,-4.441292,-3.500785,-1.654404,-6.303358,-1.434768,-3.160257,-1.887016,-0.9391405,-2.573966,-0.8084239,-1.355563,-2.153438,-1.653998,0.452208,-2.570225,-0.217171,-0.6640661,-0.4953935,2.761725,-0.7055154,1.085727,0.3585043,1.504133,2.011612,0.08986196,4.267257,-1.157524,4.095946,0.1503468,4.820197,-0.8010227,5.017715,-1.032138,6.153278,-0.3110196,5.272941,0.1567805,4.822663,1.729882,1.665939,4.728268,3.01029,1.579638,5.960055,0.8028565,4.332378,5.242437,4.450746,3.983436,3.854155,5.09338,3.178775,4.149912,4.304242,3.131527,3.374237,0.773072,0.9775056,1.07124,-1.364966,-3.17206,-1.393559,-4.884516,-1.07461,-4.874794,-3.997045,-2.999292,-5.690656,-4.119941,-7.108693,-5.375701,-5.848071,-8.279247,-5.681298,-8.133888,-6.5454,-10.13265,-7.165787,-9.195593,-7.435142,-9.9955,-6.79506,-8.597965,-8.04523,-7.510101,-7.380394,-6.153108,-4.480379,-6.001101,-3.186329,-6.703017,-2.355204,-5.667204,0.8200492,-6.472487,3.29551,-3.078738,3.420071,-0.01274671,4.602443,2.271073,6.941802,3.433463,11.74201,4.092524,12.37101,9.437137,12.24096,12.73675,15.39588,12.05415,17.44343,13.56963,17.65556,16.29076,19.72867,15.76615,21.53913,13.88005,21.33774,17.21565,17.92427,18.33236,19.66678,16.11959,20.58054,15.5505,19.67704,13.20074,15.81433,14.31836,12.476,13.63033,9.520968,12.37162,10.6187,9.840306,10.97283,8.251395,10.45001,7.413387,7.496498,7.774892,8.32836,5.32805,8.425479,0.7365127,9.723316,-0.8808289,8.040193,1.743804,5.626593,2.253764,6.260024,0.7659192,4.094008,4.939067,-0.6613461,4.940827,1.617959,1.980138,-1.117373,2.009783,-0.2532995,-4.114228,-0.3748614,-5.611471,-4.602599,-3.744701,-9.326254,-4.852426,-9.341963,-7.211381,-10.5053,-9.697505,-15.01431,-11.5581,-18.00484,-20.59031,-19.81028,-26.83304,-25.66025,-32.09489,-30.85424,-33.48162,-35.4664,-39.13551,-35.57041,-44.57734,-40.05309,-46.4505,-43.32213,-48.94983,-48.18242,-51.34529,-51.19484,-49.55015,-57.90725,-50.20017,-59.19403,-52.07826,-56.89934,-51.43894,-52.50104,-52.48712,-48.93044,-47.37123,-46.74688,-45.58356,-43.51179,-39.86065,-39.84611,-36.441,-33.02787,-32.84519,-25.79359,-26.88681,-19.61973,-18.8044,-12.52897,-13.28637,-4.008871,-4.242332,3.159753,4.157437,10.76685,11.83664,16.40221,20.50404,26.29928,26.13418,31.78687,37.04014,34.53,46.32536,39.32962,46.8785,47.85842,45.77067,55.83064,49.41872,57.04733,53.51175,58.21486,56.54403,58.91044,58.61652,57.99032,58.78169,56.89029,60.1563,54.29276,57.22531,52.63927,52.90076,52.50757,45.44572,50.62587,42.52353,44.42437,39.40195,38.32667,33.18257,35.44985,25.91839,29.61763,22.91828,22.78893,20.09404,16.40357,14.35766,12.21002,11.62204,6.273758,5.442067,5.168921,1.421415,0.8194184,1.049464,-3.254142,-1.192766,-5.156037,-2.547544,-9.689781,-7.324703,-12.04158,-10.90669,-16.20383,-14.43077,-17.64774,-17.35684,-17.45646,-17.67288,-17.45651,-17.61597,-20.07572,-19.49795,-19.35568,-22.4495,-19.26384,-19.97114,-20.65298,-21.82799,-20.79458,-20.86203,-22.43719,-20.11568,-25.91975,-18.08481,-26.29571,-19.86732,-22.35696,-21.48709,-23.18723,-20.84102,-22.59497,-22.38787,-21.85384,-24.17876,-19.21913,-22.35735,-21.73234,-17.77868,-23.57108,-17.18907,-22.22729,-15.58777,-19.57558,-13.01043,-18.54757,-12.4641,-15.71578,-12.65032,-13.37161,-12.83797,-10.18756,-13.86495,-6.358213,-11.28774,-6.663407,-10.26332,-4.090725,-6.685577,-4.576441,-1.875777,-4.105908,-1.580336,0.3580811,-2.67848,3.199566,-2.756674,4.348789,-3.209581,6.101946,-2.678084,7.012538,-0.0996511,6.512115,1.571413,6.714116,4.517245,4.435056,6.14239,6.592926,7.329613,8.112257,6.491204,10.10927,8.29679,7.712772,9.87546,6.551652,8.596324,9.684789,4.020955,8.054795,5.213209,5.572928,2.365114,4.411385,1.336659,3.128394,-2.010024,1.536114,-2.822084,0.08332446,-2.408407,-0.9109234,-2.419345,-2.414208,-6.340367,0.08296091,-6.210248,-3.329991,-3.078754,-3.792755,-2.624327,-3.753786,-2.305282,-4.820146,1.655758,-5.167634,3.129365,-4.897501,4.700749,-2.525847,4.495455,2.430624,3.932303,5.439621,7.234646,3.550777,6.461568,7.469172,4.260572,8.385808,2.957387,6.451469,6.541189,2.301404,8.024892,3.105022,5.463711,5.259399,4.278344,6.139912,3.90013,9.453088,1.888931,10.49657,2.57398,7.989698,6.275848,3.882748,8.728375,4.880897,9.29384,6.095935,6.4325,6.673476,5.437313,6.25031,6.237895,7.157753,4.399524,10.0159,1.092104,9.740362,-1.019743,7.457173,1.129629,7.139829,1.858063,8.656753,0.779665,10.24296,-2.162229,12.55738,-2.076335,11.92718,-1.136066,9.628061,1.66294,10.24252,3.575049,8.523261,6.968379,9.108014,7.12041,10.8524,9.886701,10.666,13.2073,12.20503,16.46138,11.44359,18.17507,11.18732,19.14782,10.62215,19.47455,11.12789,19.07637,11.01503,16.28858,10.22663,16.0641,6.438427,13.43673,6.707762,7.320852,3.887398,5.355612,3.273178,1.345771,2.117637,-3.501145,0.7817494,-4.242601,-4.98691,-4.839949,-4.849742,-9.744553,-7.325622,-10.95741,-11.41366,-12.1422,-13.9153,-13.89167,-14.60733,-11.21962,-16.60958,-11.05937,-17.63638,-9.026117,-19.60634,-11.00696,-17.34925,-15.01442,-17.23274,-17.47608,-22.02065,-19.24544,-24.49003,-25.20639,-25.80236,-31.30285,-27.601,-33.64498,-32.10113,-32.7613,-35.65267,-33.15169,-34.19153,-34.70635,-32.41679,-33.64988,-30.51338,-31.85841,-27.95315,-29.32699,-26.01828,-23.59486,-23.21102,-18.65754,-18.8121,-12.11412,-13.28,-8.298349,-4.74268,-3.392662,3.761702,1.061557,9.467328,7.454096,13.94576,12.17916,19.07187,18.1297,25.25362,24.28685,30.37209,32.08574,35.17428,36.42984,40.47787,40.42633,45.68663,42.13642,52.56928,43.39546,54.95789,49.7216,54.92611,52.16604,55.37455,55.58165,53.63175,52.53634,57.97543,50.52829,54.94077,53.27347,50.5058,50.1958,45.63818,48.90089,42.58999,46.73541,38.2785,42.22355,34.26871,35.42996,30.03738,30.06301,21.93543,24.43482,15.60495,17.60055,8.302372,9.150945,3.869759,2.867095,-4.134076,-3.511235,-11.65207,-11.26326,-14.2578,-18.50738,-21.59592,-21.84427,-28.08901,-25.60861,-32.82002,-26.91858,-35.36171,-27.29775,-34.92362,-27.73049,-29.80106,-27.65232,-31.8294,-23.99941,-28.955,-21.75508,-29.07947,-19.0393,-26.60518,-19.6568,-26.40087,-19.46312,-27.9185,-20.82925,-26.56714,-21.75405,-28.44011,-20.8224,-27.84711,-21.995,-26.38686,-21.51957,-24.65364,-20.96587,-25.13158,-22.77572,-26.25561,-24.20749,-27.1521,-26.4097,-28.33527,-28.42909,-27.80703,-27.66338,-28.66832,-28.21045,-26.33958,-26.84448,-26.11592,-27.93128,-25.7865,-28.38628,-27.47378,-28.93,-27.6301,-30.91716,-30.50762,-30.75154,-33.25558,-33.58417,-31.79284,-34.75452,-30.03455,-37.68149,-31.22256,-34.4366,-32.17054,-33.39166,-32.71637,-34.02345,-30.07638,-32.40585,-29.78894,-28.46012,-30.63188,-27.14042,-29.28788,-27.39629,-26.87119,-27.31065,-23.15474,-30.68271,-22.14489,-29.87675,-25.66146,-27.50117,-24.71699,-26.61977,-25.53932,-26.49748,-27.20917,-26.20481,-25.65997,-25.81115,-23.38716,-24.68447,-23.19773,-22.62233,-19.40508,-24.30874,-19.22492,-19.37231,-18.45123,-18.36931,-15.78877,-15.46859,-14.97752,-9.784521,-14.79476,-5.979128,-13.786,-3.983893,-6.880584,-2.548983,-2.87102,0.2763076,4.304761,3.70488,4.929734,10.1308,9.618881,10.91017,13.08618,17.59589,14.0253,22.87736,18.49629,25.27685,21.69657,26.74082,25.10003,29.62626,25.77076,34.02638,31.23056,35.54632,37.02944,40.40061,41.70501,43.6478,44.6347,48.16041,46.85498,48.73879,49.64365,49.84078,53.24299,50.01728,56.48838,51.26037,61.13434,54.9403,62.92616,58.49264,62.07317,59.62275,61.75101,57.05296,61.749,56.33364,58.60771,59.15013,57.39927,58.25381,55.88522,56.44655,55.74312,58.4755,52.52596,60.07066,54.95123,57.16915,54.89939,55.66877,57.57933,55.69553,55.12292,