ConstAcc,0.5,0.42138,-367.45476,-321.63728,-280.28702,-243.13011,-209.90258,-180.35021,-154.22838,-131.30185,-111.34467,-94.139946,-79.479703,-67.164726,-57.004382,-48.816454,-42.426981,-37.670088,-34.38782,-32.429976,-31.653946,-31.924539,-33.113823,-35.100956,-37.772019,-41.019852,-44.743887,-48.849981,-53.250253,-57.862914,-62.612104,-67.427724,-72.24527,-77.005669,-81.65511,-86.144882,-90.431201,-94.475053,-98.242019,-101.70212,-104.82963,-107.60294,-110.00437,-112.02,-113.63952,-114.85607,-115.66604,-116.06894,-116.06719,-115.66602,-114.87325,-113.69913,-112.1562,-110.25911,-108.02442,-105.47051,-102.61735,-99.486339,-100.0643,-95.470245,-91.123064,-87.884437,-86.802294,-84.076719,-80.860512,-75.903622,-69.183464,-61.692993,-54.844966,-49.058359,-44.15442,-39.79555,-36.654066,-34.458719,-32.850333,-31.50189,-30.099183,-28.303662,-26.4336,-24.472144,-22.538996,-20.507233,-17.847744,-15.088179,-12.458616,-9.7066149,-6.9650402,-4.1849793,-1.6206408,1.0034299,3.550783,6.0705109,8.7574067,11.329643,13.828151,16.15923,18.56164,20.813798,22.992774,25.176845,27.35983,29.438645,31.638289,33.918395,36.224069,38.39336,40.52923,42.7694,44.947324,47.151561,49.28936,51.210189,53.053535,54.817398,56.417706,58.079277,59.766866,61.344685,62.879976,64.31918,65.796105,67.08134,68.192796,68.964977,69.652108,70.212102,70.735078,71.195705,71.496729,71.896992,72.232875,72.325987,72.586384,72.673084,72.943463,73.057804,73.253434,73.369359,73.175327,72.899791,72.493778,72.062331,71.759134,71.626569,71.634695,71.787781,72.347876,72.998286,73.883081,74.797161,75.838433,76.888017,78.083096,79.304792,80.628602,82.105644,83.628931,84.992941,86.189915,87.272449,88.29201,89.225264,89.995943,90.490924,91.068934,91.337859,91.472036,91.462206,91.280713,90.953266,90.456142,89.767223,88.86157,87.835116,86.816997,85.791316,84.516226,83.227792,81.934529,80.347453,78.82523,77.155676,75.554968,73.917802,72.182674,70.693391,69.195305,67.741873,66.080008,64.425676,62.584971,60.895494,58.984857,57.041332,54.744699,52.659196,50.597091,48.667421,46.867189,45.03754,43.309826,41.643372,39.947121,38.094282,36.560209,34.937655,33.472159,32.033384,30.586807,29.267587,28.344535,27.519662,26.946463,26.231569,25.726978,25.611581,25.729469,25.995142,25.936629,26.233615,26.645557,27.299283,28.147561,28.965988,30.169618,31.554006,33.088515,34.574186,36.228853,38.179736,40.529149,43.115762,45.751788,48.389232,51.010019,53.427834,55.389876,56.57284,57.1628,57.12704,56.186614,54.610005,52.615295,50.174956,47.612207,44.978107,42.599053,40.220522,38.054596,36.39403,35.447931,34.9356,35.267593,36.016692,37.308709,39.073576,41.091667,43.137321,45.668053,48.113923,50.987432,54.1349,57.672038,61.062339,64.924477,68.862976,72.815902,76.742631,80.796519,84.967915,89.028979,93.11958,97.185879,101.06001,104.78969,108.44061,112.15837,115.51431,118.83643,121.90493,124.69354,127.59031,130.32804,132.66656,135.03997,137.22951,139.37848,141.54006,143.08385,144.7192,146.21468,147.76949,149.20198,150.34714,151.38942,152.37584,153.02086,153.29621,153.40499,153.01056,152.20992,151.28505,149.92478,148.31081,146.40338,144.68799,142.72895,140.47799,138.02417,135.39134,132.60862,129.65056,126.3901,123.17493,119.93354,116.53151,113.2314,109.7433,106.08425,102.73343,99.301727,95.912123,92.725561,89.498761,86.480768,83.784578,81.215849,78.616494,76.225566,74.451526,72.838071,71.629873,70.779364,69.979181,69.640409,69.702621,70.651849,71.991478,73.807447,76.217313,78.748252,81.299548,83.454331,85.190163,86.28992,86.775103,86.441815,85.440968,83.833916,81.386388,78.505412,75.64174,73.150409,71.067686,69.358105,68.170082,67.633544,67.333913,67.587027,68.091504,69.055287,70.008661,71.473322,73.003171,74.56299,75.791719,76.773647,77.564247,78.077031,78.461351,78.620873,78.340242,78.077677,77.967568,78.205157,78.279925,78.184584,77.92385,77.223747,75.918207,74.484479,72.546427,70.75965,68.671706,66.125515,63.649243,61.142557,58.396325,55.834406,52.723159,49.711056,46.801386,43.678043,40.416339,37.314813,34.518471,32.081205,29.918289,27.302126,25.013111,22.419827,19.765448,17.016726,14.024497,10.874701,7.4847482,4.1620706,0.90886176,-2.1329867,-5.497445,-8.5259729,-11.502259,-14.118282,-16.422573,-18.229904,-19.542417,-20.657634,-21.881989,-23.320569,-25.284521,-27.846871,-30.539891,-33.137418,-35.368146,-37.206887,-38.532631,-39.422548,-39.67636,-39.418371,-38.68332,-37.835596,-36.816008,-36.009948,-35.334346,-34.487797,-33.445288,-33.460802,-33.779635,-33.750083,-33.325503,-32.79033,-31.901447,-30.67687,-29.464386,-27.871535,-26.111426,-24.365767,-22.975343,-21.57688,-20.375127,-19.470091,-18.58079,-17.717737,-16.726163,-15.549724,-14.370458,-13.076155,-11.815037,-10.605376,-9.0970189,-7.6175452,-5.3513245,-2.4618297,0.95272154,5.355142,10.377293,15.819056,21.270057,26.956,32.613151,38.670358,44.937644,51.299695,57.831749,63.935565,69.842845,75.818146,81.568001,87.497587,93.330566,98.916909,104.63824,110.61795,116.60935,121.93517,126.88101,131.18137,135.48631,139.51051,143.56828,147.64959,151.33586,155.17681,158.65953,161.86962,165.0069,168.00671,170.68126,173.15667,175.40175,177.88863,180.31839,182.69442,184.89518,187.20644,189.70526,191.80436,193.21749,193.78498,194.08849,194.0257,193.73671,193.38684,192.74811,192.03412,191.3049,190.82732,190.38012,190.03967,189.80756,189.76341,189.90078,190.42182,190.84707,191.14742,190.9918,190.12322,188.95061,187.57295,186.25216,185.19105,184.58818,184.57522,185.10477,186.14285,187.39888,188.88809,190.35808,191.93306,193.45727,194.84863,196.02666,196.97333,198.21347,199.40048,200.16725,200.42441,201.51679,203.15831,204.74568,206.16647,207.65778,208.98742,209.97483,210.50762,210.87671,211.12252,211.35455,211.20993,210.93594,210.73283,210.77456,211.0314,211.85482,213.58037,215.41558,217.43131,218.73501,219.43554,218.87117,217.57279,216.24786,214.92787,214.05856,213.45957,213.20669,213.09529,213.60191,214.93496,217.32704,220.38824,223.59974,226.89953,230.54422,233.61592,236.61444,239.48074,242.35557,245.63363,248.71571,251.59164,253.98444,256.16044,258.32331,260.12873,261.63951,262.88095,264.07405,264.78404,265.32129,265.12335,264.13714,262.47512,260.27185,257.0322,252.81122,248.0326,242.37995,235.79794,228.72729,221.10718,212.71765,203.66129,194.12874,184.03771,173.05071,161.10297,148.23493,135.3502,122.10437,108.4596,94.555254,80.150633,65.636583,50.969692,35.846489,20.651915,5.3329788,-9.568935,-24.015074,-37.92501,-51.611671,-66.483649,-82.118713,-97.668318,-113.707,-130.10837,-145.84252,-161.90209,-177.10433,-192.48194,-206.57508,-220.47362,-232.38839,-243.56947,-254.15249,-263.94084,-273.26967,-282.35086,-290.50527,-298.10154,-305.03146,-311.25566,-316.34402,-320.40466,-324.09343,-327.24332,-329.68938,-331.64277,-333.06313,-333.4874,-333.66781,-333.6191,-333.1437,-332.71917,-332.01026,-331.32007,-330.63492,-330.06686,-328.5272,-326.83385,-325.29564,-323.68648,-322.19374,-321.24893,-321.80898,-323.78597,-327.99088,-332.99323,-338.39744,-343.84606,-349.43338,-355.39415,-360.78204,-366.40873,-371.69897,-377.36901,-382.48418,-388.12864,-393.43777,-399.78622,-406.03989,-412.90654,-420.08218,-427.4248,-434.47269,-441.875,-448.90033,-455.85172,-462.63017,-468.96275,-475.60733,-481.18077,-486.77941,-491.70082,-496.47962,-500.6554,-504.71656,-508.29043,-511.33858,-515.12487,-518.8768,-523.00248,-526.94151,-530.45643,-534.05022,-536.96361,-539.70298,-541.24888,-542.17861,-542.41659,-542.94413,-543.16235,-543.37985,-543.6276,-543.25668,-542.53025,-541.40316,-539.74973,-538.14029,-536.24697,-533.75207,-531.42187,-528.27822,-524.83021,-520.6453,-515.36372,-509.59595,-503.9843,-498.01047,-493.00685,-489.19579,-486.95035,-484.67112,-482.51691,-480.12257,-477.68366,-474.31284,-471.63585,-468.33533,-464.76636,-460.22146,-456.62703,-452.34606,-449.33018,-445.991,-442.85368,-440.28786,-437.80154,-435.20636,-432.22056,-428.94024,-425.47703,-421.82549,-418.39889,-415.26149,-412.34796,-408.91449,-405.51233,-402.24443,-398.91744,-396.30883,-393.56677,-390.66189,-388.68685,-386.61601,-383.80372,-381.36461,-378.26464,-375.01097,-371.99466,-369.33109,-366.43024,-363.69689,-361.45925,-358.95679,-356.87658,-355.09834,-352.49982,-350.40201,-348.36759,-345.82705,-343.3408,-340.77164,-338.1479,-335.51898,-332.17363,-329.26749,-326.86115,-324.48718,-322.36339,-320.01262,-317.81624,-315.94172,-313.60849,-311.02691,-308.68515,-305.76621,-302.89135,-300.05918,-296.96103,-293.87064,-290.17431,-287.03723,-283.60821,-280.41689,-276.89312,-273.59842,-270.03103,-267.20892,-264.62462,-261.4819,-258.4659,-255.08307,-252.04041,-249.10727,-245.27081,-241.29293,-237.96683,-234.85172,-232.0093,-228.96349,-225.41966,-222.49316,-219.37517,-216.39139,-214.14312,-212.04063,-210.35108,-208.88905,-206.57251,-203.73071,-200.64283,-198.07856,-195.48134,-192.65292,-190.04412,-187.89214,-185.8701,-183.44689,-181.93651,-179.76619,-178.49397,-176.6071,-175.02459,-172.38919,-170.13843,-166.99541,-164.56774,-161.56253,-158.57282,-155.9008,-154.07148,-151.73923,-149.07154,-145.91948,-143.42875,-140.83126,-138.01219,-135.15474,-131.89831,-129.0234,-126.01114,-122.78357,-119.43853,-115.85054,-112.41167,-108.45233,-105.34647,-102.45757,-99.327309,-95.838636,-92.186537,-88.5471,-85.621185,-82.100855,-78.638343,-75.380838,-71.857305,-68.634422,-65.479537,-62.777771,-59.858274,-56.460396,-53.881162,-50.987243,-48.355378,-45.450429,-42.549897,-39.746887,-36.53394,-33.00936,-30.161621,-27.851513,-25.065322,-23.363106,-21.05939,-19.855339,-18.289275,-16.877584,-14.805066,-13.190814,-11.41894,-9.8231712,-8.7262217,-6.9554308,-5.5731493,-3.8741162,-2.131621,-0.99902281,0.40268868,1.5152647,1.6924987,2.2611645,2.5848743,2.8420564,2.8678226,2.8767652,3.0664144,3.3066425,4.2099866,4.878047,5.5573084,6.3621075,7.0409618,8.2238548,9.4600918,10.839918,11.587007,13.267766,15.088234,17.874854,19.733274,20.320122,20.542045,21.008905,21.997505,22.96717,24.189914,25.716058,27.485932,28.356138,28.822828,28.820594,29.861843,30.618342,31.588331,32.490426,33.005543,32.819858,31.954668,30.568006,29.010138,28.145102,26.862849,26.239626,25.69654,25.335841,24.177011,23.583573,22.867581,22.140524,21.118167,20.690372,19.359511,17.919288,15.252433,13.452603,11.693092,9.742909,8.0061201,7.1463685,6.6078143,5.8262902,4.7584311,3.333114,1.4699557,0.21347468,-1.1435784,-2.5347981,-3.6829209,-5.5544917,-6.9143369,-8.245459,-10.229924,-11.971443,-13.231223,-13.974073,-15.095002,-15.912051,-17.753366,-18.531542,-18.601888,-18.276711,-18.507404,-17.79883,-16.152703,-15.110315,-14.96393,-14.632156,-14.452801,-13.874199,-13.012121,-11.935718,-9.5406652,-7.1560297,-4.2330361,-1.3581439,1.8012359,5.0229957,8.0643538,11.620184,15.146314,19.375566,23.475192,28.817492,33.27616,37.880817,42.595683,46.986958,51.049424,55.676509,59.674429,64.645778,68.841356,73.197811,77.830308,82.937753,88.235506,92.814045,97.603429,101.42949,106.22811,110.90353,114.76118,118.82267,123.30676,128.29714,132.7991,137.22553,140.32101,142.99792,143.8984,145.49402,147.6156,150.16405,152.2802,154.30156,155.85997,156.79215,156.23821,156.37988,156.86078,157.85972,158.68899,158.91105,158.6158,157.88213,156.23739,154.6367,153.01261,151.91956,151.6193,151.203,150.66859,150.3222,150.0614,149.38459,148.52198,147.84611,146.76731,145.50997,144.3257,143.20679,141.85564,140.63916,139.24617,139.84384,140.33044,141.3315,142.26478,143.53349,143.98956,144.35564,145.11873,144.53582,143.72189,143.46377,142.59897,142.80813,143.34975,144.23966,146.31728,148.04192,149.89041,152.58999,154.94534,156.77781,157.04438,158.51012,159.87786,162.61044,165.26316,167.35328,169.34174,170.27801,169.51709,168.09734,166.49285,165.00625,162.94553,161.77634,160.12911,158.07299,156.56517,153.92905,151.23045,148.42355,145.36247,142.29796,139.05754,135.57342,132.14912,128.74529,124.55712,120.86598,116.42188,112.10467,108.36523,103.92982,99.426073,95.68482,91.456195,87.853608,83.991954,80.4798,76.993156,74.054295,70.790684,67.718292,65.920936,63.512136,61.711615,60.118669,59.238991,58.629425,58.39327,57.863194,56.843598,56.081716,54.663879,53.778647,53.444671,54.45704,55.242866,55.310682,56.171503,57.045994,57.761724,59.294038,60.603335,63.394466,65.582695,67.446293,69.616522,71.819611,74.382306,77.279571,80.448872,83.799872,87.755163,91.190833,94.542299,97.64627,101.18615,104.2256,106.61716,108.50111,110.59483,112.93699,115.56798,118.37246,121.59613,124.23943,126.17009,127.83072,129.17014,130.0615,131.2424,132.63173,132.24524,131.73841,130.63094,129.61099,127.65736,125.09151,123.13029,121.63424,120.49923,120.47262,119.55898,118.20189,116.16242,114.29655,112.89005,111.41741,108.96809,106.25473,103.44301,102.79381,101.52138,99.835498,97.897522,96.239069,94.581525,92.184344,89.882608,87.102845,83.92178,80.294518,76.774282,74.29726,71.188149,68.234393,66.145046,64.429932,63.074377,61.37553,58.654934,56.566757,54.156017,51.389352,49.350723,46.285992,44.057503,42.467797,40.12184,38.040556,36.572333,35.053903,34.166736,33.192224,31.966706,31.106074,29.594123,28.80984,27.746359,27.367762,26.718606,26.731141,26.819768,25.56352,24.9985,25.389606,25.536816,25.534237,25.758783,26.276263,27.093767,28.595487,29.299131,30.253328,31.718294,32.386997,33.692428,34.14922,36.087904,37.631349,38.992753,40.503362,41.37443,42.230659,43.214648,43.882266,45.964709,47.87218,49.513416,50.90553,51.763637,52.949632,54.412317,54.77365,55.923844,56.859573,58.114094,58.687829,59.223088,59.345069,59.256556,59.370181,60.299203,61.286763,62.964737,62.925417,62.925902,62.817541,62.27979,61.938633,62.588778,62.158757,61.130262,60.863311,60.620022,60.378784,60.077818,60.203474,59.510221,58.494031,57.350322,56.463588,54.65846,52.778402,51.584682,50.100854,49.108306,47.86286,46.487266,44.940354,44.462244,43.858619,43.129492,42.899861,42.84496,42.936432,42.189184,41.540713,39.975619,38.566854,38.236982,37.931369,38.041534,38.523935,38.078405,37.114514,37.078476,37.442239,37.71506,37.279896,36.24491,36.235036,36.013422,36.049752,36.306826,36.538926,37.07621,36.905678,36.721475,36.780058,36.895588,36.674267,36.910073,36.836187,36.513318,35.707039,34.986076,35.037935,35.022587,35.331908,34.968057,34.531901,34.258914,33.24832,33.15902,32.876967,32.399579,31.705551,31.26008,31.079092,30.740637,29.957307,29.158098,28.480032,27.431922,26.580451,25.92683,25.635569,25.842814,24.516286,23.237834,22.478716,21.709344,21.274713,20.33867,19.226592,18.947454,18.406763,18.229125,17.229651,16.268346,15.514355,14.562165,14.46699,14.964664,14.298747,13.525868,12.724116,11.942075,10.875998,10.456714,11.476596,12.511026,12.673091,13.046953,12.550071,12.062012,12.661817,13.468837,13.978088,14.366826,14.728656,15.153986,16.301578,17.313931,18.586635,18.700085,19.801181,19.62952,20.034857,20.518973,20.854403,21.56565,23.425793,24.988793,26.295643,27.244146,27.8617,28.066681,26.903775,25.015838,21.554222,18.248252,15.785822,13.136381,10.954896,8.8013259,7.1724228,4.7727234,4.1545524,3.3804315,2.5763001,2.453335,3.0521657,4.0207769,4.6928175,4.4722852,3.947385,2.9715288,2.1287189,1.7477152,1.8249388,2.7760119,3.567403,4.9593686,6.1056965,7.502805,9.240342,11.27667,13.826506,15.772312,18.377413,21.862018,24.866389,28.190425,31.740916,36.268469,40.695189,45.58458,49.367787,52.568092,54.882517,57.310275,60.069291,63.036471,65.693158,68.535784,71.078405,73.938005,76.987272,79.57356,82.612626,85.695856,88.455946,90.199869,92.912514,95.250832,98.057817,99.633109,101.35885,103.01473,105.01564,106.97843,108.49451,109.59307,110.98821,111.51986,112.31241,112.59854,111.68417,110.67126,108.89102,108.76543,108.81424,108.66035,107.68714,107.04921,106.3175,105.84954,105.27954,103.84896,102.22066,99.748006,97.949826,97.037134,96.067625,95.110316,94.366816,93.162119,90.939163,88.864062,86.975349,85.455886,84.515799,84.305904,83.926674,82.762133,83.067975,81.773089,82.273386,82.781429,83.63036,85.276777,86.623208,87.400219,86.804775,83.715544,79.487765,74.090739,68.615879,63.746371,58.998326,55.242321,52.223986,49.332273,46.573839,43.247762,39.513358,36.548964,35.706872,34.486121,33.48935,31.250949,27.431138,21.901534,15.85637,10.251922,6.4993599,3.6122015,1.913704,-0.040038594,-2.0165362,-3.5625109,-5.1104645,-5.5973056,-6.2587726,-5.7658816,-5.6096641,-4.3056078,-3.0382181,-2.0513099,0.11925571,2.800402,6.8364537,10.625841,15.008246,18.587359,21.362798,23.746931,26.460451,28.709268,31.389881,35.106986,39.225138,43.514238,47.816403,51.666946,55.07927,58.690186,61.787446,65.739108,70.379167,73.888671,77.798927,80.762522,84.863045,86.731355,88.940464,91.186647,94.183675,96.880931,99.678318,101.78634,103.22056,104.39055,104.97948,105.24819,105.27518,104.56078,104.31738,103.75506,104.18937,105.21388,105.43317,105.25875,104.50003,103.73622,102.34911,101.28038,100.25571,98.272857,96.690463,95.26922,94.377582,93.245486,91.356885,89.454247,87.499014,85.759152,83.244779,80.633788,77.586527,75.081592,73.074907,71.93511,70.343707,69.616814,69.848091,69.790617,71.09197,72.419196,73.838003,75.020948,76.293488,76.681065,75.99507,75.135318,74.435702,75.708124,77.542309,79.423657,80.679416,82.649638,83.695173,84.816189,85.143726,85.386774,85.843714,86.54911,86.942044,86.389968,85.375912,82.981122,79.706471,77.35051,77.027453,76.374824,75.141216,72.863557,70.806457,67.626033,64.895188,61.275003,58.776902,55.887342,53.318301,51.128949,47.347173,43.967053,40.046537,36.424608,33.775133,31.325055,29.256334,25.790769,22.372409,18.046298,14.122144,11.112657,8.2141579,4.924337,1.6192544,-2.0843902,-5.6053806,-8.8734433,-12.221644,-15.606855,-18.53607,-21.366009,-23.788002,-26.018621,-29.446528,-32.91494,-36.254665,-38.904803,-40.988395,-42.249117,-42.94767,-44.037135,-45.127301,-46.064846,-46.868509,-46.942716,-47.743696,-49.217003,-50.214548,-51.267221,-51.680521,-51.889582,-51.773368,-51.318282,-51.221682,-50.78665,-49.967963,-48.651765,-46.632998,-44.486486,-42.295503,-41.02759,-39.638682,-39.516596,-38.840604,-37.844044,-36.954889,-36.169448,-35.897652,-34.667926,-33.993396,-34.819366,-36.370532,-37.120033,-37.354652,-36.702876,-35.473241,-34.307153,-33.002838,-32.049128,-30.843336,-30.437913,-29.239811,-28.090264,-26.279633,-25.312658,-24.327052,-23.234486,-21.928112,-20.359189,-18.460128,-16.937861,-16.574692,-15.252264,-14.07723,-12.790148,-12.791826,-12.130633,-11.00888,-9.8274066,-8.8755723,-8.6968292,-8.0102939,-6.9365438,-6.3880016,-5.8162057,-7.0938143,-7.2029846,-7.2284742,-8.1302075,-9.6631854,-10.80015,-11.738399,-13.262197,-13.244404,-14.018758,-13.993391,-15.132594,-15.253062,-15.896125,-17.311733,-17.37724,-17.690644,-17.634449,-16.950868,-16.709448,-17.30233,-18.084555,-18.661464,-18.52581,-19.211528,-19.162498,-20.174361,-20.074777,-20.832174,-21.064277,-21.482563,-21.678932,-21.23757,-21.332328,-21.851923,-22.258985,-22.994845,-23.965936,-23.894925,-23.466731,-22.000527,-21.106161,-20.417701,-19.671667,-20.322693,-20.465095,-19.639731,-18.546789,-17.318383,-17.283865,-18.948772,-19.524307,-18.884434,-18.720564,-18.18084,-18.060448,-18.047175,-18.164041,-18.576186,-17.435683,-16.791354,-15.330375,-14.942626,-14.926643,-15.961457,-18.252668,-19.054405,-20.230618,-19.932005,-20.035401,-20.614037,-21.852817,-22.362565,-22.996011,-23.919608,-25.096529,-25.840525,-25.614812,-25.987047,-25.183782,-25.956793,-26.958991,-28.524579,-29.985909,-31.602379,-33.242477,-34.694759,-36.093619,-37.327589,-38.254726,-39.004837,-39.715214,-39.296861,-39.043689,-40.342869,-41.392595,-42.631365,-41.863986,-41.858866,-41.088717,-40.931213,-40.905169,-40.558501,-40.398145,-39.505934,-39.16889,-38.081973,-36.95024,-36.650114,-36.055403,-37.335506,-37.121843,-36.981896,-36.332929,-36.196401,-35.648923,-34.598539,-34.410907,-32.318243,-30.990263,-29.573235,-28.380666,-26.584794,-25.461092,-23.742499,-21.747004,-19.972142,-17.557422,-15.953603,-15.233533,-14.164208,-12.178282,-10.250237,-9.9321949,-8.4750377,-6.6059614,-5.1104114,-2.9902243,-1.6878908,-0.056498986,1.3588482,3.510028,3.3595437,4.1053934,5.1370303,6.8414176,8.041581,9.6090625,10.781942,12.49794,13.845794,13.469392,14.110798,14.454256,14.549476,14.159787,13.753433,13.175699,12.722362,12.041162,11.441345,10.902661,10.151132,9.0388709,7.8995778,7.3471497,5.7193204,4.9135905,5.1165181,5.1980159,4.9413753,4.6324536,3.6722281,3.6560839,3.5191077,4.9632642,7.4587814,9.3388973,10.92932,10.857597,9.8545006,9.4582837,9.5971065,10.053338,12.445389,14.620597,16.532175,19.012399,21.428613,23.360409,24.171449,25.611797,26.657295,28.917878,31.477344,35.233804,38.742615,42.444733,46.122327,49.083202,49.918027,51.499131,53.973986,54.488977,55.7063,58.591055,59.771927,62.044282,63.155876,64.831892,65.991809,66.952618,67.543407,69.062176,70.337055,71.339851,72.575492,72.100867,72.239991,72.286618,71.5869,71.490662,71.22296,70.088767,67.704795,66.905134,66.294286,64.247294,63.630415,60.759811,59.176234,56.439036,54.137467,51.029461,49.417004,46.828501,44.783397,42.372548,39.732596,37.578249,35.596878,32.46962,27.665581,22.829735,19.621058,16.456931,13.087989,9.1375954,6.341669,3.6316395,1.7107355,-0.74986798,-3.6771417,-4.4481438,-6.2395886,-7.3751846,-8.4760789,-8.3876172,-8.736144,-8.5948982,-9.7535977,-10.717902,-11.375185,-12.441781,-13.063305,-13.484378,-14.088019,-14.310732,-14.697202,-14.690121,-16.366372,-16.67154,-16.358567,-16.617787,-17.126363,-16.461153,-16.121784,-15.998991,-15.435481,-15.440282,-14.778995,-14.632567,-14.176956,-13.764332,-12.803119,-11.908257,-12.387748,-14.146989,-15.979138,-17.928515,-18.940533,-19.818342,-20.820306,-20.214732,-20.197538,-20.341405,-20.682195,-20.470421,-21.081927,-22.282235,-22.126157,-22.21622,-21.732156,-21.031765,-20.730733,-20.293798,-20.354575,-23.019838,-24.527112,-26.828951,-28.824393,-29.027928,-29.702134,-31.452262,-33.446584,-34.261117,-36.394102,-37.487398,-39.111179,-40.301528,-41.625486,-43.535931,-44.223058,-44.401937,-45.246625,-46.118121,-47.0959,-48.382402,-48.666561,-49.202366,-48.837986,-47.932259,-49.207746,-50.343511,-51.464662,-52.409275,-53.528073,-55.322077,-57.310127,-59.137224,-59.183082,-60.739625,-61.249189,-61.346341,-60.942019,-61.333652,-60.392354,-60.436341,-59.697557,-59.979201,-61.80352,-63.146773,-63.330811,-62.374814,-61.45026,-60.091997,-60.448117,-58.244175,-56.043674,-54.886832,-53.224498,-52.591237,-50.600095,-48.990966,-47.513137,-45.462474,-42.570092,-39.596418,-37.805645,-36.694162,-35.528004,-33.609154,-32.268413,-30.409629,-28.130662,-27.421063,-26.358442,-25.016641,-23.168481,-20.751148,-18.830924,-15.941221,-14.57018,-15.337017,-15.802823,-17.170667,-18.586851,-19.279862,-19.576045,-20.660221,-21.937975,-22.5038,-23.141942,-23.585155,-23.652486,-24.700552,-24.801935,-24.46663,-24.841067,-25.401012,-26.296516,-27.321394,-26.187315,-25.0423,-24.038384,-23.332787,-23.042411,-22.56931,-22.406687,-22.183063,-20.593409,-19.486418,-18.20112,-17.274736,-16.737717,-16.243351,-15.074093,-14.745224,-12.894567,-12.056033,-10.680743,-9.0094796,-7.8303217,-7.1436428,-5.7580785,-3.0645177,-1.4111006,0.44985276,1.5704584,3.4881414,5.5202018,7.8035055,10.507741,11.722612,13.796627,16.788657,21.011381,23.628784,26.97549,27.793755,27.996551,27.404103,25.496779,24.458007,22.27741,19.976361,18.380061,16.85726,15.405734,13.889932,12.567631,10.995249,9.3118009,8.8039259,7.7100274,6.3440123,5.1760635,4.6240696,4.2708836,2.1474737,1.6269481,2.1882659,2.9155807,2.2817105,1.7365716,1.5859667,1.0436417,2.8688147,2.5868276,2.3407256,2.7633,3.0515545,4.1045143,4.5732243,4.9574022,6.0244059,6.6857205,7.5879739,7.9725915,7.8513519,8.8190183,10.02519,12.165031,15.085482,16.377267,17.745642,20.033459,23.515347,26.968659,29.929753,31.172422,31.575061,31.393938,30.501889,31.017146,30.693631,31.369255,33.471612,35.232667,37.417934,36.855676,35.669918,33.273173,30.712582,28.987672,25.937996,24.284101,21.396163,18.318383,15.531606,11.772279,8.9438311,6.3790659,2.94685,-1.3903991,-5.9876435,-9.4080796,-12.852145,-17.030282,-20.988982,-24.354267,-27.698224,-31.397385,-35.184625,-38.506452,-41.203791,-44.24643,-46.228075,-47.982546,-48.944367,-51.013201,-53.321881,-55.010702,-56.015997,-56.185905,-56.023216,-56.333137,-56.81574,-56.470507,-55.870625,-55.130698,-53.719228,-52.573583,-51.838177,-49.491138,-48.243631,-47.351653,-48.104269,-47.644381,-49.224219,-49.07261,-48.965416,-48.024705,-47.669885,-46.910052,-46.488908,-45.725459,-44.827341,-44.426756,-43.785392,-42.712428,-42.03879,-41.087765,-39.145587,-39.022432,-38.952874,-38.821523,-37.141106,-37.053204,-36.067131,-34.774538,-34.183416,-34.110361,-34.180707,-33.789606,-33.01519,-33.08889,-32.290006,-32.583045,-32.728453,-33.94007,-34.742009,-35.38201,-36.306901,-37.045943,-38.70382,-40.559249,-41.513666,-43.586161,-44.127777,-44.614366,-45.692166,-46.209425,-47.465449,-48.812728,-48.62335,-49.131886,-48.700466,-48.967109,-48.597892,-48.588276,-48.069236,-47.88419,-46.153432,-45.011262,-42.254187,-39.226772,-35.21347,-33.702284,-33.235269,-35.105193,-35.504779,-33.973785,-32.463591,-30.171301,-29.284169,-27.932836,-26.132152,-24.771436,-24.246763,-24.043858,-23.031571,-21.784799,-20.622158,-19.543417,-17.917208,-16.95024,-16.423134,-15.863038,-15.262764,-14.091274,-12.918933,-12.318942,-12.673691,-11.81146,-11.653203,-11.389148,-9.9392664,-9.1790548,-8.1432261,-7.5188461,-6.6185748,-4.9588133,-3.1811052,-1.6667919,-0.10937973,-0.046011924,1.8220755,3.5473297,4.7808439,6.3118025,7.2146428,7.2819316,8.1194307,9.6542001,9.3463068,11.106382,11.353444,11.974253,12.181509,12.835397,13.508863,14.6232,15.509549,18.952434,19.449176,18.565526,16.973372,15.394474,13.745509,11.347376,8.9893635,7.6891514,6.2591995,4.660588,4.0232004,2.0301148,1.3218268,-1.439492,-3.717362,-6.41508,-8.8754073,-11.142929,-13.390369,-14.200285,-14.471399,-14.707186,-15.274858,-15.884849,-17.145567,-18.979714,-19.828748,-20.731771,-19.975622,-19.502372,-19.558773,-18.516695,-18.328124,-17.019925,-14.904287,-13.430975,-11.753051,-9.8380864,-8.0027498,-5.7485589,-2.3379611,0.67328464,4.1866099,7.1997547,10.924238,14.463421,18.433583,22.85184,27.228455,32.160547,37.334006,42.195542,46.252983,50.524728,54.834557,57.665797,60.869742,64.262575,68.330465,73.283569,77.56442,81.789666,86.208114,88.666332,92.046514,95.844682,100.2938,103.66485,107.35018,110.06053,111.92609,113.57822,115.72662,116.29376,116.12688,117.80122,118.20323,117.16587,115.92445,116.6846,116.14515,114.79391,113.03183,111.00751,109.49106,107.32132,104.3736,101.82373,98.285332,96.211531,93.723009,89.385731,86.89905,83.257927,79.805385,76.858617,72.7744,69.123006,64.459495,60.82155,57.805732,55.94925,52.579098,50.238977,47.424428,46.161836,44.950376,42.134857,39.427541,36.591993,30.538313,26.98326,23.460752,20.133171,17.969166,15.392704,13.472962,11.455546,9.2454966,7.1835264,4.312452,1.1138902,-1.2799997,-4.2869753,-6.158448,-8.2473209,-10.504404,-11.632371,-13.148894,-14.154703,-15.607567,-16.716823,-19.711373,-21.685567,-24.062876,-25.795945,-27.733673,-28.203516,-28.214241,-30.202805,-30.604075,-31.377591,-33.128533,-32.578943,-33.48856,-33.449915,-34.132954,-34.616567,-33.960837,-33.590243,-32.278255,-32.528064,-32.396536,-32.96482,-31.869561,-31.162045,-30.494552,-29.980704,-29.30692,-25.699778,-25.233442,-25.0838,-26.827912,-27.725876,-30.488532,-31.05749,-32.40737,-32.810048,-31.851176,-32.487642,-33.592454,-34.999152,-35.641841,-36.949546,-37.634658,-38.070226,-38.42459,-39.398504,-39.761292,-40.612589,-40.36113,-40.636509,-40.646768,-42.34311,-42.79259,-41.681441,-41.786977,-42.418266,-42.195124,-42.900271,-42.312546,-42.177266,-41.573036,-41.932999,-40.301832,-39.082323,-38.484541,-37.63775,-36.653435,-35.094062,-34.378227,-33.085635,-30.227088,-28.686096,-26.973003,-24.861902,-24.162333,-22.605889,-21.430412,-18.802912,-16.379467,-14.076049,-12.721372,-11.901368,-9.9205957,-7.5154752,-6.5312241,-6.1913621,-4.0189862,-1.425971,0.085408985,2.3531329,2.9940798,3.3652502,5.1252121,5.9923116,7.9900362,8.5230443,9.2976203,9.2751424,9.6133566,11.037789,10.879992,12.111064,11.58376,11.327555,11.629672,12.257776,12.108098,11.471103,11.513384,10.868011,9.668183,8.9038998,8.5127455,7.2326104,6.2410395,5.8539401,5.1267081,2.9599835,1.3245767,0.00742025,-1.5263635,-2.3887579,-4.8756774,-5.6358644,-6.7733314,-8.8415219,-10.030485,-11.040333,-11.127788,-13.082652,-13.818305,-14.851607,-13.828477,-14.105742,-13.980039,-13.027885,-12.66299,-11.83783,-14.233186,-14.57877,-14.389175,-14.925476,-16.598838,-15.723873,-16.548989,-15.862682,-16.740486,-17.683689,-17.763075,-17.832674,-18.420383,-19.853459,-20.159098,-19.94699,-20.424936,-20.381028,-20.954658,-20.883617,-21.243725,-21.429249,-22.268307,-23.650708,-24.560796,-23.913011,-23.548199,-24.097657,-24.114472,-24.029275,-22.262736,-23.841065,-24.818308,-26.548866,-26.715025,-27.074757,-27.803097,-28.434293,-29.760582,-30.803714,-30.154951,-29.50901,-29.647916,-30.676318,-30.978401,-30.601509,-30.373854,-30.654616,-31.220957,-30.704329,-29.972548,-28.936765,-28.631826,-27.858909,-26.014459,-25.192914,-23.05956,-21.015667,-21.625705,-20.070567,-20.808417,-20.289075,-21.80444,-23.560235,-22.373011,-23.150149,-22.818934,-23.722335,-24.102454,-25.122405,-23.950884,-23.101678,-23.075011,-22.740691,-24.107734,-22.067736,-20.702521,-20.483698,-21.260061,-20.93086,-20.522454,-20.282816,-18.853132,-18.641789,-18.677377,-17.982744,-16.449723,-15.421783,-15.611498,-16.77231,-16.559289,-14.797741,-14.926601,-15.551682,-15.7851,-14.804283,-14.321311,-14.59606,-13.987478,-14.057831,-13.847224,-13.511152,-12.46727,-11.670732,-12.292799,-12.740563,-11.411183,-10.157392,-9.0730293,-8.122321,-9.4291134,-7.4801332,-6.7775321,-6.5683048,-6.7566751,-5.1184651,-4.4613812,-5.4529107,-5.0493701,-4.5970032,-4.5341749,-3.292389,-1.470562,-0.54120582,-1.0099053,-0.67278474,-0.92075299,-0.74040587,-1.0123561,-1.4751801,-2.0668129,-1.9832802,-2.823184,-3.2187454,-4.0086179,-3.9416375,-4.6029967,-5.7058196,-6.044003,-8.1254585,-9.5793914,-12.186825,-13.136387,-14.185673,-15.326307,-16.39749,-17.341499,-18.643262,-20.043188,-21.344549,-22.21103,-24.288419,-24.069787,-24.832222,-24.187681,-24.073692,-23.563851,-23.064756,-21.98478,-20.363174,-19.639256,-17.558925,-14.858034,-11.994381,-9.3026066,-7.748171,-6.5458865,-4.7759683,-3.3319987,0.17574561,-0.25566229,1.6443127,1.2986135,2.4655869,5.8430712,6.0381703,7.6423523,8.4426558,10.062797,11.559223,14.0951,15.453664,17.317096,19.383256,20.730294,23.632668,23.527,25.512894,27.839941,30.515436,31.06594,31.633863,34.162005,34.88825,36.23596,37.28972,37.762781,38.173536,38.287891,37.128983,37.309054,37.285773,37.433155,36.476839,35.246586,34.257666,32.42302,31.967535,30.756121,27.945863,26.220434,23.583826,20.607654,19.496065,16.519371,15.41848,12.769087,11.823692,9.0440755,6.6223156,4.0650403,3.693352,0.84881938,-1.2403141,-4.5691062,-6.2262534,-8.5597377,-10.491318,-10.309292,-11.961932,-13.276922,-14.510305,-16.690635,-19.236868,-20.622354,-21.914564,-23.953178,-24.92872,-24.375079,-26.563621,-27.229006,-28.101298,-29.678839,-31.463388,-31.738202,-31.584824,-32.436376,-32.332456,-34.041308,-34.256168,-34.291706,-35.126927,-36.474926,-36.669427,-38.166946,-38.705878,-38.891802,-40.352449,-41.875441,-43.518976,-45.171481,-45.005573,-43.064083,-43.665447,-43.7345,-46.057196,-46.291032,-47.980138,-50.542064,-51.219365,-53.483414,-55.054199,-56.486827,-57.459709,-59.498633,-62.055382,-63.824499,-65.55497,-68.147916,-70.263439,-74.18978,-77.226917,-81.260109,-83.121667,-84.3224,-87.262172,-89.603044,-92.096946,-94.024699,-96.406199,-98.589327,-100.0735,-101.33744,-103.29375,-103.51353,-103.93994,-104.98096,-104.49779,-105.67094,-106.58618,-107.68232,-108.45658,-108.61405,-109.86912,-110.34051,-111.45347,-110.50936,-111.61968,-112.03689,-112.05024,-110.77181,-110.1065,-109.7969,-110.01922,-108.6791,-106.3848,-105.54135,-102.90282,-102.7099,-101.66448,-97.500742,-94.53046,-91.313308,-87.241749,-84.870516,-80.667067,-76.457579,-72.156524,-69.514524,-64.063616,-59.639767,-56.074682,-53.045392,-48.888779,-44.97966,-39.2262,-34.834191,-31.289337,-27.536552,-23.056581,-19.488851,-15.793707,-11.314541,-5.8349403,-1.7632202,2.4346047,7.1570121,11.468711,15.272637,17.698487,22.94372,25.941264,29.679494,33.028504,37.548455,40.750643,42.902819,46.647568,48.420536,52.036206,54.218979,56.838015,58.46824,62.038819,64.558717,66.970605,68.494483,70.089239,73.158759,74.972997,77.239004,79.599764,80.998375,81.514823,80.912087,80.993203,83.375021,83.175053,83.358932,82.286055,80.319455,79.829719,80.01673,79.012187,76.180151,73.923869,71.72518,70.680994,69.707831,67.909664,65.046438,62.79986,62.969584,61.940062,60.883297,58.716469,56.471749,55.539658,56.065419,55.728924,55.19601,54.421317,55.411686,55.643071,56.330098,55.100159,54.419574,54.263743,55.102371,55.233856,54.58737,53.121992,53.649808,54.653479,53.443141,53.574203,53.619654,52.418574,53.101685,52.501686,51.255961,49.983788,48.649199,50.506791,49.967682,48.551015,47.285861,47.09151,46.755498,46.941371,46.1996,44.06188,44.29486,43.892387,43.424537,42.548679,41.907932,40.293934,40.945238,41.553221,40.297304,37.56202,36.596762,37.547624,37.656774,36.542782,34.42454,33.421941,33.331335,33.630656,31.298286,30.258141,29.650715,29.912403,30.336471,29.256298,27.103022,26.72191,26.615465,26.524417,26.125341,23.074866,23.276896,21.774684,21.618332,22.67472,21.146829,20.431374,19.626262,20.205817,19.828989,18.398579,17.541203,17.795089,17.082149,16.045355,15.681659,16.263916,15.698258,16.004059,15.90073,14.814344,15.661378,16.597224,15.843667,17.258623,17.832929,17.355375,17.131864,16.281473,17.280339,18.089035,17.96583,18.394471,18.342555,19.783921,20.002743,19.984646,19.816571,20.090766,20.93575,19.89705,21.495563,19.146212,20.822186,20.246171,20.190781,21.563195,21.486273,19.879193,21.127883,20.79463,21.577622,21.420217,22.035879,22.831147,22.039213,23.223334,24.050585,24.168454,24.288661,25.002112,25.334097,25.870722,25.539845,26.27356,26.091198,25.717972,25.598841,26.189257,26.379219,24.853201,24.848477,25.975048,25.431384,25.195852,24.229704,23.623214,23.653519,22.571607,22.062239,23.008616,22.174397,20.524499,20.97811,20.785448,20.97934,20.109722,20.697012,20.064682,19.177026,19.264722,20.191837,20.283716,19.967565,20.330799,20.864814,21.201204,21.069541,21.255805,22.584209,23.672131,22.05869,21.862403,22.2158,21.562477,23.801023,23.557379,24.326939,24.9746,25.834702,27.614221,28.76918,27.924844,31.179196,33.735472,34.136307,35.469119,36.551721,36.895485,37.595482,37.261116,39.031782,39.109672,39.780748,40.324649,40.997366,40.412189,40.266413,40.271811,37.809291,36.858445,36.547199,36.495596,35.862392,36.182695,35.20299,33.839791,32.491903,31.223416,30.854782,29.094885,27.508443,27.147787,24.8826,23.561951,21.021704,18.281226,17.400731,14.098998,11.624034,8.3716429,4.8738533,2.7274754,2.001437,-1.3293579,-3.6240319,-7.0260266,-10.250261,-12.380472,-13.514412,-17.901129,-20.083818,-22.503017,-25.175748,-28.427804,-31.618536,-32.386743,-33.711415,-35.946084,-39.077579,-41.980733,-43.426383,-44.498574,-45.48921,-47.338235,-49.704683,-53.304067,-53.386325,-53.978917,-55.999961,-58.33484,-58.218448,-57.759286,-58.092985,-59.815741,-62.450522,-62.069734,-61.348286,-62.042104,-63.276394,-63.132401,-64.376856,-61.869758,-61.89323,-61.406114,-62.130389,-61.382166,-61.140746,-60.386128,-58.084048,-56.159107,-54.949418,-54.175859,-50.644896,-50.412043,-51.81478,-53.111114,-54.46769,-55.054569,-55.801683,-59.285535,-61.086473,-60.852945,-60.115214,-61.378335,-61.877439,-63.827483,-63.268208,-63.145204,-62.931891,-63.928445,-65.444546,-63.952408,-60.286671,-59.679175,-60.419112,-61.80461,-61.193368,-58.223392,-57.739141,-57.587295,-56.045923,-56.529403,-53.645807,-52.256127,-51.059176,-51.115008,-49.191896,-48.679657,-46.831509,-43.513589,-42.355808,-40.282876,-37.497955,-35.563118,-33.485214,-32.369853,-30.767419,-27.8146,-24.602166,-22.36726,-20.153993,-18.537266,-16.491654,-13.121575,-10.47826,-9.6224223,-7.0086538,-5.7107621,-2.6234047,-1.3452352,-0.21918734,5.1646766,6.3109908,8.8987715,9.4644461,9.4902694,12.313687,13.663725,15.095446,15.520832,16.988212,17.483413,19.43758,20.221112,22.132801,23.516526,22.457381,22.741181,22.073949,23.515779,24.448614,22.910812,23.781153,21.278405,21.081858,20.734331,20.772168,18.936658,20.23892,17.542935,18.00091,17.448183,15.880603,15.076874,13.705307,14.885688,13.869326,12.610197,12.224765,12.504269,12.998167,11.443113,10.938639,12.691907,11.791293,13.235098,13.716095,16.112212,17.92781,16.953941,17.483834,17.074032,17.321181,16.085632,14.882986,14.176538,14.132031,14.240093,14.051942,14.694885,14.493366,12.360318,12.135178,12.592805,12.122562,10.995112,10.257253,11.00116,9.7178008,10.662793,9.3767158,10.161115,9.8978568,9.4285541,8.8224874,8.3168656,10.40928,10.878843,7.6487686,9.1476315,7.7453538,7.3957254,8.9681622,8.9879692,8.7090085,8.4037357,7.9297266,8.1021606,8.9403311,10.122206,8.8021857,9.8823634,11.225535,11.740744,12.116521,11.989967,13.160671,15.496053,15.982976,15.726614,15.569159,16.106047,16.947446,18.751663,19.548209,19.170048,20.769763,20.897509,21.707389,21.850156,22.903399,23.491669,23.202363,24.096965,22.300452,21.936363,23.033636,24.015001,25.531951,23.588118,24.592506,25.411725,25.795116,25.492389,25.543234,25.358154,25.176781,26.411469,25.611877,26.090056,26.617255,26.277499,27.912974,27.396321,28.960501,28.692432,29.309323,31.790702,31.570112,29.662736,30.778554,29.652209,28.571012,26.533981,25.875114,25.239086,23.639291,23.05354,21.88159,20.753557,21.327983,18.944881,20.966186,19.398602,16.895649,17.829192,17.627895,17.679828,15.837995,16.586125,17.624342,17.808521,17.494156,17.489702,18.524423,18.349634,18.553169,18.668508,18.15299,18.197923,18.085685,18.09546,19.214695,19.502641,18.326742,19.306557,19.596785,20.694555,21.269439,22.429331,20.405195,23.867563,23.552544,25.217762,25.085864,25.123606,26.913276,25.080906,23.491409,23.396855,21.370745,22.171339,24.245323,23.891972,22.924624,22.605704,23.306146,23.980642,23.746391,25.990114,26.927505,28.372495,29.78367,30.337122,30.540069,30.070048,31.887351,33.78067,33.659991,33.254985,34.303251,34.122952,36.065534,36.766957,36.083383,34.159895,34.565769,32.945931,33.952487,32.51894,30.575199,29.166749,28.140592,26.320665,24.551116,23.090001,21.801893,19.991562,16.384353,13.39522,12.783067,9.7951114,6.8514849,4.5077766,1.5600468,0.33344423,-1.1061369,-2.943297,-6.2423364,-6.8167348,-7.1252503,-9.2919965,-9.9066733,-13.694165,-14.244403,-15.111173,-16.438902,-19.62642,-22.26415,-24.547832,-26.684306,-29.791574,-32.376717,-34.87679,-34.409082,-36.703469,-38.665206,-40.128047,-41.773605,-43.337834,-43.232555,-45.16908,-45.50093,-47.904509,-47.107015,-45.880069,-46.581636,-47.791154,-49.050934,-48.797542,-49.69938,-49.817854,-50.390595,-49.314744,-49.346828,-50.185582,-49.520516,-50.370297,-50.633143,-49.051852,-48.193026,-47.300119,-46.701492,-46.03886,-44.189006,-41.511496,-39.377763,-37.260005,-37.581488,-38.58486,-36.723811,-35.641769,-35.964746,-36.127642,-37.076578,-38.44425,-38.30141,-41.176993,-42.46613,-44.210141,-44.018558,-43.629435,-44.416413,-47.138148,-48.122399,-47.786552,-48.834486,-49.368812,-49.543239,-49.470706,-50.705176,-52.604888,-53.189609,-54.099484,-53.694678,-54.09629,-52.289071,-51.563575,-54.077827,-53.940514,-52.687766,-51.186777,-51.07574,-51.847675,-51.512726,-49.666151,-47.92894,-46.640551,-45.08026,-44.455675,-43.318029,-40.191092,-39.869484,-37.027303,-36.435196,-34.539819,-32.549813,-30.467423,-27.987361,-25.903073,-24.355721,-22.192463,-19.918139,-18.037665,-15.435382,-13.920946,-12.243278,-10.181608,-9.7210958,-5.5938454,-5.4485261,-4.1759928,-1.6591031,-1.3696415,2.2463823,3.2390614,4.5536143,4.3721201,6.515991,5.6919662,7.0830959,8.2818351,10.018517,10.435711,11.55084,11.029717,12.197381,12.731985,13.287664,13.738384,15.547505,15.778869,17.644361,15.65859,15.974419,14.354938,13.824336,12.181773,10.502923,8.5837353,7.6526115,5.7340583,4.7697709,3.1431566,1.9296914,3.4204425,1.1890019,0.28552717,1.1400693,2.0565836,1.9493813,2.4936786,2.7623394,4.4659106,6.8721065,7.2983286,7.3982656,6.7111197,6.8453534,8.0494395,8.5459568,8.7403976,10.096698,11.132854,12.527442,12.81899,15.125313,14.4972,15.532485,15.910882,17.540849,18.594031,18.739458,20.108148,21.841715,22.635277,23.232889,24.107196,23.728207,25.084827,26.480348,27.878824,27.767824,27.164917,28.556061,28.49695,29.401352,28.491224,26.12336,27.819602,28.378967,28.145118,28.158631,28.298133,27.600672,28.699433,27.015437,27.583822,25.341436,25.913268,25.008345,24.692754,24.441893,25.592768,22.909116,23.55268,22.966723,23.206856,23.133912,21.688067,20.472208,20.357436,19.084579,18.824874,18.946391,17.213293,15.903183,15.70374,13.638506,13.990037,12.175469,12.28034,11.198376,10.690923,9.9158167,9.3114489,8.5422029,7.7339658,6.7201285,6.4776994,6.5433848,7.0193923,7.6914358,7.2733581,6.3761728,5.7319004,6.6799422,7.0199476,9.3906249,9.9423057,9.3904023,9.0551053,8.629851,7.0761077,8.3176659,8.2535985,8.8164337,6.8586259,6.5813983,4.5238835,5.5135502,4.6460759,5.9131209,5.0727661,6.4005544,6.9821122,6.2172877,6.9793625,7.8230238,6.2118887,7.5230661,6.9298152,9.22451,9.3267642,9.329597,8.4988554,10.236175,10.306249,12.376791,12.291572,11.98007,14.014643,14.655229,16.929651,17.119198,17.996048,17.909735,18.921643,19.549942,19.60625,20.384842,22.099896,21.502491,23.358933,22.977969,23.475786,24.606514,25.184067,25.956377,26.613442,27.642019,26.588385,25.708625,27.609613,28.461575,27.733411,28.165789,28.227013,30.057975,32.345555,32.046158,32.214407,33.595645,32.650284,31.897065,30.934136,28.775124,29.025991,30.629389,32.983315,32.392243,31.335537,32.642231,32.351885,32.916769,32.564514,33.319264,34.709039,35.559518,35.120919,36.236127,36.342752,36.427448,37.168596,37.598045,35.650701,34.709436,35.409201,35.895564,36.412898,36.28086,33.996702,34.752628,35.080669,33.378163,32.342449,30.235487,29.067576,28.014755,28.466429,26.201545,25.686814,23.124258,21.295056,18.850187,18.757924,17.503029,16.323308,14.893189,11.368719,9.429271,8.2588993,6.563922,5.4643172,3.5302494,0.92077573,-2.3674442,-6.0092188,-7.6576097,-10.740458,-11.793454,-15.088031,-17.094548,-21.007452,-21.604126,-24.374533,-27.581022,-30.483822,-32.370059,-35.694553,-36.08244,-39.763508,-39.44805,-41.393975,-42.658773,-44.213905,-44.853272,-47.342493,-46.792665,-49.769194,-50.533009,-52.830582,-52.268991,-52.328448,-53.672414,-54.13384,-55.774696,-55.782989,-56.48207,-54.888759,-54.349145,-54.651471,-54.123145,-54.428638,-53.920602,-53.716765,-55.010408,-55.633852,-56.486084,-55.665155,-56.464314,-58.878323,-56.774432,-56.844572,-57.609376,-57.392605,-57.414467,-59.277539,-58.210143,-58.850219,-60.514886,-61.339298,-61.747083,-63.432341,-64.705941,-64.545551,-64.505954,-62.977551,-61.475744,-62.599532,-64.407273,-63.178468,-61.90497,-60.783547,-61.087451,-60.684868,-57.919739,-56.291532,-55.158503,-54.954665,-51.802855,-50.655553,-48.12819,-46.385861,-44.106653,-44.475821,-43.156493,-42.823958,-41.199467,-41.627548,-41.192452,-40.833659,-38.808274,-38.336948,-36.184394,-35.863619,-34.481269,-32.653377,-31.13772,-28.255634,-28.245934,-23.650587,-23.232848,-17.899984,-17.244002,-13.351116,-10.796206,-8.2312424,-5.5980293,-2.6399263,1.0963752,2.7676596,5.2873709,8.2126595,10.507056,11.777618,14.42459,17.450163,19.811395,20.973511,23.005049,24.146038,25.772603,28.273519,29.53801,31.387868,31.530497,31.552284,32.545364,33.861584,34.660319,36.051519,37.037775,35.682511,36.19641,36.562812,34.851025,34.053641,34.483339,33.581647,34.145671,32.116854,33.121856,30.793575,31.775811,31.179165,30.085967,31.220831,31.931852,32.932986,29.520219,28.488994,28.21266,26.156971,26.881484,23.720871,22.90024,21.35416,19.984781,18.911935,16.503681,14.543049,15.190137,12.230197,10.113544,6.696367,6.3270513,3.4572723,3.5760351,0.54626974,-0.49254645,-1.3990632,-2.6415886,-3.496589,-2.8050644,-5.0289856,-6.743502,-5.3019212,-7.4324526,-7.8112055,-7.3777952,-5.6413177,-7.2828585,-6.0282783,-5.4461263,-3.6386699,-1.9619216,-2.2105549,0.69719032,0.69722856,3.3820173,3.1050062,2.4337381,3.238915,2.1913417,1.36913,2.3533438,1.0909002,1.4291546,1.5052116,2.0183788,1.3974733,1.9063982,2.5596676,1.7693711,0.78451742,0.091893141,1.1099228,2.2854133,2.6876827,1.6731236,4.4291923,3.1593233,4.7371918,2.8556211,4.4157897,5.4326053,3.8586441,5.2277696,5.7284145,5.9109304,5.5945412,5.8649065,7.0074319,6.9992081,6.6994828,8.2521343,8.8808234,9.1364114,9.2982889,9.4914404,9.900036,10.886407,10.797584,11.901922,12.805285,11.224896,12.574831,15.000981,15.788953,16.014865,18.169626,17.201045,18.292352,19.730904,18.446354,18.97189,21.035211,21.503646,22.075209,21.569922,20.507691,22.390269,23.01512,24.371041,24.184383,24.467155,26.795899,25.133909,24.212297,25.040099,26.768375,27.340524,27.500243,26.85429,27.408181,28.909322,27.706147,29.171495,26.914732,28.424417,27.526836,29.31507,27.515654,27.816775,26.914854,28.467741,26.512684,26.586822,27.496902,28.449048,28.669274,28.842126,29.529927,27.635078,26.842013,26.620401,29.063495,25.737519,27.331273,26.698188,26.80955,26.003323,27.071072,26.425916,25.66989,26.050542,24.876878,25.346294,23.736592,24.237636,23.683279,24.043243,24.323072,23.671768,22.668345,22.417316,20.572668,20.779686,21.65663,21.367588,20.102492,20.69474,20.764569,20.866484,20.748058,21.764566,23.469448,24.419818,23.507568,25.296075,26.695009,26.131516,26.184044,26.977435,27.756504,29.558846,28.150786,29.392257,28.51241,28.692433,29.277,28.517332,28.982154,27.465388,26.842046,26.673672,26.296532,25.719178,23.665576,22.560131,22.85745,21.444229,19.911399,19.386575,16.853689,16.353195,15.197049,14.351373,11.570445,11.4979,9.8340815,5.4946193,5.1738107,1.9380653,-0.088418644,-1.7449312,-3.4842878,-6.0888652,-7.7697845,-10.815834,-11.275451,-13.489743,-15.661084,-18.460915,-19.438892,-23.178915,-23.746772,-26.608218,-27.62703,-28.715466,-30.902048,-33.096633,-33.373154,-35.047362,-36.430907,-38.441054,-39.384332,-40.573592,-41.919392,-41.339666,-43.485525,-43.027428,-44.579624,-43.980237,-45.032168,-46.460059,-45.436387,-44.105944,-44.641858,-45.33755,-45.63899,-44.295729,-45.161129,-45.560281,-45.004395,-45.842356,-42.12454,-45.059425,-43.101488,-42.664355,-38.330794,-37.047566,-35.627852,-37.408691,-39.517803,-39.926129,-41.531063,-42.554708,-43.393004,-44.524672,-46.429749,-48.400081,-50.357094,-53.782408,-55.602613,-56.449229,-56.847466,-57.870702,-59.283661,-60.172309,-62.450833,-61.648431,-62.837723,-63.247292,-64.089523,-62.313162,-62.322507,-61.354321,-62.306315,-60.738544,-59.661808,-59.462466,-57.64303,-55.834507,-56.649561,-53.899113,-53.4917,-51.636503,-50.027921,-48.680419,-46.360915,-43.521367,-41.717495,-39.905393,-37.491757,-33.653481,-30.874307,-29.869364,-27.438923,-26.093033,-23.873375,-20.663057,-18.379371,-15.966299,-13.75022,-11.699497,-7.8252179,-7.279227,-4.3219777,-2.4791041,-2.4729044,-0.2028108,2.8584735,3.1804714,4.0926762,5.532556,8.1893798,8.8098521,10.332752,10.383131,12.480121,12.069632,13.724517,13.79974,12.708616,13.346458,14.603251,14.676714,12.087481,13.222644,12.823141,12.387155,13.247099,11.675904,9.135145,10.964121,9.2140147,8.5709292,8.2091751,5.0736219,5.6447264,5.3370384,4.2678899,3.0658058,2.3630189,1.2934061,2.3976776,1.7095402,0.2173391,-1.3074613,-2.9843858,-2.3252803,-4.739175,-3.9669475,-4.6764563,-5.552821,-3.4033674,-4.912461,-2.2256198,-1.5026259,0.77461846,0.26610837,-2.0210645,-3.0228157,-2.08083,1.0533032,2.0141386,4.8264058,5.7528651,6.1855588,5.1335957,4.0485472,4.9052953,4.0843031,6.2659186,7.2412622,6.2539144,5.8972796,7.613261,8.7108932,9.3881728,10.783276,11.346756,15.429676,15.542318,16.184321,18.578908,21.246169,21.274445,23.386782,24.816418,25.890956,27.23905,27.902727,27.927159,31.101247,31.983888,33.432339,33.973726,36.732931,37.472364,39.486006,38.473468,40.192976,41.250522,43.687139,42.143755,41.588712,44.743461,42.44134,43.666708,44.875643,43.973878,43.210752,44.011979,44.276029,43.402025,41.148494,42.592793,40.613832,39.464095,39.460478,38.730881,35.580455,36.220239,35.383564,34.40138,33.146543,31.981307,29.979493,28.901801,27.143159,26.19906,24.512371,23.26564,23.460482,20.43313,20.501097,18.937394,20.773168,17.522766,17.561982,18.304039,17.294661,16.408069,15.970154,13.995935,15.840276,16.347089,15.307986,16.393272,16.419106,16.747785,18.257497,18.562092,18.089026,17.453316,17.415918,15.844827,14.690599,13.520185,14.257381,13.436031,14.310764,12.620841,12.141648,14.353551,14.943996,16.037257,17.364222,18.470623,17.930405,18.515878,20.506045,22.84198,22.947387,22.56265,21.487935,22.090029,21.686371,20.323147,20.385281,22.325292,21.656444,22.325624,22.246949,21.003953,22.941996,23.322956,22.963731,24.634671,23.209832,24.326055,25.438981,25.836895,25.624307,27.861222,25.101472,23.266501,24.557621,25.039356,25.996245,24.368251,26.497714,25.118791,27.70804,27.003081,27.798413,29.212568,30.972527,30.049668,31.78941,32.240162,35.225998,34.776065,35.791897,35.104989,35.885183,38.505317,36.688659,37.358092,38.68286,38.246845,37.472706,36.861271,37.406331,34.971967,35.043333,33.667342,31.865211,30.483284,30.837103,28.763698,25.809626,25.227185,23.137192,19.963789,18.908632,16.229234,14.199319,11.931075,9.1347333,5.7294435,3.9959048,0.97980506,-1.2783986,-5.9533918,-6.5861264,-9.6650588,-10.926907,-14.880186,-17.807039,-19.148299,-23.200629,-27.075132,-30.148893,-29.617084,-32.848281,-35.649138,-37.97382,-37.855811,-40.195722,-43.478664,-44.43545,-46.710229,-47.343503,-49.204239,-51.637957,-52.34124,-53.292222,-56.853054,-56.087106,-57.10666,-57.113875,-58.531393,-59.587945,-58.959954,-59.320557,-61.267132,-60.106195,-61.081231,-62.646977,-63.452092,-61.312415,-59.500469,-60.319698,-58.575198,-58.436629,-55.887465,-56.142677,-55.301731,-56.53803,-56.940409,-56.950272,-56.052527,-55.799198,-57.95463,-56.892629,-58.547625,-57.551894,-57.891098,-59.553828,-59.066899,-60.91012,-61.136483,-64.771065,-65.642653,-69.206913,-68.11445,-68.976099,-68.339275,-69.088528,-71.030424,-71.940579,-71.801087,-69.776683,-71.239289,-70.237832,-69.275181,-68.75931,-68.39713,-66.465926,-64.846338,-62.953783,-64.004813,-61.818312,-58.575661,-57.994429,-55.579691,-55.394104,-52.052269,-48.989178,-49.731405,-47.577432,-43.90795,-42.624647,-40.810337,-38.482619,-36.595917,-33.795857,-29.730415,-28.428912,-26.698723,-25.087838,-22.687887,-18.310314,-18.250638,-14.967064,-13.628177,-11.082809,-9.3367891,-7.6531323,-6.5633965,-3.136733,-3.8271091,0.54618109,0.76367412,3.9293858,3.4579851,5.2764437,5.4668801,6.9991118,8.6859034,8.1320949,10.290841,11.926563,12.929091,12.442428,15.176616,15.315208,15.461234,13.442361,12.695141,13.071439,9.9833019,7.8189213,4.8275794,2.9303494,1.7705207,-1.6613215,-4.6922306,-3.868784,-6.7726393,-6.480749,-8.6494142,-9.695457,-8.2628682,-9.7774781,-10.137386,-8.7065213,-8.7947327,-5.9885745,-4.9571026,-0.93957419,0.066149421,1.4532134,3.0840733,5.6663613,6.9774329,9.9510896,10.135067,11.912573,16.060249,18.497538,19.843494,22.18613,24.314381,27.751119,29.054359,31.825286,30.688863,35.242739,35.910167,37.612029,38.115529,39.200541,40.884695,41.189494,42.891961,43.455486,46.689186,46.509663,46.651954,46.981306,48.653626,48.258681,48.684742,48.548959,50.100023,50.108482,49.531362,50.749765,48.44148,49.396764,46.291627,47.97313,47.579347,46.167034,45.534293,43.809519,44.202013,41.347515,39.92236,40.173323,38.459321,34.809605,35.349666,32.69547,31.563648,30.25744,27.75255,25.090694,23.54353,21.953987,20.350018,19.735391,17.77156,16.40564,15.526861,13.93419,13.08175,12.1117,11.748306,12.394664,11.693572,12.598825,10.87513,12.582168,12.624828,14.286395,16.269812,17.44228,19.023847,20.927927,23.596408,22.920776,25.355921,27.540981,28.463891,26.768322,29.199781,27.538311,28.550099,26.403014,26.580924,27.011144,28.414016,26.838258,26.651837,26.192152,25.275102,26.768328,25.461184,25.725122,25.788765,25.883946,26.3761,25.843591,26.38661,26.970656,26.06612,28.328931,25.461073,26.852199,26.73888,25.317309,26.732899,27.945,25.905058,26.574027,26.370959,28.818869,28.256072,28.095027,27.978081,30.197199,28.601962,30.369653,29.722929,27.57903,27.882495,30.278872,29.291387,28.185716,27.577954,28.929404,30.200176,29.401163,28.983805,28.684318,26.937212,27.033152,26.729791,27.969373,26.700998,28.44904,28.430756,28.929389,29.214025,29.511841,30.84847,32.324072,31.629639,33.710898,33.086287,34.551537,34.555373,36.466401,35.91184,35.717858,36.13661,35.96553,36.916237,35.122516,33.652765,34.011605,34.519198,34.26116,32.015481,30.127454,27.727613,27.751553,26.532184,26.134037,22.949288,22.055236,19.708355,16.927314,15.865645,12.679099,10.991113,8.6138505,6.37685,4.5486787,-0.0075463447,-2.6850498,-3.6521321,-6.0123419,-9.736543,-13.371219,-14.424074,-18.663163,-20.803935,-24.120208,-26.898563,-30.759149,-32.341031,-36.147071,-38.971941,-41.280644,-42.542325,-45.887686,-47.370435,-50.646827,-50.328415,-53.020511,-55.457344,-57.507862,-58.284618,-60.400102,-64.725144,-61.468141,-62.799954,-62.806948,-62.608518,-65.054138,-64.413413,-65.331567,-65.028315,-65.768924,-65.709383,-64.828782,-65.899397,-65.183276,-65.928057,-64.812872,-63.146714,-61.547624,-62.056979,-60.848808,-59.04306,-57.167606,-54.780573,-52.881089,-52.823416,-53.577737,-54.944941,-50.489573,-52.577457,-52.688808,-53.022329,-53.365416,-52.483367,-54.523309,-53.387926,-56.059302,-55.819423,-59.71961,-60.305208,-61.185173,-62.042838,-61.45996,-62.569366,-62.842787,-64.876563,-64.03965,-65.271984,-64.41953,-65.750204,-62.891498,-63.882536,-64.439895,-63.162531,-61.677027,-60.903099,-61.384787,-58.859803,-57.832701,-55.872765,-55.908012,-53.046267,-53.299224,-49.755782,-49.484883,-46.335719,-44.039997,-41.421101,-41.282761,-37.625338,-33.539982,-31.615983,-28.648753,-26.1362,-24.200851,-20.935746,-18.87605,-16.147214,-14.725799,-11.509054,-9.8997003,-7.250293,-6.7479478,-3.6934909,-1.3065459,-0.77427994,2.7074529,3.4893633,5.5453122,8.51857,7.8739773,11.369282,10.855805,13.810294,14.695488,16.151351,16.318402,17.361113,17.93633,20.521329,21.767494,22.185586,22.31718,24.255683,24.215958,24.451447,22.601075,21.637978,21.915563,19.268022,17.538255,14.377456,16.601202,11.50571,10.787844,7.2208019,6.2378511,4.1069346,1.6209797,1.8286421,0.66018516,-0.1166017,-0.9263432,-0.11361529,0.79489385,1.0748841,2.8961544,2.6073122,3.4962857,4.6555026,7.6866745,7.715969,10.500088,11.356743,12.546726,14.146915,14.837071,17.43342,20.14689,21.145035,23.033834,23.941342,27.791282,28.3454,31.571073,33.899605,34.315923,37.128197,36.735579,41.547697,42.587605,43.812998,44.313926,45.886832,47.41121,48.737995,50.938124,50.825269,51.101515,53.768091,54.48484,54.037706,54.691405,56.63343,55.358753,55.832194,56.478982,55.093671,55.194595,56.178106,53.035726,53.105857,52.995668,51.872567,50.443656,51.653332,48.758546,48.383526,46.959808,48.187395,44.795851,41.446188,39.632858,38.633913,37.57096,36.022761,32.990259,30.538497,28.029353,26.535062,25.088583,23.189883,20.995839,20.799335,17.629854,17.33439,15.647723,14.498093,13.207093,13.039824,8.9732545,11.542539,9.2107894,8.9593123,10.494832,9.3305976,10.545782,10.028487,12.000916,13.134347,13.142524,14.281952,14.815573,15.271026,12.545834,13.544119,13.329349,12.948078,10.670567,10.077276,9.6106012,9.3240353,9.6508842,5.9381643,9.1256081,8.5871678,8.6774166,8.4698496,9.8017541,10.246405,9.9725804,11.504235,12.967089,12.848755,13.366424,13.282835,12.539475,11.152795,12.286597,14.404157,13.005047,12.31883,14.337714,13.005498,12.801704,11.320278,10.529186,10.092659,11.419059,11.142677,9.176402,9.7014864,10.95003,9.3266768,11.243552,12.42735,11.703393,11.508171,10.573067,13.433378,11.554003,12.656687,12.029729,12.954095,11.98023,12.521912,12.623955,11.843701,11.502775,12.428833,11.912064,13.052449,12.379345,13.995341,9.941303,12.599365,10.506261,9.8724953,9.2003166,7.5668907,5.5160356,6.3985727,5.5071803,2.3525528,1.928293,-0.76647051,-3.9780064,-2.1823923,-4.3590496,-5.950979,-8.4443829,-11.958066,-12.370245,-14.317355,-15.159816,-18.067522,-18.915607,-20.162751,-21.679688,-23.73295,-22.768205,-25.558053,-26.143161,-26.789587,-28.760843,-28.937201,-32.265527,-31.240428,-32.761928,-32.147058,-35.299272,-33.799441,-33.765847,-34.340745,-34.239697,-35.213454,-34.638762,-35.12331,-36.452323,-36.565678,-36.004304,-36.135495,-36.167419,-38.136523,-38.408334,-37.722295,-36.145458,-37.151064,-38.642903,-36.522114,-36.208774,-35.853337,-35.331586,-35.887844,-32.64145,-34.031376,-32.696277,-31.498248,-30.148672,-30.550434,-29.143045,-27.038434,-25.083394,-23.51879,-23.992642,-23.262525,-23.701186,-22.543975,-23.99302,-24.230306,-26.655126,-27.323061,-28.64855,-30.856365,-32.683215,-32.903259,-32.681608,-34.280892,-33.312824,-36.468423,-34.8165,-34.698692,-34.95162,-34.771243,-32.567768,-32.409916,-33.584859,-33.068608,-31.667793,-28.944564,-27.959756,-26.064166,-27.259589,-27.230372,-27.020934,-25.431187,-25.180898,-24.467584,-25.949513,-22.684562,-20.614132,-21.954135,-20.144028,-19.273804,-19.982799,-15.140314,-14.508981,-11.598417,-12.113357,-8.7916373,-8.227588,-9.1067062,-6.6005888,-5.9169608,-6.0437344,-5.1261048,-3.0363131,0.11800664,-0.26248806,0.6548061,0.85123431,2.183121,4.6840894,6.1969793,8.1522476,8.4402188,10.281485,11.703267,13.084569,15.428123,16.182342,16.111307,19.023895,19.25103,20.823021,20.54361,21.434012,24.5,24.112627,25.146482,25.980442,27.034508,28.476709,26.546947,27.491148,27.468078,26.740241,25.580612,25.672787,24.840543,23.121844,22.499044,24.068672,21.095553,21.796373,20.464701,21.933808,19.055234,18.593926,18.807005,17.740525,17.04873,16.300779,15.75976,15.903271,15.390025,16.598377,16.334422,16.218576,15.380967,15.475694,17.28327,16.522632,13.010438,12.836106,9.9627068,8.3095292,7.3607534,6.8152116,5.1521163,4.062432,2.7242427,3.2633994,1.2829516,-1.0668603,-0.80926496,-1.6321593,-0.95341834,-0.56779649,-2.7200874,-0.75843372,-0.042627109,2.3320614,3.8262262,5.8428106,5.4798564,8.8654881,10.961545,12.662395,13.824595,15.993094,13.972603,16.731173,17.3149,19.181244,18.796143,21.340632,22.495912,22.613639,26.075736,24.892959,27.062352,28.862501,30.397948,32.196924,31.956609,32.516245,32.481428,32.574755,30.050813,29.185381,27.877313,30.364929,28.556337,26.09294,25.768269,26.772852,26.724367,24.50753,22.496769,23.28866,21.410596,20.49659,19.36714,18.879612,15.298912,16.11524,15.197371,12.270286,11.032178,8.5267051,7.4531276,6.4995979,5.5462168,4.0476189,1.4892047,0.87653324,0.26024935,-1.6079962,-2.387462,-5.4479263,-6.6699958,-7.2855082,-7.3348823,-9.0370155,-11.798503,-12.086536,-15.51849,-13.584199,-16.681839,-16.844067,-17.335763,-19.244254,-20.334243,-20.325984,-20.876841,-22.960751,-24.281633,-24.330017,-24.269877,-25.12881,-25.852874,-26.687058,-26.291155,-27.251811,-27.65125,-26.915644,-26.878292,-27.8721,-28.742968,-28.537522,-28.012329,-29.554676,-26.617578,-26.21865,-28.757616,-26.722305,-24.416346,-25.104669,-27.261168,-25.008934,-25.940248,-24.81643,-26.478329,-25.557736,-23.955614,-23.221092,-23.502634,-22.21349,-22.579925,-20.852821,-19.162495,-18.037472,-16.984647,-16.6607,-16.79821,-14.590471,-11.926381,-13.149099,-10.128955,-11.115535,-8.4331949,-5.3953538,-6.4828176,-4.8483535,-4.0777217,-0.29627842,-0.79360956,-1.8382273,0.63691428,1.3577474,1.8167931,1.5940265,2.1466486,3.5251568,2.7686851,5.4149183,5.0082142,4.5060527,4.2088788,5.787961,5.4507172,5.8317761,4.0925573,4.7718461,7.5770231,5.9228365,4.6663942,5.7103325,5.0728749,6.532457,4.3911899,4.2790636,5.1217526,3.9791823,2.1695201,5.9022879,2.2553941,2.0984802,3.1878012,1.4317967,2.1680272,1.3426041,1.4693686,1.5781896,1.8171934,0.53069998,0.70278591,2.0594993,0.19437328,2.4360481,2.7584843,3.3525925,3.4064398,2.0326305,2.3456075,2.3437413,1.080373,3.885129,1.7246276,3.9050837,3.9557316,3.6162105,4.0228836,4.4866703,2.6687617,3.1840213,4.3404857,3.6432114,5.3108406,4.2246663,3.7231926,3.0854009,4.1800603,3.6214264,5.9269296,5.9430166,5.1872884,4.6958832,6.0627253,6.1082521,7.7451116,6.9574017,8.142671,6.1302995,7.6065347,8.3699114,9.5976733,5.2861147,8.4546812,8.8578617,8.524636,7.8825706,8.3425585,9.8392317,8.5593525,8.4997163,9.2129538,8.1263779,8.609074,7.8956837,9.3461639,9.344221,8.066715,8.8519029,9.5158593,11.081705,10.41194,9.3834147,9.4749902,10.744429,12.344219,11.431447,11.632021,12.962469,13.327898,14.115326,10.7286,12.260665,11.490901,11.674187,10.685254,12.518737,10.247422,14.408534,11.859456,12.236372,11.157242,9.7812748,12.240141,11.304361,12.308163,9.9291748,9.1742213,10.608983,8.110294,6.9978491,5.6175607,5.7690432,3.3877539,3.7091189,1.8605318,2.3849338,1.7585935,1.2504168,2.8060444,3.6883236,1.9730204,2.4407624,3.2669958,2.739758,1.9864945,-1.9771416,0.59433054,-0.50883551,-0.90336143,-1.1969454,-1.9576309,-1.2175208,-5.1152406,-3.1957058,-4.5789032,-2.0626392,-5.2377624,-3.4564772,-2.3433026,-2.2036599,0.10966149,0.92015793,2.228481,4.2406852,3.5961363,4.7235678,6.2725223,6.9668583,8.0000512,11.419359,12.055148,13.149664,16.068079,15.881263,18.270307,20.554779,21.009288,23.560947,26.905344,26.626814,29.089335,30.52024,33.210224,33.551174,35.87673,36.858015,38.892254,38.062098,40.287796,41.926024,39.975678,39.548589,42.827622,41.769146,40.310945,41.34495,40.406239,38.997744,38.568637,37.261339,35.588078,31.991208,31.62383,29.481124,28.525011,26.704737,23.39692,22.729272,20.28993,16.037332,14.018785,11.050429,8.8260153,8.1856728,3.737239,2.2589351,-2.6458713,-3.7347202,-7.826919,-10.394726,-13.667136,-15.761867,-19.306711,-19.96526,-21.307417,-23.587478,-26.746746,-26.16883,-29.955785,-29.445651,-31.709583,-33.849119,-32.166484,-36.16672,-36.898595,-40.760478,-40.427322,-38.900244,-44.022301,-42.047426,-44.017004,-43.012505,-43.568376,-42.288315,-41.220357,-39.89952,-41.069265,-38.281422,-38.083805,-35.848148,-36.077194,-36.357203,-34.54614,-34.409626,-36.008913,-34.241936,-32.194113,-34.09604,-33.188401,-34.906123,-35.872362,-35.768876,-36.560367,-34.650892,-32.772132,-34.470664,-35.897253,-34.082267,-33.002851,-34.586039,-35.243239,-35.104645,-35.24061,-37.84244,-35.446239,-37.566914,-37.338051,-38.274921,-36.694997,-38.010601,-37.246394,-39.692033,-37.567924,-39.432157,-36.129533,-37.849589,-37.552208,-33.977393,-33.801956,-33.822498,-31.101856,-31.614118,-29.843134,-27.93167,-27.561929,-24.641489,-26.18492,-22.848667,-21.696106,-20.132315,-20.436307,-15.532697,-16.480401,-13.556994,-13.358578,-10.444961,-10.184992,-8.7530979,-7.6617809,-5.3970475,-4.8445125,-2.2928954,-1.5153396,1.548602,0.82651069,3.213772,3.4901978,5.698341,6.4400439,5.0996326,8.7998108,7.0795686,8.1927233,9.3335323,8.3650455,9.0930373,8.6131696,10.879445,8.8540997,9.3585108,10.899898,10.800853,10.587113,10.851449,10.519349,10.502298,10.125955,9.9885542,11.406493,9.2093537,7.7657066,7.7772433,10.251311,7.2427181,7.3893871,8.4579986,7.9713194,6.6876555,4.3818294,8.2262061,8.6351608,6.648762,9.1689949,7.8913135,9.4122262,7.8678965,8.3207463,8.7802609,8.6961334,10.997005,11.093715,11.338015,12.582929,13.204711,11.530847,12.033592,11.851254,10.608681,11.704318,10.854062,12.788901,12.696376,12.613812,12.466766,13.798312,11.771202,13.273942,13.3445,12.266625,11.68774,11.562306,13.297251,10.738523,10.408717,13.254428,10.591171,11.311022,9.6720689,7.9212496,9.1405121,9.2050115,6.5310463,8.7699668,6.3649627,7.6298938,6.6267817,7.7604546,7.9805982,7.2660153,6.1220893,6.9939848,6.2624496,6.9780397,8.1003506,5.4826488,6.452876,5.964355,9.2034579,6.6504944,10.387578,8.78908,11.361064,7.0454979,10.806838,9.7079177,12.83688,12.65995,13.124196,13.973508,17.244129,15.865288,18.805305,18.450743,17.535886,20.486981,22.871735,21.143059,21.793035,22.81621,20.980343,22.845998,23.421988,22.227179,24.710661,22.927796,25.840461,26.851221,26.553032,27.056279,25.778684,28.145827,28.086085,26.523666,28.32088,25.738411,30.281992,27.404816,27.412059,27.002756,26.118168,26.902381,29.144084,29.646091,25.66035,28.619346,28.69502,24.200441,26.385966,24.45815,21.666707,21.643843,17.570145,19.010046,13.340012,14.372538,12.245393,12.435588,9.6035239,10.506895,11.705648,9.5039579,9.1276843,10.831599,9.646937,7.6460738,8.5640773,11.11763,9.6953929,9.5330719,9.1865187,9.9139782,9.2046049,10.027965,10.11785,11.706434,11.55836,13.108667,13.855727,13.601035,14.732528,15.26809,17.623862,17.964769,18.757984,20.943568,21.587386,18.915095,23.503089,21.107715,25.510717,24.150145,24.199517,26.990934,25.042499,25.026464,26.485869,26.466586,25.478051,24.12558,23.54049,24.154353,24.023284,22.087421,21.889261,19.251771,20.257104,19.966491,18.281964,15.75406,14.880312,12.442207,12.32963,9.1619452,11.005161,7.6172317,7.1602808,2.8017476,1.434923,-0.21416439,-3.2395422,-4.539994,-8.7127855,-10.379857,-13.953622,-13.631267,-18.226635,-22.170067,-22.528566,-23.457569,-29.061617,-28.849399,-30.867025,-32.930482,-33.066719,-36.007718,-36.887703,-36.020107,-40.584357,-40.7487,-42.779229,-41.001648,-41.995718,-42.872828,-42.684716,-43.236977,-40.479478,-43.728506,-42.421326,-40.260692,-38.682155,-38.812749,-36.732472,-37.933092,-37.710625,-37.195154,-38.012585,-40.064336,-36.714416,-40.223178,-37.223889,-37.062524,-39.02192,-35.828877,-36.071078,-34.658589,-35.15069,-34.580799,-34.656003,-32.098256,-32.979097,-34.372588,-32.742937,-30.800152,-34.587366,-32.089104,-30.895867,-32.580285,-33.464022,-33.097765,-32.801349,-34.793316,-34.322012,-34.255359,-34.5928,-34.176041,-35.037803,-35.870869,-34.045968,-35.127462,-35.744457,-33.798083,-33.85722,-34.09962,-35.181971,-32.238699,-35.245906,-33.824355,-31.388011,-34.517806,-29.360232,-33.617719,-32.990164,-30.678613,-31.869096,-29.67188,-30.287969,-29.223607,-29.085632,-26.865977,-25.683142,-24.954708,-24.99371,-24.560468,-21.970749,-21.260478,-19.039906,-18.496068,-18.929306,-15.924411,-14.66981,-13.545339,-14.169899,-10.715893,-8.671589,-9.5647319,-7.3550976,-6.0840227,-4.8911476,-2.2800314,-4.1858739,0.77269979,-2.3614226,0.52512642,0.12559555,-0.13320991,-1.8439465,-1.3623032,-0.36486742,-1.7652957,-4.4187727,-1.3884123,-3.9417958,-2.6701767,-4.3741285,-3.20964,-3.2687088,-1.5614246,-5.0264818,-1.9836794,-1.0193505,-1.4959956,-1.588316,-0.45248437,-0.80424318,0.45502542,1.1378162,1.3068888,3.6150979,5.8808162,5.2668749,6.2084689,8.4518948,9.3176363,11.190333,12.824012,14.364123,15.930702,16.864335,19.276867,20.734624,20.461233,23.232227,26.093911,26.024574,26.578866,27.07249,27.671077,29.216403,30.619652,31.015219,30.614618,32.861002,33.944903,32.237985,37.66787,33.734138,36.681389,36.38756,37.601474,34.853531,36.064305,35.957682,37.682188,35.023576,34.688348,36.88105,34.820002,35.884022,33.407905,33.979562,33.107162,31.179665,30.573941,29.61949,29.994424,25.750007,28.051621,23.084215,24.847174,24.019308,20.121899,22.330436,19.48006,18.449498,18.312283,15.798593,16.659164,15.715545,15.052807,13.690371,13.27766,11.244038,12.530449,12.588449,12.063287,10.345784,9.9954805,8.7467402,10.381135,9.4389656,11.003411,12.584263,14.521946,13.985493,15.906595,19.631421,16.366746,20.064297,20.949416,19.463025,21.960343,18.91416,20.569918,18.975016,16.156099,17.736397,17.644021,14.686439,15.88705,15.830788,16.646111,16.175586,16.075648,14.708694,16.123341,15.053742,15.938897,14.528061,16.799335,14.520338,14.514435,14.606962,15.32766,15.118046,13.609052,14.846429,14.517773,15.600064,13.146915,15.419309,15.248186,15.946241,15.048453,15.983561,15.838697,15.260518,15.810917,14.619948,18.4581,18.016887,17.772413,16.351634,16.231102,17.411854,16.015766,17.283512,18.507821,20.72132,21.54506,21.870204,20.164932,25.166016,23.694176,26.394351,28.60161,27.263691,30.020625,28.164235,29.585516,28.909253,30.958756,29.447495,31.647367,29.497115,31.036322,29.454439,28.782077,28.818989,28.213515,26.803042,26.6366,24.242415,26.326288,23.531906,24.142354,22.214936,22.030518,19.950728,20.103456,17.326201,17.808833,16.209413,14.922665,15.674506,13.515507,12.802326,10.978476,7.6521777,7.9816536,5.6226076,6.0051267,0.98293542,-0.089533557,-1.0170279,-4.6595546,-6.5960175,-6.5420844,-9.0050118,-10.776726,-12.696006,-11.570076,-14.655163,-15.961267,-16.340034,-17.802703,-19.424499,-22.481648,-19.634059,-24.241176,-23.791284,-24.225928,-27.059071,-27.646521,-30.998986,-29.550246,-31.531035,-31.86191,-34.028913,-30.261507,-35.479217,-33.032617,-33.599085,-35.212563,-33.807752,-34.59497,-35.068536,-32.929088,-33.995036,-34.539888,-36.559902,-35.312278,-36.748216,-36.014096,-35.509158,-37.242582,-35.215211,-35.651623,-35.436454,-37.057507,-34.809011,-35.418574,-33.606314,-34.793732,-35.116795,-35.507422,-35.262671,-35.297934,-36.515181,-36.426437,-38.083416,-40.759011,-40.01286,-39.902607,-41.16799,-42.622872,-40.978332,-43.399423,-43.246808,-44.261026,-44.39924,-45.189707,-42.851098,-45.969875,-45.394228,-46.083913,-46.766824,-46.279777,-46.101932,-46.793089,-47.177712,-46.134557,-46.25803,-45.895449,-48.545357,-46.056783,-46.792009,-46.212645,-45.088612,-44.016936,-44.596566,-40.627693,-41.580551,-36.812031,-37.658345,-33.906363,-34.967602,-33.819838,-32.713169,-33.156402,-32.080292,-30.714189,-32.717685,-32.275833,-33.175542,-33.701104,-32.88172,-33.995132,-33.388274,-28.703176,-31.639523,-28.457306,-30.762937,-24.446696,-24.313976,-23.059323,-19.109575,-15.577056,-15.065273,-11.324633,-11.176294,-5.79272,-8.5736478,-3.2742072,-4.7907277,-2.6187026,-1.5270967,0.81676068,2.0009694,1.3654773,4.7658113,4.7608102,5.1942446,8.9773751,9.6162511,12.843116,10.489777,14.843686,12.471304,14.590745,13.45192,16.120892,14.864888,15.205898,16.284198,14.513708,17.598675,17.010752,14.605508,15.412638,15.157152,17.0983,17.164152,18.731044,18.717787,19.772139,20.122587,21.089504,22.673971,23.989675,24.426019,27.965802,27.341614,28.095524,29.400875,30.295791,30.211555,31.10762,31.778386,33.927982,32.858147,32.819991,32.52228,31.405367,32.952742,31.192529,31.177483,30.325605,32.036889,30.584429,29.879111,29.63261,29.358757,26.809795,27.821289,25.840379,27.412109,25.816581,26.007069,24.064509,24.350299,25.739677,23.913096,22.434393,24.521658,25.274463,22.242948,23.373052,26.226628,25.523906,24.664618,27.506224,26.743584,26.418976,25.804282,24.778897,23.086717,20.795131,21.080724,15.493554,15.390942,11.866551,11.763724,9.2958586,8.8319191,6.5909498,6.6836858,5.5487678,5.1766679,5.3513403,3.7463652,4.49395,4.4344856,5.2920612,4.3977538,4.8377879,6.1039132,6.3828973,6.9528295,4.5548123,2.1258209,6.2330769,2.6138393,4.3089212,2.7747138,3.7905116,3.3323812,6.0341153,4.4132491,5.6712867,7.3963499,7.166868,7.9384649,9.8044252,7.5839631,8.8022163,6.0283236,6.5255644,5.927181,7.3544168,6.8536407,6.1977249,6.4132966,7.8396225,6.6708022,5.5320543,7.5655246,5.6192978,7.7865842,8.4953111,6.4205632,9.9227585,7.1290273,9.9465999,10.892099,9.1440275,9.108531,11.230036,12.471375,13.240177,10.245783,14.572655,11.116791,13.628081,15.600644,12.113699,15.582904,14.417083,16.975962,14.80009,15.222022,15.496046,15.240331,16.689094,17.420934,15.295096,17.241822,17.757995,17.811361,18.401676,18.256187,19.485498,17.865189,17.161499,19.862109,18.085623,21.570439,19.807213,21.24892,21.314385,21.277137,23.86141,21.930986,23.201341,24.54486,22.787466,24.593347,24.873264,25.964543,26.169017,23.803539,26.044743,26.247316,23.165362,26.559044,24.276445,23.993513,22.022264,23.970165,20.622506,21.920367,20.182814,20.550779,18.150372,17.768624,15.016762,15.864393,12.127426,13.763241,11.388968,10.202544,8.3444951,7.274911,5.2111867,5.2674039,3.626291,3.8936791,0.1997163,-0.75574104,-2.8882268,-3.2208904,-3.0833143,-7.8688585,-7.3398073,-8.8669692,-11.335153,-11.310024,-13.935844,-15.458711,-16.627592,-19.429279,-19.764798,-21.505378,-23.459934,-24.898967,-26.153652,-28.101084,-28.897258,-29.35577,-31.364731,-32.407625,-34.259307,-33.63351,-36.235979,-35.630323,-36.778125,-38.266809,-36.851627,-37.309629,-38.295481,-39.56976,-37.342984,-41.66351,-37.916859,-40.742887,-39.758573,-38.880071,-38.06496,-39.232478,-37.381353,-41.249991,-35.839455,-40.716305,-36.356766,-38.867233,-39.272318,-39.559377,-41.56324,-40.084671,-42.185864,-42.227554,-44.148148,-43.643771,-42.905384,-44.864656,-45.118944,-44.799022,-47.248989,-45.29568,-46.364055,-47.57398,-47.327964,-47.228774,-47.494391,-46.151351,-46.589534,-45.572881,-44.176924,-44.957246,-44.418794,-41.630409,-40.772559,-41.949292,-38.756418,-36.582328,-34.387718,-33.302695,-31.740738,-30.230771,-28.21492,-26.848581,-22.886565,-22.493612,-20.977089,-18.178254,-17.368115,-16.428398,-14.087954,-11.610373,-11.705745,-8.6413262,-8.5374367,-6.5399006,-5.6198368,-3.1000899,-3.2760577,-0.92004349,0.065529998,3.3561233,2.3604394,4.2821063,5.7497023,6.5517926,7.335452,10.377317,9.9505875,10.827753,10.334112,12.585116,12.973227,12.413751,13.200561,12.236415,14.578349,12.022903,15.860079,14.328548,13.673941,12.915244,12.033847,13.360604,10.665418,8.6683372,8.4388826,5.8442355,6.4880049,5.8005929,4.1241907,3.6540043,3.050609,1.3524504,1.197772,0.89723239,-0.52529899,0.18306909,-1.4176469,0.1500669,2.4198845,1.9431139,2.1326099,4.2942537,3.7611915,2.6988291,4.1932723,3.3342381,5.4038801,3.5209743,4.1011353,5.9066078,5.9776248,3.8968512,8.0990985,5.130813,7.6275679,8.203858,9.850149,6.1106028,10.735463,11.683377,12.018305,11.913983,14.872095,16.739853,18.75747,17.286497,19.792968,20.950958,21.633055,24.490378,24.457944,26.475835,26.668292,28.788764,27.535428,30.020697,30.540532,30.143992,32.599929,30.731945,32.89238,34.578243,34.680953,34.816524,38.079796,36.525104,35.293351,38.005819,38.255294,38.488232,38.664468,37.175728,38.27631,36.149696,37.87245,34.150218,35.810778,36.407336,35.025855,34.644194,34.774035,34.527938,31.822005,31.710529,30.855397,30.338014,29.281096,29.120324,31.030327,26.63689,27.590947,27.105906,25.857327,27.448691,24.303821,25.369221,23.175253,24.008648,23.399185,21.32223,21.816381,21.251304,20.710549,21.665462,20.355019,18.83251,21.253666,16.265014,16.79957,14.628032,15.646179,12.930078,10.895707,10.714383,10.323316,7.9623416,8.1469919,8.246079,6.8824906,7.4260941,5.6969354,5.7430356,7.08368,5.0156727,8.2073906,4.7412444,9.3539118,5.922323,9.3272185,7.5914676,5.9813721,7.750318,1.9433274,2.0080815,1.2294332,1.06859,-0.24672542,-0.48905829,-1.2679506,0.54416256,-1.4128316,-1.1986162,1.567423,-1.2292865,1.4559271,2.0568116,0.67221818,0.92118987,3.1410341,3.4137021,1.7080439,4.6546962,4.3641685,4.946151,5.8096634,2.4001895,7.197138,7.3741792,6.5529646,7.5389475,9.2156125,7.3891559,8.0495904,8.2372052,8.9263531,8.5161086,7.1774105,9.2632364,8.4304855,6.7525037,9.2039199,7.0902656,8.0835355,5.1872595,6.5185318,3.3161657,3.9271251,5.084664,1.6217195,2.5448016,-0.37305897,-1.0742934,-1.6548618,-1.9479463,-3.6424202,-5.5458188,-5.4533106,-6.8940067,-10.858289,-9.8827619,-11.798581,-14.997189,-16.019624,-17.152208,-18.113085,-20.14338,-21.173232,-22.859798,-22.939824,-26.315095,-25.276782,-26.830742,-29.133498,-27.002549,-29.692127,-29.091137,-29.901208,-32.014397,-30.513612,-34.189674,-28.716677,-30.996092,-30.930733,-29.654083,-31.258499,-29.050903,-30.21909,-31.346997,-27.789728,-31.217549,-29.360859,-30.256545,-29.213639,-29.315264,-29.512087,-28.938127,-28.879305,-25.476027,-29.642856,-26.386253,-28.298386,-27.623871,-28.551417,-28.232994,-27.387353,-30.665487,-28.31263,-31.940764,-27.432959,-31.098715,-28.568455,-29.957891,-30.554365,-28.621517,-28.064252,-28.880383,-27.783269,-26.167089,-27.478654,-25.5476,-24.973662,-24.950644,-24.046682,-24.839364,-21.419276,-21.816539,-22.079332,-20.462172,-19.802668,-18.668489,-18.370697,-17.887642,-17.020465,-15.878934,-13.971721,-14.090394,-8.6887071,-11.461799,-9.9548917,-7.1064965,-7.8301917,-6.459505,-6.596467,-5.1399848,-3.8108207,-5.3732988,-3.5883889,-1.1220017,-4.3217586,0.72673017,-0.57883089,-0.91272674,0.89379398,0.16207536,2.3268386,2.9414779,3.0717585,4.26244,4.425903,5.2208682,4.7333804,3.2538894,2.8543786,3.1523122,-1.7322258,1.4783379,-1.0914497,-1.9586711,-3.4504974,-2.5358937,-4.4830526,-3.2696481,-4.8110023,-5.9924443,-5.0096903,-6.9338691,-3.8414532,-5.4364623,-5.0753938,-3.8896975,-4.7828033,-3.9309264,-2.4970051,0.83210665,-0.59950507,-2.4522754,0.87042507,-2.2134898,-0.41665821,-3.3272174,0.7559889,-3.5350849,-2.6477192,-2.8180275,-4.7833188,-4.357741,-4.2419708,-3.5455709,-4.0140018,-5.1282552,-0.89222963,-2.7500194,-1.5258778,-1.9910484,-0.077676398,1.0349271,0.56401946,3.8899355,1.2661525,3.1785786,6.0742363,6.1666135,7.4324939,8.7393329,9.8778591,10.70029,13.191142,14.439482,15.1119,17.62079,17.895586,19.109636,19.79606,21.219805,20.832791,22.626056,21.787409,24.167225,22.403081,23.901788,25.212813,23.513077,24.22022,27.683054,25.560833,26.682279,26.284715,27.515013,26.005296,27.089067,25.350855,26.742237,26.257864,25.485211,27.939691,26.984244,27.035694,24.69967,25.43585,24.870812,23.691721,22.959704,22.556726,22.068285,21.564724,21.294908,21.616337,20.611377,18.432156,20.598461,17.105772,19.314437,17.402067,19.162435,16.193781,16.326117,15.470779,12.388161,12.852544,10.591124,8.0119386,6.3086945,7.0525891,4.4508937,2.1210285,3.229505,2.1989408,1.5040624,-1.2461423,3.9726867,-0.64586531,1.3564448,0.58485155,2.1924829,1.4098915,3.2151116,5.986626,3.5192781,8.6021123,6.1304817,9.7576713,12.106713,11.892726,13.342083,13.274634,12.094893,14.657431,9.8366299,12.157552,13.221872,12.388933,13.892586,11.707407,12.123352,13.374007,11.581582,15.097936,12.881024,13.175982,11.275345,12.466346,10.899339,12.853029,12.468642,13.081899,14.275228,13.446933,16.369648,12.947825,17.2016,18.513019,18.611213,19.468565,21.811192,20.261822,23.512762,21.620025,21.146827,23.802137,25.226864,22.850208,28.458452,23.927399,27.204776,24.864082,27.67093,25.345253,28.814055,25.238271,27.769247,26.381728,26.572458,28.209409,25.644755,24.284564,23.817107,24.627648,22.374157,22.843509,21.348055,20.235377,21.048427,18.069163,18.848798,17.654866,14.569964,15.334777,11.117777,12.7435,8.5946608,8.534718,7.2273259,6.8019749,2.8972023,2.3649687,1.2612477,-1.5310424,-5.0516959,-3.683704,-6.6638391,-9.1520671,-7.4976463,-11.91949,-12.021774,-16.658419,-14.14365,-17.494248,-19.699304,-18.050966,-20.700615,-21.64517,-21.627356,-23.649087,-25.148436,-23.966227,-24.572389,-24.884749,-25.478277,-26.979231,-24.05977,-27.94777,-25.164705,-26.524629,-27.596321,-27.699055,-25.783754,-28.008659,-25.275234,-25.590608,-28.511027,-24.41938,-25.931793,-26.645226,-23.70516,-25.514598,-24.669225,-24.09319,-23.8777,-23.143599,-22.503363,-25.064898,-22.891176,-28.026994,-23.388214,-26.565328,-28.443239,-26.721186,-29.243033,-31.269185,-33.169219,-29.73036,-35.085303,-31.542101,-34.430483,-35.834373,-33.363015,-37.264386,-35.127991,-37.961994,-36.704786,-37.807804,-37.268177,-38.71892,-39.085167,-40.181508,-39.561185,-41.629437,-37.170908,-38.006087,-38.838263,-38.415246,-35.228405,-38.952687,-35.663082,-36.103077,-32.502945,-34.984709,-31.397006,-30.605729,-31.978282,-29.064274,-30.576065,-27.516643,-29.228882,-25.277589,-27.049008,-21.594824,-24.335997,-20.975593,-21.239099,-19.766784,-19.167955,-16.629886,-15.330089,-12.463069,-11.984656,-9.1805306,-9.3856969,-3.3394492,-5.6905288,-2.5763796,-2.0802206,-3.4895756,-1.7693872,-2.5560071,-0.25966229,-3.4229844,-2.8460483,-3.6841492,-4.7456925,-5.5676126,-3.8608125,-6.9236828,-5.6507232,-6.2143329,-5.1114812,-7.100899,-5.8373586,-5.1478053,-6.0681698,-3.927096,-4.4828187,-2.3119355,0.14385112,0.066563193,1.4130352,1.5513488,3.8857444,2.9591151,7.240898,6.0473891,6.9724951,8.8586732,10.803164,12.048574,14.403736,14.662723,16.649697,15.79915,19.080521,19.194104,22.532095,21.511035,25.545688,25.451516,28.503466,25.314076,27.96768,27.15437,27.425745,27.803427,29.072377,26.163723,32.952672,25.964863,31.307064,28.690249,30.707885,29.153027,29.625432,29.530267,27.704002,30.603119,27.116019,28.087034,25.124207,24.896348,24.486873,21.955939,21.523357,20.966371,18.191615,17.161182,14.29624,13.564453,10.751646,11.144705,9.7680555,6.5924722,6.4072075,5.7051189,3.6311071,2.3948276,2.0808243,-1.4303623,1.0852645,-4.4113133,-2.3221727,-7.6727878,-8.0609239,-6.2815662,-10.70261,-7.3192883,-12.115925,-11.492259,-11.568249,-13.590063,-13.59723,-12.984038,-12.655677,-13.138502,-9.76601,-9.0223599,-8.8106614,-7.3260879,-5.3463366,-3.7274341,-1.8600694,-3.601117,-1.6843541,-2.3367546,0.087062573,-3.0794831,0.48736606,-2.4428419,-1.7115449,-2.814874,-3.9202985,-0.90866909,-0.76500263,-3.2937029,0.55250681,-1.1657267,-1.3077868,-0.20066052,-1.1650917,-0.84992847,2.1858631,0.63419478,2.3950948,4.0261421,1.7248451,4.9646353,3.2766162,4.045222,5.1626001,5.176188,6.506722,6.8346911,9.9671319,7.7820019,10.420721,11.130735,12.154317,12.538788,13.821419,14.077181,15.733358,17.194059,16.516883,16.065882,19.852009,18.065878,18.442414,17.795535,19.981485,17.741451,19.245665,19.571728,20.376633,19.918726,20.263577,20.034092,24.78423,19.311826,24.477444,19.59453,23.455672,20.775553,22.414928,20.198073,22.897433,18.039095,21.656748,19.386829,18.182404,20.053322,18.838674,14.282762,18.062788,16.128191,14.434265,13.766772,12.402037,14.105128,11.826518,12.34635,12.506107,10.130018,9.5869415,9.0147557,7.5815426,10.533782,8.281755,8.2659859,9.0573388,8.7563059,8.3635352,8.9206221,12.30815,8.7888592,9.5901118,9.9998342,10.26507,12.475901,10.883138,8.5276382,13.694321,11.026937,11.918056,11.51609,15.352333,10.281149,13.917349,13.171793,15.157662,12.651876,12.963761,12.412329,14.444161,12.845925,12.012291,9.8534628,11.178944,8.2695476,9.0375296,10.598622,6.7751178,9.7753558,3.9823928,7.4152712,6.2185496,1.4732389,3.2257458,0.57053307,0.3089046,-0.91627139,-2.1702152,-5.2208848,-4.5080525,-6.8099265,-8.8331313,-9.0117588,-11.773245,-12.079468,-14.599522,-15.141033,-17.327765,-18.546054,-17.896585,-23.523972,-22.710375,-23.674249,-24.710505,-26.885021,-26.26089,-28.012867,-29.464396,-31.019423,-31.448001,-29.179505,-30.160742,-31.288279,-32.466947,-27.961547,-30.652077,-31.227531,-29.960044,-29.37934,-28.028012,-27.7997,-25.072682,-24.826587,-23.086197,-24.433365,-20.610458,-21.370225,-17.989663,-18.989623,-16.715283,-18.832945,-14.892257,-16.831921,-14.41835,-15.866653,-14.441678,-14.153829,-14.357809,-15.361252,-11.644941,-13.004867,-13.689923,-12.955436,-14.068593,-12.062157,-15.120006,-12.612338,-14.330722,-14.938646,-14.246422,-12.846318,-12.343094,-11.144041,-13.221254,-11.875321,-11.91359,-10.220407,-13.081753,-8.2040002,-11.650118,-12.047493,-8.1975217,-9.5428454,-9.3659321,-8.7621342,-10.678465,-8.0699095,-8.3855224,-9.0387215,-8.4621348,-6.478704,-6.3291334,-9.0411254,-4.7619078,-7.4817921,-4.5920647,-6.140432,-5.1744305,-2.8007738,-3.8056319,-4.9832101,-2.8108768,-3.069901,-1.9986505,-2.3260315,-2.1305302,-0.46548161,-3.5499063,-2.9354081,-5.2011041,-2.2562682,-8.5284054,-4.4037729,-5.3098835,-6.6222515,-4.9410793,-4.3550251,-2.8705112,-2.639241,0.12818694,1.8780535,2.3337356,3.1444201,4.1460323,7.3207081,3.911587,8.7116633,5.7873456,8.6469126,8.2713236,6.1591468,9.4349522,8.7610147,9.2084493,11.220422,11.94826,12.325339,14.997526,17.050705,19.832531,22.294412,20.440138,23.730026,22.902645,24.133208,21.857275,25.70753,26.081432,25.712027,27.07608,27.765943,30.426346,29.628574,31.349701,32.374842,32.834672,34.064162,34.59992,35.361948,35.583252,37.633352,38.7741,37.388348,38.260291,40.400439,38.535745,38.231281,38.297547,41.052492,38.432502,41.476622,38.700474,39.379638,40.040438,38.891716,39.577803,39.464307,37.736314,38.385836,36.009164,36.359403,35.69437,34.262971,34.07765,32.638964,31.049231,28.20908,30.341103,26.359551,26.984146,24.733474,24.655879,23.40226,22.405928,22.47108,21.412194,19.24036,18.602367,18.375408,18.203482,18.098005,15.38737,16.491021,16.017162,16.571654,15.858911,16.619105,17.509048,17.885966,14.714894,17.714126,17.106917,14.153263,14.473649,13.73341,10.979,11.196261,6.6571402,7.7945227,5.3802042,4.8209159,1.9919577,4.5415296,1.7538772,1.6930018,0.1903383,0.92704517,0.39549586,-1.2376687,-0.64895705,-1.7495649,-3.5899717,-4.9125623,-5.4286497,-6.2059698,-11.34658,-6.4498589,-12.978261,-8.1269322,-13.910048,-10.98657,-11.355653,-11.428205,-13.346246,-9.4089762,-10.286292,-9.1144316,-11.713537,-8.0894329,-10.684585,-11.86956,-12.551938,-14.142304,-15.610465,-14.697753,-16.37108,-16.662431,-20.126521,-19.33199,-19.964234,-19.036708,-19.812396,-22.498422,-20.049209,-21.709587,-22.058994,-18.5723,-22.952861,-19.086911,-23.862158,-18.106466,-22.780685,-21.821166,-22.535784,-24.42403,-24.251663,-22.879118,-24.639215,-21.984763,-23.550007,-22.25334,-22.704819,-21.359055,-20.016133,-21.461055,-20.331946,-21.104245,-20.289817,-20.065717,-18.549943,-17.140224,-16.563561,-19.383648,-17.339054,-18.070184,-20.965213,-19.479587,-21.081313,-22.890046,-20.45969,-27.321006,-25.509316,-26.787735,-30.83808,-30.837256,-34.557343,-36.410522,-38.909855,-39.184855,-41.427174,-43.05003,-45.740361,-45.316606,-47.780602,-47.755775,-46.922544,-50.538941,-47.889736,-52.736619,-51.696238,-52.578263,-56.971454,-55.66214,-58.753556,-57.400073,-63.524234,-59.229759,-63.458181,-61.888822,-63.668969,-60.82185,-61.32614,-60.397146,-58.81444,-60.790542,-56.058548,-55.774546,-53.774595,-54.635124,-48.42812,-48.021101,-45.013014,-41.945258,-40.332094,-36.344657,-34.802951,-30.360759,-28.944438,-23.284516,-23.405257,-16.929788,-16.358497,-14.275981,-11.091244,-5.6755626,-5.6125325,-2.8575282,-1.198294,3.31458,4.0658074,8.7211561,10.359793,12.240784,16.765356,17.061858,19.343327,21.548208,24.049622,26.61661,26.539403,27.955471,30.246368,29.235301,33.201642,30.434158,34.714529,30.671447,31.807074,32.917774,30.058778,32.64699,27.134394,28.954531,25.878307,23.589208,25.693181,22.744335,21.247522,22.970991,19.190605,18.446805,18.608276,17.289958,15.077058,14.414323,15.85297,14.187043,14.37162,14.744255,14.459737,14.060007,13.374748,12.440982,15.155666,14.945423,11.664251,14.903524,10.52835,11.69947,6.1939849,3.8192771,4.5957926,3.1234253,-1.0538451,-0.08037001,-2.4202078,-1.4390437,-3.8045401,-0.93923322,-4.6769081,-1.1858105,-3.7587057,-2.0809151,-2.1758908,-0.16241329,-1.0290932,-0.79429125,3.3859807,-3.4779076,2.2967099,-0.89550862,1.4856074,0.62098961,2.2624042,1.3384154,2.0913088,5.3401215,4.0819806,6.6529301,6.2018919,9.613771,7.6714182,11.549345,12.514838,12.14475,14.698591,12.824765,13.958974,14.358816,19.268476,14.666993,19.066949,20.14493,20.940009,23.801843,25.181416,25.222583,27.708899,28.708227,30.382052,30.033396,31.235699,31.004845,31.751055,34.474259,32.03568,36.088638,33.230238,35.489974,37.494384,35.860554,36.160375,35.747919,34.860282,35.468056,36.56885,32.610035,32.031916,30.507455,31.376073,28.365333,31.691548,25.893006,25.643447,21.447686,22.651492,16.010115,18.221636,11.331159,10.920875,6.7097328,6.0454234,1.5138139,-2.3291382,-4.391973,-3.7585503,-9.8528424,-12.754111,-12.208629,-17.177535,-16.29144,-19.897343,-21.63342,-21.718561,-22.067516,-23.053516,-25.060754,-23.541421,-24.436517,-25.151757,-21.449191,-21.888379,-20.117243,-19.651746,-20.909504,-21.833855,-19.370254,-22.849793,-23.437215,-24.13455,-23.849072,-21.857416,-24.168385,-23.321263,-21.718156,-22.730903,-22.308822,-20.446025,-22.158764,-21.958227,-18.032961,-18.01877,-18.079992,-15.501913,-15.021333,-13.669952,-9.770398,-11.910335,-9.974917,-7.3920871,-6.4075133,-3.4546778,-4.7849557,-2.2606549,0.25578673,0.76564096,1.5694734,3.2395959,2.7119343,5.9472095,7.6639254,6.7744942,9.7129587,6.5877518,6.0784231,7.416637,6.653392,7.2055273,9.7921572,9.4972538,8.6051294,15.108141,13.853225,14.988608,15.484922,17.65707,16.599051,17.29781,17.382738,19.624716,18.758809,19.358483,20.028078,22.411924,22.590336,20.990662,25.922507,21.901432,25.409631,24.02709,24.138518,26.209213,23.975464,23.381745,27.28987,24.025816,25.491909,26.242509,27.926116,26.496016,25.796066,27.866027,22.977754,23.521244,24.411748,23.092239,19.969989,18.243214,18.760672,17.433741,14.625866,16.103361,8.6886296,12.727287,8.8559731,9.5965122,4.8125593,6.5437756,6.6689394,-0.25742701,2.1593921,-1.8597444,-0.83448867,-3.0459466,-4.5048391,-7.3618563,-6.9491236,-9.9639283,-9.9969402,-10.932139,-10.642764,-13.381381,-12.364022,-14.552591,-13.577392,-14.017798,-11.930148,-17.371997,-14.904456,-16.942536,-18.242578,-18.207562,-20.579047,-18.23804,-21.646509,-20.571809,-22.380905,-19.724472,-23.624981,-18.714748,-20.585552,-21.737166,-21.533766,-19.95388,-20.205375,-16.894481,-16.275433,-16.994957,-15.140188,-13.70848,-14.886232,-14.528573,-16.134843,-14.574493,-15.195092,-17.811192,-15.036452,-16.530411,-15.620608,-16.612869,-16.960556,-15.615802,-16.716844,-17.122733,-15.676691,-13.423993,-13.657154,-12.537254,-10.216272,-9.6283537,-5.2878622,-5.1742551,-6.4963831,-2.5402161,-0.89278731,-0.20672169,-2.246746,3.7496422,3.8269034,7.608952,8.1600325,10.581706,12.108886,14.533351,13.783814,18.179292,20.462112,19.245641,22.533062,19.871126,26.058794,23.407503,25.670482,24.753009,29.775985,27.185167,30.122011,29.400337,29.790331,29.698581,30.407593,27.524573,30.288219,28.452608,27.892844,27.856699,24.097666,24.845662,25.515245,21.547996,21.243616,19.189333,17.428686,19.495567,12.900713,14.845005,11.181893,12.635883,7.9642186,6.3796886,7.495614,5.3809507,3.8534096,1.1759221,0.92166923,-1.0392534,-1.7057924,-3.4409083,-5.2460359,-5.3837377,-5.9841652,-6.9272239,-6.6954574,-8.3662003,-9.7054163,-9.047469,-9.7355971,-13.571791,-10.898227,-15.560732,-13.852555,-14.725167,-15.356758,-14.510608,-14.597838,-13.607082,-15.619212,-12.581179,-14.203658,-11.068795,-11.349107,-9.6821007,-6.7808732,-6.5554442,-4.1042319,-3.1226517,-5.1146475,-3.9917882,-2.7276989,-4.2269883,-4.176062,-4.374502,-4.5523411,-2.8004114,-5.3891342,-3.2069839,-5.7219715,-3.3880343,-3.9399958,-6.1914601,-4.2851527,-5.6715186,-6.3812492,-6.163883,-6.9092076,-6.4483223,-7.4177229,-7.4666937,-7.0398001,-8.0899762,-9.4303153,-9.1450045,-9.1175582,-7.9338234,-8.9178513,-10.745306,-11.771619,-8.5677681,-12.279494,-8.5564759,-11.319083,-13.549998,-14.705736,-12.409129,-15.144679,-14.164075,-15.644178,-17.888627,-16.574724,-19.198779,-15.873087,-20.559853,-17.917873,-20.521233,-18.783036,-19.163957,-19.972024,-21.403612,-21.283748,-19.12613,-20.656779,-21.215994,-16.04126,-21.177743,-16.933639,-15.850575,-19.400173,-15.192053,-14.429117,-14.793656,-14.806886,-12.859739,-12.476697,-11.944485,-11.6079,-8.1441257,-8.6836505,-7.1135341,-7.2374876,-5.1811892,-4.0225732,-4.1710554,-2.9495088,-1.9653972,-0.50001594,-0.91145246,1.4176434,0.2141937,0.11535482,3.5480161,2.6963032,3.0056603,5.7390995,5.0222059,6.0886868,8.5549066,9.8294217,9.7495916,13.073782,10.949176,13.015037,13.25285,16.10135,17.213318,18.5911,15.973428,18.365739,21.051294,20.038505,23.260064,21.286691,22.605265,21.938868,23.844679,20.899317,22.096639,21.073412,23.293092,23.225314,22.379018,19.761896,21.872868,21.844979,21.727106,19.218368,21.730017,20.885509,21.565803,19.00063,19.33012,20.415126,19.212275,19.474638,21.591267,18.489429,22.545255,21.408784,22.836332,21.918936,25.019689,24.003824,26.82803,24.221389,28.363976,25.450682,28.182822,28.576967,29.690358,27.489412,29.562162,26.581851,26.752539,28.859535,25.52672,25.66467,25.02122,24.479365,22.425524,22.437672,20.278607,20.371828,19.153795,16.679072,15.835683,14.605011,12.574684,10.514818,9.5075731,9.0396985,8.3151024,5.3439171,4.8710968,3.8912548,1.7201878,1.2756113,-0.093843696,-2.9668427,-2.5832009,-3.3071656,-4.9857617,-7.3098825,-7.2644744,-9.4568138,-10.28238,-9.1518524,-11.132867,-11.72901,-11.70933,-13.197771,-14.000819,-14.362637,-14.47444,-14.178763,-16.012955,-14.653707,-14.445842,-14.934727,-16.952858,-17.868396,-14.925379,-18.782978,-18.324588,-21.188093,-20.901427,-21.778855,-21.809937,-23.740612,-25.28235,-24.336965,-26.870082,-24.387774,-24.522397,-22.15392,-24.602035,-22.443827,-20.92923,-18.191754,-17.732988,-19.113283,-16.390038,-16.548437,-13.29547,-14.358359,-10.40049,-13.47092,-7.8591132,-8.115384,-6.7748082,-5.47624,-7.8822231,-6.8280912,-1.1269696,-4.7047893,-1.7294327,-1.4081111,-0.49252555,0.33453553,0.63468374,1.1585129,2.9678867,0.86515826,4.8604636,5.3135505,6.3717065,4.1749344,8.1514878,7.5309413,9.3003264,8.2808182,11.143416,9.1719804,10.962726,10.39814,12.328509,10.442198,14.831795,9.4118297,11.948166,12.610837,13.592756,12.074006,12.300493,14.226337,11.264852,12.668588,11.992789,9.7840626,8.4855387,7.3742629,4.9839177,4.7744877,2.1045058,1.500636,-0.22222796,-3.3427383,-3.0041856,-4.5444881,-6.2222576,-8.3510045,-9.7641709,-8.2233605,-11.707832,-11.749883,-12.985482,-13.923696,-12.335407,-16.395532,-14.589562,-14.793564,-14.797057,-18.0633,-14.809147,-13.789862,-13.665872,-11.868436,-12.4709,-9.4979223,-9.1073719,-8.4284248,-5.7872966,-5.0883813,-2.3918092,-0.99029916,1.7832237,1.762797,3.5118622,4.2938202,6.4046158,4.3628029,6.9183379,2.0440592,7.0602329,3.4170787,8.7170964,2.9727561,5.0650952,4.1641899,7.5462019,5.3351788,3.5293699,5.0844433,6.1924228,5.6507559,4.6406833,5.0514183,3.9673558,4.3325626,0.58316356,2.8925331,1.1540599,2.3867333,-0.25156711,-1.5974736,0.84984509,-2.8522336,-2.2679052,-2.4252058,-4.9818973,-6.0939846,-5.3931627,-6.2322063,-6.5670663,-6.0009103,-9.1726912,-7.2545295,-10.887882,-8.6908407,-10.097716,-9.3345563,-13.19782,-11.833485,-7.9448311,-14.458756,-13.394954,-13.46361,-14.379828,-13.191635,-14.674654,-14.996709,-15.269155,-15.733309,-15.414171,-16.102346,-16.296567,-12.383534,-13.918616,-13.840506,-9.9205684,-9.4516969,-10.213352,-7.8800635,-7.7768433,-5.4795048,-7.3096755,-7.3638042,-6.1900699,-9.5844609,-4.2360566,-5.9616773,-5.5498489,-4.2254545,-4.0801385,-2.8007258,-2.266288,-4.9532065,0.89390859,-1.546566,-0.53282377,-0.028409683,2.0702799,3.574332,0.82777063,3.6748638,2.541994,3.892775,4.1573023,2.0734027,5.9513254,4.2283451,7.2096793,5.4283963,7.7638754,7.59605,5.9823077,6.061752,8.7727618,6.8190582,7.2643112,6.6666708,7.498307,7.1462088,6.8371092,8.9250556,6.1887166,5.8469103,8.0283635,7.9882722,4.7168537,7.3424103,6.0293321,7.1332,8.1078271,7.5994148,8.2622875,4.7921168,9.3233871,7.5564488,8.8095633,6.4102512,7.2878177,8.8518334,8.9144407,6.1470313,8.0852906,7.989473,8.1458563,8.3243464,5.6163511,10.269275,5.9584894,7.6831243,6.391431,8.9519901,11.689058,8.4442496,14.117085,13.1911,13.795024,17.220323,19.182306,18.058833,19.074837,21.69323,18.38919,25.230263,22.335042,23.700218,25.400816,26.008589,22.308248,28.336637,24.651574,23.243155,25.10621,23.692826,23.129972,24.314149,22.936556,21.857586,19.523414,21.184122,18.886238,18.282272,19.758154,15.547344,14.952878,12.126113,13.139418,10.694292,6.0171597,7.6868531,1.4735041,2.0211193,0.1579993,-2.6167708,-2.4556639,-5.8610935,-3.801124,-7.694513,-9.6589549,-8.7956805,-10.480923,-12.113941,-12.936466,-16.026174,-13.044607,-18.104272,-18.509877,-18.48054,-20.640562,-21.03676,-22.470494,-21.89324,-23.330611,-23.186871,-26.795844,-23.075412,-27.244511,-24.423037,-26.014029,-26.168545,-26.583574,-28.021297,-26.430509,-25.472746,-23.863906,-24.438866,-22.715174,-22.461399,-21.494936,-22.252623,-21.442025,-22.031443,-21.566897,-23.382661,-22.029411,-22.511788,-23.668419,-21.276061,-25.712277,-22.586486,-26.205499,-23.257607,-26.085859,-23.57489,-21.92901,-25.848149,-21.120822,-24.210728,-22.735971,-22.655031,-22.773305,-24.27213,-21.383695,-21.625327,-20.716778,-21.675319,-20.542139,-17.883149,-19.503993,-16.283467,-17.385942,-13.928876,-13.405192,-12.908367,-7.3616491,-12.885854,-4.2594738,-7.0324875,-4.4716466,-2.4178453,-3.6943163,4.6880812,0.029707803,6.1858218,2.0726547,4.4066481,7.4784127,5.3975018,5.2118041,7.7665656,5.4944008,11.094208,9.310235,9.718346,12.188259,13.778344,13.291661,14.243926,13.92856,17.248414,15.241293,17.323851,15.379615,15.700187,18.281862,16.022291,19.151044,17.39364,18.093229,18.85271,18.136598,22.785282,19.82609,22.199291,23.329427,22.299159,25.607677,24.873051,24.745572,27.244061,26.954943,26.266206,27.376611,27.702748,27.623455,27.760725,27.553436,28.140912,26.526712,28.08918,27.858538,28.389592,27.653363,27.614237,25.880413,31.371394,25.52797,32.102805,29.262681,31.388696,29.997389,31.97394,33.014359,34.877971,32.407016,36.092438,34.025793,34.797155,34.588696,34.621304,32.784472,31.248924,33.549365,27.887553,32.235266,28.869697,27.540372,27.733706,25.186788,27.161697,22.544961,25.122837,22.653397,22.827022,21.863533,18.545625,21.861296,16.599408,19.787442,18.063772,18.410226,17.916844,19.388197,18.184709,16.156773,18.495728,14.949409,18.467345,13.161107,16.935865,12.482977,17.578222,13.084745,15.431913,14.347386,13.836989,14.584565,14.611489,14.572162,14.293889,13.699446,16.859417,11.019707,15.084861,10.167052,12.838878,10.57148,9.7797887,9.2571937,8.7546245,9.9774409,8.3338099,7.4682167,6.4952499,6.8920109,6.1278355,5.7334411,3.6207482,4.9082527,3.8734875,2.9973416,1.9814247,1.2983813,3.3504131,-2.2538075,2.7658546,-0.59492234,-2.0769265,-1.5112311,-4.1876912,-0.69167445,-4.2437963,-4.8371499,-3.4149032,-5.1399956,-4.0356551,-4.8253707,-5.33765,-6.7679236,-5.695971,-6.8794272,-7.852551,-6.174832,-9.290602,-9.5589811,-9.9378164,-11.677244,-12.041199,-11.725455,-11.239493,-11.888377,-13.069067,-13.459825,-14.566503,-14.904086,-13.581567,-16.346189,-15.424302,-17.176522,-19.261619,-18.730696,-19.052682,-21.505286,-19.963835,-24.856286,-20.928858,-26.759473,-25.865822,-28.959458,-30.436026,-33.528212,-33.280142,-35.390331,-36.513095,-39.246057,-41.699269,-43.053162,-45.280942,-50.419184,-48.680944,-54.714613,-51.59917,-55.186421,-56.053113,-56.323125,-59.124035,-56.920583,-59.831901,-57.337503,-60.461607,-60.654864,-61.21119,-62.175763,-61.59708,-64.261843,-61.490542,-66.287155,-62.393828,-67.881185,-65.071719,-68.889908,-69.49267,-71.795653,-73.167331,-75.439176,-75.208841,-81.518752,-78.150246,-85.248981,-84.459226,-87.209872,-89.126631,-92.13831,-93.332657,-97.640465,-97.518834,-102.44288,-105.06605,-107.87009,-112.38727,-114.36811,-121.36017,-120.63858,-126.72956,-129.60447,-129.88212,-134.52759,-137.5568,-139.4232,-141.67921,-143.78943,-143.751,-145.36172,-145.82971,-146.27209,-143.82579,-146.38583,-145.37931,-141.249,-142.84055,-136.84482,-139.57827,-135.2828,-128.05662,-131.44774,-120.80992,-123.41353,-112.87297,-112.91155,-104.45767,-100.83471,-94.879676,-89.425323,-83.730408,-76.489446,-70.660298,-61.705682,-56.880186,-47.80868,-40.683265,-36.483615,-25.331648,-20.525885,-10.161982,-1.8939539,4.4259631,13.033364,21.591809,29.044588,36.375295,47.255018,51.838081,62.804864,68.116933,74.914948,84.063787,88.618987,98.325212,104.87276,110.2617,116.66016,125.92899,130.10177,138.91611,142.09076,149.53624,153.25149,159.16012,164.96835,170.38001,175.8074,180.19807,184.69923,187.66839,193.50013,196.2488,199.90137,202.96043,207.17883,206.0894,213.35316,213.05575,217.48035,218.10912,220.13449,223.26774,223.80632,227.30685,226.08174,228.93674,230.74862,227.96287,232.57647,230.30781,232.48423,232.31284,229.32957,230.47016,228.69811,227.59784,224.47556,225.9323,222.27926,218.1605,215.60467,209.61287,205.63984,198.76377,193.08562,185.57524,179.45873,171.35563,165.20462,158.61887,148.08788,142.39515,133.23581,126.10809,118.03283,111.19581,102.95358,95.198403,86.374742,78.618811,70.600338,60.686469,53.207502,45.480875,40.041415,29.717183,25.113223,17.101682,12.456846,7.9479073,-0.33913512,1.1285945,-8.4378653,-8.5266296,-13.620058,-14.60834,-18.711755,-19.837511,-20.59106,-20.564275,-23.077218,-20.892702,-22.03117,-23.788658,-19.280454,-19.905884,-19.328766,-17.107458,-16.755658,-14.220142,-13.807231,-11.624648,-10.689384,-9.3981184,-3.0328347,-5.2182364,-3.5101817,-4.8180405,-0.066345338,-5.3383594,-0.97190189,-2.6886243,-0.88729037,-2.1404959,-3.5293615,-4.4040424,-3.2788412,-3.9082663,-3.4520037,-5.6937184,-8.8520774,-9.870179,-11.119849,-11.471299,-15.967043,-18.42474,-20.335696,-24.760339,-26.017184,-30.770754,-32.998126,-37.372232,-42.720783,-43.887493,-47.643506,-54.719718,-54.374148,-60.380248,-63.908758,-68.19862,-71.653301,-75.746833,-77.693334,-79.711609,-84.321521,-88.423617,-92.836883,-94.889533,-96.112043,-99.579317,-104.07264,-104.7107,-111.15615,-109.07951,-112.99812,-115.42385,-115.8643,-114.60215,-118.29217,-117.84995,-117.86877,-120.90773,-118.99952,-119.85354,-118.73337,-119.2669,-118.39478,-117.54972,-114.65379,-114.12629,-115.65009,-112.73342,-109.36188,-111.44553,-104.57491,-107.03753,-104.71764,-106.75517,-101.7494,-101.72131,-100.40192,-99.968007,-96.348837,-95.676371,-95.791591,-95.019337,-94.538088,-90.938015,-91.85879,-87.012623,-87.402092,-87.210466,-84.486326,-86.526915,-80.166921,-84.141803,-79.912665,-79.460172,-74.742705,-73.186925,-72.7001,-70.124363,-68.234462,-62.467852,-60.521999,-56.699267,-55.145413,-51.123327,-46.379028,-43.930122,-40.589931,-37.482558,-35.758738,-30.340088,-26.206139,-29.027977,-26.261069,-20.873716,-19.290953,-19.915664,-13.686574,-17.783672,-11.371089,-15.105443,-8.998559,-8.8671107,-8.9037226,-8.6952453,-5.3105716,-7.4286593,-5.2651224,-5.5197918,-4.482566,-5.28604,-8.1617912,-2.5330011,-7.6368958,-5.144466,-3.7193961,-2.2859169,-2.5072033,-3.0103239,-1.5254876,0.77823619,-1.2185425,-0.65988434,0.098225782,-0.67241309,-1.4032169,0.35260864,-0.32442018,-2.126576,-0.5893099,-2.0740682,-1.8596631,-4.9239599,-4.7061184,-2.5872561,-4.4109164,-5.1667464,-6.8344335,-8.5237574,-7.8833399,-9.0327181,-9.7005902,-9.2153359,-9.9092337,-9.0500137,-12.534536,-11.675208,-11.348695,-13.072802,-13.079319,-13.353232,-14.400444,-14.764389,-16.58127,-17.259427,-18.046747,-20.700384,-19.788521,-20.36712,-18.632435,-20.637658,-17.209756,-21.183719,-16.921529,-19.505019,-13.831519,-14.46447,-13.169898,-10.438845,-9.8835574,-11.342346,-6.994338,-4.6926588,-3.5367404,2.012751,0.36894832,5.8042239,6.6159983,5.913413,11.211902,11.325859,15.45997,14.998573,18.813741,19.076237,21.045638,22.109324,23.540519,25.059105,28.433489,30.561452,29.884214,33.867981,33.405577,37.243884,38.085925,41.044814,42.371598,45.024512,46.264506,49.862977,50.356293,54.906279,53.845696,59.859739,59.31206,59.746901,64.673645,61.971422,69.327614,66.328708,71.292856,70.429804,71.076439,72.190767,74.420166,76.143601,74.369766,76.959461,76.987825,75.473232,75.587481,81.30904,74.869209,79.385165,81.499903,77.467016,80.302764,76.711202,78.687955,77.728529,73.93385,77.671008,73.501864,73.153731,73.125099,70.26559,71.130058,66.92782,67.853169,65.743956,65.630227,63.838106,61.677107,64.467227,59.750305,58.812442,59.181282,55.004527,60.914307,50.180076,57.805089,53.019171,53.142168,53.781432,48.071816,53.00302,47.395413,44.837594,45.321415,40.645672,40.699637,37.881145,35.173841,33.39479,30.585471,27.601493,27.257745,24.349891,22.72301,20.616906,18.746796,17.141403,15.308854,13.597831,14.386857,10.173264,11.44954,7.7613629,7.4379264,5.0759475,7.9187091,3.8602855,4.1173286,4.0961905,0.79840409,2.3549376,-1.1278462,-3.8298941,0.27143296,-8.3782574,-7.1422415,-9.3166567,-13.740093,-14.702973,-19.998972,-19.176265,-20.527806,-25.715669,-25.304835,-28.750403,-32.111705,-33.761729,-33.68502,-38.640422,-36.630636,-40.963466,-44.865314,-43.397189,-48.83761,-46.867675,-52.815281,-50.151676,-55.141679,-53.48968,-59.001236,-57.859322,-58.042177,-60.196573,-60.199033,-61.438491,-60.898639,-61.966762,-60.592804,-59.895022,-60.600639,-56.661469,-59.525994,-57.999497,-54.55063,-57.397468,-54.954042,-52.286989,-52.02706,-49.721889,-48.149021,-48.814587,-44.829929,-46.056098,-41.788823,-41.354909,-41.391379,-35.536269,-37.740378,-34.053853,-30.303692,-31.516243,-26.968746,-27.377873,-24.866343,-21.395726,-19.787335,-17.548494,-18.12027,-13.506758,-15.314286,-10.677583,-10.443598,-9.7036455,-4.2904722,-9.0832792,0.77738695,-4.9509071,-0.78010204,2.0990319,-0.94648986,4.2733845,2.3526279,5.9158292,7.37643,6.5884708,10.710975,9.6441428,8.9254781,10.415657,11.29655,9.6591192,14.252614,10.401804,12.133389,13.992873,12.101744,12.40586,13.448474,14.476381,13.314608,12.255957,14.4403,12.461246,12.952097,12.220953,13.217242,11.255828,12.188349,12.603751,11.472371,11.498177,10.116568,11.370006,9.3919198,7.1066124,10.354449,6.5179651,6.3651353,10.048689,7.7025813,11.704528,11.156653,8.4639094,13.458745,11.412677,10.959348,15.485418,13.300881,16.032246,18.686204,15.451048,16.545024,22.050257,19.306674,21.312173,19.419967,23.28474,22.533893,24.986962,21.640638,26.251187,22.960637,24.822918,25.526,25.779629,24.297277,25.187275,26.325817,25.501768,24.518337,25.796064,24.140267,24.271096,23.259829,20.126302,18.565243,18.426192,16.202108,12.446515,9.4254156,8.6106122,5.6352658,3.2173938,-1.0387897,-0.97050528,-2.4764835,-4.6684241,-6.3801511,-6.2837464,-7.2970036,-9.2227866,-9.4873419,-9.1641926,-12.197416,-11.886904,-13.636566,-17.155604,-17.660951,-20.357361,-18.989421,-21.063528,-23.12511,-24.150774,-22.194502,-26.392977,-22.298799,-25.744561,-23.590757,-19.282288,-24.113,-19.345876,-17.812367,-18.180991,-15.572055,-13.304516,-14.459903,-11.875903,-8.9047914,-8.7998793,-4.574059,-4.8809132,-1.3271878,-0.67068328,3.0411778,6.1331727,5.6604574,8.229161,11.111058,12.862328,13.012125,16.080579,18.172758,17.915004,18.769873,21.263623,20.497626,24.276237,21.583699,23.868092,19.988894,22.55508,19.406333,19.43202,17.375718,16.195254,16.625002,14.842242,11.990336,16.467834,10.32715,12.165762,6.1760432,9.4194204,5.3571608,3.9531673,3.7840912,1.9148554,-0.64353381,1.0763134,-2.3670962,-1.4665723,-3.0499641,-2.3731528,-4.4309693,-6.2784871,-4.93311,-2.435025,-8.4537804,-5.2833203,-10.774825,-9.0075865,-11.54322,-13.123702,-12.597823,-17.178522,-13.433521,-18.010958,-15.737431,-18.606995,-16.785295,-17.387568,-17.324428,-20.278682,-20.187351,-17.78547,-21.57035,-18.38685,-21.607686,-20.21936,-21.944859,-18.418103,-21.172436,-18.691477,-18.742906,-13.109911,-14.025168,-13.532399,-9.9531139,-8.8524848,-7.7575715,-4.1929243,-4.8002592,-3.2488332,-5.2053821,-2.0448177,-3.6357229,-3.4513571,-2.3883393,-3.8250565,-0.49896866,-3.6209241,-3.4279574,0.97842723,0.034495667,-3.362305,2.6433309,-1.9763569,0.36818486,1.9380008,-3.3132893,0.85022253,0.025813689,-1.7582915,1.2635515,1.7623912,-0.3358135,1.1542199,-0.58609354,-3.1981146,-1.9528662,-8.4266684,-7.17212,-7.4709516,-12.176581,-10.907091,-13.66313,-13.567416,-14.17304,-16.44683,-17.533654,-17.200155,-20.227677,-21.415166,-18.934519,-19.947839,-20.498967,-18.732364,-20.689865,-20.698767,-20.867422,-16.241976,-22.71204,-17.133929,-18.215858,-18.053607,-14.011764,-16.0586,-13.993979,-12.704209,-13.415827,-12.996879,-14.544301,-9.2769137,-13.305873,-10.90673,-9.980798,-10.616135,-7.2609092,-7.676418,-4.4135487,-1.6660671,-5.9401241,-0.18972423,-0.10434127,0.98611125,2.9104577,0.014813353,0.29555525,0.95145806,0.30136792,0.091318476,-0.15571866,-1.0216559,0.78754112,0.41028659,-0.095970538,-1.3523086,1.2631836,-1.8744511,0.88555416,-2.8244234,-1.206776,-2.9465675,-0.68724145,-3.3706507,-1.9456014,-3.3186073,-3.1055828,-2.3944681,-3.7124711,-1.7355769,-4.9373902,0.40558821,-3.093422,-0.87858546,-1.086936,-0.52087129,0.18001015,1.5119386,-0.23328686,2.3296061,0.72655335,2.9370968,3.6481815,4.0427729,5.498447,4.1379246,7.0315302,6.2638687,10.303067,8.4469621,11.457932,15.117302,13.356046,13.118637,20.235654,18.52961,22.303542,22.149025,24.495976,25.395441,27.569888,28.741067,31.886046,30.90045,27.728863,25.814221,29.143008,26.513277,24.774951,27.335943,27.024123,27.391687,25.967786,28.438525,27.219968,25.816356,27.258734,24.270477,27.570115,25.15487,25.849178,24.938004,30.595451,23.503816,28.941445,27.002329,27.553463,26.544983,30.142065,30.482375,27.359254,32.138424,28.684029,31.644004,29.39045,30.831106,30.372474,27.5745,28.200863,26.17667,26.790618,25.644768,25.279353,23.436081,22.571231,24.011776,21.281903,22.028405,19.73406,19.317037,15.580749,20.118229,15.608892,15.689186,13.413546,11.185318,12.441142,9.9125449,11.157495,6.3267703,7.0556543,6.6067738,4.9123584,3.5806116,-3.5495161,2.8800692,-5.0270097,-3.3733196,-6.5881145,-10.034629,-9.3145956,-11.159506,-13.054843,-12.114624,-16.345322,-15.410686,-16.419141,-21.400288,-17.688782,-21.867884,-20.789509,-16.60549,-24.192596,-19.287544,-22.133772,-21.576157,-21.677083,-23.156358,-24.485747,-21.621432,-22.373257,-22.699431,-22.517169,-18.572364,-24.981667,-23.924041,-17.211888,-26.390508,-16.416316,-20.929213,-17.867489,-15.072289,-17.827065,-15.848426,-13.664649,-12.785829,-14.805864,-14.104035,-12.153509,-13.245681,-14.067819,-12.21522,-12.681355,-12.97088,-16.629364,-11.734539,-12.953133,-13.053701,-13.456408,-13.907561,-14.506528,-12.208222,-15.798661,-14.534651,-13.686244,-15.306383,-14.500533,-17.093308,-12.683519,-18.588962,-14.784843,-17.151125,-14.024912,-20.175887,-14.99623,-19.279784,-16.894422,-17.976443,-14.244044,-19.737237,-17.246765,-16.225409,-16.720701,-12.994256,-17.310427,-14.629427,-16.269408,-15.511818,-17.117904,-10.498644,-19.450769,-11.791751,-13.006511,-12.656952,-13.225582,-9.604876,-11.942253,-7.1304913,-6.4011802,-5.0555082,-5.0260049,-0.62603705,-1.8218966,0.16965127,1.3119137,3.3415302,3.4219958,8.8564758,5.683865,8.4610497,10.773327,8.8720413,12.881489,12.04454,13.669387,19.670538,12.326024,19.955178,18.274932,17.22156,23.916544,20.14883,19.916746,25.524471,20.555574,26.9468,22.567469,23.535139,28.312562,24.540119,31.297438,26.764453,27.498765,29.046053,24.026658,29.093746,25.812112,24.156892,28.233989,22.723033,22.389818,22.550046,22.149459,21.780106,16.281065,22.339421,20.660452,14.045035,24.275463,13.451106,19.116397,14.213431,12.650535,13.46433,13.136494,13.77606,11.674349,13.00049,12.688515,10.143908,7.6124472,12.318399,6.9794308,9.7192001,7.1522721,8.2884211,5.4242312,7.7827112,3.1502791,3.8288334,6.57204,2.5735533,4.0427538,3.7261736,5.1076919,4.9666168,6.0994281,5.5983012,6.6935281,5.7124964,7.2511618,3.822321,7.3525017,4.2164416,6.7424588,6.3087301,5.9818124,5.7716144,9.1651475,2.3629707,6.4985489,6.3318782,6.0736143,5.0268185,3.0470803,6.5823412,3.3254702,4.1896954,5.239089,7.6280431,0.16241716,11.852925,3.665436,6.847479,7.609116,6.09723,11.247209,8.8832042,9.2270604,9.3187149,9.7077886,10.232074,10.464739,8.1299632,10.243069,10.454697,8.4054413,11.302782,7.7323822,10.394313,7.8663764,9.0357368,12.3045,9.6690705,10.279282,10.917808,10.587284,10.381581,13.437188,8.8736235,14.426729,8.0781805,12.914753,13.670436,10.899873,12.359883,11.841056,12.469014,12.651075,12.32142,15.323695,9.1237726,15.717358,9.5454933,12.270129,14.747916,10.52621,13.953244,11.470935,8.5500837,12.529986,9.8006477,11.24527,10.073277,7.7396362,7.7693494,6.0467844,7.9533038,4.6438519,3.6139077,5.0777217,-1.8433502,6.8553152,1.1272664,4.2174785,0.29521369,-0.74167903,-3.8338137,-5.5344793,-10.11996,-10.95294,-11.807236,-15.665453,-16.434074,-20.697113,-24.210586,-23.273172,-26.871464,-30.074463,-29.438823,-31.904323,-35.077595,-32.602586,-36.62094,-33.617174,-36.516397,-38.63477,-38.894164,-38.661474,-40.721015,-42.732755,-43.16034,-42.769178,-45.15753,-44.134253,-47.03257,-45.852286,-49.076124,-46.002467,-51.316491,-48.625604,-47.845246,-49.252612,-51.429548,-49.356569,-48.727037,-52.871297,-47.448239,-48.617013,-50.731891,-49.952518,-48.23641,-50.92702,-47.617165,-47.334801,-50.82058,-44.88339,-49.96508,-48.02146,-49.861261,-53.520491,-53.446761,-54.47622,-60.609476,-57.443927,-61.678976,-63.888722,-64.72922,-66.54067,-69.90476,-69.414191,-69.666783,-69.557307,-72.194305,-68.710365,-69.137459,-72.310432,-73.722107,-70.5293,-79.463151,-75.43624,-78.208662,-78.909393,-80.012359,-80.163135,-80.926944,-80.430348,-81.495275,-80.9746,-79.390943,-79.609333,-76.709451,-78.975895,-75.022722,-76.375421,-71.702959,-73.157294,-68.406403,-70.574692,-63.938768,-63.677433,-61.500751,-54.937511,-53.601969,-50.643137,-44.914077,-40.153743,-36.286605,-34.644796,-24.558348,-25.009171,-16.794306,-12.141883,-9.4463782,-5.5286999,-0.90414141,-0.92922753,6.1944266,6.5719276,12.050237,12.820641,18.392586,15.792158,23.90233,23.877227,26.7201,28.13229,28.736331,30.748662,33.308534,29.679104,34.804362,33.919415,37.348294,33.009781,36.923851,32.655437,34.543404,33.821958,33.177175,31.00976,30.949959,27.848622,29.417656,25.850814,23.645864,21.346059,20.373961,18.377459,16.150646,13.247384,12.421678,9.0448526,5.6273148,7.5114795,2.9569162,1.9342126,1.8498198,-2.2662224,-0.36864768,-3.7817277,-5.0725892,-3.0936061,-5.2347563,-5.6860601,-7.3447613,-6.6029139,-10.599102,-10.920713,-14.456618,-13.26753,-16.951294,-15.98682,-16.974737,-15.776289,-17.133701,-18.792865,-14.416981,-15.606217,-15.728849,-10.432889,-12.869745,-8.2304614,-10.604386,-5.2113701,-11.20004,-8.9839495,-8.1555093,-10.135302,-6.9239117,-4.9675446,-5.9111076,-6.1142987,-6.8032876,-1.290262,-5.5741035,-1.3488563,-3.2224442,0.23097143,-0.83548993,3.786003,3.3225,-0.061712886,3.3909506,1.0801321,3.4009389,-0.64910032,0.99581818,-0.60781039,2.5314516,-1.6796819,1.8906501,0.55578347,-0.92647327,0.96404099,-0.9878365,0.8464549,-0.050234667,0.18205781,2.983079,-1.6594447,3.1457299,0.29214865,2.7079123,0.73600035,3.7024518,2.8712668,4.629308,2.4682814,5.6848601,0.29735079,7.5323838,0.85236661,7.5160473,2.0896537,5.6739665,1.8379984,7.7595616,5.847858,7.5869663,1.0030276,12.465299,5.6491322,7.0569578,8.7370263,8.341327,6.3933392,11.753836,9.8230578,10.860815,10.83891,10.386553,11.579741,14.162492,11.615074,13.580172,15.846517,17.675136,14.872446,17.922989,17.093102,17.469409,19.621513,18.988565,22.295112,20.729135,24.021425,25.772558,26.153888,27.158123,28.74328,28.940887,34.165831,32.906843,36.411248,37.451482,37.160356,39.719621,42.98125,41.379673,48.816132,45.303381,53.212706,50.491545,54.075089,55.416631,57.053279,62.536033,60.603794,67.960784,68.560271,71.148288,70.824955,72.440038,73.371831,72.958615,72.300004,74.822274,74.603247,76.805499,75.397834,76.320166,75.598894,77.29486,82.833171,77.472546,86.433513,82.550197,87.089269,87.01078,88.489599,86.837174,91.972467,87.08949,91.606695,91.646869,93.936548,93.399515,97.860382,95.130387,97.674227,100.91456,99.709604,99.370121,105.27404,99.992529,108.5015,107.37479,109.73641,110.11563,109.57748,117.64877,115.87411,117.12473,123.79748,122.42637,126.49857,123.3297,127.04478,128.80173,127.87039,131.20147,129.35977,132.37978,135.31508,134.31619,133.27045,140.40879,132.69624,135.05559,134.70976,139.57324,132.9403,137.66029,138.44744,132.44425,134.42083,136.11255,132.40625,132.99003,132.8468,132.02431,129.52207,130.84012,126.95203,127.55093,125.50095,126.20222,122.27847,118.5055,119.2567,116.89312,114.08016,111.98468,110.98421,106.58932,107.67788,105.90002,100.68894,98.943268,103.14542,97.241523,100.24499,100.23134,98.084647,99.560134,97.785055,100.30505,101.7122,101.86663,105.84418,99.888339,104.35609,102.06155,106.53998,105.25906,108.05516,112.12594,112.00004,116.58636,111.44038,116.77683,114.33026,117.0669,115.67507,118.54476,117.19844,122.44008,120.68821,124.9191,123.20303,128.13897,127.59922,128.31127,135.42777,131.53767,138.92966,134.9396,142.97763,142.43256,147.68641,151.26634,153.70646,153.51918,160.13915,164.45506,166.77938,168.86992,173.81789,176.55046,185.10992,185.90658,193.46778,196.9557,205.46339,208.10156,215.91171,220.0766,224.13709,228.82544,237.42748,240.95972,244.80255,247.72776,256.00296,256.26773,255.28452,263.0422,260.41994,263.77561,262.41235,261.73495,262.15505,259.98272,259.20816,252.0475,249.39366,247.16208,233.63863,233.1836,219.3993,209.57816,198.68823,189.62124,169.07118,159.84606,140.8815,128.73999,107.08141,92.785686,75.063194,51.228154,30.04524,16.963245,-11.646272,-28.812296,-53.591131,-75.041063,-102.82777,-126.47219,-148.66928,-174.74804,-202.13307,-225.15711,-251.09288,-276.12173,-298.37143,-323.6935,-349.13059,-370.01374,-392.46735,-415.71417,-439.58424,-458.46545,-484.22591,-501.75452,-523.93929,-543.31345,-561.31505,-581.42568,-597.89121,-617.83947,-632.12025,-646.74966,-660.09758,-675.00101,-687.68089,-693.42521,-708.20254,-711.59264,-723.58918,-724.35159,-732.93842,-736.31063,-736.9712,-742.67261,-738.76097,-743.56409,-739.57278,-738.51736,-738.65037,-731.55555,-730.81678,-724.18009,-714.73044,-714.22057,-701.91521,-699.30189,-686.68988,-684.04215,-672.53502,-665.63415,-657.27294,-649.21223,-639.35316,-629.76401,-618.14958,-611.24764,-597.70548,-586.25797,-575.33162,-564.24259,-549.07805,-540.92332,-526.20888,-517.70858,-501.27453,-487.88749,-477.17982,-460.7756,-449.28702,-437.30919,-420.18524,-410.60183,-391.51308,-379.51536,-368.53644,-342.57912,-337.17066,-312.67945,-298.29317,-279.44842,-259.51137,-241.85549,-222.82191,-204.32718,-184.07728,-165.28991,-152.11085,-125.69524,-112.69292,-89.779605,-72.689831,-52.843723,-36.854146,-15.026668,3.5430109,20.640178,42.500422,57.944356,78.045008,94.5487,115.01209,134.71186,147.97224,168.34205,183.13048,200.45688,215.34676,230.28821,244.44891,262.20873,273.50585,285.0534,301.81364,306.79568,321.94025,331.62649,342.76967,350.56163,356.87643,366.95506,369.95634,381.90243,382.53318,391.92183,393.30853,397.421,403.56927,402.11749,405.95925,403.28209,401.94453,399.71735,399.37789,391.62754,391.64987,389.81333,380.10135,379.79723,369.71682,369.76358,361.81036,356.81236,352.30744,343.32038,345.1828,332.25182,334.03836,326.02243,321.77395,319.01928,314.54298,311.67152,308.64468,301.7518,302.46668,296.14089,296.71675,291.94112,293.46741,291.24381,286.58823,289.04596,285.77702,285.08276,287.10784,280.07262,283.88363,281.0959,278.84809,279.28291,278.90742,274.05655,276.41604,271.64667,275.7222,268.31021,267.84475,266.23641,260.26824,260.51975,257.89804,250.73932,253.08918,245.96027,242.41058,242.1763,231.24079,234.39527,224.83214,222.6495,217.84992,212.15844,208.09092,202.73446,198.67127,189.97141,188.93534,183.87865,176.47587,169.39891,164.76277,158.84435,154.75714,144.28067,142.77115,132.20462,128.60927,122.511,115.32046,110.40045,104.53768,99.701675,90.817657,87.078489,77.20984,75.260776,67.716406,62.609368,54.255117,53.400531,42.025365,35.805679,34.411661,26.347749,25.776459,20.733404,13.183872,9.8637887,3.3889992,2.9068999,-4.0803365,-2.9945699,-12.226179,-10.778085,-19.666693,-21.144377,-27.324967,-34.867722,-34.526828,-45.79363,-51.219537,-56.264032,-64.210809,-72.623609,-79.908981,-87.528332,-99.625187,-101.28257,-114.37568,-116.34916,-129.48792,-133.61474,-140.2268,-148.42987,-155.11673,-160.621,-166.2387,-171.55069,-177.68418,-184.68641,-192.82513,-197.56615,-199.32206,-202.78753,-202.04915,-209.83801,-210.52332,-213.1287,-214.88239,-216.54032,-218.15683,-214.57014,-217.21882,-214.95392,-215.6742,-218.63266,-213.9022,-212.01486,-205.34652,-198.63112,-194.12941,-189.65233,-179.89641,-175.5455,-168.07707,-159.78537,-149.74915,-138.63047,-126.93361,-119.06537,-112.05011,-104.31592,-92.369295,-84.545679,-73.197383,-63.270293,-56.034887,-42.580281,-36.957085,-25.850556,-19.806043,-9.715378,2.2080568,13.401983,22.957777,26.824096,37.317484,40.205838,51.376314,55.710055,63.707877,67.888391,71.212403,74.251343,79.103895,80.71434,83.220446,89.372349,88.587865,91.721281,88.220519,85.288842,83.588835,84.944388,83.46811,85.738717,78.716567,77.459027,75.083716,74.101747,67.804062,68.068926,68.790092,68.024432,66.093497,60.90204,55.503983,55.037056,48.073044,50.036685,45.360144,45.10984,41.279987,40.033659,35.746703,33.605486,31.546793,31.352991,32.670896,27.990968,24.735949,18.819702,13.426421,12.154833,5.9311039,7.3089706,0.91342449,5.6764528,-2.824344,0.098534082,-6.8831754,-7.7804078,-7.8881392,-7.7777418,-6.379326,-5.033446,-12.475796,-13.706888,-16.662696,-19.58817,-19.324128,-17.339377,-14.789023,-15.172214,-14.787794,-18.688227,-19.09268,-19.660412,-20.519936,-20.415079,-23.537024,-23.08596,-24.263468,-22.991715,-24.527633,-24.693556,-23.962568,-21.89497,-17.66507,-16.696831,-14.003566,-12.924836,-12.074918,-10.959793,-9.5519767,-7.9654721,-9.1109852,-6.1533101,-6.484313,-6.9235896,-7.9139732,-8.4135685,-8.3922597,-6.7234034,-4.8448115,-5.1955389,-5.2010472,-3.4658512,-4.9533121,-4.8751646,-4.9024726,-4.0353032,-6.6693157,-6.5975932,-6.9069829,-8.2672131,-7.0686564,-8.5491875,-8.0157214,-9.7853163,-10.217525,-10.719475,-11.003023,-8.0355017,-6.2654465,-3.6556123,-7.4769597,-8.9641527,-13.303879,-18.254305,-18.370163,-19.499866,-18.499762,-17.358491,-18.947036,-22.893386,-26.54396,-29.354476,-27.389622,-26.671938,-24.323956,-22.030628,-23.430228,-25.21728,-28.486351,-32.123295,-33.289131,-34.714277,-31.343665,-28.522275,-25.771618,-24.802905,-26.00471,-26.573501,-24.482862,-21.788584,-18.373746,-16.654707,-14.087478,-15.194204,-17.291872,-15.900404,-16.379184,-14.93773,-9.7808596,-7.0316676,-5.2762858,-4.3751631,-6.8236954,-5.0379304,-4.8206237,-4.2306305,1.1946634,1.6825112,3.7799452,5.1828115,4.8750016,5.3316766,6.1821834,6.4147595,8.4507201,9.7206948,11.671101,12.467965,13.66427,9.5554901,10.581518,7.7231311,6.786653,7.0044567,9.7629538,13.195019,14.286748,16.180151,13.510677,14.867334,14.957723,15.292515,17.202126,18.728175,20.037076,19.980074,19.704879,18.919997,17.760933,17.045311,16.750294,16.783987,14.337853,15.690244,13.94995,17.057625,17.902963,18.270601,19.050936,16.783716,17.088773,16.519194,14.520453,16.261435,13.334779,12.367495,11.558762,12.015506,10.412992,9.2887003,10.131731,9.9588458,13.918287,17.559418,19.341692,20.47852,20.4283,20.419575,19.644535,20.829083,19.928774,22.953671,21.074067,23.069455,24.210084,26.039111,28.049902,29.109879,30.152099,33.294112,32.547544,34.408433,36.778325,35.255133,38.32034,37.823032,36.333682,33.370161,33.183403,31.513629,30.76032,33.082781,36.754686,36.83817,38.444269,34.69405,33.501917,33.147516,32.656033,32.815257,34.447855,34.945139,35.438093,36.026402,34.70135,34.677376,34.471199,35.394058,36.656991,38.403531,38.812822,39.156799,38.72427,39.025359,39.094601,