ConstAcc,0.5,0.26265,-35.652751,-83.862075,-124.54643,-158.26699,-185.5621,-206.94766,-222.91753,-233.94399,-240.4781,-242.95015,-241.77005,-237.32776,-229.99369,-220.11914,-208.03665,-194.06052,-178.4871,-161.5953,-143.64696,-124.88726,-105.54516,-85.83379,-65.950867,-46.079118,-26.386685,-7.0275427,11.858091,30.143341,47.714257,64.469408,80.319464,95.186782,109.00499,121.7186,133.28253,143.66177,152.83093,160.77379,167.48298,172.95947,177.2122,180.2577,182.11959,182.82826,182.4204,180.93859,178.4309,174.9505,170.55518,165.30701,159.27188,152.5191,145.12099,137.15246,128.69061,119.81429,114.4436,110.37737,104.64819,100.93841,96.839745,91.138616,84.782664,77.641661,69.993331,61.83487,52.023229,40.624973,28.863285,18.319,10.173371,5.3379026,3.0370119,2.0496327,1.6648594,1.6663328,2.0089361,2.4919607,2.9928564,3.7428931,4.8371425,6.1311672,7.2382034,7.8194563,8.5040551,10.047079,13.046324,17.198235,21.737891,26.15448,30.447113,34.850891,39.407001,44.143748,48.954703,53.920357,58.812423,63.591136,68.213959,72.683217,76.717304,79.714002,81.336422,81.712969,81.061741,79.940882,79.003424,78.682873,78.950958,79.557744,80.184125,80.657591,80.918816,81.1052,81.147869,80.815387,79.655688,77.328092,74.044628,70.365419,66.756335,63.79562,61.725434,60.48947,59.851216,59.43882,59.199635,59.363334,60.039149,61.213634,62.792533,64.742863,66.859207,69.033863,70.960813,72.21728,72.535763,72.203836,71.501233,70.518086,69.667454,69.519531,70.427795,72.424905,75.224329,78.174511,80.797651,82.996466,84.674339,85.910508,86.684725,86.736826,86.104961,84.754304,82.477794,79.916064,77.560398,75.547497,73.768878,72.351463,71.279178,70.468216,69.809302,69.259265,68.63206,68.357053,68.621832,69.144933,69.51235,69.537355,69.285476,68.372583,66.592677,63.97837,61.030662,57.958148,55.060235,52.973652,51.683958,51.27904,51.752237,52.701862,53.505526,54.024029,54.092397,53.535643,52.695167,51.443454,49.439958,46.565992,43.208541,39.882361,37.303061,36.002371,35.429146,35.431591,35.537739,35.363116,35.031712,34.304662,33.911245,33.749946,33.31525,31.969805,30.184315,28.091061,25.951805,24.163725,22.564265,20.683361,18.629982,16.655333,14.706936,13.121624,12.27814,12.515194,13.96599,16.210483,19.418071,23.440047,27.494797,31.321001,34.686075,37.061085,37.072133,33.837095,27.452092,19.522457,11.834053,6.6904085,4.8109302,5.5989916,8.0688656,11.572519,15.35183,18.54215,19.832925,18.375586,14.402239,8.7793446,3.1223655,-1.7199956,-5.9019671,-9.8103916,-13.639448,-17.376092,-21.472829,-25.981789,-30.45091,-34.303814,-38.764161,-44.651814,-49.785058,-51.263112,-49.766707,-44.830406,-37.337812,-28.02097,-19.128559,-13.856755,-13.805449,-18.241224,-25.734439,-35.709633,-47.259444,-57.617043,-66.380258,-73.947264,-80.309425,-85.638916,-88.993003,-90.028628,-88.399863,-84.616293,-81.456389,-79.326136,-81.318589,-89.190342,-103.03247,-121.19884,-140.85022,-158.62639,-171.21636,-176.94854,-175.63669,-170.77528,-164.85793,-159.26522,-152.90046,-143.78692,-131.97889,-119.54683,-109.07677,-101.40642,-97.104675,-97.18502,-101.26158,-109.40318,-121.25695,-133.88095,-143.00758,-146.68056,-143.26913,-133.64517,-121.29098,-109.28753,-99.395581,-88.289107,-77.06009,-68.846044,-64.702835,-58.964681,-50.441286,-42.087597,-35.454723,-29.796218,-25.104042,-23.067158,-23.991693,-27.077158,-26.497789,-20.284579,-8.3669025,4.2173508,10.507171,13.162921,18.138269,25.670561,32.826146,37.793998,41.396247,48.294438,57.077988,60.55981,53.576396,39.84824,25.004537,14.376848,6.1157497,-2.4856169,-11.603562,-20.106258,-29.337016,-43.599771,-63.565044,-84.759491,-109.5864,-142.4204,-178.64809,-209.22103,-230.7643,-244.91744,-254.75245,-265.41839,-277.77901,-291.76432,-307.61119,-323.69296,-338.48575,-353.21967,-366.4316,-374.23087,-373.21228,-365.92506,-358.54572,-355.71413,-360.18943,-371.64279,-390.85424,-413.85563,-433.55837,-445.83231,-450.36417,-447.43619,-438.0912,-424.08062,-408.66542,-394.52429,-382.95768,-374.57725,-368.48159,-364.86601,-362.44891,-361.64894,-362.03012,-361.66723,-360.27,-356.01866,-347.48516,-332.50132,-310.04972,-281.60659,-251.55014,-223.00331,-197.99386,-177.17871,-158.03275,-137.69288,-114.52757,-90.237251,-68.32065,-52.108875,-43.04635,-40.402399,-43.231343,-50.336732,-57.740461,-64.562955,-69.704283,-70.826201,-64.952313,-53.388227,-38.60387,-22.780672,-8.1862177,4.3523233,16.855184,30.519661,39.410343,42.040868,41.971608,43.082625,40.668109,33.105276,22.977174,13.104777,3.7309222,-4.3272459,-9.0435417,-9.4115233,-4.8282778,-0.40483027,-0.25690484,-7.9942929,-20.051138,-27.222106,-29.61241,-32.627441,-37.213779,-41.481036,-45.089158,-48.585972,-57.306224,-72.493978,-88.521976,-98.971506,-104.05247,-106.6763,-111.42319,-117.85792,-123.89083,-129.42139,-137.0701,-147.37462,-157.17233,-165.87887,-177.57192,-189.24039,-192.22699,-184.88099,-173.19205,-161.26271,-150.30448,-140.69265,-130.78644,-122.21011,-115.81515,-110.6298,-106.39777,-102.07392,-94.820534,-83.783267,-71.170783,-60.558233,-54.012861,-51.435993,-49.560014,-45.765114,-39.246699,-27.062062,-9.7732123,8.2738461,24.648863,38.574278,48.503986,53.125477,53.122272,50.151578,46.795285,44.912854,45.430462,49.028404,56.196915,66.56374,79.849972,94.040765,107.95557,119.85811,130.13107,138.36876,143.56038,144.78711,143.10308,141.46845,141.16545,142.09686,143.13871,144.04441,143.9139,142.18968,137.53381,129.07784,118.27318,106.90608,96.341685,85.707155,75.233213,63.438984,53.077222,46.296386,44.748673,46.860029,51.468523,57.791268,63.824017,67.330476,68.226268,66.008221,60.23526,52.461112,45.347833,39.726663,36.940106,37.283888,40.258687,45.359253,50.894618,55.659049,59.444797,60.793782,59.107262,55.064849,49.307888,43.053425,37.366574,32.724231,27.78699,22.761811,18.473916,15.024485,13.452947,14.534267,17.711305,22.122127,26.837772,30.360567,32.249348,32.277797,31.50543,29.480051,26.658886,24.292144,22.522839,22.43334,23.006144,23.612341,24.165949,24.216584,24.066028,24.036212,23.402561,22.074356,20.34682,17.732612,13.414798,8.59096,5.0989708,4.4433057,7.1241249,12.30634,18.325188,24.216113,27.993475,29.762047,29.652736,27.637524,24.159825,19.940898,15.419528,11.608917,8.32292,5.2590292,3.3344136,2.1761027,0.79263027,-0.83228285,-1.5483734,-1.2079237,-0.51741708,-0.72302343,-2.2152757,-4.8911114,-8.5652341,-12.057278,-15.098061,-17.388548,-18.207451,-17.646187,-15.662166,-13.414518,-11.055122,-8.844209,-6.8646002,-5.288844,-4.7193678,-5.8409944,-7.8800312,-9.6271577,-10.150204,-8.8189851,-6.5101337,-3.8119436,-1.043133,1.0552609,2.0430832,1.5748108,1.4034942,2.4768444,5.730944,10.062333,15.18045,20.729231,25.704629,29.43993,32.815923,34.938636,36.311738,37.033267,37.096833,37.524907,38.989857,41.162812,44.744742,49.108896,53.498964,58.044511,62.186421,65.996183,68.969488,69.96885,69.812277,68.508903,66.048033,64.921508,65.93369,67.229511,65.702331,61.826763,56.506032,51.343329,48.296617,46.745828,47.11958,47.142741,46.695131,45.416368,42.479876,38.263804,34.06519,30.658367,28.145395,26.304739,26.252784,29.091535,34.217412,38.706846,41.646864,43.768835,45.571054,49.074827,52.666598,53.10489,50.141111,44.605126,37.931787,33.743557,34.713605,42.828231,53.986179,68.022621,84.321042,100.20182,109.8527,109.84461,103.42705,94.88292,87.900553,81.629962,78.683308,80.734116,85.706301,91.413783,100.08591,109.39767,119.04971,130.54035,143.80149,156.60559,167.20536,174.95393,181.38163,187.42419,192.37749,197.40873,202.03439,206.35245,210.66033,213.82286,216.91051,218.03312,217.38592,215.85099,214.59592,214.77512,218.71488,223.31237,229.72721,235.92788,242.45417,251.50062,259.40972,265.53049,266.4701,263.4134,258.34603,252.5557,244.04621,233.45251,221.70705,208.37249,192.44253,175.38266,156.28799,135.98026,117.53431,97.285488,72.42591,43.350187,12.614543,-17.862748,-46.613074,-71.043833,-89.779702,-104.45069,-117.22316,-129.11449,-141.89991,-155.7206,-170.25683,-183.98946,-195.24669,-203.78106,-209.53493,-213.80022,-217.25151,-220.99846,-227.8919,-237.09315,-242.95227,-242.27647,-238.38238,-235.28376,-232.5319,-230.49576,-227.30708,-226.52275,-228.06574,-229.12579,-226.75043,-220.39345,-211.06271,-197.87905,-181.66273,-164.00938,-146.64937,-131.65731,-115.68893,-95.466221,-71.435229,-46.73651,-25.760134,-7.2925067,12.08409,32.059356,53.818267,79.972945,112.03335,144.33147,170.64865,192.84079,206.71251,209.06455,200.37963,190.61475,186.92908,189.55895,195.31517,202.50583,211.59966,221.61211,231.09323,239.48845,245.74364,247.83759,249.73314,253.69628,257.45868,257.85925,253.98383,247.23718,239.29971,229.50431,217.19595,202.97956,187.27092,172.1285,158.57217,145.56472,133.81682,122.66832,114.33346,109.62642,108.16945,109.79019,114.9444,120.43139,127.56618,134.52564,142.80184,150.70481,154.42145,156.19636,156.06518,157.57973,161.06734,166.00347,171.31305,178.15763,184.52777,188.11451,189.37121,189.8137,188.39459,186.93877,186.15909,182.17582,176.5078,171.19835,167.0926,164.65151,165.69239,170.74188,177.65223,183.31359,186.19709,187.52512,188.53319,190.35209,193.41223,198.08736,203.87923,209.41864,213.40728,215.47249,216.79963,217.11043,214.39725,211.29035,211.12494,211.42373,209.43914,205.60274,200.39076,194.27682,186.92483,178.05764,170.59794,164.70256,160.69565,157.7074,155.82587,154.81343,152.61353,149.95599,148.83135,150.65657,156.88093,166.26668,174.3799,178.27789,178.97093,177.53059,172.78248,165.48857,159.24896,156.44749,156.52616,154.40956,150.63387,145.61203,137.9641,129.04784,122.13322,118.71731,115.61912,112.41751,108.57874,104.96327,99.724676,94.341603,89.244251,83.133025,76.508247,71.702712,68.473643,65.569666,61.368383,55.390412,48.096959,40.192279,31.675932,21.829796,10.50849,-0.097859756,-7.6810818,-12.357462,-15.158636,-18.653918,-24.144073,-31.419329,-39.544293,-47.701308,-55.010895,-60.931294,-65.880393,-70.689096,-76.168031,-82.196618,-89.072992,-96.973399,-103.6691,-107.97901,-110.49879,-112.23281,-113.65455,-114.45858,-115.23691,-117.02492,-120.24641,-124.16749,-127.45758,-128.59138,-126.84006,-122.94838,-118.13061,-114.42682,-112.62735,-112.40159,-112.57305,-111.40626,-108.49657,-103.75836,-97.665184,-92.297045,-87.973173,-83.951998,-80.519333,-77.718494,-74.922922,-72.209213,-69.265841,-65.093082,-60.263705,-55.909206,-52.3205,-48.511056,-45.122408,-41.777976,-38.121928,-34.588218,-32.017597,-30.659504,-28.833711,-25.307709,-21.397984,-17.971959,-14.907766,-11.550723,-7.184914,-2.1837627,2.4275986,5.6922018,7.4281951,8.4230999,9.1482599,10.262172,12.005845,14.043374,16.209078,18.552586,20.755316,22.469454,24.30735,26.094645,26.716363,25.998022,25.302581,24.813034,24.83693,24.614558,24.859829,25.9986,28.372361,30.514534,31.715639,32.187127,31.89746,31.332355,30.080429,28.959733,28.329707,27.520411,26.53863,25.854589,25.015533,24.657958,24.818227,24.807212,24.541602,23.276225,21.673468,20.498322,21.090123,24.402584,27.606563,28.894739,28.995545,28.0642,26.259262,24.854696,24.021896,23.265852,23.005908,23.326117,24.335075,25.674255,26.655719,27.260905,27.480759,27.838477,28.425396,28.916713,29.474629,31.00931,32.450998,33.301242,32.412901,30.154415,27.991368,27.170051,27.698661,28.385834,30.17325,31.718703,32.44537,32.086551,28.73938,23.365936,15.957294,6.4746667,-3.0113363,-7.1210045,-7.1692385,-4.4425035,0.27071854,6.7798822,12.661831,15.938882,13.890666,13.974528,17.922074,23.812658,30.940266,40.859432,52.115684,63.499825,71.911934,77.282433,81.786786,85.421036,87.079451,86.050731,83.266461,79.929549,76.929944,74.564549,70.889738,67.174285,66.471824,66.866002,67.031959,67.28332,66.894979,65.497606,62.569154,60.374182,58.083703,57.338047,57.247495,56.254401,53.188117,47.699874,40.135679,31.971979,24.127638,17.178091,11.897259,6.8292968,1.644481,-4.1259073,-8.6469915,-11.984979,-14.125176,-13.970963,-12.974917,-12.686579,-14.456872,-19.16649,-25.822902,-33.633005,-41.355117,-47.03825,-50.602828,-52.377244,-52.543985,-51.291238,-50.502562,-49.378649,-49.016017,-50.393725,-53.474556,-56.868854,-61.381129,-65.560683,-68.451866,-68.477569,-66.46053,-63.594587,-60.883501,-58.300324,-55.761177,-53.447203,-50.466363,-46.803521,-42.454287,-38.112756,-33.84659,-29.21504,-22.803835,-15.100462,-6.309454,3.7993714,13.918103,22.937632,29.985476,35.383038,39.788685,45.177004,51.773803,58.129777,62.793761,65.25062,66.76134,65.959222,62.984627,58.592636,52.517263,46.845216,41.83426,38.373463,38.441695,41.623953,44.10748,45.888887,46.53005,45.606036,42.228387,38.220093,36.987541,43.94278,52.167939,58.45845,64.24253,69.380363,71.10327,69.826444,66.03282,62.36204,59.269433,54.902893,49.551048,43.962917,39.543128,36.502688,34.413031,33.044051,31.52018,31.597958,32.523812,31.239884,29.533054,28.484601,26.836102,24.953279,22.748282,21.320685,19.427185,17.272919,13.214606,7.9962092,1.87042,-4.5798079,-9.9425962,-13.294825,-15.571579,-17.844522,-20.083951,-22.558095,-24.422449,-24.907922,-22.929086,-20.120821,-17.383777,-15.391443,-16.138979,-19.62866,-24.757811,-29.819682,-32.985247,-33.885548,-32.077407,-28.408294,-24.899596,-21.154409,-17.656315,-15.593929,-15.634529,-15.974597,-17.894439,-21.20774,-24.521649,-27.047437,-29.517396,-30.021951,-28.939596,-26.604097,-24.808279,-24.336156,-24.624643,-25.260832,-25.943787,-27.427211,-29.571087,-32.860071,-36.687227,-39.666716,-41.321359,-41.065931,-39.188853,-36.582653,-33.744382,-31.628361,-31.078938,-31.256845,-32.071953,-33.310866,-34.58506,-36.011716,-37.607452,-39.319781,-39.824784,-39.27658,-38.146399,-37.018471,-35.67693,-34.815505,-34.895167,-36.491495,-39.351942,-42.406274,-45.377344,-46.989545,-47.017298,-46.41039,-45.274475,-44.79653,-44.579023,-44.088372,-43.499412,-43.175818,-43.671126,-44.726069,-46.877209,-49.418283,-51.859289,-53.164697,-53.00175,-51.288098,-49.126746,-47.475135,-46.184199,-46.255343,-47.003856,-47.745749,-48.45734,-48.865139,-49.844714,-51.122956,-51.753215,-51.827072,-50.71375,-48.792423,-47.600052,-46.834241,-46.924539,-47.09772,-47.484939,-48.665897,-49.892931,-50.547552,-50.495612,-49.38695,-47.582211,-46.301398,-46.409985,-48.402157,-50.240041,-50.823439,-50.767413,-49.979707,-49.135063,-49.047352,-50.059361,-51.897724,-53.569295,-54.615061,-54.097152,-52.393363,-51.119686,-50.870311,-51.447891,-52.35955,-52.810669,-52.320664,-52.090372,-51.91151,-51.955428,-52.095721,-52.61836,-54.238956,-55.156336,-55.587999,-55.052726,-54.236875,-53.567449,-52.631152,-52.359237,-53.253022,-53.510256,-53.545661,-54.080065,-55.583718,-58.425313,-61.647888,-64.020164,-63.377149,-61.217313,-58.352126,-56.144937,-55.611606,-57.29204,-60.036252,-62.952833,-65.615966,-67.754304,-68.345545,-68.393506,-68.45631,-68.067272,-67.533406,-66.539056,-65.69415,-65.684379,-66.774033,-68.148494,-69.615715,-70.826945,-71.384813,-71.385116,-70.460854,-68.703647,-66.026292,-63.403851,-62.039972,-61.562868,-61.868878,-61.452881,-60.106112,-59.060891,-58.609304,-59.241001,-60.131169,-60.353316,-58.644556,-56.163436,-52.52341,-49.304147,-47.097965,-46.697566,-47.732728,-48.982853,-49.691426,-49.141794,-47.712452,-46.410399,-45.384585,-44.564857,-43.512505,-42.401843,-41.361393,-40.138029,-39.622,-39.579488,-39.796008,-40.934267,-41.993377,-42.425472,-42.469262,-41.636605,-40.21665,-39.061727,-38.292736,-39.086765,-41.857608,-45.321544,-48.220858,-48.7094,-47.183715,-45.792091,-45.152931,-44.674824,-45.410812,-46.890987,-48.182158,-49.643915,-50.846526,-51.145698,-51.033321,-51.665976,-52.478087,-52.415573,-51.804247,-51.721543,-52.166967,-53.324167,-54.501273,-54.555022,-54.372383,-54.783857,-56.237387,-58.149983,-60.68143,-62.138177,-63.041923,-62.649273,-61.590987,-60.485695,-59.73523,-59.606134,-60.900972,-63.094628,-65.069367,-65.833145,-64.623439,-63.171799,-62.351032,-63.385786,-64.624506,-66.536784,-68.982829,-70.902355,-71.918058,-72.171798,-71.627318,-71.698514,-72.716868,-74.463642,-75.75324,-76.096524,-76.794534,-77.302071,-77.084546,-77.03542,-76.687805,-76.022877,-75.431533,-75.359146,-74.63363,-73.470803,-72.249933,-71.155436,-70.251958,-69.762471,-69.683777,-69.076764,-69.328193,-68.950092,-67.563493,-65.582487,-64.106737,-63.275691,-63.136934,-63.158734,-62.609331,-61.007514,-59.05306,-57.810564,-56.735878,-56.681219,-57.397929,-57.970031,-57.562867,-56.637198,-54.872026,-52.491178,-50.78332,-49.635748,-49.12318,-49.279975,-49.108627,-48.807506,-48.488755,-47.631549,-47.273466,-47.88778,-49.292168,-51.2226,-52.827018,-53.077816,-52.746381,-52.626155,-52.523643,-52.600709,-53.303333,-54.36181,-55.943572,-56.876414,-57.391264,-58.156563,-57.942845,-57.288387,-58.388962,-59.927058,-61.235286,-62.625896,-62.792659,-62.22426,-60.506694,-58.591799,-55.901573,-54.017824,-53.884603,-54.298275,-54.461663,-54.449728,-54.511162,-53.988823,-53.848109,-54.530273,-55.665608,-55.959033,-55.829006,-54.372492,-50.781378,-46.39155,-42.8687,-40.079665,-37.577699,-36.137518,-35.489233,-36.028672,-37.626044,-40.825173,-43.121068,-44.916551,-46.227468,-45.398225,-42.022537,-37.469649,-33.149808,-30.063663,-29.431206,-31.30422,-34.392902,-38.815931,-42.964299,-46.315801,-47.865895,-48.164512,-48.462497,-48.684935,-48.616198,-48.205695,-47.176955,-46.454117,-46.478734,-47.544391,-48.904073,-49.706403,-50.429472,-50.172115,-49.76382,-49.11312,-47.783352,-46.254223,-45.074766,-43.390305,-42.624655,-41.67068,-40.641689,-39.091122,-37.121322,-34.578204,-31.769912,-29.489252,-28.553239,-27.790839,-26.845858,-24.942254,-21.268474,-16.945122,-12.334656,-7.8769379,-2.6895148,2.0005166,5.1297318,7.6967878,9.9772294,12.395576,16.066117,19.009329,21.351953,23.238985,25.72886,29.496703,33.946134,38.787094,44.088635,49.282877,54.013074,57.603467,60.574694,62.461631,62.134146,62.648866,64.9419,68.351325,72.740372,77.333792,81.696918,83.654789,83.477703,82.179828,80.797869,80.425483,82.939224,85.734087,88.028847,88.937233,88.907787,87.02195,84.603439,82.486568,79.595561,76.608662,73.939576,71.116615,67.721585,63.702523,60.008782,57.866353,56.002685,55.676928,56.053759,54.648933,52.016642,48.32946,43.500741,37.525635,30.833533,23.580342,16.952561,12.795364,13.287326,14.372646,15.430008,16.936084,17.363101,15.867536,12.044263,5.7400211,-1.4238178,-7.5251811,-11.439322,-13.580115,-14.219487,-13.978741,-12.846331,-11.698221,-11.858147,-12.856257,-13.007674,-12.8633,-13.77545,-15.419721,-17.151333,-18.869514,-19.331431,-19.012153,-17.93554,-16.240041,-15.331518,-14.149384,-13.441127,-13.145183,-13.488659,-13.925588,-15.101782,-16.325863,-17.864789,-18.290526,-18.115619,-17.43715,-16.741851,-13.182852,-8.7635741,-5.483565,-4.6542527,-6.8454612,-10.675062,-14.173545,-17.505169,-20.979788,-24.451885,-25.412332,-24.174123,-21.768316,-18.651318,-14.952949,-12.207055,-12.053252,-14.272271,-18.492647,-23.179531,-27.623134,-31.845709,-35.639593,-38.457244,-38.490957,-37.641711,-37.857039,-40.524617,-45.689491,-50.793336,-54.434218,-57.886708,-59.19586,-61.743137,-65.488285,-62.673877,-57.68516,-58.572762,-62.046568,-61.101763,-57.751578,-60.146242,-73.206472,-88.678383,-102.78182,-109.04711,-109.77726,-104.63216,-93.147355,-81.823077,-70.608429,-63.050969,-55.91043,-46.550709,-37.049085,-29.540475,-23.410952,-19.063324,-17.061939,-13.45782,-8.5412115,-3.9919627,0.90168062,5.7849293,8.8937175,7.8934562,4.2152478,-1.8495263,-8.0686162,-16.157103,-21.160121,-23.191087,-26.820681,-38.93444,-52.352106,-56.229804,-57.595333,-60.14531,-62.766721,-65.240299,-61.509749,-54.792032,-44.900899,-33.146261,-20.988595,-11.462344,-1.148154,8.7800009,14.174422,16.288135,17.222269,17.443211,17.283831,18.332953,17.894615,12.442655,7.9923026,4.2026423,-1.976159,-13.984176,-26.778669,-33.730635,-42.088645,-48.915219,-48.996108,-48.463594,-52.619567,-59.616187,-66.454917,-73.427341,-80.402211,-87.415904,-91.816695,-95.795226,-99.26616,-102.93581,-106.86307,-110.43227,-109.82928,-106.38744,-101.76933,-102.17455,-108.87608,-116.2946,-124.31737,-131.44801,-137.49741,-141.42845,-141.05254,-139.98948,-135.21892,-127.58916,-124.52645,-122.43439,-116.89598,-111.91093,-109.16158,-108.51168,-105.13994,-99.545793,-91.546365,-77.580529,-63.963989,-53.893212,-47.170419,-42.648385,-39.814291,-42.378803,-42.418091,-39.844029,-45.125604,-57.288483,-68.119923,-73.681917,-74.190641,-66.885383,-55.893788,-39.008428,-25.297187,-14.41945,-5.0396368,2.2305247,14.637198,29.720669,43.600382,53.114476,63.051181,73.78283,82.887975,93.060943,103.50097,113.50868,122.77289,128.83322,129.36162,126.355,121.80428,117.25397,113.00547,107.29229,103.56706,95.423247,82.248149,69.282034,65.440837,66.355966,63.382663,61.920351,63.291883,67.558465,75.870914,83.599947,93.075515,99.912617,103.24007,102.22926,101.48165,99.038514,93.936283,89.716898,87.993148,87.468806,85.753117,82.887177,77.295847,71.849775,70.394225,68.073133,63.430368,58.384804,59.634514,65.170917,68.018447,74.445955,80.614631,78.28725,68.330163,62.632188,65.838875,72.90402,78.593893,85.688272,94.570826,99.158959,98.009897,94.294964,90.570187,87.610321,84.809627,76.1524,63.155439,49.272812,39.482077,36.37901,35.062093,33.40189,29.43881,25.69518,23.945141,19.472689,15.770846,10.536529,4.4393629,4.7994858,8.5966274,9.9894527,10.306054,11.917537,17.635446,23.285336,29.250916,34.414231,34.076079,33.019432,32.697107,34.140695,39.113031,38.83792,36.830629,33.015361,25.650732,17.232524,8.8019299,0.74570153,-3.4836555,-3.1057601,0.57829572,4.1672731,1.6857436,0.923667,-0.83701027,0.16840527,4.0571543,6.0215542,4.6705761,0.78871887,0.20018241,0.71506975,2.1088364,8.1534179,15.71826,21.463779,24.165735,25.214396,25.308685,25.252511,25.458126,27.457881,29.009797,28.704219,27.602736,25.70541,24.329818,23.859855,24.773725,24.816013,24.583523,24.851212,24.980555,25.599263,24.733369,24.518349,25.724113,27.135989,27.934584,27.537337,26.324132,24.222332,21.954637,21.383706,22.66726,22.004375,20.354145,20.432488,22.587624,25.150175,27.299573,30.609653,34.497843,37.818202,40.421123,41.280128,40.639405,38.678517,37.312214,35.691178,34.141754,38.402809,46.719643,52.633501,54.798729,56.275462,56.93513,53.449223,49.445955,47.422946,42.901831,38.855976,36.419055,32.811003,30.170884,29.397826,28.979325,27.206011,24.467814,20.422025,15.509522,11.570459,9.4789853,6.9843362,4.8977813,3.7681677,3.8834089,4.4481744,3.9230574,1.8320651,-1.6842971,-6.2088625,-10.368526,-13.987649,-15.829974,-17.285037,-19.887828,-20.95748,-19.352538,-19.417918,-20.011047,-20.612052,-21.143923,-21.114128,-20.634647,-20.649762,-19.527549,-17.401608,-15.307817,-12.502521,-10.099211,-9.3523391,-9.0719749,-5.26358,0.61048228,5.2585649,7.6362576,9.7932149,14.056207,20.304213,27.555244,33.283023,37.950329,42.679794,45.731499,48.492623,50.282206,52.867221,56.793906,60.768579,64.225319,66.546443,66.49021,65.14121,64.390691,63.91451,62.812499,61.859414,63.370256,63.703037,64.083503,65.647188,65.5329,62.132096,58.48356,58.723164,59.896256,58.806793,55.38624,51.440452,46.954744,43.408238,41.228659,40.530384,40.117174,38.766428,38.264083,36.757708,34.877505,32.134463,29.883253,27.550989,24.825558,20.458312,16.206807,13.52504,11.10944,9.7707846,9.0608278,7.5551069,5.1751749,4.2220873,3.9978118,2.978705,0.59423446,-2.4628085,-4.4658269,-6.2130615,-7.2766217,-8.8150128,-10.995203,-11.981829,-13.237748,-15.542184,-15.412642,-13.000583,-11.291607,-10.187183,-7.6637986,-5.0987338,-3.5372077,-3.3632841,-3.7868824,-4.1712783,-3.5224597,-1.294156,-0.4757696,-1.0661525,-0.36428835,2.3564255,7.5278597,14.118333,21.759828,28.660726,35.73305,38.936245,40.583556,43.747974,46.45578,48.213496,51.297616,47.212814,49.249449,61.35596,74.492632,85.560451,90.305982,95.332549,100.21066,99.468899,97.665103,98.840624,102.76811,106.05229,110.15385,117.28467,126.91075,133.00226,141.05852,148.28788,154.65831,157.56125,158.47918,158.36319,156.3068,156.24892,154.04802,149.08145,143.24674,135.5253,130.13993,123.54338,113.71345,103.66756,94.188072,83.041745,70.129736,56.118359,41.93232,26.114154,9.339553,-8.0236995,-26.001374,-43.87257,-60.299431,-74.09961,-88.513063,-102.14604,-114.31697,-126.29623,-138.5175,-150.56856,-162.38653,-173.89438,-185.07566,-196.32431,-206.39988,-217.26916,-226.5253,-233.10753,-236.6449,-238.48142,-239.28104,-240.06372,-240.04431,-240.03388,-239.33847,-237.1201,-233.98527,-228.98746,-222.51055,-215.79805,-210.79982,-205.75839,-198.71039,-189.74661,-179.30108,-168.79663,-157.92842,-145.85219,-133.38156,-120.72169,-106.75779,-91.782207,-75.517009,-59.348646,-45.088285,-32.055385,-20.42187,-11.218038,-3.1843184,4.7509093,14.572093,26.374701,38.549956,49.265999,57.722239,68.054487,80.767261,92.125692,101.14897,106.69299,108.87519,109.55061,110.61323,108.56253,107.45178,106.419,104.51591,101.54038,98.382837,93.953222,100.07273,103.65322,97.13321,87.361916,76.633064,70.191044,61.856376,51.348581,46.778452,46.004048,44.952841,43.310087,44.969161,47.39857,48.068852,46.474812,48.621391,48.762105,48.177153,46.226086,44.775373,43.661208,43.640996,45.820337,44.393281,42.997133,43.394912,44.988115,49.084824,49.612228,49.578414,50.608618,49.595428,45.858234,41.40572,37.919899,36.129964,34.812591,33.635675,32.844896,32.904346,32.927963,33.089707,33.1452,33.129716,33.084506,32.997793,32.007466,30.114633,28.138578,25.955173,23.56896,22.079379,21.376832,21.993141,22.488431,23.549929,25.194126,26.653152,27.873444,28.949322,28.739639,28.659074,29.881838,31.822462,33.462217,33.92328,33.217276,31.635239,29.737788,28.485466,28.992366,30.814762,32.770468,33.988409,34.594231,35.599432,36.766622,37.576678,39.166931,41.172778,42.439481,44.128368,45.618175,46.013145,46.049951,45.895376,46.121153,48.017816,50.398334,52.177247,52.67246,52.765195,52.885766,53.749991,55.650699,56.440411,55.356456,54.185723,53.891832,54.083641,54.280863,53.817851,52.88247,50.163667,46.659594,43.898898,42.53198,42.18916,41.490315,40.056693,38.528173,36.362552,34.833668,33.119775,31.421071,29.708257,27.55501,24.19793,20.467718,16.634811,12.349324,8.8298703,5.6981234,3.6003863,1.0749501,-1.6788037,-4.8154084,-8.7520834,-12.564557,-15.364648,-16.624134,-18.612267,-21.411871,-25.569493,-28.964692,-31.293843,-32.979244,-34.3057,-36.489538,-39.250017,-43.044487,-48.139946,-51.712308,-54.343282,-55.266341,-55.607502,-56.937622,-58.513955,-60.270219,-62.056778,-64.623554,-66.90374,-68.281405,-69.03885,-70.113659,-71.419844,-73.507804,-75.421224,-77.186872,-78.417865,-78.898755,-77.938333,-77.069652,-76.899964,-77.854402,-79.10195,-79.757251,-78.491622,-76.416308,-74.555568,-73.761637,-73.293698,-72.372495,-72.203527,-72.289011,-72.516917,-72.671474,-72.486079,-71.526086,-70.96544,-70.983163,-71.470321,-71.279965,-70.952642,-70.834377,-70.42022,-71.197895,-72.557429,-73.452745,-74.597136,-76.471363,-77.965145,-79.609061,-80.846652,-81.632799,-82.183109,-83.349743,-83.643141,-84.430934,-84.799515,-84.93434,-84.592512,-85.015158,-85.929401,-86.736992,-86.736969,-84.95879,-83.044684,-82.078995,-81.975507,-81.795665,-80.663245,-79.983391,-79.381787,-76.753047,-73.796787,-71.496477,-70.505703,-69.94461,-67.561126,-63.477516,-60.046949,-56.507548,-53.879351,-51.697027,-49.562041,-47.405691,-45.096885,-42.337301,-38.853223,-35.440559,-31.094397,-27.6731,-24.507778,-21.764334,-18.428968,-14.490819,-10.287402,-6.4908809,-3.2335764,-1.1837247,0.19288346,3.0864865,6.1685818,9.4831893,11.842617,14.266572,16.764541,18.229034,19.352168,20.609634,21.771545,23.703432,25.052539,26.200129,26.216176,26.16736,27.04202,27.498531,27.798075,28.377457,28.782086,27.889024,27.100148,26.305004,25.39218,25.47822,25.668497,25.511947,25.005357,24.230043,22.862269,20.896186,18.376712,16.259639,14.887034,15.300829,17.118206,17.365061,16.779482,15.003717,13.702775,14.379679,15.114409,15.88418,16.764713,17.234104,17.82118,17.586538,15.903205,15.12919,16.537074,18.887645,20.540445,20.568577,20.056438,18.80667,17.542916,17.699752,17.998207,18.777522,20.293601,21.707903,22.381878,22.437479,22.02694,22.076863,23.903088,25.797461,26.895326,25.853541,24.267692,23.552441,24.787067,27.145378,29.020431,29.804756,29.175071,28.923505,28.801518,29.134493,29.586732,30.148117,31.158173,30.559028,28.528046,28.468172,28.865959,29.594988,31.375341,31.892887,31.032233,29.816907,28.502201,28.013896,28.638437,29.432038,30.962893,31.789977,31.312707,30.199247,28.9903,28.573044,29.962973,31.482656,32.47016,31.544385,29.875184,28.442052,29.191081,31.541737,34.832437,35.99995,35.872017,35.679397,34.761921,35.209511,35.917686,36.025948,36.28424,35.536336,34.05153,33.019355,32.776688,33.679714,34.818522,35.313125,34.901457,33.365049,32.144451,31.588843,30.488379,30.126732,31.213064,31.779053,32.047514,31.824736,30.228801,29.247735,28.686352,29.119862,29.495957,29.200208,28.46584,27.682166,26.990705,28.300523,29.998038,30.319144,30.035046,28.526907,27.475645,26.713727,25.153888,24.611476,24.607689,24.075985,23.145432,20.992582,19.624202,19.773266,20.984491,21.757345,21.036853,18.457873,15.580336,13.736776,13.125926,12.831271,12.237546,12.136096,11.055687,10.169072,8.9048288,7.5154725,5.830363,4.9386536,3.9988616,2.8647534,1.0437147,-1.6851181,-3.703015,-5.033841,-5.9150602,-6.8618192,-7.9301999,-8.9757833,-10.590194,-12.680598,-14.010639,-14.87175,-16.160605,-17.180319,-18.070712,-19.627943,-20.776014,-21.22978,-22.703524,-23.002172,-22.700816,-22.560029,-22.547956,-23.202296,-23.880596,-24.402404,-24.448239,-24.737092,-24.795615,-24.799212,-25.121318,-24.477359,-24.359499,-23.06649,-21.769998,-20.753641,-19.64731,-18.838191,-17.503214,-15.856519,-13.789684,-11.855583,-9.7588159,-8.3849507,-6.7149267,-5.9778795,-4.7374775,-2.5424843,-1.3774566,-0.29622223,1.1976918,2.3075971,3.3851409,4.3330271,4.8477524,5.7919495,6.8787991,6.9201637,7.2978318,7.5542423,8.305873,8.6030723,8.523127,9.9832553,11.353754,12.787651,13.749915,13.138563,12.713539,13.702716,14.364176,14.887926,14.649461,13.09301,11.448834,10.135624,10.93732,12.676943,13.194774,12.36334,10.465249,8.8977868,9.4697254,9.022759,8.1303193,9.1091495,9.2298768,8.3470974,6.7389691,4.7650014,4.80803,4.8391575,4.1989603,3.0382712,0.50425606,-1.3159504,-1.8273054,-0.25191878,0.23501693,-0.20283832,-1.3889932,-2.0396408,1.4611391,1.294413,-1.1397857,-0.56355783,1.4011366,1.6251865,1.2887201,2.0255589,-0.54736215,-5.4668658,-8.2371972,-10.372724,-10.341045,-10.693949,-11.585745,-14.295158,-16.258997,-16.918301,-16.903199,-15.25437,-12.642848,-10.591357,-10.748571,-10.481565,-10.040444,-9.5821466,-8.8521775,-8.5894529,-10.493173,-15.092236,-20.258488,-22.990326,-23.130598,-25.479143,-26.501686,-25.286414,-23.724613,-26.12619,-31.471232,-36.947601,-41.129114,-46.313599,-50.099922,-52.677578,-61.40744,-68.323782,-72.791075,-76.474313,-78.841772,-77.315975,-73.999286,-72.472429,-72.245878,-70.293049,-66.669941,-63.969097,-61.449234,-58.924237,-56.344521,-55.046899,-54.607715,-53.253853,-50.228994,-46.586717,-41.657107,-38.289411,-32.703645,-27.776949,-23.293196,-20.027371,-14.999581,-9.9795972,-8.5896284,-8.5120039,-7.5164741,-7.5211491,-4.1126671,1.4742247,6.5174131,13.74886,19.894035,31.46038,43.042437,53.151121,63.160785,65.221788,65.681721,67.698023,68.060353,66.62489,63.019109,57.207971,53.460783,50.420138,44.726044,37.222109,30.14269,25.541447,22.054331,16.221577,9.0115135,3.0862207,-1.3202517,-4.2982633,-8.3417898,-14.089741,-20.843248,-25.942432,-35.9031,-40.623272,-47.78351,-56.856199,-64.064235,-69.541112,-74.196947,-77.822359,-80.066373,-80.909933,-85.12868,-86.854458,-86.499651,-85.40876,-83.158086,-81.693093,-79.937784,-77.289076,-72.669018,-67.334523,-59.389446,-52.514585,-43.677796,-35.508057,-26.287663,-16.578915,-9.0526517,-3.1592298,3.6213679,10.625276,16.78829,22.976473,29.404557,39.650128,48.928919,55.100428,64.383528,72.095255,74.799277,74.693994,76.602649,78.092129,78.14808,77.422427,78.633032,77.031087,73.76624,77.457616,79.560663,81.071981,83.387782,86.550317,85.997062,83.565465,83.013031,82.529562,79.471182,75.86645,73.890078,69.895528,66.145875,61.685093,56.558658,51.84536,47.907956,43.461362,38.280276,31.303977,25.538797,17.87997,10.210243,2.4250469,-4.2305852,-12.19589,-19.878858,-23.108076,-24.168627,-23.559426,-19.374742,-15.461556,-12.464366,-6.9736549,-1.5160591,5.3845273,6.8375013,7.4286675,7.3978801,4.6745732,6.0269871,7.5544191,6.9483983,7.4797308,7.9859106,8.8287157,11.361636,13.238494,14.817185,16.188506,19.816945,23.815472,26.60805,27.909224,28.445885,31.550535,33.894688,33.033579,30.134681,28.447874,28.295857,27.267381,24.201723,24.63694,22.044051,22.840022,21.80134,22.812804,26.737682,29.930977,30.356203,31.069431,30.353319,30.940828,30.750699,32.06397,32.711712,34.183233,36.092926,36.484946,34.614307,33.621661,33.395564,33.602646,37.606797,38.928034,39.585113,38.647678,38.628438,39.788725,42.753413,43.831741,42.918483,42.655456,44.157653,48.437485,50.026208,51.011037,52.292567,51.506978,50.035381,50.018733,50.543552,49.498301,49.845927,51.325528,51.349895,49.788167,48.773606,47.850738,46.682834,46.235089,44.589858,42.006541,40.25864,40.264341,39.817742,37.310288,35.139177,34.858298,33.88648,31.318324,28.857678,25.758393,22.072827,18.874575,16.885077,14.47877,11.527695,8.6222806,5.9654636,4.0914134,0.96004102,-1.953532,-4.4735185,-7.6870687,-11.092861,-13.947011,-17.586374,-20.177843,-23.667103,-27.818814,-31.187392,-33.543039,-36.111969,-38.852604,-40.87448,-42.621109,-44.472272,-47.053958,-49.81758,-52.318772,-53.693613,-55.232708,-58.453827,-61.005896,-61.660477,-62.977619,-65.19708,-67.339099,-68.858033,-70.320144,-71.474033,-72.306419,-72.131416,-71.018085,-71.419784,-72.819833,-73.57266,-72.472708,-71.838219,-73.083677,-73.649226,-75.269703,-77.3432,-77.075682,-75.229747,-73.709285,-71.579254,-69.076785,-68.561765,-68.664472,-69.047314,-69.397804,-70.531115,-71.166715,-72.933926,-74.597987,-77.96102,-82.9043,-86.539016,-88.152971,-88.876255,-88.920038,-89.484208,-91.015547,-91.994948,-92.381957,-91.996677,-91.75259,-91.379005,-92.917592,-93.507867,-92.680486,-92.470665,-93.083377,-93.390929,-91.857548,-91.519887,-90.939285,-88.776747,-86.32822,-84.476227,-83.860372,-82.577213,-80.704755,-78.297503,-76.270124,-72.909904,-68.061634,-65.126584,-64.187091,-59.475008,-56.979156,-56.420533,-52.940042,-52.11161,-53.050416,-50.689636,-47.928002,-45.685986,-42.162861,-38.910018,-33.818814,-28.594686,-24.887213,-19.850703,-16.025525,-13.336223,-10.455774,-5.5604778,-1.775125,2.3010819,8.1424984,12.281068,16.45196,21.035953,26.958356,31.47039,34.495916,37.061674,38.878616,41.076236,42.509416,43.757116,45.401917,46.638106,47.382183,48.26922,48.620402,48.745812,48.526761,48.321027,47.357776,45.255999,43.511688,41.262357,38.547697,35.7793,34.261757,32.687372,31.844035,31.564474,30.800059,29.198766,26.679432,23.442883,19.547557,16.764145,15.109746,13.873591,13.120271,13.212722,13.174037,12.418868,13.156095,12.980842,12.295914,11.343075,9.8068483,8.1425261,7.2829602,6.3055477,5.2950911,4.3945963,3.3429407,3.3781646,4.0067022,4.8295937,6.5372776,7.3883272,8.1227154,8.3031573,8.3102569,10.058985,11.137658,13.128491,15.527438,18.099902,20.398825,22.280559,23.639066,26.358409,28.963955,31.020293,32.830801,34.044618,35.744577,37.474739,39.26568,41.326109,44.033951,45.414866,46.448311,48.209396,51.353504,53.560473,55.981865,59.001546,59.846349,58.861849,58.80136,60.222177,56.282086,53.344292,54.382067,51.248311,49.32379,50.265134,49.35643,48.507788,49.168087,49.382374,48.846141,46.289946,44.395331,43.914523,42.400058,41.709707,41.74275,42.587455,43.11383,45.533579,46.039268,45.060026,45.331946,45.644928,46.292397,44.136679,44.197452,44.908888,44.823046,45.440305,45.299587,45.449754,46.541952,48.006605,48.705316,49.267569,49.296575,48.68861,48.652794,48.839023,49.175455,49.456482,49.903532,48.967624,49.202544,49.444973,49.819094,48.9897,48.534656,47.953617,47.628584,48.228721,47.979536,47.266582,46.977518,46.38537,44.486694,43.34738,42.476962,40.844432,40.581005,39.751428,38.611714,39.683298,40.537231,38.932486,38.687946,38.400798,37.622674,36.768688,37.422448,37.979448,37.753813,38.628322,39.860612,40.357754,40.922867,40.888914,41.528032,41.940101,42.146727,41.943121,39.98935,39.215382,38.569298,38.050305,37.379422,37.008408,37.119809,36.307677,33.850649,31.134967,28.046589,25.603707,24.216955,23.846151,22.901111,22.002221,20.405214,16.855034,13.324026,10.431578,8.0806561,5.9481755,4.6102626,3.1757379,0.67618885,-1.7175303,-4.686806,-6.7031559,-9.2033836,-11.093815,-12.232799,-14.424642,-16.812339,-18.877903,-21.596225,-25.015911,-28.001157,-31.242429,-33.727327,-34.766024,-35.735701,-36.885834,-38.338849,-40.353831,-41.995648,-43.930233,-46.098822,-49.06286,-50.56671,-49.81927,-49.977249,-50.65996,-50.962707,-52.881434,-54.04514,-55.734289,-57.042885,-56.757463,-55.301445,-54.630324,-54.1434,-54.191955,-54.911999,-55.108616,-54.178178,-52.935785,-51.563812,-51.048411,-50.669793,-51.021751,-51.471683,-52.34986,-52.553475,-51.564163,-50.840716,-50.103499,-50.458283,-50.581908,-50.525825,-51.37553,-51.05127,-51.364118,-52.881183,-54.295235,-54.444345,-53.952856,-54.050848,-54.527263,-56.253295,-58.575645,-60.365062,-62.000639,-64.229398,-65.521344,-65.411042,-66.828483,-67.508691,-68.435513,-68.85344,-70.434066,-71.040519,-72.33723,-72.575504,-72.961939,-72.960274,-73.717867,-74.812163,-76.271582,-77.358741,-76.921987,-76.629384,-75.12256,-74.251653,-72.64048,-70.748579,-69.888854,-68.68047,-68.623077,-67.804789,-64.860254,-61.902722,-60.131648,-56.997716,-53.528479,-51.765404,-51.824611,-51.29882,-50.234933,-48.835403,-44.889103,-41.815912,-38.046371,-34.45704,-31.109391,-29.221792,-26.798924,-24.143146,-21.048022,-18.32715,-15.537514,-12.435682,-10.580226,-8.639532,-7.8057014,-5.9705198,-4.1257737,-1.1766344,2.4949427,5.2640786,6.9649436,8.2753923,10.164627,11.771596,13.287191,15.236946,16.283317,17.432467,19.422436,20.906167,21.278046,21.490351,21.669578,21.217737,19.548946,19.006318,19.93983,21.064947,22.258481,22.472112,20.865121,20.299949,19.523329,17.805385,17.066869,17.039811,15.840556,14.317739,11.894977,11.197481,10.861884,10.592913,8.8821169,9.1011368,10.315995,9.6298248,7.3566216,6.7688552,9.9088588,9.173125,10.202748,12.790925,10.893515,8.6913138,7.611143,5.9950982,4.104754,2.3435902,1.2168044,0.76232721,1.4871214,2.9004184,3.9003538,4.5179439,3.7565076,2.8857293,-0.10499486,-2.296014,-2.5637866,-2.2437741,-1.6338784,0.38461438,0.83415639,2.3103083,3.245935,2.8035722,2.4287179,2.2366454,1.4150738,1.1126792,-0.30031269,-1.2758495,-0.57333425,-0.6664566,0.67488885,2.3302745,3.119358,4.8663036,4.7704855,5.4223602,5.3378875,4.4883552,4.3411514,4.542643,3.6083299,4.5856292,5.0345593,6.7008703,8.3849567,9.787955,10.432147,10.111231,11.421186,12.427421,13.075878,13.685283,15.421335,16.041654,16.231256,16.816495,17.845177,18.819213,19.331257,19.328655,18.112661,18.281114,17.711306,18.090288,18.159831,17.543107,18.355039,19.857593,20.769158,20.898588,20.409345,19.335324,18.350667,18.668463,20.176498,19.825334,20.797192,21.788019,20.317718,18.601852,18.05433,18.355997,19.145451,20.819765,21.410989,21.059859,20.029614,20.422141,21.020682,21.749272,23.113563,23.469446,23.455228,25.383217,26.544675,28.051367,28.179151,28.454261,28.221226,30.185701,32.249451,31.680106,31.355447,33.995233,34.598682,32.542765,34.047219,34.441027,33.603931,34.400434,37.439344,40.021957,42.194945,45.431236,48.455026,49.488702,49.763727,50.748157,50.980484,50.89733,51.583658,52.061946,50.860867,52.639659,54.714253,55.251452,56.651799,57.538229,56.72257,55.474831,52.635686,49.874651,46.859043,43.934575,40.804526,38.530251,35.409201,33.782295,32.502842,28.89312,28.698276,26.376606,23.558326,20.558777,16.551518,12.230707,6.9531944,2.4969787,0.20681512,-4.3871739,-8.369741,-10.783242,-16.023004,-20.025946,-23.981179,-28.713086,-32.898015,-35.558364,-38.357902,-43.315971,-47.625525,-50.047075,-52.646086,-54.582795,-55.556895,-56.854067,-57.795201,-59.503756,-59.860447,-60.543463,-60.038385,-59.690067,-58.151426,-56.559029,-53.876221,-51.267364,-48.077348,-45.577229,-42.900051,-40.220819,-37.234805,-34.412269,-31.177603,-27.312538,-23.31978,-18.92357,-15.331904,-12.660901,-9.248244,-6.1860989,-3.0672712,-0.44492826,2.2548746,5.8115978,9.2268808,12.148507,13.875385,16.420853,19.056752,20.985038,22.37087,23.578007,24.769644,25.822097,24.906473,23.296156,21.684654,19.810619,17.670143,16.580146,15.106566,12.533518,10.887366,9.8557931,8.0524888,6.3581728,4.6379609,2.318808,-0.2433511,-1.9308148,-2.9570569,-4.206895,-5.8300213,-7.5492573,-9.9593688,-12.870177,-15.641856,-17.356741,-19.070442,-20.749269,-23.311946,-25.371404,-27.30653,-28.549834,-30.113418,-30.436661,-30.842446,-32.442348,-33.14822,-34.495041,-35.141785,-35.509082,-36.522384,-36.953729,-37.112996,-36.911813,-35.803521,-33.632356,-31.592105,-30.147194,-26.419232,-26.283988,-25.215662,-23.87572,-22.356433,-21.340072,-19.644153,-17.359225,-15.199266,-15.441721,-14.592439,-14.998717,-17.920254,-19.353403,-20.985135,-22.52463,-22.688663,-23.505374,-25.742648,-28.426602,-28.81058,-28.948715,-30.026702,-30.787279,-31.893523,-33.644048,-34.617959,-35.842283,-36.927527,-38.65329,-39.322832,-40.386925,-39.811024,-39.46602,-38.685503,-38.84128,-39.151377,-39.25578,-38.75166,-38.346781,-36.744064,-35.565164,-34.920907,-32.625004,-29.232706,-27.190309,-26.809068,-25.666239,-25.178498,-25.226745,-23.606808,-21.609652,-17.854707,-13.172612,-9.1075862,-6.7425348,-3.6108914,-0.45103741,2.2744091,5.9630927,9.3308314,12.488446,15.269856,17.494735,19.694023,21.755202,24.693148,27.548934,30.003695,32.406031,36.362346,38.728392,39.732291,40.664107,42.420608,44.720622,47.745378,49.907292,51.339327,52.479829,54.613533,56.342647,55.883366,56.189434,56.85971,55.474209,54.772307,54.976644,54.886372,54.549486,55.894621,57.321102,55.429719,54.965909,54.002395,52.513031,51.256792,50.397145,49.322737,47.467355,46.109465,44.837299,43.785236,41.788822,40.719116,39.811588,39.42245,38.729434,37.075748,36.800144,37.056614,37.282438,37.850506,38.013663,37.894581,37.241999,36.657163,36.497132,36.0847,34.320047,33.342716,32.263693,31.122548,30.325245,28.354538,27.853296,28.63478,28.006924,27.318101,25.835256,24.722408,24.662371,24.128873,22.849593,22.175019,20.770229,21.091275,21.433239,20.293512,19.155679,18.514396,17.521849,17.436275,16.854212,15.65681,15.307848,14.361651,13.650613,11.839269,10.07503,9.0750184,7.7883645,7.4582899,9.2969236,8.171464,5.6307579,4.1329776,1.2340002,-2.1727733,-3.8612852,-4.7925928,-5.2493637,-4.9901681,-5.5830939,-8.459719,-10.059386,-10.735114,-12.684131,-14.013885,-12.809249,-12.260968,-11.769713,-11.980667,-12.809273,-14.734463,-16.945542,-17.773345,-18.087039,-17.876785,-16.087942,-14.732023,-15.588008,-15.398574,-15.528668,-15.257473,-16.121681,-15.184251,-14.76834,-15.271405,-14.861287,-14.234169,-15.287063,-16.553897,-17.296627,-19.173738,-20.233285,-18.569885,-16.982016,-16.342012,-16.239295,-15.824339,-16.775234,-17.786257,-17.6457,-18.349896,-20.232647,-19.787256,-20.951404,-21.655707,-22.417879,-22.617031,-22.382555,-23.41908,-23.107299,-23.670828,-23.534002,-22.887161,-22.326011,-22.732441,-23.679341,-23.423211,-22.5166,-22.775246,-22.212928,-21.06616,-21.930259,-22.130907,-21.704865,-22.094616,-23.657408,-23.131909,-23.000647,-24.577531,-25.995775,-25.802552,-25.741508,-24.61627,-24.24988,-23.725092,-22.943607,-21.809493,-20.533051,-20.558834,-20.261864,-20.011259,-19.131298,-16.838684,-15.850021,-15.360853,-14.46569,-13.252895,-11.708796,-9.8899952,-8.7451263,-8.2304578,-7.2500041,-6.480933,-6.4373111,-4.2312754,-2.6468854,-1.7415819,0.15319443,1.8050374,3.5120254,2.3168414,3.3609814,3.1224171,2.2252918,2.9745774,3.9415284,4.9851516,5.7687395,6.6359917,7.4591502,7.088296,7.7962254,8.3077057,8.556526,9.4939474,10.309292,9.9850283,9.0794593,8.6488657,7.2792724,5.8422463,5.8713695,7.5730707,9.5673598,11.341603,10.514587,8.205545,6.5209339,6.0497946,4.7792696,5.254078,5.302089,5.7368052,3.1946195,1.2179311,0.40292831,-1.4558071,-3.0772635,-3.4542054,-4.3708775,-4.4869075,-3.4212984,-3.1974816,-4.6119903,-6.3782879,-7.4008771,-8.8816436,-10.39424,-11.088018,-12.057719,-12.871477,-15.167683,-14.855796,-16.434105,-16.020283,-15.889127,-15.811515,-15.39735,-14.99004,-13.69973,-13.870208,-11.832745,-11.863703,-12.141443,-11.346703,-8.7819817,-6.2788562,-4.6419371,-3.5599049,-2.5108808,-2.911011,-4.0702497,-2.9472784,-1.5034997,1.3805801,3.688014,6.3127069,7.2760694,8.1305719,10.185553,12.7463,14.196332,18.142638,19.972555,22.449591,24.549721,24.944801,25.436943,26.231898,28.164869,30.439293,33.044053,35.161986,36.777743,37.21041,37.452386,37.208489,36.680733,36.430471,37.053374,38.339877,39.15256,37.781309,36.158748,36.500444,34.156597,33.04196,32.313371,31.897025,31.753456,32.335407,34.090715,34.040431,34.928768,37.057483,37.998847,39.179337,39.836654,41.153468,41.343878,40.708784,40.11206,39.73603,39.074714,39.352688,40.023519,42.624416,43.772089,44.995359,44.781371,44.65176,45.10343,45.248475,44.902655,43.47845,41.677994,42.869328,43.50488,43.543674,42.979916,41.99058,39.051051,35.601976,33.27276,33.634022,34.109379,32.757651,30.338294,28.349814,26.488748,25.540851,23.773673,20.248064,17.720992,16.083641,13.85282,10.562018,6.9142969,3.6143497,1.2238197,-2.0391605,-4.1916873,-6.6529256,-10.053732,-10.9892,-13.428273,-16.668169,-19.15024,-22.354036,-24.386682,-26.550283,-29.326436,-31.861576,-34.53708,-35.472037,-35.857185,-40.050828,-43.967853,-47.815608,-50.99907,-53.248496,-54.53691,-55.201868,-56.607554,-56.013153,-56.683985,-57.341951,-58.355205,-59.010782,-58.825659,-58.272694,-58.666058,-58.774682,-60.190794,-59.264902,-58.3989,-58.580489,-58.427206,-57.527924,-53.27038,-50.399111,-49.373296,-48.793619,-49.526258,-49.771715,-48.864925,-49.003628,-50.86285,-51.285057,-50.284106,-50.731372,-52.570504,-54.639212,-57.682242,-59.815323,-61.596138,-62.809181,-64.333579,-63.840792,-63.227831,-61.532049,-61.483097,-62.716361,-64.449415,-64.77143,-64.384677,-63.93303,-64.685584,-65.759371,-67.224203,-66.499112,-65.558175,-65.53513,-64.468595,-63.545984,-60.901474,-57.117156,-57.078544,-57.597647,-56.464174,-56.168807,-53.467113,-51.978598,-50.735533,-48.873039,-46.477034,-42.631083,-40.656059,-39.595358,-37.922228,-36.644609,-34.554302,-33.625951,-30.821627,-27.129815,-23.162631,-20.07981,-16.817934,-15.644216,-12.597256,-9.7293679,-6.3764404,-2.876587,-0.1587787,2.1103829,3.1543776,3.8546708,5.6568903,7.5616712,10.919212,13.606214,17.383364,17.796621,17.492935,18.574108,18.829848,20.290138,22.167415,23.726286,25.70614,26.128257,26.843939,26.636089,24.33252,25.311243,25.467927,23.915668,24.322614,23.141598,21.2162,20.593724,20.103115,19.11582,18.833316,19.812427,18.334041,17.621725,16.318159,14.230328,12.764492,12.088209,12.2981,12.28966,12.681958,13.288502,13.766583,13.189146,14.537787,15.063452,16.660555,16.220637,16.472213,17.539652,17.665642,17.475458,17.619085,17.693954,17.80295,19.530674,20.862263,21.954564,22.883756,22.919936,21.455014,20.793289,20.491786,20.745545,21.251778,22.305673,22.73943,23.621423,23.950234,24.099769,24.33053,25.49835,26.101027,27.174832,27.273758,27.865392,27.661507,28.463331,28.574392,28.177295,28.332251,28.95127,31.19054,32.691949,32.253143,32.11343,32.214236,31.718609,32.768903,32.686775,31.854516,32.366677,34.343262,35.769458,36.369298,35.846656,34.636466,32.963522,33.018291,32.830463,33.918556,35.568992,37.495066,37.45388,38.264841,37.591073,39.165676,40.216429,41.465137,42.64159,41.416995,41.321424,40.383874,40.609013,41.79911,42.126498,42.798557,43.87545,44.644207,43.870228,44.37323,45.00591,45.528476,46.232374,47.799749,48.127291,47.034049,47.07129,48.613301,48.116314,49.496833,51.161338,49.153336,48.226598,46.909302,45.076531,44.977248,47.109577,48.589825,49.207848,50.54836,49.334028,47.267292,47.348688,47.724904,47.400919,48.504324,48.961093,50.483127,50.147396,50.602804,50.770809,50.444882,50.431283,52.648364,53.204057,54.544806,55.481893,55.967276,57.25657,57.690083,58.396189,59.270265,59.11581,60.220149,61.523547,61.382854,61.490162,60.434282,58.471417,56.226063,54.311249,53.329706,53.066442,53.606829,54.044432,53.039707,51.141942,48.628728,47.000293,45.325388,43.961871,42.078042,40.100707,37.350907,34.175924,31.013858,28.25302,25.818468,22.916183,20.921651,18.243495,15.195844,11.502602,8.0255526,4.5126386,1.2003311,-0.50060153,-2.797379,-4.8644641,-8.7426582,-12.545867,-15.922711,-20.046005,-23.242423,-26.677711,-30.163422,-33.514966,-36.230777,-38.947572,-41.590408,-42.819362,-45.122041,-48.237359,-50.280971,-52.682458,-55.101097,-56.798074,-58.39991,-60.04901,-62.486723,-63.843348,-66.420636,-67.004332,-67.895675,-69.580516,-71.617813,-72.636578,-74.276442,-73.477881,-74.090094,-74.863624,-73.997283,-73.115883,-71.435878,-72.105155,-73.419862,-72.965796,-73.394999,-72.836778,-72.438387,-72.953404,-73.141405,-71.870767,-72.91049,-72.708112,-74.9153,-75.771711,-77.818833,-79.449421,-81.374808,-85.444981,-89.133481,-90.45671,-92.434584,-94.687497,-96.37644,-99.063915,-100.69512,-102.28556,-104.77514,-107.85169,-111.0018,-111.99058,-111.25183,-111.9242,-112.46485,-113.25247,-114.70627,-114.51351,-115.39261,-116.3394,-117.81831,-116.44558,-112.06954,-110.25761,-109.75761,-108.02632,-107.8948,-107.5112,-105.34956,-103.49351,-101.70585,-97.538944,-92.31591,-89.260389,-87.439159,-84.224999,-80.436482,-75.642925,-70.002782,-65.13129,-61.615731,-57.778114,-53.600878,-50.104676,-46.339138,-43.886834,-39.023107,-34.196293,-27.942172,-23.027557,-18.707468,-14.218444,-8.9798199,-4.5983702,-1.8782668,1.5080193,5.2770995,9.4790742,12.325371,15.841998,19.136709,21.753021,24.178189,27.972533,29.913845,29.876985,32.587565,36.469563,37.826117,40.525791,41.243403,40.323165,40.122875,41.321621,39.963992,39.464771,38.54428,38.339147,38.43768,37.58425,35.088327,34.434688,32.126547,29.392492,28.573707,26.940384,25.567607,26.204941,25.284517,25.493561,24.868676,25.331364,27.0591,27.382378,28.096518,29.396212,29.184507,29.503553,28.302772,28.625927,29.265154,29.137574,29.890055,31.196771,32.472594,33.307405,32.874684,33.519711,33.439782,33.417473,33.659911,34.306385,33.856391,34.008561,33.275601,33.410977,32.392377,33.426094,33.930095,34.71936,35.566818,36.292642,36.963113,36.977534,36.826798,35.796577,33.694302,35.135944,36.342681,36.859027,38.162466,39.636238,39.112581,35.959369,34.534964,33.365149,31.352538,33.015223,34.330452,34.629672,35.117051,35.82092,35.416391,34.864709,34.850558,35.468323,34.519061,34.709132,34.426635,33.393526,31.513941,29.632615,27.467206,27.154498,27.510868,27.00069,27.713113,26.96684,26.928925,25.068359,22.712049,20.837613,19.036008,17.652983,18.877315,19.526125,17.906197,16.409949,13.896043,10.990888,8.8742271,7.7402731,6.9523665,7.1125748,6.4609466,5.9523919,5.5277956,4.6419429,3.0573268,3.451522,2.162378,-0.25512405,-1.0320803,-1.8872547,-3.2279293,-3.2420083,-4.0463839,-4.8485428,-4.1240155,-3.9355995,-4.9509517,-4.4074723,-6.5568847,-8.1021111,-8.3932624,-10.142143,-9.320907,-8.916599,-6.6910487,-3.256434,-1.3122735,0.88945157,1.1991163,-1.3728678,-3.518995,-4.1664616,-6.2803464,-5.1710531,-2.6045392,0.3648961,3.1191706,4.8324665,6.3457125,6.8293421,9.2623441,10.774356,12.572742,13.677689,13.575799,12.940094,13.033082,13.284815,14.493992,17.469248,20.598907,24.383797,25.861642,27.542419,28.306111,28.289085,28.868777,30.153135,33.598998,36.548902,37.640593,38.218433,37.650116,38.421379,37.67214,37.016266,38.048508,38.448039,39.309119,40.84966,42.831365,45.099985,46.711863,49.78476,50.637101,52.649791,54.251817,55.316215,55.041629,55.410543,54.279181,54.242605,54.273232,55.294575,55.797719,56.538246,55.87394,55.541115,54.563965,53.950261,52.8066,51.619748,52.350525,51.527899,49.935822,48.896429,46.070183,43.00132,40.37472,38.302769,36.592881,33.071088,29.766567,26.972326,22.496224,19.621058,18.266854,16.086328,13.588155,11.733187,8.9408339,5.352284,1.9337068,-1.4764197,-5.2809557,-9.5599557,-12.253627,-14.90525,-17.688399,-18.981486,-21.943241,-23.957412,-26.071668,-29.024961,-29.908368,-32.96075,-35.288221,-36.93703,-41.206937,-42.817131,-43.624012,-45.260686,-48.443578,-48.367222,-47.322662,-47.954169,-50.540441,-52.692804,-54.816371,-56.356205,-56.366557,-56.75438,-57.579748,-55.538762,-54.365015,-53.905937,-54.4329,-55.60892,-55.275874,-54.96491,-54.676098,-54.674337,-55.758937,-56.447731,-55.870059,-54.979293,-54.380409,-53.60238,-51.519549,-49.44731,-49.579355,-49.678395,-50.973249,-51.631918,-49.211516,-48.381445,-47.767169,-46.562552,-44.822851,-46.380905,-48.667712,-49.431212,-51.43495,-52.272774,-51.430344,-51.607715,-51.516919,-52.756034,-52.876672,-53.401629,-54.381607,-54.627959,-56.499701,-56.952795,-57.549679,-57.537992,-60.12801,-61.527789,-62.198632,-61.696862,-60.427036,-59.679895,-58.525994,-57.189135,-55.761173,-55.779007,-56.429567,-55.57854,-54.845164,-52.730129,-48.806239,-46.609978,-46.293623,-45.546116,-44.161828,-42.326379,-42.35213,-38.956494,-36.433058,-33.028025,-28.293763,-25.885628,-23.258247,-20.89489,-16.858666,-11.941578,-8.4725765,-6.007837,-3.6757816,-1.7000353,0.65127172,1.987427,3.1157521,6.5877539,10.814149,15.516533,21.023211,23.260408,24.131461,27.303029,28.179959,29.732985,29.906097,33.039417,36.397999,39.324127,42.855149,43.612109,43.004849,44.471347,43.72132,42.589495,41.833024,45.034065,45.25277,46.597448,46.660706,46.100046,45.783756,46.075393,46.327588,46.412884,45.314638,42.918145,41.019979,37.431845,32.939168,32.415434,33.403014,31.681814,33.384318,33.41994,29.6407,27.091707,24.166221,20.26728,17.203646,16.215765,18.134901,18.426499,18.787557,20.219875,19.677935,18.802221,18.866796,16.949343,14.914306,16.041773,17.488366,16.76504,18.23663,20.520012,20.712066,23.38982,24.89924,25.490165,25.976518,25.461297,25.785032,23.924919,22.843133,22.729424,23.48701,25.186162,28.287981,28.726498,28.624719,29.272619,29.971709,29.253115,28.6258,29.083434,30.486587,30.357572,31.22104,30.222255,29.606182,29.793252,29.052222,28.640904,28.637539,26.906044,26.430165,26.308885,26.360782,25.305544,24.799803,25.878461,25.467902,26.882887,27.000716,25.063685,23.871511,21.844413,20.577044,19.988444,17.988901,17.168812,17.526809,16.769627,16.378403,14.842694,14.043409,15.071265,13.33341,13.446673,12.654943,9.7286369,9.8007811,9.5712987,7.6726044,5.6922366,5.4769173,7.095258,6.5957126,6.8706697,5.8388354,3.1844148,1.6128115,2.8152704,2.2384944,3.4018476,3.5634176,4.0924548,4.6402275,3.9065203,2.5253476,2.7853268,3.0687123,3.9620077,3.5080089,1.8682401,0.43940973,1.0937753,2.1605881,1.815212,2.5864342,5.7611325,5.0804333,3.5704799,3.9115472,0.73772713,-1.3145039,1.1963349,1.5427464,1.0323861,1.222901,2.6579015,4.3108515,2.7897729,1.8959577,-0.42845008,-3.7913229,-3.5691455,-3.2329721,-2.6115144,-2.0531366,1.3641482,3.3937701,4.1381506,6.4182588,6.7930303,6.2626078,7.2022503,5.9425992,4.9039483,3.3824349,2.9373186,4.0931085,5.1152154,7.246453,8.3115364,9.6643735,10.182756,9.7943996,6.5559769,6.1151983,5.0146256,4.3532341,4.3506304,5.4038842,4.356445,1.7002447,0.37001039,-0.93765417,-3.4661279,-6.0654993,-8.8507743,-10.960056,-12.312164,-13.904745,-16.993401,-18.782983,-20.633742,-20.950368,-24.923444,-27.063965,-28.82933,-31.289771,-33.609931,-37.308279,-41.252584,-41.699144,-41.139049,-39.553975,-37.804427,-38.567082,-37.947938,-37.841545,-39.269874,-39.634977,-41.189945,-40.014532,-37.611304,-36.02613,-33.192638,-33.098414,-34.598867,-32.829765,-33.682918,-33.143924,-32.501861,-30.447114,-27.266878,-25.633345,-24.131506,-23.590354,-22.929759,-20.557334,-17.289504,-16.567101,-15.535173,-16.006643,-16.04166,-15.297988,-14.927063,-14.744395,-12.625456,-11.247095,-9.2402098,-7.6018832,-7.8044719,-7.3891106,-8.216954,-8.6933881,-9.2261532,-9.5941917,-9.3316697,-8.7572608,-8.3637809,-6.7165419,-7.0222559,-9.6613511,-11.445944,-14.983082,-17.652974,-19.143016,-19.976994,-20.629935,-21.606841,-22.158903,-22.751683,-23.667868,-22.898321,-23.302911,-22.763713,-23.016688,-24.056244,-25.244889,-26.418219,-27.550786,-28.783419,-28.393079,-27.365411,-26.004692,-24.59178,-23.498119,-22.91973,-21.652021,-20.688726,-19.343956,-19.08376,-18.092305,-15.621602,-14.85171,-11.893155,-9.6762948,-9.1888128,-8.1727867,-6.3216243,-6.3919167,-7.6488424,-5.6360863,-4.9257854,-4.6218507,-3.0192285,-2.4144949,-2.1871988,-0.63045804,1.0734445,1.5897751,0.65704232,0.2352391,-2.9416015,-5.3521272,-8.3989705,-8.3208897,-9.3730125,-8.6606323,-7.9868958,-7.8837713,-7.2831886,-6.3538729,-6.5440413,-6.7528132,-7.5206747,-9.3600915,-11.177143,-12.251583,-12.053294,-12.060911,-11.116681,-8.847677,-9.9657644,-10.733256,-10.475433,-12.00476,-13.069917,-11.717277,-11.332598,-10.383127,-8.9012088,-7.695478,-6.9173194,-7.6860966,-5.2823392,-5.4984254,-4.5305753,-3.6504902,-3.5299392,-2.9272464,-2.8138663,-2.6660632,-1.9459371,-2.539387,0.0041491677,0.97078237,3.0206971,3.501076,4.2321289,4.7541985,5.3334421,6.4819379,6.9343704,7.9327858,7.8001926,10.214607,11.130946,10.518506,10.79806,10.968539,8.4199343,6.7952737,6.5978685,6.4333571,7.7473311,8.8267741,9.265553,9.203969,8.8449675,8.7819858,8.5696492,7.9896483,8.768022,8.2620676,8.1922054,7.3801171,6.8150431,6.7634614,6.5058638,5.9582752,6.2671858,6.1242662,4.9478314,4.8597045,3.3631934,3.1417466,3.0771846,2.6092909,2.317022,1.9257544,0.43951374,0.72254335,0.10655052,-0.050750435,0.15645005,-1.5235626,-1.9412344,-2.7360312,-3.9536515,-4.4862132,-4.7015447,-4.1069302,-4.5313384,-2.7345347,-2.0304335,-1.905902,-2.7358088,-2.1484156,-2.9644979,-4.3023897,-4.7395511,-5.3235079,-5.8097912,-5.949979,-5.0754142,-5.1848696,-4.2848714,-3.7018235,-4.1233207,-3.4559055,-3.3821644,-2.5549345,-2.0822744,-4.1534577,-4.304412,-5.9941909,-6.18718,-5.555311,-4.0587405,-2.687621,-1.4307208,-1.5983722,-2.4048002,-2.710077,-3.6440517,-4.3303189,-4.3020109,-3.3349657,-2.431775,-2.3827853,-1.239008,-1.3396545,-1.17634,-1.0749795,-0.9362893,-0.89838714,0.030144249,0.18441382,0.07134712,-0.54182671,-1.0326703,-1.8772028,-1.7565335,-1.723254,0.99060103,2.0471544,2.8461231,3.2280827,3.5437248,3.5012204,3.9306551,3.0579815,2.6191959,3.6720926,4.8410532,6.5679486,6.8439019,7.2011181,7.4660488,5.8641462,4.3859831,4.6058602,4.8263889,6.23389,7.3196914,6.683399,6.7593178,6.2479306,8.5010281,8.6773219,9.6133762,10.577011,10.599574,10.206002,8.8927079,7.3875555,6.1819074,4.7797896,4.5349451,3.8823686,3.3209577,3.1197049,2.3298649,2.1582255,0.50492071,-0.20071995,-1.5921156,-4.0557472,-3.7195766,-4.4289442,-5.9636985,-4.681726,-5.1060382,-5.3548549,-7.0443783,-8.6040161,-9.1483944,-10.189744,-10.037674,-9.4745973,-9.6269559,-8.9675502,-8.1064548,-7.4275115,-7.5160397,-5.594603,-5.046981,-2.8544767,-2.5676858,-2.5336273,-1.8632593,-1.7727997,-1.3228935,0.28203609,2.1372203,3.3668916,5.9850145,7.8014634,11.213291,13.485541,14.913552,16.777991,16.19194,16.8112,20.326382,20.81122,24.607898,28.143566,30.56653,31.769273,31.978971,32.616148,33.809848,34.601635,36.644979,38.16346,39.979801,41.220181,43.102762,43.357845,45.192486,46.144461,47.457267,47.976871,48.558382,48.971813,47.808031,46.742467,45.181013,44.142908,45.35967,44.859326,46.195777,45.965837,45.911872,44.576621,42.152874,40.543879,38.206161,37.05759,36.706174,34.380955,33.967113,33.354621,30.521311,28.335402,26.39692,25.189248,23.930611,23.686773,23.007243,22.006243,20.890437,20.679717,19.37005,18.549694,19.30638,18.939636,18.968159,16.958306,15.518615,13.397026,11.230288,8.4947796,7.4420451,6.3312221,6.8970136,6.8018839,5.1386658,3.5885113,1.2443162,-0.51918599,-3.0298496,-2.7854989,-2.1491808,-2.756129,-2.0829952,-1.7260827,-1.288012,-3.5582088,-5.2075758,-6.4932024,-8.7295766,-9.1778515,-9.1130773,-9.8535365,-9.3607433,-8.1890364,-7.6285786,-7.3007785,-6.7721745,-6.0971496,-6.4471925,-7.5170951,-8.9564665,-10.564639,-13.025542,-12.574473,-12.921603,-12.743819,-11.759756,-11.389964,-11.554694,-11.144636,-12.910474,-14.012179,-15.460042,-14.753438,-13.478183,-14.753484,-15.18652,-15.855013,-17.451029,-18.340962,-18.072617,-19.505972,-19.178344,-19.058224,-19.953572,-20.462184,-20.262593,-19.645703,-19.634034,-18.804947,-18.947168,-18.804806,-18.07387,-19.183181,-18.19825,-18.79714,-18.840225,-17.3357,-17.080051,-15.769383,-15.128388,-14.68351,-14.388174,-13.797074,-13.520752,-12.672466,-11.550153,-10.393725,-7.8680806,-8.2375992,-6.6145863,-6.9216486,-7.6392052,-7.7926477,-8.017789,-6.81022,-5.8440831,-5.3187083,-3.4858942,-3.4494779,-2.2367989,0.19437681,1.8940529,4.5849774,6.3104275,6.414193,7.4327488,7.0770959,7.632082,8.3110054,8.26667,8.8870268,10.542288,10.925315,10.926628,12.602399,11.882898,11.878507,12.595977,12.219811,13.449469,11.722965,13.053565,12.115686,11.24172,12.674866,12.096131,12.175514,12.549979,13.664557,14.214628,13.428868,14.26835,14.020272,12.658457,12.394539,12.923613,12.638152,14.130103,15.215902,15.015532,15.626129,16.293301,17.067713,16.771293,16.126588,15.521787,13.34902,12.049042,11.90135,11.415872,12.753086,13.494883,15.196787,15.697203,16.28554,15.444085,13.519614,12.355362,11.819669,11.143974,11.600422,13.790858,15.012803,14.683059,12.546736,11.57074,9.7680604,8.7637787,9.6041631,9.8513311,9.8039703,9.7113635,9.3719821,8.1185929,6.380607,6.8252894,6.4656774,5.7723669,6.0902052,5.1787866,4.415294,2.7430618,0.37378855,-0.41001391,-1.2476339,-1.9690861,0.041206457,-2.2403547,-1.4648218,-2.9603384,-3.6829225,-5.343765,-5.7011626,-7.1607919,-8.3985469,-8.4567038,-8.2029838,-9.3208409,-12.886539,-12.863297,-16.090613,-18.815106,-19.388232,-20.603426,-21.277768,-21.030115,-21.309493,-22.92209,-23.990536,-23.830934,-24.847036,-26.142587,-26.110403,-28.404388,-30.44794,-31.789978,-34.360841,-36.030286,-37.399339,-38.394509,-39.306346,-40.642133,-43.104937,-43.967294,-45.904821,-47.477559,-48.406373,-50.057042,-51.86692,-51.994804,-54.01162,-53.988016,-55.859777,-56.418166,-56.266996,-57.56013,-57.90921,-58.437919,-58.473664,-58.823755,-59.218792,-58.323531,-58.428104,-56.144038,-54.88626,-54.703759,-52.695486,-52.345843,-51.513604,-51.700823,-49.68637,-48.749218,-46.780461,-45.314076,-44.756529,-42.749739,-41.70664,-40.43719,-38.247811,-36.211674,-34.699343,-32.763428,-30.571322,-29.827168,-27.413578,-26.410128,-25.031587,-22.184762,-18.512879,-14.523057,-11.478486,-9.2222784,-7.56482,-7.8754373,-7.1380452,-5.5238602,-2.6726928,0.17293747,3.227721,5.3279894,7.3061531,9.0833154,10.859076,13.112134,14.428648,17.027254,18.212416,19.878728,21.354699,22.419895,23.241943,23.668497,24.174352,24.915319,27.240074,28.34445,29.837329,29.983127,32.332448,31.849947,32.440592,32.673537,33.575968,32.560696,32.281467,34.58931,34.96291,33.902023,34.110537,34.966327,32.916224,33.361934,34.583261,34.591218,35.822033,38.551016,39.06599,38.967511,40.929161,42.159274,43.176485,44.350708,45.414217,45.776555,46.735258,46.976957,47.312189,48.086527,48.755103,49.318106,48.946801,49.039004,49.940027,51.207452,49.409321,50.686315,49.914277,49.8478,50.462172,50.739024,48.693617,48.080399,48.340675,48.948271,47.424889,46.479887,45.13595,42.77894,41.335996,40.173783,39.903287,40.533478,40.853796,41.362363,39.17107,37.8063,37.542109,34.136902,33.641374,32.273337,31.934729,30.647713,29.609416,28.250029,25.901677,25.182065,22.292984,21.410695,19.750028,18.637123,16.03673,15.836198,14.124728,12.90564,13.600192,12.209839,10.648915,10.123244,8.4998046,7.8876954,6.6562841,4.5386518,4.2719374,1.9311236,0.70503399,0.46377576,-0.63079893,-1.1915503,-1.2800628,-0.5530801,-2.0973882,-1.8749278,-1.824436,-2.3714684,-2.4483183,-2.1336632,-1.9835865,-1.8236882,-1.5025877,-1.8360211,-1.4371041,-2.6179013,-1.7207241,-1.9034549,-1.0036595,-1.5701713,-0.88727983,-0.072264902,1.1476244,0.26589858,0.42186366,0.4759521,-0.54448791,-1.4226786,-2.3145978,-0.66927228,0.13297832,-1.5188743,0.069041021,-1.5500377,-3.2652698,-3.9058566,-5.2257081,-6.5507428,-5.6842384,-3.9094119,-4.4575701,-4.4841591,-3.6015722,-3.9348168,-3.937404,-4.3708564,-3.9356296,-3.9377851,-4.4535303,-4.5320412,-5.2079611,-5.816852,-6.3974816,-7.5259387,-7.4910486,-6.3375821,-6.4396346,-6.3251869,-6.8229969,-6.8237633,-6.9672488,-8.0132784,-8.6573792,-10.444195,-11.968108,-10.481383,-9.3680812,-10.63899,-10.604181,-11.060338,-13.64406,-15.044283,-15.805223,-16.327896,-15.672528,-15.058982,-15.136757,-16.393455,-16.981888,-17.004935,-17.715915,-17.764254,-17.526734,-17.202239,-17.749403,-17.452837,-18.398507,-18.201434,-19.396417,-19.829281,-20.350151,-19.078814,-19.552184,-18.947665,-19.023405,-19.218834,-19.474802,-19.323916,-19.681401,-20.900151,-21.364977,-20.130546,-19.848945,-18.721159,-18.896553,-18.732427,-20.417921,-22.785522,-24.333996,-24.729965,-24.79724,-23.553141,-24.156505,-23.986728,-25.773369,-25.911074,-27.151624,-28.100109,-28.839013,-30.101955,-30.936766,-32.186767,-33.446551,-34.298867,-35.284578,-36.809971,-37.268206,-38.269609,-37.185002,-38.043373,-37.797969,-38.979965,-39.18996,-39.330542,-38.951169,-38.03149,-39.186814,-38.208866,-37.176299,-34.983736,-34.696658,-34.823073,-33.26218,-35.094572,-34.647379,-33.728655,-32.506893,-29.689241,-26.260066,-24.656423,-23.89801,-22.394196,-20.870187,-18.980137,-16.979172,-13.956092,-12.434035,-10.557094,-9.3190161,-7.4440139,-6.5179059,-3.7632853,-2.5079707,0.16517624,2.2650359,4.561051,5.5285205,7.496181,9.0661361,10.681887,13.244392,14.402607,16.36144,17.106609,18.093856,19.485309,19.822873,19.555464,19.543095,19.560635,18.421788,19.13396,19.268604,19.268364,20.001361,19.081052,18.728945,17.712546,16.20707,16.541556,15.018212,14.820683,13.853401,12.820079,11.253414,10.404485,8.3840536,7.428068,5.7616725,4.4996247,3.283248,1.2493471,-0.12238259,-0.88186363,-1.4220075,-1.8205226,-2.0231513,-2.7620133,-3.4319743,-4.5806656,-5.1184555,-5.5289153,-6.0608271,-4.969222,-5.7314254,-4.5714219,-6.8861042,-5.8979186,-5.8382024,-6.8571266,-6.4787856,-6.3275293,-6.7068038,-5.4042668,-5.8097553,-6.2724854,-6.5040809,-5.9528104,-6.5471863,-5.3676724,-5.4872413,-4.7073444,-4.5119993,-5.1782953,-6.728984,-7.1211391,-7.7245904,-6.1433625,-4.2000658,-4.7699864,-3.0309288,-2.8713026,-2.0850483,-1.4973507,-2.5727578,-2.5856204,-3.8923339,-2.5547261,0.0077893005,0.55615401,1.6038254,3.8632325,3.0083067,2.6520229,2.8341416,2.3196308,2.1408404,2.9701684,4.1811486,4.4950012,5.9126724,6.8196007,8.5345729,9.556108,10.026963,11.447894,9.8093414,10.880734,9.9081832,9.5356625,8.3897415,9.6398553,8.7289024,10.892961,12.962971,14.737044,14.999999,17.126735,15.719094,16.458812,15.914852,14.541774,14.147567,15.261295,17.182331,18.679533,20.30262,19.476324,19.250644,18.647744,16.328666,16.65306,16.278801,16.934965,17.407905,16.357704,16.38501,15.923234,15.874613,17.789946,16.41684,17.027951,14.744983,13.403648,11.295665,9.7449204,8.0574332,7.7452693,7.4880887,8.5499574,8.8737028,10.339173,11.402827,12.294514,11.842708,12.374073,12.494805,12.5131,12.038255,11.202402,13.110516,13.20006,13.770525,14.809274,12.300399,12.275603,9.8504523,7.9386393,6.6520799,6.0928773,6.8465683,6.0250599,5.1814235,4.4807624,2.8273905,1.7231028,1.7101982,1.1550503,-0.080620086,-0.57216477,-2.3094662,-2.9257874,-5.2726079,-7.0217837,-8.797989,-8.8553565,-10.448512,-9.0498421,-9.36945,-10.645391,-10.83912,-11.877778,-12.394619,-12.075738,-13.08574,-13.363664,-14.225951,-13.982855,-11.481317,-14.22648,-12.856536,-13.123952,-15.925944,-16.370972,-16.585417,-16.166593,-14.851708,-13.427337,-11.788507,-12.649025,-12.09039,-12.521083,-12.172542,-12.777739,-12.231105,-11.420569,-11.836966,-11.633492,-10.67001,-11.797855,-10.222112,-10.162502,-10.088767,-7.9077336,-7.0466545,-7.3154714,-6.2105748,-6.5411966,-7.0071529,-3.88982,-5.4115092,-3.9736838,-2.1331114,1.5420073,1.6513477,0.96516946,1.9769751,-0.214778,-0.47374839,-1.2961367,-0.82738202,-0.18102834,1.05471,2.8808254,1.8880296,1.5855554,2.6524146,2.2823264,1.6424533,1.8136879,1.5419608,0.10529543,-2.0288876,-2.8903836,-4.0844158,-4.5967823,-3.5016213,-1.3415098,-0.36653365,2.423199,2.0358259,1.9801208,1.4842425,0.75469965,0.5860506,1.5829613,3.5734606,5.1807975,6.3935489,8.7059697,10.663615,7.9664259,8.7558301,8.6328469,6.5996823,7.3489685,8.706563,9.9135322,10.980842,13.038271,14.664043,15.452643,18.03569,20.197092,21.880436,22.566756,23.452782,22.529065,21.434574,21.870154,23.27499,24.044333,25.528898,26.931149,26.477708,28.38867,27.379682,28.393566,27.60905,27.222358,29.873951,30.052231,29.813854,30.199454,27.972961,26.288132,26.291791,25.33294,26.542998,24.008808,25.546785,22.989682,20.419437,20.981171,20.136413,19.80436,19.895567,18.896016,17.363283,15.066806,13.262521,11.001696,9.1297218,7.7361849,6.5048867,4.8122982,5.0828608,2.4743116,1.5572494,-2.0652448,-3.6422722,-6.1697957,-7.8802902,-9.0109364,-8.6247142,-8.5567935,-9.71816,-10.224136,-11.653085,-14.206422,-17.203342,-17.95077,-19.097024,-19.017592,-21.932517,-22.205285,-23.29618,-25.064179,-24.652466,-24.721856,-24.442081,-22.745795,-23.150551,-22.732732,-24.893973,-24.572839,-24.19773,-25.904681,-25.665348,-24.554193,-24.238231,-25.063369,-24.320773,-24.87278,-23.975754,-23.32166,-21.609894,-21.455878,-22.431747,-20.489228,-22.357334,-22.754955,-22.058571,-23.137148,-23.139561,-23.086221,-22.508142,-23.357902,-24.682612,-24.908035,-26.738502,-29.257837,-28.234738,-30.136278,-29.949008,-29.844019,-29.095906,-29.838351,-30.437624,-29.947721,-29.788872,-30.613762,-30.13946,-30.987567,-31.937226,-32.008268,-32.374595,-31.389089,-30.883868,-30.306206,-28.351217,-27.768275,-26.514648,-26.395211,-27.814581,-24.964025,-24.435178,-23.309603,-19.186871,-17.751322,-14.68122,-14.627163,-13.226316,-11.21921,-9.6667876,-7.1231463,-2.4575876,0.089563911,3.7788318,5.99538,8.914376,10.674882,12.716671,16.96787,18.19303,21.181953,24.313525,26.683016,28.440051,29.998109,31.372782,33.056846,33.762675,36.667132,37.93051,39.919003,42.650634,41.450832,42.807774,41.965193,40.809115,41.152425,40.48223,43.546607,44.708654,42.699216,42.64086,41.517,37.456218,35.594503,34.142435,33.169981,32.659769,31.671719,29.341157,27.455408,25.754248,24.991801,22.858021,20.850727,17.674398,15.39951,11.363196,10.562305,5.3353063,4.9565342,2.6758857,0.74302222,-0.75005872,-2.3727718,-4.0548129,-5.6775684,-6.5907879,-8.0617206,-8.8698482,-10.095916,-10.746461,-12.246785,-12.487823,-11.974542,-12.280347,-13.260827,-13.148625,-14.217211,-15.139298,-16.241693,-15.6526,-16.99842,-16.201123,-15.627218,-14.962791,-14.854512,-13.273318,-13.090683,-12.412823,-11.614744,-10.966102,-9.5149178,-8.909864,-7.2591101,-6.242569,-6.5547551,-4.7121976,-4.2712622,-3.4776076,-1.8188079,-1.2729542,-0.81891473,-0.43962778,-0.90032123,0.4918486,0.02182243,0.52449759,0.46063189,-0.9892743,0.68604693,0.50233273,0.47079709,1.2419787,-0.26435668,-0.8203347,-2.1627112,-3.4828057,-3.9142671,-4.4670798,-4.6372888,-4.0840976,-4.9800592,-4.9867064,-5.5689118,-6.661069,-7.1729395,-7.5718815,-7.3791588,-8.6629699,-7.9343857,-8.8387021,-9.2045533,-10.557225,-11.14892,-12.506104,-12.229813,-11.409496,-10.113292,-10.658818,-10.116006,-10.267058,-10.852598,-10.490487,-12.140528,-12.88812,-11.914155,-8.9812048,-5.8043653,-5.9832162,-4.7492435,-4.4974596,-5.8590972,-6.3591381,-6.6466161,-4.7512061,-3.6466008,-1.4521444,0.060488813,0.5615192,2.5274414,4.2566141,5.8810476,6.8926026,8.1172511,8.3973597,8.9560282,10.025559,11.577877,11.475507,14.430389,14.635666,17.684051,19.157826,21.568146,24.172577,24.741726,26.704204,27.15785,28.802133,29.170035,30.610171,33.002999,36.773956,37.110226,39.464983,37.60314,37.778749,36.938069,35.378975,34.637925,34.743083,35.416248,35.942601,36.595206,36.345169,36.105654,36.277678,36.028971,35.295764,35.57745,32.993957,32.970114,29.71607,29.201231,27.041625,25.564158,24.992866,25.365174,23.788789,23.509404,21.375291,19.579439,18.411646,16.07956,14.252472,11.298229,8.8907194,9.1551691,8.5945331,8.3170428,8.4232629,4.9665086,0.90578245,-2.3840192,-7.546642,-10.094224,-10.577582,-9.5006634,-9.8823081,-10.042293,-11.352881,-13.220134,-14.425761,-16.408011,-17.58739,-18.999042,-20.707517,-22.076334,-24.08228,-26.159093,-26.851887,-28.271066,-27.893646,-27.437897,-28.151139,-27.186728,-28.788307,-29.5901,-29.965006,-29.65698,-29.738043,-30.90725,-30.086552,-28.090967,-27.121889,-25.452898,-23.188393,-25.172809,-27.165796,-28.039464,-30.133775,-26.616294,-25.223982,-22.03746,-19.017842,-19.191695,-17.616964,-18.693483,-18.283485,-18.805558,-18.649068,-20.210092,-20.543211,-21.619852,-22.967503,-23.528677,-22.525588,-23.51361,-22.716448,-23.121595,-23.661028,-24.231461,-26.179305,-27.305303,-26.623344,-26.787649,-25.350281,-26.520687,-26.201256,-25.666725,-25.272423,-24.597602,-24.547753,-26.214182,-25.298137,-27.362252,-27.211576,-27.39763,-25.461097,-23.73875,-22.445892,-20.897605,-20.48811,-18.321856,-17.607795,-16.162165,-15.515663,-14.392106,-14.145473,-12.702374,-13.07601,-11.087145,-10.62397,-8.9507662,-8.5005815,-5.8478371,-5.6400783,-3.4126153,-2.9165317,-2.8607661,-1.5271543,-1.2018376,-0.44799693,-0.50221432,-0.30440308,1.5085736,5.0539675,6.2754795,7.8105136,7.6238879,6.7101623,4.3550741,3.6075056,3.4954444,4.1460549,6.3882262,7.7659619,7.3939143,6.799739,7.6068316,8.2374463,8.6518015,9.2430959,9.429765,8.868905,7.8644799,6.4782859,5.5142084,3.6019193,2.3387897,3.9008283,2.2126609,3.653764,2.9986492,1.6109049,0.49778257,-1.6951901,-2.484718,-3.8760773,-4.1186666,-3.9919187,-4.2368963,-2.8321356,-2.069752,-4.2768371,-5.4665683,-6.9988519,-9.8869885,-9.1247845,-8.1177847,-6.0571377,-3.0454973,-3.9489484,-2.6683877,-2.5745076,-3.1816039,-0.97916962,-2.3689641,-1.4040694,-2.8301013,-2.1300072,-4.2197466,-2.8276818,-2.4258919,-1.7087014,0.89666195,1.4573053,1.1008783,2.2486791,1.2389041,0.60662294,-0.051659666,0.628705,3.3087528,4.8890412,6.3275564,6.7003504,6.3428602,7.0598468,7.7791565,6.2269194,7.3283234,7.6877393,7.02732,7.0154934,8.126849,9.5380797,11.724185,14.832702,16.055512,17.126118,18.469002,17.555197,18.254466,16.441275,17.624651,19.174673,19.282222,21.932276,22.84223,23.524345,24.699437,24.22234,24.439011,23.863748,26.01135,25.713656,27.886099,27.273968,27.585687,28.497432,26.62737,27.370143,26.542947,27.97989,29.267028,29.31748,27.058706,27.680622,24.47739,23.877117,22.982656,22.91505,22.735997,23.019504,23.080248,21.981992,21.623564,21.852724,21.472312,20.673706,19.93954,18.964487,17.663499,16.734372,15.421057,14.796006,14.907398,14.126288,13.940414,12.882825,12.615172,12.381823,9.5964462,9.2643001,8.6228649,7.9373533,7.7877291,7.4758866,7.9890059,8.2858315,7.6765244,7.2714512,6.3422247,4.4230351,3.9282669,3.6363361,3.8041671,5.2135698,6.5334663,6.5928375,7.5027558,6.9132518,6.3544578,6.0750934,5.2222,5.3388258,3.7845716,5.05043,4.164034,6.367732,7.4603699,10.376891,12.729951,14.416863,16.350055,14.211905,15.215443,15.899389,16.206937,17.19865,20.241137,22.074111,23.424643,23.218503,23.546649,23.917692,24.33589,23.462901,23.917508,23.096122,25.236858,25.182552,25.341941,25.981131,27.047159,26.941816,27.070317,25.869028,24.268177,22.820701,19.759452,17.010478,18.065349,15.719915,17.201991,17.128647,14.662674,14.394764,10.811041,8.679421,6.497981,3.4807226,4.1866192,1.155478,1.9774196,0.63775783,-1.5406765,-5.5011467,-8.2074202,-11.914599,-15.138218,-15.339867,-17.199023,-18.652079,-20.649145,-22.217526,-24.178271,-25.173169,-27.165139,-26.163533,-29.567054,-29.339877,-32.914373,-34.340592,-36.733672,-37.953419,-37.727949,-38.469572,-37.884891,-37.742104,-37.674729,-39.105642,-39.68752,-41.488317,-42.462756,-41.878176,-40.950342,-40.152665,-40.185532,-38.605703,-37.48189,-38.86911,-40.040389,-38.715412,-39.626557,-39.586526,-37.804586,-38.149003,-36.731117,-35.508541,-33.990943,-32.979195,-31.327484,-29.869264,-28.508889,-29.20832,-28.63439,-28.733102,-30.59932,-30.10894,-29.350556,-28.898947,-28.220393,-26.718977,-27.17058,-26.373034,-27.753341,-27.793053,-29.549714,-27.791242,-26.640508,-27.352226,-25.871433,-27.396169,-28.370421,-29.515517,-27.707679,-28.619616,-28.082937,-26.641307,-27.107459,-28.854106,-28.837069,-27.174108,-25.991249,-23.505772,-22.87799,-22.536086,-21.041621,-20.623984,-19.209492,-19.214128,-18.621126,-18.329394,-16.238718,-15.0123,-12.577381,-12.124581,-10.269676,-9.9442333,-8.478327,-6.5033788,-4.3886307,-4.9202435,-1.8959181,-0.068123785,-0.46390606,2.7244784,3.1855006,4.24013,5.9334007,7.6120015,10.093199,9.5602546,12.834266,12.815555,12.19937,13.117301,15.065768,16.259328,18.649758,21.033077,22.042039,22.172578,23.053915,24.833691,25.14151,25.001621,26.343683,26.934604,24.650271,27.424338,26.039028,27.422481,27.789882,28.729459,29.984222,30.283676,30.773377,30.298647,27.064582,26.763617,27.361116,25.306861,27.620972,28.29604,27.978623,26.380048,23.699566,22.24449,19.363539,19.425384,19.587991,19.404165,19.212865,19.162786,18.715544,16.463434,17.294179,16.968177,16.68986,16.826327,16.382506,14.677826,12.222754,11.027849,10.033683,8.7208339,9.9846084,11.932561,11.405345,12.043354,10.460626,9.2391076,6.3212163,5.7165736,2.3302775,2.9004926,2.5732675,4.0537551,2.1437416,0.2536319,0.98002923,-2.4905833,-3.9013994,-4.9126746,-6.15246,-6.2817779,-5.2748551,-6.5975012,-8.1018139,-9.1287355,-8.174497,-8.2640485,-9.2580517,-9.6025313,-9.8342823,-10.453332,-11.689575,-13.291598,-13.671302,-14.709047,-14.771011,-12.639045,-10.5403,-9.7925017,-9.4776993,-11.48658,-11.990229,-14.048696,-14.453856,-15.125114,-14.600761,-12.573762,-10.883271,-10.92712,-11.059349,-10.618642,-12.982082,-14.310527,-15.1132,-15.274246,-14.076956,-12.699517,-12.402987,-11.767246,-10.42557,-8.9404583,-9.2973765,-8.5155795,-7.4991295,-9.2077849,-9.2777887,-10.059126,-10.320285,-10.309707,-9.5696582,-8.3846575,-5.8786134,-5.7530115,-4.5703683,-2.9015616,-4.1613448,-3.9047904,-4.5217163,-4.9483234,-2.5530583,-1.1115037,0.069342195,1.2645226,1.171227,2.7243787,2.336908,1.4916397,2.9429891,2.8928413,2.771892,3.8060329,4.3207546,6.6309576,9.7905402,11.91472,14.303662,14.719416,15.406964,14.913132,14.434565,14.563282,15.852555,16.468542,17.68715,19.555352,19.224746,20.092753,20.761558,21.493035,20.151268,21.064359,23.348057,23.838677,24.637761,24.793628,24.096536,22.731724,21.571908,21.261734,20.960214,22.687961,24.835423,24.210511,23.047551,22.651283,22.009589,20.436508,21.334865,21.480225,21.66429,23.015512,21.471524,19.497671,17.229227,16.044909,16.947613,15.163164,16.276307,16.464265,16.623617,15.809361,15.637834,15.819244,15.4767,15.76932,19.319634,22.190028,21.593323,22.6548,20.172309,18.98601,17.66396,17.478581,18.663547,21.385372,23.626061,25.17399,23.82896,24.060981,22.148258,21.575676,19.807458,20.74056,20.911738,22.604731,23.96603,23.825363,22.731402,23.13437,20.426485,19.574113,18.816811,18.281465,17.077749,15.08979,14.691262,13.928326,13.088177,12.356069,11.220002,9.9774657,9.3504255,7.9444159,5.1731961,4.038347,0.39741116,-2.4260187,-4.3825023,-5.3641223,-5.2529058,-6.2000194,-7.5201562,-10.271058,-13.766205,-16.263952,-18.607955,-19.6582,-21.412853,-22.330619,-24.008909,-25.979895,-27.008581,-27.065696,-28.89487,-30.339286,-32.792048,-36.126175,-36.6014,-38.145069,-39.160266,-38.66,-38.37066,-38.181228,-37.892413,-38.693683,-39.91624,-41.8979,-43.339809,-43.688989,-45.748743,-43.558202,-42.844651,-44.082477,-45.369162,-46.505593,-48.194787,-48.467572,-47.2838,-45.714453,-45.160736,-43.533776,-43.727,-45.326092,-44.257968,-43.603858,-42.30101,-41.292642,-40.279865,-40.766246,-40.540341,-40.228621,-41.379551,-40.581348,-40.671457,-37.855255,-35.81751,-35.457206,-32.723642,-31.674381,-29.475586,-28.11293,-26.355166,-25.243002,-24.222982,-21.429904,-17.564991,-19.002872,-17.866236,-15.687182,-17.248756,-14.627809,-13.685589,-9.724519,-7.2338304,-4.8393985,-3.6120675,-3.8090472,-2.7305417,-0.84848204,0.10813941,2.5064073,2.9441417,5.4369655,4.2986378,6.3669877,5.848461,6.932444,6.3523055,9.0192457,7.8207177,10.376554,11.596367,12.131404,12.186573,12.867261,12.269348,11.503862,11.33947,9.2441564,8.8035348,11.014827,12.541837,10.89228,11.211625,10.39437,7.4143297,5.8764853,4.9085467,3.8728974,4.4530868,4.9122778,3.856267,2.749897,1.6535683,1.8837413,-0.16628847,-0.59031288,-1.5824784,-2.214331,-3.2265524,-4.8533712,-4.7297264,-7.1010389,-7.9122909,-8.7800626,-8.3341101,-6.2331564,-4.9563695,-5.579267,-5.8131666,-6.056057,-6.4084501,-7.0889734,-7.787133,-8.3536585,-7.9958306,-5.8373351,-4.2304831,-2.2077098,-3.0997772,-0.70227535,-3.1192204,-3.5622884,-3.202178,-3.4900843,-1.7676091,-0.74040228,0.094082345,-0.15469624,1.6835155,2.0950152,3.0351584,4.2471144,6.3808656,5.99924,7.2510365,6.8419755,7.4609797,7.1600289,8.98896,10.684168,11.763808,13.393398,14.460493,16.144786,16.907942,17.002643,18.35127,18.298212,18.699396,19.864505,21.71418,21.768964,23.240062,24.67061,23.317444,21.55255,22.782681,21.977031,22.054048,23.986707,23.780396,24.8611,24.419925,24.663079,24.15564,23.873411,25.035375,24.75717,25.096962,24.419979,24.318825,22.686497,22.258041,22.488042,22.264803,23.052146,23.375782,24.692514,23.113486,24.648394,23.523128,23.190369,22.251301,21.943995,21.303807,23.362528,22.969694,24.475656,25.852484,27.319802,26.372166,25.279558,26.234483,24.60509,25.2974,25.409384,26.773809,27.137415,29.472295,30.665223,30.733054,32.594389,33.03939,34.203356,34.821033,35.091975,35.906087,35.561409,35.680684,36.148457,37.790336,37.545379,40.385235,41.137742,43.252692,43.42629,43.971108,43.806009,43.2498,41.034329,42.362536,41.057322,40.729158,42.991723,43.715959,43.600046,40.928203,40.323539,37.83734,36.51555,35.867597,35.644098,34.052702,33.589722,34.472548,33.042743,32.748793,32.1396,32.116515,29.622392,28.895141,26.68964,24.63108,22.373453,21.143697,19.746934,20.069351,18.601603,20.877051,18.811397,17.6776,15.791881,13.042627,10.018834,7.531981,7.3256671,6.8853506,5.1327597,6.4316487,6.02789,3.0840967,-1.1928652,-4.0324849,-7.6195188,-11.561669,-11.333478,-12.762302,-14.068347,-15.125584,-15.726321,-18.118107,-18.954084,-20.884669,-21.770745,-23.736719,-25.64074,-27.555083,-30.842258,-32.067971,-33.976196,-34.230019,-35.680529,-34.584656,-36.328436,-36.794472,-39.256764,-41.278814,-44.429937,-46.119496,-45.639467,-46.039941,-45.47613,-45.300899,-46.07232,-46.455645,-48.580508,-51.166283,-51.376891,-53.501474,-53.158306,-54.320007,-54.743044,-55.54591,-54.026076,-55.351532,-53.724321,-54.199239,-53.248999,-53.049774,-53.860628,-55.658855,-54.383684,-56.175321,-54.118109,-53.268322,-49.975732,-48.621069,-47.976426,-47.19952,-47.858671,-47.530784,-47.668683,-45.835159,-47.015882,-45.485179,-45.182967,-46.782257,-47.99834,-49.667943,-51.137235,-50.143053,-50.738917,-51.451988,-51.571052,-53.462484,-55.45456,-55.11679,-54.662354,-52.897047,-51.325224,-50.636444,-51.230043,-51.827533,-51.447992,-50.911771,-50.318883,-50.614262,-48.846943,-48.52198,-47.854174,-46.99795,-44.731877,-44.041691,-41.348382,-39.031137,-35.738284,-34.393254,-32.970611,-31.502193,-31.591638,-30.844855,-29.382952,-26.52491,-22.680818,-18.60442,-13.18843,-12.79117,-11.719694,-8.9457551,-9.6849073,-8.6876933,-5.6371634,-4.7165476,-0.31751839,1.7926414,5.1531987,6.4364683,9.7565994,11.381868,15.91411,15.445416,17.394949,17.174755,18.020731,17.971534,19.233349,21.259195,22.174306,24.208025,25.462647,26.788306,25.426036,26.51446,24.721739,23.898283,23.111943,22.641753,22.009102,23.159931,24.225922,22.548303,22.129719,20.54049,18.680134,16.492629,15.463894,14.994697,14.585308,14.876009,14.368385,12.628926,12.526806,11.925638,12.115739,10.601848,13.031347,9.9047573,11.83123,9.7886244,10.331602,10.024753,11.55471,11.076701,13.376977,15.008852,16.815443,14.67065,15.696119,15.378679,14.156471,15.146569,14.343819,15.495131,13.380616,15.936108,13.272658,13.606332,13.211039,14.024438,14.471521,15.640633,16.080264,15.068381,14.275866,13.714438,13.185351,12.561327,14.707376,14.894968,15.350477,16.012828,15.984071,15.934637,15.346341,15.754869,14.790817,14.35923,16.51669,17.039814,18.774813,20.533763,21.374559,20.617567,19.999938,18.594036,18.164498,17.244982,18.117012,17.822782,19.469914,19.977509,21.988583,23.91759,25.506218,26.794294,26.743911,24.938554,24.698106,24.611197,23.995764,24.799127,24.806358,23.171077,26.947708,26.00985,31.266643,33.417333,38.216524,36.936274,37.551003,32.620251,32.087847,29.628333,31.384065,36.005122,38.133214,38.344409,36.670622,35.055979,33.853885,35.902005,35.37146,38.56689,36.867558,37.856455,36.740505,35.452406,33.691409,33.877304,33.496357,37.383042,40.120095,36.365649,36.958541,30.748525,35.379071,38.422966,40.495879,41.192955,44.375832,44.152308,44.288764,44.383986,41.782667,41.122658,43.455676,47.81543,47.527606,49.63867,48.046378,37.943087,40.663869,41.329957,40.231359,43.189018,43.124,46.99846,52.423961,51.209416,52.901882,55.860053,56.51977,55.953328,55.054929,58.143157,50.340915,53.190096,54.655703,56.454278,51.764841,44.504347,32.894738,24.732553,21.916993,24.22012,28.631046,27.643587,27.693052,19.39231,12.676724,4.138188,-3.1982803,-8.5112491,-15.115196,-18.230291,-20.711027,-21.359928,-20.27704,-21.563964,-23.215327,-27.936518,-32.444742,-37.664018,-43.885453,-49.108214,-53.80706,-58.144698,-61.170419,-63.973171,-64.843523,-65.323365,-63.603766,-61.884219,-61.865323,-63.944039,-67.936397,-70.367971,-72.466552,-74.414115,-77.799249,-80.242388,-82.171089,-81.68955,-78.933118,-76.961571,-73.42976,-71.987166,-69.007678,-70.995071,-72.206573,-73.432151,-71.779878,-71.068109,-66.975419,-65.841939,-66.913014,-67.516927,-64.892752,-62.19472,-57.768279,-53.710937,-51.446404,-49.486918,-47.771738,-47.698054,-48.918711,-47.03755,-44.854384,-40.662835,-37.33109,-33.221936,-32.896964,-33.68453,-29.228292,-28.755031,-21.557457,-19.612926,-18.96206,-17.795264,-15.856128,-20.93386,-22.104123,-23.21274,-25.958963,-23.609235,-22.152916,-23.139035,-28.928181,-29.427172,-36.535931,-41.338663,-32.638157,-34.741408,-31.587131,-26.064667,-23.689838,-19.081811,-18.251747,-19.947969,-17.808762,-18.206236,-20.531146,-20.07418,-17.146666,-16.343982,-18.977407,-12.7895,-14.031663,-17.472936,-21.643488,-22.19452,-19.93486,-10.636589,-3.3039356,0.086525962,-3.7496925,-11.248557,-16.292286,-19.337431,-18.918675,-15.611949,-13.879642,-9.1740429,-7.166617,-1.825723,-0.11853738,3.7644551,5.7660189,6.0893295,7.9858058,4.5469493,3.5465029,0.13725955,-1.2841146,-1.0449908,1.810125,4.9093552,11.505171,17.179753,22.61528,26.963719,29.187529,29.481059,29.715291,27.444903,26.555462,26.213663,25.485313,25.591951,27.561704,30.267985,31.919382,36.176422,40.775929,42.361556,45.316505,46.11661,44.962728,42.332793,40.916665,40.027674,40.703181,41.529446,43.040167,44.388252,44.815509,44.271554,44.533458,43.209635,42.630316,41.668224,40.609329,38.82533,39.004311,36.295026,37.278555,37.575719,37.161522,37.816454,37.556573,37.498779,36.211724,35.546602,34.690674,34.259627,34.206335,35.018313,30.932324,29.92264,27.250809,24.504443,23.922571,22.542469,21.932172,21.004094,19.374502,17.042806,14.815884,13.91249,11.990021,11.035735,12.011054,10.893955,10.01857,8.0664831,5.7476177,3.0456415,1.9707283,0.63677635,0.42734073,-0.573115,-1.3506801,-2.6745931,-3.367577,-4.9628881,-5.5037216,-5.2468411,-4.1868483,-3.6530393,-1.9283843,-0.72183245,-3.0792933,-3.497669,-7.3051773,-8.5162852,-11.101403,-10.739516,-10.571812,-8.785142,-8.4129608,-6.4146904,-7.1660109,-3.4293787,-3.0423582,-0.75357484,-0.27303359,-0.32818765,-2.1151016,-4.4464637,-6.2917158,-8.7762767,-9.9308162,-9.363371,-7.1900956,-5.2378403,-2.0567011,-1.0602243,1.2094205,-0.14740012,0.17584947,0.17493047,0.074540178,-1.0757227,-1.470635,-3.5396231,-2.849207,-3.2718167,-2.7552226,-0.68165129,0.7872448,1.512823,1.6115898,2.4036391,1.6471226,0.11371752,2.5967779,1.5326158,4.7223456,5.5803233,7.0934563,7.6013916,7.9419747,7.2189717,6.8377286,7.0327454,6.7311273,8.0821891,8.1951314,10.045844,10.290125,11.263771,10.637228,11.120922,12.344498,13.450042,13.426833,14.815165,13.568205,12.755463,10.546954,9.9960917,8.4425131,9.1480974,8.2853488,8.3223757,7.7408386,7.0960604,5.2327005,6.0402784,4.8132521,5.5539508,4.5732646,4.3954499,4.0318709,1.5138409,0.47507692,-1.6946617,-1.7785745,-2.6883191,-2.9581285,-2.7478645,-3.2031124,-4.2256606,-5.6771641,-5.5463801,-7.2215257,-7.5611172,-8.8590689,-11.146824,-10.105653,-11.436163,-11.083677,-12.500081,-13.148473,-15.525906,-16.259691,-17.510612,-18.982381,-21.087019,-21.559391,-24.641928,-28.161746,-30.659583,-34.631927,-35.899364,-39.466369,-39.026137,-41.791612,-41.199194,-43.051748,-43.606967,-46.077027,-47.212672,-49.483978,-52.643089,-53.913681,-57.758201,-58.808846,-61.044554,-59.988179,-58.264786,-58.118934,-56.07356,-56.268523,-56.267635,-54.920721,-53.976969,-53.325684,-50.920473,-50.064226,-48.33882,-47.899323,-48.461628,-45.882407,-46.122266,-42.484234,-39.136342,-35.849355,-31.526029,-29.241794,-25.983542,-24.494346,-21.839446,-19.113788,-15.359474,-11.234605,-8.3145924,-4.9720201,-3.9782105,-1.5518336,-0.37161593,4.0028157,6.9714239,10.599717,14.564047,17.602518,20.859395,22.76429,24.250387,25.817555,27.21637,28.54685,32.369783,34.897008,35.243006,36.474782,36.945652,33.287179,32.864873,31.91809,31.911891,32.301613,34.143976,33.500742,32.913325,31.67853,30.3486,29.813133,28.217669,27.55526,26.672661,24.023453,22.723589,18.368865,15.28831,12.450588,12.090809,11.563528,11.561378,11.930964,10.770305,9.0682381,7.3679929,4.6358045,2.6706088,0.40138688,0.65677289,1.2368061,2.0809534,4.6382875,3.4960734,1.0571716,-1.0698658,-3.2556892,-4.5588907,-4.6351085,-3.6435429,-2.4963781,-1.3138978,-1.6683729,-2.699967,-2.1619351,-2.8161142,-1.8952458,-0.029996532,-1.0815149,0.80962509,-2.2771388,-1.9699651,-4.7871901,-4.0550554,-4.2873001,-2.3267346,-0.78344018,0.37939259,1.3752101,0.33261442,-0.096948816,-1.3687354,-0.64852981,-0.022217047,0.17142793,0.6909487,1.6681802,0.60359865,1.5046546,1.0999985,0.32469259,0.31621104,0.26545941,1.3468118,2.009364,2.2054808,3.5299665,2.5983785,4.4071082,4.4886479,5.382477,5.82322,5.7090711,4.9767792,4.2538342,3.7737559,5.1512643,3.4917728,3.9387181,3.7220249,2.3318368,2.0878018,1.6812472,2.1480969,2.9128263,1.5548226,3.9549374,4.7860239,4.0623273,5.5512346,1.8660814,-0.88759882,-2.0216443,-3.8860464,-3.2956955,-1.879284,-0.31755765,0.73952832,1.0746641,-0.984079,-2.4420684,-1.9509099,-2.9997002,-2.0784663,-1.3544228,-0.57670527,-1.6176873,0.17930405,-1.5864686,0.73226705,1.0317593,1.0618877,2.8038686,4.2735893,2.9567662,3.7961428,1.2326806,2.3481274,0.89995448,3.1616028,3.6212041,4.6236289,5.1810343,4.6182796,2.9963265,1.0043717,-0.86333554,-1.2522712,-1.906237,-1.3041165,-1.3478199,-3.6114109,-3.6576998,-7.7600381,-8.8448061,-9.5794673,-9.2073383,-9.3313724,-7.2091927,-7.0645746,-7.3750123,-9.675616,-11.185511,-11.656905,-11.072607,-10.792351,-10.766481,-10.412812,-12.916094,-12.234348,-13.135404,-11.880266,-10.14978,-9.4542163,-9.2650341,-7.3174635,-8.1363249,-7.2419932,-6.6979133,-6.2688381,-6.0317572,-5.277512,-2.4199056,-2.6153539,-0.0044054676,1.4262558,2.67549,2.4792727,5.0631723,6.5578057,7.9550432,8.7674588,12.436138,12.568035,15.963459,15.968725,18.253375,19.346549,21.631227,21.796918,24.227887,23.919039,25.58549,26.221971,29.491097,30.913118,33.851109,32.514055,34.51234,33.650589,34.922565,36.636648,38.008516,40.227754,40.576231,41.441909,40.802036,37.28547,34.898311,31.840018,27.989122,28.067764,28.312462,28.207093,29.379212,29.091753,28.761082,26.11468,22.931308,20.852006,17.713173,15.948751,12.299811,12.249879,8.4073794,7.6387491,6.2709478,5.8360571,4.8711585,6.5119735,4.5117401,3.6387698,2.0858406,-0.62873387,-4.2855006,-6.9121289,-7.0874336,-8.0579862,-7.4610106,-6.1027164,-6.4191562,-9.3411853,-9.6906719,-12.673572,-15.647847,-17.350874,-16.907356,-18.310719,-18.791163,-18.823745,-20.110011,-19.551676,-19.693727,-18.963417,-16.375262,-16.566514,-15.927422,-16.107481,-15.823706,-18.690901,-16.789828,-18.521253,-15.86844,-14.752245,-12.397613,-10.944892,-9.8842667,-8.4308137,-7.5356987,-5.6770899,-3.4732768,-1.8813463,-1.7415555,0.040166707,0.44602673,2.2757317,1.2901359,4.108836,4.5449288,5.9640332,7.7731133,9.3208155,11.184058,11.742088,14.181579,14.788425,15.401403,16.001641,16.283359,16.054341,15.885744,14.802591,15.19859,14.196651,14.629917,14.404843,14.528461,14.689128,14.614361,14.221275,15.544883,14.576663,14.882085,14.313179,13.501732,13.183732,12.220205,11.10422,10.995092,11.543144,10.738416,10.196022,9.0493709,8.5841663,5.8133169,5.3088457,4.406933,3.286715,3.8283722,2.7341533,3.0872574,2.8679944,1.7909058,0.81662977,1.0682366,0.017263562,-0.62278325,-1.4357569,-3.0982288,-4.1616382,-5.4076158,-6.3020584,-6.1114022,-5.7189112,-6.8317876,-4.6026875,-4.3686857,-4.1020651,-4.2786483,-5.6321959,-6.78528,-9.0347283,-8.5241151,-9.1577703,-8.6727482,-7.5575203,-5.7112429,-8.1696558,-7.3344615,-9.6612872,-10.935358,-12.813101,-11.237632,-13.372548,-13.145069,-14.458502,-15.342209,-17.570294,-18.176669,-17.50439,-17.793975,-15.724087,-16.479661,-16.288649,-16.40252,-19.451323,-19.572127,-20.000089,-20.413378,-20.113546,-18.030773,-20.11385,-18.090781,-18.371792,-17.127055,-16.192121,-15.187104,-14.818587,-14.550442,-15.375459,-15.054803,-16.348689,-18.404536,-16.425707,-18.85018,-18.682308,-19.899534,-18.281669,-18.971326,-18.18594,-18.07895,-19.112415,-19.498027,-19.794115,-20.906472,-20.460729,-21.432048,-22.249633,-23.707882,-24.24573,-25.246366,-26.170301,-25.39364,-25.111643,-24.933124,-24.195979,-26.451578,-25.256048,-26.908278,-27.466309,-26.823523,-28.138745,-28.333704,-27.724177,-28.900939,-28.643364,-30.962042,-29.663334,-29.588061,-30.645711,-29.314509,-28.55799,-30.200929,-31.175169,-32.720463,-32.452119,-34.229629,-33.855881,-33.756034,-33.716406,-34.529412,-33.579311,-36.394106,-35.946421,-37.370565,-37.184041,-39.069081,-39.047021,-40.769962,-40.639666,-41.239895,-41.343327,-38.944567,-39.219317,-37.320067,-35.852342,-35.915575,-35.679871,-36.540666,-37.09507,-37.339718,-36.592912,-33.653955,-31.482296,-29.483322,-26.358389,-25.410731,-26.283473,-24.966917,-25.102505,-23.717069,-23.164912,-20.387193,-19.581071,-17.417452,-17.148896,-13.713709,-12.813069,-8.6424753,-5.7061313,-3.3262351,-0.25741751,0.34536702,1.0158954,3.2796071,2.7753653,6.9831846,9.2118613,13.128153,16.727542,20.337516,23.54059,27.048042,30.127551,32.190941,34.578603,35.628787,38.054843,40.516273,42.817662,46.660275,48.28663,49.052022,50.539804,50.717398,50.741545,53.249096,54.800024,55.884647,57.816633,58.225649,58.292094,58.647837,59.171851,58.956625,60.063952,58.95048,58.924541,57.496919,56.797751,55.607015,55.163673,54.334088,54.437104,54.420625,54.952978,54.413545,55.950543,55.246781,55.974495,56.473111,54.425116,55.515135,55.61755,55.660821,56.236881,57.616665,58.950415,58.04397,57.572642,57.971365,55.475252,54.262296,55.72741,56.13896,56.756759,57.652561,57.260521,56.211918,55.614177,54.977928,55.171766,53.059734,53.895647,52.566431,52.019473,49.50971,49.068612,47.08782,47.762763,47.253623,46.867104,46.304784,44.565803,42.851337,42.335812,39.968854,39.058068,36.440832,34.642917,34.657765,33.38682,34.1127,33.165588,30.950881,30.091065,25.375009,22.663167,20.6831,18.433675,18.060255,16.584041,17.10635,15.953175,14.779073,14.287874,12.95341,11.786572,11.414666,8.6108975,8.9202826,6.9201868,3.7267287,3.9516869,2.2956046,2.4511212,3.7503702,3.235102,3.9588806,3.0921418,4.3146499,3.2858851,2.5138547,1.4288491,-0.19972503,-0.61859366,-1.1944616,1.7698121,0.98615712,0.42605937,2.2554052,-0.95858966,-2.6456463,-4.0744125,-4.3642186,-5.1525801,-4.3610893,-3.9178236,-4.7189499,-5.3133272,-6.1120182,-7.0687168,-7.8125951,-7.7886138,-9.8081656,-11.050659,-13.629202,-14.701833,-18.765854,-18.883308,-21.179091,-19.115178,-19.535613,-18.31419,-18.37962,-18.344581,-19.418545,-20.28783,-22.685903,-23.857671,-25.823299,-25.755216,-24.019097,-25.412542,-23.997748,-25.931688,-26.133091,-29.505309,-30.43524,-30.562677,-30.775956,-29.727589,-29.186135,-29.80624,-30.937626,-32.625377,-32.397105,-32.422701,-31.824091,-30.590216,-30.208311,-31.693893,-31.774928,-33.43633,-35.383405,-35.545643,-35.056595,-34.29314,-33.792116,-32.191136,-32.983249,-32.845123,-33.417419,-32.852915,-33.797651,-32.079975,-31.414248,-31.622078,-31.400309,-30.277962,-30.772648,-32.064301,-30.66226,-32.087892,-33.285051,-32.108418,-33.990445,-32.341592,-33.60651,-32.948915,-31.82502,-31.225541,-28.759386,-28.599722,-27.296222,-27.551306,-28.437409,-28.358646,-29.901903,-29.643865,-27.435159,-28.192214,-27.215117,-25.108051,-25.736091,-23.966469,-23.509375,-23.417144,-22.067316,-23.508339,-20.061185,-22.95095,-21.35963,-22.830692,-22.618982,-24.092528,-22.968452,-23.062185,-24.614863,-25.012872,-24.983727,-28.047089,-28.713243,-29.36246,-29.832543,-29.32047,-29.329849,-29.057774,-31.380636,-32.412686,-32.677781,-34.851614,-36.439972,-37.341428,-40.763329,-41.164216,-41.593119,-43.213938,-44.606768,-43.972664,-44.664685,-41.975789,-44.087949,-43.7299,-46.011195,-48.75561,-50.541607,-51.772503,-54.364395,-53.647656,-54.075654,-55.086638,-56.000073,-59.334691,-59.84338,-63.575727,-64.187042,-66.930847,-65.215904,-66.735984,-67.058382,-68.150093,-68.317247,-70.387728,-69.543596,-70.70657,-68.861805,-68.953228,-69.606354,-69.474619,-71.189248,-71.051274,-71.575635,-70.541772,-69.67511,-66.976523,-65.688376,-63.470841,-60.908298,-58.883763,-57.648206,-56.340055,-56.3365,-52.248104,-50.186316,-46.466276,-42.100409,-41.107097,-37.950815,-37.694635,-36.3744,-34.240841,-30.309314,-26.591267,-23.304535,-17.610776,-16.332958,-12.327872,-9.1381784,-5.8968622,-2.037669,1.3352249,5.1582213,6.8975996,10.230544,10.443196,13.190805,14.666046,17.864773,22.373164,27.245826,29.878624,34.257612,36.211994,38.514688,40.30306,41.222546,41.972536,43.14771,46.646985,49.676922,49.730402,52.919046,52.499611,51.867974,51.736098,52.568565,53.053667,55.387847,56.641661,58.78864,57.803519,58.479584,57.68475,57.57339,59.867596,59.46673,61.338977,61.160718,62.1659,61.94302,60.664338,59.937649,62.50334,63.40383,66.447825,67.842664,67.25496,69.421644,69.971406,71.574988,71.955521,71.964836,75.136625,76.628036,78.928573,82.276112,84.119703,83.863326,84.963365,85.049687,84.830266,88.068139,90.031761,93.689198,95.825854,97.51231,99.162262,100.8245,101.25574,103.74883,105.07019,107.33448,107.73846,108.3868,108.05086,108.22426,107.76738,109.69546,110.41739,111.91368,113.4114,113.40664,115.14185,113.71214,115.08093,113.94156,114.20684,114.5259,114.32144,112.94196,112.74199,112.25198,112.80599,110.72308,111.50598,110.68434,108.94574,108.18995,107.08261,105.93025,105.22738,105.91107,105.62821,105.83495,106.34536,104.57959,104.35121,103.79528,102.02576,101.00279,101.00644,99.832873,99.715432,99.725998,99.29773,99.911155,99.898961,102.07179,103.96998,105.43341,107.7269,108.38479,108.65566,108.95612,108.08099,108.15974,109.53708,111.8957,115.64377,115.7594,118.556,119.50765,118.45623,118.46275,122.0949,117.1886,115.04055,113.49263,118.06905,115.33119,120.9655,115.72495,123.55782,130.63626,132.37366,122.71673,113.3299,104.73882,93.943077,89.559759,97.066752,105.40079,116.93349,120.93498,130.36237,140.09885,156.39043,159.29058,164.79312,177.26464,176.46872,192.86899,187.93132,192.1237,182.80671,185.84328,189.50201,180.81512,150.85376,147.28027,123.92885,128.15967,95.552453,84.111401,54.789132,32.047034,9.2457936,5.3551725,3.2556267,-2.4186536,-5.5382,-14.040736,-14.397131,-11.535422,11.609468,16.40682,22.184633,30.772592,42.100156,35.773945,30.264467,21.711122,22.609403,19.182543,8.6708336,13.033683,5.7744444,6.7125438,4.8716938,-2.3656035,-21.662669,-32.007344,-51.619786,-59.356535,-83.351413,-104.09711,-138.4574,-165.56901,-185.60543,-205.25837,-208.7065,-227.66762,-243.47671,-255.12627,-280.1065,-307.27729,-341.37846,-372.85775,-410.35144,-447.26868,-480.53461,-521.33053,-549.08397,-586.33845,-613.73862,-648.14055,-672.71255,-702.16268,-720.50727,-745.20582,-766.89829,-786.14329,-798.51437,-809.08089,-817.84741,-825.3612,-828.77584,-822.13744,-824.90963,-812.58763,-808.36675,-789.1093,-776.99096,-767.23614,-757.58628,-739.74478,-714.77255,-695.03363,-667.44459,-645.25472,-618.21499,-596.92912,-564.53049,-541.72213,-527.82035,-499.6283,-465.6655,-425.13735,-383.86073,-330.47732,-279.9836,-234.23567,-186.7561,-139.09625,-88.798904,-35.236736,6.9155092,47.749419,92.42841,137.07176,167.89826,213.43872,233.68636,266.3339,290.07593,313.8074,321.53293,315.40895,313.22001,328.15118,315.34342,320.12624,291.16905,290.21542,271.26425,266.3727,260.36848,266.51862,259.89767,242.49767,239.36187,234.22429,232.52408,234.59096,229.29292,204.67901,190.40859,177.23171,160.46151,138.46684,128.75557,127.22434,126.7234,120.49589,116.32664,121.42328,111.51096,110.85055,104.37309,98.342647,97.4901,111.19854,99.77419,106.28101,100.98461,106.90805,113.94339,138.39356,167.5584,186.64688,211.99164,210.91115,226.56771,232.90998,228.25309,228.09391,227.63548,228.55526,225.79249,228.36238,229.63423,230.03237,238.99915,233.11727,234.91953,231.7428,233.49632,226.11639,228.88127,218.84045,221.45816,220.29174,220.20425,219.24881,212.71545,212.9386,214.20546,215.40395,207.64438,212.87036,203.92537,208.06038,194.73905,190.90897,188.82495,192.38869,185.30382,180.0419,178.71047,174.45917,168.645,166.61628,159.31355,157.29071,146.94239,150.14753,139.41962,135.09415,125.36373,120.72451,111.12721,107.56534,104.14567,101.21825,97.260303,97.512388,87.865172,91.427173,82.609353,86.870702,81.977704,85.700405,81.715868,77.690616,79.893493,74.51084,74.57043,75.03736,76.751827,75.148435,76.800998,77.972225,76.015275,73.885286,79.254916,75.559227,78.74962,79.9434,82.211044,77.30354,86.693026,79.580185,73.74399,71.625667,61.832194,59.697322,56.91584,55.630881,59.965098,60.651054,61.293815,66.768285,62.443864,64.139794,65.00584,64.668804,66.285024,64.011018,72.297132,73.936937,73.7897,68.268052,55.597982,58.611272,55.235904,49.234142,50.24947,49.509699,48.99664,43.752781,42.865166,37.838862,36.664353,29.745984,26.380875,24.113651,21.146967,18.053954,20.481423,27.807986,27.025415,32.438104,33.653371,31.936656,30.330404,29.980549,27.563144,28.018475,18.978168,11.92516,-2.2897985,-9.3176961,-17.244417,-23.215445,-35.325957,-37.753243,-42.702521,-47.301668,-55.049144,-59.792203,-63.866272,-58.047507,-52.625983,-60.481566,-57.577308,-59.894191,-58.369907,-60.999567,-64.524746,-64.923242,-65.919216,-66.1962,-67.555914,-67.152837,-68.993213,-64.80743,-63.881801,-60.620185,-61.715687,-56.665432,-54.435194,-46.408499,-41.555815,-37.314605,-34.872072,-31.665189,-28.636617,-23.366357,-22.566851,-18.010325,-17.412195,-11.009281,-11.632794,-15.611483,-11.491724,-13.057097,-17.909594,-18.266002,-26.806835,-35.819144,-38.707661,-42.659151,-45.559154,-45.37289,-46.91555,-53.877475,-60.622426,-68.263302,-75.337861,-86.577799,-91.403288,-108.5889,-104.70224,-111.10221,-107.13746,-101.07115,-104.76628,-101.0582,-97.997159,-98.911529,-99.539858,-103.07333,-119.1012,-121.05584,-147.51908,-167.61061,-188.56948,-214.88751,-232.96085,-255.22209,-271.4733,-279.77854,-285.87217,-282.94769,-279.72467,-277.4712,-251.15815,-253.60164,-230.71847,-225.63458,-202.24976,-203.55024,-184.50857,-180.31048,-156.39317,-154.82205,-136.40985,-121.31334,-105.53512,-89.716284,-76.460427,-55.710171,-39.496412,-24.86378,-10.835712,8.3869386,27.514808,36.676938,41.188028,54.567874,60.294533,74.849018,78.024881,82.844529,82.1673,81.218392,77.685565,58.38011,43.467548,31.236471,27.132152,22.527788,1.1913938,-10.731861,-5.7034062,-12.740982,-19.135432,-16.03182,-8.6651285,-3.0636307,-2.0438812,1.6727459,4.5217129,3.8882631,8.0993738,10.577889,13.232288,9.9933062,8.0438439,6.1777327,7.539679,-0.45433578,-8.9778558,-12.200162,-10.06632,-12.377155,-13.418255,-17.354586,-18.613953,-21.120304,-22.563311,-32.629232,-43.213039,-46.313544,-46.708594,-55.735681,-64.783756,-68.185672,-75.589797,-76.989466,-75.218139,-69.953593,-60.360515,-55.720265,-51.757425,-47.876466,-44.874086,-40.753975,-35.527582,-27.824143,-16.131739,-11.001595,7.2139356,13.264475,19.363394,33.860544,26.974695,41.192425,27.776606,34.920137,18.083513,14.177279,-7.0956129,-8.9280875,-32.815397,-28.478923,-39.883138,-41.566877,-40.405188,-37.146725,-38.409691,-26.347837,-26.445004,-11.098409,-5.1288009,2.066719,8.1646389,-6.1774384,4.0599785,-7.0851669,-2.3663431,-19.441137,-6.6675293,-19.951638,-9.1657107,-17.240838,0.36498894,5.7664335,20.601728,39.73381,60.930936,80.023146,101.61348,121.28664,143.77095,169.87202,182.33938,193.38681,201.01968,208.46309,205.40596,203.0778,195.71642,183.85986,168.80292,151.80815,133.49156,112.36571,103.01717,92.382877,88.811146,79.385081,75.164763,87.290733,87.730722,91.300023,97.317229,114.55256,118.66489,121.48541,122.48699,129.1637,131.41702,130.59709,132.93347,130.9761,129.03303,122.54997,118.23917,111.43115,104.0102,92.387503,88.268193,85.667819,82.99326,73.968892,68.910374,64.518009,60.219633,56.906344,52.541106,48.992431,51.247667,53.495976,49.988398,46.267521,46.46854,48.70517,48.697806,51.430258,56.214933,62.505321,63.059405,55.493457,53.981709,48.787867,44.00584,34.656269,31.887887,22.504201,16.697223,10.215009,6.5744502,1.0888057,-5.0382724,0.065492671,-13.149088,-7.9245541,-15.772221,-2.5191224,-9.209173,7.5662021,4.9085012,16.536511,17.432677,23.73113,16.689665,16.686607,7.3697722,1.9112869,-3.6831724,-4.6447605,-12.359664,-15.149006,-27.524829,-43.798703,-51.073141,-52.355734,-58.612027,-61.508843,-65.606757,-64.810789,-62.630854,-63.044648,-56.664857,-53.652859,-47.142776,-40.427488,-35.573969,-31.543223,-28.830866,-27.588164,-25.206387,-26.243655,-25.856345,-26.604057,-32.37713,-32.455018,-37.211319,-37.788437,-44.354345,-42.344355,-44.769761,-42.987054,-43.520862,-42.335995,-42.445012,-35.980081,-33.860918,-29.649735,-23.282399,-20.459081,-13.857685,-10.034726,-9.1229448,-2.5912629,1.034084,6.819067,8.6765659,11.80274,13.60684,16.717736,15.787216,14.498605,13.902945,13.151735,10.754277,10.130623,7.3193919,6.7486254,1.9543929,-0.43117117,-0.4475521,-0.61333171,-1.9932088,-1.8647946,-2.2317435,0.2836592,-2.1224253,6.1772013,3.2311338,7.0113884,5.6627349,3.174845,4.3694022,2.0042098,0.92752221,-0.81292577,-6.6007053,-12.250544,-18.438105,-23.176615,-27.053395,-31.88487,-32.682054,-36.240487,-40.618487,-44.087609,-44.657333,-47.574607,-46.687225,-46.119987,-47.970837,-47.329906,-48.238988,-47.369671,-47.357885,-46.676715,-42.866277,-40.642588,-40.448805,-38.379837,-41.072539,-45.981597,-46.332644,-55.340252,-61.52919,-68.698195,-70.389758,-73.345632,-73.636769,-77.061277,-76.670286,-79.97579,-75.959548,-73.306289,-63.385737,-59.771195,-60.114204,-57.524818,-52.267421,-48.409291,-44.93848,-41.347433,-39.445097,-39.203219,-40.083829,-40.668879,-44.316744,-46.379723,-49.987441,-53.564845,-57.10726,-59.514697,-61.825214,-64.090305,-65.241714,-65.085306,-64.576333,-62.777899,-61.400278,-58.75482,-56.780753,-53.798789,-50.451094,-45.109569,-40.519395,-36.026708,-36.572209,-35.524778,-31.912955,-32.115915,-28.132899,-27.491377,-26.719655,-24.488176,-24.503417,-22.032078,-23.189951,-21.997045,-24.119612,-25.753012,-27.468796,-25.247324,-23.83601,-22.05873,-20.487728,-17.37107,-17.705149,-14.243438,-15.337438,-14.467374,-11.405023,-10.07909,-8.8572612,-4.4093936,-3.0949806,-1.8899548,1.1837531,5.9155492,4.720829,8.673985,9.481498,8.2326099,10.500027,7.2226233,9.7504753,8.8221607,7.3926066,9.3180357,11.583506,12.904078,14.785151,14.618256,17.911167,18.956155,21.158967,24.568222,26.448762,29.045925,32.116389,32.518446,36.569849,39.827699,42.415682,45.017507,46.397613,46.205843,48.556491,47.942695,48.660692,49.217152,47.715998,45.846178,48.678434,44.727318,49.075807,48.548636,56.030207,56.706905,57.159,58.581526,55.797779,58.880383,62.731561,65.563287,65.569839,66.525219,63.717572,64.403991,65.400165,65.877103,65.048283,62.790359,59.312958,58.368375,56.693318,57.695216,55.156376,54.669089,52.761229,51.299921,47.705634,45.563485,42.062198,43.093031,39.653687,40.480945,35.918304,35.577084,33.060549,32.570318,33.758978,35.579457,37.836411,36.137521,36.436916,33.295314,34.802003,34.283345,37.144057,34.881354,35.186294,32.70369,30.712373,30.760362,31.008852,29.485318,28.270182,24.16177,22.49864,22.261986,24.077219,25.269311,25.456998,26.07449,27.218538,25.505207,24.789652,24.83425,23.870448,22.17651,21.705855,20.843392,16.735534,16.203213,15.135092,15.467771,17.813537,18.577325,19.925422,18.219062,17.902738,16.505611,19.34695,21.416581,25.334495,24.910077,25.775431,26.640066,27.421813,28.947804,30.129279,30.497509,30.184623,26.586175,25.064719,23.924446,23.723805,26.406302,25.92728,26.134256,25.696059,22.792211,19.573094,18.758567,19.901431,18.2224,17.29729,16.003721,13.095354,11.9669,11.507327,13.605151,12.221218,13.43924,12.408224,10.356145,8.4982058,4.9868612,3.6273915,4.2456518,0.48576497,2.6779195,-2.2827419,-4.7641352,-9.0223472,-10.045358,-12.510023,-14.721342,-16.776976,-20.370046,-22.627298,-25.889574,-25.463403,-24.591519,-25.126721,-23.965537,-26.134015,-27.198106,-28.390609,-31.689675,-33.38284,-33.774314,-33.448588,-35.200963,-41.760018,-40.592087,-45.998344,-44.523372,-45.599236,-43.540619,-43.381956,-42.60455,-44.841974,-46.359623,-46.784083,-44.6625,-42.058175,-42.016406,-39.43957,-41.600215,-40.11168,-41.188712,-39.894581,-38.747538,-38.636321,-40.909714,-40.524879,-41.817279,-41.441598,-40.990162,-39.481965,-37.934235,-40.326357,-40.305918,-41.903642,-42.848948,-42.508677,-43.38125,-46.514334,-50.881826,-51.328556,-50.631155,-52.086705,-50.722828,-50.582225,-49.753156,-51.527128,-49.896779,-50.842825,-48.231935,-45.906294,-44.871745,-44.424186,-44.611217,-44.717274,-44.652917,-43.85806,-42.551984,-45.661578,-45.814091,-48.620476,-48.408725,-50.452915,-50.394933,-50.915689,-51.543234,-50.629656,-51.632268,-53.431046,-52.688514,-53.675374,-52.816533,-51.680451,-48.757646,-50.363691,-49.978036,-52.167533,-51.452086,-51.467184,-46.670402,-45.338544,-45.503419,-45.16887,-46.692385,-47.445599,-47.006359,-44.9173,-42.627872,-37.842394,-40.581906,-41.746217,-42.50992,-42.311394,-40.76442,-40.479412,-38.370803,-40.447986,-41.935903,-41.939885,-43.135552,-40.108096,-41.093649,-38.104291,-38.233722,-38.450478,-37.870067,-39.167025,-37.755434,-36.646387,-35.407088,-34.154322,-32.856531,-33.369127,-36.130065,-33.389621,-29.755842,-26.915838,-22.230534,-19.59513,-19.493108,-16.924762,-14.449768,-11.3513,-6.925919,-3.7674048,1.1793441,1.0027872,5.1371831,6.4744016,9.4061721,14.485336,16.748937,20.583456,22.680647,24.902932,25.863132,29.755215,32.485354,34.540941,37.194457,39.873247,42.302232,42.586866,47.221996,49.313399,51.521223,51.666751,51.910119,50.720794,54.86578,56.889712,58.347488,56.953204,58.550231,56.68465,57.950502,59.15357,63.29512,63.526082,65.9137,63.082897,62.040785,63.097846,63.084923,66.824286,66.441041,65.876976,65.011707,61.970129,62.149683,61.519537,62.82678,61.042755,59.842799,56.821354,55.535516,55.237389,53.998221,55.301253,54.964953,54.698664,54.025897,51.905658,51.779829,51.82632,51.921026,49.712691,53.167827,50.606915,52.657111,49.89513,52.759867,55.046312,57.062337,59.357001,60.225076,61.600144,62.122249,65.689163,62.940409,65.518716,66.708196,68.041406,67.537852,69.401568,70.31634,72.287005,73.2321,74.42911,73.822552,76.94913,75.228002,77.983642,78.654976,77.811311,79.53042,77.446277,78.579884,77.474059,79.445058,75.796312,76.412396,71.678308,71.712733,70.091186,69.642327,67.755932,67.845645,66.38993,64.14597,64.848514,62.913809,66.187845,64.323237,64.27034,64.396245,63.52096,64.978666,63.446769,64.561093,63.449984,61.53943,60.386515,57.380217,54.400398,52.028533,50.774239,48.961474,46.098652,45.111256,42.567244,42.559433,38.185857,36.667397,36.333801,32.991596,31.534358,27.944288,27.62734,25.338415,23.44582,22.464317,21.026112,21.83544,22.21035,27.527319,23.664986,17.443124,18.487865,13.677733,11.783785,11.184201,8.5203392,4.9494259,3.5646296,-3.8379633,-3.567451,-6.5841651,-12.586146,-12.403632,-17.35611,-18.433786,-24.920251,-24.900573,-29.796574,-30.628166,-30.902878,-34.635633,-37.34661,-36.696398,-39.740799,-39.403702,-39.586486,-39.57228,-42.146499,-44.346957,-48.01899,-48.837607,-51.580589,-50.41503,-52.436791,-48.169128,-48.356606,-42.843011,-41.578948,-40.546287,-35.305274,-36.116088,-32.01646,-35.228327,-38.145007,-38.166671,-38.937837,-38.417831,-39.526715,-35.628226,-20.648766,-31.681652,-17.744809,-35.45881,-37.461528,-48.489546,-50.390627,-56.668288,-85.098109,-94.279275,-125.13234,-125.98252,-151.8491,-159.74683,-167.9478,-169.6621,-169.10025,-154.573,-140.23846,-132.44538,-120.72949,-105.84867,-101.37147,-90.488142,-83.415481,-77.903619,-73.699314,-78.343469,-80.416694,-89.357521,-98.966253,-110.86575,-124.72892,-134.08313,-136.10448,-146.52152,-153.85473,-166.48409,-165.65016,-165.87931,-166.00449,-152.23171,-153.4155,-139.80817,-141.52273,-118.30906,-119.4212,-113.09047,-132.07528,-136.32946,-150.76527,-165.02041,-159.0925,-171.77431,-165.72704,-167.67626,-161.19308,-161.13383,-148.71953,-146.85642,-142.19814,-135.70684,-115.85973,-115.17935,-105.90136,-105.05106,-98.786267,-102.36284,-96.095039,-97.262922,-91.657441,-92.132824,-85.501143,-75.251884,-70.813585,-57.509511,-50.505133,-32.627433,-46.230954,-37.805278,-48.172728,-52.076473,-64.137435,-72.950708,-87.894177,-95.217402,-108.44095,-121.28279,-131.56852,-138.54379,-143.43139,-143.12338,-143.45283,-141.3887,-133.2222,-119.21892,-108.34527,-94.186576,-84.289257,-69.754114,-52.91994,-43.216262,-33.655121,-20.008717,-8.1986746,13.819559,36.279443,55.684921,74.279636,108.26741,124.84015,130.68035,149.14779,142.16172,151.08251,160.69648,152.26352,151.98568,139.31964,161.27788,161.4463,191.36239,192.32804,224.10903,245.08156,266.02689,292.29044,300.15781,315.54556,313.50757,329.99436,331.01366,337.2885,343.90246,349.04488,345.05818,340.7158,330.815,318.57087,301.22504,282.90506,268.58533,263.77642,250.54169,240.85996,229.19069,223.97119,217.27551,220.56181,212.55226,209.26117,206.14098,185.40501,183.21454,161.79472,149.62491,110.60606,77.006877,43.005574,25.931501,2.4320476,-13.405454,-23.108237,-55.480454,-61.701692,-79.129871,-78.581075,-88.58867,-88.399545,-104.50466,-103.81536,-109.31662,-103.58019,-112.09502,-119.59991,-117.5618,-120.07569,-107.98167,-98.179444,-90.110527,-81.287167,-66.352921,-51.513979,-33.248571,-23.915274,-20.879463,-15.881422,-11.682519,-7.9320283,-2.6997158,-2.524693,1.2604735,2.0118282,5.4206839,18.968424,23.254767,30.933091,29.458238,38.582826,40.38248,43.908595,42.820868,43.822468,43.881412,48.561421,51.281045,55.387952,57.201694,57.363269,54.341003,49.826866,42.104519,42.84682,49.726259,53.110448,66.388423,73.325795,77.002041,87.159845,95.910805,93.852966,97.806453,92.418699,91.301956,85.652916,93.329219,84.564364,101.81224,99.072874,105.83771,104.8379,107.04786,104.85072,101.16064,98.626483,88.29094,85.223524,72.976089,85.015816,78.062171,89.321502,88.476114,98.914756,97.461858,97.817583,85.214409,80.97023,75.773509,67.643782,63.634937,60.537789,61.759653,61.509263,50.784066,51.447458,47.288382,37.695259,29.940842,24.554208,15.595379,11.193487,3.849042,0.47546642,-0.27928317,-7.4720751,-12.060695,-17.362969,-23.302103,-22.961756,-30.495965,-34.224902,-45.228419,-49.049611,-55.491998,-52.382305,-53.741075,-51.423156,-56.086995,-53.657125,-54.486838,-47.699459,-46.898508,-44.382715,-48.866983,-50.383818,-43.446258,-47.753501,-40.577954,-54.837347,-56.792609,-65.222732,-62.794198,-65.592214,-64.372287,-70.779661,-70.725222,-60.381876,-53.085353,-43.875891,-49.687867,-35.912032,-35.453201,-27.153241,-25.894676,-15.489939,-23.276,-18.109093,-22.045038,-14.839204,-21.800107,-23.040415,-25.782642,-24.022472,-23.5503,-18.980456,-21.453584,-19.714363,-24.40916,-24.448939,-27.18845,-24.672728,-22.625146,-14.991616,-12.309838,-5.2098635,-3.6282554,-1.6661776,-1.6954196,-3.4640271,-8.2569663,-11.400185,-20.203669,-23.070115,-27.067993,-26.670721,-28.884554,-30.781283,-32.267697,-35.673625,-38.539529,-39.401395,-45.712557,-49.385102,-56.376694,-56.655248,-64.81291,-61.695629,-66.541594,-63.680365,-68.352333,-69.507803,-74.862094,-77.113264,-81.326344,-83.005752,-84.250581,-82.414623,-80.371615,-80.466909,-78.378048,-79.111636,-82.864449,-84.992754,-93.060538,-94.109642,-99.705405,-97.787498,-98.157702,-94.895841,-94.766961,-91.517295,-93.752806,-89.552915,-89.859449,-84.839418,-85.963109,-85.183624,-86.443405,-88.645072,-90.230879,-94.276118,-94.028386,-95.090422,-94.932096,-94.016025,-92.819339,-91.765116,-86.510319,-87.384921,-85.96502,-87.612415,-87.638067,-89.40101,-89.823889,-90.282234,-91.172816,-91.930796,-90.965177,-90.435594,-89.643319,-87.697345,-84.919712,-83.969541,-82.563896,-81.043885,-79.101157,-77.99258,-75.55527,-73.739317,-71.824996,-70.328313,-68.859568,-69.327763,-66.409386,-61.844979,-59.61453,-54.319061,-52.090442,-47.858148,-47.056039,-42.077937,-39.024343,-35.021594,-33.334908,-31.955366,-31.152047,-27.535182,-26.337896,-21.535154,-19.619192,-15.192874,-10.98695,-6.0612631,-5.1263033,-0.1361702,-0.56484387,3.8698754,3.543727,7.8483472,10.976982,14.375678,16.275747,21.475066,20.545294,24.762758,24.501084,27.630884,28.145986,29.737726,29.926446,33.09834,33.150127,35.297655,34.902655,36.899247,35.484168,35.944665,34.038964,34.454147,32.888479,32.851676,34.684676,32.249495,33.222062,33.490195,33.87847,32.504705,32.064141,31.578033,29.642132,29.22722,26.508339,26.860397,24.631561,26.699899,24.323026,26.194642,24.841896,25.533931,25.797978,25.322453,24.212873,25.13283,24.193123,24.317211,22.162271,22.121982,19.646561,18.897566,17.041617,16.583401,16.501477,15.101276,16.916612,15.965989,18.40169,17.730628,20.057231,16.141297,18.70804,15.427598,15.802892,12.266625,12.775429,11.673089,13.399943,13.951633,15.708126,15.403248,16.118908,16.475212,15.467333,15.090655,13.614888,14.845179,12.775564,13.620057,12.667345,12.968953,13.288379,14.358392,13.997775,14.001523,14.623677,14.437569,12.713185,13.404067,12.771249,13.5931,11.932307,13.025311,11.755071,12.322389,10.876864,9.9565937,10.979927,10.38663,10.975979,8.2137657,7.249742,6.2004488,4.1571927,3.7113906,1.5868264,5.4263775,4.164398,8.3111533,5.934385,6.2085788,3.052383,-0.55346985,-3.7469901,-7.0347115,-8.4612073,-7.5114986,-7.472852,-5.6536262,-5.0718682,-4.9121919,-5.5104607,-6.1524176,-7.7600912,-9.6258116,-10.802917,-11.373085,-13.743981,-14.073794,-13.302475,-15.144238,-12.57246,-13.646397,-11.025045,-14.100709,-10.604473,-12.645248,-11.062879,-12.833027,-11.262984,-12.382957,-12.644588,-12.236912,-12.880455,-14.181833,-14.774069,-16.238052,-16.14787,-16.24329,-15.099512,-15.53336,-13.924434,-14.950322,-13.553445,-14.216058,-12.603048,-13.510253,-12.375135,-14.242527,-14.319892,-16.538138,-16.684218,-17.003272,-17.961839,-17.492648,-14.816442,-15.680613,-12.039993,-13.090715,-11.234713,-13.969511,-13.849733,-15.851651,-16.42759,-17.277733,-15.346256,-14.88754,-12.204334,-10.878961,-9.7106622,-9.6886599,-9.9331727,-11.1338,-12.305882,-11.274256,-12.198689,-7.6853117,-8.3577305,-2.2460867,-2.2582144,2.333827,3.6911458,5.4076967,5.9139831,6.1446052,6.9475587,5.7640022,7.4451093,10.028462,12.151324,16.539847,19.746313,24.721115,27.776409,29.237272,30.777339,31.732963,32.704047,34.506406,35.7876,36.881524,41.023469,44.357932,46.515684,51.585896,51.528054,53.550756,51.995958,54.558963,52.702687,55.260338,56.179092,58.127256,61.610262,63.890389,68.332881,70.707403,72.517678,75.048447,74.869441,75.169068,76.095618,78.181975,80.046867,82.506461,86.705595,86.926608,89.02546,90.510241,91.269618,91.526858,92.035261,92.85931,93.206406,92.661115,94.92922,92.206346,93.60259,90.300242,90.287568,86.155248,86.754128,84.127093,82.722358,79.958112,78.626278,75.638606,74.976543,72.840783,72.098704,69.399708,67.109435,64.014712,60.658469,57.10045,54.638662,50.804481,48.125907,46.218186,43.601981,41.710916,39.968595,36.471095,33.419325,29.743174,27.714484,23.882267,23.463974,19.942268,17.737444,13.449364,11.506787,7.6289141,4.9626861,2.1353788,0.47208136,-1.4481549,-3.5409296,-5.7349946,-8.4297238,-9.8372121,-12.973173,-12.724375,-14.245586,-13.436935,-15.185727,-14.058129,-18.30636,-16.693664,-21.354071,-19.251738,-21.479327,-19.677447,-18.950823,-16.53621,-14.856822,-12.810565,-11.225443,-10.919599,-11.338007,-9.6369096,-11.761141,-8.7221374,-9.113208,-5.4577402,-3.8546639,-0.92486679,0.53200042,2.1036851,3.2274961,3.3255421,3.7269976,2.7495693,2.3169836,1.608396,1.462955,2.7837069,3.8690039,7.0685208,6.9091702,9.3149774,8.3749342,8.2750355,8.4849844,7.2083149,6.8845653,6.4671656,5.6041709,7.5350728,6.3502908,8.5145763,9.4443984,10.768207,12.329739,12.918015,12.796582,10.355202,10.869139,9.1044902,8.8719748,9.8167142,10.124954,11.526615,9.6172523,10.490504,7.5455005,5.7640577,3.2167368,1.577888,-0.36933283,-0.95739995,-0.34699834,-1.7095447,-1.0527642,-2.172246,-3.3929695,-4.3318941,-6.2659878,-8.1253608,-11.251218,-13.206566,-16.024725,-18.821746,-20.948551,-21.358021,-22.488375,-23.306913,-23.275021,-24.571743,-27.707865,-28.035251,-31.477477,-35.005434,-37.212279,-39.128583,-39.391668,-40.641607,-41.886239,-44.43739,-48.035643,-51.010573,-56.198556,-58.424275,-61.061168,-62.864382,-63.85,-64.651614,-66.525825,-67.106567,-68.638718,-70.057263,-73.559485,-75.330538,-80.451388,-83.757211,-87.631478,-89.195053,-92.890276,-91.601583,-94.062207,-91.47875,-92.011964,-89.995545,-90.534002,-90.885298,-93.763355,-95.577869,-100.80271,-101.98721,-102.86603,-101.04566,-100.12243,-95.788498,-94.700402,-92.477459,-92.69518,-92.064588,-93.046846,-92.651774,-91.888771,-90.865797,-89.558408,-86.333071,-84.704708,-81.732152,-79.201857,-76.273523,-76.490135,-73.034044,-73.886594,-71.373042,-71.537035,-68.710209,-65.562186,-62.920944,-57.777364,-53.45783,-51.14578,-47.560265,-47.319248,-45.612335,-46.137578,-45.253623,-44.961142,-45.429024,-43.80583,-43.303818,-40.765422,-41.872951,-40.124895,