ConstAcc,0.5,0.26265,185.15002,171.7546,159.94253,149.61009,140.65743,132.98857,126.51129,121.13708,116.78104,113.36188,110.80178,109.02637,107.96465,107.5489,107.71465,108.4006,109.54853,111.10326,113.01256,115.22712,117.70044,120.38877,123.25108,126.24895,129.34652,132.51041,135.70969,138.91576,142.10232,145.24528,148.32273,151.31482,154.20372,156.97357,159.61038,162.10198,164.43794,166.60952,168.60961,170.43262,172.07444,173.5324,174.80515,175.89262,176.79596,177.51745,178.06046,178.42934,178.62942,178.66687,178.54867,178.28256,177.87692,177.34076,176.6836,175.91545,176.09002,172.90027,172.61143,173.75916,174.4863,174.27829,173.63707,172.90255,172.61996,172.13286,171.32036,170.12855,168.94312,167.67389,166.38097,164.69979,162.83182,161.06824,159.71089,158.64486,157.80246,156.99214,156.1071,155.3284,154.6276,154.06566,153.47358,152.8833,152.00872,150.84078,149.4946,148.12199,146.7616,145.43908,144.2098,143.21118,142.50511,141.87177,141.14841,140.32712,139.48946,138.68936,137.90591,136.9693,135.89218,134.92947,134.1058,133.39646,132.78096,132.31481,132.23086,132.62963,133.25068,133.73825,133.96228,134.09846,134.27824,134.39748,134.26833,134.02644,134.02914,134.39513,134.97909,135.67418,136.29829,137.11625,138.30352,139.78988,141.24807,142.48013,143.50145,144.41649,145.17058,145.72367,146.04632,146.25769,146.33661,146.53126,146.65278,146.61786,146.55453,146.54669,146.63226,146.77276,147.01322,147.43533,148.16832,149.0217,149.9928,150.93928,151.78724,152.50451,153.12973,153.63531,153.8663,153.89313,153.83863,153.66781,153.12624,152.14661,150.90224,149.72952,148.56035,147.18796,145.55027,143.84829,142.40286,141.38172,140.54765,139.80589,139.07601,138.52432,138.18459,137.9986,137.77676,137.33677,136.85779,136.40006,135.97864,135.47679,134.78922,133.97749,132.89088,131.85102,131.01503,130.46194,130.57461,131.30134,132.26147,133.29934,134.38247,135.47597,136.67332,137.8426,138.69919,139.32822,139.72896,140.11381,140.19745,140.10619,140.08709,140.19312,140.50357,140.85456,141.17889,141.48016,141.79222,141.96623,142.07414,142.09119,142.10991,142.09779,142.17116,142.07002,141.92897,141.90005,141.87002,142.04652,142.36288,142.65887,143.05085,143.42296,143.73691,143.83061,143.73864,143.50084,143.10714,142.59824,141.96719,141.34908,140.6819,140.02208,139.56952,139.16578,138.72921,138.19961,137.66254,137.05171,136.09653,134.86625,133.41028,131.84562,129.9311,127.74951,125.16244,122.33418,119.72208,117.44639,115.13997,112.956,110.82263,108.91062,107.18062,105.5628,103.89535,102.20225,100.71313,99.502806,98.468871,97.313598,96.168709,94.93823,94.224208,94.094589,94.085238,93.86438,93.523502,93.067066,92.413151,91.782958,91.19782,90.884843,90.965474,91.205695,91.50763,91.832999,92.352904,93.184718,94.166604,95.182198,96.135887,97.20483,98.486585,100.05332,101.40219,102.51527,103.63245,105.07607,106.70225,108.37521,110.17892,112.17238,114.36073,116.8167,119.0133,121.17103,123.54539,126.10925,128.80855,131.3902,133.45184,135.30125,137.28641,139.2865,141.29551,143.3834,145.34668,147.16174,148.71373,150.26775,151.97575,153.89946,156.10101,158.29357,160.27151,161.78373,163.09889,164.52375,166.0925,167.79611,169.45968,171.05263,172.7747,174.36068,175.72864,176.76262,177.61555,178.43182,179.2232,180.2228,181.26855,182.25442,183.30699,184.093,184.63674,184.8242,184.98972,185.3748,185.78465,186.15835,186.39264,186.59038,186.94658,187.09795,186.86817,186.21343,185.513,185.11795,184.82739,184.34728,183.31908,181.85647,180.22807,178.72852,177.15953,175.85639,175.05346,174.73725,174.63918,174.58767,174.0428,173.43157,172.7183,172.49726,172.30967,172.45377,173.03348,173.9204,174.98546,176.04203,177.01888,177.78412,179.31672,180.95679,182.07779,182.5518,182.99591,183.47004,184.13552,185.11421,186.19098,187.03238,187.50684,187.49299,187.36794,187.35799,187.9243,189.34362,191.15963,192.80626,193.93176,194.65663,195.45559,196.14155,196.65091,196.9827,197.31763,197.56278,197.53706,197.4866,197.53112,197.55408,197.31503,196.9616,196.62857,196.44965,196.17613,195.72791,195.15921,194.60435,193.92971,193.38744,192.66408,191.65561,190.56053,189.45163,188.42692,187.50495,186.79409,186.29087,185.58304,184.59719,183.45775,182.1889,181.11722,180.61961,180.60775,180.72894,180.79896,181.16587,181.97336,182.81236,183.32915,183.0099,182.54435,182.1757,182.10118,182.10989,182.44546,183.01077,183.62234,184.29266,184.85369,185.34404,185.9924,186.79125,188.02097,189.0399,188.91933,187.08424,183.90868,180.73923,178.77208,177.53884,176.20769,174.72809,173.99459,174.95822,176.98082,178.87938,180.39393,182.65832,186.40773,191.26723,196.42209,201.60984,207.17193,213.45274,219.63073,224.78993,228.62009,232.2495,236.50624,241.12213,244.63012,246.70042,247.62011,248.44947,249.09582,248.49652,246.31542,243.29599,240.9325,238.18382,233.80491,226.79802,217.46641,206.91546,196.02077,184.12413,170.52697,155.7073,140.9736,126.74957,112.23254,96.252981,79.302358,62.458111,46.210258,30.257388,14.448364,-0.33664122,-12.885244,-23.462846,-33.146765,-43.365279,-53.972154,-64.264379,-73.819081,-83.260762,-93.903703,-106.1189,-119.3771,-133.26342,-148.93361,-167.68698,-189.08233,-212.01584,-236.21958,-262.31605,-291.58645,-323.80847,-357.94292,-393.45244,-430.79158,-470.81669,-513.32291,-557.41485,-602.27831,-648.34183,-696.21268,-745.64059,-795.37811,-844.83144,-894.25678,-944.5991,-996.09494,-1047.2703,-1097.0559,-1145.6407,-1194.2516,-1243.3282,-1291.5196,-1337.7099,-1381.5775,-1424.589,-1466.6485,-1506.8303,-1544.1912,-1579.2047,-1612.875,-1645.7612,-1676.4559,-1704.057,-1729.0549,-1752.6627,-1775.3101,-1796.5344,-1815.1148,-1830.6286,-1842.9263,-1851.9201,-1857.5125,-1859.8585,-1859.385,-1856.0924,-1849.6505,-1839.8166,-1826.4591,-1810.1471,-1791.0292,-1768.9069,-1743.8158,-1715.7848,-1685.4783,-1653.6369,-1620.6081,-1586.3678,-1550.6233,-1513.7176,-1476.0715,-1437.6421,-1398.42,-1358.7318,-1319.0352,-1279.7958,-1240.8918,-1201.8959,-1163.3325,-1125.5864,-1089.2678,-1054.6058,-1021.5125,-990.57805,-962.26959,-936.90362,-913.77333,-891.90457,-871.03574,-851.64465,-834.35451,-819.33013,-805.97739,-793.93679,-783.28966,-773.87698,-764.57849,-754.14568,-742.04692,-728.49944,-714.18826,-699.18998,-683.13839,-666.07879,-648.66054,-631.09467,-612.68083,-592.94454,-572.28703,-551.86008,-531.61853,-510.45773,-488.44761,-466.52928,-445.03367,-423.78127,-401.77297,-378.39585,-354.50886,-330.98882,-308.30061,-285.85041,-262.66894,-239.78378,-217.5718,-195.94293,-173.94771,-151.57801,-129.62512,-108.79695,-89.011055,-69.618603,-49.913237,-30.722905,-12.67003,4.0402221,19.97858,35.195638,49.518603,63.056531,75.288718,86.357964,96.535694,106.20976,115.38019,124.11987,132.92638,141.45404,149.96119,158.56791,166.67737,173.73644,179.51874,183.43686,185.79241,187.34495,189.30487,192.0755,196.34106,202.53402,210.60046,219.09598,227.59423,236.38669,245.19297,253.91872,262.21479,270.15498,277.94127,285.02568,291.11459,296.16038,300.07486,302.87581,304.33123,303.99452,301.5392,297.16106,291.02683,283.20918,273.58298,262.23466,249.39005,235.66234,221.68487,207.29507,192.26194,176.87355,161.60088,146.33175,130.61951,114.35957,97.600865,80.824393,64.341777,47.498942,29.030463,8.904745,-12.768308,-35.877637,-60.347804,-86.53109,-114.43397,-143.86152,-174.46408,-206.00759,-238.29866,-271.37376,-305.15175,-339.26129,-373.7766,-408.24574,-442.33253,-475.77253,-508.28604,-539.51242,-569.58445,-599.14273,-627.96733,-657.36996,-684.61336,-709.71935,-733.53131,-756.66155,-778.10328,-799.26925,-819.80292,-837.02256,-849.10562,-857.21683,-863.04364,-868.12386,-871.31694,-871.74827,-869.77079,-864.34549,-856.88607,-848.01231,-837.19677,-825.32253,-809.64733,-790.49983,-768.0047,-743.88126,-719.17738,-692.81106,-664.1234,-633.03187,-600.53536,-568.98096,-538.32172,-507.24254,-473.81072,-438.83798,-403.62524,-368.9549,-334.10264,-297.9984,-261.88696,-228.09303,-196.69439,-167.47713,-138.89813,-109.23359,-78.448476,-47.747582,-16.887478,14.742043,47.666336,81.396167,114.62174,145.73466,175.37199,203.58543,228.5042,250.61716,271.6306,292.72761,314.68094,335.24076,352.94219,366.83162,377.68358,387.01093,394.44964,398.72122,399.82691,398.32331,394.27698,390.17812,384.96984,378.82,372.97156,368.54089,364.31411,359.38797,354.14383,350.78196,350.17594,350.41422,350.08494,349.06097,348.5248,346.87746,343.858,339.37648,333.43819,327.08651,320.15054,313.2352,306.9927,300.49752,293.58779,286.83168,280.89716,276.04338,272.01137,268.13726,264.57869,262.13104,261.07937,261.13167,261.44633,262.04837,263.31716,265.23775,267.20856,268.48343,269.05825,268.82869,270.17246,271.77939,272.49028,271.17777,268.79074,266.42474,266.37304,268.9703,271.32264,270.22814,266.79204,262.98443,260.37293,257.94979,254.16534,250.64855,246.69329,242.73598,238.33083,233.24761,230.02249,227.2069,224.11329,219.08927,212.72828,207.6056,203.24683,198.23343,190.92164,182.20907,175.24473,170.37074,166.24023,160.19952,152.61338,145.09372,139.50041,134.10852,125.90152,115.6691,106.77765,99.661927,93.207744,85.555729,75.658622,64.952208,55.457548,46.747269,37.210934,26.468648,14.916141,2.4417274,-10.905884,-25.89756,-41.792594,-55.773827,-67.335184,-78.651764,-91.357294,-106.94401,-123.32145,-139.2685,-154.10683,-169.09924,-185.4806,-202.49041,-218.83157,-234.40571,-249.67473,-263.68901,-277.55383,-289.84842,-300.7419,-311.32039,-322.19135,-331.66485,-338.58229,-343.08139,-347.86775,-354.5049,-361.35084,-367.13454,-371.89699,-377.44407,-381.96578,-384.55571,-385.60441,-385.29344,-384.07574,-381.7633,-377.77413,-372.18499,-364.87839,-356.26896,-346.24632,-334.94225,-322.08814,-308.07743,-293.23296,-277.32173,-260.57285,-242.50179,-223.52793,-203.67174,-183.17697,-161.90886,-139.61993,-116.88871,-94.069615,-71.369324,-48.653695,-25.48605,-2.6374587,19.694321,41.569878,63.715332,85.857033,107.59038,128.29348,147.97168,167.1558,185.9375,203.85208,220.28454,234.96943,248.07702,259.86323,269.80241,277.59715,283.51629,288.52195,293.22645,296.81925,299.0877,300.29426,301.35661,302.15223,301.6818,298.58301,294.19694,290.68174,287.45924,282.71534,276.72867,272.01064,269.59739,268.63077,266.71269,264.51069,264.24901,266.3799,268.14763,267.62988,265.80469,265.13247,266.04753,267.8068,268.83806,269.86709,272.68632,276.77809,281.56934,285.60651,289.28097,294.96981,302.70591,311.13947,318.87142,326.68671,335.08841,345.40308,356.20806,366.30229,375.24087,384.60569,395.46501,406.76344,416.91106,426.09069,435.44887,446.23941,457.20496,467.22803,475.77688,484.06827,493.55425,503.57534,512.60985,519.70907,525.85301,532.71481,540.7298,548.00917,553.58309,558.24719,563.9089,570.00731,575.35171,579.01348,582.02514,586.39212,591.29051,594.76507,596.41881,597.86757,600.02634,602.33479,603.89582,604.14094,603.49866,602.88401,603.1531,603.11102,602.08553,599.96704,598.52086,597.90713,596.95387,594.82927,592.00461,590.19535,589.68977,588.83413,587.32971,585.74789,585.27402,585.08598,584.90918,584.4489,583.32083,582.83,582.68639,582.466,582.16077,581.38943,580.42295,579.62152,578.97927,578.64436,578.34355,578.04301,577.70022,577.54709,577.64042,577.24276,575.79592,573.78628,571.19263,568.91067,567.99225,567.83617,566.7935,565.54584,566.09284,568.28814,569.48079,569.01771,568.05081,568.39834,569.07882,567.69534,564.28615,561.04162,559.81949,559.86771,558.79487,556.90475,554.78638,554.00476,553.29732,551.11058,549.04657,547.10921,546.12813,545.28201,543.81547,542.17053,540.16943,538.08387,535.21619,533.07326,531.06304,528.4568,524.94681,521.5948,518.72421,515.98458,512.88462,509.72605,505.88314,502.17919,498.12778,493.83709,489.38549,485.34896,481.04673,475.4716,468.99866,462.6396,457.36343,452.19875,446.2184,438.93707,432.02346,425.97145,420.43825,413.37394,405.39817,398.11519,392.21171,386.17648,378.38735,369.96628,362.81571,357.36041,351.58467,344.39473,337.04605,330.49166,324.93641,319.30991,313.06921,306.57534,300.4427,294.83389,289.47944,283.57191,277.4175,271.63525,266.29755,261.21799,255.92545,250.4219,245.53487,241.37381,236.86619,231.80872,227.04459,222.77793,218.75076,214.89525,210.56245,206.46339,203.02439,199.77613,196.27077,192.76986,189.70274,187.07585,184.5173,181.70723,178.67719,175.91354,173.37786,170.96924,168.47096,165.95531,163.381,161.17224,158.90277,156.57493,154.01788,151.36674,149.08891,146.70258,143.94474,140.72414,137.35378,134.36887,131.48518,128.20423,124.3703,120.45122,116.66143,112.73002,108.18169,103.30861,98.042185,92.959068,87.397086,80.904912,75.700706,70.835719,66.245422,61.315994,56.092804,51.439433,46.899615,42.34128,37.927074,34.740359,31.587643,27.384009,23.598157,21.171383,18.173613,14.034245,10.435747,7.8384408,5.2672636,3.0048538,1.871172,2.3334226,2.1595708,1.3678362,-1.512033,-5.0181096,-8.4123275,-9.1811441,-12.850801,-20.658943,-29.98514,-35.302267,-38.071516,-38.226801,-32.046108,-20.90241,-12.980951,-11.505981,-8.0297462,-4.1971734,2.0654628,10.681463,17.938455,19.552044,15.20284,9.0505073,9.2872707,9.5319614,2.2522975,-8.7619635,-20.052564,-30.913512,-41.720418,-50.356392,-56.508489,-66.540703,-71.001515,-75.743235,-81.381896,-106.67996,-150.02978,-152.73142,-112.85548,-103.42947,-114.16909,-123.70178,-128.30081,-130.5665,-132.87873,-135.36694,-137.77821,-145.72518,-175.5501,-202.24874,-236.76955,-250.88156,-240.0395,-223.77045,-217.44208,-219.63084,-253.54497,-306.75568,-348.4418,-349.53149,-324.52467,-347.82772,-392.24001,-403.44097,-403.27456,-410.61411,-424.79577,-442.33153,-461.79356,-482.18247,-493.81187,-503.51593,-513.65884,-525.29964,-536.98125,-546.35179,-555.69131,-560.70187,-558.82317,-556.78543,-563.14659,-583.64693,-596.67082,-603.38503,-620.15976,-643.20271,-641.86546,-638.6002,-642.64522,-657.927,-691.80139,-714.26614,-748.15302,-779.63283,-810.31639,-839.96719,-874.7432,-914.73291,-946.97712,-974.32189,-1007.3217,-1033.7225,-1051.5357,-1062.4607,-1055.6405,-1045.6662,-1039.5688,-1038.101,-1043.5968,-1040.0132,-1029.4659,-1018.2431,-1010.3852,-1006.7311,-990.37074,-961.64011,-923.42095,-873.2923,-827.95899,-757.90986,-708.7959,-674.81582,-645.21192,-628.25383,-631.70368,-623.44475,-625.89894,-633.2325,-642.27395,-655.68381,-660.22279,-666.92338,-667.59075,-673.1464,-694.59493,-709.82585,-732.22791,-745.98691,-781.43384,-826.03442,-882.52428,-929.14252,-951.83211,-951.35072,-964.77733,-958.90262,-942.16097,-878.14866,-771.5385,-749.35589,-761.26269,-738.95777,-675.31908,-599.99967,-541.63147,-501.90515,-531.16529,-641.436,-706.284,-736.78429,-746.0092,-795.49757,-853.74156,-918.98041,-1023.4212,-1112.2634,-1194.8541,-1248.6452,-1251.6517,-1199.177,-1133.2386,-1123.3196,-1134.8316,-1170.4841,-1222.2498,-1254.3881,-1268.0801,-1293.5714,-1320.8887,-1340.3481,-1345.7146,-1346.6329,-1342.6424,-1334.1546,-1315.4162,-1292.3469,-1268.7444,-1243.3631,-1220.3232,-1226.6954,-1222.1843,-1158.9854,-1048.3778,-995.86338,-987.90497,-933.60681,-806.17282,-719.84103,-716.15002,-724.34405,-710.85441,-639.25487,-543.79406,-455.31269,-390.5164,-344.79451,-287.55614,-249.26834,-203.7005,-154.40621,-103.69572,-38.211778,35.93898,112.33536,184.46118,244.44046,299.94513,341.94777,383.20706,456.64512,521.81986,577.36524,646.39599,726.98698,816.49012,900.87316,970.06352,1026.6926,1069.8341,1116.1079,1140.0943,1184.9449,1210.1014,1207.2902,1207.0488,1209.4614,1133.1627,1024.7886,951.36948,902.15361,853.75847,794.84987,741.59218,668.6175,574.85378,475.51184,365.99958,265.19268,156.54468,68.948838,-5.0241685,-49.226956,-74.082353,-92.285288,-121.12393,-122.5515,-123.05339,-91.383983,-53.72468,-83.518947,-91.928729,-42.989366,-0.27620344,-3.2667878,-46.173395,-110.16224,-196.62741,-248.03916,-222.23161,-229.12011,-246.44078,-289.1584,-273.52582,-243.69289,-217.58198,-149.01996,-72.226398,14.859263,125.34859,239.37797,312.95335,318.66778,303.46177,320.77549,393.22365,471.87072,524.84518,555.52821,595.46907,644.90621,697.80449,745.8183,784.83037,816.33855,843.31886,862.86767,879.32397,893.54689,908.1538,926.94426,981.21952,1040.9044,1054.5409,1019.8539,1027.5496,1084.3746,1121.5002,1085.1725,1041.7581,1066.9087,1117.6321,1167.8256,1183.0457,1150.8296,1117.9159,1095.4846,1084.7686,1053.1284,1041.7423,1035.8919,1028.1643,1021.6084,1013.1509,998.66286,982.3,969.5357,951.3588,930.38314,927.29091,939.75289,936.08466,939.33608,951.7861,956.40016,960.57418,968.6303,972.66577,983.77752,1002.986,1028.8347,1054.9421,1064.9984,1043.306,1017.1444,982.4764,922.35546,854.69041,838.39295,874.19298,894.49564,892.57919,888.15091,879.34381,857.07258,835.31467,817.38853,807.52619,799.85131,787.39266,768.49358,749.32471,737.17251,728.39333,714.73472,698.84946,681.99838,669.37197,653.79296,635.57083,618.33353,599.89514,581.5334,559.95616,537.86047,516.66612,495.28992,473.46297,449.30884,424.97173,401.75259,379.65148,358.80409,338.25698,317.49551,297.05666,276.59475,257.06696,236.30831,217.61045,199.12123,180.69659,161.40681,142.00364,122.22659,103.20578,84.61455,66.885618,48.437947,30.585727,15.118799,-1.2561562,-18.745853,-35.635227,-52.140459,-68.066543,-82.275425,-94.993198,-106.7546,-117.51138,-127.2109,-135.46227,-143.04722,-148.62089,-155.51342,-162.90485,-172.39264,-181.89423,-193.97986,-206.02741,-219.23113,-234.60898,-249.32437,-262.07496,-272.35476,-279.97645,-287.00811,-294.66307,-303.22591,-310.48846,-317.44034,-323.04708,-327.1859,-331.22444,-335.38032,-338.31298,-341.39239,-343.85734,-345.1358,-347.3573,-349.35629,-349.86871,-349.57617,-350.61289,-351.90725,-351.50881,-352.40715,-353.91596,-356.06919,-357.36176,-358.27991,-358.99237,-360.20543,-362.61502,-365.88448,-368.44317,-369.8015,-371.88682,-375.20982,-378.94678,-381.99357,-384.37972,-388.03623,-392.37791,-397.6331,-401.25767,-403.90043,-407.34938,-411.82138,-416.87594,-420.19206,-421.72138,-425.56119,-430.83192,-435.99479,-439.89852,-443.6048,-445.00824,-448.74231,-453.71442,-457.72924,-460.04274,-462.4625,-466.39315,-470.11123,-472.16041,-473.4444,-474.33938,-476.03703,-477.37446,-478.30526,-477.49594,-476.78686,-477.00603,-477.09969,-476.08175,-473.97118,-470.17195,-466.11987,-465.12,-463.22819,-457.98265,-452.19008,-448.12593,-444.89146,-440.33968,-434.04345,-427.16588,-420.96535,-414.25972,-406.30777,-397.03186,-389.82495,-381.69593,-373.65297,-366.02121,-357.05968,-347.86002,-339.60707,-336.20632,-329.38186,-321.58569,-312.38351,-302.83326,-294.91877,-287.156,-278.10509,-269.334,-262.18514,-253.79758,-244.89306,-235.18306,-225.20121,-215.52665,-205.95927,-196.75161,-186.36885,-174.96783,-165.78397,-157.19594,-147.3768,-135.82549,-123.5095,-110.42496,-99.092804,-88.282619,-76.799696,-63.017502,-50.201598,-40.689164,-32.193911,-20.497895,-9.3681612,-1.0806658,7.3763752,16.090486,24.733521,32.398938,39.730722,46.731089,52.020842,57.758945,63.863928,68.924809,72.788293,77.185502,81.40017,85.232959,88.579915,91.265853,94.163881,96.808963,99.667949,102.73002,105.28465,108.64681,112.13204,114.86793,117.54371,119.42077,121.95825,123.79965,124.22076,125.72623,127.89127,129.4275,129.84011,131.68369,131.60351,132.13659,133.04777,133.64796,134.87259,134.63708,134.68871,134.78826,134.82342,135.1763,135.07427,134.96783,135.06137,134.91084,134.96807,135.29655,136.55134,137.30036,138.36923,140.02147,140.28787,139.71305,141.50217,143.81383,145.13834,146.62942,149.21208,151.11527,153.74231,157.05558,159.79699,163.54084,166.79242,168.7813,169.98237,173.51466,175.54842,176.30747,177.18967,177.84427,178.53231,177.27515,179.83882,179.80453,180.59458,179.96768,177.50934,176.4213,175.28767,173.84958,172.86545,172.80201,172.15466,170.41884,169.75497,169.72967,169.8165,169.20947,169.81318,170.27208,170.9393,172.60637,174.54743,176.31015,178.42403,180.91169,182.00275,183.19309,185.33137,187.71797,188.25247,187.98506,188.86274,191.69347,193.03216,192.60547,193.19517,193.73216,193.9609,193.0783,191.32912,191.25558,191.01805,190.76701,188.92448,187.97983,186.44621,184.58507,183.02511,182.42696,180.69447,177.9918,174.8983,172.48747,171.73539,169.72025,166.11434,162.59483,160.78494,159.62353,157.6352,153.6203,150.35185,148.89618,149.08742,148.61491,146.57973,144.3081,144.59128,146.46926,147.26895,146.98255,146.12984,146.88825,149.82285,150.69172,150.2947,149.8206,151.05513,153.34078,154.87605,154.56571,154.04322,154.65385,157.07713,158.06477,157.2687,155.24458,154.79805,155.70449,155.47905,153.37773,150.16552,148.39065,148.0476,146.35749,142.37065,137.24247,133.50407,130.68013,127.10252,122.06109,115.75269,109.85812,105.84399,101.22688,94.288993,86.176249,79.138852,74.522086,69.049996,60.540489,51.58009,43.489286,37.053444,30.023271,21.78768,13.733033,5.1199773,-2.192403,-9.3419509,-17.279075,-25.763199,-34.516325,-40.789917,-46.896113,-54.541322,-63.007738,-70.723458,-76.925968,-81.791929,-87.967034,-96.072913,-102.75445,-107.4907,-111.07471,-115.86136,-121.87598,-126.6993,-129.32553,-131.07819,-133.62052,-137.27982,-140.36043,-141.37332,-141.40897,-141.76313,-143.39337,-145.27031,-145.17232,-143.38485,-141.03498,-142.00742,-142.65461,-141.70389,-138.11027,-137.38684,-137.64657,-137.75192,-136.69848,-135.93978,-136.04543,-137.70577,-138.62798,-138.72294,-139.33987,-140.71602,-142.20927,-143.49623,-144.44362,-145.84096,-147.34409,-148.84325,-150.073,-151.26909,-152.35988,-153.81872,-155.2112,-156.16644,-157.56949,-158.73877,-159.96536,-161.4801,-162.70264,-163.74865,-165.25636,-166.4987,-167.59216,-168.58236,-169.63652,-170.42486,-171.37695,-172.31547,-173.04739,-173.55636,-173.80865,-174.124,-173.8526,-173.72296,-173.19994,-172.66007,-171.95463,-171.38749,-170.22962,-168.94474,-167.39299,-166.21296,-165.07335,-163.16627,-160.85825,-158.99156,-157.00449,-154.31417,-151.54244,-148.82883,-146.01773,-143.27907,-140.59527,-137.33002,-133.60413,-130.33017,-126.70352,-123.06295,-119.19442,-115.07025,-111.1441,-106.95938,-103.20974,-99.425195,-95.341743,-90.908835,-86.789685,-82.879233,-79.400954,-74.993575,-70.88027,-66.907901,-63.207593,-59.539653,-55.37227,-51.370769,-47.736128,-44.684911,-40.780886,-37.346754,-33.856666,-30.473584,-27.355803,-24.308376,-20.911796,-17.411748,-14.312334,-11.424329,-8.6097889,-5.3634369,-2.5162165,0.10723735,2.4778377,5.0341556,7.6432767,10.214724,12.662831,14.660264,17.080816,19.193167,21.167047,23.456277,25.291199,26.453347,28.135749,29.662764,30.726274,32.002619,33.125402,33.886136,35.022689,35.879049,36.665271,37.357307,38.258495,39.245334,40.19647,40.564701,41.076995,41.857272,42.721884,43.543381,44.21446,44.6437,45.539809,46.577569,47.960244,48.87314,49.767182,50.713774,52.256265,53.644399,54.721798,56.037965,57.377365,59.155927,60.947503,62.435934,64.45785,66.364144,68.479277,70.573429,73.010696,74.952185,77.091349,79.433349,81.973037,83.903559,86.244576,88.494768,91.287437,93.543403,96.049929,98.83661,101.51894,104.15989,105.90729,107.90849,111.10799,113.68024,116.63248,119.52429,121.63026,123.93462,125.92278,128.32781,130.75454,133.1134,135.60058,138.19008,141.54529,145.94712,148.9015,151.95749,155.16727,158.36443,161.25678,164.01809,166.55768,169.19728,171.40956,173.81314,175.90969,177.82976,179.60706,181.23352,183.22792,184.9622,186.77679,187.93654,189.35038,191.11469,192.28354,193.45129,194.75938,196.1983,197.53285,198.76092,199.78362,200.85066,202.03495,203.64,205.13171,206.40509,207.81215,209.52218,211.28743,213.31379,215.37574,216.57746,218.48447,221.24666,223.82708,226.45423,229.16734,232.82103,235.64763,238.1413,241.40835,243.95867,244.08791,240.75335,234.809,225.18575,213.25367,201.0537,188.74855,176.60515,165.27687,156.20359,150.31122,148.1559,149.62357,155.80643,167.53134,184.81433,208.22409,234.2754,261.69816,289.53174,317.61769,345.42041,372.22609,397.7733,421.37608,443.40549,462.69537,479.12146,492.49782,501.9056,507.79705,510.4783,509.19433,503.04579,493.2021,479.84491,463.01737,442.26652,418.69238,390.85173,360.25363,326.87459,290.47359,251.21315,209.21194,164.29619,117.31825,69.736413,20.035036,-32.888462,-87.313417,-143.22422,-199.95041,-257.11614,-315.11602,-373.18103,-431.05432,-488.28316,-545.23147,-601.15182,-656.52869,-710.6746,-764.59877,-815.87056,-865.87185,-913.97639,-959.69696,-1003.1251,-1043.6521,-1081.8634,-1117.1018,-1148.9824,-1177.5969,-1203.3622,-1225.3822,-1243.9537,-1258.2221,-1269.2424,-1276.1461,-1279.7581,-1279.175,-1274.0377,-1265.5066,-1252.7015,-1235.5194,-1215.0182,-1191.052,-1162.5297,-1130.6445,-1095.5528,-1056.9813,-1015.3332,-970.68449,-923.56511,-873.82843,-821.94227,-767.90322,-712.34452,-655.25381,-597.53509,-539.0978,-480.18549,-422.47411,-366.35559,-312.56264,-261.54067,-214.7074,-171.81732,-133.68438,-103.36911,-80.601112,-62.842502,-48.970663,-39.44307,-31.884103,-25.775088,-21.073182,-16.947451,-12.026732,-5.7364975,2.1043808,12.366592,25.060683,40.075076,56.955647,74.526742,92.137362,107.21935,121.35678,134.69734,148.23386,161.22273,173.86504,186.33306,198.15864,208.96908,218.94567,229.36558,238.38337,246.30652,253.95707,261.27176,267.79475,274.20921,280.17244,285.91008,291.95488,297.4841,303.25673,308.39556,313.55364,318.80935,323.52495,328.49074,333.11067,337.00723,341.00205,344.90228,348.23139,351.52308,354.02473,356.19626,358.85799,360.78169,362.09294,363.28314,364.22586,365.05996,365.73878,365.94258,365.51058,365.33361,364.85661,364.46873,363.40876,362.06859,360.33808,358.78465,357.25489,355.31646,352.80586,350.24606,347.49232,344.77311,342.42986,339.17071,336.17885,332.9221,330.05973,326.78672,323.5292,320.39891,316.728,314.18043,311.00983,306.89715,303.05155,299.73487,295.87688,292.10533,287.8166,283.40863,278.71982,274.78339,270.57069,266.20516,261.38574,257.25382,255.30689,251.1126,246.75675,242.43034,237.73243,233.33704,228.50478,223.67907,218.35562,212.6746,207.79458,202.3351,196.75206,191.15146,185.54809,180.03593,174.60809,169.17852,163.50913,158.3014,153.53692,148.51724,144.14338,139.38538,134.61644,130.63822,126.67038,122.81791,118.8698,114.89634,111.80859,108.56646,105.59239,102.28771,99.559826,96.728407,94.602163,92.260134,90.263442,88.360375,86.789626,86.535203,88.017612,87.518888,86.172066,88.288651,88.483877,90.047372,90.87087,90.611671,90.518125,90.249025,88.908176,87.929236,86.752804,86.124336,85.520122,84.772153,83.962814,82.949385,81.953798,81.655588,80.9855,79.62841,78.633648,77.400619,75.846619,74.860187,72.626945,70.393763,68.162121,65.544636,63.0416,59.836617,56.197321,52.657249,48.869439,44.866911,39.962938,35.060237,29.968801,25.034735,19.404372,13.291653,7.0229752,0.35429694,-5.9385467,-12.950398,-19.855142,-27.532071,-34.635353,-41.920676,-49.09685,-56.118407,-63.923633,-70.95235,-78.231964,-84.857288,-92.071316,-98.696352,-105.0223,-111.06028,-116.51114,-121.89626,-127.25227,-131.22762,-134.91322,-138.31772,-140.98188,-143.06977,-145.13632,-148.48479,-150.22061,-152.20395,-154.23864,-155.80837,-156.9756,-157.77027,-159.03779,-159.60116,-160.07188,-160.49235,-160.16399,-160.3106,-160.56308,-160.16916,-159.84963,-158.98119,-158.52413,-157.84762,-157.28401,-156.48271,-155.21,-154.72913,-153.78584,-152.98247,-152.19476,-150.89247,-149.93543,-149.27987,-148.49769,-147.4718,-146.23666,-145.14889,-144.29718,-143.51666,-141.53279,-139.71394,-137.53719,-135.34059,-132.12936,-128.75501,-125.33617,-124.15621,-121.81643,-117.94449,-117.15141,-114.4248,-113.90033,-113.75067,-113.27317,-112.79089,-111.88489,-110.55888,-109.78426,-108.97551,-107.56375,-105.81008,-104.30051,-102.75214,-101.35386,-99.250071,-97.163872,-95.416153,-93.761626,-91.928951,-90.033606,-87.855527,-86.094277,-84.17116,-82.332114,-80.369692,-78.056453,-75.988052,-74.090217,-72.404952,-70.331366,-68.092841,-66.389582,-64.401344,-62.842522,-61.086092,-59.510402,-57.882863,-56.631733,-56.311106,-54.979289,-53.869518,-53.114595,-53.038536,-52.833577,-53.203228,-53.066862,-53.236537,-54.308503,-55.216754,-55.87303,-56.679864,-57.417473,-58.650204,-60.049342,-61.439713,-61.931304,-62.942752,-63.824702,-64.873478,-65.360853,-65.932476,-65.326012,-65.354154,-65.308722,-64.557347,-63.467724,-61.846337,-60.625322,-59.113318,-57.312307,-54.758549,-52.334095,-49.891376,-48.016042,-45.57571,-42.398082,-39.698122,-36.887128,-33.695087,-31.223235,-27.599908,-24.197001,-21.203946,-18.166766,-15.158973,-11.718787,-8.5156154,-5.2486787,-2.3320085,0.48677621,3.7345556,7.045551,9.8738918,12.246318,14.875067,17.515515,20.128997,22.531668,24.432484,26.421506,28.431163,30.45011,32.047988,33.355379,34.358237,35.429573,36.594174,37.517373,38.00454,38.19675,38.854917,38.788357,38.842907,38.591649,37.931781,37.946968,37.85158,37.821079,37.484451,37.392403,37.36721,37.742337,37.903492,37.603626,37.653547,37.882818,38.280677,38.900726,39.2802,39.833618,40.875388,42.39376,44.130833,45.676571,47.517439,49.810231,52.849752,56.069059,58.842735,62.473594,65.933518,70.304065,74.832207,79.165242,83.521332,88.172889,93.547232,98.330359,103.13445,108.02917,112.51403,117.06682,121.58106,125.85224,129.53353,133.15498,136.86276,140.41559,143.4306,145.64997,147.87662,150.01933,151.75531,153.35995,153.8644,154.19458,154.37874,154.51977,153.6828,153.05435,152.15575,151.72363,151.39313,150.68831,149.88,149.66227,150.69718,153.0089,152.63681,153.88999,154.85916,154.86349,155.46479,153.97362,150.97415,147.85481,143.66768,139.46702,135.14417,129.76286,125.96805,121.38727,117.04293,112.88403,108.69537,104.76621,101.43807,98.779763,95.564963,92.296376,89.614364,87.100992,84.572292,82.032896,79.850564,77.014388,74.788142,72.603877,69.984392,67.016541,64.479005,61.816042,59.629755,56.886574,53.998742,51.266712,48.367305,45.626509,42.589288,39.23795,35.601626,31.982303,28.794945,25.455008,21.629169,17.552559,14.020688,10.096316,6.247451,2.2098059,-2.3572445,-6.2693758,-10.231796,-14.333377,-18.674119,-23.208861,-27.900307,-31.71495,-35.846672,-40.188054,-44.93838,-49.455608,-53.425027,-57.725222,-61.992507,-66.246747,-70.623832,-74.28876,-78.334387,-81.885933,-86.04903,-89.170993,-92.653384,-95.298415,-98.44288,-101.57179,-104.24163,-106.75907,-108.71125,-111.52298,-114.09796,-116.21286,-117.99229,-119.63589,-121.86767,-124.05957,-125.753,-127.20318,-128.87132,-130.77357,-132.52124,-134.61395,-135.9894,-137.78554,-139.5295,-141.447,-142.55572,-143.1357,-143.67807,-143.13337,-142.63325,-141.45785,-138.9664,-136.54922,-132.94986,-129.1383,-124.7762,-120.72334,-118.63956,-114.35238,-112.43194,-110.94199,-109.3792,-109.53819,-109.36442,-108.98357,-109.01419,-107.78348,-105.93239,-105.08544,-103.53341,-102.80495,-101.04996,-98.594589,-96.18791,-94.34062,-92.016342,-89.126132,-86.603266,-83.92953,-81.172324,-78.84864,-75.778277,-72.765928,-69.706192,-67.544163,-64.614265,-61.835004,-58.609273,-55.229999,-52.211268,-49.429029,-46.120723,-42.697865,-39.34541,-36.456695,-33.564511,-30.225574,-26.894366,-23.567724,-20.692528,-17.67364,-14.496629,-11.185021,-7.9750059,-5.2688344,-2.4325217,0.53755781,3.6193403,6.848766,9.4724625,12.573097,15.304811,18.516681,21.070218,23.633151,25.775137,28.657015,31.245049,33.481951,35.426879,37.229345,39.051579,41.347976,43.34027,44.596305,45.769542,47.614031,49.134533,50.986528,52.099075,53.283491,54.614187,56.083497,57.251881,57.847537,58.667563,59.245406,60.21954,60.592352,61.061762,61.036753,61.157825,61.430398,61.353026,61.139392,60.535212,59.923394,59.565507,58.79169,57.850563,56.636145,55.522171,54.814005,53.654104,52.312846,50.612097,49.118711,47.629811,46.651823,44.70223,42.50665,40.805361,39.105529,37.908829,35.739418,33.972482,31.986289,30.335792,28.942029,27.480729,25.734052,23.929176,22.462042,21.496422,19.98142,18.318153,17.171903,15.912905,14.887439,14.203641,12.801749,12.40177,11.966468,11.392673,10.951631,10.320005,10.020298,9.3504467,9.4838968,9.7391421,8.7254957,8.7039378,8.2563654,8.6675565,8.4898002,8.3339842,7.9365025,8.3233947,8.5998391,8.5238774,8.5124524,8.7325631,9.1345027,9.398444,9.8596392,10.321236,10.243771,10.70452,11.466006,11.930207,12.155619,12.419171,12.62695,13.579068,13.884202,14.042581,14.524935,14.411828,15.710075,15.795866,15.961727,15.711405,16.062288,15.791226,16.024813,14.697006,13.170389,11.545929,10.35382,9.6308527,8.6387439,8.5617094,9.9560742,12.460753,16.046171,18.70848,21.024374,24.500961,25.382767,27.132439,25.9975,23.567106,20.47176,17.780473,14.077579,10.911463,6.5523508,2.640116,-0.51411832,-3.6355758,-7.5735969,-11.106917,-14.852458,-17.960057,-21.373674,-24.862125,-28.539041,-31.965996,-35.042669,-38.116161,-40.924132,-43.986174,-47.146222,-49.774101,-51.871458,-54.65506,-56.974592,-59.190817,-61.280465,-62.913198,-64.573767,-66.008663,-67.229388,-68.374044,-68.729752,-69.595491,-70.528401,-70.899153,-70.893635,-70.783747,-70.413867,-70.216219,-69.711636,-68.565047,-67.289832,-65.92199,-64.512668,-62.843087,-60.386145,-58.30197,-56.038273,-53.152413,-51.105164,-48.295167,-44.886097,-41.908513,-38.674527,-35.746358,-32.142187,-28.278503,-24.79784,-21.16884,-17.869705,-14.082448,-10.175611,-6.5379274,-2.8280613,0.72977272,4.1535555,8.0033018,11.776848,15.101982,17.906136,21.298148,24.597587,27.567002,30.254624,32.660238,35.309059,37.90729,39.91417,41.729772,43.181352,44.66754,45.926624,47.210909,47.772371,47.873809,48.003696,47.976364,47.395369,46.671514,45.651642,44.211953,43.181113,42.190033,41.577806,41.614259,43.510899,45.7548,49.025768,52.966687,57.058748,60.981724,64.302417,66.339851,67.905361,68.481239,66.907347,66.831727,64.297115,62.463796,60.998769,59.923132,58.672546,58.357139,56.57274,55.604175,54.774228,53.360599,52.190136,51.074961,49.111257,47.489171,45.82635,44.700282,42.668092,40.891692,39.391481,37.280755,36.267025,34.221227,31.81725,30.255926,28.358575,26.496756,24.968039,22.691279,20.994556,19.648984,18.160359,17.162253,15.333436,13.538603,12.329933,10.986882,9.8856842,8.320057,6.4318073,5.2551551,4.4087965,3.0315899,1.6801623,0.23940855,-0.96483701,-1.7125594,-2.7529843,-4.2783194,-5.2957222,-6.7565224,-7.4285978,-8.4013184,-9.6669691,-10.76032,-11.601914,-12.139019,-12.753575,-13.710904,-14.470444,-15.044335,-15.469877,-15.978389,-16.767388,-17.339335,-17.746201,-17.942113,-18.010241,-18.739123,-19.384172,-19.416117,-19.585814,-19.411134,-19.600778,-19.688294,-19.813433,-19.164808,-18.731317,-18.961112,-18.833781,-18.584123,-18.333989,-17.648877,-17.550902,-17.628911,-17.312684,-16.712756,-16.673986,-16.234975,-16.875306,-16.19293,-16.256759,-15.567883,-15.51791,-15.803672,-15.57225,-15.017183,-14.802509,-14.389087,-14.346216,-14.546418,-13.892406,-13.871931,-13.668205,-14.104568,-13.989384,-13.604465,-13.569347,-13.428555,-13.927067,-13.951008,-13.956074,-13.819146,-13.554325,-14.078487,-14.143394,-13.79045,-14.157195,-14.104955,-14.506599,-15.044321,-14.876168,-15.082602,-15.82903,-16.146328,-16.9922,-17.101191,-17.605146,-18.134509,-18.89319,-20.288005,-20.097301,-21.050682,-21.902234,-22.764992,-23.693378,-24.504457,-24.344385,-25.278566,-25.575369,-26.392231,-26.58666,-26.421165,-27.236651,-27.457851,-27.737533,-27.396319,-27.536496,-27.395696,-27.64195,-27.275837,-26.856456,-26.510811,-25.892066,-25.796345,-25.568951,-24.680577,-23.940984,-23.486193,-22.432929,-22.172947,-21.03344,-19.7197,-18.711267,-17.803837,-16.963694,-15.885226,-14.404486,-12.903249,-12.063769,-11.15954,-9.7797667,-8.4687712,-7.5038164,-6.7183048,-6.0074155,-4.7489982,-3.0771001,-1.4657958,-0.0019265707,2.2159437,4.6235943,8.3398507,11.738891,13.205965,17.387849,20.102898,22.676055,25.607156,27.760602,29.831929,32.15644,34.722134,37.127215,39.475681,41.262872,44.200988,46.843386,50.222568,52.713386,55.891136,58.688939,62.101451,65.922299,68.337839,70.827315,73.335696,75.912518,77.840467,79.231369,79.817907,80.970028,81.012661,81.058753,80.622954,79.655,78.40644,77.169542,75.287685,73.078458,70.993619,68.208317,65.928828,63.117428,59.604953,56.168127,52.32196,48.523639,44.890063,41.069248,36.517407,32.133151,28.160121,23.859479,19.716123,14.897294,10.713242,6.4288347,2.158997,-2.0135597,-6.7096377,-10.397666,-14.892075,-18.167386,-22.162784,-25.816228,-29.486925,-32.158372,-35.247304,-37.838985,-40.993969,-43.196806,-45.099619,-46.604719,-47.790053,-48.948802,-49.982722,-50.162822,-50.04361,-49.944636,-49.686509,-49.303046,-48.102751,-46.828752,-45.246991,-43.947991,-41.995158,-39.959475,-37.429212,-34.545741,-32.243773,-29.653281,-26.632421,-23.954013,-20.77674,-18.076269,-15.895375,-13.009908,-10.199173,-8.0690104,-6.3428013,-4.6699973,-2.8465141,-1.1377266,0.55242076,2.1152491,3.5073832,5.266358,6.5346421,8.2752707,9.6627637,10.508011,11.424894,11.471593,10.66199,11.384469,9.2141926,8.1626459,6.9849896,5.6385332,4.358289,2.5995714,1.4615155,0.042851716,-0.65737696,-1.8932309,-2.7067498,-3.247527,-3.694692,-4.2410589,-4.1859126,-4.8048899,-5.1805864,-5.0779908,-5.9992465,-6.2356186,-6.7069149,-7.3419804,-8.2770936,-8.5550707,-9.6275525,-10.379947,-11.854948,-12.413353,-13.246601,-14.750976,-15.903816,-17.400498,-18.843586,-20.42365,-22.102842,-24.659294,-26.447888,-28.928185,-30.752478,-33.045828,-35.385919,-37.866158,-39.920645,-41.660495,-44.346794,-46.622696,-48.456741,-51.048955,-52.628114,-55.147746,-58.406779,-60.479014,-62.385653,-64.11507,-66.605233,-69.53986,-70.872807,-72.763113,-75.465598,-76.480329,-78.133774,-78.046499,-78.905544,-80.410056,-81.36947,-82.462564,-82.499766,-81.518527,-80.432455,-81.526409,-80.540168,-78.355273,-77.270755,-74.606101,-74.088791,-70.179717,-64.218479,-56.92667,-47.347106,-40.469316,-33.690751,-22.318669,-11.245375,-0.51166866,6.9745782,15.997533,26.690685,38.03011,47.548919,55.79911,63.2238,72.622257,82.832072,90.413013,96.264855,102.95836,111.36148,119.25086,125.83745,130.78911,134.86116,139.55743,143.9227,147.26219,148.21291,149.61211,151.70071,153.88143,156.50837,157.01395,156.42355,157.16383,157.40597,157.8851,155.34695,151.62151,149.66048,147.16418,143.43826,137.74132,130.742,125.6012,120.02374,113.77349,106.5582,97.920152,89.911522,83.219313,76.072397,67.148414,57.729006,48.851,41.773857,34.267826,25.422656,16.024248,7.5510223,-0.050153214,-6.946387,-16.003596,-25.739917,-33.78591,-40.489822,-46.677582,-53.44936,-61.617116,-67.22217,-71.098769,-74.359664,-78.919111,-83.116359,-85.669733,-86.293617,-86.236204,-87.322684,-88.651491,-89.275591,-89.104949,-87.539673,-88.243269,-89.002392,-88.33453,-86.729587,-85.338589,-85.09191,-84.465691,-83.602222,-81.924018,-78.84077,-75.012238,-74.485948,-72.711012,-72.999801,-71.25411,-70.356813,-71.756733,-71.686773,-73.304441,-75.399014,-78.250659,-79.649662,-85.147205,-88.524393,-89.877746,-89.437642,-88.862794,-87.330227,-87.292861,-86.883587,-88.446349,-86.813016,-83.516388,-84.376499,-84.741238,-84.958398,-80.50597,-78.200325,-76.993385,-77.297826,-75.499274,-72.892065,-69.471083,-67.741808,-67.183165,-65.034892,-60.535672,-57.041005,-55.501972,-54.707486,-53.209508,-50.143608,-47.419271,-45.779603,-44.055145,-41.417336,-36.663336,-31.937264,-27.809965,-24.331926,-21.298092,-16.483357,-11.407103,-7.9921721,-5.2205885,-2.743374,1.1359795,5.9567214,8.279193,9.6140845,12.475205,15.490904,20.078097,22.228349,23.583841,25.380262,28.11852,30.781861,33.280122,33.665721,34.159815,35.911992,37.895757,39.420275,38.395299,37.728281,37.695098,37.900268,37.574536,35.522349,32.473569,31.852647,31.730128,29.174071,27.787538,24.922802,23.261744,23.742064,22.740433,19.979252,17.784795,17.107904,16.669369,15.242194,12.697487,10.675979,8.3606041,7.3680631,3.9823964,2.9562381,0.4670202,-0.20441717,-0.54452187,-1.0172736,-0.36963128,-0.43591801,0.96866901,3.2964337,6.8614845,8.8308294,10.494673,11.965253,15.733935,17.901676,20.345928,20.772883,22.030289,24.698797,25.516451,26.231959,26.630778,26.450259,27.270669,30.488798,31.661098,32.792141,31.687485,34.383114,34.401831,35.904903,36.139553,38.055022,39.29067,40.808862,42.055746,43.978433,45.810908,46.804164,48.53895,49.399285,51.186207,52.567943,54.188188,55.388945,56.969834,58.103603,59.719416,61.019786,62.534586,63.677674,65.008025,66.707613,67.698671,69.110659,70.280043,71.261488,72.545384,73.486349,74.687558,74.901451,75.548313,76.061196,76.063627,76.533528,76.144152,76.137646,75.762716,75.542654,75.152497,74.492225,73.709994,72.739078,72.235374,70.84192,69.715221,68.284184,66.727863,63.587535,65.041413,61.247941,60.209265,58.128878,56.670894,54.33183,52.225764,49.504413,47.382482,45.203141,43.005165,40.478598,37.984414,36.054455,33.793238,31.672783,30.822938,27.80954,25.899157,24.00432,21.562222,19.625051,16.978678,15.163685,12.848413,11.104486,9.4685301,7.7509094,5.1158616,3.6861032,1.8181492,2.8817875,0.76306847,-0.57545063,-1.6996881,-1.502814,-1.1472599,-2.6288295,-3.8214767,-3.7005912,-4.5229647,-4.7815916,-5.5384925,-6.2209215,-6.4050835,-7.2080704,-7.1738277,-8.012631,-8.3023216,-8.7720589,-9.0185274,-9.1502808,-10.044857,-10.522842,-10.832134,-11.403531,-12.056378,-12.754494,-13.88792,-14.473851,-15.573469,-16.135424,-18.066182,-19.146642,-20.712793,-22.006805,-23.492819,-25.422391,-27.196964,-28.711546,-30.734081,-33.015604,-34.582711,-37.310732,-38.985533,-41.624268,-43.23615,-45.910265,-48.213291,-50.287623,-52.230864,-54.332413,-56.430734,-58.728528,-60.383579,-62.146899,-63.96598,-66.203715,-67.779843,-69.840022,-71.067374,-73.202103,-74.539913,-76.323671,-77.595509,-78.907717,-80.160294,-81.342858,-82.568999,-83.424602,-83.980005,-84.556076,-85.537544,-85.830902,-86.187839,-86.593794,-86.672992,-87.325692,-87.298584,-87.054672,-84.525334,-86.848118,-84.906886,-84.486818,-83.751297,-82.725319,-81.303834,-80.410466,-78.670415,-77.153192,-75.227103,-72.993415,-71.057231,-68.589248,-68.302722,-65.56211,-64.100423,-62.04687,-60.494619,-58.769618,-56.941251,-54.525182,-53.072633,-49.455612,-47.42164,-43.574445,-40.18159,-36.504805,-31.88174,-29.022892,-24.508041,-20.578386,-17.178759,-13.774778,-10.362155,-7.0413558,-4.0253484,-0.73898813,1.9221638,5.0952628,7.5548016,10.34834,12.925222,15.27215,17.994148,19.762702,22.587378,24.366384,26.380039,28.333044,30.264224,31.968684,33.242238,35.300674,36.242948,38.102795,39.017207,40.363882,40.930835,41.959718,42.749794,43.411816,43.619452,44.297404,44.518331,44.86711,45.117974,44.819333,44.664445,44.31482,43.701291,43.289641,42.832867,41.461113,41.014032,39.910544,39.571938,38.244503,37.418843,36.386489,35.352544,34.236931,33.383181,31.974111,31.193674,30.194766,28.787541,27.842707,27.149512,25.917054,25.280789,24.62543,24.354617,23.298533,23.178681,22.358234,22.443469,21.917055,21.526584,21.29547,21.062246,21.218492,20.48047,21.100317,20.372952,20.451617,20.90357,20.604864,20.909108,20.81337,20.753868,21.021534,20.877865,21.152372,21.143528,21.23089,21.048537,21.265654,20.99544,20.763818,20.464977,19.859608,19.20223,17.810947,15.906859,16.390365,14.554763,14.202246,12.698,12.254745,11.661517,11.586564,11.669185,12.946894,12.367911,13.499803,13.75682,14.527178,14.876144,14.068206,15.036372,14.459421,14.840641,14.580222,14.481351,14.336233,14.426267,14.538407,14.40554,13.965601,13.978205,13.759715,13.725657,13.245521,12.871695,12.163818,11.948582,11.44407,10.808977,10.214134,9.4106794,9.1992649,8.1979267,7.92463,7.2478239,6.8198946,5.6519306,5.5163019,4.3735544,3.6480771,2.9081766,1.9082269,0.99923331,0.38216265,-1.3335498,-2.4456847,-3.7272287,-4.9507039,-6.4806427,-7.5699131,-9.3537814,-10.340616,-11.983981,-13.343388,-14.71968,-16.220829,-18.125878,-19.387779,-21.243531,-22.978153,-24.861525,-26.58575,-28.128356,-29.830844,-31.6368,-33.148556,-35.038575,-36.161116,-37.32793,-38.672833,-40.010166,-40.527983,-41.490967,-42.434586,-42.825056,-43.925594,-44.242951,-44.717994,-44.50992,-45.040555,-44.8872,-44.278942,-43.992463,-43.15058,-43.051928,-41.78867,-41.071125,-40.223861,-38.713673,-37.856053,-36.927117,-35.098206,-33.989674,-31.866249,-30.727792,-29.224169,-27.312438,-25.631967,-23.77912,-21.943395,-20.468874,-18.765482,-16.883409,-15.105924,-13.458286,-11.642265,-9.9482315,-7.772785,-5.9668213,-3.8454098,-2.2603996,-0.58944388,1.6467186,3.3366279,4.8623606,6.6017357,8.3113759,10.040817,11.538203,13.311615,14.645054,16.073305,17.680181,18.871364,20.453084,21.41147,22.781998,23.930995,24.968586,25.638412,26.677922,27.264944,27.871928,28.270586,29.201205,29.136197,29.669886,30.194284,30.619749,30.745202,30.849706,31.154718,30.985599,31.638904,31.383405,31.092326,30.996912,31.031946,30.944058,30.959282,30.503646,30.14279,30.038226,30.182411,29.708289,30.061116,29.828366,29.748671,30.142182,30.256813,30.267335,30.029613,30.103661,30.225973,30.249696,30.069438,29.597706,29.907408,30.006346,30.360982,29.103045,28.232561,27.84402,26.680763,25.601895,24.544955,23.381246,22.528118,22.232305,21.499387,21.13897,21.354917,21.679642,21.696597,22.052891,22.102626,21.971582,22.228034,22.724974,22.627987,23.196263,22.842044,22.396889,22.256151,22.194449,21.726383,21.039726,20.617232,19.429918,18.887289,17.495369,16.784332,14.854185,13.625687,12.19749,11.131905,9.1581748,7.5144333,6.0190439,4.111688,1.914666,-0.0095278347,-1.9644259,-3.9397503,-5.716888,-7.935298,-9.7858028,-11.942146,-14.13453,-16.397502,-18.447969,-20.608198,-22.733475,-24.640362,-26.428627,-28.538027,-30.278466,-32.119194,-34.075396,-35.186461,-37.097951,-38.440985,-40.049937,-40.972294,-41.975948,-43.383054,-44.323657,-45.355628,-46.482433,-47.269783,-47.808779,-48.566078,-49.375672,-49.773342,-49.77916,-50.226612,-49.867832,-50.149956,-50.140801,-50.04914,-49.223032,-49.053543,-48.401438,-48.245357,-47.428343,-46.580007,-45.702233,-44.99506,-44.15094,-42.648916,-41.811542,-40.005976,-38.522323,-36.96315,-35.055947,-33.361555,-31.502315,-29.980365,-27.942026,-26.416679,-24.693499,-23.275653,-21.381896,-20.005098,-18.261046,-17.140361,-15.64051,-14.390281,-13.587996,-13.327529,-13.2456,-12.828997,-11.907831,-12.11504,-11.178886,-10.496359,-9.4542829,-8.2123525,-6.8091242,-5.2948153,-3.1652481,-1.6991992,0.28946059,1.3368486,3.4178203,5.0882333,6.6500177,8.4486685,10.431129,11.676489,13.818488,14.887671,16.219815,18.647655,20.344816,22.04239,23.861168,25.185397,26.742884,29.305256,30.280766,32.259346,33.367723,35.477447,37.315718,38.665486,39.996326,40.827667,42.820449,44.022121,45.124718,46.560732,47.532983,48.869503,49.951798,50.446912,51.483261,52.028524,52.564571,53.00068,53.86933,54.202855,54.34257,55.217367,54.790836,55.338743,55.586257,55.522402,54.927088,55.741825,54.790089,54.926213,54.392329,53.960667,53.109038,52.480895,51.869394,51.08076,49.812862,49.318981,48.342984,47.388867,46.35084,45.606271,44.01203,43.257251,42.092295,40.545028,39.123112,37.836322,36.800174,34.791243,33.645864,31.914153,30.403516,29.044605,27.393233,25.707464,24.164429,22.647333,20.898257,19.912217,17.882355,16.607954,15.053037,13.65484,12.220351,10.286373,8.7583276,7.0099794,5.4780676,4.0880829,2.3612089,1.1366871,-0.5354689,-1.6134448,-3.0270181,-3.7488015,-5.7313655,-6.3855146,-7.8399283,-8.8388428,-9.657216,-11.362123,-12.631896,-13.593117,-14.806238,-15.781102,-17.347508,-18.170058,-19.329061,-20.785961,-21.493377,-23.14267,-24.524589,-25.8577,-27.221737,-28.469758,-29.677617,-31.309275,-32.307328,-33.592275,-34.689032,-35.147425,-36.725883,-37.49466,-38.515341,-39.3652,-39.93918,-41.028034,-42.269548,-42.925358,-43.342791,-44.439095,-45.504579,-45.997194,-46.585984,-47.120585,-47.016093,-48.396235,-48.763743,-48.894093,-49.206136,-49.549337,-50.111023,-50.447577,-50.240493,-50.402386,-50.56645,-50.664185,-50.545414,-50.608756,-50.271721,-50.067091,-50.340873,-50.021551,-49.480848,-49.468796,-49.304922,-48.677246,-48.903799,-48.15105,-47.624637,-47.161371,-46.688644,-45.938461,-45.001729,-44.197773,-42.916602,-41.727234,-41.128232,-41.855869,-40.236849,-40.697355,-40.497093,-39.768184,-39.210249,-38.374835,-37.519586,-36.080514,-34.86275,-32.974527,-30.741291,-28.652426,-26.240225,-24.021589,-21.699535,-19.143309,-17.350961,-15.47783,-12.985236,-11.075236,-9.3944943,-7.5533586,-6.9573771,-5.2225245,-3.9871533,-2.8787178,-2.3601088,-2.0679575,-0.70343177,0.075216733,0.42538481,1.3284808,1.0915893,2.3047273,2.3051498,3.1283103,2.5057363,3.084484,2.7310439,3.1726661,3.0618889,2.8506999,2.402261,2.8637253,2.900982,3.0227783,2.9056638,2.2480499,2.7960427,2.7316328,2.8373487,2.634899,2.2168899,2.9787857,2.8341088,3.4913883,3.1289271,3.3469621,3.1410761,4.215541,4.0313467,4.7714496,4.7043308,5.3193519,5.8280263,6.5317184,7.0865113,7.0914907,8.0653021,8.7198085,9.6616105,10.160981,11.442389,12.223993,13.300438,14.362897,15.857325,16.373657,17.899829,19.152473,20.867135,21.963569,24.007612,25.128989,27.019912,28.497857,30.19243,31.431836,32.739201,34.874309,36.389061,38.078589,39.264645,40.677075,42.140282,43.081926,44.614011,45.124274,46.410622,46.641997,47.650476,48.164138,48.007996,47.707147,47.937927,47.114716,46.590545,44.612019,42.480584,40.152717,40.326105,37.341637,36.778317,34.880866,33.878215,33.180039,32.31697,31.907508,30.5211,31.013349,30.330543,30.577519,29.651276,28.653514,28.465037,28.03713,27.178678,26.907584,25.344659,25.262191,24.001696,23.522321,22.39772,22.012672,20.880194,19.815637,19.208257,18.270954,17.781987,16.557083,15.626423,14.777711,14.028244,13.32903,11.567295,11.324391,10.021135,9.5601823,8.2368111,7.3520271,6.6112721,5.4513391,4.9999291,4.2104917,3.0692722,2.1627793,1.1099304,0.48812797,-0.17461267,-1.7036103,-2.5949035,-3.5489071,-4.0559877,-4.9285629,-6.3898104,-7.1673262,-8.2559204,-8.4363259,-9.485203,-9.9707826,-10.929467,-11.421895,-11.853079,-12.200762,-13.324305,-13.774794,-14.611658,-15.157843,-15.248107,-16.468184,-17.032812,-17.185241,-17.641028,-18.830446,-19.03408,-20.120406,-20.491333,-21.228795,-21.546881,-22.147256,-22.845123,-23.275016,-23.175861,-23.966832,-24.597061,-25.018391,-25.377211,-25.759816,-25.816817,-26.046413,-26.935401,-26.767401,-27.435472,-27.246214,-28.425976,-28.228568,-28.718298,-29.027662,-29.23676,-29.815245,-30.260683,-30.284894,-30.41929,-30.823481,-30.511518,-31.434701,-31.161569,-31.582892,-31.499887,-31.694734,-31.734337,-31.98178,-31.164867,-31.742168,-30.987915,-31.409646,-31.092727,-30.693988,-30.536837,-29.86135,-30.059753,-29.286985,-29.262996,-28.314315,-27.840125,-27.361106,-27.140112,-25.992671,-25.69047,-23.447913,-23.917416,-22.20133,-21.066521,-19.604214,-18.126433,-17.199167,-15.33583,-14.375718,-12.447723,-10.806134,-9.5329751,-8.0241113,-5.7116379,-4.1271407,-2.3899421,-0.38902468,0.6738431,3.0021054,4.5185748,6.5297144,7.6799696,9.4812745,10.992481,12.466896,13.879004,15.038368,16.483026,17.907377,19.200564,20.880843,21.702343,23.022693,24.778891,25.25909,26.96994,27.94679,28.845423,30.338898,31.228138,32.225507,33.445397,33.786019,35.409564,36.191993,36.931288,37.78821,38.186217,39.600775,40.057929,40.448649,41.501863,41.681739,42.044262,42.478149,43.034276,42.65815,43.012409,43.282736,43.031218,42.796485,41.643688,42.082956,42.182483,40.69743,39.797098,39.519774,38.240535,37.591217,37.413388,36.572724,35.943361,36.171226,35.841102,36.333696,36.30934,37.992842,37.44277,38.599965,38.942638,39.88709,39.666763,40.149842,40.065355,39.572588,39.296597,37.875476,36.456644,36.21868,34.483416,32.885136,30.306364,28.8442,27.443945,24.706519,22.136407,18.108642,17.443426,14.285344,11.715164,8.9434235,5.3713706,2.220776,-0.26670131,-3.3695362,-6.37471,-10.04511,-12.305626,-14.922525,-18.106704,-19.969445,-24.641278,-26.333511,-28.160552,-31.07531,-33.101275,-37.698486,-38.764724,-40.788142,-41.592686,-44.88338,-46.971944,-47.577793,-48.226564,-48.467713,-50.136107,-51.010013,-51.461807,-50.425675,-50.699178,-50.71959,-51.478944,-51.119088,-49.643189,-49.169764,-48.200328,-48.417489,-47.30153,-45.766071,-44.506478,-43.606419,-43.670638,-42.447743,-40.021566,-39.353332,-36.99659,-36.746543,-35.478668,-33.108192,-31.095883,-29.800177,-28.666003,-28.005535,-24.329716,-23.137605,-21.298626,-21.086564,-19.671921,-16.913263,-15.433266,-14.120351,-13.743491,-13.434214,-10.659935,-9.9220125,-9.294487,-10.091278,-10.009795,-8.8154441,-8.6230253,-8.9649251,-10.702323,-10.148807,-10.737645,-11.100989,-11.644807,-12.569724,-14.095837,-13.151595,-11.908426,-12.494753,-13.059854,-12.338074,-11.659646,-8.9360585,-8.5090828,-7.5226103,-8.1789742,-5.4403869,-3.7049577,-2.4639067,-2.0630731,-1.330362,0.12312203,2.8684507,3.9109506,4.2466615,5.3621447,7.3044746,8.7061573,9.7544792,11.173792,12.246981,13.654791,15.41666,17.494133,17.699292,20.505759,19.590824,22.894288,23.946206,23.942436,25.249517,25.97879,27.777645,28.921075,29.156999,29.75977,29.504329,30.599364,32.076082,30.301224,31.931664,30.866662,31.419343,31.8933,31.170214,32.067033,31.883253,32.166217,32.912983,33.328166,34.081646,34.252315,34.985197,35.043397,35.359672,36.137928,36.544396,37.144004,39.531604,39.546108,40.666727,41.486197,42.285463,42.910642,43.167093,42.878533,43.778133,43.242919,43.497384,43.258037,43.836193,43.327359,42.547757,43.481069,42.268582,41.961467,41.80184,42.024505,41.694301,41.54834,41.472927,41.773565,40.715018,41.101065,40.0071,39.606844,40.208815,39.045949,39.473261,39.947162,39.833132,40.447042,41.215371,42.934981,44.22801,45.847655,47.043234,49.33968,51.386505,53.641771,56.590625,58.388623,60.912036,62.779673,65.92707,66.231054,68.537935,69.102646,70.441115,70.962515,72.2974,71.261944,71.660519,70.713668,70.926098,70.151368,68.877411,68.515624,66.619009,65.713571,63.913536,61.638152,59.732707,56.754594,53.950944,51.385939,47.4833,43.8572,39.999174,36.920717,32.383518,27.89674,23.808753,18.651702,13.376413,9.7751571,3.4326697,-0.34057167,-7.1706058,-12.256851,-17.752802,-24.134963,-28.982151,-35.373099,-41.35023,-46.443224,-53.140893,-58.5634,-63.921998,-69.932456,-73.991767,-80.348782,-84.572892,-89.71534,-93.888453,-98.395844,-102.17217,-105.92909,-108.6402,-112.20251,-114.01722,-117.2104,-118.74385,-120.19091,-121.17263,-121.77746,-123.01577,-123.18346,-123.5632,-125.27526,-125.3269,-126.80842,-127.3766,-128.01136,-127.29954,-129.13983,-127.10051,-128.618,-127.15362,-125.61388,-125.1547,-124.8534,-122.91923,-121.87175,-119.53248,-119.5604,-117.70022,-115.93337,-115.39568,-113.18003,-112.392,-111.68681,-110.87869,-111.1912,-109.83937,-108.80839,-106.83715,-106.32168,-104.99712,-103.45815,-102.18617,-100.37047,-98.155362,-96.492338,-93.874465,-91.196302,-89.099464,-85.062165,-83.694504,-78.681625,-76.939071,-74.116948,-71.918536,-69.194468,-66.539097,-65.784972,-62.841572,-60.815823,-59.470963,-58.018502,-56.977276,-55.810778,-54.335017,-54.58234,-53.126727,-52.201181,-51.731524,-51.137098,-51.253253,-50.541771,-50.628085,-50.96774,-50.707184,-51.356092,-51.573425,-51.420265,-52.393177,-52.287193,-53.285205,-53.190379,-54.346934,-54.508921,-55.421048,-55.860612,-56.92942,-57.488566,-58.362426,-58.95158,-60.112556,-59.503391,-60.232167,-59.92357,-59.309647,-59.252215,-58.63688,-57.324284,-56.906172,-55.26946,-53.02396,-51.787872,-49.14432,-46.890127,-43.063947,-39.471117,-35.937713,-31.153603,-27.131331,-22.253238,-17.389529,-10.935601,-5.7367825,0.72085734,8.0308443,11.895065,19.164858,23.665242,30.63959,36.258226,42.348384,49.884536,57.047339,64.378682,70.744389,78.231332,83.393344,88.553303,96.489705,100.09706,108.02822,112.45439,120.22021,124.09834,132.09095,136.74039,142.32559,144.9506,151.74127,157.73168,163.39747,169.41387,173.88243,179.5013,186.07561,192.46084,199.42226,205.08954,212.45913,219.9139,227.26491,235.42291,241.67405,249.72808,259.38057,269.51005,279.08994,288.68922,299.00683,312.99062,325.99372,340.9336,352.491,366.96089,381.64865,396.54379,409.25327,420.76202,432.40078,444.00965,453.65113,462.54946,467.89412,473.24273,476.35187,478.62214,479.33517,475.17042,469.85699,462.69981,455.10363,442.87978,428.07161,411.16249,393.07324,372.35101,349.52092,322.70893,293.82592,264.10971,232.11238,198.85761,161.30612,124.09471,84.203546,45.680724,3.5587451,-38.068095,-81.426732,-124.03188,-167.33823,-209.92186,-253.74966,-296.35284,-338.63194,-377.86495,-418.53625,-457.15933,-495.67682,-531.11217,-564.18919,-596.47076,-625.92167,-655.00772,-679.97122,-702.64553,-722.38503,-740.37523,-756.30956,-767.50765,-775.3329,-780.11232,-784.10298,-784.5368,-782.15404,-776.69279,-766.32598,-756.52484,-742.23125,-725.92303,-705.21342,-682.91311,-661.18069,-637.17114,-612.31514,-583.11364,-554.37677,-524.2782,-492.21365,-461.18491,-425.56482,-392.29269,-357.30542,-326.6333,-291.523,-259.69472,-227.09668,-195.99616,-164.6107,-135.27583,-106.40338,-80.391973,-55.349782,-32.645988,-10.418108,8.9102938,27.156276,42.728553,57.301821,68.463811,78.915069,88.073745,93.997803,100.78819,105.25647,110.1759,113.17882,116.3867,118.89989,121.61603,123.66521,125.03,125.52261,125.66314,126.47848,126.89331,127.11124,127.10267,127.46517,127.94316,128.98787,129.27496,130.46707,131.34612,132.83569,134.55627,136.33855,138.25376,140.78545,143.77146,147.2445,150.48053,154.16568,157.8369,162.0919,166.14887,170.39245,174.5495,178.42405,183.51243,187.60953,192.25664,196.29225,200.74037,205.41378,209.9936,214.39434,218.77554,223.0925,227.69941,231.63098,235.41757,238.91559,246.08082,249.11732,255.43028,256.81745,261.22029,266.0386,270.13902,273.67127,276.47805,280.08508,284.13343,289.1151,292.43935,294.39491,297.24794,300.12251,302.9046,305.56096,305.75555,306.92414,308.61318,310.69264,312.7246,312.76414,314.88016,316.97266,320.68081,322.86999,323.58938,325.95134,327.92718,331.51397,333.23638,332.92124,333.5457,334.86613,334.57976,335.73823,333.22084,331.6474,329.85543,329.05327,326.81043,321.87743,316.69284,312.41199,307.77587,302.50976,293.9555,286.39091,279.24571,271.91418,264.21547,253.58407,243.57084,234.3555,225.65991,215.05584,203.85042,189.7765,179.01231,166.11489,155.96053,142.41158,130.22151,118.00046,105.3646,94.42678,79.152653,66.262503,52.889413,42.347831,29.169902,17.748892,4.4227595,-6.9500273,-16.225885,-26.944396,-38.251004,-49.385388,-59.225238,-68.372292,-75.923006,-85.38904,-94.017535,-102.29532,-107.81792,-115.05777,-121.66435,-128.93139,-134.53371,-137.90341,-141.40192,-145.43479,-150.31834,-152.78707,-154.17451,-155.6165,-156.9451,-159.41927,-159.33387,-158.39157,-157.24962,-157.09378,-157.02853,-157.00194,-154.3799,-152.65839,-151.48013,-148.84359,-144.7771,-145.79777,-141.84876,-142.87549,-140.28075,-138.19469,-136.67571,-134.61779,-133.1999,-132.12072,-132.35677,-132.26173,-133.64283,-135.38092,-137.38271,-139.18855,-140.76881,-142.20606,-145.27535,-146.92026,-148.10406,-149.9055,-150.5682,-151.52685,-151.80325,-152.70221,-151.7962,-152.60527,-155.22179,-155.69739,-159.41288,-159.08038,-161.79821,-163.15241,-164.49671,-163.91045,-166.09937,-163.99763,-164.56753,-163.78174,-163.005,-162.11707,-161.7633,-163.18124,-161.13922,-160.77905,-157.6107,-157.44309,-157.26357,-156.62863,-159.50189,-156.45144,-152.27228,-155.49998,-154.07643,-159.63707,-159.5411,-162.00236,-164.62487,-164.86185,-163.15686,-161.78796,-157.58746,-156.54539,-152.97272,-151.19872,-145.21715,-146.11572,-145.90135,-147.93966,-150.09299,-151.10984,-157.28542,-165.39256,-173.83136,-181.99872,-188.82893,-199.91336,-210.87093,-221.36376,-230.1967,-237.89702,-242.36576,-244.68723,-247.40241,-248.49178,-250.47595,-251.26176,-251.64105,-252.01624,-251.98572,-251.33525,-253.18526,-254.78205,-257.90506,-261.51063,-266.52589,-271.81206,-279.08233,-286.98943,-294.35236,-302.42535,-310.55292,-318.31763,-325.58878,-332.78854,-337.59544,-343.3104,-349.25766,-358.49767,-360.71747,-365.41472,-365.03709,-369.88185,-370.41611,-373.35157,-373.02342,-366.09925,-365.89992,-363.26045,-361.38696,-355.75924,-352.45825,-348.78725,-344.3268,-338.43795,-330.76834,-319.74429,-312.10331,-304.77269,-295.372,-286.55543,-276.65179,-268.05861,-254.12961,-242.03422,-224.47344,-209.43164,-192.40466,-175.76424,-157.47857,-136.34243,-112.42436,-86.866253,-58.612874,-28.125167,-0.97692277,30.987671,60.123245,90.431787,120.99184,152.09972,182.54123,212.82167,243.54788,273.66506,304.678,333.01647,360.21829,386.6633,411.30612,440.3584,462.21772,481.02665,503.30497,523.06065,547.71403,569.38283,589.54985,613.37093,631.26111,652.14329,668.93324,684.73267,698.92668,708.91855,717.83014,717.43994,721.82827,717.32029,714.96721,707.32793,696.58144,685.42045,676.2041,661.55665,648.778,632.24713,618.15232,604.27797,591.98048,580.83623,570.43429,559.55528,544.45514,531.15746,515.66656,502.93025,487.07171,471.90971,455.25008,438.41702,418.27443,401.2327,379.16552,358.63017,337.23319,317.31134,295.67647,276.74185,256.24056,236.70412,217.3803,198.29711,179.88758,161.04398,142.91776,125.21102,106.93524,91.454622,80.13652,64.789414,51.56967,37.540723,27.32283,17.730452,10.707057,5.0685391,-8.3110023,-17.362068,-26.571827,-35.887081,-45.089773,-54.717327,-60.462308,-67.248141,-72.163592,-79.082342,-88.195606,-94.686938,-99.1806,-104.2754,-107.33286,-107.86238,-105.32459,-106.52335,-102.37314,-101.95313,-98.085856,-94.812307,-87.237592,-78.705339,-67.237668,-58.069433,-46.84552,-37.583399,-27.452524,-15.764172,-3.9841737,7.5278297,18.824694,31.376721,41.974809,56.176327,67.585537,82.50134,92.566973,104.6476,113.4443,124.69581,133.04206,142.73615,150.83143,158.45908,165.8891,171.73486,176.42141,181.19154,183.24239,186.57474,186.19109,187.31869,184.63033,182.75791,180.23091,174.92978,169.84721,162.22428,155.35076,145.89678,137.35524,125.95329,114.9902,103.05753,89.534117,75.804803,61.441612,46.730274,31.205972,14.748111,-0.18696875,-17.142174,-33.22579,-49.781662,-66.758554,-82.59471,-99.194719,-114.41004,-130.27869,-144.99558,-159.58226,-172.9725,-187.51356,-198.15263,-212.00588,-222.38834,-233.70008,-242.68398,-253.15426,-261.96226,-272.09719,-280.56106,-288.40554,-295.97897,-302.12003,-308.70416,-314.85361,-319.28003,-324.11623,-327.15029,-331.19404,-333.12153,-335.89444,-336.73699,-339.19068,-339.80303,-342.06876,-342.68397,-345.24835,-347.12396,-347.43548,-348.46897,-348.11321,-348.35145,-346.73202,-346.84139,-345.32423,-343.71103,-341.66044,-338.57825,-338.20436,-334.40736,-333.13095,-329.07553,-326.84338,-322.61428,-319.56657,-315.72243,-311.94458,-308.72502,-304.72774,-301.9011,-297.06694,-294.216,-288.65327,-286.13441,-280.73076,-277.46233,-272.59123,-268.05563,-263.46032,-257.68482,-253.67349,-247.14976,-242.59209,-236.34992,-231.78051,-225.60269,-219.70415,-214.18346,-209.58835,-203.65994,-198.80741,-191.52132,-185.7055,-180.05817,-173.69351,-167.72938,-161.79185,-157.23462,-152.10314,-148.58921,-142.79722,-139.55391,-133.24797,-131.14952,-126.14803,-123.61085,-119.2533,-115.93005,-112.0964,-108.86825,-104.81943,-101.08483,-96.750319,-92.822284,-90.565281,-85.558356,-83.314985,-79.306006,-76.155536,-73.526213,-70.076766,-67.496263,-64.133937,-61.887927,-58.870686,-56.626384,-53.180122,-51.08672,-47.242749,-44.745989,-42.249268,-39.056362,-36.475079,-33.673382,-29.784269,-26.478403,-23.428194,-20.074162,-15.656409,-13.916431,-9.8484672,-7.7712709,-3.6603054,-1.5663413,1.3877847,4.3651562,6.9833773,10.780549,12.664298,17.172824,19.442884,23.529239,26.658129,29.708444,32.56348,36.736322,40.033143,44.59055,49.212498,54.511479,58.578945,64.989044,70.711691,78.546308,84.961348,91.500132,98.365059,105.35473,110.39554,118.07651,122.84789,130.09471,135.50565,142.19544,146.91726,152.38335,156.68227,161.61677,166.87512,170.7194,175.61657,178.63818,183.77393,187.17617,192.47399,196.41342,200.9017,205.54758,208.9163,213.18407,216.29348,220.34482,224.68779,227.69542,231.13027,234.54627,237.77969,241.91581,244.47071,248.95339,251.49736,257.09696,258.66046,263.85798,264.59916,268.38884,269.08155,270.93682,274.06285,274.17602,277.74811,276.90386,280.44093,280.0598,281.67464,281.8824,283.57071,284.10906,284.70036,285.5152,285.21661,285.93665,285.90281,285.15843,284.69633,284.11064,282.33634,280.71725,279.28376,276.46175,274.50643,270.61457,269.43602,264.62649,262.64025,258.05929,255.84967,251.05032,249.36702,245.40665,242.61083,239.19278,237.9139,235.68988,234.39819,231.94928,229.01595,226.41844,222.9489,219.35548,216.09241,211.69968,207.45126,202.36415,197.34795,190.62338,184.08287,176.11617,168.05553,160.21452,149.37962,140.34216,129.43341,118.70878,109.34516,96.895034,88.189798,76.342205,68.021304,56.728184,46.984412,37.006135,27.535243,17.596887,6.4946122,-3.3533368,-14.22801,-25.106757,-36.336287,-46.244883,-57.433093,-67.869745,-77.920204,-88.664615,-98.681816,-109.02436,-118.96448,-128.09748,-137.21265,-146.04646,-154.76925,-162.28196,-170.38841,-176.67996,-183.5057,-189.83509,-195.87985,-200.87937,-206.25407,-210.19934,-213.93485,-217.45699,-220.72559,-222.6213,-225.02859,-224.85104,-226.87648,-225.66098,-227.34657,-224.91993,-224.44638,-222.69437,-221.15573,-218.59437,-216.86125,-212.33818,-210.74324,-205.64961,-202.09398,-197.64264,-193.20348,-188.82682,-183.61194,-178.80235,-173.85494,-168.13428,-163.71218,-158.88348,-153.6352,-148.60117,-143.78418,-139.08083,-134.87385,-130.46443,-126.36135,-123.2798,-120.13905,-118.00034,-115.79644,-113.9406,-112.6416,-112.19095,-110.29304,-112.08237,-108.92726,-110.19168,-108.66326,-109.11476,-106.40684,-105.95619,-104.35573,-103.02896,-100.57258,-99.319797,-97.035125,-95.034939,-93.545939,-91.395739,-88.25144,-86.226323,-82.835775,-80.515793,-77.958939,-75.076062,-73.195869,-70.351172,-69.361709,-66.367686,-64.593655,-61.681416,-59.832755,-57.007857,-55.747486,-52.922701,-50.591843,-48.641498,-44.387142,-43.806283,-40.062567,-39.005945,-35.96097,-34.427981,-31.444327,-28.942734,-26.715696,-23.775878,-22.194748,-19.766659,-17.953928,-14.465124,-13.858163,-9.6982896,-8.9104277,-6.0178878,-3.5855474,-1.2735869,0.3334346,2.7975744,4.3813904,7.4051991,7.976592,10.855478,12.00028,14.649705,16.286511,19.198563,21.276529,23.435263,25.300565,28.598149,31.174146,33.521271,36.153733,39.741526,41.974086,45.581953,47.14609,51.172077,52.180195,55.978418,58.718403,60.270293,63.741826,65.000431,68.448483,69.351206,71.997993,73.030566,74.844287,75.991795,77.066411,78.7751,79.358899,80.729139,81.694215,82.134538,82.380521,82.908213,83.922042,84.170759,85.936231,85.453626,86.247235,85.56201,86.039594,85.044324,85.945987,85.305528,85.664732,86.345666,86.338473,86.905635,87.756864,87.57378,89.443818,89.355558,90.968258,91.222399,92.420239,91.932892,93.323911,93.74171,94.010144,94.09173,93.72292,94.029214,93.281836,93.724283,92.792687,91.309009,92.307173,89.689632,88.853361,86.303242,84.597832,82.684454,80.023872,77.947551,74.191184,71.142903,67.256577,63.596646,60.029219,55.397239,51.879796,46.762195,42.944043,37.07529,31.893114,27.499486,22.615742,17.797458,12.375465,7.3468072,1.4846942,-2.8665514,-9.2621256,-14.165965,-20.065178,-24.603169,-30.534453,-34.366865,-40.999388,-45.38194,-50.509634,-55.541883,-60.303783,-65.124708,-69.477294,-73.715766,-78.328664,-80.49587,-85.289505,-87.428549,-90.995537,-93.487642,-96.711141,-98.274884,-100.84112,-102.72008,-103.07569,-104.95478,-106.4017,-107.47711,-107.19296,-107.30044,-106.35188,-106.44409,-106.58333,-104.57941,-103.03573,-101.97898,-100.06531,-100.06172,-98.16805,-97.551346,-97.525663,-97.807175,-97.482517,-99.164405,-98.509813,-100.17595,-100.64892,-103.301,-103.75399,-106.43253,-105.55097,-108.35645,-108.52722,-110.88284,-110.73517,-111.51386,-114.42812,-115.75484,-117.05343,-117.85492,-115.69737,-118.06993,-117.41429,-118.67355,-116.95498,-116.55728,-115.08753,-115.16456,-112.67929,-110.00592,-107.87075,-104.69526,-102.20079,-99.268611,-94.64907,-90.542331,-86.686201,-82.519022,-79.426971,-72.89068,-67.901578,-61.927207,-58.400847,-52.360673,-46.082209,-39.945766,-34.140307,-28.213157,-22.838456,-15.907391,-9.5256174,-4.4264702,1.3767481,5.7499005,13.711758,18.114709,25.465271,28.258182,34.82577,39.004853,45.940727,48.677561,53.720137,57.796977,62.589323,66.812977,69.578277,72.314845,74.95952,78.211524,80.06762,83.109689,83.088978,84.751016,85.122893,86.923446,86.129496,87.232177,85.8707,86.56608,86.224824,85.859168,84.704588,82.749869,82.313861,81.048005,79.606013,77.807007,75.157199,73.811025,71.858164,70.46654,67.989845,65.444109,64.759396,62.293547,61.390079,61.43908,60.1901,59.55093,59.556702,58.986299,60.188928,59.738869,61.062368,60.635845,61.674035,60.834724,61.219741,59.66918,60.182187,59.910215,60.541898,58.592271,59.81225,58.918246,60.211778,59.173323,60.303772,59.399142,61.812019,59.986215,62.120562,60.801313,61.85783,62.825534,60.390702,63.371266,61.301407,63.328825,62.715695,61.53958,61.511208,60.720688,60.810813,60.329714,60.196746,59.033591,58.941,57.773732,57.631669,56.869811,55.694263,54.572585,52.996024,52.432693,49.945695,48.586945,45.73729,45.877059,42.440691,41.81015,38.232549,37.907477,34.319795,33.096561,29.314166,27.628392,23.378594,21.833205,17.460391,14.600539,11.907305,8.0495527,6.4281034,1.3047389,0.48190764,-4.8718289,-6.6757028,-10.231826,-13.040349,-15.848355,-18.444666,-21.953672,-23.90273,-27.202347,-29.606418,-32.481075,-34.299256,-36.438886,-38.377158,-39.598939,-42.533145,-43.391064,-45.232079,-45.082597,-47.277933,-46.850179,-48.885104,-48.501304,-48.477683,-48.791719,-49.25203,-48.504774,-47.783365,-47.695898,-47.023814,-48.122206,-46.063212,-45.34516,-45.117296,-44.847379,-45.056737,-44.561811,-42.374849,-41.849559,-41.502351,-41.047745,-39.733907,-37.717528,-36.331547,-36.019262,-34.990459,-33.896671,-30.924273,-30.275938,-28.880053,-28.702127,-26.876054,-24.484098,-22.252803,-22.144407,-20.42258,-19.790937,-16.67963,-15.502615,-14.725142,-14.279409,-12.950334,-11.013149,-9.3936276,-9.4523669,-8.8028272,-8.000789,-5.9004454,-4.5756376,-5.9135965,-4.5955338,-5.6564935,-2.9235671,-3.9298807,-3.0314054,-4.7103358,-3.6490694,-3.7299327,-2.389047,-3.4669667,-3.880237,-3.5980518,-2.5101839,-1.2958445,-2.0088371,-2.625646,-2.4560185,-1.6486544,-0.31521631,-1.2131063,-1.4980926,-1.6529388,0.28097676,-0.1620588,0.68956822,-0.37328765,0.18018662,0.28591779,2.1528472,0.94062275,1.3233795,0.36366428,2.0191065,2.1450477,2.7921857,1.7636454,1.4355312,2.724906,2.5733824,3.3622925,0.58566564,1.7860057,1.4779048,2.591163,2.0345505,0.60260604,-0.14187085,1.6228922,1.3650935,1.6192501,-0.056358931,0.22094003,0.91850009,0.87548154,0.75792438,-1.124145,-1.0859233,-0.49851305,0.78282888,0.80245735,1.1829802,2.6974371,4.8009074,8.6703257,10.725552,13.050155,16.038153,15.777318,18.154116,17.768769,20.310836,21.152294,20.809275,20.354366,20.150776,21.649111,20.920597,20.972036,19.944776,20.635851,19.693866,20.089311,19.318313,19.147413,18.270675,17.717355,17.223538,16.72064,15.838413,14.750046,14.605721,13.885004,13.809193,12.378631,11.239812,11.118707,10.570279,9.5956773,8.8422301,6.9874471,6.9014151,5.6849503,5.0913547,3.791624,2.9733778,1.7590542,1.2179144,0.31680231,-0.86234169,-2.1807961,-2.728136,-3.8576172,-4.6888884,-5.7158237,-6.8832823,-7.7669915,-8.1542384,-9.1237705,-9.2991369,-10.884083,-10.715266,-11.577097,-11.224571,-11.970657,-12.113328,-13.10185,-11.938886,-12.823876,-11.807062,-12.988773,-11.550447,-11.951546,-10.676549,-10.638139,-9.4523159,-8.7892549,-8.5580803,-6.7790644,-6.469829,-5.0779963,-4.3288968,-2.9927942,-1.9504373,-0.98850004,-0.11567105,0.76594553,2.0567835,2.90699,3.8360097,4.5002005,4.4776113,5.4662981,5.34375,5.8702661,5.6211035,5.2613712,5.0088,4.5872662,3.6737632,2.9746682,1.7095713,0.67598281,-0.45406652,-1.6007957,-2.3875106,-3.4893586,-3.9315776,-3.8761652,-3.8977456,-3.2095429,-2.7309008,-1.5893166,-1.2908179,-0.083193716,0.49996489,-0.55089116,-0.85855521,-3.1702597,-1.3164712,-2.3683425,-1.1440595,-4.2869142,-3.8761315,-5.0215352,-4.2890907,-4.4587748,-6.5109386,-6.3366913,-6.7319211,-6.1764098,-7.4742584,-7.4492967,-8.1524271,-8.1288845,-8.9628215,-8.9356904,-9.9541899,-9.539921,-10.616012,-10.23112,-10.319854,-11.176578,-11.589376,-11.869052,-12.369007,-11.691963,-13.488319,-13.207687,-14.005221,-13.496469,-13.342436,-13.857802,-14.300524,-13.895891,-13.85076,-13.627498,-13.902012,-13.905627,-13.953018,-13.581433,-13.163686,-13.459392,-13.220797,-13.109996,-12.590975,-12.421824,-12.069965,-12.411079,-11.580882,-11.672567,-10.292269,-10.934859,-9.7745804,-9.8479443,-8.8988545,-8.3087527,-7.1384426,-7.0956599,-5.1729831,-4.9776598,-2.3761972,-2.7883388,0.22189226,-0.022295699,2.6040684,2.9840799,5.3139248,5.9742661,8.2740146,9.7832021,11.30716,13.285771,14.552061,16.86447,18.372806,20.757523,22.298685,23.980585,26.082873,27.644091,29.661642,29.906618,33.055956,34.552735,35.17079,35.709836,37.317037,38.502255,41.579696,43.427556,44.387699,45.954772,48.831909,52.209706,54.088415,56.284647,57.685542,61.36886,63.792264,66.297393,67.991258,69.173959,72.386828,74.245532,77.045944,75.83722,77.997024,78.207844,80.358817,79.973239,78.480519,77.501682,76.945914,76.389553,75.013515,73.440832,70.461908,70.113826,67.782323,66.871629,63.043088,60.909494,58.12876,56.880861,54.111969,51.113497,46.975635,44.310627,41.76429,38.985282,34.796482,30.432214,27.342515,24.918754,21.591523,18.200324,13.480424,10.741057,8.0145994,5.0942793,0.55977388,-3.7147293,-7.0145512,-8.9307606,-12.1691,-16.39474,-20.460596,-23.114515,-24.211266,-27.542191,-30.298683,-34.213505,-35.476585,-37.731769,-38.68011,-42.383914,-44.146894,-47.748581,-47.420293,-49.964499,-51.744319,-55.270833,-55.44684,-57.313909,-57.53191,-59.986871,-62.013791,-63.582364,-63.322513,-65.281299,-65.703925,-68.580236,-69.260991,-69.488479,-69.191976,-69.558306,-72.116759,-71.219276,-72.137169,-73.609566,-76.217901,-77.802012,-81.224257,-83.659368,-87.540991,-89.677423,-93.934371,-96.711698,-99.688352,-101.93006,-104.72654,-109.07088,-109.91093,-114.53292,-117.45312,-119.37233,-122.01318,-124.80647,-126.7373,-129.82155,-133.22853,-134.27883,-136.49009,-138.03864,-140.68877,-140.73681,-141.40004,-139.43608,-140.17269,-139.78943,-139.29616,-138.49145,-136.69736,-137.11587,-137.13334,-137.72837,-135.49396,-136.10549,-135.45157,-137.13865,-136.95683,-136.21022,-136.10277,-136.55878,-135.55298,-135.88885,-135.04815,-134.69037,-133.81734,-132.22831,-132.32555,-130.09286,-129.97799,-126.93968,-125.79654,-124.4563,-123.09215,-121.29963,-118.84783,-117.48004,-114.40844,-111.50094,-108.17027,-104.84482,-101.58285,-97.932773,-93.645679,-89.673476,-85.896839,-81.733628,-77.372464,-72.733851,-67.783545,-63.269108,-58.487481,-53.575777,-48.055614,-42.307228,-37.871224,-32.736487,-28.076825,-22.167232,-17.048566,-13.459588,-8.3560311,-3.4324757,1.8297736,5.818238,11.597324,15.445964,20.429452,24.79323,28.987365,33.318666,36.673729,41.86619,45.437084,50.315768,53.964301,57.3018,63.28295,65.288485,71.262904,74.088186,78.293113,81.255643,83.820404,86.833774,87.596768,89.345229,91.840666,92.736098,92.54178,94.16101,95.359508,99.580219,100.16728,102.34353,104.44361,107.51181,109.74999,110.86195,112.37999,112.86475,114.59751,116.12759,117.32497,116.36972,118.91004,119.22118,121.89813,124.24016,125.60831,130.42839,133.54051,138.21328,141.39773,146.66834,149.24335,153.66654,157.23218,161.67478,165.18528,169.37353,172.68408,177.02441,180.88492,185.19205,189.15107,192.7226,197.0378,200.71765,205.75778,210.09333,214.95564,217.54885,222.239,225.41792,231.37992,233.67301,237.58003,241.50802,245.90538,251.81233,254.90692,258.42512,262.0833,267.36463,272.18588,277.23436,281.65928,286.10146,291.16898,296.59953,301.50361,306.01304,310.01245,314.19051,319.70974,324.29168,327.56204,331.57022,334.92622,339.99274,343.01911,345.33757,346.06241,347.91033,348.26473,348.6602,345.80317,344.89157,341.12879,339.39181,335.65203,330.46624,323.01468,316.3125,309.01215,300.79357,289.68173,278.49625,265.66061,254.56743,239.46336,225.82314,207.38603,192.0898,173.9367,156.63378,136.43467,115.11338,95.274275,73.935437,53.488776,30.103039,7.2609575,-16.209847,-38.128569,-62.37886,-85.90461,-111.57986,-134.1633,-156.56175,-178.89573,-201.03441,-224.6096,-244.62447,-263.91081,-282.30828,-302.02138,-319.79934,-336.87384,-350.82196,-365.75618,-379.79511,-394.27328,-407.28234,-416.84523,-428.27492,-437.34878,-447.82415,-455.61747,-461.94834,-469.59729,-475.1772,-480.35921,-483.83128,-486.27449,-488.42669,-488.53884,-488.9215,-487.91338,-486.05907,-483.6439,-480.64649,-476.57078,-472.69822,-467.84416,-465.55281,-458.61126,-455.62426,-447.25949,-446.365,-442.5615,-437.86661,-429.6634,-423.75379,-417.32472,-409.95022,-401.00583,-391.58211,-379.57292,-371.26488,-360.92185,-351.34657,-337.06031,-324.36331,-310.53776,-297.01734,-280.07237,-264.17701,-247.29707,-232.58246,-217.24096,-201.4184,-182.81726,-166.59885,-147.91426,-132.08001,-114.60601,-94.984047,-77.649453,-60.076842,-45.974473,-27.394291,-11.12162,8.0953112,23.460881,42.265465,62.76802,82.774256,104.5495,123.80951,144.51792,163.64648,186.11349,208.0632,228.29999,250.10609,271.3328,291.72052,309.84708,325.12023,337.53434,350.19631,359.25221,367.75207,371.29685,375.05269,375.08811,378.7249,378.16725,378.20357,372.34062,366.05469,358.47614,350.29839,340.5224,333.15563,321.98861,314.52287,302.95257,288.93015,273.4437,258.15867,244.21539,232.19604,217.98756,201.63002,186.22507,169.55192,155.33986,139.97874,124.41027,110.40752,95.908201,83.954427,69.481418,57.569208,40.020827,33.250665,19.489574,14.096283,1.5962609,-6.7246823,-14.012544,-19.605731,-23.571724,-28.252486,-31.925697,-37.764065,-36.632438,-42.716017,-43.556903,-52.208579,-55.447786,-59.160984,-61.029309,-65.92014,-66.760921,-70.206262,-66.950361,-66.316909,-58.684081,-53.544329,-47.302016,-45.502251,-38.710564,-36.673268,-33.814078,-32.552487,-28.786544,-29.401968,-24.129711,-18.598787,-11.169174,-3.7319489,3.7399381,10.63632,16.940106,19.144854,23.205309,22.745958,23.859833,24.584676,25.155359,23.437718,25.597744,21.361534,19.116301,15.191044,9.3999797,3.3247924,-2.9188278,-9.9987211,-17.073871,-22.408015,-28.938868,-30.589133,-35.471173,-38.337581,-42.632151,-42.891721,-45.975302,-45.858958,-46.247519,-46.309329,-48.161721,-47.720591,-50.70529,-54.466236,-57.191038,-59.651092,-64.263418,-65.317183,-70.895508,-72.053368,-75.692248,-76.390959,-79.287248,-76.791856,-80.27372,-78.478973,-82.339142,-80.064628,-80.47073,-77.065774,-74.589977,-70.692835,-72.219699,-71.01464,-73.566538,-73.9331,-72.65872,-71.819514,-69.860856,-67.619872,-66.847781,-65.679481,-63.748383,-61.609046,-58.074739,-55.657986,-51.478986,-49.812579,-47.733492,-45.514345,-42.935226,-39.387031,-38.015695,-30.676677,-31.301559,-23.703468,-26.290764,-20.293851,-19.16348,-15.327117,-14.343519,-11.662637,-13.801309,-13.236365,-12.985486,-16.085511,-14.935551,-18.668274,-16.564442,-15.25381,-13.631976,-12.443583,-9.597672,-6.6069021,-0.92595306,1.0595047,3.25995,0.41898328,0.90747877,-3.1820339,-3.2515414,-8.896909,-8.9662451,-11.496165,-11.993951,-12.364871,-10.885189,-9.909259,-11.321034,-10.751436,-14.323661,-16.27246,-20.549011,-22.690101,-25.386198,-30.596468,-31.86781,-33.48766,-33.87748,-35.28671,-36.925126,-40.800866,-42.789462,-44.126745,-47.630313,-49.640103,-52.187013,-53.818089,-52.187484,-52.291548,-52.554025,-51.794642,-51.985717,-49.70247,-50.167161,-47.570838,-51.200716,-47.737904,-49.080432,-46.675103,-47.175677,-45.302522,-42.968043,-39.153368,-35.060502,-33.00901,-31.544941,-26.151205,-23.293207,-17.386979,-14.490572,-9.6421156,-4.5527555,3.6459066,8.3890555,16.168138,19.602246,27.666693,33.001561,41.125566,45.987436,52.017429,56.599471,64.080445,71.164173,76.619282,81.955454,87.502473,94.387185,101.0348,106.20717,109.84443,113.50783,118.89424,121.96958,126.36708,127.89562,129.55221,133.01845,135.62214,137.98254,137.67291,137.91957,138.78545,140.06542,139.47905,136.29933,136.24786,133.4477,133.80371,129.75807,128.72604,122.87412,122.5572,118.95873,117.44079,112.32092,109.14765,105.79382,104.82367,101.88291,99.863013,98.643245,94.736394,97.642597,92.099088,94.21246,89.307437,89.752218,85.786072,87.860263,84.132172,83.246816,80.317832,80.028369,79.087447,76.854253,75.462227,74.334495,74.526752,74.594453,73.94485,73.390138,74.502479,73.650675,73.568634,72.96083,72.666042,71.446876,70.359775,69.495548,67.176613,65.193934,62.787188,60.251511,58.413486,54.678939,50.788961,46.646073,42.562249,37.685962,32.636353,27.124905,21.594888,16.002988,9.7159133,3.4157525,-2.8148232,-9.1114345,-15.487221,-21.865756,-28.955454,-34.693999,-41.950666,-47.393079,-54.594867,-60.52715,-66.638305,-73.134446,-78.051186,-84.444205,-88.869777,-94.98439,-98.390193,-103.5724,-106.75291,-111.48285,-113.72539,-117.73324,-119.32342,-122.3965,-123.77224,-126.1126,-126.44961,-127.78466,-127.67234,-128.0029,-127.66745,-126.79878,-124.99416,-123.35238,-121.27157,-119.16305,-115.62739,-113.02645,-109.23174,-106.12124,-101.70758,-98.233854,-93.336034,-89.998655,-84.923786,-81.262547,-75.74536,-71.832169,-66.914142,-63.053457,-58.279741,-54.42983,-50.091161,-45.980582,-41.916189,-38.221852,-34.157921,-30.092472,-25.891717,-21.915646,-18.095557,-13.320713,-9.5137886,-5.6340685,-3.7527673,0.24428797,-0.24182867,4.7530059,1.9545598,4.372774,3.129028,3.1621272,3.7213002,4.0808861,2.144959,1.6633065,0.77541108,0.58974588,-0.14350669,-0.53465318,-0.49136203,-0.3887045,-0.10899013,0.66355782,0.027471611,0.98185797,0.51287212,1.382418,1.0524229,0.86196218,1.4608425,0.92736333,1.6569127,1.1582272,1.2642459,0.44570553,1.2842372,0.50968641,0.72689511,0.045680573,-0.74761775,-0.48407967,-0.51331956,-1.1832745,-2.8745,-1.7649754,-1.8601217,-2.0625305,-2.0436217,-3.6050069,-2.6213024,-2.8558098,-2.1498178,-2.8384141,-3.6349453,-3.6154615,-3.4757403,-3.3491937,-4.202897,-3.6182307,-4.5777143,-4.4560912,-3.4997962,-4.3019905,-3.6050979,-4.9269403,-3.6311811,-3.0619034,-3.1430515,-3.8053965,-4.3070426,-2.202353,-1.4119805,-1.8345019,-1.9897835,-1.7778781,0.38507501,0.83044979,2.3448363,1.9249107,1.6338279,4.6477579,4.6170012,5.9660895,6.5179529,7.101424,7.4937603,8.0461355,8.5470842,9.0182978,8.8907423,8.9286617,9.1407329,8.7763777,9.5044292,8.5214522,9.002271,8.3817448,8.7821554,8.0172051,8.3292439,7.145624,7.100437,6.9531304,6.4188474,5.9794061,4.9118967,5.00312,4.1726836,4.1030158,3.0156102,3.1228349,1.7385912,2.1509253,1.1445464,3.1135398,0.67573036,0.96195581,0.2856759,0.4747896,1.5894496,-0.38177325,0.34399547,-0.92119633,-0.71317247,-1.3093292,-1.9036729,-2.6560851,-2.8930157,-3.5956521,-3.5687339,-4.5890193,-4.7807344,-5.3649389,-5.3283922,-5.7385814,-6.3199598,-6.2392325,-6.7717477,-6.5840844,-6.4344709,-7.0072558,-7.0613808,-7.1769762,-6.5755581,-7.4751662,-6.262047,-8.2989162,-6.6206424,-7.6798347,-6.7382584,-7.1586744,-6.7303873,-7.3184783,-6.3454034,-4.9045889,-5.6248737,-5.4575354,-4.948251,-4.4132905,-2.0938921,-3.0205163,-2.0290442,-2.5022854,-1.0505455,-0.33791482,0.76530387,0.1585276,1.4117914,2.0003123,2.7041809,3.2472311,3.9312418,4.0456816,5.1990488,5.8621697,6.8691712,7.4119916,7.171152,8.5319042,10.248361,12.194863,11.606018,12.999909,14.965934,18.708406,20.997602,23.702645,26.323523,28.907406,33.46222,36.901238,38.340078,42.657098,44.336809,46.783701,48.719118,51.376399,53.571717,57.393046,57.937552,60.236728,62.139388,64.931576,67.023152,66.436985,67.661313,68.231203,69.719463,71.694676,69.709394,70.429874,69.496903,71.031816,70.148305,69.515829,67.999677,66.869702,66.837999,65.788374,64.336498,60.104411,60.083817,57.475756,56.617125,53.065353,50.396466,47.338199,46.830396,43.767383,41.109497,37.016905,34.57168,32.402705,29.941708,26.459494,23.204299,19.624337,18.455032,16.012634,13.843658,9.7349593,7.1305189,5.1802327,3.7685858,-0.045801769,-2.4048097,-6.0366262,-5.4905433,-8.4312027,-9.3001001,-13.894329,-14.596012,-15.499821,-15.7286,-18.01286,-19.041686,-20.558103,-18.928759,-19.428682,-20.033053,-21.060889,-20.297378,-19.990717,-17.794734,-18.749878,-17.498783,-17.699955,-15.006481,-13.912804,-12.866704,-13.066373,-11.616028,-9.3524157,-7.6901548,-7.1137036,-7.1637247,-5.8304747,-4.2095222,-3.7934308,-2.7423464,-4.6045063,-3.5476207,-4.2651418,-2.8749958,-4.6928689,-5.9221112,-7.1186877,-6.738853,-7.3777121,-8.7768388,-10.922811,-11.442684,-11.635978,-11.186149,-12.049073,-13.186643,-15.17839,-14.992251,-16.342938,-16.808208,-21.287232,-21.395306,-23.32258,-24.220846,-26.170116,-28.018071,-30.21521,-30.43492,-31.493284,-33.465454,-35.860903,-37.021624,-39.345429,-40.080836,-42.834742,-44.124012,-46.042459,-46.3342,-48.347109,-50.845442,-51.7969,-54.653763,-54.650648,-57.313286,-57.979881,-61.415473,-62.391521,-64.171726,-65.074774,-67.618426,-69.613761,-70.019937,-72.387157,-72.594353,-74.803829,-75.425934,-77.95743,-76.777478,-79.061416,-78.175678,-80.325142,-79.551226,-80.385373,-79.953941,-80.307985,-80.476095,-80.402998,-78.428279,-78.646788,-77.412139,-79.110487,-77.722408,-77.321887,-76.091612,-76.632351,-75.165746,-75.518984,-72.508362,-73.262807,-71.191554,-71.113565,-69.063235,-67.363332,-66.491236,-64.933371,-64.216553,-62.651119,-61.040685,-60.290062,-58.869504,-57.40919,-55.596504,-55.120376,-52.342233,-52.572946,-49.079591,-49.055947,-45.531954,-44.696474,-42.756655,-41.042557,-39.687037,-38.674129,-38.196844,-36.271451,-35.109987,-34.454637,-34.589577,-33.529702,-34.255974,-33.783349,-33.290585,-34.178602,-34.189785,-35.695406,-35.514694,-34.705021,-36.00853,-36.412893,-37.851411,-36.574192,-36.713451,-36.410842,-36.415676,-36.612973,-35.597168,-35.419405,-32.912982,-32.848192,-30.259299,-28.656656,-25.929348,-22.476812,-19.68596,-17.654443,-13.448381,-8.9973007,-5.2785059,-0.43058034,2.2354549,7.3632877,13.215229,18.131473,23.453562,27.096806,32.974576,39.007194,44.320833,50.020341,55.302076,60.47496,67.326052,71.738293,78.895239,82.998614,88.758401,95.252273,100.11737,106.11544,109.69458,115.37877,119.94638,125.23955,129.32756,132.7967,136.87857,140.90601,145.68489,148.25848,151.285,152.86866,156.57293,158.29743,160.43357,160.38872,160.98511,162.72624,163.65586,162.94067,161.98508,161.03685,161.5671,161.73866,160.37167,158.38298,157.56286,156.50979,156.26031,154.01712,151.43377,148.96598,146.99454,146.30128,143.43267,140.60209,136.12808,135.33679,129.15641,127.84442,122.27331,119.59937,116.02923,113.35371,110.26759,106.82989,105.73213,101.14882,100.22816,95.625125,92.891668,91.205306,87.993939,85.571238,81.571675,79.102483,74.300528,70.580776,66.070118,60.33657,54.317497,50.24599,42.241116,37.864957,29.213184,24.172525,16.520384,10.578473,0.62396303,-4.9836905,-14.369747,-19.475355,-28.508174,-35.019715,-44.143294,-50.668028,-58.268063,-64.452635,-72.008363,-78.81742,-85.603659,-91.544949,-97.626662,-102.58735,-110.00617,-115.28309,-120.14115,-124.99423,-130.40342,-134.86855,-138.47071,-141.0347,-143.94088,-147.63898,-150.15615,-153.68717,-153.91065,-156.64272,-156.79315,-158.29419,-158.56008,-156.9491,-157.28474,-156.7565,-155.89122,-154.67826,-153.12731,-151.47374,-150.06073,-148.44085,-145.73427,-144.06274,-140.4573,-139.14523,-135.77034,-132.95465,-128.79651,-126.5594,-121.45414,-118.70202,-115.23846,-112.05831,-108.45558,-104.67371,-102.24624,-98.719224,-94.181752,-90.556972,-85.308796,-82.599865,-77.193425,-72.156386,-66.924476,-62.236591,-59.105473,-53.070552,-48.058737,-42.685359,-38.947432,-34.440696,-30.621434,-23.314193,-19.21073,-13.781353,-11.436181,-7.8664874,-4.3321786,0.96706428,2.8851223,9.2947679,10.703157,18.202075,21.455026,27.435226,30.932902,37.92814,43.042535,47.581129,54.182499,57.657963,64.248947,69.606958,73.599532,78.611673,81.021593,87.378461,89.746558,94.362073,95.84808,99.439821,102.41687,105.53026,106.69782,110.0927,108.83491,112.65148,112.02391,113.27343,112.7794,113.87562,113.36051,114.36799,112.8881,112.24523,109.66477,110.09595,107.57554,107.15517,103.21649,102.61718,99.390564,98.595728,94.959175,91.892073,88.953294,86.460993,84.048492,81.46573,78.522217,75.573577,74.088842,70.330821,68.978033,64.755149,62.797632,59.67243,59.184181,56.218091,55.440723,51.67755,52.063207,49.560779,47.830572,45.392786,43.192363,42.235018,39.958247,39.240668,36.906096,34.652335,33.797979,31.514076,31.575514,28.794596,28.083925,26.300782,25.726883,23.683106,23.335971,20.313957,19.083681,17.995689,16.176921,15.567871,12.210717,11.817031,10.445063,9.9748372,9.2989846,6.478531,6.8187803,5.2821746,5.3407124,3.3550145,2.3071651,1.5516623,0.10041959,-0.77978428,-2.6485193,-4.0366621,-5.7800015,-5.6910223,-8.9542117,-9.5253396,-12.786022,-13.30782,-14.956955,-14.670392,-17.322991,-17.907022,-20.297478,-19.107683,-21.756083,-21.16901,-23.866884,-23.201667,-25.025821,-25.481394,-26.599919,-28.617862,-28.571862,-28.615844,-30.165007,-30.053157,-32.645218,-31.571241,-33.121113,-32.378853,-33.953393,-34.335813,-35.144003,-34.161068,-35.612748,-35.189882,-36.574397,-35.569675,-36.584968,-35.986347,-36.668997,-36.714175,-37.210897,-37.536379,-37.264443,-38.51907,-38.511004,-39.276366,-38.849831,-39.377804,-39.468471,-39.965148,-41.229156,-40.589565,-41.740707,-42.185797,-42.716398,-43.753796,-44.700341,-44.543321,-46.120081,-46.371334,-47.678691,-46.001627,-48.408142,-47.589696,-50.162584,-49.133447,-50.748792,-50.251126,-51.50238,-51.747627,-52.264946,-52.239656,-52.748366,-53.635971,-54.335303,-53.63281,-55.164283,-54.547694,-55.938309,-55.685994,-56.241557,-56.199229,-56.757567,-57.023295,-57.131025,-58.379695,-57.998345,-60.391481,-60.238196,-61.841936,-62.950723,-65.398421,-67.352237,-68.940397,-70.882872,-71.703203,-73.852526,-76.102671,-78.825301,-80.046492,-81.545894,-84.159134,-85.372783,-87.375209,-87.964216,-89.849395,-90.54028,-91.939932,-92.263383,-92.846073,-92.343842,-92.267007,-91.939787,-90.882857,-89.606355,-88.634028,-87.044581,-85.001971,-83.595202,-81.022033,-79.023356,-76.267501,-73.649111,-71.339152,-68.105673,-65.285737,-62.134977,-58.953845,-55.581632,-52.026076,-47.417704,-44.04665,-40.289749,-35.882912,-31.725836,-26.671978,-22.121578,-17.940923,-13.162295,-8.3369831,-2.6651507,1.4713335,5.6587748,10.488105,14.92637,19.568361,23.639268,27.929752,31.07159,35.846444,38.82961,42.917512,46.625359,48.884291,53.152805,56.046277,59.872991,61.503194,64.388888,65.928752,68.592551,70.589854,71.689976,72.602227,73.699287,74.950502,75.581297,76.70936,75.70675,77.078094,76.723902,77.935527,75.165617,77.052106,74.844561,77.197478,74.42772,75.271843,73.651962,73.753701,73.539753,73.490304,72.537952,71.712551,72.109578,72.335934,72.294955,73.26616,73.382573,73.767768,74.981648,75.88357,76.022451,77.795258,77.48605,78.868887,80.563179,79.930917,81.730169,81.420607,82.563479,82.692194,82.991516,83.708692,83.827262,83.232127,81.93411,81.772784,81.145636,81.057111,79.954603,79.534442,79.445088,79.079048,77.028968,76.520331,76.32636,75.508788,74.942829,73.24099,72.467493,72.023983,70.348268,70.284562,68.213453,66.868669,65.766093,64.715112,63.317256,61.563242,60.653252,57.623141,57.875128,54.147696,53.62039,50.865632,49.910563,47.460354,45.371223,43.649378,40.949697,39.4925,36.198305,33.737968,31.261102,28.079637,25.390867,21.526367,18.945028,14.562048,11.701758,6.9522168,3.8500233,0.11762049,-3.6278055,-6.9910269,-10.879848,-15.073525,-18.733329,-22.349825,-26.109304,-29.629262,-33.697939,-37.39282,-39.837467,-44.729139,-48.143633,-52.206125,-55.233434,-58.93703,-62.344641,-66.086876,-70.273881,-72.711044,-76.666817,-78.704445,-83.380517,-84.907456,-88.397897,-89.331805,-92.557854,-94.170879,-96.439129,-96.615957,-100.07319,-99.393564,-103.11342,-101.9343,-104.16433,-103.78939,-104.32636,-105.20636,-105.68354,-106.42219,-105.2166,-107.28311,-106.64098,-109.07723,-107.48433,-109.1548,-106.73342,-109.28481,-107.23588,-107.14767,-107.00557,-107.30144,-106.54141,-106.20433,-104.41161,-105.25414,-104.20587,-103.85775,-102.50065,-100.17315,-101.15858,-99.550927,-98.323772,-94.929355,-92.890186,-90.910356,-89.243052,-85.941778,-82.228104,-78.69099,-76.702899,-71.787347,-68.78938,-63.662002,-59.811468,-55.49162,-51.939012,-46.109666,-41.713546,-34.78795,-31.672904,-25.569708,-20.929695,-13.349757,-7.5228511,-1.8219635,3.7419852,9.198216,16.995703,22.664394,29.242524,34.513647,40.276769,46.985861,52.63942,59.674383,62.854582,69.822245,73.540059,80.865344,84.612206,88.841528,93.471123,97.810506,103.19914,106.29207,110.34781,112.60506,117.48492,120.72077,123.21365,125.8602,127.46246,130.05646,131.37361,133.10465,134.07625,135.39028,135.986,136.82495,137.50782,137.2042,138.56685,137.89835,139.51508,139.30258,142.08602,140.18213,142.1042,141.5128,142.24395,144.25921,144.64944,147.84705,148.33626,152.7013,154.01314,156.59456,158.74714,159.3629,161.3426,165.01791,164.60497,169.26484,169.67449,173.67025,176.9605,177.5838,181.6905,180.55701,185.15266,181.77022,188.57992,185.23695,185.76789,186.68658,187.35711,182.31999,187.27112,182.83444,184.24649,182.34394,181.56222,178.71396,173.58456,171.23851,168.2173,165.47914,157.76658,153.81233,145.43417,142.22415,134.3346,127.77832,114.5422,108.42092,98.876447,91.418114,79.477907,72.546819,62.600954,57.372857,48.157859,42.420979,32.224468,23.988994,17.277095,9.3425933,-1.6038524,-11.209242,-21.296449,-29.870495,-37.029282,-45.654445,-53.272234,-59.716711,-64.991769,-70.351861,-74.632135,-81.139658,-87.589852,-89.529871,-93.454029,-97.796053,-102.16897,-106.6114,-107.83226,-109.40223,-109.39005,-109.8892,-113.37004,-117.65902,-114.99289,-124.96034,-127.33791,-135.22276,-135.60243,-140.73136,-143.96074,-144.07249,-153.1171,-148.14662,-159.49856,-153.82692,-169.24011,-172.37109,-178.57066,-173.89427,-177.01136,-169.87977,-168.65572,-161.75524,-156.70646,-148.18501,-141.34072,-132.32895,-126.54346,-121.35106,-115.37284,-113.34492,-108.7362,-106.02962,-103.86984,-103.2959,-105.6377,-107.23721,-111.87542,-115.95614,-121.86999,-130.12572,-135.57115,-145.73244,-154.74062,-162.27046,-173.67851,-179.79035,-186.92189,-193.70787,-200.48657,-210.95246,-214.87634,-225.06803,-228.32155,-239.86347,-244.98071,-248.13129,-254.35334,-258.08313,-260.28111,-266.55621,-269.25015,-271.68796,-273.18704,-273.62076,-269.73297,-269.22838,-263.97758,-262.53004,-259.19622,-253.33249,-249.90589,-245.01279,-243.00369,-239.15464,-239.49884,-234.08235,-231.64637,-228.07183,-225.37458,-219.18125,-219.27954,-214.86316,-213.32182,-211.56579,-209.90922,-207.49537,-202.73429,-203.326,-198.69002,-197.37201,-189.87405,-187.88063,-176.2447,-174.26801,-162.40079,-160.04594,-152.95637,-144.52893,-137.72755,-127.72793,-121.5493,-109.10477,-105.10512,-97.81033,-92.396018,-87.073081,-81.715761,-81.335063,-78.685713,-83.628683,-88.445395,-91.204961,-90.408104,-95.526821,-87.655333,-85.209219,-75.118086,-68.079775,-54.737194,-41.567087,-29.183657,-6.5125983,6.9471278,35.63574,53.02675,91.358428,128.37292,172.14679,211.37687,258.74403,299.74024,349.38529,396.44194,446.44872,490.00997,537.30032,579.00342,624.66491,663.70932,704.08807,740.12798,775.51564,807.19172,835.73315,860.70784,884.10877,903.86409,921.20186,932.80606,941.3642,946.78661,947.68376,948.16576,943.33734,934.31584,922.90549,907.0777,885.43841,859.23035,829.37178,796.2827,757.80842,717.44856,673.67743,624.14425,575.25105,520.98423,466.78953,408.66805,352.61791,291.8168,234.87445,173.98513,115.51806,55.767776,-8.4882085,-65.207503,-129.14971,-186.39642,-247.95508,-305.94193,-365.86877,-421.53913,-476.6649,-531.36564,-580.70565,-627.54138,-674.05281,-720.38341,-759.90341,-800.62774,-832.71033,-864.20206,-888.54505,-907.69904,-922.98509,-932.9262,-937.47838,-936.81792,-930.91689,-917.59645,-904.09936,-878.85339,-858.31702,-825.50367,-796.9089,-757.77184,-717.80265,-678.25049,-633.32089,-594.1269,-549.55775,-510.26428,-468.82954,-428.68241,-391.22263,-353.0273,-318.88374,-282.2522,-249.74887,-214.74845,-180.49438,-146.87943,-113.69193,-80.70748,-51.86265,-20.97771,5.4387275,33.369342,56.348866,82.702744,101.3416,124.64251,141.12931,161.71737,175.05483,190.44002,201.65408,213.08485,218.91653,226.39016,229.00155,232.17134,230.61233,228.19733,225.29666,220.37188,213.89354,205.87815,196.47007,185.78047,175.15026,164.72205,153.02022,141.04439,128.03272,115.63631,101.88754,88.649582,74.521823,61.302401,46.580954,34.696533,20.172645,8.4357354,-5.5458693,-14.806258,-28.156633,-35.219399,-46.997204,-52.700787,-62.671947,-65.603864,-72.64015,-75.344009,-78.10447,-79.563403,-78.902624,-77.682012,-75.704668,-73.644538,-68.650869,-62.899628,-55.577591,-47.824522,-38.294808,-28.721777,-17.260816,-6.4452495,5.819268,17.954214,30.510348,42.638506,54.778359,64.50909,74.640451,82.951637,89.043349,94.533803,103.24066,106.6445,114.43154,118.79138,126.42162,129.50985,137.46691,141.73363,149.54655,153.07316,161.43479,164.69216,171.45412,176.78481,181.71021,186.91046,191.30277,195.64833,200.85012,204.30655,210.07074,212.29939,216.49061,219.82844,223.59335,227.9689,229.49354,234.3207,234.27769,238.5679,239.46481,241.1804,242.644,244.30212,246.94129,249.95803,251.11218,253.86076,254.6842,257.79865,257.98486,258.63199,258.24216,259.93653,260.10413,261.17259,260.18421,260.22149,259.24136,259.10024,255.5339,254.81036,248.74675,246.7741,241.44634,238.40749,233.07647,229.41638,222.08097,217.9369,209.89428,203.80882,195.80961,188.24705,178.66553,169.13208,157.25623,144.54495,131.4284,118.47014,103.53895,88.865362,71.282167,56.552044,37.147049,20.996702,2.0473596,-17.026779,-34.926091,-56.14486,-73.721289,-93.146303,-111.04167,-129.90311,-148.80604,-165.163,-181.9782,-198.10767,-212.03748,-226.87442,-239.84861,-251.23581,-260.28364,-266.37251,-274.58213,-278.46533,-283.12224,-287.09223,-288.229,-288.4852,-286.03738,-284.58712,-281.43385,-277.91334,-272.57531,-267.43482,-260.23601,-254.61824,-244.80812,-237.23104,-226.80723,-217.96151,-205.55257,-196.98433,-184.13335,-175.91243,-161.53125,-151.68115,-140.14546,-128.22775,-116.90702,-104.66884,-94.886671,-81.817503,-73.390273,-59.121036,-51.835897,-39.87043,-32.172442,-22.193636,-14.209134,-6.5135207,1.6066053,8.53079,14.455624,20.514491,22.450323,26.491507,26.924879,30.720959,32.058081,32.659278,33.495925,32.310342,31.995956,31.017599,29.606148,26.476916,22.565465,17.932776,13.51467,7.6349536,5.6841163,0.55330451,-0.98575785,-6.7609555,-9.5225018,-15.205738,-19.751948,-24.314632,-26.807332,-30.298963,-32.662169,-35.119741,-36.390504,-37.985559,-37.397864,-38.339321,-37.668702,-35.206459,-33.840169,-30.928708,-28.67745,-26.924777,-26.236645,-24.577582,-24.715647,-22.502745,-22.368386,-22.344908,-23.450462,-24.373105,-26.351874,-26.921395,-29.736955,-31.372777,-35.081599,-39.107695,-42.174542,-47.760777,-48.641579,-54.318999,-56.666894,-63.063407,-64.901057,-69.344646,-72.114699,-77.328706,-78.777056,-82.567929,-83.258739,-84.786513,-86.200405,-85.318637,-89.781675,-87.360838,-89.305559,-88.678199,-87.907435,-86.57541,-85.540022,-85.38261,-83.910651,-82.499841,-80.386989,-78.45767,-75.195398,-74.394586,-69.032191,-68.646616,-61.754125,-60.188768,-54.612961,-54.473076,-48.235594,-47.227503,-40.534683,-37.863808,-34.486908,-27.881873,-25.781273,-18.778946,-17.095012,-9.634824,-8.4488356,-0.74188858,-0.43510996,7.1809022,8.3617514,15.65717,17.999761,24.865218,28.533484,32.907693,34.927557,40.235512,40.065397,46.263472,47.840376,53.148865,53.886959,56.430134,56.28636,58.935119,60.114133,62.141343,62.66787,62.84128,62.982645,62.97515,64.072708,63.973614,65.341609,64.743189,65.832936,63.876971,64.193126,63.380389,62.973909,63.063323,64.390737,62.448324,63.456827,61.492792,62.506775,61.864613,63.226779,63.630199,65.0877,65.842714,65.900985,66.964443,66.069137,66.270339,64.850593,67.335761,65.338967,67.643634,63.408226,65.651158,62.303171,64.345526,63.376185,64.247745,63.258322,64.230182,62.52284,63.275278,61.596485,63.390414,61.365978,63.936164,62.169975,63.601542,62.059877,63.665187,62.805484,63.458509,63.824832,64.220349,64.588051,64.979795,64.895809,66.154299,64.662173,66.758786,65.622024,65.964729,65.62298,65.207951,65.365394,65.0765,65.413142,65.13763,64.601775,65.732053,64.277852,64.273325,64.215578,64.658093,64.927129,64.926001,64.599912,65.366793,65.020517,66.057484,64.832847,66.323582,64.491981,66.335388,64.209285,65.441456,63.593118,64.988426,63.148441,65.009563,63.752977,65.202473,64.583989,66.351717,64.479351,65.676662,64.516394,64.958659,64.060444,64.667146,64.180784,64.097759,64.206463,64.44051,64.649387,65.286514,66.20755,68.423963,68.147867,69.99672,70.25883,71.820014,72.090978,72.282979,73.614225,72.401818,73.83611,73.309486,73.820486,72.943592,71.641847,71.334534,68.72235,68.80846,66.666042,64.486116,60.641427,57.640424,54.728048,51.493138,47.148029,44.206616,38.174707,34.959715,28.305167,24.37998,17.997902,13.287932,6.9374422,2.4254521,-5.9383359,-11.202778,-18.996883,-24.636956,-31.957829,-36.733638,-44.794416,-49.340599,-57.244763,-62.549361,-71.177576,-75.841517,-83.496066,-88.690984,-95.633923,-100.85318,-108.409,-113.40346,-119.53064,-125.00954,-130.79096,-136.32395,-140.67564,-145.35957,-149.75101,-154.97695,-157.91325,-161.76141,-164.31434,-168.45436,-171.85411,-174.61545,-176.94546,-178.82523,-180.15087,-182.17565,-183.42402,-183.63235,-184.33977,-184.0598,-185.43558,-183.31438,-183.72364,-181.66713,-181.78507,-180.53482,-179.9514,-177.15946,-176.44817,-173.32082,-173.68651,-169.57865,-170.09907,-164.5425,-165.31629,-161.44074,-160.88077,-157.32002,-160.57735,-156.1981,-159.43385,-157.87173,-161.36595,-160.94034,-164.81788,-165.97343,-168.93354,-170.37584,-173.46634,-174.70701,-177.98295,-179.93128,-181.60258,-182.21411,-185.3538,-184.65033,-187.47944,-186.48264,-188.72479,-188.04202,-189.43882,-188.40698,-188.63734,-186.23072,-185.9618,-183.95604,-182.34361,-179.59794,-177.10432,-175.11589,-172.01867,-168.78684,-164.88615,-161.35253,-157.68404,-154.16067,-150.12891,-145.86888,-140.0702,-135.94769,-131.01666,-125.70851,-120.77911,-113.14223,-107.4798,-99.204635,-93.219951,-86.910274,-80.506655,-73.607832,-67.46925,-59.776894,-51.608397,-45.006974,-37.009719,-30.872853,-22.563962,-14.572233,-8.5067661,-0.81096071,5.3298267,12.49332,18.166798,24.171562,30.633982,35.467078,41.776746,46.785511,53.369713,56.859295,63.513187,66.535684,72.436736,76.200436,80.897349,84.091852,89.044079,91.46837,94.708356,96.853545,99.617745,102.23537,103.9687,106.33666,107.332,109.96707,111.28488,113.16951,114.70538,115.6399,118.80824,119.41537,122.36474,122.31487,125.7657,126.99711,130.90658,133.95552,136.82854,139.3951,143.64782,146.98548,151.84965,155.9913,158.27886,162.87192,165.69389,168.83371,170.42691,176.38678,177.13896,181.07346,183.87724,187.36511,189.63226,192.92749,196.58602,200.07767,202.97285,205.66287,207.56588,211.13894,213.64914,217.76997,218.71455,225.49099,225.2922,232.01048,232.13488,237.55454,239.81789,244.74014,248.84681,251.60335,255.17396,259.50924,263.09833,267.87809,270.99882,272.98676,278.49678,280.41641,286.28684,287.52728,291.14537,294.21165,296.34755,299.0385,302.2475,304.36243,307.42078,310.66306,313.93662,318.57252,320.83272,324.75233,327.05197,330.78733,334.48648,337.97742,342.80782,345.31821,351.27097,353.49505,358.42558,362.87726,366.59687,370.46394,373.29945,377.9443,380.52149,384.44062,387.52629,391.67811,395.98828,398.46342,402.79689,404.77482,408.95754,409.76595,413.80039,413.86128,417.13314,417.09757,419.24371,418.4047,419.8022,417.72887,418.67511,415.94082,417.0357,413.04178,412.54461,408.28605,407.71292,403.20364,400.20061,395.24986,391.1554,386.85205,381.59696,375.70085,368.03403,360.23661,352.67823,344.46511,335.58135,326.64614,315.22006,306.67735,295.15856,284.55262,272.39051,258.80417,246.50854,232.99744,218.83019,203.55126,188.77989,173.31645,157.79674,141.68975,124.76639,107.08967,91.07994,73.162323,56.407351,38.254441,19.998887,2.4015989,-15.160051,-32.952764,-51.675501,-69.852156,-87.49814,-103.98715,-122.47592,-138.27173,-157.2008,-173.11438,-189.20172,-204.53802,-220.40395,-238.14423,-251.20295,-267.85883,-281.1524,-298.22254,-310.98848,-327.54976,-336.76534,-354.18567,-364.54353,-382.98324,-393.0638,-408.17669,-420.17294,-435.06837,-446.52373,-461.00237,-471.5939,-485.24448,-496.47236,-508.68037,-520.37249,-531.37152,-542.60469,-554.06324,-565.86618,-576.55607,-586.21449,-597.39568,-605.35895,-617.6418,-625.72428,-637.23585,-645.29387,-655.51379,-664.3779,-673.52392,-683.4689,-691.00654,-701.49408,-710.4292,-721.57457,-731.13993,-743.44131,-753.59885,-765.83372,-776.7881,-789.63175,-802.18093,-814.42949,-827.38872,-838.62944,-852.47611,-865.06475,-879.44471,-888.54613,-904.09951,-911.69027,-929.75535,-936.00819,-952.06406,-955.7983,-970.55128,-973.19025,-986.2165,-987.95673,-997.24034,-1002.7301,-1012.4957,-1020.792,-1030.1831,-1040.6735,-1049.6435,-1060.474,-1072.7089,-1086.1972,-1100.1258,-1115.9314,-1127.3314,-1143.5785,-1155.9823,-1170.0356,-1183.3795,-1194.7886,-1203.7394,-1207.2665,-1212.4797,-1216.049,-1223.0543,-1227.4447,-1232.964,-1235.9279,-1237.6343,-1246.2136,-1248.9575,-1259.7699,-1263.7053,-1270.8031,-1278.9796,-1286.6704,-1294.6749,-1301.4817,-1309.577,-1314.6134,-1321.811,-1327.3126,-1325.9874,-1325.1424,-1327.3614,-1325.0418,-1324.6018,-1316.6997,-1310.4865,-1301.6651,-1293.4602,-1280.0691,-1266.2732,-1248.9672,-1232.4378,-1206.9632,-1191.2328,-1155.7477,-1136.872,-1099.4873,-1077.0044,-1035.0958,-1007.1136,-962.43239,-931.24821,-884.24334,-847.20943,-799.86871,-758.90618,-708.25888,-662.9404,-608.19946,-555.89739,-497.51005,-440.32898,-377.42077,-317.57409,-250.84412,-186.08817,-113.2282,-43.615988,32.075945,103.73131,180.97295,253.72621,327.48494,396.30999,466.75924,532.92498,602.69317,661.86174,727.71923,785.60396,845.9144,906.51793,969.7843,1032.6382,1095.9788,1157.4384,1222.4254,1287.6358,1358.3124,1424.1833,1497.393,1565.6752,1642.1081,1712.4039,1789.1468,1857.9462,1934.7786,2001.3492,2074.2267,2134.7999,2196.7658,2251.9305,2307.0825,2355.1751,2401.955,2444.0106,2482.0239,2517.4685,2551.5587,2581.8189,2613.671,2642.6955,2669.7363,2696.9591,2724.4408,2750.1456,2777.7089,2803.285,2828.5097,2845.6214,2864.0638,2877.6858,2895.6723,2907.0681,2921.9947,2929.5444,2934.4887,2942.2745,2943.4631,2955.796,2952.5791,2958.7186,2961.4568,2967.8682,2969.4816,2973.3617,2979.7848,2981.4249,2987.3047,2988.0214,2988.9398,2982.9032,2986.2574,2981.9335,2982.7694,2975.4143,2971.9097,2963.1858,2957.8771,2945.5508,2932.1455,2915.4218,2897.5872,2870.1935,2850.6538,2810.8498,2782.8109,2736.7448,2699.1218,2644.5904,2593.7506,2529.4286,2471.1447,2398.6226,2328.8756,2250.9726,2173.5897,2087.3604,2004.5256,1911.4426,1819.4796,1719.4387,1619.1167,1512.3687,1407.1921,1294.3739,1180.6978,1059.5271,935.99874,805.73069,672.66494,531.56983,387.57337,238.88432,90.20831,-64.008448,-217.48714,-378.81511,-528.58465,-685.8773,-837.03009,-985.26003,-1130.2079,-1272.8028,-1413.2767,-1548.9684,-1676.9575,-1800.2456,-1915.0869,-2029.6423,-2134.7395,-2236.7694,-2328.3288,-2416.5505,-2496.6817,-2572.4007,-2640.4838,-2703.9267,-2760.1633,-2812.801,-2859.3022,-2899.2105,-2932.6558,-2959.917,-2982.5954,-2999.0641,-3010.5987,-3013.4762,-3014.3292,-3008.7977,-3000.3478,-2987.7079,-2969.7708,-2949.1964,-2925.5032,-2901.8915,-2874.2761,-2843.9326,-2812.1114,-2779.5604,-2746.1792,-2711.5338,-2674.4351,-2637.6626,-2598.9902,-2562.9701,-2524.4754,-2485.4006,-2443.3772,-2400.8421,-2365.3421,-2319.1239,-2281.0389,-2237.7377,-2201.6521,-2159.5511,-2122.7908,-2085.4368,-2047.7252,-2011.4643,-1972.6959,-1938.4775,-1898.1014,-1861.78,-1824.1959,-1789.7242,-1752.6494,-1719.9072,-1682.2001,-1651.3346,-1615.8852,-1585.2346,-1549.8619,-1518.4203,-1483.2956,-1454.0065,-1419.7864,-1389.4744,-1355.1037,-1322.9462,-1291.595,-1258.556,-1225.6338,-1191.9291,-1158.5224,-1124.9248,-1093.8426,-1060.0638,-1026.1532,-993.59171,-962.56914,-932.38618,-902.2054,-868.85608,-841.77607,-810.03619,-783.46888,-750.59121,-720.49556,-687.64353,-658.93202,-627.58862,-597.2934,-562.49264,-530.82604,-497.00837,-465.8365,-430.24662,-395.93324,-358.71835,-325.62224,-286.20401,-250.80691,-210.98666,-174.47686,-134.41564,-96.41949,-56.702912,-17.475677,22.059022,61.675699,100.22754,140.62604,177.82905,218.36935,254.39655,293.63091,329.07408,366.96919,401.77601,436.83872,470.49178,503.84169,535.71159,566.43369,596.45446,624.63424,652.25115,678.16359,702.97476,725.99385,747.94476,768.55764,787.28863,805.18653,821.09588,835.60662,849.04443,860.28862,870.35233,878.75448,886.00259,891.74416,895.93451,899.35671,900.17185,900.67348,899.54451,897.07928,893.91683,888.7539,883.67627,876.38694,869.25331,860.21193,851.34292,840.53249,829.28298,818.39242,805.66577,793.43402,779.9971,767.27916,753.62395,740.10549,726.50791,713.99984,700.5411,689.02458,677.37927,666.70873,655.07265,645.72685,633.97384,624.18152,613.01597,603.95572,592.47281,584.69185,575.17489,567.43507,557.59322,549.53379,540.84007,533.74874,526.11353,520.58893,514.49291,508.8709,499.47841,490.26647,482.34236,472.95386,465.18099,454.5787,447.79595,438.11388,430.75831,422.16807,415.63981,409.77443,405.91745,403.68888,404.48256,406.30656,410.85061,418.234,426.78516,437.99834,448.50439,459.55942,469.77709,478.67251,487.2846,497.13299,506.27913,515.10387,522.59458,537.85125,559.33464,577.96546,600.83672,625.90735,654.62207,680.71154,706.57881,736.07826,756.219,781.84983,805.38373,823.46156,847.54018,864.70676,884.9852,899.95472,907.17202,917.70703,913.67701,919.47699,909.54812,906.10048,893.4022,882.15579,862.44846,844.75219,819.09656,794.674,760.75123,728.2604,688.40199,658.22,602.22865,571.59074,515.86833,483.46829,424.89066,389.32388,326.90752,288.56802,227.33147,186.5947,125.75958,84.508814,26.136112,-15.996231,-71.073649,-115.84408,-169.44493,-215.69001,-265.56546,-312.31516,-360.34777,-404.61186,-442.03932,-484.4793,-521.33742,-553.51725,-587.23928,-616.42386,-643.66825,-666.03961,-688.48341,-707.4692,-723.27805,-738.23545,-745.92701,-755.855,-757.16957,-761.48723,-757.49878,-755.55016,-752.20031,-745.32656,-740.37421,-725.68751,-718.62386,-703.94248,-695.66735,-682.18588,-673.10819,-658.78149,-648.15452,-636.48299,-628.59875,-611.59366,-601.12889,-581.79228,-571.33763,-551.65992,-540.27352,-516.47335,-508.19249,-482.26069,-470.22111,-446.63867,-434.35385,-415.17594,-407.90553,-392.92526,-392.23954,-382.03456,-385.03321,-380.71966,-381.23134,-376.65982,-372.82188,-365.1362,-357.87186,-337.84436,-325.59085,-310.06087,-294.8067,-278.08162,-257.52061,-243.46643,-223.32192,-205.30678,-189.34171,-164.85792,-145.86842,-122.36907,-100.1832,-79.828861,-60.487122,-42.259351,-31.850937,-8.272353,-3.572637,22.233585,23.560587,48.415897,49.945443,67.170592,67.711287,81.890409,82.144021,92.852428,89.586458,99.076411,98.898064,108.47107,96.891988,114.06532,102.91973,117.86401,107.99864,119.63509,109.94385,120.14714,114.80932,125.08032,115.68854,128.1931,116.24798,126.44976,111.02686,115.60971,100.60759,99.071149,85.735585,81.613052,69.47326,67.586101,53.959493,43.307402,34.507447,29.373589,13.111587,8.8889323,0.077609839,-5.6920328,-16.07499,-24.438349,-32.423528,-40.889178,-42.997079,-56.171689,-56.510118,-68.615664,-67.789042,-80.830033,-84.65969,-92.445155,-101.1926,-102.48469,-114.5884,-111.25392,-119.97657,-119.70306,-125.39649,-128.47387,-131.37415,-130.02949,-134.83396,-125.97408,-129.62157,-125.1131,-124.97611,-122.05706,-119.64587,-114.7012,-110.84471,-100.80601,-99.389389,-89.218086,-85.736844,-76.751157,-71.098566,-61.29362,-58.834528,-45.783855,-43.15925,-29.325032,-25.074406,-13.129927,-6.1451424,5.2630694,13.429409,25.175144,32.88891,46.236836,52.505504,67.194138,77.379391,86.623278,97.633899,107.88124,116.32462,128.1395,132.13419,145.31659,145.74267,159.50321,161.01678,170.43238,171.15454,181.26445,179.50315,185.61754,182.76944,189.09192,183.66006,187.38983,182.50404,180.90546,177.58072,176.30752,170.03375,166.56743,159.21151,154.31693,145.91108,144.00578,139.03989,135.13579,131.16006,125.44021,122.47113,115.76739,117.35779,106.91969,107.3994,103.84325,99.749739,95.886911,89.195226,87.571902,81.156208,78.736046,73.170774,71.984239,66.28154,66.416383,58.804954,59.878695,55.305194,54.265703,48.382212,50.675516,44.181704,41.456301,38.188826,35.919714,33.505643,32.097947,30.239218,25.690651,29.303087,23.4765,25.468183,18.870374,22.055996,17.723673,17.657331,17.912342,16.608344,18.531504,14.208227,13.278126,10.1105,6.6528089,8.9322021,6.4456374,5.5790516,7.0465828,5.4140195,3.8315969,6.0625293,2.5695635,4.9517192,2.533391,6.1251871,2.1762266,5.0211788,1.6727603,4.3246805,-0.97420645,4.4551906,-3.1855587,-1.0735684,-4.3323645,-4.4407536,-5.992725,-7.1885487,-8.3157028,-9.1809843,-7.3727396,-11.606396,-11.460715,-13.890221,-15.787764,-18.454656,-19.003663,-21.773415,-23.591463,-25.119842,-28.331492,-29.69659,-32.235388,-36.622286,-34.981163,-39.000318,-35.726336,-38.422134,-37.631947,-39.448185,-39.320053,-40.781144,-41.384023,-40.312683,-41.737662,-40.647856,-41.864573,-38.72257,-38.930993,-33.285215,-32.672414,-28.322016,-26.427506,-21.270189,-17.417116,-13.39258,-8.1608206,-5.3779,0.58987295,2.5055874,8.6602321,10.276385,15.753777,20.633684,21.427365,28.674763,28.872761,34.184098,32.227995,38.186633,35.852091,40.734125,37.818898,42.128729,38.885985,41.324298,39.005596,39.991755,36.066264,36.397552,31.875171,31.353672,27.970596,24.45087,21.517327,18.182367,13.689091,9.8441162,6.3055566,1.438986,-3.0856279,-7.1467728,-13.240048,-17.189022,-24.336458,-28.620019,-35.797737,-41.258153,-48.957715,-54.291545,-62.123768,-67.720288,-74.004885,-77.919435,-83.164537,-84.975716,-91.407537,-93.728117,-98.696243,-100.67843,-106.36174,-106.50471,-110.05518,-110.75443,-113.45488,-114.37283,-114.43323,-116.36384,-115.03055,-114.2102,-114.87975,-110.54901,-113.27104,-106.76057,-105.71477,-100.54035,-98.320727,-94.545425,-92.883553,-89.795111,-88.023326,-87.679368,-83.889501,-85.680856,-82.487958,-82.379885,-79.408224,-78.536806,-75.571723,-73.508861,-72.065844,-69.958984,-67.925449,-63.771739,-61.461746,-59.020758,-56.489483,-52.513491,-51.367761,-47.046278,-44.905484,-40.269537,-37.739503,-33.246655,-30.588369,-25.21396,-21.867511,-15.908829,-11.28163,-7.3865522,-0.92873148,2.3030286,8.9431254,12.360738,18.963985,23.081229,28.236381,33.937862,39.681524,43.544615,50.176626,53.23524,60.299788,65.536298,68.419124,75.600214,77.109589,84.7599,84.752713,93.076935,90.46985,97.248933,95.592682,102.36995,98.683779,103.4572,102.02447,104.01129,101.62786,104.17065,100.70707,102.1378,99.646395,98.291394,96.317388,93.208956,90.467644,87.595671,82.951527,80.200659,75.263024,71.100238,65.689781,62.131697,56.034356,52.28683,45.021915,41.511897,33.358943,31.411535,22.550094,19.248635,11.954282,8.6065215,1.8109095,-1.6562447,-9.4245436,-11.082082,-18.43153,-20.942396,-27.304135,-29.064192,-32.957177,-35.042981,-38.122944,-39.453042,-40.102794,-42.570032,-38.792414,-42.350318,-37.791506,-40.820665,-36.279093,-38.307028,-33.517821,-36.183519,-31.467916,-34.68095,-29.565368,-31.657452,-28.117235,-29.989491,-26.314785,-27.264058,-22.63458,-23.822338,-19.704174,-19.563749,-15.168572,-14.347447,-11.838101,-9.4204503,-7.1882059,-4.153798,-3.1191967,1.8475762,2.8526185,6.7239209,8.3582084,11.505405,13.504723,15.984354,16.47532,19.631207,19.42127,22.751501,21.944183,24.026782,25.008251,25.955097,26.869462,25.945014,27.587482,26.346104,27.709466,27.83376,24.674416,28.213122,23.127666,27.181565,21.543648,26.310878,21.026222,24.541202,19.964904,21.708193,17.118499,18.093811,13.043044,13.710394,8.7802463,8.3240911,4.4906259,2.9652432,0.1808457,-2.1299965,-4.6984171,-7.9512296,-10.739984,-12.923393,-16.735538,-19.575788,-22.32891,-26.907737,-27.864653,-33.801796,-35.442944,-40.413438,-43.182967,-45.245721,-49.095595,-51.653032,-55.165919,-56.594828,-61.115658,-61.89717,-66.576005,-67.57982,-70.49773,-71.765633,-73.92958,-77.31521,-77.23045,-79.892763,-79.434471,-81.53624,-81.870562,-82.838342,-84.956223,-84.061368,-86.065471,-85.219403,-88.733691,-88.503852,-91.484695,-91.606175,-93.881471,-96.392029,-95.638463,-100.32711,-98.181234,-103.23655,-100.95464,-104.60113,-101.31278,-104.3109,-102.95279,-104.32841,-102.10576,-103.30216,-101.59237,-101.12251,-98.275738,-97.718262,-93.96074,-92.627946,-87.672246,-87.678895,-80.452232,-79.498409,-73.080687,-69.435614,-63.769732,-57.570096,-52.119425,-43.87314,-39.872373,-31.834083,-26.637037,-19.101169,-11.870629,-4.8662455,1.4653058,9.752593,17.02923,25.091989,31.695825,40.132798,47.243976,54.417453,61.352573,68.459276,74.986308,81.384818,87.328431,95.269634,98.917394,108.34705,110.32388,119.76473,122.11419,131.68746,131.7302,140.38531,141.16258,146.71241,148.24116,153.16728,153.52907,158.3534,159.0395,161.22595,161.69635,162.99297,163.447,162.97733,163.04414,161.94384,161.20998,160.87145,161.06894,159.34178,159.8491,158.1085,158.78102,156.32308,157.54739,154.95672,155.20543,153.86396,152.88258,151.53516,150.15139,148.01911,146.03912,145.10768,142.08748,141.23874,138.92058,136.27211,135.90916,131.48825,134.74818,127.98937,130.39536,125.59166,124.45684,120.06916,118.39808,114.07224,111.50196,107.21341,102.51076,98.36188,92.784415,89.280261,83.631419,79.319043,73.962886,67.72015,64.7498,57.748576,52.7017,47.304131,40.804775,35.444088,28.802048,24.968917,15.886529,12.728293,5.1388423,1.9841586,-5.136522,-9.7973089,-15.552031,-20.676958,-25.405703,-31.069321,-33.025413,-40.678204,-41.30267,-47.468583,-48.113576,-53.990266,-54.689635,-58.543817,-60.743727,-63.505003,-65.751715,-66.846036,-68.230327,-69.665273,-70.148748,-70.383677,-71.289875,-71.92228,-70.67183,-70.638155,-70.404098,-70.095756,-69.305455,-68.230003,-68.027995,-65.415613,-65.658398,-61.999375,-62.678047,-58.784352,-60.400026,-55.523077,-56.987045,-53.168986,-54.79043,-51.68008,-53.33871,-51.74432,-52.757216,-50.997664,-53.834811,-51.425041,-55.372834,-53.839497,-57.471125,-57.498152,-60.858861,-60.687858,-64.030608,-62.680049,-66.085207,-65.432563,-66.581218,-67.149826,-67.795011,-68.047573,-69.473658,-69.213843,-69.714794,-69.924559,-70.06991,-71.265862,-70.567103,-71.286925,-71.279136,-71.603355,-71.667215,-71.612163,-71.50102,-71.168921,-70.744495,-70.295702,-70.105479,-69.57333,-68.732123,-69.868797,-67.883382,-68.249453,-67.713788,-66.372644,-66.641588,-65.24068,-65.790422,-63.316741,-64.254363,-62.531083,-63.122708,-61.146311,-61.923924,-58.955129,-61.375192,-57.67837,-58.899799,-57.290901,-56.402155,-55.692903,-54.640883,-53.686605,-52.64336,-50.542205,-50.258268,-48.465105,-47.449091,-46.638038,-44.515807,-43.748985,-42.450489,-41.111821,-40.422344,-38.476209,-37.59818,-36.020195,-35.261833,-32.657586,-31.530408,-29.776889,-28.104243,-30.100595,-25.359302,-24.263332,-21.777685,-19.179907,-17.291329,-14.130512,-12.874045,-10.55237,-10.540879,-7.9406973,-6.6503117,-4.5960809,-4.2566056,-2.5758973,-2.4502876,-1.1619149,-0.87070914,0.30349711,-0.79809024,0.86929388,-0.21017654,1.3899378,0.25423634,1.7221669,0.48080825,1.3523323,0.3894263,1.4021211,1.0516336,-0.015558131,1.0294485,1.4661745,1.6604351,2.2287005,0.8341582,1.3215828,0.38714976,-0.36140452,0.20981108,-1.6632866,0.24900173,0.46550746,0.50228475,1.6069116,3.3473712,3.1190022,5.3756985,7.4750819,9.166572,10.74917,13.744791,14.772332,18.510401,18.512242,22.367732,22.629567,27.361957,27.974319,31.661589,32.789988,34.994565,37.992744,40.203068,41.756474,43.837977,45.303474,49.046205,48.903258,52.749742,50.968658,55.084814,54.517327,57.640811,57.856927,58.271047,59.574849,59.375475,60.252278,59.101607,60.467157,58.868801,60.315085,57.792297,58.743892,55.935912,57.130717,53.477177,54.202119,52.828743,50.51891,50.104705,47.463942,46.479149,41.899474,42.36112,36.690821,38.146032,32.364012,30.977533,26.091529,23.926397,20.639481,18.110123,14.406137,11.284145,8.2178649,5.9431585,2.3752916,1.1138439,-2.9707827,-0.38944131,-5.3088277,-4.0489683,-7.0918428,-7.3228382,-9.3424614,-11.542058,-11.550531,-14.040675,-12.812634,-15.405713,-12.101941,-15.447273,-12.376895,-15.339878,-11.614056,-14.002674,-10.397302,-11.247968,-8.5602949,-10.418093,-8.389312,-9.7642811,-9.6283311,-11.354347,-12.212972,-11.775567,-13.821209,-14.844018,-16.840119,-16.358507,-18.456403,-19.258973,-21.319358,-21.219423,-23.252899,-22.17101,-23.194047,-20.637153,-20.651171,-16.91376,-16.113401,-12.134481,-11.50493,-5.9917483,-8.0961812,0.50357499,0.90634076,5.6949858,7.5943013,12.235141,11.947899,15.747724,15.333867,21.610541,21.990723,26.944105,27.831539,33.0335,33.339835,37.307672,39.996564,43.118277,46.427581,48.611084,50.934282,53.870451,56.095176,58.995241,59.694201,64.739525,65.772557,69.208505,70.635958,71.896458,75.965136,76.068826,78.369247,78.860322,79.659137,78.990775,81.172263,78.521945,80.532449,78.192888,78.353828,75.216221,77.38475,75.198783,74.788294,76.125124,77.86083,80.953879,80.517725,84.064893,82.661773,87.387597,87.227311,90.865534,92.450016,94.792449,95.991533,96.483936,97.01453,97.297486,95.531881,95.328704,92.094751,92.450734,88.376069,85.540351,83.113387,79.630303,77.210663,73.262312,70.169745,65.677157,63.742475,59.168921,57.273893,50.774767,50.532313,38.297639,38.686925,27.723629,25.417356,15.097107,13.417116,3.1681466,-1.4014654,-12.579834,-19.544496,-27.58379,-36.816575,-45.619377,-54.987639,-64.681183,-76.011969,-83.250716,-94.251946,-102.86091,-113.94905,-120.06587,-128.86956,-133.53002,-143.37118,-147.22441,-155.20781,-157.90305,-165.44138,-167.78435,-174.2153,-175.76359,-180.70773,-181.61839,-187.02694,-184.71461,-190.8385,-187.16896,-193.30319,-190.4314,-195.53964,-189.82709,-189.70797,-184.87411,-184.93123,-178.19304,-175.23541,-168.82128,-166.01637,-158.57176,-154.50716,-146.81233,-141.53617,-133.92295,-127.85583,-121.08815,-112.80017,-107.04969,-96.227245,-91.391986,-77.782748,-74.837175,-60.290415,-59.309176,-43.455698,-45.174784,-30.145232,-32.415324,-19.645041,-20.412309,-11.398934,-13.612404,-5.5781943,-8.0350873,-1.7945512,-4.2037655,2.664669,1.982763,8.3103147,10.780858,16.339485,16.88644,21.232697,24.21501,27.547425,30.945265,33.750052,36.53403,39.535195,41.254757,41.340816,42.844296,42.911647,42.387088,40.8856,42.787621,36.986994,43.677494,35.244673,38.389258,33.543073,36.376742,32.8143,32.980257,30.917657,30.208544,27.282428,27.016428,22.654845,21.718682,18.104758,15.427355,14.871726,13.14806,11.902554,12.252094,10.516743,9.2979255,8.0919594,4.7366858,4.4016688,2.4761757,0.51486276,-1.8742219,