ConstAcc,0.5,0.26265,-31.537079,-31.458613,-31.276289,-30.999305,-30.636455,-30.196144,-29.686391,-29.114837,-28.488753,-27.815043,-27.10026,-26.350603,-25.571934,-24.769775,-23.949326,-23.115462,-22.272748,-21.425444,-20.577507,-19.732608,-18.894132,-18.065185,-17.248606,-16.446972,-15.662602,-14.897569,-14.153707,-13.432612,-12.735658,-12.063997,-11.418572,-10.800119,-10.209177,-9.6460969,-9.1110438,-8.604009,-8.1248147,-7.673122,-7.248438,-6.8501229,-6.4773974,-6.12935,-5.8049438,-5.5030241,-5.2223256,-4.9614797,-4.7190211,-4.493396,-4.2829686,-4.0860286,-3.9007983,-3.72544,-3.558063,-3.3967312,-3.2394698,-3.0842728,-2.9156997,-2.6884983,-3.6930495,-3.8556966,-3.5199474,-2.1956373,-1.4801985,-1.5618117,-1.2756084,-0.49752305,0.62061933,1.8512252,3.0701083,4.01985,4.9132474,5.8022883,6.4344782,6.7562261,6.7332761,6.5356688,6.3474474,6.059953,5.7312137,5.3937767,5.191951,5.0915397,5.2966297,5.6144092,5.8638743,6.0579539,6.2660571,6.5932955,7.114964,7.7050208,8.4073828,9.1980417,10.167393,11.33486,12.633768,14.127621,15.846484,17.690277,19.664655,21.685134,23.642311,25.484446,27.258849,29.01789,30.922986,32.966375,35.097855,37.286607,39.543765,41.850085,44.275063,46.609135,48.975132,51.35042,53.776753,56.287317,58.83129,61.248864,63.645213,65.974549,68.331496,70.624005,72.901181,75.221369,77.708616,80.26051,82.825424,85.263397,87.661052,90.174205,92.707454,95.118429,97.391931,99.589782,101.8168,104.10271,106.34363,108.5253,110.4701,112.43251,114.31053,116.11269,117.74339,119.33076,120.87577,122.41004,123.85659,125.1456,126.27986,127.32924,128.30629,129.22302,129.817,130.20005,130.46707,130.53747,130.48258,130.39018,130.22452,130.11353,130.04988,129.937,129.85044,129.65071,129.44574,129.27153,129.11462,128.863,128.53031,128.21143,127.87311,127.63671,127.25601,126.86886,126.4893,126.19976,126.06555,125.86199,125.66946,125.45079,125.34968,125.2517,125.10579,124.82203,124.48712,124.12939,123.73049,123.31176,122.93517,122.61208,122.39343,122.21658,122.08301,121.73001,121.39104,121.14504,120.94268,120.69599,120.39381,120.04863,119.69479,119.37782,118.91422,118.2502,117.58574,117.28844,117.23571,117.22301,117.07039,116.81104,116.40056,116.0325,115.58274,115.0908,114.77838,114.58638,114.58518,114.69145,114.82933,115.06189,115.32832,115.48612,115.80579,116.0471,116.285,116.51858,116.67801,116.70087,116.59547,116.39006,116.3148,116.23489,116.30263,116.30744,116.38662,116.39526,116.32177,116.00475,115.53399,114.9929,114.4299,113.9098,113.52081,113.05858,112.55836,112.02815,111.37039,110.50041,109.33541,108.20613,107.0597,105.97141,104.78885,103.53115,102.25517,100.88114,99.215452,97.486148,95.631736,93.706482,91.733556,89.876793,88.013126,86.142493,84.347,82.707339,81.212521,79.89069,78.491249,77.047006,75.530994,74.24656,73.279255,72.245379,71.192233,69.859096,68.265216,66.292541,64.065588,61.87205,59.555411,57.213816,54.950836,52.842345,50.77685,48.99291,47.167559,45.501828,44.00328,42.410144,40.917126,39.319615,37.6826,35.943604,34.317954,32.764609,31.285304,29.92495,28.658353,27.472921,26.623938,25.994508,25.451005,24.806144,24.13368,23.484182,22.818257,21.889926,21.442844,21.294493,21.062778,21.087563,21.015244,21.21212,21.55279,22.109448,22.65432,23.107799,23.246503,23.370043,23.41284,23.61867,23.869385,24.231202,24.710477,25.45332,26.471605,27.527096,28.429484,29.294871,30.301571,31.47842,32.813088,33.898736,34.595647,34.848536,35.167599,35.916549,37.063133,38.736044,41.975871,45.781624,50.021317,54.510755,58.600335,61.204726,62.877958,62.038741,58.87691,54.482877,49.366321,43.460664,36.802706,29.798481,23.178719,16.986278,11.12251,6.2446795,3.8584547,5.8298066,12.757149,24.171812,38.706603,53.509753,70.503329,88.446602,105.80984,121.23485,134.07108,145.12569,154.86716,162.68074,167.46806,169.36369,169.17289,167.46211,163.92003,158.35435,151.13832,143.71521,136.82192,130.01758,121.86409,111.73787,99.873684,86.244391,70.063308,50.445157,26.967762,0.23366856,-29.230509,-61.099733,-95.225405,-131.02325,-167.19406,-202.95154,-238.64817,-274.65582,-311.339,-347.94083,-383.60408,-418.63035,-453.69327,-488.89923,-523.43724,-556.6866,-588.58336,-619.21272,-648.15585,-674.62915,-698.13745,-719.35174,-739.04836,-756.79627,-769.59206,-775.81259,-779.0013,-780.63102,-782.05817,-784.28664,-787.96591,-792.74487,-797.58696,-801.39312,-802.82722,-801.57731,-796.91816,-790.38907,-783.12493,-773.10876,-759.87953,-743.3048,-725.41711,-707.79381,-689.81768,-671.60766,-654.76123,-641.85683,-635.4879,-623.09881,-601.68969,-569.82618,-532.31645,-493.64858,-458.09648,-425.98202,-392.22442,-356.03447,-317.99477,-281.0935,-248.15871,-230.60553,-225.18294,-223.72597,-224.37053,-222.87503,-218.82717,-218.79508,-215.17893,-201.21798,-182.66772,-172.74228,-169.55108,-185.81729,-210.82012,-239.85404,-261.98482,-264.68174,-235.60123,-193.95862,-145.33878,-96.896927,-54.838097,-9.406898,41.885335,106.79396,178.37903,241.8382,279.43216,277.994,256.93709,230.60254,217.21199,213.03689,202.78484,181.85027,157.91471,138.46572,124.24383,110.75723,101.62603,93.971094,79.369891,60.351382,37.154348,6.3688597,-29.084123,-63.186841,-104.45514,-148.0425,-183.24929,-213.17737,-242.67039,-269.81246,-291.51197,-308.29734,-322.90967,-338.63744,-362.64712,-392.35737,-429.68525,-471.80365,-517.66373,-562.32514,-597.59015,-628.9492,-651.70416,-671.28591,-685.33174,-691.2173,-686.49694,-674.56916,-662.97008,-651.5551,-640.07342,-631.3017,-624.8648,-618.33278,-609.78051,-597.80134,-583.98927,-565.4035,-540.66167,-511.40466,-478.2879,-442.95679,-406.56847,-371.2804,-335.11043,-296.60359,-257.48181,-218.15466,-180.66959,-144.90563,-109.44575,-74.8026,-41.983146,-6.9123423,34.599275,89.293846,146.46043,200.18799,244.86289,281.77093,313.58906,344.16054,373.78532,398.64065,414.56403,420.54904,417.30709,405.07934,395.7348,393.59678,392.84733,392.17603,387.53044,377.0303,367.02143,351.63443,320.37317,272.56011,221.03852,168.14907,135.18669,119.37566,123.81864,145.14451,172.99989,189.81477,205.42908,221.35251,241.41718,270.97885,300.16566,325.40973,328.15507,303.39117,259.24068,216.46185,198.03127,195.70574,201.6046,197.77463,182.3352,167.4523,161.48676,161.47286,160.80967,158.44256,156.92601,149.08762,134.66937,121.13693,107.94721,95.589152,90.318151,90.728183,90.454911,98.983833,114.75036,127.53952,138.6206,152.90594,167.7558,177.38768,178.40676,169.78175,153.01282,137.12419,121.92436,111.58375,105.83271,107.39794,115.21723,121.17462,129.7349,136.24796,145.10405,155.56624,164.11731,164.91244,157.00421,147.34902,138.33477,132.02838,130.20706,130.3816,132.07855,134.32731,135.87567,138.66257,140.73241,140.5147,139.55813,137.63161,134.25658,130.2611,126.9528,125.45501,124.28615,123.47402,121.75727,119.5956,117.14588,114.16669,110.84451,109.02442,107.17695,105.51714,103.47941,101.11808,99.238143,98.321751,98.206405,98.334303,98.239281,98.405614,97.472873,97.731457,97.890711,97.783793,98.009901,99.16884,99.639088,100.50598,101.72097,102.68388,103.30789,103.69637,103.3372,102.89151,102.96274,103.23709,102.98799,101.28196,100.33937,100.65629,100.97948,101.34708,101.1265,101.96545,102.48122,102.51714,103.20111,104.34567,105.3511,105.68753,105.81388,106.0438,105.31006,104.79874,105.41749,106.04708,105.00527,102.83437,101.53774,101.08506,99.887489,98.543086,95.950484,93.108629,91.248713,89.5489,88.781312,88.780155,89.857144,90.088694,88.530634,86.127031,84.014641,82.878997,82.292715,81.092511,78.093221,74.566727,71.693384,69.824842,68.736347,67.979036,67.204225,66.634346,66.439186,66.286435,65.678081,64.620145,63.974191,63.842783,62.846961,61.756695,60.451205,59.167938,57.89335,57.469007,57.089929,57.384344,58.209894,59.455479,60.262732,60.927937,61.112868,61.914821,62.399728,62.633152,63.594122,64.168592,64.76054,65.777088,67.0271,68.594685,69.442755,70.80089,72.193414,73.255291,73.994018,74.517581,75.525828,76.945811,78.629902,80.243649,81.709095,83.145151,84.768686,86.408116,87.796679,88.909456,89.904526,90.972095,92.101998,93.532523,94.57594,95.325217,95.3601,94.771433,93.749165,93.066538,93.045981,93.524503,94.289085,95.338499,96.836607,98.386622,99.520888,100.38383,101.53544,102.75717,103.81034,104.31829,104.31627,104.12299,104.27388,104.60249,104.81589,104.88145,104.30685,103.09876,101.53713,99.796977,97.839599,96.039505,94.243645,92.251224,90.307886,87.979809,85.640705,82.857826,79.950139,77.395807,74.546415,71.522222,68.442287,65.400035,62.726753,59.810682,56.535252,52.839775,49.041215,45.521503,41.902132,38.41347,34.517833,30.529572,26.98695,23.267228,19.342149,15.644388,11.530034,7.7597248,4.0644446,0.18705784,-3.5345287,-6.7670944,-9.6998001,-12.457221,-15.317003,-18.570575,-21.340308,-23.584365,-25.80029,-27.878253,-29.422021,-30.943282,-32.207858,-33.535743,-35.728598,-37.9273,-38.737814,-38.941709,-39.649311,-40.923153,-41.180721,-39.67599,-38.230006,-37.178339,-36.910271,-37.56088,-37.879182,-37.936291,-37.559876,-36.807123,-35.770821,-34.465573,-32.58637,-30.606981,-29.447858,-29.544873,-29.641921,-29.211391,-28.392319,-27.761646,-27.50772,-27.487711,-26.850615,-26.315778,-26.578733,-27.442486,-28.327553,-29.254266,-30.681517,-32.342706,-34.386125,-36.574909,-38.790286,-40.975795,-42.769356,-43.684616,-43.593203,-43.316839,-43.295107,-43.483832,-43.6083,-44.020855,-44.421757,-44.535754,-44.476634,-44.634055,-44.83374,-44.84946,-44.729448,-44.1729,-43.365827,-42.909274,-42.010002,-40.963728,-40.25687,-39.52862,-38.7743,-37.980268,-37.092467,-35.692931,-34.440074,-33.149491,-31.863109,-32.738107,-32.537391,-31.076519,-28.579915,-25.515539,-22.658037,-20.063705,-17.134378,-14.349434,-11.551056,-10.69155,-8.8058499,-5.3797432,-1.8614057,1.9595396,5.9379601,9.4022725,12.682729,16.353144,20.730018,24.720991,28.609615,31.969009,34.831953,37.854009,40.696914,43.194043,45.423153,47.490744,49.212735,51.044562,52.026609,52.233627,52.722389,52.859711,52.586428,51.736861,50.560739,48.74513,46.763453,44.506142,42.243431,39.907933,38.070662,34.953596,31.136139,27.482523,24.958801,21.948024,16.886688,11.385757,5.7255067,0.31091084,-4.5728578,-9.0349814,-13.726595,-18.653572,-23.952469,-28.847572,-33.720039,-39.588777,-45.775278,-51.872473,-57.462312,-62.376812,-67.209572,-71.856359,-76.39064,-80.506325,-84.210633,-88.301431,-92.398988,-96.061004,-98.912871,-101.19217,-103.65597,-105.96064,-108.8955,-111.11657,-113.16854,-114.47223,-115.00316,-114.77445,-114.30918,-113.9209,-112.97037,-111.28389,-109.53379,-107.47372,-105.41736,-102.67634,-99.627679,-96.31644,-93.248322,-90.246918,-86.932154,-82.958681,-79.057958,-75.187759,-71.03886,-67.295287,-63.961471,-60.706732,-57.699274,-55.189973,-52.033749,-48.054296,-44.841276,-42.734587,-41.829677,-41.234673,-37.976678,-34.498004,-32.313035,-31.584637,-31.295154,-30.984492,-30.680817,-30.943835,-32.13102,-32.945816,-31.282663,-29.766089,-29.559225,-29.708975,-29.498595,-29.156241,-28.10155,-27.223161,-26.623022,-26.745124,-26.683332,-26.851234,-26.629714,-26.295402,-25.837073,-25.147482,-24.465946,-23.664716,-23.161788,-22.66468,-22.491445,-22.079597,-20.895382,-19.301378,-17.746906,-16.571428,-15.198654,-13.514625,-11.790938,-9.9719322,-8.12587,-6.3642952,-4.1984708,-2.2078409,-0.098692668,2.1441146,4.611627,6.98574,9.4793663,12.204498,14.552947,17.242783,20.335738,23.539987,26.214204,29.059092,32.137258,35.613304,38.261381,40.009377,42.594481,45.167112,48.547163,52.386636,55.616635,58.447954,61.293867,64.452458,67.217781,69.925653,72.515455,74.845372,77.29604,79.280525,80.316149,81.480484,82.517679,84.278305,85.883924,87.138838,88.45426,89.828429,90.798987,91.825928,92.536187,92.953164,93.152903,93.141275,92.622262,92.42057,92.395509,91.767854,91.566225,91.281015,91.063464,90.43637,89.254588,88.142185,87.014717,86.057949,85.075572,84.527627,84.069881,83.027297,81.706032,79.614021,76.831768,74.460252,73.008753,72.130999,71.531279,71.161252,70.27522,69.630513,69.459253,69.469651,68.77635,68.079982,67.702985,67.799255,68.120357,68.038571,67.707779,68.003916,67.956236,67.426756,66.431667,64.733531,63.575784,63.607727,63.265302,61.342654,58.914632,57.500261,57.133322,56.28222,53.917364,51.279571,48.501885,46.605004,44.103642,41.902054,39.933613,37.792917,35.265446,32.159785,28.588447,25.452779,21.879916,18.169634,14.238026,10.4667,7.6066714,4.0372675,0.19287833,-3.9867292,-8.0411216,-12.135086,-15.913467,-19.95198,-24.027037,-28.172928,-32.193602,-35.941293,-39.938256,-43.737599,-47.333774,-51.110045,-54.807884,-58.180887,-60.954703,-63.719068,-65.548144,-67.579983,-70.862936,-73.367749,-75.357088,-76.846618,-78.129028,-78.76938,-79.663422,-80.673809,-81.228179,-81.716319,-81.975018,-81.871018,-81.580038,-80.2919,-79.172951,-78.307396,-76.643922,-75.727718,-74.606882,-73.178814,-71.554342,-69.175645,-66.846405,-64.447165,-61.714504,-58.286853,-55.352602,-53.301932,-50.295505,-47.724748,-45.462784,-43.544388,-41.434108,-39.040426,-37.323127,-35.759785,-34.267897,-33.102676,-32.349477,-32.454088,-32.294171,-31.783171,-29.906642,-27.959782,-26.88447,-26.305372,-25.616279,-24.437976,-23.574151,-22.385295,-21.506355,-20.417804,-19.202305,-18.071372,-17.252728,-16.745169,-16.10558,-15.397511,-14.347346,-13.317381,-13.047024,-12.05611,-10.951667,-10.607573,-9.5741876,-8.5796385,-8.7788825,-8.9529728,-7.9631564,-5.6025909,-4.4334141,-4.6967045,-5.3357147,-4.6279839,-3.6296947,-2.3587065,-1.6248632,-0.5900776,0.36890387,1.0538185,1.5607919,1.4936637,1.7288674,2.3595512,2.8736245,4.0137323,5.0406535,5.9436402,6.8670911,6.9379587,7.972622,9.2880806,10.474733,11.111234,11.619886,12.395622,13.042671,13.675452,14.42235,15.360689,15.946127,16.90137,17.726245,18.277065,18.748403,19.006051,19.316568,20.148557,20.914423,20.811665,20.400154,21.018345,21.343854,21.91398,22.547708,23.111405,23.044874,22.901602,23.123095,23.485374,23.965892,24.480357,24.940597,25.360796,25.14803,25.086159,25.091035,24.951829,24.86719,24.052722,23.344161,23.300488,23.513337,24.245698,24.985325,25.822217,26.407151,27.624969,29.662068,31.520897,33.250765,35.189033,37.287151,39.339442,41.063431,43.503707,45.706232,47.594816,49.597824,51.279543,52.830069,54.323006,55.951475,57.768436,58.927944,60.156028,61.287852,62.323179,62.541788,62.838851,62.922912,62.714593,62.163994,60.618217,59.501952,58.184764,56.785791,54.91032,52.724053,50.301246,48.009393,45.616591,43.001626,39.818036,36.85145,33.672931,30.097867,26.857897,23.648338,20.382504,16.650947,13.144167,9.4511477,6.0906,2.3212401,-1.4822611,-5.5953374,-9.042269,-12.713304,-16.35365,-19.90079,-23.704258,-27.13074,-30.383565,-33.159614,-35.968241,-39.357349,-42.14295,-44.383614,-46.403294,-47.658237,-49.875055,-52.14899,-54.433352,-56.055484,-56.780113,-58.296485,-59.4193,-60.409557,-61.172376,-61.628032,-61.426292,-61.403706,-62.050701,-62.473579,-62.345166,-61.92156,-61.309191,-60.687321,-60.204348,-59.621055,-58.795742,-58.191969,-57.156227,-56.17995,-55.29505,-54.819617,-53.146349,-51.148706,-49.260241,-47.942928,-47.178453,-47.413408,-48.122979,-48.611602,-50.066156,-51.178778,-52.808612,-55.732115,-58.260051,-59.863418,-61.342051,-62.784811,-64.930849,-67.026357,-68.139783,-70.206022,-71.982006,-73.603885,-74.90826,-75.22084,-75.586534,-76.467071,-77.369446,-78.167817,-78.394827,-78.612463,-78.038704,-77.602583,-77.045708,-75.852075,-73.951812,-72.043752,-69.861795,-68.566715,-66.975174,-64.715564,-62.30616,-60.584543,-58.185254,-55.704259,-53.215745,-50.455932,-48.437503,-45.644194,-43.104093,-39.977539,-36.891854,-33.93007,-30.787392,-27.409611,-23.615403,-20.354386,-17.535133,-14.296117,-10.772129,-7.3232826,-3.5285857,0.13711194,3.7791845,6.9494037,10.592401,13.914088,16.872177,19.506092,22.155631,25.108652,28.247329,30.648388,32.821584,35.143326,37.709059,40.03622,41.851439,43.183695,44.459749,45.951923,47.397218,47.863369,48.589803,49.617756,50.364045,50.826802,50.294059,50.240446,50.324182,49.909313,49.496165,48.68596,47.751447,47.267563,46.897423,45.571145,43.564792,42.065036,40.914376,39.980151,38.656543,37.379744,35.931762,34.621091,34.144565,33.700995,33.200716,32.465612,32.039997,32.847546,34.069319,34.11447,34.004855,34.057008,34.628341,33.659874,33.547379,33.439958,33.226533,33.914678,32.795839,31.954351,31.89552,32.401937,32.681142,32.540785,32.392015,32.954455,33.345672,32.745831,33.671109,34.215443,34.551833,35.022709,34.500939,33.707816,33.529717,33.111922,32.751299,32.897093,33.204178,32.237563,31.943888,31.951179,32.408457,32.440527,31.596351,31.250007,30.871568,30.519617,30.050576,29.460477,29.227527,28.359326,27.623124,27.514631,27.20202,27.357928,27.223731,26.801034,26.047669,24.835138,24.660253,24.049729,23.874598,23.809916,23.628885,23.65169,23.829376,24.504473,24.436054,24.318611,24.577729,25.435253,27.075392,27.040527,26.683659,26.695641,27.619543,28.806946,28.946708,28.653345,28.342254,29.492988,30.655572,30.255429,29.457104,29.425418,30.98829,32.201988,32.487738,32.368669,33.458595,34.180805,34.749793,34.547705,34.051675,34.673595,34.4864,34.037414,33.586504,32.884978,32.992881,34.249471,34.826277,34.440613,34.23824,34.633392,35.438308,35.706929,36.750273,37.817199,37.970111,38.454634,39.105221,40.07236,40.314239,40.712957,40.917767,41.652913,41.504886,40.84072,40.43627,39.45262,38.605138,37.347246,37.583679,36.964912,36.207883,35.212509,34.170358,33.5386,31.858593,30.070099,28.000034,26.339152,25.083738,23.132063,21.452039,19.699828,17.762173,14.795766,12.03086,9.0528927,6.4299698,3.3853514,0.81895202,-2.1506698,-4.7681818,-7.1503127,-10.14982,-13.072729,-15.521251,-18.152671,-20.997267,-24.933103,-28.270298,-30.601589,-33.704282,-36.847369,-39.516632,-42.331803,-45.06512,-47.988507,-50.73653,-52.605093,-54.954938,-57.685152,-60.166802,-63.069913,-65.634084,-67.867504,-69.143601,-70.557579,-71.726897,-73.036748,-74.494894,-75.10559,-76.168592,-77.365202,-78.344487,-78.090684,-77.520517,-77.23199,-77.803377,-78.758944,-78.113307,-77.510474,-76.790754,-77.058781,-76.763417,-75.465361,-73.583369,-71.922351,-70.943138,-70.090492,-68.542758,-66.826211,-66.06556,-65.770962,-65.810506,-66.781133,-67.95885,-69.69145,-70.965175,-72.874718,-74.81257,-75.829827,-77.819562,-79.068017,-79.469005,-80.661074,-80.67283,-80.731327,-81.423074,-81.492424,-81.479464,-81.567106,-81.378326,-80.977004,-79.553799,-79.135898,-78.333209,-76.803867,-75.635217,-73.97425,-73.119203,-70.633706,-68.760727,-67.734331,-67.74364,-66.16958,-63.152734,-62.085967,-60.372135,-56.850455,-52.749505,-50.103707,-48.217971,-45.069058,-40.608389,-37.04119,-33.202614,-28.6884,-24.442255,-20.719366,-17.117534,-14.672051,-11.694122,-9.0139452,-6.5242049,-4.0875361,-1.0169465,2.2029575,5.6150995,7.5969534,10.484477,12.762054,14.786757,16.264219,17.565457,19.243988,20.90498,22.207885,23.174773,24.057792,25.827785,26.830314,27.561721,27.89025,28.625243,28.845062,29.473886,29.388182,29.532609,30.018518,29.749463,29.67826,28.989982,28.162963,27.648856,27.162202,26.610871,25.707644,24.603515,23.797271,23.055625,22.058137,20.263522,20.039554,20.255788,20.120945,19.442589,18.855277,18.81025,19.437989,20.074801,20.171161,21.003027,22.420297,24.448315,25.781313,27.32323,29.151507,30.654608,31.948826,32.071195,32.346267,32.826334,34.068666,33.954771,33.15327,33.544285,35.166267,35.853656,36.103075,36.252579,37.322717,38.01638,38.5569,39.095823,38.963442,39.349705,40.397063,41.059823,40.463472,39.774319,39.4097,39.7663,39.591962,39.611839,38.857953,38.455683,38.147628,37.709105,36.961043,36.39273,36.054062,34.394906,32.581092,31.023245,30.754255,29.248931,27.470921,27.885449,29.094273,28.895224,27.965637,28.64453,30.272188,30.80198,30.164485,29.731168,29.980844,28.972051,28.236816,28.030653,27.380513,28.185918,28.714103,28.886278,28.617618,28.963336,29.357823,29.298024,28.923973,28.915023,28.995315,29.191154,29.252248,29.355879,29.511747,29.776348,30.211522,31.040512,31.359126,32.188589,33.147746,33.411763,33.218224,33.110542,32.774428,34.003135,34.233153,34.409395,34.342657,33.926443,34.223647,34.132103,33.722656,33.495712,32.891712,32.791664,31.227911,30.339881,30.406343,30.908975,31.584948,32.253513,33.469263,33.998087,33.813769,33.635092,34.04071,34.714305,35.221249,34.632107,33.862241,33.427643,32.682924,31.426169,30.187761,28.635771,27.735232,27.491638,26.975347,26.52198,26.492056,27.403026,28.770687,28.98806,28.809083,29.539624,30.351673,31.584135,32.539033,32.861089,32.486258,32.445083,32.458057,32.912401,32.121289,31.506833,31.896035,32.081026,31.322093,31.187154,29.799019,29.075013,28.419503,27.917338,26.474268,25.290368,24.518457,23.472572,22.452852,20.748524,18.146046,16.565343,15.302599,12.710077,9.7910697,7.2865533,4.9634418,2.5551051,0.42841993,-1.83931,-4.8329075,-7.8630133,-10.34993,-13.561112,-16.531213,-19.309291,-22.096504,-24.641317,-26.837261,-29.732756,-33.335959,-35.971496,-38.192389,-40.848267,-43.920728,-46.679101,-49.082385,-50.815674,-53.072363,-55.887277,-58.096917,-60.179724,-61.402656,-62.887768,-64.730487,-66.259136,-67.525052,-68.308055,-69.472436,-71.043118,-72.599641,-74.52884,-74.685533,-75.067241,-75.77235,-76.367338,-77.760424,-78.105818,-78.696369,-79.579051,-80.326171,-80.977681,-80.789321,-79.040359,-78.321426,-77.603041,-76.979526,-74.724943,-72.930487,-71.948278,-72.040905,-72.533653,-73.611797,-74.24193,-75.93805,-77.107809,-78.541426,-80.136774,-81.876711,-84.389015,-87.586419,-89.732401,-91.60653,-92.954761,-93.971997,-95.001215,-94.782424,-94.747121,-95.18146,-95.136274,-94.698146,-93.532994,-92.227262,-91.328787,-89.784061,-87.124118,-84.692185,-82.212314,-80.576291,-78.423378,-76.169979,-72.526128,-69.014683,-64.80141,-60.939382,-55.820274,-50.538161,-46.24157,-42.558786,-38.019517,-33.853421,-28.586022,-23.950256,-19.466448,-15.04535,-10.441757,-5.2104972,-1.1962076,3.1798171,7.2003857,11.612763,17.569634,21.576478,24.224657,28.228201,32.864938,37.043086,40.859023,44.424514,47.480712,50.40608,54.426443,57.487351,58.803556,60.907054,63.235245,65.277324,67.265328,67.167535,67.771574,68.413093,69.939453,69.944831,69.405859,69.019687,68.640044,68.641493,68.405776,66.236771,64.707435,63.649013,62.810182,61.611769,59.103339,56.558183,55.014095,53.455372,52.413922,50.288676,47.52772,45.136501,43.69024,42.062539,39.780337,37.422172,36.31593,36.07851,35.318781,34.834595,35.151408,35.703885,37.972954,40.057978,41.275315,41.084931,40.864927,40.680842,40.594366,40.25313,39.425118,38.405589,37.849539,37.166965,37.180344,36.152701,35.771157,35.306155,34.457232,33.432881,32.340346,31.261829,30.886974,30.309343,29.345048,27.9704,26.50066,25.017389,23.643743,22.761462,21.230017,20.404136,19.357454,19.09611,17.944652,16.041831,14.991765,13.934731,13.454067,12.83899,11.526139,10.637027,10.333649,10.904267,10.995668,9.8508992,9.1344748,8.2529397,7.5021488,6.7222577,5.5643964,4.8283662,4.5756185,3.8952255,3.7930759,2.829615,1.9340619,2.2219116,1.883599,2.3337451,2.2859381,1.8936436,1.9806901,0.6702575,0.33104381,1.1283326,1.8511226,2.3062386,1.7511476,2.3255884,2.1733534,1.5930217,1.3482629,0.70160207,1.0936968,1.3759279,1.6771536,0.58481392,0.87534014,0.64492797,0.58519969,0.37170278,0.66439557,-0.18554915,-0.32996424,-0.89585463,-1.3295187,-2.0822382,-2.5450398,-3.6221759,-3.7271597,-4.6221754,-5.2746687,-6.0368675,-7.3796842,-7.8923357,-8.3021523,-9.9407072,-10.922463,-12.356155,-15.783391,-17.439467,-18.584697,-20.241976,-21.11698,-21.989011,-22.144836,-22.627592,-23.491987,-23.340711,-22.427177,-21.505405,-19.709167,-18.667212,-18.517008,-17.803655,-17.580864,-18.463949,-18.963261,-19.200147,-19.746503,-21.15288,-23.698629,-25.720633,-26.778752,-28.318056,-30.675622,-33.877048,-36.691013,-37.847637,-38.648391,-41.061767,-44.410699,-46.566719,-47.587753,-48.411641,-50.265293,-52.872222,-54.437562,-54.374081,-54.427757,-55.193117,-56.760441,-57.328701,-57.12126,-56.450213,-55.662085,-55.950397,-55.587851,-54.160048,-52.062608,-50.49507,-49.760651,-48.365537,-46.327205,-43.505348,-41.034498,-39.46079,-37.538788,-34.708059,-30.57408,-26.854454,-24.838342,-22.676478,-18.716005,-14.44709,-10.501197,-7.4257793,-4.7454666,-0.68658355,4.1756087,8.0295248,10.542428,13.309381,18.098912,23.625381,27.627112,29.876469,31.856943,35.894757,39.836875,43.338016,46.149209,48.79737,51.955001,55.525933,58.487064,59.533001,61.905556,63.875692,66.532091,68.806777,68.944209,68.543967,69.907673,71.541226,71.915567,71.031273,70.106693,68.971038,67.037454,65.219769,63.802679,61.794743,59.952447,58.370006,56.129889,53.700425,52.052492,50.104453,47.620771,46.88886,45.886906,45.514399,45.13422,44.1856,44.09371,44.58075,45.341635,46.060979,47.171197,48.094393,48.770893,49.597863,48.752706,48.651706,47.725818,46.528854,45.141085,44.084923,42.934424,40.605383,39.378619,39.297744,37.300554,34.024059,31.338,29.764362,29.565285,27.241672,23.609473,19.584297,17.56801,17.02397,15.296365,11.277824,7.5569254,5.6543995,4.7691954,2.6882734,-1.5830115,-6.0206491,-8.5604543,-9.5634388,-12.28292,-16.6914,-20.823587,-23.377463,-24.647287,-26.571219,-30.893952,-34.747895,-36.892928,-37.697882,-39.200218,-41.999444,-45.478354,-46.954645,-47.350919,-48.428936,-50.623362,-53.655346,-54.406649,-53.914532,-54.564764,-56.452915,-58.069164,-58.232557,-56.467894,-55.862812,-56.013886,-57.193148,-56.608637,-54.44676,-52.785844,-53.062352,-53.450215,-51.856018,-49.450511,-47.19898,-46.277113,-46.210075,-44.754875,-41.699184,-39.220996,-38.0471,-37.856648,-36.627467,-33.379036,-30.739961,-29.876573,-29.989199,-28.819422,-26.653943,-24.083599,-23.866008,-24.779623,-24.677449,-23.858537,-23.183803,-23.85761,-23.312692,-22.669022,-21.213665,-19.957063,-19.660231,-19.199532,-18.108847,-16.202669,-15.1773,-14.876325,-14.784704,-12.918717,-11.995453,-10.875595,-11.096594,-10.024898,-8.4140195,-7.803485,-7.0230667,-6.3644794,-5.6789583,-4.5796764,-2.9639829,-2.4418469,-2.1852696,-2.7179114,-2.5012323,-1.0625462,1.06237,1.6822016,1.1908228,2.3582097,3.0836132,3.9254619,4.7297565,5.4788392,6.2731135,6.9752629,6.9167253,8.3503367,9.656703,11.510891,13.135643,14.037042,14.494206,15.935777,17.458586,18.186757,18.928756,19.415788,20.452384,21.927702,22.413369,22.869778,23.564537,25.509981,26.841335,28.496764,28.845328,29.707825,30.765402,31.665306,33.262944,33.754988,34.369963,34.744841,35.302817,36.354359,37.302134,37.799664,37.968263,38.340786,38.551766,38.748838,40.695018,42.166929,42.946773,44.045383,43.697962,43.670365,44.945926,47.063353,47.408006,46.554073,46.361396,48.558994,50.791334,51.063208,50.779415,51.675514,53.988379,56.831501,58.654364,58.917066,60.311226,63.377042,66.988563,69.410042,69.916481,71.234331,74.432697,78.258425,80.244981,81.424012,82.180678,84.60826,87.220922,88.866971,88.856103,88.626135,90.182812,91.790461,92.278261,90.389988,88.75475,88.001336,87.612263,86.120329,82.703413,79.049171,76.34605,74.808763,71.00017,66.454301,60.612742,56.751787,53.26656,48.225921,42.308656,35.338473,29.729866,25.083541,19.296706,11.604427,3.5344959,-2.8842179,-8.064573,-14.442837,-22.918736,-31.78769,-38.515261,-44.236055,-51.337364,-59.389436,-68.317469,-75.43663,-81.136418,-87.105555,-94.413153,-101.57418,-107.72832,-112.46923,-117.2718,-123.54806,-130.29292,-135.06552,-138.36613,-142.07545,-146.25059,-151.28354,-154.26336,-155.62364,-157.35042,-159.31278,-161.67318,-162.4687,-162.15303,-161.29275,-162.27317,-162.35721,-161.93368,-159.1695,-156.33407,-155.06253,-153.20199,-150.53388,-145.91333,-140.74608,-137.3367,-133.97682,-130.12169,-127.63195,-119.93586,-113.66939,-108.01162,-103.7001,-97.743407,-92.115216,-87.096579,-80.727924,-74.189714,-69.213832,-64.855962,-59.609883,-52.829693,-45.612973,-41.295382,-36.765037,-30.752414,-24.295312,-18.663855,-14.07956,-10.281834,-5.8033735,-0.83025627,4.4944399,9.2020185,12.974978,16.890066,23.465903,30.471224,35.937869,40.284616,45.437961,51.916644,58.04955,63.415547,67.758518,71.110838,76.719382,82.076203,85.687666,87.397311,89.495612,93.207703,96.362371,98.534012,99.464422,98.76231,100.12938,101.81652,102.28153,100.7051,99.620611,98.921254,99.151849,97.572547,94.53364,91.257179,88.939113,87.41331,84.426775,80.301512,76.140274,73.118217,70.661078,66.934868,61.889498,57.141159,52.929937,50.927479,47.298966,42.082029,37.583206,34.488004,32.243272,28.471104,23.867602,19.588433,16.758785,15.001335,11.748555,7.8849977,3.7283752,0.7657201,0.077409428,-2.0975067,-5.5511374,-9.2849091,-10.68716,-11.001969,-13.258484,-15.74757,-17.961198,-19.148278,-18.607495,-19.11592,-21.356567,-23.085776,-23.061278,-22.527752,-21.690932,-23.082659,-23.635913,-23.091807,-20.727528,-19.957375,-20.365181,-20.358669,-19.597937,-18.314291,-17.220534,-12.953266,-12.702744,-11.834042,-9.2609896,-6.9710566,-6.3295544,-4.6154237,-3.1406861,-1.01151,0.053196135,1.3217689,2.3251289,3.4243861,4.7457831,4.1719239,4.4022317,4.400038,3.4540868,2.6009381,1.8817908,0.76903329,-0.26231978,-0.59293572,-0.45887818,-0.34901375,-1.3415968,-1.8177423,-1.0103435,-0.48588691,0.014616327,-0.73583625,-0.7751019,-0.97519145,-1.0056043,-0.43468139,-1.1799915,-2.064827,-1.2860661,-1.2859699,-0.85502091,-2.0317794,-1.789803,-1.581068,-1.2667441,-0.63956442,-2.084123,-2.8736895,-1.8783398,-1.8431069,-1.9871513,-2.5148821,-3.1308138,-3.479596,-3.103175,-3.2840475,-3.9006374,-4.7901936,-4.8744652,-4.2558208,-4.6081669,-4.7772537,-5.7539001,-5.6179294,-5.3416854,-5.1545079,-5.7692283,-6.2025708,-6.5354121,-5.3426804,-5.9423022,-6.836653,-7.4396059,-7.6660619,-7.6180556,-8.1008142,-8.464325,-8.510892,-9.1516759,-8.5588006,-9.2987535,-9.2682981,-10.083285,-10.014359,-9.5168289,-9.9803297,-10.128291,-11.029252,-10.575027,-10.731823,-10.559364,-10.151814,-10.672546,-11.159889,-9.8100155,-9.9425308,-10.36548,-9.4382474,-8.8696169,-8.5991506,-9.1389069,-10.037864,-8.5826315,-7.6254697,-7.8120312,-10.024356,-10.029162,-9.0508847,-8.6741772,-8.9949445,-10.766773,-10.814861,-10.011353,-8.7701672,-8.9052915,-10.723548,-11.223375,-9.7790368,-8.653823,-8.3257083,-10.254923,-10.051535,-9.0281044,-7.4032175,-7.3687338,-8.7611935,-8.7457282,-7.0597614,-5.784261,-5.5272299,-5.9118351,-5.5685647,-4.1675126,-2.0652336,-2.1630504,-2.4489465,-2.460732,-0.79363333,1.2431423,2.5405334,2.1340045,1.4137435,3.2902986,5.0376257,5.8023714,5.8017351,5.600931,6.8079473,8.9466177,9.5307447,9.1626387,8.4761481,9.93551,11.228658,12.061803,11.082373,9.8972326,11.219635,12.166301,12.403447,11.5895,11.002954,11.270878,12.679111,13.298466,12.35782,11.154216,11.684719,13.001669,13.513535,12.098802,11.45502,11.315902,13.067307,13.364184,12.331545,10.666609,10.7944,11.621055,12.008198,10.172821,8.7699499,8.9357826,10.207733,10.474297,9.2801777,7.8983919,8.0621585,8.814934,9.3561342,8.099323,6.8385366,6.9592919,8.4637338,8.8860993,8.297411,6.838552,6.5486602,8.5676733,9.490035,9.0825027,7.6257123,7.9058705,8.4321663,8.9879554,10.078628,9.685273,10.688729,11.576065,11.867062,11.977276,12.830147,13.716703,14.366323,13.63307,13.849657,15.020147,15.604549,15.848833,15.178417,14.595376,15.416046,15.054342,14.865441,13.897922,13.340368,12.707947,13.226576,13.451246,13.210275,13.32868,14.234971,14.803109,15.625183,15.593477,15.84399,16.024427,16.694669,17.032615,16.551189,16.363831,16.375529,16.444212,16.578691,16.105816,15.296254,14.989858,14.647182,14.66647,13.86433,12.434149,12.238919,11.834058,11.069766,9.7443593,9.1415514,7.9000192,7.2616677,6.68005,5.1553989,3.4318998,3.0143623,1.9108532,0.98810321,-0.60841396,-2.2235394,-3.3726044,-4.4925217,-5.6437487,-7.4134651,-9.1254211,-9.8492224,-10.693963,-11.665364,-13.193211,-14.4065,-15.486657,-15.945027,-16.536106,-18.082634,-19.684111,-19.204842,-19.985367,-20.162148,-21.256933,-22.733716,-22.293055,-22.48189,-22.604491,-22.598284,-23.573543,-22.963575,-22.583656,-22.160006,-21.450875,-21.890094,-21.451789,-20.114579,-19.298207,-18.542139,-18.09151,-17.521287,-15.947255,-14.91808,-13.882918,-13.266709,-12.52119,-11.139306,-9.7414224,-8.9893279,-8.2709277,-7.7293997,-7.0131669,-5.8362024,-3.4680563,-1.5172614,-0.94573044,-0.42375642,0.9075563,2.421956,4.1379812,4.1232787,4.8097559,5.7837137,5.6977084,5.9091052,6.1941256,6.287823,6.3753826,5.7574427,4.5879956,4.0044893,3.7411735,3.9629763,2.9711194,1.7161587,1.7765107,3.048402,3.5077656,3.1911871,2.5210761,2.3960552,2.3008341,2.7019878,2.0310403,0.33422726,-0.22682178,-0.12912603,-0.20445334,-1.5864877,-2.5584743,-3.3499996,-3.2428409,-3.5099915,-4.1989187,-5.1315639,-6.4000658,-6.3165424,-6.6340085,-7.1716179,-8.5344071,-8.5784427,-9.1304017,-9.392421,-9.6330664,-10.039102,-11.147192,-11.243185,-11.061906,-11.193623,-11.631531,-11.744348,-11.817502,-11.362125,-11.394976,-11.642172,-11.769676,-11.857599,-11.255934,-11.101545,-10.46235,-10.591281,-10.33252,-9.4071165,-8.8589451,-8.3940569,-9.069146,-7.6126713,-7.0598546,-6.6914943,-5.639925,-4.6787024,-5.3557093,-4.1549051,-3.4618733,-3.0215452,-2.4246552,-2.1582371,-0.93098345,-0.23640113,-0.16507669,0.8149593,0.93040547,1.7632577,2.6994948,3.0772383,3.6888093,4.303503,4.0719268,5.1219159,5.6715614,5.9293913,5.8508269,5.928312,6.3832277,6.5852823,6.5954306,6.314542,6.0803663,6.5160752,6.7606912,6.4608867,6.0184368,5.884398,5.9982063,5.9979101,6.2518942,5.20278,5.0211163,4.954635,5.1269,4.2987282,3.952376,3.093607,2.9591999,3.4481318,4.039961,3.274674,2.5512488,2.2729899,2.7298125,3.6888224,3.5868583,2.4873711,2.4066765,3.548344,4.7164151,4.2656333,3.621803,3.6079761,4.4950811,5.083582,4.7601647,4.6257403,4.6653986,5.0047619,6.4144991,6.2464133,6.0238693,5.7342059,7.2902188,8.1899725,8.4425187,7.8815785,8.3698218,9.1987811,9.3454225,10.120228,9.4456787,9.740672,10.189745,11.262064,10.850289,10.519102,10.696584,11.265567,11.398751,11.434664,11.206298,11.000164,10.999061,11.523374,11.482872,10.473853,9.9277704,9.8329305,10.113726,9.1858039,8.6789944,7.8046144,7.8015924,7.3464856,7.132922,5.8434671,4.6168551,4.1188385,3.9545779,4.0132593,2.231423,1.5367406,1.3193437,0.40646622,-0.035350632,-1.0330636,-2.3400432,-2.7627046,-2.5701416,-2.7268844,-4.1357687,-5.0648814,-5.2536127,-5.1172519,-6.5759631,-7.2391949,-6.9719989,-7.1487581,-8.4566449,-9.1775305,-9.0405396,-8.864461,-9.2804904,-10.134278,-11.372533,-11.20891,-10.635562,-10.812411,-11.165227,-12.132132,-12.191494,-11.890193,-12.318318,-12.908392,-13.502485,-14.272823,-14.440537,-14.146546,-13.404485,-13.305867,-13.347127,-12.318446,-11.076448,-10.916828,-10.558466,-10.550528,-9.6213209,-9.1600143,-8.8628373,-9.0076256,-8.5763583,-8.58067,-8.0119272,-7.7296115,-9.1892558,-9.4831678,-8.7560405,-9.0445363,-9.3118387,-10.092648,-10.578782,-11.056435,-11.631333,-12.298824,-12.863033,-14.428882,-14.901337,-15.640713,-16.51521,-17.712348,-19.138961,-20.473507,-21.096993,-22.433974,-23.868946,-25.702585,-26.690459,-27.938567,-28.93784,-31.071649,-32.801704,-33.327869,-34.136996,-35.218129,-36.9406,-38.049204,-39.245047,-39.680867,-40.816194,-41.854846,-43.729943,-43.831953,-44.051649,-44.365826,-45.970043,-46.817438,-45.894752,-45.513514,-45.248091,-45.64893,-46.241701,-44.786155,-43.68856,-43.341594,-43.617679,-43.061943,-41.033657,-39.875332,-38.09503,-36.975504,-35.945805,-33.767926,-32.147732,-30.175446,-28.055427,-26.668567,-24.772503,-22.142634,-19.883017,-17.891522,-16.376218,-14.112778,-11.545484,-9.1973979,-7.3882717,-4.5375196,-2.3744328,-1.1174112,1.1009755,4.0597611,6.5042029,7.6273563,9.4744009,11.262721,13.626195,15.641875,17.148617,17.625707,19.329427,20.657096,22.186265,22.525765,23.448296,25.095695,26.702793,27.570756,29.168856,31.199219,33.428079,34.504352,35.689288,37.10101,38.539239,39.719535,41.23033,41.964669,43.232467,44.554526,45.949119,47.102348,48.389262,48.547995,50.47023,51.46454,52.012112,54.40386,55.382558,55.89917,57.940096,58.904497,60.163773,60.786746,61.956161,63.386215,64.636227,65.370267,66.676559,67.79093,68.697803,70.209622,70.730683,71.82426,73.14448,74.215075,75.348805,76.540094,77.367292,78.224411,79.440113,80.125488,81.913488,82.289709,83.141588,84.04544,84.886918,86.084802,86.44947,87.305948,88.206436,89.020297,89.509437,89.447334,90.187666,91.300173,91.788987,92.572354,93.573633,93.36269,94.504003,94.749916,93.81486,94.620429,93.746476,95.743316,95.781443,97.849265,97.642998,99.065649,102.62344,103.23597,104.22719,105.54363,107.49687,111.41578,113.4047,114.64882,115.81046,117.41333,119.68329,121.41327,122.02972,122.18927,122.09157,122.63492,123.23169,121.84035,120.21237,120.21202,122.68848,122.73582,122.08188,120.60212,122.29136,123.99415,125.16369,124.16166,123.26102,125.39894,126.21059,124.8927,124.94344,123.87598,124.70661,126.07005,126.1409,126.87055,126.61228,126.30205,127.0626,126.97758,125.62994,123.95323,120.76698,123.53282,122.94172,120.6035,118.6396,117.46456,115.38972,114.36309,111.58818,108.56733,106.61316,104.56913,103.11752,101.81989,97.416296,93.623715,94.83028,89.455457,86.580981,83.542036,80.08142,76.299517,73.006519,69.763098,66.784364,64.305694,60.807472,58.475751,56.350709,54.971789,52.838209,50.812303,49.696504,48.85171,48.002803,48.011894,47.961488,48.491034,49.615397,50.43652,52.351726,53.23368,54.227775,55.408733,56.694009,57.65739,57.092572,56.222978,55.303878,53.650022,53.444206,50.374649,46.719584,43.245572,39.628492,34.895182,28.490206,20.76255,13.333153,7.0221788,-0.98391986,-9.6620063,-21.287275,-30.535498,-41.931344,-51.658585,-64.86928,-80.343681,-93.475894,-107.17158,-121.32249,-137.86209,-156.40249,-174.31382,-192.14649,-210.60291,-230.37656,-251.74972,-273.39458,-294.94409,-316.11533,-337.83111,-360.73912,-383.18164,-403.43199,-423.02709,-443.56074,-466.34853,-486.36459,-505.20149,-521.76696,-540.70409,-559.82963,-577.56909,-592.40416,-606.10214,-623.43679,-637.92166,-649.46825,-660.64759,-669.89288,-678.65382,-687.10365,-693.28906,-699.01076,-703.97037,-707.19892,-707.79627,-708.3954,-706.59438,-702.53806,-695.49276,-693.52242,-688.20171,-679.21929,-669.87169,-663.03522,-651.79606,-638.45675,-625.78317,-612.80397,-598.2894,-583.22568,-567.78574,-553.03436,-536.22278,-519.11917,-506.4712,-485.398,-467.0286,-451.83319,-435.11567,-418.52822,-399.80985,-385.36067,-371.74686,-354.92196,-336.55827,-319.98781,-304.13459,-290.28411,-273.82952,-257.64638,-242.41034,-226.88914,-214.11043,-199.52078,-184.49811,-168.02057,-154.9068,-141.70717,-127.35189,-113.50805,-99.213726,-86.406823,-74.48108,-62.832342,-48.798235,-36.078582,-23.684372,-11.95908,-2.5979528,5.9394023,14.732491,23.851532,32.880312,42.122257,51.787095,61.680462,72.372557,83.490556,95.581787,107.94037,121.03546,134.82998,149.63338,164.02023,179.40991,195.09149,210.78755,227.35595,243.20401,259.35472,274.86082,290.39397,305.89699,320.89637,335.74054,348.45154,360.03348,370.99478,380.42553,388.94918,396.41323,402.64037,407.73774,411.74392,413.81196,415.28917,414.99415,413.5022,411.06303,406.63495,401.87777,395.28036,387.57245,379.33731,370.48028,360.74234,351.03694,341.87072,333.17229,323.89028,315.16326,307.39358,299.8988,293.77712,287.7072,278.16307,270.06091,261.57804,251.70293,242.6132,233.77581,226.47886,219.05371,213.26661,211.56017,208.70032,204.26491,204.70478,207.80343,212.24559,217.83827,225.31351,235.21584,247.56531,262.9242,277.57914,290.58659,304.74369,321.67859,338.01584,354.52702,369.04497,388.17718,409.39495,427.16012,443.05217,460.09913,476.69012,494.42791,509.25537,522.8003,535.54298,545.83961,559.81321,570.69419,579.79229,585.75741,595.18922,603.65599,610.07725,615.29257,618.82348,622.72071,626.31654,628.40371,627.26921,625.2147,622.2902,618.07586,614.77562,611.5861,608.15023,603.93795,599.32676,594.07492,588.40666,582.3195,575.82521,567.77027,557.12911,549.86207,541.90018,530.76369,521.05421,511.6627,501.68111,492.87011,484.06388,476.12326,468.08107,460.56021,453.64617,439.1969,420.17966,403.02627,386.79962,371.15568,356.81826,342.19114,333.28993,328.7148,329.80467,331.15998,330.64792,328.86623,329.86131,331.17364,332.3113,330.98543,328.32451,326.18827,325.88793,326.58565,325.59766,323.94006,324.00557,326.07963,328.10964,327.60114,327.3905,326.17497,324.88072,321.1447,310.96589,296.87581,282.00048,262.56226,241.06644,214.55408,187.69256,157.28368,125.71229,93.248079,58.159831,22.112503,-13.376908,-46.481631,-80.223289,-116.16337,-153.05846,-191.48119,-227.72077,-264.52241,-303.73836,-345.37011,-387.78129,-428.10801,-470.41808,-513.42853,-558.29948,-600.59676,-640.96755,-681.67374,-721.68308,-763.91615,-804.04343,-843.17358,-880.328,-919.03453,-958.34561,-996.40305,-1032.4004,-1065.4411,-1096.9143,-1128.8432,-1158.6777,-1183.9379,-1204.7013,-1225.783,-1244.0107,-1258.4948,-1268.4693,-1272.7264,-1275.0705,-1275.8181,-1270.6508,-1260.4789,-1245.3144,-1228.1859,-1209.4322,-1188.5639,-1163.592,-1134.9169,-1105.7137,-1075.2633,-1044.6411,-1010.4459,-973.56814,-937.56342,-900.72567,-861.39709,-823.90511,-783.16474,-741.16781,-702.60668,-663.97226,-626.14779,-587.77314,-552.08333,-521.7831,-495.52465,-471.57987,-452.0938,-427.93278,-401.69755,-377.60262,-353.20355,-325.78624,-296.8759,-267.82075,-239.4449,-214.8836,-194.22389,-175.04791,-157.68345,-141.01049,-126.09574,-112.46922,-99.199548,-85.556658,-71.681223,-57.30437,-43.711981,-31.017318,-17.632454,-3.2909682,9.1021775,24.906855,38.814667,53.492001,65.360844,77.29033,87.56744,95.95158,105.66372,114.01926,120.51029,128.4665,134.61303,141.47437,144.6707,150.40971,158.07833,166.62524,175.60944,182.90258,190.76172,195.98744,201.15246,206.28532,209.50768,214.61288,216.45345,218.73225,220.31291,221.60134,221.88821,221.38212,222.97404,223.74472,225.36928,224.23548,223.89607,225.91757,225.67905,225.63863,223.30564,223.13302,220.32865,218.78679,217.35645,213.97634,212.23447,210.62442,207.57901,204.92173,202,200.17839,198.44118,198.16327,198.10678,196.69713,197.81373,197.69187,198.80699,200.86746,200.73325,201.9024,202.29871,201.86974,201.46889,201.08478,201.47716,200.68103,201.74217,199.99737,201.76429,201.10885,201.75647,202.33391,201.80158,203.31251,203.72349,204.39975,204.31866,205.91422,206.04224,206.99958,207.45968,207.88223,208.42595,209.5058,210.31039,210.29141,211.58796,211.5203,212.80122,214.02152,214.95017,215.8172,218.72578,219.24435,220.86574,223.71619,223.39191,225.40065,226.4966,227.16165,229.3427,228.66261,229.53783,227.84811,226.94875,225.83551,225.84416,225.84747,224.15706,225.6976,223.48873,223.28406,223.12834,221.43275,220.47658,220.03261,219.55996,217.09142,215.23176,211.95297,208.7024,206.02603,202.76689,200.02618,197.93698,195.73215,192.43118,188.8573,186.68399,183.23243,180.34167,176.83182,172.89098,169.18179,164.99401,162.45334,157.81005,153.08054,148.5587,144.38092,140.9113,135.24879,131.9476,126.28014,123.40828,119.93265,114.5493,108.75621,104.59595,99.967651,95.693679,90.938052,86.950445,81.120954,77.609165,72.364822,66.876422,62.678664,57.296437,53.751791,48.232106,44.374135,38.766076,34.548464,30.331498,25.652203,21.000142,16.70327,11.754362,8.0472471,3.0352371,-2.4980827,-7.5983161,-11.719328,-15.847183,-21.143257,-25.749579,-30.898575,-34.921193,-40.742326,-45.38769,-50.77121,-56.335948,-60.533778,-65.871537,-70.457422,-75.484787,-80.512412,-84.679138,-90.604919,-94.061145,-99.455123,-103.34873,-108.02557,-111.7332,-116.06491,-117.65307,-121.79963,-123.04635,-125.25594,-126.30244,-127.41046,-127.45209,-128.11115,-128.19349,-128.34625,-130.00945,-128.68053,-128.90518,-128.47483,-127.23597,-126.2409,-123.72677,-122.96823,-119.74567,-116.72313,-113.16501,-110.06932,-106.24052,-102.26218,-97.852603,-93.485255,-88.84461,-85.577521,-80.16446,-75.172928,-71.155858,-67.408224,-62.898227,-58.629125,-54.318648,-50.348057,-47.175346,-43.015919,-38.785425,-35.398841,-32.43904,-29.197547,-26.151051,-24.026529,-21.811127,-20.390303,-18.007202,-17.00529,-15.367952,-14.828542,-14.963624,-14.685015,-14.65362,-15.131466,-15.915885,-17.762172,-17.838718,-20.788359,-21.427086,-24.048205,-27.016734,-29.199936,-31.092048,-34.171698,-36.084999,-39.277314,-42.094563,-45.546306,-48.153069,-51.315407,-54.140742,-56.489846,-59.763263,-62.5457,-64.849631,-66.524437,-67.729817,-68.89024,-70.141934,-69.912376,-71.776436,-72.033997,-73.966892,-73.740861,-75.02118,-76.762377,-77.157643,-78.543826,-79.199556,-80.875319,-82.072787,-82.784731,-83.822956,-84.652705,-84.160617,-84.662766,-85.495631,-84.348589,-83.807076,-83.21771,-82.479864,-80.887431,-78.747145,-78.381103,-74.753617,-73.3702,-69.988746,-68.050533,-64.841969,-63.020671,-61.794818,-60.303189,-57.531895,-55.336334,-51.779412,-49.861803,-47.786968,-47.387579,-44.478763,-42.412678,-39.656777,-36.808026,-33.262045,-29.701477,-25.833653,-21.323049,-19.348397,-15.574795,-10.167554,-6.4467913,-2.8462786,0.99745858,4.9088274,9.1580733,14.067659,18.028804,22.394065,25.652803,29.171179,32.653089,35.138944,38.699681,41.517843,44.597108,48.549955,51.330997,54.094498,56.868824,57.90064,60.666331,62.974507,64.415187,65.107324,66.713741,68.251632,70.356061,70.590112,71.394359,71.844588,73.31236,74.237986,74.609073,73.216835,73.672054,73.311374,70.594539,70.516934,67.416465,63.616544,60.964752,60.635209,60.671504,58.525693,56.261398,55.132497,56.487098,57.141405,57.096296,56.090549,56.377039,58.335438,60.873859,60.104679,59.756885,60.696152,61.603327,62.312612,60.813608,60.773281,58.63302,57.634852,58.120096,55.020187,52.316526,48.72655,46.805248,45.62654,41.997173,38.218756,33.835307,31.276293,29.277752,25.10321,20.758919,16.565548,12.833167,10.839907,7.941732,2.7786536,-1.4929007,-4.23892,-5.161355,-9.5217814,-13.508001,-17.036088,-20.324681,-22.203096,-26.448987,-31.049482,-36.122214,-38.600319,-39.640707,-42.350096,-46.049053,-49.190477,-52.010827,-52.914578,-54.678574,-54.92705,-57.213756,-57.936143,-57.461388,-57.698784,-58.958429,-59.592616,-59.321813,-58.329567,-56.799742,-55.555908,-55.910054,-54.687063,-51.407931,-48.955172,-47.100015,-45.97436,-43.882395,-40.636535,-38.753686,-36.532915,-33.691394,-31.269924,-26.598675,-23.174776,-20.494245,-16.49622,-14.398848,-10.276643,-6.959197,-4.7624176,-1.3440912,1.0331629,3.967023,7.0227691,9.6564527,12.654514,14.810276,17.348043,20.159044,20.900157,23.564161,23.513633,24.50237,24.696166,24.790553,23.248348,20.891113,22.214542,19.757341,19.361666,20.315,20.903939,21.613309,21.62303,21.957202,24.472923,26.00492,27.268546,27.960959,28.736726,30.672925,31.788865,32.761757,32.510887,31.604364,32.208265,32.389555,30.872127,31.262231,30.408095,30.403883,32.719804,33.392153,33.425882,34.119015,35.852436,37.620621,39.628234,39.640181,40.263442,42.080618,44.032727,45.617621,46.258301,46.880498,48.2885,49.754469,51.199815,51.734825,50.595808,52.152269,53.092471,53.180067,52.673062,52.383031,51.853288,52.819304,52.457158,50.402782,49.522761,47.615595,47.208452,46.027856,43.340933,40.905921,38.831642,38.317914,36.229301,33.175358,30.702251,27.323965,25.54537,23.120159,19.053604,16.100609,13.002105,10.649038,7.8128663,4.0393069,0.57670101,-2.4730701,-6.1261607,-7.6124227,-12.428305,-16.864226,-19.164919,-22.015059,-24.189066,-27.769307,-30.80961,-34.365849,-37.033163,-39.089371,-41.506851,-45.334868,-46.870918,-50.007427,-50.825625,-53.544704,-55.741113,-57.734356,-60.361592,-60.378004,-62.449507,-62.693562,-65.466173,-65.195436,-65.917929,-66.486628,-65.607894,-64.975023,-64.303149,-61.981359,-61.865947,-61.374301,-60.346708,-60.39337,-60.627466,-60.389595,-59.897765,-60.475123,-60.472097,-61.138389,-61.293493,-61.596007,-61.32641,-62.67439,-63.205542,-63.63994,-64.710239,-65.135737,-66.246736,-67.546041,-69.034837,-70.863973,-72.487797,-74.97539,-77.904697,-77.81874,-77.298135,-75.966328,-75.342766,-74.248685,-71.000443,-67.888565,-64.638377,-61.602696,-59.05447,-56.136818,-51.481042,-46.580901,-42.7682,-39.634934,-35.833134,-31.030187,-25.680934,-22.837551,-18.683464,-15.447871,-11.561513,-6.7120875,-3.8233013,-0.47056258,2.5425704,6.2308453,9.4691775,12.248421,13.457946,15.232584,18.209962,19.555278,21.9695,23.805901,24.221783,26.723913,29.184899,30.552718,30.399838,30.772887,32.01454,33.216423,33.614082,33.295453,32.689396,33.772502,34.633404,34.486921,33.06304,32.305366,32.160365,33.011512,31.662235,30.77282,28.528782,28.978702,29.635291,27.801177,27.234684,24.970208,24.689097,24.796504,24.781629,22.922754,21.615404,20.994957,21.942859,21.465366,20.758277,19.408651,19.730593,20.807922,21.282174,22.452321,21.480537,23.561387,24.914797,29.297375,29.640197,32.354585,35.245076,38.920206,42.305934,43.37627,44.238741,46.715459,49.274204,51.045064,51.443917,53.485202,54.634135,56.231891,57.680934,58.024162,58.933241,59.530849,59.829522,59.402114,59.186624,58.675735,57.197797,56.246583,54.427471,52.030606,49.584351,46.493405,43.355698,41.060482,38.778935,37.691425,35.652125,34.534521,33.561879,32.713686,31.133425,29.352286,27.756674,26.394523,24.929396,23.855286,22.41412,21.693347,20.028437,18.613935,17.510823,16.528212,15.357547,14.030799,12.995683,11.321543,10.63273,8.7969321,8.3056991,6.7258961,4.7730735,3.6167516,2.2741584,0.7004152,-0.94388894,-2.4701576,-4.2864385,-5.4792088,-6.488208,-7.7990524,-10.301783,-11.37991,-12.874122,-14.406369,-16.164615,-18.361799,-19.527041,-21.155255,-22.667688,-24.347954,-26.467005,-28.129403,-29.730264,-31.983904,-33.819161,-36.675801,-38.75001,-40.500383,-43.052439,-44.97938,-47.073984,-48.97944,-50.883319,-52.313425,-53.189021,-55.681898,-56.838492,-58.321293,-59.575185,-61.260945,-62.762696,-63.923514,-65.032045,-66.356497,-67.442068,-68.913246,-70.215724,-71.231397,-72.716717,-73.881127,-75.770016,-77.396214,-78.632143,-80.29705,-81.799535,-83.764092,-85.23833,-86.865777,-88.743099,-90.923291,-92.814833,-95.482235,-97.466718,-99.819341,-102.36999,-105.03325,-107.84707,-110.22313,-112.87516,-115.45478,-118.60228,-120.94363,-123.84455,-126.07601,-128.00021,-130.66144,-132.97014,-134.64609,-135.79211,-136.92372,-138.60054,-139.68313,-140.1541,-140.23057,-140.07473,-139.95421,-139.9203,-138.16256,-137.23512,-136.08546,-134.47638,-131.39972,-129.11099,-126.69108,-125.04871,-121.62478,-117.26417,-111.6771,-107.86891,-103.47082,-96.920216,-90.30491,-81.884751,-76.465185,-69.416591,-62.343565,-53.329299,-44.838548,-37.684408,-29.973093,-22.383976,-13.213899,-3.6528327,3.9066287,10.574567,18.315532,27.537337,35.990226,42.772956,48.704697,56.243004,64.20788,71.884111,77.88316,81.789919,87.408806,93.995401,99.810078,103.6248,106.23243,109.7094,113.09851,118.05764,118.92178,120.5581,121.85184,124.35502,126.8514,127.10077,126.66957,126.57584,127.98768,128.33582,128.94768,126.96104,126.92481,127.56657,126.39749,125.85348,124.79712,123.31845,122.14825,121.01748,119.42562,118.63929,116.72553,115.46722,114.56995,113.44213,112.48931,112.04336,111.29367,111.67233,111.51526,111.9332,112.4093,112.83456,113.82891,115.26043,116.44922,117.58934,119.29262,121.18901,123.35225,126.04075,127.93404,130.56736,134.0217,137.25161,140.53911,143.81399,147.2615,150.79899,154.8237,158.90138,162.49666,166.15949,170.22369,174.80741,178.77153,182.99745,186.79973,189.49013,193.54406,196.52718,199.82512,202.52981,205.4881,208.62626,212.07142,215.77697,219.72347,222.50537,226.25999,230.28917,235.59249,239.21875,242.25348,245.02591,249.51561,253.96121,256.84379,260.11926,261.57672,266.02952,269.51242,272.49887,274.18898,275.82207,279.57142,282.15333,284.47854,285.52792,284.77908,283.91251,276.7335,270.7843,265.63378,261.37843,258.83075,260.49658,259.98015,260.99658,263.09432,268.02995,275.52928,282.74914,289.80302,297.36707,307.35709,318.58144,328.96759,338.63335,345.80342,355.22883,363.37986,369.60036,373.67891,376.04113,378.26122,380.67952,379.38985,375.20763,370.61009,362.09844,354.40319,341.51522,325.77997,309.37559,289.66823,266.81645,241.74666,213.44455,182.98823,150.43166,114.36746,77.55342,37.891304,-2.1572181,-43.728206,-85.829449,-129.04999,-170.93755,-218.16317,-265.87168,-315.07655,-367.0962,-417.69503,-468.24552,-517.36416,-566.83216,-608.58899,-651.17878,-690.37376,-731.81763,-770.89041,-808.83454,-840.74452,-871.20995,-899.13209,-925.55086,-950.54112,-970.52863,-987.8296,-1002.1842,-1014.2922,-1024.0073,-1028.085,-1028.5603,-1026.9363,-1023.6591,-1017.2136,-1008.445,-997.71628,-983.59071,-963.37433,-938.42309,-909.05682,-878.87213,-843.34693,-805.28167,-764.92989,-722.66862,-678.72274,-632.2916,-584.53095,-535.70613,-485.45011,-434.66498,-382.47864,-330.9066,-279.17452,-228.74945,-178.89251,-130.09708,-82.852405,-38.27525,4.1977047,43.715909,79.643781,112.7561,140.25054,163.45614,182.08429,195.757,205.38802,217.05673,227.1109,232.42965,238.82111,242.17888,241.8672,239.05546,238.73155,235.27012,230.46239,223.0648,215.31351,208.03876,200.81433,191.16922,180.73989,168.05648,158.13334,148.5648,138.36869,128.03476,116.49011,108.68976,99.719926,93.322694,82.53913,76.04716,68.873839,63.714953,58.883833,53.226983,49.626436,46.064724,44.917638,41.728169,38.881771,37.368867,38.399484,42.053616,43.953913,54.156769,49.390508,55.62179,58.105494,63.488132,64.879109,67.713401,67.629885,71.31613,73.824699,76.343394,81.177991,88.692393,93.77473,102.43732,113.56391,119.44522,127.12196,134.42152,146.13539,158.05601,171.36948,179.87443,188.93771,200.15181,208.6571,218.71876,224.4846,232.19566,237.92765,243.75441,247.28638,248.69909,249.01794,247.38189,242.78758,238.22557,231.40991,228.09768,223.442,217.47065,207.79327,196.38914,188.65842,177.31332,166.0552,152.45025,140.17379,127.56758,114.61362,101.55422,87.929272,73.734916,62.372166,49.165445,37.361536,23.494422,11.84836,2.522752,-7.2101359,-16.973158,-25.52213,-35.068142,-41.507348,-46.297117,-55.592484,-60.0917,-69.375763,-72.960423,-77.757601,-83.953831,-87.685391,-91.227403,-94.330653,-96.602354,-97.73713,-100.23407,-98.440786,-99.319448,-96.980074,-95.628251,-93.028292,-90.471562,-86.91974,-82.708219,-77.804283,-71.967995,-66.871064,-56.818228,-50.927753,-42.017236,-34.600915,-25.22233,-17.971596,-8.3653686,-1.7998954,6.9033675,13.560019,22.118709,29.299835,37.59002,44.656528,50.354273,57.585574,63.099879,70.026336,76.82315,81.878147,86.792855,89.864161,93.524486,85.904526,92.879602,89.934154,91.906807,90.608528,89.446004,86.799356,81.508921,78.137527,72.933678,68.134254,61.585918,54.560205,52.705673,49.807991,45.099697,42.928626,40.199631,39.677432,38.058221,34.155732,31.273448,29.736104,31.737207,28.086874,27.442803,26.540245,27.89649,28.405289,29.652144,30.537693,32.138387,33.846185,32.086131,31.161224,32.443722,30.566674,30.094079,32.96245,33.748916,33.246863,32.738997,33.50031,35.563706,38.321097,39.204547,40.268044,41.133793,45.223168,48.201513,48.629934,50.040441,51.794702,52.185987,54.265901,53.556242,55.781276,56.056878,54.463166,54.94033,56.176776,55.62892,57.267228,56.768429,56.887781,61.750232,57.904159,62.943078,59.382275,58.150368,58.061076,58.091252,55.795969,55.522177,53.591432,51.568521,49.446754,47.707406,46.007415,42.920114,40.551018,39.004189,37.364914,35.36766,32.662164,31.287994,28.924256,30.517624,25.241919,23.655872,20.757288,17.480779,13.756995,9.7803352,4.6087687,-0.05043959,-3.6687886,-7.5615015,-12.250565,-17.563607,-22.706279,-27.029559,-31.777713,-35.390375,-40.789455,-44.659909,-48.791255,-52.480579,-56.117211,-61.182917,-65.692906,-68.468284,-73.716037,-75.433705,-80.112949,-83.558163,-86.318262,-89.85794,-90.611849,-93.729332,-95.098599,-97.904918,-97.643004,-97.77893,-98.223905,-98.360344,-96.668573,-97.213131,-94.450292,-94.755751,-93.812863,-92.118043,-90.237362,-87.055923,-86.517749,-82.057112,-80.909718,-77.412086,-75.816873,-71.652731,-69.968592,-68.236493,-66.628939,-66.501111,-62.334329,-60.139656,-58.145368,-55.662781,-52.918407,-52.660685,-49.48871,-46.670129,-42.511896,-38.783938,-35.700721,-33.185763,-29.881157,-26.061297,-22.513179,-21.512928,-19.402444,-17.616118,-15.973681,-14.650402,-12.63862,-11.091484,-10.014186,-9.5291759,-8.9507077,-6.2698322,-3.7997442,-2.771045,-1.277967,0.089044187,2.0905738,4.5060029,2.0660845,4.6712546,2.9476974,4.60669,5.4475931,6.5357418,4.9847961,6.2234864,6.2565548,7.200812,6.9397173,7.8874721,8.4330414,8.2143616,9.5840546,10.388519,9.8255847,10.551133,11.100926,13.171041,13.157367,13.378822,12.978249,13.821234,16.258468,15.374908,15.188937,16.018465,16.417785,18.957898,18.805326,19.817535,19.385033,21.803005,23.299877,23.61737,23.520908,25.660559,25.886072,28.181212,28.872816,28.57819,29.619558,30.499904,32.280084,33.25221,32.487373,34.444906,33.764727,36.692707,36.266499,37.729605,38.290224,40.317481,40.63651,41.008101,41.751214,42.471682,43.014301,44.814978,45.607445,47.241025,48.338129,48.863591,50.946856,53.190295,54.934531,56.022485,57.860527,59.519447,59.833864,62.992011,62.932056,64.193195,64.44278,66.1493,65.396378,63.877479,65.360834,64.677991,64.496489,64.036393,64.42793,65.859748,66.326411,66.34369,66.066174,66.183179,66.982495,67.484601,67.1308,66.243894,66.688758,65.445767,66.180511,64.294242,62.176714,62.662416,60.917959,59.734335,56.695155,54.642687,52.372201,49.696625,47.65384,44.214141,41.080694,37.200904,34.807529,31.545989,27.127531,24.430346,19.730833,16.940109,13.393557,10.017217,4.7933506,1.091221,-3.1744288,-6.9034404,-11.386787,-15.376025,-20.105872,-22.872008,-26.383115,-30.260724,-34.320581,-37.928811,-41.790648,-44.049179,-48.891945,-51.9472,-55.631807,-57.562068,-60.340722,-62.873561,-65.194336,-66.890313,-69.296327,-69.854867,-72.533137,-72.990159,-76.073181,-75.613492,-77.970481,-79.162544,-79.51176,-79.031143,-80.737456,-79.857433,-81.066655,-81.169321,-81.122115,-79.494941,-80.330393,-78.365654,-78.292365,-75.932401,-75.474111,-74.055437,-74.267943,-72.972505,-73.390874,-73.452861,-74.077677,-75.718944,-75.870148,-77.314575,-77.481595,-78.841649,-78.523405,-80.938497,-81.338197,-81.572821,-82.330197,-82.781694,-84.317247,-85.21293,-85.50759,-86.506306,-86.479589,-88.246484,-89.407759,-90.151159,-89.687917,-91.392004,-92.33672,-91.460297,-90.059058,-89.715211,-89.96716,-88.730792,-87.227139,-86.427518,-85.284515,-83.604095,-82.104582,-79.255096,-76.571844,-73.979304,-71.792095,-68.676654,-65.861009,-63.954124,-60.437353,-56.80871,-54.815994,-47.878005,-45.910743,-40.193769,-37.7651,-33.0348,-27.6733,-23.739867,-18.260469,-13.280419,-9.230979,-2.5158465,3.7211896,8.4440876,13.790459,18.508868,24.726477,31.877828,36.672693,42.434714,48.201219,52.022956,59.155891,63.861456,69.118649,73.418014,77.984857,82.720047,85.481211,88.636116,90.424166,93.530624,95.666583,97.584963,97.913013,98.266894,100.21229,101.19394,100.58858,100.16311,97.673675,97.253135,96.565379,94.721981,91.147466,88.073435,85.099427,84.430314,80.341397,76.494683,72.965845,70.16771,66.828978,65.235732,60.407423,57.229882,55.060617,54.193962,51.051452,49.631242,44.855254,44.243059,41.14817,39.549453,36.284578,32.830807,29.748367,27.741278,25.137635,20.290019,17.377476,14.084401,12.906998,10.029882,7.6512882,3.1138261,2.5581745,0.25535398,-1.3592558,-3.966937,-6.5995257,-7.561974,-8.2006552,-8.8200331,-9.9584595,-12.621059,-11.839236,-11.610252,-11.075837,-12.210797,-12.166446,-11.770161,-11.894805,-10.396752,-11.622918,-11.465463,-11.44289,-10.406998,-9.4182801,-9.2518891,-9.7823866,-9.1606417,-8.1527692,-7.901703,-8.507376,-9.2855857,-9.9935437,-9.2242515,-8.8356117,-8.3603247,-10.6387,-9.724159,-10.254619,-10.402058,-11.990628,-12.048339,-12.713076,-12.940381,-12.488132,-13.114366,-14.553969,-13.624552,-13.938241,-13.93091,-14.5518,-13.841002,-13.285874,-12.358657,-12.028973,-11.332986,-11.193165,-11.551763,-8.5197719,-7.8937034,-7.8134508,-7.9125533,-7.218899,-6.0366045,-4.7451136,-4.7551588,-4.6279171,-3.3118634,-2.8326898,-1.923328,-0.9879571,-1.41539,0.49291889,0.50222218,1.7541338,1.9785231,2.3301432,2.8035349,3.6928662,3.2494237,3.9814172,3.7811487,4.8167798,5.5722827,5.7530171,5.1203056,6.493537,6.30987,6.5877789,6.9157514,6.6937563,6.2764455,6.7694557,6.6961277,6.1333802,5.2990083,4.9717887,6.0956872,5.0777017,5.8974109,3.8988692,5.5482483,4.6558028,5.0101926,4.7378694,4.3334608,3.792435,3.4784456,3.1579121,2.488608,1.8081813,0.91621249,0.67480546,0.058652312,-0.25248792,-1.6936326,-1.5650167,-2.5153235,-2.878419,-3.056397,-3.6746157,-4.7506752,-4.6160323,-5.1519876,-5.0830607,-6.2013606,-6.1495125,-7.012547,-6.504117,-6.6381164,-7.5024741,-7.6900357,-8.0276036,-7.6390056,-7.1948743,-7.2574309,-7.554688,-7.1046176,-7.14736,-6.2983661,-6.4787188,-6.2360637,-6.7985315,-6.0955332,-5.8759876,-5.4459372,-5.7630776,-6.0108869,-5.087072,-5.0439543,-4.1295348,-4.2062075,-4.2146493,-3.2723368,-2.355777,-2.7074246,-1.9677582,-1.8697846,-0.53937001,-0.76603241,0.35744667,0.47894046,0.68585821,1.5322657,2.3175211,2.8928106,3.2253058,3.499226,4.2847886,5.2061486,5.4251564,5.8050475,6.3661242,6.9979245,7.7439981,7.9764523,8.4135801,8.7080401,9.356964,10.301333,10.714801,10.985498,11.527484,11.690443,12.974055,12.630248,12.986278,12.937618,13.23471,13.878017,13.823423,13.66473,13.786078,13.628775,14.14775,13.596735,14.154256,12.561957,13.290993,13.245224,12.944851,11.983804,11.390035,11.091066,11.252809,10.883206,10.574868,10.230439,9.4993225,9.6331794,9.0383658,9.4673641,7.023272,7.1304152,6.7112351,6.1735456,4.7002516,3.7634848,2.6394719,2.2378624,1.360645,0.36826371,-0.99647631,-1.9426273,-1.951496,-3.0588766,-3.9965093,-5.6687179,-5.5747288,-5.9123184,-6.3869577,-7.8997566,-8.8558643,-9.6392612,-9.5183782,-10.845371,-12.085512,-13.591508,-13.452994,-14.857953,-14.731768,-17.352538,-17.156871,-16.758015,-16.839726,-18.871396,-18.731735,-20.831575,-20.74562,-20.875292,-21.438708,-21.808487,-22.388437,-21.265239,-20.375457,-18.853182,-17.314044,-15.603908,-12.794197,-8.8149754,-6.7179329,-4.1286651,-1.8054523,1.7024755,5.1955809,7.2630979,9.5011855,12.64885,17.358057,20.154722,24.006453,28.009302,30.970188,36.524248,37.658287,43.577124,42.900072,45.429631,47.156706,49.613206,48.697408,49.48285,51.79496,53.741581,53.907356,53.863505,53.593387,52.681105,56.398501,58.722474,58.894016,56.503724,58.079087,58.756068,60.208512,57.803439,57.840715,55.036825,54.915623,55.294128,51.385888,51.210325,47.854955,47.23875,45.656321,44.45691,42.735122,40.923217,39.188506,37.500199,36.244814,34.658743,32.913381,31.717065,31.006305,30.24886,29.942459,29.425674,29.197758,29.712686,30.851043,31.264676,32.057676,32.898773,34.559076,35.602832,36.768592,37.633047,38.674496,40.329252,41.76624,42.471906,42.888434,43.409784,44.537056,45.268624,45.722287,46.038169,45.897077,46.468497,46.359582,46.333805,45.546246,44.769735,43.865471,41.757931,39.792558,36.785318,33.378672,28.791148,25.061726,19.067898,14.343379,7.385008,-0.24525019,-7.0418783,-13.054182,-21.425214,-28.428626,-36.000753,-42.480205,-49.666929,-56.521537,-63.621844,-69.879568,-75.695012,-81.516427,-87.647573,-94.096941,-99.809027,-106.81834,-111.48707,-117.61121,-122.63879,-127.77515,-132.07375,-135.01823,-137.23798,-140.4207,-143.72528,-144.54709,-145.41463,-147.64453,-148.80606,-152.27734,-150.48043,-154.84168,-153.13489,-154.27365,-154.43832,-154.62987,-150.92167,-149.08154,-148.76077,-147.76132,-144.27244,-140.22677,-136.03871,-130.47903,-129.74473,-126.91657,-123.21293,-116.55762,-114.62232,-111.66147,-109.51575,-104.00994,-101.60751,-97.054831,-94.707035,-92.957069,-86.997562,-85.23844,-81.260957,-79.332962,-75.696346,-73.12116,-70.640182,-68.678732,-66.668742,-63.873503,-61.027052,-58.670439,-56.549051,-54.258934,-50.87477,-48.134436,-44.81285,-42.138464,-39.352307,-35.887001,-32.935584,-29.831133,-27.310852,-24.85493,-21.79879,-18.34253,-16.242742,-13.706239,-11.614276,-8.830611,-6.1349809,-3.2695646,-0.98291839,1.7550596,5.0688517,8.3029538,11.007956,13.10799,17.706791,20.981273,24.897225,25.443824,28.954606,31.358364,35.275342,36.951513,38.860846,40.617443,43.371568,46.390288,48.282331,50.634531,51.944455,54.270228,57.237298,59.240922,60.552888,61.19436,63.849233,65.404633,67.112254,67.998332,68.223092,69.592754,70.274435,71.083201,71.401921,70.446242,71.193509,71.067505,71.728547,71.083505,70.344246,70.48253,69.872067,70.358631,69.668942,69.239602,68.055906,69.245037,68.265308,68.509187,66.653197,66.634914,66.215351,65.396602,65.445654,63.257972,63.326382,62.660494,62.222746,62.001051,60.2837,59.55249,59.078734,58.413194,57.00968,55.02341,54.620165,54.410072,53.581226,52.401753,51.212972,49.696962,49.266044,48.894361,47.446645,45.863448,45.196886,44.082046,44.579858,43.001178,43.00939,41.011117,40.85196,39.720423,39.219127,37.780329,36.475781,35.647597,35.107624,34.363471,33.3103,32.102842,31.416147,30.867549,31.030433,29.598945,28.791252,28.39722,28.333773,28.522903,27.834522,26.604457,27.658271,27.490558,27.772155,26.608358,27.898862,26.990521,27.26421,26.797142,24.498005,21.765284,21.328541,18.691996,17.647446,13.515789,15.292103,13.119477,11.101634,9.663018,8.7361604,6.546854,6.185865,6.6842672,9.1264706,9.2379365,11.669062,11.731048,12.641887,15.719302,14.277687,16.678427,16.491897,19.791009,19.449658,21.559154,22.430009,22.887514,23.270895,24.846837,26.599039,27.942309,29.455496,31.638487,34.945783,37.815536,42.243087,45.411702,49.047148,51.659394,54.849987,57.119279,58.502443,62.161441,63.326724,65.971777,66.266481,68.537062,68.135073,70.280455,70.736273,71.6163,70.959928,70.924249,71.396069,70.925098,71.421196,69.296039,68.71566,68.116782,66.232021,64.989337,62.649451,59.419328,57.317108,54.688594,52.211788,47.263468,43.415423,39.279456,35.807524,30.540576,26.053253,20.157115,15.518227,10.836344,6.1625409,-0.29324033,-5.5176309,-11.949719,-16.426122,-23.8266,-29.293164,-35.809918,-40.72523,-46.537553,-51.776693,-57.579705,-62.635844,-67.402081,-71.609209,-76.538188,-80.71219,-84.748065,-87.296712,-90.295374,-92.819387,-95.181037,-96.443059,-97.798524,-97.689138,-98.55504,-97.586141,-98.903794,-97.223496,-97.407849,-94.93281,-97.029629,-95.74274,-95.754355,-94.920148,-93.899031,-91.903774,-92.093021,-89.393015,-88.241025,-83.653366,-84.804378,-84.149768,-81.543426,-79.584191,-75.566423,-72.224856,-69.365885,-67.103297,-65.091449,-61.720908,-61.529004,-59.499589,-58.094178,-57.846891,-54.963049,-54.993628,-53.460207,-55.296842,-52.930546,-53.447353,-53.35325,-52.442033,-51.504448,-49.675482,-48.373749,-47.278857,-45.647236,-43.833941,-41.297322,-40.439124,-40.117025,-40.290408,-39.734262,-38.656235,-38.982309,-38.339071,-37.592182,-37.147259,-36.128753,-36.050794,-35.57377,-35.163874,-32.999575,-32.253449,-31.637426,-31.099021,-28.531122,-26.865471,-24.252572,-23.468172,-22.06569,-19.401375,-16.69911,-14.391246,-12.119562,-11.026508,-8.1882534,-4.9765252,-2.5898354,-0.40215044,1.0735666,4.3233612,7.3765306,10.760718,12.054916,14.368496,17.003203,20.127652,22.625641,24.907142,24.707181,29.232305,30.001151,33.779695,34.40211,36.272091,37.686509,40.179963,42.063685,43.482117,43.618494,44.988076,47.329685,48.723138,49.378016,48.9385,50.556741,52.368262,53.253475,53.652845,53.310001,55.160379,55.166044,58.021153,56.020205,56.818839,56.189045,58.845198,59.073205,59.706647,58.341389,59.448968,60.973473,61.725173,60.992668,60.605765,60.373962,61.820484,62.20849,61.547306,60.754842,60.191147,61.577866,61.583685,60.362124,59.262359,58.228006,60.347095,59.58406,59.109071,57.63053,56.966223,57.731734,57.514159,56.157762,54.293493,53.508661,53.480297,52.71243,50.774521,48.791281,47.40485,46.056108,45.935619,43.482247,40.066912,38.033319,35.77794,35.528992,32.464944,30.406423,27.497698,25.689075,25.146672,22.562507,19.839285,18.234821,15.833632,14.558168,11.805354,8.5949322,6.5104525,4.47201,2.1241788,-0.40471732,-2.8900527,-5.0478231,-8.0698213,-9.1190923,-12.477731,-14.085986,-16.519134,-17.94888,-19.385684,-22.012353,-23.902142,-25.527285,-27.617234,-28.826346,-30.193279,-33.27281,-33.9511,-35.459581,-36.587015,-39.066147,-40.479935,-42.005372,-42.712534,-43.877371,-44.507902,-46.741759,-46.193865,-48.752305,-48.314995,-49.798618,-50.512205,-51.903891,-52.433237,-53.348471,-53.874936,-54.160959,-54.114008,-55.17002,-56.463259,-56.48321,-56.69865,-55.21893,-56.90405,-57.431715,-57.316373,-56.815483,-55.825838,-57.096813,-56.152295,-57.383336,-54.651038,-53.774237,-53.001355,-53.586235,-52.27381,-50.94099,-48.372767,-48.003124,-48.00623,-46.773382,-44.077519,-42.014079,-40.467536,-39.670021,-37.954936,-34.819382,-32.415221,-29.876921,-29.123724,-26.993455,-23.118008,-20.430932,-17.080044,-17.10508,-13.738812,-11.32222,-7.9631963,-5.7040096,-5.2100185,-3.0889205,-0.27441609,2.257444,3.9556293,3.9455547,5.5470287,7.6719223,9.671857,10.938785,10.979186,11.028377,12.688431,14.297859,15.183501,15.733153,15.694516,16.767705,18.130826,18.603477,18.548277,17.668473,17.97357,19.299407,18.131955,17.579275,15.884296,16.344926,16.342627,15.74916,13.980904,12.913007,12.554802,12.274201,11.821657,9.9195454,8.6799844,8.3436647,8.0737394,7.7751962,5.5904041,3.9012757,4.350169,3.7776619,3.4443735,2.0646074,0.51012349,0.057516809,1.0479538,0.19399864,-1.0908593,-3.3322561,-2.8552935,-3.3821041,-3.3011676,-6.095688,-6.7145783,-7.7012366,-7.5832901,-8.0794907,-10.228369,-11.558937,-12.576783,-12.677339,-13.463321,-15.267207,-15.559712,-17.075561,-17.338901,-19.15733,-19.551065,-20.731639,-20.759439,-21.284678,-22.26508,-22.6881,-22.979793,-22.802914,-22.939136,-22.780342,-23.245638,-22.672123,-22.024241,-20.987652,-22.223294,-21.881777,-20.07233,-20.728254,-19.872858,-21.382225,-19.572709,-18.685227,-17.218783,-16.643232,-16.934512,-16.282111,-15.612983,-13.078429,-13.995454,-13.861603,-13.825443,-11.191217,-11.401018,-10.351588,-9.8522818,-10.453137,-8.0318469,-7.7377186,-6.1291704,-5.4244577,-5.1488361,-1.9784204,-1.3288584,1.7716669,3.0740181,5.3655682,8.2829465,10.784282,13.795932,14.373217,17.247985,19.346607,23.007475,23.575669,23.374658,25.099342,25.888224,28.396489,29.118409,28.799705,29.465794,30.104152,32.962511,31.675782,30.692917,30.61798,29.935783,30.922956,29.957734,28.762995,26.759627,27.350207,26.644389,25.560289,23.703023,21.811509,21.864227,21.490287,19.507926,18.447738,16.073868,15.256897,16.231455,13.836451,12.594419,10.792727,10.542563,10.824106,8.9978888,6.7451406,4.7691243,3.962397,4.1818878,2.0413684,1.2028661,-1.3575905,-0.74918121,-0.88490768,-2.1418636,-4.5869435,-4.9714795,-6.7816206,-4.6852289,-6.3505581,-8.4266049,-9.1659965,-8.8075,-9.2264906,-8.3958846,-10.992762,-9.3048228,-10.037926,-8.2427361,-8.3921905,-8.9233949,-8.2055148,-7.4539979,-5.4448884,-4.515331,-3.5643813,-4.0742649,-0.98010114,-0.067850031,2.0530171,1.7555007,3.3429723,5.4296917,5.6764051,8.5275111,8.7461784,11.432618,12.266247,13.99684,14.834004,15.592086,15.998314,17.181163,18.298653,17.331932,18.103693,17.473244,18.934528,16.743106,18.341915,16.911231,16.014227,16.34813,16.374465,16.422852,16.578166,14.555156,16.634638,15.958076,17.663658,17.048202,16.111289,17.753837,16.691548,18.260591,16.502987,16.774796,16.112218,16.052528,14.685792,14.301516,14.961147,13.72727,15.671133,13.786134,14.37319,12.781509,14.355332,13.353502,11.805757,11.729505,10.803183,9.9823356,11.769754,9.3585303,9.9661322,8.2228965,9.1581514,8.5992225,8.3424386,7.6529204,6.7016341,6.1618815,6.2516545,4.0456958,5.0856889,1.5065002,3.3422331,2.365547,1.8528392,1.8319523,0.46067918,0.62973405,0.30643412,-0.27245346,-0.97821964,-0.62198284,-1.2303385,-1.2129736,-1.5449077,-1.6801455,-2.7134094,-1.7614947,-1.6623872,-3.0595832,-2.5526831,-2.247855,-3.7308708,-2.240743,-4.5242075,-3.6527406,-3.648931,-3.9049251,-4.0232884,-4.5294281,-4.7779434,-3.4998029,-4.4706532,-4.3096495,-5.9787517,-5.0589337,-4.0965743,-4.6154476,-5.3508953,-6.4555109,-6.0488054,-6.2777462,-5.4215406,-7.5045927,-7.9202767,-8.1866461,-7.8652575,-7.4905137,-8.6921816,-8.8746733,-9.1132231,-7.851589,-7.3634735,-7.8445638,-8.305091,-7.3498047,-7.1353261,-5.6203739,-6.3505004,-6.437064,-5.8655795,-4.9651669,-3.4039447,-4.6598652,-3.9202313,-3.8032816,-2.9507362,-1.7563775,-1.7136862,-2.5193539,-1.2827632,-1.3236264,0.92055355,0.32195077,-0.08838014,1.0372975,1.1442575,3.8335752,1.8068495,2.8354912,1.9526741,3.371929,4.4582919,3.8001962,3.3617981,3.1360636,3.9357078,4.431194,4.1378621,2.6444865,2.971604,2.9800556,4.5451553,2.0826618,2.6814639,0.9020302,1.7854729,2.1422391,1.7833277,-0.62599002,0.24426513,-0.99225411,0.5418396,-1.1544708,-2.6474971,-4.0808836,-4.1294651,-4.0655601,-4.6552352,-7.1717651,-7.399057,-8.4025305,-6.545735,-8.7191951,-9.0732653,-11.195918,-10.8405,-10.892561,-12.458884,-12.412019,-14.146995,-14.013693,-16.226272,-14.788387,-15.241699,-16.26147,-14.966415,-14.768104,-13.696249,-14.081343,-12.093514,-12.426324,-11.342965,-10.582275,-9.2867039,-9.1018289,-7.3347407,-7.3849162,-5.5410072,-4.9371584,-3.2673483,-2.5998985,-0.99252947,-1.6514949,-0.75828111,0.71982173,1.0941381,0.9805586,0.0035829446,2.1202959,2.4253288,2.9879512,2.8459265,2.7331924,3.1173949,3.0265212,2.7717537,2.1098616,0.92063224,-0.69452887,-1.6613559,-2.2508803,-3.1651702,-4.6170831,-5.1893676,-5.7487481,-5.6831213,-5.6284203,-5.4352535,-5.1801996,-3.2643356,-1.4886227,0.52902919,2.349696,3.6221345,6.1775524,7.8592278,9.9700555,10.779527,12.027452,12.891674,13.781018,14.692634,14.207089,13.854132,13.540663,13.449111,12.854435,11.153673,10.52429,9.6570321,9.3061393,7.9155181,6.5910075,5.6929407,4.3490453,3.9813178,2.5348652,1.1038133,-0.21562886,-0.90460202,-1.3874301,-2.649462,-4.7078999,-5.1501621,-5.7707998,-6.5741704,-7.240181,-9.2931875,-9.7950433,-10.203552,-11.003227,-11.174639,-12.608268,-13.008606,-13.525216,-13.797043,-13.748151,-14.851106,-15.263895,-15.634826,-15.923968,-15.943124,-16.956646,-17.632437,-18.316166,-18.655312,-19.042501,-19.227507,-19.164199,-20.417342,-20.174768,-19.28715,-16.83363,-16.86558,-16.636712,-14.772768,-13.385331,-10.32514,-9.2245116,-8.0861039,-6.8601548,-4.2696622,-1.5726749,0.8898041,1.2910826,4.3554026,6.1276854,10.384059,12.088986,13.792343,15.882343,18.757796,21.12312,23.981108,24.859721,27.123008,29.121518,31.291167,33.918944,32.905918,34.531856,34.116006,34.899511,33.068577,31.494733,29.651753,28.342392,25.845628,23.462856,21.221232,19.200662,17.571619,15.515032,13.516617,11.59948,11.031677,10.325302,10.100506,9.2987081,9.2675707,8.7871791,9.0715468,8.5394326,7.5676309,7.0435767,6.1808969,5.8951703,5.1471293,3.91284,2.5172111,2.010392,1.2508698,0.10762639,-0.7047302,-2.2508644,-2.5719481,-3.7069769,-3.8247177,-4.2581649,-5.278739,-5.9094791,-6.0520838,-6.0770761,-6.3356246,-7.4968945,-7.2329954,-7.7869416,-7.2004844,-7.6366564,-7.7765841,-8.0830034,-7.7246709,-7.719729,-6.4917905,-7.2228447,-7.5384059,-6.8861323,-6.4515991,-5.333965,-5.4380587,-5.4119324,-4.4428734,-3.8995085,-3.2976301,-3.0165573,-2.8777882,-1.6360093,-1.1039647,0.030697903,-0.3931646,0.60209608,1.380881,2.0026315,2.7898482,2.2969587,2.9794575,3.1680277,3.719097,3.7846435,3.8454151,3.0939813,3.9758386,3.6640712,3.744135,3.3575277,2.9814254,3.1323406,2.9473738,2.5949379,1.6858897,1.6856638,1.0971799,1.5518832,0.49300383,-2.1533745,0.41626793,-1.005022,-1.2255348,-2.4595244,-2.802845,-1.5247008,0.26554626,-0.11486848,0.50351598,-0.41346154,2.7190573,4.6044547,4.6779385,5.0281196,5.8477327,7.984373,10.918775,11.203538,11.243743,12.44465,14.42724,15.98638,16.174295,16.226798,16.004976,16.927816,18.9761,17.662632,17.752708,16.724111,18.988905,17.919407,18.986133,16.918508,16.682206,17.456244,18.327932,17.732994,15.595314,14.990703,15.585097,14.609515,14.288215,12.441749,10.411585,10.906769,10.33777,8.4861486,6.872163,4.148323,4.1688288,3.259851,2.6263488,-0.28371526,-2.2895065,-3.2352651,-4.0100518,-5.0981414,-8.4360153,-10.390939,-11.549504,-11.985809,-13.150518,-16.45004,-17.903846,-20.197354,-20.275885,-20.419982,-24.818765,-25.011064,-27.274333,-26.574946,-26.87642,-28.85606,-30.094691,-29.845256,-29.418277,-29.236581,-29.677736,-30.74654,-30.650399,-30.14461,-29.751693,-30.274774,-31.43896,-30.591785,-29.800716,-29.46112,-29.089969,-29.931563,-29.213303,-28.519025,-27.792636,-26.912397,-26.691381,-28.217262,-24.452602,-24.464904,-23.350111,-22.783339,-23.847051,-21.520515,-23.023804,-22.489147,-24.541312,-25.274881,-27.376125,-27.442123,-28.058466,-28.295204,-26.667901,-28.51238,-27.144182,-25.593173,-23.305325,-20.871552,-18.847423,-16.804425,-11.999344,-8.3887777,-1.1800336,1.5765348,6.0334997,12.232294,16.800963,18.903202,23.171532,24.062679,27.945531,30.342125,32.455971,36.192702,37.235177,41.026236,40.380098,41.824269,42.518911,42.757164,43.411588,42.690249,44.100202,44.23311,45.971096,45.372458,46.287667,45.972515,45.239441,45.444618,43.84616,44.338927,43.411616,42.81855,43.99375,45.218814,45.976674,46.470772,48.847229,47.36571,50.7522,49.550011,52.32434,52.35529,54.076494,55.040268,57.641123,59.998558,63.409731,66.581695,68.172982,73.390472,74.566307,79.31917,80.187969,80.881378,83.650734,83.718532,85.251209,85.144615,85.073699,90.435758,91.205005,94.875577,97.884429,103.84511,113.77268,125.36703,137.20636,149.79499,165.89101,183.1181,201.79193,219.58222,237.64305,256.68582,275.01069,293.92812,310.03626,326.04878,342.19279,357.04958,372.08727,384.5334,394.06997,404.21119,409.93378,414.77786,417.71577,414.59885,410.98857,403.80163,392.263,380.93903,360.86064,346.43516,326.55676,307.78854,285.67676,264.66942,242.51836,219.21845,195.41671,171.78429,147.00913,123.73249,99.574425,77.150218,55.401782,36.27445,19.317427,1.5879258,-14.781067,-35.237091,-53.212653,-73.080954,-92.229188,-112.03758,-129.8444,-151.73549,-172.00077,-192.74293,-213.94401,-236.52837,-263.78975,-288.71076,-317.00118,-342.57695,-371.78696,-403.1383,-435.08725,-466.23223,-496.25828,-529.05202,-562.89545,-597.14722,-628.0452,-659.66298,-689.28812,-720.32399,-750.40179,-777.21342,-801.95971,-825.69059,-848.73908,-870.64424,-889.95526,-906.65488,-920.186,-936.08549,-944.69139,-954.2119,-956.60858,-959.23289,-959.04634,-957.46032,-951.84112,-944.8688,-935.65596,-928.0914,-917.60753,-904.33269,-890.96552,-874.92839,-862.82762,-846.70848,-829.05888,-810.81286,-790.88873,-769.97025,-747.56337,-722.11605,-695.52818,-666.12144,-633.38331,-597.79327,-559.21826,-519.18956,-477.60791,-435.11357,-389.15589,-343.94469,-296.37714,-250.07634,-202.32741,-154.62518,-106.51353,-58.15376,-10.391179,36.997915,82.843644,128.53376,172.1672,212.87625,250.66096,287.4397,320.09406,350.84727,376.74719,399.95719,420.31285,436.94087,451.50921,462.71065,470.0619,479.52715,482.664,484.34243,481.4323,479.62979,475.93729,471.98177,464.3458,458.23982,450.01497,444.42545,439.31185,434.46606,430.41978,426.33249,425.13294,421.69773,419.58,416.01222,416.12824,417.89815,421.05256,422.53144,424.90176,428.27132,434.2648,439.66665,444.39628,448.73181,454.02918,461.05044,467.0732,471.69167,476.21509,480.03159,487.19577,493.22053,499.09236,501.96346,508.0929,512.3449,518.8591,520.64609,523.03404,524.08491,526.78512,528.95146,529.69132,528.22192,527.22493,526.30213,525.66641,521.07684,515.77263,509.76901,505.18041,499.86482,494.57434,487.84802,481.66941,477.17037,472.92862,467.2232,461.38984,455.1414,451.5758,446.09764,441.46301,433.057,426.19219,421.51159,414.78029,407.44267,399.27366,389.7566,382.32486,374.10498,365.11793,354.68947,344.48266,335.12527,327.43994,317.13197,307.20148,294.63201,287.49908,277.43473,268.04985,254.83043,243.0173,232.90197,222.03926,209.72486,195.63942,182.87971,169.37365,159.37878,146.8427,133.7101,121.62222,110.3755,99.281367,86.57245,72.421101,59.411032,45.798134,33.94943,20.347744,5.4957444,-6.8048051,-20.709002,-33.511769,-46.704169,-61.636028,-74.603981,-87.668145,-100.3496,-114.64977,-126.79387,-140.98754,-151.80448,-166.38635,-177.7571,-190.59447,-201.82789,-211.65865,-221.44792,-230.22121,-237.66284,-244.68169,-250.17159,-257.12902,-262.04133,-267.07075,-271.29475,-276.07837,-279.23186,-283.30914,-284.7227,-288.75359,-289.06119,-291.85651,-290.09332,-289.6224,-288.42684,-285.54321,-284.14383,-281.87896,-281.06826,-277.28709,-276.45167,-275.34001,-271.77805,-270.16129,-265.63202,-264.18777,-258.11859,-258.20851,-253.17468,-253.09302,-249.4925,-250.73906,-248.8634,-248.28844,-245.92993,-244.2636,-240.8215,-237.63908,-233.9764,-229.55781,-225.54362,-220.62869,-217.30742,-212.26078,-208.8567,-204.36182,-200.85481,-196.41217,-193.4599,-188.8299,-185.35596,-181.69725,-177.93807,-174.4205,-171.71106,-166.77773,-163.70811,-158.95786,-155.13356,-151.30589,-147.59584,-143.7524,-141.37765,-138.04765,-136.54462,-131.38127,-131.87402,-129.10802,-127.48752,-124.33303,-121.09454,-120.00618,-117.18441,-117.50535,-112.1143,-111.07408,-107.71812,-106.63084,-103.56565,-98.583483,-95.563058,-92.629863,-90.045822,-85.207205,-78.461655,-73.141771,-66.763983,-63.191933,-56.533952,-49.718086,-45.602269,-40.585946,-38.520216,-35.519302,-31.342493,-27.427181,-25.823389,-24.930311,-23.071865,-20.686815,-18.365043,-18.557816,-15.95896,-15.39381,-12.002419,-9.6427124,-7.766806,-6.1945612,-4.8789769,-4.1078559,-4.0764772,-3.5387696,-3.3945079,-3.8078013,-5.2915135,-4.7818345,-5.5039916,-6.7009053,-7.0174065,-8.0628947,-6.9473618,-7.6998343,-5.3958993,-7.5323087,-7.0584838,-8.593054,-9.2182927,-9.2144717,-11.770875,-10.929267,-13.215537,-11.942152,-10.793167,-9.9551672,-9.3716873,-7.4858202,-5.1484397,-5.9011529,-2.1213435,-2.3336838,0.7961953,-0.20556702,3.388487,4.5112723,6.6232233,9.6012012,11.745346,16.525154,19.47991,24.867381,28.339814,34.831219,38.693179,45.860627,49.318838,56.284963,62.083308,67.561214,74.086232,79.699208,86.832236,93.278992,100.7466,105.62597,112.98241,118.28956,124.48029,129.58077,134.26814,137.4693,141.01147,144.93969,146.31979,149.85264,150.28299,152.56152,152.9137,153.74778,153.4852,152.46819,149.18719,147.50428,142.81762,138.48229,135.68099,128.78848,124.50201,119.68735,117.46488,112.56022,107.1552,102.1211,97.765482,94.705899,88.825507,83.867033,76.480374,72.276314,67.813264,62.46338,54.565862,48.820362,42.390178,37.683685,31.617655,25.07713,18.722625,13.800684,9.2816516,5.2113057,-0.6440334,-5.9337641,-8.8724796,-13.043622,-16.407518,-21.35888,-26.278726,-27.878777,-31.7611,-35.560468,-37.798357,-40.549382,-41.595932,-44.501988,-45.695512,-48.200313,-49.996089,-50.709106,-52.346504,-53.002283,-55.312853,-56.091982,-55.824976,-56.303327,-55.966202,-55.894758,-55.359915,-54.372867,-54.65436,-53.527225,-54.330365,-53.117631,-55.006432,-53.282332,-55.817946,-55.363079,-58.45685,-58.074446,-59.975307,-61.341493,-65.113711,-66.249598,-68.003438,-69.15826,-72.014628,-72.59065,-75.291888,-74.106272,-75.553751,-73.94349,-75.506311,-72.291851,-73.907313,-72.222157,-72.870204,-70.332548,-70.65369,-69.436476,-68.256381,-66.926925,-63.545881,-62.679952,-57.933942,-58.10233,-51.122594,-50.510646,-44.099745,-42.245608,-37.6518,-34.612326,-29.840234,-26.835063,-22.49809,-16.92117,-13.248758,-9.086302,-3.7242527,-0.68564429,4.9888768,7.707431,12.112037,16.477717,19.455371,24.393343,27.17619,31.664203,35.245423,38.853347,43.611938,45.073613,49.028659,51.076857,54.65529,56.647883,58.733222,61.74357,62.991208,65.935045,67.699403,68.37008,69.460597,70.75254,70.972079,71.825387,71.551691,71.332578,70.694804,71.00084,68.946569,69.949358,66.367468,66.985605,64.155798,63.138026,60.599539,60.473859,56.239898,56.264537,51.741332,51.333865,48.653535,45.760826,44.265629,40.104625,40.407121,34.990446,35.835932,31.180038,30.360983,28.409814,27.298798,25.540716,25.444367,24.387891,24.069069,23.766243,22.476973,22.47611,21.442302,20.493343,20.126196,18.238413,17.711222,17.386191,15.917683,15.379465,13.969296,14.627968,12.797816,13.256733,11.642152,11.317858,9.7727273,9.6792609,7.5871831,8.3107195,5.7769002,6.3817886,5.9128183,4.2342325,2.8630388,1.4968515,-0.79902826,-1.4701553,-2.9001255,-4.5638122,-6.5080817,-8.4177323,-8.8117982,-10.083587,-10.640507,-13.479215,-12.946302,-15.644219,-14.698866,-18.553554,-18.681665,-22.544853,-22.323665,-25.44869,-25.621841,-28.920319,-28.260413,-31.495496,-32.110115,-35.205362,-35.101956,-39.554792,-38.892437,-42.649262,-42.290961,-45.846704,-46.079806,-47.426349,-49.102014,-49.568614,-51.616764,-52.393421,-54.537234,-54.856965,-57.226257,-58.034216,-59.316863,-60.576686,-61.139504,-62.608987,-62.630039,-64.022396,-63.582721,-65.580901,-64.58448,-66.629072,-65.205357,-66.587016,-66.25155,-66.711224,-66.84453,-65.96144,-66.63683,-66.518451,-67.112949,-66.338312,-66.431851,-65.606749,-65.861161,-64.580551,-66.40709,-63.349216,-65.189428,-62.243262,-64.564388,-61.974866,-62.715567,-61.385367,-60.450142,-61.872055,-58.819883,-60.669999,-58.621389,-57.381921,-56.765667,-55.525983,-52.813532,-51.662866,-49.49904,-49.052212,-49.034886,-48.683863,-49.36722,-49.363954,-50.564297,-51.729654,-51.936852,-54.159337,-51.55572,-54.336784,-54.746803,-54.693356,-56.462919,-56.606845,-58.270934,-59.606189,-59.976753,-59.447633,-61.123673,-59.796638,-62.330203,-59.623012,-60.881005,-59.822865,-59.489837,-58.722522,-57.531427,-57.14327,-54.785136,-53.431646,-52.342756,-49.671351,-46.523325,-45.3033,-41.899911,-40.913112,-36.152099,-32.670851,-28.475607,-25.851233,-22.368411,-17.436227,-10.582836,-6.8993321,-0.90911515,2.4657215,10.172177,16.083341,23.441823,28.291493,34.058536,40.442534,49.618761,54.941446,61.748121,66.780423,74.861544,82.085899,89.131192,94.660169,100.25471,107.08625,114.10199,121.29109,125.14198,131.28281,136.35703,143.18184,148.1094,152.42214,156.03598,160.35595,165.8124,169.16994,172.20746,173.45846,177.13259,178.86497,181.82605,180.83159,181.90378,181.73487,182.59659,181.60439,180.99404,177.47077,176.90766,174.06246,170.73622,167.12804,162.58593,159.26975,154.05356,151.8522,144.83659,142.55116,137.08718,135.57495,130.22852,127.82754,123.80051,120.76113,116.76943,116.588,109.69505,110.23629,104.26832,101.34771,98.984461,92.655685,89.6972,85.111624,81.364528,76.245037,72.870419,66.84562,63.30112,58.640451,55.375406,49.422679,47.701893,43.382879,39.491794,35.928458,31.751412,26.261938,23.66211,19.290021,14.63893,10.962669,6.7810697,3.8411898,0.72316645,-3.1462664,-5.4991388,-9.0970181,-10.674251,-14.866674,-16.969907,-21.155973,-25.467961,-26.5922,-32.191451,-33.67972,-37.901955,-39.798952,-39.848906,-43.005468,-44.097425,-47.877987,-47.610849,-48.681627,-49.19573,-51.721484,-52.934655,-53.872034,-53.719709,-54.562347,-56.505087,-57.983516,-58.760776,-58.146754,-58.98085,-61.056573,-62.601182,-62.194903,-62.571325,-62.759833,-64.020366,-64.04289,-64.277714,-62.988052,-62.372714,-62.151748,-63.883881,-62.611401,-61.410491,-60.831062,-61.180624,-61.115478,-60.239697,-58.455315,-57.187696,-58.333595,-58.2488,-56.827106,-55.686064,-54.661808,-55.213933,-56.273786,-53.951386,-55.111161,-52.968774,-55.412438,-55.745649,-56.443746,-55.249926,-56.854956,-58.249536,-57.677261,-59.063213,-57.661977,-59.774222,-57.751741,-61.28009,-57.215683,-58.734593,-57.089259,-59.082068,-57.115547,-57.375954,-55.769232,-55.571123,-54.480176,-53.927195,-51.206723,-51.678326,-48.597858,-47.480624,-49.16906,-45.257545,-46.717806,-44.527144,-44.757063,-42.732866,-43.361314,-40.307366,-39.594634,-37.230225,-35.818925,-34.50285,-33.78976,-33.012088,-32.602159,-32.408972,-31.489778,-29.191255,-28.553029,-27.161206,-26.181492,-24.227292,-22.990337,-20.937855,-20.8727,-19.534752,-18.547809,-18.08687,-18.304399,-17.61336,-17.383221,-17.318604,-14.731306,-15.552412,-13.236267,-14.478941,-11.444588,-11.175163,-10.514212,-8.9669408,-10.564326,-7.2897786,-6.8362857,-5.5824658,-5.3787703,-5.0426329,-4.5068062,-2.8211134,-2.3551759,-2.0893845,-2.8159182,-1.2422907,-0.72175623,-0.1523447,-0.65430265,-0.33600696,1.1628838,1.6280399,3.0238874,3.0337668,4.653036,3.7952416,8.0751666,7.1741063,8.6262132,7.5492989,10.34935,11.03229,11.883127,12.391437,13.612208,14.049741,15.924177,16.521005,16.685365,18.551951,18.533468,19.24578,19.906059,19.182815,20.242662,20.543248,21.172533,22.514952,22.59021,23.6173,24.219329,25.890561,25.882762,27.112024,26.792114,27.887468,28.350243,28.578118,30.370286,28.853635,32.190226,30.57357,32.355747,31.040159,32.3267,32.550126,32.932474,33.959812,34.047083,35.53967,35.306317,38.108834,38.436969,40.44531,39.347845,44.60975,43.195593,47.233666,45.857194,47.436395,47.705131,49.726934,50.093178,51.50514,49.562911,51.404859,50.971768,51.49742,50.38072,49.966287,49.41856,49.692153,47.596264,47.869327,44.601969,44.741179,42.225992,41.695526,39.194359,36.500845,35.338067,32.197843,30.504716,27.752893,25.061007,21.739894,20.199887,16.571608,14.038419,10.465187,7.8629918,5.2057926,3.3744994,-0.57756542,-3.8129047,-6.4724787,-8.9672402,-12.61187,-15.004264,-18.447602,-20.73408,-23.286594,-25.541408,-28.687403,-31.245823,-33.463999,-34.845322,-37.683438,-38.977668,-41.271304,-43.065632,-44.589582,-45.785431,-47.1741,-47.237947,-48.732113,-47.326539,-49.928533,-48.280116,-50.08726,-49.768408,-51.467761,-50.827294,-51.453413,-51.661676,-52.867839,-52.613465,-52.414275,-53.258327,-53.014114,-53.28024,-52.490899,-52.251534,-50.898812,-50.058311,-48.08698,-45.481296,-47.291896,-43.502974,-42.808769,-41.926965,-40.625027,-39.928719,-38.385778,-37.599662,-36.186787,-37.083431,-36.022392,-35.715618,-35.592981,-34.949056,-34.739126,-34.854546,-38.286639,-36.753091,-37.126939,-36.789324,-37.609761,-36.659439,-34.564206,-29.313459,-25.089397,-22.84061,-18.732787,-15.267267,-10.040772,-9.2338525,-3.6207687,-0.89793058,1.9081731,5.8379185,9.0576347,12.822658,16.210865,16.599305,21.129899,22.110103,24.517362,24.528505,27.353139,27.655404,31.377767,30.3939,34.623101,33.35001,37.178945,35.809697,40.224573,37.217037,39.714344,39.923296,41.506587,40.492388,42.791265,39.411679,41.542381,39.669326,39.693094,37.754275,39.009429,38.212019,38.994323,38.897405,38.281196,37.612284,36.512985,37.242953,35.74736,36.141946,34.803169,34.930667,33.539708,35.130428,32.817092,33.72211,31.670658,32.876639,30.76591,32.112524,29.839826,31.042939,30.346286,30.247078,30.180215,29.326431,28.468881,27.853716,27.011206,25.948359,24.150749,21.808033,21.418712,20.476859,18.272614,17.61077,15.577427,15.822005,15.892264,14.332266,15.48376,13.300472,12.723981,12.451306,12.985754,11.349522,12.219299,9.1741507,8.6087046,9.3575462,7.7371183,5.5934543,4.9769045,3.8879352,3.6586719,0.8269304,-0.66023331,-3.715763,-3.8463827,-6.6486968,-7.7981255,-12.207566,-14.274574,-19.301887,-21.661104,-21.660638,-24.483088,-25.841011,-26.284932,-24.359686,-23.13923,-22.550886,-22.964563,-23.843343,-22.022429,-22.207093,-21.792921,-21.603512,-19.921031,-20.173554,-21.128742,-19.057963,-19.712561,-17.897744,-18.968436,-18.749652,-18.067969,-18.28888,-18.626918,-17.023424,-16.502247,-16.70025,-14.643417,-15.489513,-13.471129,-15.029883,-12.794797,-15.318494,-13.271807,-16.303371,-12.955536,-15.869094,-15.562905,-17.914658,-17.051938,-19.489874,-18.754249,-21.359202,-20.847732,-21.44569,-20.6068,-22.39565,-22.820151,-24.146205,-24.748772,-26.745189,-27.233363,-27.681538,-29.858102,-29.519787,-31.152117,-31.597525,-32.672519,-33.221258,-35.077789,-35.09733,-36.642309,-37.199187,-37.739305,-38.889041,-39.88302,-40.16152,-42.851286,-43.163692,-43.711273,-46.068551,-45.001589,-46.176187,-46.102349,-46.283313,-47.811617,-48.733129,-48.28065,-50.637111,-51.089465,-53.626217,-55.50978,-55.852181,-57.424219,-60.163115,-63.038293,-65.892327,-66.098009,-67.529381,-69.306836,-72.32458,-73.247118,-74.646601,-73.931842,-76.13406,-75.990484,-77.479636,-76.19234,-75.15072,-74.705503,-75.227311,-73.787152,-72.609997,-68.796459,-68.349052,-65.736038,-65.519562,-59.852919,-57.448091,-52.874488,-51.116443,-47.247735,-42.791866,-37.371232,-33.624727,-29.821204,-25.694348,-19.557602,-14.194895,-9.1211725,-4.6477102,0.13306208,5.5815636,11.768428,16.099849,21.027992,25.510969,32.077466,37.9353,43.383595,47.492493,51.967829,57.416465,62.633332,68.065199,70.274182,75.233613,79.601871,84.414501,87.918162,90.737981,94.065243,96.110574,101.42427,103.58295,105.5672,106.28004,109.13954,111.61222,113.0738,113.23234,113.28628,114.35827,115.33524,115.77259,114.37037,113.43388,112.88835,112.02034,110.52241,108.47073,106.30157,104.4037,101.68198,100.53956,97.260091,95.498926,94.28863,91.670136,91.509875,88.833728,88.840384,86.663647,87.645329,85.343346,87.002732,85.910477,87.093244,87.751742,89.386189,88.572528,92.292403,90.826773,92.975436,91.701358,92.197503,92.232729,91.535261,91.467136,90.113265,87.418647,86.993671,84.105758,80.67618,76.867712,76.829243,73.267964,73.172802,69.361502,68.390044,64.756488,63.644955,61.534166,58.663671,53.918099,51.681063,48.207593,46.132317,40.771683,37.677548,32.523136,32.054818,27.467545,24.570219,17.871349,16.030677,10.675175,9.7943185,3.0385204,-1.1993644,-6.1053119,-8.226203,-12.624818,-15.508551,-22.053985,-24.474405,-28.286523,-30.511116,-35.744678,-39.082093,-43.697016,-45.546977,-48.016957,-51.704046,-53.72877,-57.232008,-58.280027,-60.092495,-62.300019,-65.229809,-66.610696,-67.634828,-67.348823,-69.339354,-70.037803,-72.148916,-70.27453,-70.772317,-70.202652,-71.689341,-71.438587,-70.186376,-68.478103,-67.755444,-68.129402,-67.095586,-65.302399,-62.415115,-61.824954,-60.54973,-59.588962,-56.984276,-55.56086,-53.658621,-53.709761,-53.939321,-51.029547,-50.884252,-48.756181,-49.691036,-47.796819,-48.677276,-46.936631,-46.95152,-45.347271,-46.144739,-43.529916,-42.866781,-41.258982,-39.561092,-39.688102,-36.904362,-36.79923,-33.858748,-33.608057,-30.962652,-29.537462,-28.243529,-25.293297,-25.463079,-23.014077,-21.931344,-20.848956,-19.674719,-19.319017,-17.147982,-18.00445,-16.041785,-15.396938,-16.829984,-17.852828,-16.972977,-18.414555,-16.633189,-16.48981,-14.763083,-16.5472,-13.422317,-13.988942,-12.768407,-14.343197,-13.466372,-13.433532,-13.057978,-14.280777,-13.35662,-14.298618,-13.759408,-13.943729,-12.652137,-14.006406,-11.585448,-14.532169,-12.046469,-13.219124,-12.11204,-14.38097,-12.289126,-14.406569,-12.96873,-13.925839,-13.05026,-13.563276,-12.592201,-13.68093,-12.591775,-14.128406,-14.316374,-14.023353,-14.18359,-14.379072,-13.548879,-13.321105,-13.015438,-11.808256,-13.277585,-12.936356,-13.495865,-12.671436,-13.276837,-12.99775,-14.018952,-12.772938,-14.110436,-12.531246,-14.201335,-12.143701,-13.813638,-12.619636,-13.382165,-12.42534,-12.788561,-12.360149,-12.869289,-11.900544,-12.527437,-11.691676,-11.962327,-11.659335,-11.459759,-12.122915,-11.715936,-12.559323,-12.326234,-12.981571,-13.371932,-11.925656,-14.620555,-11.438051,-15.730266,-13.038923,-16.715079,-14.544975,-16.102525,-14.942706,-16.831765,-14.455946,-16.423656,-14.741027,-17.236612,-17.813279,-17.801592,-17.805131,-17.636694,-19.856102,-19.498339,-19.997064,-20.839091,-20.322658,-23.243578,-23.113509,-24.755739,-23.304155,-25.196409,-24.754295,-26.543977,-25.099599,-26.152513,-27.361744,-27.885083,-28.033844,-28.184772,-29.352097,-29.793504,-30.379215,-29.664394,-29.807177,-30.337249,-30.913688,-31.132879,-30.158688,-30.493877,-30.183927,-30.545556,-30.266365,-29.170804,-28.212524,-27.635104,-27.05202,-25.938382,-23.770563,-22.082655,-20.731281,-18.986659,-17.185948,-15.052425,-11.885911,-10.072153,-8.14751,-5.4280457,-1.95445,1.1636688,3.8683013,6.0144456,9.2687406,12.279628,15.906265,18.834791,22.176389,24.640774,29.617861,32.867294,36.172226,38.645588,41.599391,45.291845,48.696298,51.358462,54.074036,56.914258,60.447004,64.116701,67.197482,68.953109,72.751707,75.20484,78.993379,80.77079,82.773154,85.020238,87.713337,89.845154,91.949157,92.780823,95.006903,95.640974,98.615853,98.521777,99.543868,99.244358,101.16011,101.58501,101.5199,101.41105,101.11447,102.00689,102.49837,101.97706,102.49003,100.47035,102.66591,100.56903,102.67302,101.75469,102.41187,101.40518,100.82502,100.81179,100.58321,99.434457,98.223036,99.25651,97.897277,97.247599,97.538996,96.875517,97.561203,96.438149,96.594748,96.519825,96.857545,97.110028,97.980665,96.435739,98.790075,96.580264,99.389833,96.985544,98.972968,99.028831,99.353508,97.770304,98.592027,98.793855,99.95295,98.535176,96.887844,96.620352,95.576095,96.744835,93.373798,91.762102,89.46369,89.732212,86.543365,85.155424,80.651171,78.69868,75.677467,74.003994,70.092787,64.69098,62.634906,56.745292,56.02392,48.707575,45.578307,38.33572,35.880265,30.101016,25.746316,17.480556,12.890555,6.98856,1.783811,-4.9781986,-11.514726,-19.414117,-24.003554,-30.562354,-35.886963,-44.707429,-50.129174,-57.399605,-61.563155,-68.579065,-74.648716,-82.991168,-86.640463,-92.97075,-97.865687,-104.31274,-110.81503,-114.73935,-118.91978,-122.82983,-128.62062,-133.24105,-137.44983,-139.32452,-143.3288,-146.15144,-151.25221,-153.03011,-155.85954,-156.9083,-160.58694,-163.17615,-165.36775,-165.4474,-166.61021,-168.6337,-169.93718,-170.88753,-170.61207,-168.80645,-171.07106,-170.53752,-170.03083,-169.18815,-167.62213,-168.11165,-166.5999,-166.13427,-163.07154,-163.64838,-160.5769,-159.23178,-156.93974,-156.49678,-152.69043,-151.13652,-147.81463,-145.86552,-141.54936,-139.92812,-135.37526,-133.48125,-128.97478,-127.23102,-121.06436,-120.27135,-113.80803,-112.36277,-106.5773,-104.39822,-97.70303,-94.770003,-89.715041,-85.627052,-79.899596,-76.824814,-70.227657,-67.34858,-61.733047,-58.36457,-53.466339,-48.412075,-45.072597,-39.647804,-37.474674,-31.899678,-29.250789,-24.373311,-22.779938,-16.593769,-15.188902,-10.394612,-8.2802922,-4.7195939,-4.5828661,-1.1668942,2.1119264,2.4581268,5.8537762,4.8311483,10.188422,10.567794,14.004873,13.831928,16.953517,19.819332,24.419623,24.270357,28.992082,28.252758,32.039524,31.892835,33.892055,33.228724,34.968209,34.131092,35.546887,33.21249,35.663066,31.496543,32.858407,30.214222,29.638046,27.935191,27.321051,25.759935,24.787732,23.993846,21.498705,21.113017,19.095165,18.341824,16.459824,15.234055,14.088048,12.465447,10.031889,9.2459643,7.076763,7.9442712,4.683726,3.8156874,2.7655198,1.4466923,2.2050169,-0.35353587,-0.27870228,-1.6775769,-0.92074465,-1.0950126,-1.8520108,-1.0315924,-1.2476596,-1.8116454,-1.7681885,-0.54529372,-1.4709404,0.041607392,-0.038995143,0.87221352,2.4123245,2.1014118,4.0763646,2.8495672,7.2255128,5.5856487,8.5454112,8.4198439,10.803891,12.598332,13.186039,15.468128,16.051772,19.082706,21.842756,21.450664,24.943512,25.636571,29.342156,30.619534,34.300943,33.924907,37.75184,38.917936,41.944704,42.783444,45.762015,46.545507,49.80201,50.48346,52.511387,53.396417,54.609588,55.676591,56.145616,58.044268,56.417037,58.857553,57.319334,58.776224,56.996853,55.750686,55.464919,52.54554,51.251356,52.072077,49.290951,49.035288,47.511957,48.617487,49.95647,49.145565,50.072251,50.409879,53.042231,55.291456,54.245152,54.869463,56.305188,55.369316,58.395057,57.254119,59.268875,59.458558,60.479095,61.237654,60.912561,62.250927,62.454307,62.174078,65.446122,63.659569,66.012264,66.386122,67.08575,68.05099,68.813006,68.768709,69.876729,70.881338,71.395486,71.49095,71.591692,72.306243,72.606076,72.820177,72.459105,74.002592,72.457455,75.144633,71.555855,74.171387,72.884237,73.146585,73.808346,71.912552,74.132796,73.22986,73.810006,74.110254,73.821432,74.250142,73.674697,73.203717,73.48431,73.856578,72.679443,75.230592,72.944005,74.965935,73.118167,74.119748,73.193346,73.269266,72.857448,71.922722,71.159937,70.432151,69.09294,69.725864,69.558281,68.453983,70.288298,69.918884,70.316941,71.766285,71.632337,73.605641,72.831085,74.868994,75.594032,75.953035,77.485502,78.335246,79.441233,81.041132,80.996356,82.344637,81.582144,82.696268,81.12394,83.473785,80.456622,82.271508,80.152097,81.050795,77.856127,79.005064,75.406867,75.968198,72.078209,71.640981,69.507835,65.715067,64.669998,62.433911,58.653877,57.822959,52.494246,51.899664,47.476077,44.847515,41.582164,37.148019,34.648322,30.710518,27.503323,24.19035,19.692003,17.103524,13.796686,9.9374051,6.6955702,1.5956494,-0.4388292,-4.2164345,-6.8871298,-10.610208,-13.35343,-16.128892,-17.909431,-21.942993,-24.03154,-27.36481,-29.320802,-31.185013,-33.752089,-35.163629,-38.218391,-38.767494,-39.827118,-42.454899,-42.415781,-45.464728,-44.993669,-46.206438,-46.596752,-46.77083,-48.686867,-46.957589,-48.681348,-46.279142,-47.873707,-48.270461,-45.76955,-46.437155,-43.932692,-45.437726,-43.487003,-43.46787,-41.975079,-40.636939,-40.31353,-38.798843,-36.5587,-35.957432,-32.981615,-31.98826,-32.350547,-31.387725,-32.874296,-32.684292,-34.632493,-36.889467,-39.044283,-40.126633,-42.670957,-43.282174,-45.716083,-45.390574,-48.363997,-48.041945,-49.555206,-49.063844,-52.0479,-50.290727,-54.071169,-51.316204,-55.085589,-51.836853,-55.443046,-52.564695,-54.581559,-51.445539,-54.575723,-51.356801,-53.266425,-50.578002,-51.451927,-49.724264,-49.251399,-46.109484,-47.003945,-41.550922,-43.285832,-38.678243,-38.683898,-35.669779,-33.815166,-32.006863,-28.663115,-26.986022,-23.335167,-22.488005,-17.316973,-16.067014,-12.605219,-8.726444,-6.9770846,-2.2554412,-1.3707854,4.0154738,4.1742715,8.9437004,10.215996,13.492837,15.614831,19.23238,20.017235,24.424754,25.926461,29.097058,29.815399,32.425714,35.251894,35.675829,38.748726,38.093849,42.332915,42.539855,44.873088,43.488792,45.121022,46.837641,47.982161,48.359752,48.222798,49.015479,48.849698,51.239729,49.123372,47.998053,48.117451,46.895395,48.932683,46.197229,45.807556,43.400467,44.145254,44.103667,43.654756,41.973937,41.879193,41.703856,44.830677,42.442042,43.902086,42.492276,44.685462,44.374992,45.605881,43.58718,43.339374,42.999111,42.476068,40.101947,37.746132,34.307447,30.998178,28.425772,24.014101,20.035958,14.60344,10.842276,7.4122375,2.9657504,-1.9752903,-6.7719063,-11.352817,-13.475191,-19.994385,-23.669943,-32.394391,-36.061411,-46.863474,-51.55741,-64.672346,-71.545474,-85.186105,-94.457927,-106.55402,-114.85885,-129.95446,-134.93788,-153.35332,-160.94783,-173.358,-182.67144,-194.85363,-204.75164,-215.78519,-226.19664,-236.57568,-245.88031,-255.40861,-261.33838,-269.7054,-273.08619,-279.76351,-283.31215,-287.16016,-289.92768,-290.17664,-293.71291,-290.88688,-291.92645,-287.64207,-286.52155,-282.47406,-279.95687,-274.96471,-269.57341,-263.74686,-256.65251,-250.10672,-241.0115,-231.8684,-222.42855,-214.43258,-202.53393,-195.04248,-181.37232,-174.03091,-159.17094,-150.16203,-137.68138,-125.90567,-114.26922,-101.34499,-90.859299,-80.182617,-69.073072,-56.767207,-46.505377,-36.557629,-29.211636,-19.123955,-10.245248,-2.6510035,5.2589301,9.3811846,17.338259,22.873614,29.6824,32.644306,36.816884,39.759386,44.696813,48.142733,51.460864,51.750822,54.466926,56.315778,58.875719,58.460583,58.2768,57.296369,56.64385,55.897294,52.95493,49.994097,45.937167,43.526886,41.217059,37.378316,32.543756,29.731819,26.938283,25.095392,22.106025,18.555453,16.46863,16.144156,16.768953,16.485004,16.56239,16.399811,20.033802,21.422563,23.734336,22.764837,23.969797,24.094395,26.547627,25.621656,25.659441,25.009427,27.002168,26.603199,28.611717,29.891949,30.579417,29.069589,34.430219,27.798743,33.554418,31.605839,32.110784,31.231554,31.12818,29.78193,30.210109,29.921736,31.502453,31.000312,32.897884,30.660094,33.496101,30.208346,32.455954,30.138883,31.973176,30.547125,31.432818,31.69127,31.047369,30.093208,30.023091,29.262341,28.655724,28.952921,27.920169,28.613615,26.808207,28.974354,26.915961,26.741911,26.082886,26.026362,25.595291,25.110988,26.264668,24.40537,26.374577,24.674835,25.334672,24.091153,25.227718,23.851142,25.458028,22.629222,24.981922,22.67176,24.489693,22.473869,22.922906,21.979736,23.213234,21.258544,23.455105,19.866285,22.54745,20.831807,21.78443,20.437631,20.20323,19.507238,19.830712,19.769122,19.761562,18.244096,18.056774,18.111496,17.997333,17.279197,16.329735,16.447613,14.716282,16.51037,14.193254,14.15682,11.246561,12.703455,10.651438,10.630577,8.274301,8.6632913,7.8401652,8.9164203,6.8959594,8.274316,6.2139202,7.1278022,5.5085989,5.6877408,4.3463004,3.7186958,4.1368105,2.398039,2.6860301,0.83722675,0.45147866,-0.84494435,-0.15497574,-2.2509371,-2.1434357,-3.5610403,-3.3663811,-4.3950878,-4.3044573,-5.440752,-4.6038519,-6.5147171,-3.9051167,-6.8314641,-4.3963344,-6.6833753,-5.4388666,-5.6014763,-5.7923974,-5.408592,-5.7726512,-5.821819,-4.7607044,-5.3737194,-3.5019623,-5.3849325,-2.5333857,-4.7479529,-2.9043158,-4.0746283,-3.2803951,-3.9812263,-3.2920187,-3.8079607,-4.2652954,-4.4426452,-3.5882652,-3.2271352,-1.2166988,-1.1444055,0.078300908,1.3083536,2.7924079,4.0991921,4.5467733,5.0239319,7.6087256,7.5529847,9.8234453,10.458063,11.503938,11.274668,12.537614,13.479601,12.299744,14.735379,12.562635,14.766179,14.27675,13.670649,15.04547,13.02241,15.129739,11.945947,13.277283,11.156089,12.063144,9.5718374,11.153096,8.3883235,9.9808209,7.1894848,8.3908015,6.5104694,6.6765185,6.0368504,4.7717001,4.870775,2.864294,3.4846727,1.1888499,1.6584091,-0.41032447,0.033440434,-2.1382662,-1.1690428,-4.1003674,-3.2142883,-6.4860816,-5.5337111,-7.8901685,-6.4830127,-9.0779758,-6.7925512,-8.4017145,-5.7001512,-6.0367141,-5.6355368,-5.4737807,-5.2171603,-6.3392549,-6.0808387,-4.0990101,-5.748559,-6.0696438,-6.0074118,-5.8426014,-6.585914,-7.4262414,-7.6526212,-6.7301314,-5.71503,-5.1860075,-4.2462859,-2.7763283,-0.94971789,0.62016009,2.4686619,3.6356371,6.1618753,6.6927303,7.4778893,8.4919284,8.6577479,9.5540661,8.5273677,10.122984,8.5824171,9.976962,8.77932,8.7399999,7.7898763,7.668869,6.361181,5.9674126,3.7785591,2.064676,0.32552556,-1.9019177,-3.0221438,-5.9788334,-7.1351435,-11.010714,-13.531375,-13.266308,-17.454693,-18.190563,-17.069336,-17.460154,-19.970124,-17.690558,-17.592059,-17.505194,-17.607661,-16.067907,-18.903969,-16.457734,-17.437341,-15.151333,-17.237758,-15.533595,-17.786372,-11.824136,-13.627597,-13.633946,-13.813844,-14.244946,-10.453919,-11.507292,-10.851114,-10.812154,-11.403941,-8.9242814,-9.5920453,-6.615875,-8.6192713,-5.9855068,-7.0992662,-3.7755463,-6.4477377,-3.2553882,-7.0863637,-0.19699202,0.5777614,2.1761683,4.7820937,3.0679638,6.0035154,1.655772,2.1576244,-4.7164664,-4.635441,-7.2414912,-7.7629153,-10.781431,-9.6660591,-10.644404,-5.0209392,-6.4601962,-3.6376402,-9.1471923,-6.3539553,-9.0284982,-9.7330318,-12.001752,-9.4146211,-14.803374,-10.682999,-7.209343,-4.5241993,-2.2975221,-0.044743183,0.30389584,-3.6257052,-2.5644209,-5.322455,-4.3434115,-1.3016843,5.0184184,9.1043118,15.241992,17.55427,24.460968,28.695736,33.737392,34.093532,38.904753,39.125724,46.27319,42.645559,51.031014,46.560235,53.37844,48.958961,57.560772,55.428038,62.317812,64.568459,69.915767,73.458873,78.408447,78.710742,86.489416,87.660886,93.694892,96.100537,100.36799,102.69846,106.59291,108.35204,111.81454,114.26468,117.96389,122.03055,126.99755,128.2419,137.58317,142.39201,147.95113,150.52556,159.60852,160.9455,167.36574,170.05685,174.21206,175.41709,182.50909,185.08288,189.40056,190.12481,195.03149,196.94897,202.54282,200.3341,202.5345,203.41623,207.31311,208.97178,209.81864,210.12496,212.29678,213.76737,217.25135,216.36809,216.37556,214.39371,215.15108,213.43499,213.13651,208.46848,208.65356,204.3698,207.6693,200.06714,193.77842,188.03507,178.5171,173.29109,161.97087,155.11084,145.31622,141.21044,134.19214,126.86138,118.91684,112.2266,104.0941,96.159259,81.351967,70.17926,55.913351,48.604178,35.907321,27.432308,18.149504,10.88156,1.1344667,-0.13193335,-9.3140733,-19.415269,-30.403896,-39.553157,-49.718305,-57.460366,-64.443786,-70.281633,-71.911572,-74.721784,-78.87017,-86.26734,-90.380157,-96.203434,-98.915861,-105.82257,-110.7948,-116.05052,-116.26696,-121.19007,-121.08863,-129.71979,-127.38467,-137.70436,-134.24144,-142.34704,-138.23853,-148.36994,-146.50711,-153.64667,-156.65597,-162.43889,-169.49807,-174.67639,-177.05447,-185.51592,-189.42499,-197.5056,-203.24396,-209.35379,-213.40731,-220.42998,-223.50814,-228.76475,-230.73259,-235.1667,-237.02324,-239.91777,-240.81901,-242.84331,-243.49657,-246.01117,-245.3551,-246.755,-244.87883,-246.02193,-245.22932,-248.48324,-241.81385,-242.14831,-240.71312,-240.39536,-240.96516,-232.83932,-230.06001,-220.4443,-212.21493,-201.01769,-188.21356,-179.68019,-167.0878,-158.41962,-146.74792,-137.8196,-127.30292,-119.74688,-110.48379,-102.14443,-92.405458,-82.647831,-73.106675,-64.685755,-55.532812,-47.166387,-37.589575,-29.439284,-19.342023,-9.6466707,1.3909826,11.827724,22.10597,31.461388,41.14232,50.543245,59.218165,66.976318,74.156413,80.078071,86.071347,90.639958,93.845515,95.841723,97.180743,98.051598,98.329212,96.538639,94.035138,90.32796,86.620834,81.394119,73.660239,65.896076,58.798045,49.861017,41.691521,30.357624,19.573623,9.7397226,-0.51216665,-10.89978,-23.291252,-32.992188,-42.183522,-48.151462,-58.090159,-64.84612,-73.035123,-75.172764,-83.009919,-86.174743,-91.895362,-95.593707,-100.198,-102.60446,-105.49032,-108.92526,-112.12039,-112.02501,-112.06344,-112.2425,-112.97086,-111.52698,-110.19166,-109.23164,-106.89165,-104.55698,-101.7868,-98.114676,-93.474677,-87.02546,-80.423273,-72.186111,-64.272348,-53.788049,-43.269001,-32.603758,-21.878157,-11.659029,-0.50215993,10.959897,21.539808,31.848458,42.779557,52.333759,61.986102,68.020411,72.83637,77.755687,87.634158,87.274329,92.386164,94.873577,101.57355,111.61791,114.10059,121.1978,121.50814,123.33744,123.44001,119.633,118.39299,110.59723,107.70527,100.80207,96.368067,87.553848,80.583269,72.611758,65.850168,58.141723,47.519059,38.643719,27.904867,22.696738,13.266429,7.0686272,-0.91292587,-6.7593477,-12.486854,-16.66063,-23.104747,-27.804088,-32.291288,-34.088486,-36.342338,-39.844471,-41.798069,-44.289545,-43.172581,-44.833247,-44.668404,-45.879314,-44.183849,-42.599324,-38.810604,-38.345034,-35.902925,-33.202348,-28.226844,-24.098939,-21.28156,-16.861712,-11.87672,-7.6295034,-1.3967491,3.0210134,7.6938226,13.424434,19.284943,25.024655,29.411454,36.044529,41.602956,48.45654,51.873202,58.697383,63.278344,70.716765,72.177279,80.576442,81.901707,86.376826,88.709155,93.446143,95.497819,97.85323,98.873005,101.30454,100.11915,99.607479,97.917583,95.396721,92.30792,89.13913,88.063764,84.161704,80.2744,77.48216,76.16499,76.004021,73.125067,72.506407,69.411023,70.261792,69.238098,69.056973,65.870868,66.655385,66.012636,68.439043,67.040549,67.177979,65.838366,65.818872,64.536344,62.762677,61.493916,59.910691,61.150928,59.918858,60.343215,59.434413,60.412309,59.134812,58.517793,57.53822,55.89196,55.817428,54.546434,54.36457,52.603416,53.132459,52.112605,53.972369,52.962446,53.179964,53.525713,53.500849,53.450851,54.30216,52.898194,53.125803,51.736569,53.413045,50.305475,51.885736,50.24061,51.116345,49.870577,50.838572,48.138163,49.246715,47.996308,48.808523,47.872989,47.326351,47.13284,46.762198,45.893846,45.631919,44.638774,43.968862,43.586003,42.376074,43.196951,39.309621,41.008122,39.248071,39.631923,39.048442,37.357844,38.587758,37.258259,36.690455,35.105859,34.184968,32.158865,30.763317,27.92197,25.016656,21.568749,20.188696,16.642973,14.018563,9.356117,6.9391889,3.4919421,0.82981007,-3.3204315,-5.4963943,-8.4064566,-10.470767,-11.360532,-15.752892,-18.136444,-20.071671,-23.002735,-23.215621,-27.425259,-28.221259,-30.886295,-31.306932,-32.759302,-34.837491,-35.634947,-37.051193,-37.563278,-37.297519,-38.071424,-38.580899,-39.402433,-37.927712,-37.640689,-37.525048,-37.23223,-36.470175,-35.738067,-32.957667,-33.927999,-32.660959,-31.647091,-30.688007,-29.184624,-27.945073,-27.844697,-25.356674,-24.639795,-22.420329,-22.346533,-19.921828,-20.592326,-17.602295,-18.784018,-17.913708,-17.671708,-17.57166,-15.977812,-17.143012,-14.890645,-17.04067,-15.297713,-16.664728,-16.172088,-17.055007,-18.49069,-19.305406,-20.651194,-21.965582,-24.153638,-24.898616,-29.797133,-30.180901,-34.237764,-35.669174,-41.046901,-41.809946,-46.724033,-48.070492,-54.060057,-54.550017,-60.214154,-61.036203,-66.378467,-68.883394,-72.904318,-76.873562,-81.10634,-85.159657,-90.103939,-93.904323,-99.101345,-100.57203,-105.42818,-107.16443,-111.6819,-114.09071,-113.78244,-117.59038,-117.79817,-118.6645,-119.32752,-118.8521,-120.43061,-121.7267,-121.30953,-122.43138,-122.66133,-123.92168,-126.06075,-125.16042,-128.12964,-127.13479,-130.82587,-130.45674,-133.37122,-132.79538,-135.2045,-136.09333,-138.6255,-140.16007,-141.16484,-144.65998,-146.41357,-152.55788,-152.84027,-157.99103,-161.31381,-167.0522,-172.13854,-177.00912,-181.17756,-187.53382,-192.68534,-199.19064,-203.73415,-211.00899,-215.83334,-222.60938,-228.97508,-234.7039,-239.90245,-245.64528,-250.74133,-258.24334,-261.33292,-266.28905,-269.34599,-274.41737,-278.31086,-281.7136,-282.88094,-286.74082,-287.95372,-290.36676,-291.43037,-290.31159,-291.71876,-290.55233,-291.306,-286.95464,-286.81749,-282.75433,-280.6376,-276.51287,-272.76808,-267.43733,-261.82165,-256.89628,-249.77922,-244.74009,-235.01047,-229.67899,-219.3195,-212.57934,-201.98167,-193.05209,-182.38729,-172.2016,-162.4027,-150.73135,-140.88537,-127.16355,-117.95732,-104.14813,-93.84004,-78.782904,-68.598447,-53.846266,-43.038333,-28.297331,-17.847161,-3.8477451,6.7651156,20.05264,30.785563,42.45675,54.052658,64.754909,75.866431,86.713845,97.67976,108.61272,117.66888,127.82949,137.85452,148.51469,159.32875,167.73753,180.41328,189.27839,200.71039,209.66259,220.87746,229.6136,243.08166,248.24797,261.62738,267.14012,277.95611,286.533,295.69397,305.87146,315.30855,325.1288,335.83182,345.82218,357.08509,365.90115,377.3798,385.91282,397.86293,406.0755,417.3809,427.2705,438.18967,448.19631,458.68526,469.20853,478.83944,489.90965,500.36134,510.2373,520.2034,530.08437,540.2749,549.55412,560.74611,569.169,579.06639,588.2753,598.43774,608.4214,619.81764,626.22649,640.46819,646.0796,659.85465,664.17583,676.62619,683.67341,695.02951,702.78517,713.13933,722.23105,732.38459,743.30529,751.79066,763.35294,772.31787,783.57004,793.2914,803.44418,814.95182,822.38132,835.49707,842.74143,857.24067,865.679,877.47191,888.07196,896.34845,911.41339,916.57559,930.26077,936.38368,951.5609,957.36837,971.34444,975.51841,990.22003,995.53181,1005.8735,1012.9239,1020.0651,1028.6449,1034.8048,1043.9698,1051.1472,1058.8419,1067.7817,1071.6785,1072.673,1073.4162,1071.6404,1069.5398,1065.5281,1062.2288,1058.2976,1058.2364,1061.4114,1065.7217,1072.6002,1080.5262,1091.4081,1105.653,1119.2629,1135.0394,1148.5051,1166.0684,1180.6949,1199.8255,1212.4964,1227.7745,1238.7809,1252.2577,1258.764,1269.4529,1270.9719,1278.4625,1275.9819,1276.5997,1267.9712,1258.0913,1242.2043,1226.1583,1204.38,1181.2861,1150.8372,1121.8422,1086.9707,1053.0186,1009.3406,965.59599,917.90974,870.37797,822.15472,770.54093,719.70969,667.46049,618.50094,567.6981,517.98688,466.56853,418.49037,370.43408,325.28569,280.18894,234.91131,191.92999,149.42589,109.22411,66.775727,23.777743,-20.974062,-60.231676,-105.76374,-145.89544,-193.51523,-233.62356,-278.50648,-318.31508,-362.03613,-402.91285,-445.73507,-484.90202,-525.37821,-564.33294,-604.08362,-643.23578,-679.53157,-715.25634,-750.24437,-784.94675,-819.97132,-849.5381,-882.62604,-908.70465,-943.46713,-970.42449,-1000.2994,-1025.9658,-1050.3049,-1081.3179,-1101.5458,-1128.6599,-1146.2084,-1171.942,-1189.4894,-1214.5189,-1228.1085,-1251.7647,-1265.9736,-1287.1058,-1305.0216,-1323.1497,-1341.0151,-1359.1421,-1380.7178,-1403.516,-1427.5934,-1455.9025,-1481.6537,-1506.8523,-1532.4944,-1554.6056,-1574.5407,-1589.4632,-1601.7068,-1609.7138,-1614.0405,-1616.1442,-1613.0843,-1606.7218,-1595.0067,-1580.3486,-1560.5245,-1538.4582,-1511.449,-1481.9095,-1449.2755,-1414.0332,-1377.1343,-1337.3549,-1296.0368,-1254.8449,-1212.3916,-1170.9289,-1127.6221,-1086.0143,-1046.4182,-1007.2261,-972.14267,-937.90288,-905.75634,-875.16643,-846.96051,-821.86333,-800.03145,-778.84806,-761.7017,-746.78873,-733.88855,-721.53728,-708.4497,-696.9763,-684.40683,-674.68583,-663.43724,-655.33259,-645.91168,-638.3157,-630.52015,-622.33046,-615.63379,-607.35885,-600.79599,-594.50726,-590.66782,-585.95551,-583.2367,-580.50613,-580.10892,-579.52755,-579.7235,-579.8129,-581.61577,-583.41188,-586.27471,-589.13652,-591.85482,-595.98777,-598.95477,-603.4415,-605.23183,-608.94823,-610.18909,-612.75044,-613.35319,-613.82466,-612.5591,-612.41488,-611.33496,-610.8781,-608.95424,-607.80664,-606.16878,-605.05258,-604.48985,-603.20421,-602.7377,-601.93816,-602.13435,-601.15745,-600.38653,-599.51351,-597.31309,-596.58864,-594.92359,-594.26686,-593.06739,-591.90039,-591.22771,-591.13778,-590.93321,-591.39587,-590.27674,-591.65376,-591.14134,-592.59523,-592.52641,-593.31338,-593.58692,-594.27659,-594.51478,-594.81822,-594.16836,-593.76221,-592.4334,-591.43501,-587.8251,-583.39317,-576.95069,-569.65177,-561.60161,-552.94333,-542.60951,-533.58914,-523.16033,-514.24273,-503.86349,-494.27047,-483.82439,-475.15084,-466.26767,-458.72865,-449.38414,-441.87564,-433.40173,-427.48737,-421.30291,-416.90317,-412.61348,-408.55594,-404.45337,-400.46715,-395.58951,-391.20623,-385.9043,-379.59655,-373.59003,-366.29358,-358.81652,-352.00727,-343.46328,-335.29638,-325.75879,-318.13189,-309.02526,-301.34496,-291.28582,-282.34932,-271.3419,-262.04573,-252.21554,-241.69682,-230.9087,-220.19648,-208.95608,-197.11088,-185.75797,-173.57892,-161.6314,-148.98326,-137.60444,-125.90564,-114.86913,-102.96016,-92.834626,-81.162023,-71.218739,-58.67859,-47.254604,-34.400036,-21.975311,-9.7766878,4.1798719,16.790883,31.129365,42.865486,56.647763,69.27125,82.392544,93.46493,106.42727,119.31886,132.00539,143.64194,154.17686,165.49075,177.54486,189.08464,199.73622,210.0271,219.33109,230.82471,242.3066,252.72958,262.81925,272.55123,284.18015,295.66794,304.48343,314.32121,322.64323,332.90085,342.96625,352.04201,359.66049,367.64755,376.28996,385.0944,392.98393,399.60021,406.07461,414.65725,421.73482,428.43066,433.3977,439.68592,445.71082,452.97891,457.57323,462.58709,465.3519,471.26088,474.55713,478.32809,480.62909,482.98479,486.63483,488.05468,492.07468,490.59659,492.91568,492.59347,494.99094,494.88362,493.28501,492.65366,492.46983,492.42047,491.43116,488.83913,487.20997,484.98198,485.15657,483.66962,480.82225,475.803,475.40224,473.90484,472.17278,468.95787,464.73288,461.03383,458.1399,456.44453,450.37265,447.47171,442.2158,440.21721,435.61794,432.25483,426.94965,424.50328,420.83964,419.53085,412.64606,411.73984,405.53382,406.96825,402.04945,400.24958,397.52726,396.44253,396.78578,395.70829,396.36423,392.35617,394.53842,390.32819,393.44944,388.78628,388.56945,384.87907,385.8173,383.48638,383.89874,378.94333,379.82104,375.15047,376.53356,369.85368,371.999,365.24122,365.13668,360.06348,359.02594,353.45357,352.59798,346.02064,344.74516,337.22765,335.68377,329.76704,327.36692,321.75499,317.94173,313.11297,310.77113,306.31598,303.34952,299.125,295.92901,291.17685,287.78041,282.23677,278.64896,274.05754,270.52544,266.17523,262.33546,258.49838,253.40856,251.80257,245.51599,243.48826,238.43888,235.61101,230.88095,228.42282,223.39997,220.63516,215.80795,213.96872,210.11948,208.07333,204.44245,202.13153,198.71204,195.33587,193.97865,188.66705,189.0339,184.60004,184.03522,179.40582,178.37452,175.98805,174.77781,172.56251,170.61489,169.11365,168.10802,167.19,166.50415,164.74564,162.92012,161.54816,162.48374,159.07885,158.42325,154.63681,151.69572,148.5483,147.21096,143.32044,139.39168,137.43833,133.06792,131.02471,127.56258,124.94249,120.55454,118.60614,114.15693,111.63413,106.29688,105.25382,99.836495,99.550321,93.956526,94.496307,92.412489,91.813838,91.013223,89.725719,89.257098,82.102757,84.627788,75.724444,79.97322,70.368273,73.841407,66.79942,70.58405,65.264747,66.311129,61.126193,63.172517,56.962212,58.170703,51.818085,52.517246,46.105617,47.089426,41.814477,43.66214,36.668391,39.677371,37.779114,40.302991,30.424039,38.045121,23.711364,23.565423,14.925246,9.9232739,2.3020452,-0.92486635,-9.0900378,-14.600542,-21.673727,-24.584805,-28.777173,-30.541174,-35.011606,-36.928104,-40.825125,-41.85433,-45.772319,-48.18026,-52.392031,-54.339622,-54.467852,-55.711203,-55.782922,-57.027741,-55.209434,-53.041162,-50.219462,-49.918713,-48.069238,-47.636313,-45.531545,-46.048423,-47.749134,-52.092745,-52.790628,-55.373384,-54.664978,-57.945976,-59.019096,-60.007557,-60.696778,-61.007563,-61.894463,-62.584174,-62.92108,-61.852618,-61.527746,-61.969986,-62.125557,-63.557114,-61.981689,-64.013921,-64.46015,-67.920857,-69.577629,-71.638393,-73.506233,-76.043567,-81.2692,-84.676229,-87.482351,-90.178393,-94.671541,-98.813546,-103.26575,-106.3651,-109.85991,-113.0958,-119.10826,-121.79124,-124.98819,-127.37246,-130.97709,-134.47772,-137.32192,-137.77305,-138.82202,-138.93,-139.53271,-139.72198,-137.85627,-136.84119,-135.8161,-136.90382,-136.12833,-131.51281,-129.71244,-124.11663,-122.70759,-116.07833,-111.75705,-102.85309,-98.334732,-90.885826,-84.990628,-76.401272,-69.356575,-59.938656,-52.689104,-44.099781,-33.936291,-22.930721,-11.455244,-1.3727669,7.4759018,20.790562,29.999735,36.455914,39.250585,49.108331,45.075274,57.159373,58.281364,63.558218,66.880538,73.393246,76.291574,82.880403,86.062902,91.300438,91.519311,94.533389,93.274349,94.291782,93.326751,94.675468,94.208258,97.232552,97.462563,102.19073,105.09041,110.94171,115.14584,120.93062,125.55091,131.05532,134.86934,137.99171,140.51616,140.29989,140.24466,138.64969,135.93793,134.91157,134.97433,133.38796,132.16398,128.08362,125.4521,123.75016,120.40113,116.29012,111.88414,108.00617,106.0747,100.72436,97.099325,90.257249,86.797762,80.202076,76.723417,67.286585,62.89948,53.498252,49.644394,41.299824,33.627483,25.6478,18.198125,11.86694,4.7094791,-3.0800218,-11.617678,-18.44326,-25.114127,-31.62904,-38.144762,-45.880709,-52.715094,-57.796248,-63.448953,-69.956385,-76.100797,-81.092838,-83.458933,-88.68469,-91.613309,-96.634249,-100.20589,-101.8925,-104.43995,-105.98686,-108.547,-110.50026,-108.39245,-110.26251,-107.70802,-109.45228,-107.9829,-105.59381,-103.11341,-100.14219,-99.416657,-96.373096,-92.842613,-89.407711,-85.160698,-83.586805,-78.210684,-73.82535,-68.327307,-62.816441,-59.022807,-54.326885,-49.0984,-42.258029,-38.348804,-33.161685,-29.812071,-25.012364,-18.854995,-15.857347,-12.319917,-9.8441318,-7.2937849,-3.9809919,-3.9038397,-2.8609355,-6.1861544,-5.572887,-9.2511274,-7.3359205,-12.65671,-11.119514,-14.76743,-11.540728,-14.687299,-13.268881,