ConstAcc,0.5,0.26265,-1960.3532,-1784.8358,-1633.3713,-1504.2746,-1395.925,-1306.7653,-1235.3006,-1180.0971,-1139.7814,-1113.039,-1098.6132,-1095.3046,-1101.9691,-1117.5175,-1140.9143,-1171.1763,-1207.3719,-1248.6197,-1294.0875,-1342.9915,-1394.5946,-1448.2058,-1503.1792,-1558.9123,-1614.8456,-1670.461,-1725.2809,-1778.8674,-1830.8206,-1880.778,-1928.4132,-1973.4349,-2015.5858,-2054.6412,-2090.4086,-2122.7259,-2151.4608,-2176.5093,-2197.7949,-2215.2676,-2228.9024,-2238.6986,-2244.6785,-2246.8864,-2245.3874,-2240.2666,-2231.6276,-2219.5915,-2204.2963,-2185.8951,-2164.5555,-2140.4581,-2113.7961,-2084.7733,-2053.6038,-2020.5104,-2000.9332,-1959.7635,-1930.0222,-1906.3985,-1879.4439,-1846.1621,-1808.6161,-1763.7898,-1712.324,-1659.6051,-1610.8314,-1566.8366,-1527.6209,-1491.6865,-1458.7499,-1430.4512,-1406.8027,-1388.2095,-1375.0941,-1367.7524,-1365.2627,-1367.0727,-1372.65,-1381.9928,-1394.7433,-1409.2982,-1424.1822,-1438.7941,-1452.8791,-1466.4163,-1479.1117,-1490.96,-1502.327,-1513.3302,-1524.124,-1534.885,-1545.7155,-1556.7989,-1568.2928,-1579.9986,-1591.8314,-1603.6353,-1615.2351,-1626.6219,-1637.7157,-1648.4847,-1658.9346,-1669.0362,-1678.6454,-1687.5138,-1695.6297,-1703.2789,-1710.6304,-1717.6157,-1724.3228,-1730.4751,-1735.5492,-1739.4814,-1742.3585,-1743.8706,-1743.8887,-1742.2625,-1738.9814,-1733.9158,-1726.7015,-1717.3218,-1706.0807,-1693.1533,-1678.6314,-1662.6635,-1645.1839,-1626.6615,-1606.878,-1585.7407,-1563.3403,-1539.9366,-1515.5214,-1490.2898,-1464.3794,-1437.8276,-1410.9206,-1383.8777,-1356.7961,-1329.9514,-1303.4258,-1277.4405,-1252.1997,-1227.665,-1203.8776,-1180.7525,-1158.5677,-1137.5603,-1117.5885,-1098.3694,-1079.8267,-1061.5669,-1043.3198,-1024.9994,-1006.2329,-986.46151,-965.34999,-943.10142,-920.15628,-896.11609,-870.76318,-844.16563,-816.5919,-788.15583,-758.98467,-728.94566,-698.65577,-668.67678,-639.31735,-610.5513,-582.3869,-555.23232,-529.01476,-503.42587,-478.2826,-453.56642,-428.84553,-403.75221,-378.44163,-352.86808,-327.63649,-302.75083,-278.63749,-254.97707,-231.45507,-207.89109,-184.15348,-160.54408,-137.30714,-114.35897,-91.467348,-68.778613,-46.380717,-24.615606,-3.4399788,17.023507,36.966019,56.310552,74.923123,92.954606,110.627,128.01995,145.08971,161.91877,178.66256,195.39143,212.07351,228.55784,244.8209,260.78379,276.51136,292.17866,307.66998,322.67463,337.16271,351.03846,364.24259,376.53142,387.97802,399.0342,409.88992,420.75746,431.42684,441.55128,451.31736,460.98297,470.49078,479.61066,488.02758,496.28451,504.59167,513.09532,521.26122,529.10223,536.7463,544.54115,552.45525,560.2055,567.94741,575.59632,583.28548,590.99733,598.66795,606.23406,613.80086,621.50404,629.2423,636.99485,644.87429,652.84499,661.28727,670.28554,679.64122,689.20157,698.85682,708.62096,718.26401,727.71379,736.89926,745.60187,754.04591,762.46161,770.35059,777.54595,784.17443,790.63375,796.85968,802.50027,807.6249,813.06537,818.78081,824.53069,830.06258,835.41185,840.74289,846.3748,852.3163,858.25859,864.31869,870.41975,876.43631,882.18039,887.69816,892.46354,896.71826,900.77057,905.24877,910.03309,914.68248,919.32589,923.87061,928.28728,932.56894,936.8236,941.25206,945.59813,949.74518,953.85386,957.70581,961.40271,964.84562,968.09071,971.22029,974.21657,977.18626,980.00357,982.88858,985.78881,988.43927,990.93253,993.43855,996.12644,998.7095,1001.0899,1003.1728,1005.004,1007.133,1009.4899,1012.0343,1014.5082,1017.1912,1020.3566,1023.7047,1026.6857,1029.3066,1031.6708,1033.8634,1035.9225,1037.7283,1039.3638,1040.6724,1041.8398,1043.0418,1044.2526,1045.1593,1045.7528,1046.4526,1047.1309,1047.9773,1049.1141,1050.3066,1052.0802,1053.8358,1055.4319,1056.8973,1058.6598,1060.4164,1062.0574,1063.8101,1065.8582,1067.8542,1069.6978,1071.2753,1072.5404,1073.5302,1074.5868,1075.9294,1077.5049,1079.279,1081.0069,1082.8316,1084.6262,1086.3946,1088.1793,1089.8689,1091.6095,1093.3566,1095.1711,1096.9534,1098.8384,1100.8407,1102.4366,1102.5116,1101.1335,1099.3074,1098.1263,1097.5195,1097.2591,1097.4879,1098.7833,1101.3127,1104.7319,1108.3145,1111.6783,1115.247,1119.658,1124.5997,1129.1353,1133.1273,1136.8244,1140.8185,1145.0357,1148.7041,1151.1171,1152.9353,1154.6583,1156.3148,1156.943,1155.9548,1154.0196,1151.8548,1149.4797,1146.0419,1141.0023,1134.8135,1128.1151,1121.2761,1113.725,1104.7589,1094.9245,1085.0448,1075.4292,1065.1907,1053.6033,1040.8146,1027.4909,1014.2222,1000.4442,985.55359,970.13618,954.8524,939.97912,924.83588,909.07078,893.08599,877.65936,863.26086,849.16979,834.76485,820.06308,805.93918,792.51472,778.9948,765.1852,751.45275,738.21296,725.64478,713.64176,702.10173,691.18654,681.12828,672.03125,663.74677,656.14904,649.53519,644.42591,640.79122,638.0003,636.32973,635.66964,636.40496,638.37937,641.22973,644.86959,649.65911,656.04541,663.42272,671.70268,680.97372,690.78427,701.12845,712.19725,723.61811,735.30761,747.72824,760.73852,774.34197,788.3968,802.44297,815.67267,828.37598,841.03086,853.44435,864.78141,874.61739,883.70411,892.96593,902.378,910.90356,918.13406,924.3303,930.18314,935.79208,940.99896,944.99659,946.8546,946.98833,947.81106,951.48141,958.71922,968.95547,981.15143,994.1313,1006.6896,1018.0306,1028.2068,1037.8257,1046.7185,1054.6824,1061.6557,1068.1358,1074.2458,1079.6037,1083.7104,1086.0088,1086.2326,1084.2799,1079.8818,1072.9876,1063.587,1051.7017,1037.3305,1020.3269,1000.673,978.72762,954.85709,929.2948,902.0848,873.43919,843.32921,812.13103,780.00675,747.11724,713.38519,678.83957,643.41549,607.28482,570.19641,532.20227,493.86863,454.52454,413.03497,368.78546,323.05546,277.41178,232.49065,187.87326,143.41784,99.824652,58.118068,18.318834,-20.383536,-57.891795,-93.360454,-126.20135,-156.43556,-184.59678,-210.62961,-234.09625,-254.47668,-271.65654,-286.14228,-297.81078,-305.7315,-309.87677,-310.85431,-309.03389,-304.20126,-295.58502,-284.0161,-269.86242,-253.11227,-233.77465,-212.02438,-187.37602,-160.13741,-131.55048,-101.16846,-68.754161,-34.645368,0.99626946,37.430771,74.082563,111.4505,149.62044,188.05673,226.31116,263.74831,300.04988,335.66681,370.84533,404.81522,436.67132,466.82122,495.88481,524.48872,552.09925,577.79352,601.21725,622.85605,642.62442,659.7575,673.6819,684.13164,692.41351,700.29316,709.88165,721.15511,733.5504,745.2993,756.46797,766.0972,773.13271,776.93724,779.26953,783.34145,788.78213,793.96681,797.5527,800.0022,801.70313,804.35785,806.07045,806.99908,806.35097,804.10959,800.79466,796.7166,792.17312,787.25007,782.2118,777.63108,774.11065,771.42345,769.51082,768.49386,768.64248,770.21569,772.90806,775.95146,779.20048,782.73043,786.56126,789.34403,791.61054,792.46082,792.51228,792.42064,789.09578,783.68963,776.49695,768.98543,762.19519,755.41169,748.5217,741.00162,731.9929,723.53427,715.70393,708.32449,700.61802,693.02762,686.10752,679.95871,675.69077,671.10771,665.2892,660.52766,656.97068,653.61716,650.44959,647.98938,646.95019,646.08485,645.97812,646.86016,648.20495,649.26973,650.27779,650.37233,650.70307,652.06079,653.03382,653.84546,654.85402,656.94669,659.14374,662.36668,666.43517,671.96266,676.91436,682.0471,686.91039,691.51142,696.43468,701.32347,706.39862,711.9869,717.90946,724.1295,730.29013,735.97299,741.52974,747.18314,752.84459,758.66707,763.92209,769.87801,774.7178,773.13903,774.73642,784.08334,798.87403,815.50008,831.45374,843.48894,848.20916,842.86956,829.6268,812.15987,797.45775,788.87658,788.45917,795.48469,807.79898,822.48871,833.74707,842.18498,846.98439,850.13069,853.28301,855.27085,853.98404,855.81197,861.97605,870.77347,874.34504,866.89362,846.26651,818.644,793.10103,771.92082,753.69354,735.78452,720.41554,708.24127,700.64227,701.19449,701.88024,700.93535,709.95361,729.34752,745.5933,753.18676,758.27886,761.03117,765.24059,770.65076,772.80668,774.43961,778.40638,781.74662,779.64264,767.81793,745.78877,717.5102,687.47985,655.40357,623.04006,602.9904,607.72755,620.96251,626.14594,618.11078,599.35213,578.26613,561.06914,547.69135,537.89556,529.60677,523.17589,519.63414,516.40475,513.47741,513.55136,517.66431,520.74641,518.46827,510.4583,501.64588,497.80239,499.07822,501.65246,502.97788,502.73682,500.61846,497.47114,494.77715,491.57829,489.78985,488.71015,488.07759,487.58708,486.77105,487.20497,490.96064,500.25888,501.18834,494.86806,487.82727,482.91033,481.14994,482.90155,484.96404,484.83447,483.15684,482.46507,480.86507,476.21046,473.15715,479.86995,492.30364,499.22664,499.34691,491.60676,478.88866,462.14001,444.34379,426.03685,409.42275,407.90849,415.96209,428.91749,441.34753,455.14542,469.25098,483.69933,499.69791,515.15384,530.96466,545.3546,567.47433,604.97711,637.17989,654.76382,653.89033,636.08668,612.82794,590.53818,577.48009,574.26415,573.06256,575.89307,581.85945,594.16227,615.17691,642.71533,670.91179,682.48828,688.34974,699.15778,706.41094,700.38476,686.7172,680.63692,689.44626,709.15772,727.6723,735.37208,734.96582,728.08147,710.84282,681.61536,644.65535,608.96369,581.22382,561.28323,549.57868,549.7025,559.72561,567.07831,552.63307,524.57273,497.62945,478.87153,468.9514,460.78322,451.02191,441.43096,430.40226,419.90383,410.83879,400.63078,390.1792,379.66064,367.02824,348.9485,328.33067,310.68807,299.78541,292.11923,283.15318,270.36664,254.79967,239.10948,224.57563,213.30873,204.42683,196.62062,190.568,184.11233,176.9149,171.11036,165.97074,161.82555,157.41443,149.72442,134.30419,124.20997,120.74688,120.07895,119.81633,119.00528,115.43408,109.70887,103.43987,97.789668,90.270975,83.351576,77.91627,72.199437,65.794652,53.558162,38.650217,20.154053,-1.3586454,-28.18997,-59.249196,-93.097535,-122.67003,-142.6062,-163.27624,-182.25969,-198.42056,-210.59905,-223.4553,-236.22466,-248.32823,-257.97979,-263.96296,-265.40604,-259.95634,-258.60945,-273.39381,-287.8259,-298.29569,-303.97951,-304.81024,-303.85086,-299.56985,-292.99611,-285.30463,-274.99897,-265.67459,-256.41411,-249.39011,-250.50781,-261.01229,-277.8085,-286.14068,-286.50199,-284.25224,-282.87379,-277.6575,-260.99266,-240.42528,-230.61785,-233.47468,-243.71728,-254.38401,-264.64175,-275.13268,-285.73388,-292.59828,-295.28265,-296.99898,-298.89149,-299.82414,-300.8347,-302.17314,-302.53556,-301.65964,-301.01929,-301.22514,-304.36826,-310.93463,-318.75225,-326.49501,-333.61552,-340.45976,-348.18289,-357.24449,-368.10602,-379.40706,-390.65633,-402.7795,-415.48279,-428.75567,-441.67686,-454.7979,-468.59734,-482.5715,-496.95026,-511.25497,-525.72558,-539.38735,-553.76576,-568.46349,-584.47472,-601.28707,-617.63978,-632.9687,-647.31451,-660.67031,-673.01952,-684.18015,-694.19275,-703.77746,-713.00298,-721.37887,-727.87613,-732.42419,-735.22323,-737.8661,-740.41929,-742.67441,-743.40959,-743.92307,-743.90539,-743.17057,-740.60162,-736.74674,-732.71395,-728.86386,-725.16785,-720.59378,-715.16154,-709.42673,-703.41431,-696.83321,-690.00236,-683.14444,-676.16538,-669.23641,-662.34991,-655.28914,-647.54006,-638.61682,-627.48727,-615.77007,-605.10202,-595.92775,-587.33984,-579.50546,-572.44384,-566.54798,-561.58757,-556.85473,-552.20278,-547.11905,-540.9913,-534.4124,-527.98667,-520.78469,-513.80862,-508.03269,-503.07821,-499.28251,-495.8366,-493.41172,-491.13169,-488.10991,-484.87732,-483.32372,-484.36727,-488.50768,-494.46428,-498.22743,-498.58177,-497.26594,-496.41977,-496.44297,-496.96305,-497.02446,-498.86303,-500.67518,-502.79289,-503.77021,-502.89954,-500.05764,-495.07107,-490.19877,-487.58192,-487.35339,-490.50288,-495.42734,-502.2018,-509.03407,-515.27003,-521.91385,-529.40835,-537.66009,-547.03073,-557.34973,-568.75857,-581.05226,-594.27856,-607.9254,-620.99708,-634.12467,-647.36986,-660.65416,-673.7219,-686.20268,-698.69941,-711.72844,-725.96579,-740.41639,-755.34126,-769.08465,-781.5442,-793.79073,-805.45745,-816.40769,-827.0982,-837.88203,-848.63174,-858.59282,-867.15386,-874.18398,-879.7372,-885.05514,-890.50919,-895.40002,-898.66865,-900.82066,-902.06158,-902.55216,-900.97452,-897.61518,-893.94265,-890.54417,-887.17302,-882.26808,-875.70339,-867.52333,-859.30696,-850.40116,-840.71666,-829.59277,-818.6711,-807.8204,-797.27613,-785.68132,-772.7986,-758.94241,-744.57978,-730.21637,-716.52307,-703.73383,-691.68847,-680.15661,-668.18334,-656.73422,-645.13923,-633.76493,-621.83029,-609.67912,-596.59522,-582.88505,-570.08108,-559.63942,-550.40894,-541.97451,-534.44048,-528.15608,-522.94738,-519.62316,-517.68804,-516.81858,-515.55663,-516.0521,-518.29094,-522.57426,-527.33448,-530.87523,-531.7543,-530.02098,-528.8252,-529.94126,-533.04379,-535.59454,-537.25335,-537.77701,-538.2453,-535.93357,-532.34144,-526.7953,-520.60448,-514.21431,-508.956,-507.21662,-507.41581,-508.3173,-507.27777,-504.32457,-500.33804,-495.01027,-490.0943,-485.53318,-480.72513,-476.1803,-472.2271,-468.63236,-464.55008,-459.38864,-453.99974,-448.54216,-442.9546,-437.26753,-431.76091,-426.29051,-421.56685,-417.73514,-414.41364,-411.44278,-408.08841,-405.51904,-403.12001,-400.91061,-399.18615,-397.67087,-396.42641,-395.3697,-394.59402,-393.35468,-391.5208,-389.70524,-388.12564,-387.41619,-386.95753,-386.65758,-386.76325,-386.79414,-386.33834,-385.88152,-385.37121,-385.00434,-384.5108,-384.62435,-385.3018,-385.24398,-385.19643,-385.17091,-385.32185,-385.09492,-385.00967,-384.88653,-385.56756,-386.38638,-387.78595,-389.18539,-390.72889,-391.68223,-392.11971,-391.82188,-391.41601,-391.34128,-391.1348,-389.66119,-388.21413,-386.72559,-384.95329,-383.78553,-381.9662,-379.5089,-376.20144,-372.83497,-369.44626,-367.00793,-364.63503,-361.61778,-357.68289,-353.69542,-349.27969,-345.01344,-341.04918,-337.68413,-334.325,-330.19255,-325.79757,-321.58915,-317.20361,-313.59164,-310.05066,-306.32245,-302.52522,-299.68809,-297.85192,-296.1067,-294.34476,-292.11264,-290.12717,-288.2814,-287.3717,-286.94266,-287.01771,-287.74428,-288.99001,-290.05739,-290.44494,-290.43061,-290.53965,-291.36811,-291.53548,-292.22198,-292.03655,-291.62917,-291.56948,-291.38188,-291.11809,-290.73183,-290.22946,-289.47483,-288.37308,-286.73804,-284.98291,-283.08078,-281.20881,-279.37221,-277.17506,-274.55082,-272.09267,-270.11949,-267.57386,-264.85921,-261.60324,-258.09242,-254.80832,-251.80462,-248.28219,-244.25304,-240.21267,-235.99367,-231.85349,-227.1433,-222.00006,-216.7382,-211.94444,-207.15213,-201.89354,-195.94153,-190.33631,-184.98073,-179.43991,-173.90331,-168.0587,-162.70527,-157.55169,-153.4988,-149.51639,-145.20931,-141.54013,-137.88743,-134.52356,-132.00299,-129.84955,-127.57486,-125.89099,-124.5909,-123.54805,-122.76103,-121.04887,-119.85127,-118.6713,-117.73333,-116.77159,-116.34369,-115.6791,-114.93669,-113.85302,-112.17883,-110.63661,-109.49219,-108.29922,-106.45411,-103.93329,-100.6207,-97.674603,-95.247408,-91.835421,-87.413836,-82.513376,-77.435196,-72.179762,-66.272958,-59.292328,-51.68858,-43.874909,-36.068649,-28.470535,-19.867238,-10.47619,-0.6210258,9.141133,18.875566,29.184963,40.06128,50.664138,61.17593,71.611279,81.889108,91.94558,101.9475,110.83974,119.75355,129.49682,139.56043,149.81687,159.73011,169.62755,179.27358,188.38336,197.14806,206.36542,215.38979,224.35894,232.99684,240.26521,246.75908,252.87934,259.46318,266.04123,271.78152,276.74502,281.16468,284.87753,287.57705,289.56901,290.99616,291.73116,291.61021,291.10588,289.87364,287.81499,284.96252,282.19526,279.24179,275.55693,270.65314,264.83615,259.50246,254.41167,249.00288,242.62776,236.01769,229.42674,224.24505,219.50295,214.92724,209.03014,202.91007,196.93867,191.31878,185.40715,178.98234,171.63299,164.9284,157.07954,149.51323,140.75185,134.90182,128.61836,114.84869,103.24442,85.390495,68.918583,58.799375,54.255936,54.633672,58.259592,64.666183,74.964621,89.62155,107.79098,128.9416,153.12741,148.122,162.30813,216.12639,257.83261,280.63839,278.02563,268.59723,288.30453,313.14357,328.05186,326.48036,313.37942,299.21628,276.90151,253.75002,238.91976,222.74562,197.48991,161.08251,119.92102,77.982518,33.460368,-12.803946,-62.472203,-113.28622,-161.51685,-208.78411,-255.67242,-300.5564,-346.54387,-391.10595,-435.26276,-481.17905,-526.36512,-566.69274,-603.5744,-639.0261,-672.22335,-703.03058,-734.60391,-770.0986,-806.69625,-838.8995,-865.42537,-883.0563,-899.40438,-914.52773,-921.52767,-918.91664,-905.37838,-888.14885,-870.34888,-857.03848,-844.15495,-825.40485,-802.06021,-773.35247,-739.62416,-713.57078,-691.25444,-664.43271,-630.44572,-593.83348,-556.01481,-520.89578,-486.03147,-450.64783,-416.89637,-381.98378,-347.13256,-314.87147,-286.98409,-262.37951,-239.85111,-218.05913,-194.59419,-168.75688,-147.58933,-129.69328,-111.96325,-95.278739,-82.603022,-75.105351,-73.704863,-75.548741,-78.748297,-83.65056,-94.010406,-108.64486,-127.44242,-150.3709,-177.7158,-206.07202,-238.34871,-273.67484,-315.75565,-360.58079,-400.00359,-440.47068,-472.06036,-498.08108,-521.294,-539.8965,-557.89021,-572.11151,-577.55508,-573.87008,-565.93265,-555.34082,-547.22977,-540.85041,-496.77648,-459.05383,-455.16248,-444.07498,-431.14203,-401.47671,-351.8281,-323.0883,-309.75759,-298.58091,-277.48745,-245.84891,-213.76623,-175.6102,-138.47718,-113.72392,-94.846483,-74.472438,-47.154641,-16.925302,12.204068,41.396725,69.674706,99.864366,130.79034,159.09646,185.81648,209.76952,229.06535,247.70059,263.42279,276.22946,288.58659,299.55552,305.13558,306.78499,304.8912,297.75537,283.87507,268.92561,259.14944,255.04721,252.73075,250.0019,243.77487,241.98635,245.72496,248.0225,245.56094,235.90807,223.7082,211.442,206.5233,206.35086,204.23174,200.81718,192.90675,179.04463,172.23774,171.89238,172.05729,169.79653,166.07837,158.46048,152.02069,147.11143,141.71754,136.54013,129.67295,119.20032,108.59403,101.61029,97.399149,92.942434,80.014323,62.006431,40.451561,21.508031,6.5189196,-6.6943187,-17.425195,-25.661824,-29.817705,-26.518003,-15.232819,2.07824,21.523211,43.890108,68.717613,97.969076,132.38035,167.52548,198.85127,227.09513,255.3004,283.07213,306.89727,326.66261,341.04507,352.58111,363.40269,370.13618,369.1275,365.64294,361.82279,354.30661,338.41303,313.52441,280.73524,246.02822,209.50346,170.0919,128.43349,76.15278,12.877042,-45.499298,-95.792839,-151.63348,-215.08175,-276.23384,-333.21857,-389.04685,-447.88777,-508.62449,-566.24202,-618.54097,-667.6523,-716.53357,-764.5129,-809.4841,-850.71149,-891.71745,-932.07038,-971.30929,-1008.3715,-1039.8668,-1067.4435,-1094.8338,-1120.8742,-1142.4669,-1158.1406,-1169.6645,-1179.0177,-1184.9337,-1186.2817,-1182.4804,-1176.1065,-1168.572,-1159.7458,-1145.5306,-1126.1693,-1103.7077,-1080.3611,-1056.9873,-1030.582,-1000.2765,-967.49917,-933.53834,-897.5397,-857.62146,-814.33327,-768.8797,-724.02072,-681.28298,-638.15869,-592.53293,-546.15701,-500.80493,-457.54998,-414.49186,-369.36835,-323.89622,-282.33887,-245.74199,-210.6826,-175.74151,-144.06219,-118.68655,-99.555616,-86.80737,-78.139629,-75.896519,-81.984521,-98.103443,-120.83309,-138.88907,-154.89528,-170.64089,-184.58479,-197.76811,-209.03835,-217.43163,-221.66959,-220.88955,-216.12061,-209.25582,-201.22172,-190.27085,-175.27999,-156.77619,-138.21227,-120.31284,-100.86433,-78.46023,-55.100825,-32.266351,-10.287849,12.115695,35.768428,59.879532,83.057835,104.50675,126.50256,149.83471,173.52028,195.17658,214.03881,231.4384,248.884,265.81278,280.9636,293.98489,307.49399,322.53098,336.95812,348.17901,356.64552,365.00804,374.55862,384.24086,392.65823,399.7841,406.90577,415.2176,423.64512,430.27629,434.04991,436.81947,440.70721,443.97311,444.56746,442.17258,440.42579,439.34912,438.65617,437.50974,434.46068,430.3201,427.53291,426.71667,426.15613,423.90593,421.1862,420.01738,419.74869,417.91204,414.25634,409.96435,407.64121,407.40298,406.65563,404.58305,401.76865,400.52774,401.87013,403.36789,402.79094,401.53616,401.9998,404.2557,406.42167,406.85477,406.61056,408.0071,411.80388,415.23307,416.98926,418.59835,423.19664,428.79382,434.57024,439.66221,444.2542,449.92005,457.0833,464.2192,469.69181,474.1864,480.58801,487.71831,494.27189,499.51056,505.59263,511.7019,517.87687,523.41909,528.6186,534.24036,540.24098,544.76172,549.71452,555.10138,559.88566,564.52339,568.86835,572.53635,576.02986,579.35279,582.69453,585.14715,586.82733,588.4036,589.93671,590.71889,590.52603,590.68863,590.87229,590.45306,589.95462,589.748,589.52767,589.01223,588.80234,588.74271,588.45397,588.32184,586.99953,584.93728,583.24137,581.55958,579.61568,577.20991,574.56573,571.85227,568.20024,564.07803,560.16397,556.52272,552.98876,549.17291,546.16802,542.89086,538.70691,534.18445,529.34873,525.08414,519.87267,514.54059,508.65434,501.21515,493.7643,486.25626,478.14175,469.01317,459.59209,449.95152,440.16238,429.80692,419.21859,408.93669,398.2686,387.08556,375.13831,363.35899,351.87961,340.39143,328.9295,317.53282,307.09599,297.06901,286.83692,276.60771,266.59843,257.52785,248.66694,239.37554,229.36064,220.06273,211.63247,203.19769,194.5529,185.58036,176.83372,168.55375,160.74106,153.6167,146.1857,139.36911,132.82393,126.36082,121.25661,116.2839,109.85821,103.3912,98.829311,94.683427,89.631257,85.051671,81.306871,77.540089,73.999277,69.853676,66.348885,62.672541,59.40413,56.396612,53.391939,50.292169,47.149559,43.893185,41.292162,38.557717,34.606671,31.129108,28.277016,25.700876,21.990199,16.946522,12.633947,8.7029622,4.715842,-0.20733524,-5.6457637,-10.95348,-14.874897,-18.215446,-23.083931,-28.440942,-32.077706,-35.128347,-38.480602,-42.701151,-46.048983,-48.890047,-52.088638,-55.229545,-58.792,-62.310343,-65.139333,-67.633344,-70.303079,-73.713978,-77.612311,-80.790436,-83.464286,-86.297586,-89.08231,-91.799084,-94.291289,-96.61571,-99.250091,-102.49822,-105.29573,-107.69693,-109.7915,-110.99878,-113.30504,-116.16569,-119.15925,-121.04315,-122.1722,-124.33137,-128.68893,-131.62913,-135.25232,-138.40093,-142.25833,-147.40697,-151.58181,-155.65995,-159.6875,-163.83418,-168.28822,-171.68846,-173.98718,-176.75004,-180.2927,-183.78603,-187.32299,-190.29667,-193.03729,-195.91749,-199.02809,-202.2365,-204.8284,-205.70574,-207.23387,-208.98448,-210.6511,-212.56899,-213.48713,-214.40167,-216.22286,-218.03896,-218.20828,-217.93572,-218.67763,-218.86778,-218.95659,-218.52487,-218.01285,-218.03173,-218.5688,-218.10283,-216.13535,-215.16488,-214.71768,-214.07726,-213.50381,-212.78922,-211.94376,-211.23053,-210.26503,-209.1494,-207.65405,-206.10538,-205.18064,-204.77748,-203.5495,-201.52943,-199.66379,-197.50291,-195.41321,-193.96491,-192.06804,-188.80898,-186.92118,-185.07033,-182.08848,-178.96289,-176.75641,-174.58644,-172.34516,-170.45355,-168.245,-166.0507,-164.1933,-162.59401,-160.47533,-159.1319,-157.23279,-155.72317,-154.07464,-152.62382,-151.4575,-149.17995,-147.33419,-146.0789,-145.15331,-144.61467,-143.74105,-143.57294,-143.48351,-142.34658,-140.50933,-139.3597,-138.07147,-137.32319,-136.52931,-135.13542,-133.99698,-132.63322,-131.30377,-130.0686,-128.13539,-125.5469,-123.48915,-121.87434,-119.65156,-117.94043,-116.56268,-115.01858,-114.10967,-111.88942,-111.93695,-109.77675,-107.61622,-105.84488,-104.02441,-102.26613,-99.51204,-97.082155,-93.979611,-91.369148,-89.356075,-87.29175,-85.493971,-83.231903,-81.433388,-79.072661,-76.683099,-74.018334,-71.232122,-68.705795,-65.237421,-60.60911,-57.021418,-54.392805,-52.003076,-49.551993,-45.888434,-42.596338,-39.936735,-37.555585,-33.855951,-30.669381,-26.96116,-24.226642,-21.366081,-18.231184,-14.223104,-10.519474,-7.3678183,-4.3786876,-1.479811,1.6329996,4.8848667,7.7091793,10.524398,13.073512,16.065839,19.22016,22.203075,24.735145,27.17849,29.487058,31.925936,34.491208,37.490119,40.324791,43.262263,46.686222,49.372465,51.387598,54.118612,57.71354,60.290965,63.469949,66.373022,68.546061,70.768648,73.273547,75.771239,77.654134,79.390867,81.84729,84.441559,86.200697,87.664755,88.800036,90.56668,92.350325,94.223014,95.446326,96.331721,97.125083,97.492602,97.996864,97.356703,96.610807,96.516354,96.573396,96.654236,96.601786,95.502462,93.908692,93.045043,91.94742,90.432741,88.099656,85.495171,84.428553,83.638294,81.923213,80.840404,80.072061,79.424307,78.795581,78.338113,77.185202,77.234169,78.412846,78.383379,78.059153,77.066498,77.301359,77.745313,77.229463,76.200104,75.698239,75.487354,75.237686,74.899504,73.237164,71.542948,70.229641,68.427929,67.060843,64.472471,61.953195,58.911925,56.297151,53.998504,51.62406,49.048768,45.606384,42.180315,38.976544,35.828524,32.377945,28.756187,25.236254,21.310768,17.357748,13.362986,9.3343186,5.8178789,1.9838581,-1.2392098,-5.4352115,-9.8723103,-13.846792,-17.839574,-22.19445,-27.227336,-32.091503,-36.505596,-40.684343,-44.581064,-49.199003,-52.998754,-56.242748,-59.190817,-62.553774,-66.011279,-69.303073,-71.602725,-73.92629,-76.475723,-79.85775,-83.886371,-87.752772,-91.412491,-94.440811,-97.34492,-99.740267,-102.66383,-105.67418,-107.80244,-109.99973,-112.29747,-114.4337,-115.6734,-116.80008,-117.62156,-118.09392,-117.75381,-118.33347,-117.76894,-116.95257,-116.86147,-116.31626,-114.66175,-113.4209,-111.48116,-109.28065,-106.87148,-104.58915,-100.99219,-97.071245,-93.220091,-89.63111,-87.158152,-84.862125,-83.227412,-81.881403,-80.259956,-78.595049,-76.891505,-74.386906,-71.69366,-67.476486,-63.868673,-59.651154,-54.857608,-50.27331,-45.494066,-39.81032,-34.312635,-30.027036,-25.1736,-19.322558,-14.412487,-9.4496213,-4.8759972,0.019042971,5.3750667,10.043037,15.103081,19.504576,23.335655,27.242171,31.029171,35.068446,38.322414,41.051019,43.596458,46.403676,49.407171,52.223245,53.926246,55.618489,58.252047,59.981515,60.20184,60.51673,60.345213,60.814204,61.303848,60.184175,59.154292,58.723993,57.804138,56.756062,54.920504,53.679063,51.949649,50.71419,50.150417,47.984543,45.007576,42.391555,40.276984,37.965886,36.064907,34.056409,32.850739,32.404896,32.592832,31.618291,30.390864,29.751211,29.7666,29.661698,28.923778,28.149441,28.061897,27.626682,27.119751,26.132492,24.984931,25.014403,25.429376,25.383541,25.007854,24.471445,24.257462,24.732652,25.779537,25.752792,25.304844,25.077531,25.321657,25.497304,25.293966,24.369865,24.297915,24.575909,25.541824,24.795393,23.782535,24.936802,26.614773,26.972186,27.672842,28.63647,29.12818,30.021635,31.850429,32.58123,32.125429,30.646989,29.036515,28.09554,27.210206,25.395576,24.477047,23.67316,23.326799,23.274075,22.664072,22.601601,21.977813,22.513646,22.135645,21.724471,20.592287,19.757173,19.114193,18.628866,18.517577,17.190774,15.485434,15.277058,15.194573,14.608853,13.735911,12.691189,13.19753,12.545424,10.921846,9.765837,9.3775922,9.8552227,9.0036807,7.9310842,7.1868704,7.5036943,7.8633122,7.9324778,6.7168331,5.3846072,5.6965996,5.2935228,5.1702577,4.7986065,3.6407013,3.8967618,3.9256191,3.2360837,3.3965091,2.8364818,2.2803784,2.1695727,2.1873034,2.3059026,2.0404061,2.4152703,2.6433888,2.2214127,2.0044388,2.2314376,2.800487,2.9839113,3.2244731,2.459293,2.4032972,2.4796667,2.4451244,2.5453956,2.8914002,3.8907588,4.7628365,5.0073986,5.3219312,6.7840851,7.8401201,7.5815675,8.3633604,9.3781835,10.690006,12.011687,12.936209,13.596084,15.583589,17.938669,19.816651,20.541322,21.741713,23.725054,24.378914,24.924643,26.121711,27.521314,29.225709,31.169658,33.174675,34.060539,34.991966,36.406292,37.847953,39.141178,39.280138,39.28799,40.552594,41.530153,41.289119,40.901352,40.968275,41.807853,41.795672,41.204711,40.334627,39.314649,38.428054,37.337065,36.722192,34.343986,32.510895,31.584036,30.16311,27.347768,24.099953,21.981025,19.221827,16.91475,13.874267,10.998808,7.9602621,4.4892245,1.6012666,-2.3557142,-6.3683034,-9.5526271,-12.828886,-16.919299,-20.521669,-24.295412,-27.654403,-31.847232,-35.304221,-38.125718,-41.114062,-44.623651,-48.767197,-51.744614,-54.191584,-56.690688,-59.610243,-62.097684,-64.454244,-65.981241,-67.485781,-69.907923,-70.896463,-72.670892,-74.466226,-76.04899,-76.92152,-77.397314,-78.227768,-79.551558,-80.661053,-80.790404,-80.426004,-79.661328,-78.843973,-78.722046,-77.933618,-77.197307,-76.710327,-76.348032,-77.364991,-77.967937,-78.792421,-78.731803,-78.380358,-79.130857,-80.46833,-80.2049,-80.432609,-81.371928,-82.377936,-83.691488,-83.74806,-82.931443,-83.417718,-83.603578,-83.082036,-81.588365,-79.845805,-78.95615,-77.768024,-76.525705,-74.933765,-74.02322,-73.613742,-72.932086,-71.769466,-70.833172,-69.585035,-66.986752,-64.923838,-62.478135,-58.950635,-55.752149,-52.961003,-50.124248,-46.679055,-43.264983,-39.741485,-35.944828,-32.651948,-29.178169,-24.590088,-20.248602,-16.138903,-11.601013,-7.1501346,-2.7678768,1.701443,5.9661488,9.9386015,13.905528,18.642525,23.573236,27.771816,31.44876,36.023585,40.973518,45.405587,49.153795,52.884404,57.242773,60.789794,65.035247,68.488871,71.639035,74.090456,76.802595,79.530849,81.385636,83.366212,84.991129,86.328096,88.280967,89.618119,89.871805,90.438149,90.378779,90.402977,89.907589,89.333379,87.990646,86.333893,85.209812,84.05467,82.531544,79.688973,77.241354,75.430239,74.150323,71.477251,68.723893,66.655558,64.032671,61.833894,59.528805,57.134509,54.575414,52.284367,50.303778,48.821752,47.361334,44.902603,44.051001,42.990746,41.403574,39.384021,37.192842,35.10994,33.696699,30.988527,28.428642,25.390239,23.660907,21.281637,17.876474,14.813963,13.163768,11.019335,9.2232016,7.4503873,5.6499287,4.2953596,3.6683312,2.4455844,1.6916946,0.44923833,0.061345455,-1.1948001,-2.2067535,-3.5465905,-5.933575,-8.3273513,-9.5609802,-10.450766,-11.369514,-13.253555,-14.16488,-14.01164,-14.795121,-16.011426,-16.579392,-17.289257,-18.573004,-19.026273,-18.597559,-18.827704,-18.965372,-18.971883,-18.845643,-18.623213,-18.485698,-18.702019,-19.430463,-19.446376,-19.561668,-20.953717,-21.974451,-22.293269,-22.738049,-22.969381,-23.018244,-23.052934,-23.666558,-23.464843,-23.519394,-23.962755,-24.414719,-24.30114,-24.374862,-24.14396,-24.09807,-24.241345,-23.865095,-23.741184,-23.648756,-24.331784,-24.701557,-24.938928,-24.382684,-24.275161,-25.130277,-25.536347,-25.190411,-26.074496,-26.629366,-26.878553,-28.21171,-28.885903,-28.877966,-28.01666,-29.260371,-30.822032,-31.022925,-30.034857,-29.641982,-30.201614,-29.458726,-28.714797,-27.519993,-26.929681,-26.515075,-26.871243,-26.959289,-25.797209,-24.307206,-24.14751,-24.071079,-23.603192,-22.913434,-22.671675,-22.667009,-22.564757,-22.087599,-22.25657,-23.097044,-24.11332,-24.515227,-25.854406,-26.67598,-28.049075,-29.181296,-30.530473,-31.47477,-32.127802,-33.230784,-34.328674,-35.016057,-36.266903,-36.62573,-37.576425,-37.976871,-38.493022,-39.174343,-39.522124,-39.942833,-40.749569,-41.234184,-41.668225,-41.991804,-41.894704,-41.668256,-41.280751,-40.917073,-40.957192,-39.931143,-39.787694,-39.438385,-39.451636,-38.975744,-37.017126,-35.238284,-34.157864,-32.324989,-29.307972,-26.118349,-23.957,-21.952322,-19.740038,-17.097824,-14.507636,-12.306259,-10.45774,-7.917089,-4.6881689,-2.2701347,0.66961167,3.6798592,6.0775278,9.2126682,13.075581,16.891758,19.832064,22.549494,26.368526,30.380437,34.700843,38.297336,41.998516,45.870563,49.957812,53.114609,56.432383,59.35443,62.469008,65.602154,69.133391,71.497441,73.552224,75.559732,77.374671,78.598993,79.730861,80.545083,80.707413,81.098426,82.116312,82.266371,82.165968,82.348256,82.913703,82.186656,81.365583,81.917278,82.044952,81.754563,81.169757,81.252529,81.086095,80.926924,81.46691,81.077359,80.292528,80.522499,81.222901,81.641688,80.895173,81.874812,82.608399,82.954427,83.551334,85.518392,85.707557,85.805195,86.57084,87.849071,88.113495,88.593017,89.109553,90.01723,90.978987,91.551553,91.86463,91.937834,91.807722,91.487589,91.627323,91.798399,90.218667,89.450588,88.671896,88.206326,86.622563,84.163466,81.951893,79.454936,76.82187,73.853063,71.109693,68.306954,65.484701,61.910208,57.890933,53.612436,49.061948,44.77472,39.574129,34.926021,29.966096,24.640238,20.000195,15.244727,9.8864979,4.4782893,-0.9050188,-6.5235401,-11.81879,-17.449437,-23.157096,-30.030497,-35.978804,-40.817671,-45.993848,-51.792409,-57.627315,-63.584061,-67.816378,-73.094767,-78.695955,-83.433209,-87.201169,-90.421764,-94.00679,-97.960044,-100.78906,-103.14667,-105.71343,-108.23841,-110.51593,-111.80095,-112.62527,-112.71571,-112.46167,-112.53321,-112.28165,-111.14233,-109.60049,-109.43468,-108.2018,-106.79669,-104.31464,-101.9906,-98.811835,-96.634088,-94.157828,-90.354239,-86.964067,-83.882272,-81.137391,-77.789979,-74.585038,-71.561617,-68.259812,-65.091151,-62.069097,-58.54781,-55.511654,-51.866001,-49.023304,-46.814918,-44.476607,-42.636846,-40.491305,-37.994453,-35.467208,-32.728827,-30.705712,-27.169979,-25.18573,-24.026551,-22.185709,-19.596522,-17.706629,-15.208106,-13.667932,-12.456076,-11.735327,-9.2642528,-8.0249164,-7.4565574,-6.5311081,-4.8473361,-3.1000712,-2.3598459,-1.6416168,-0.84875443,0.10083926,0.80010683,1.3580562,1.8868988,2.2646053,2.7027401,2.6734618,2.4179319,2.3887392,2.4121004,2.8351605,3.6919024,4.4988143,4.023027,3.2813196,3.3966078,3.2875009,2.8578091,2.1566074,1.6275442,1.3616255,2.0020241,2.0132265,0.62696784,0.88073657,-0.2690609,-0.41656238,-0.2570971,-0.53814882,-0.56587695,-0.98652711,-1.0536394,-0.41590436,-0.82481449,-1.0199565,-0.33837569,0.33023128,-0.10323834,-0.41407091,-0.22476776,0.82001659,0.45554728,0.49017326,1.5166334,2.7119015,3.9377736,4.3670486,5.4707694,6.6620592,6.9069764,7.8991549,9.2529383,10.847825,12.276324,13.493686,14.735622,16.073612,17.203698,18.360182,19.305624,19.797196,20.991463,22.419865,22.877205,23.557926,23.945233,25.098717,25.071235,25.306181,25.564852,25.636522,26.543655,27.037213,26.875207,26.404602,27.551842,28.399102,28.156634,28.432816,27.592453,27.872398,27.618726,27.06089,26.605091,25.79535,25.606894,25.842542,26.590394,26.037605,24.775167,23.860435,23.920131,22.690439,21.128044,20.448217,20.267184,19.305167,17.823247,16.041527,14.475443,13.051632,12.085938,10.756,9.6011483,8.067673,6.4516421,4.8269125,3.2213568,1.5970795,-0.5203697,-2.1038322,-4.0533478,-5.3961081,-7.6268058,-10.373647,-12.417762,-13.451048,-14.236356,-15.648873,-17.719319,-18.59723,-20.027679,-22.020494,-23.929582,-24.702006,-25.806274,-27.626959,-28.90599,-29.792215,-31.162953,-32.663509,-33.473327,-34.57845,-36.075751,-36.582502,-37.477258,-36.958947,-37.266734,-38.063632,-38.067468,-39.189596,-39.041434,-39.241916,-40.072999,-40.345612,-39.60359,-39.150469,-38.915831,-37.975831,-36.729023,-35.808191,-34.845853,-32.906179,-30.535288,-29.011452,-27.490144,-25.983611,-23.459177,-21.52684,-20.126026,-17.068381,-13.771361,-10.920167,-8.6338086,-5.9647129,-3.086495,-0.51143418,1.9390623,4.5545639,6.9830345,9.4089916,12.522574,14.752549,17.306674,19.882984,22.346587,25.68352,28.321988,31.492764,34.121455,37.057301,39.005136,41.38991,43.890492,46.315655,48.674541,50.058946,51.608852,53.720055,54.620507,56.145413,56.774273,58.128007,59.33247,60.333907,61.321852,62.388016,62.731101,62.883655,62.579427,62.610497,62.595887,61.935574,61.679305,61.909402,61.280414,59.941297,58.475429,57.460137,56.357232,54.143168,52.219999,50.1532,48.45402,45.907987,43.7441,41.393997,38.647997,35.918963,32.83951,29.813843,26.172721,23.400027,19.948758,16.566448,14.278427,11.853096,8.4611503,5.7304144,3.1692955,0.25632282,-3.2486893,-5.8900242,-7.9635275,-9.7929293,-12.917182,-15.539957,-17.359932,-19.065585,-21.43667,-23.715568,-25.028918,-26.491473,-28.063719,-28.794675,-30.009602,-31.478641,-31.796297,-32.596672,-32.445095,-33.444225,-33.595517,-33.940878,-33.395956,-32.365339,-32.028704,-31.568069,-30.769869,-29.031433,-27.824933,-26.646371,-26.144393,-25.15505,-23.715851,-23.145195,-22.230071,-21.035387,-19.731337,-18.513867,-17.028026,-15.515487,-14.413417,-13.679238,-13.074344,-11.959377,-11.433279,-11.088437,-10.679231,-10.015743,-9.0434185,-8.1593233,-7.5177655,-7.3754477,-6.7505259,-6.426399,-5.3767745,-4.9947116,-5.6298075,-5.2915963,-5.1351501,-5.040344,-5.7995877,-5.9911218,-6.138229,-6.2408843,-6.7980295,-7.1413481,-7.4550856,-8.4412295,-9.2404601,-9.0670424,-9.6160736,-10.238128,-10.255662,-10.489518,-10.458438,-11.304618,-11.980562,-11.967294,-12.730832,-12.387711,-12.606292,-13.241182,-13.220812,-13.219413,-14.050534,-15.28249,-16.042463,-15.41174,-16.238437,-16.650599,-16.692651,-17.337787,-17.793454,-18.349894,-18.595962,-20.398478,-21.260286,-21.870416,-21.939857,-22.79803,-24.000722,-24.218984,-25.075833,-25.661647,-25.805084,-25.929628,-26.648328,-26.633118,-27.584206,-28.20349,-28.744088,-29.540728,-30.141159,-30.627045,-31.334879,-32.114358,-33.155896,-34.12838,-35.253463,-35.447592,-35.868672,-36.954416,-37.271641,-37.482172,-38.129852,-38.684619,-38.719128,-40.28372,-40.881615,-41.389561,-41.573008,-41.97611,-42.310758,-42.349149,-42.461213,-42.276486,-42.227243,-41.683886,-42.342439,-42.617648,-42.911639,-42.190332,-42.601465,-42.393361,-40.971997,-40.469817,-40.551496,-40.133499,-39.368459,-38.808134,-37.863597,-37.642878,-37.736119,-36.881278,-35.987009,-35.210566,-35.070373,-33.752345,-31.692534,-31.193235,-30.926612,-30.533451,-30.500049,-29.925903,-29.4415,-29.950255,-30.151165,-29.779681,-30.273885,-31.054157,-31.579936,-31.895191,-31.476597,-30.745939,-31.772035,-31.730049,-32.547928,-33.23638,-32.87547,-33.347143,-34.517191,-34.696678,-35.175567,-36.120009,-36.668046,-37.610819,-38.030828,-38.566135,-39.286055,-39.347927,-40.28043,-40.241956,-40.549957,-40.513231,-39.873689,-39.828325,-39.428923,-38.374326,-38.080373,-37.018311,-35.997145,-35.390819,-34.223174,-32.257334,-30.659515,-28.836565,-25.895956,-23.539323,-20.931589,-18.618439,-15.294294,-11.763581,-8.9654864,-4.8259597,-0.59577637,2.9790019,7.1216618,12.183306,16.329173,21.134358,25.931512,30.784814,35.79806,41.050738,47.494896,53.092745,58.334477,64.223959,70.007073,75.941845,80.915189,86.103551,91.875481,96.467681,101.35113,106.29976,110.84298,114.6765,119.84131,124.82849,128.82867,132.01562,135.09237,138.64099,141.79483,144.66195,146.75514,148.76134,150.55825,152.9948,155.71882,157.75405,159.01219,161.51098,163.03894,163.92773,165.05161,166.43274,167.46238,168.47664,169.43537,170.89579,171.03806,172.06954,173.79706,174.02756,174.17733,175.79315,175.09172,172.92504,173.36328,171.7384,170.08579,168.52238,167.00711,165.12365,162.33215,160.37474,157.3841,155.62268,152.55676,149.24507,145.89577,141.72721,136.21978,131.99067,126.2371,120.45964,114.71269,107.69667,101.02352,94.562859,88.598487,82.403008,75.029284,68.802947,62.775957,55.998224,49.021488,42.239509,34.962465,28.381042,21.267483,14.606087,8.8414243,2.4470831,-4.107116,-10.130347,-16.158176,-21.972414,-27.17562,-32.95387,-37.748518,-41.945046,-46.248486,-51.341403,-55.69737,-59.627404,-63.488165,-67.450262,-69.758113,-72.082378,-74.648643,-77.721459,-80.271478,-81.21379,-81.790835,-82.939246,-83.464219,-83.478333,-83.651412,-83.592658,-82.931768,-81.371647,-79.824892,-78.307364,-77.351406,-75.868024,-74.484516,-72.690379,-70.338941,-69.374071,-67.151504,-65.986356,-63.978319,-61.749034,-60.42095,-59.543681,-58.867172,-58.550773,-58.033685,-57.550792,-57.282063,-57.268692,-56.876306,-54.659797,-53.97018,-53.732851,-51.873756,-50.121063,-53.405372,-53.087747,-53.318927,-55.27555,-56.686272,-54.890251,-56.733316,-58.87913,-58.858365,-63.494785,-61.818107,-62.364536,-66.395755,-67.944539,-69.240842,-73.849378,-73.866162,-73.105961,-76.894597,-79.43524,-78.597772,-80.885841,-83.571031,-82.982981,-82.399932,-83.461821,-82.713246,-80.944777,-82.548873,-84.170183,-85.173987,-83.536924,-81.815763,-80.80924,-81.429291,-79.298292,-80.225073,-78.832784,-76.424622,-75.468167,-75.182771,-75.57151,-72.117839,-70.445788,-67.358893,-63.894675,-63.176156,-60.911735,-58.720701,-56.887494,-54.304954,-52.846488,-50.256502,-49.075206,-47.487079,-47.198352,-44.717954,-43.143532,-43.894832,-42.15114,-42.152577,-41.189524,-39.399284,-39.85544,-40.606525,-41.323136,-40.793146,-41.568543,-43.533898,-44.854422,-44.823215,-45.961578,-47.767196,-49.404189,-49.206651,-49.003761,-50.345065,-50.570839,-51.459039,-52.604011,-53.704695,-53.912555,-54.474826,-55.708205,-56.83082,-57.650745,-59.46118,-60.037241,-61.263482,-62.119971,-63.502243,-65.005418,-65.105837,-66.223605,-66.818086,-67.862487,-69.085645,-70.070331,-70.439352,-70.112332,-69.899111,-68.877411,-67.914544,-66.720677,-63.789694,-61.2688,-59.939394,-57.745009,-55.626192,-53.618411,-53.713546,-47.753244,-45.484596,-43.891879,-41.000268,-37.786894,-38.530107,-37.374643,-36.037967,-38.030178,-34.911449,-37.278245,-40.333924,-39.980116,-40.876555,-41.610564,-40.981342,-42.466842,-47.271501,-47.183001,-47.876195,-50.98426,-52.762195,-51.38353,-53.116314,-55.505048,-55.634415,-56.653495,-59.151014,-58.267807,-55.719107,-53.502645,-53.156077,-52.030447,-51.118872,-47.58029,-46.791229,-42.913274,-39.404383,-37.464914,-34.619877,-28.920292,-20.536889,-15.037122,-8.6737431,-3.3921614,2.5193518,11.23808,17.507226,24.61625,31.816908,38.412792,46.820581,54.113594,63.127199,71.203143,80.139356,86.352115,94.211374,103.92978,110.05311,118.36887,125.96112,132.0045,138.82734,145.68093,151.96339,157.94495,162.99601,169.57948,174.88073,179.94026,184.28975,189.64745,194.09407,197.98105,200.3207,204.06046,206.07994,208.66285,209.15353,210.36247,211.26162,210.79187,210.98882,210.08772,209.6454,208.96141,207.94713,207.6668,206.64757,205.9948,204.62934,204.0056,202.94225,201.4539,200.89804,199.67716,198.61791,197.63845,196.38623,195.66932,194.68823,193.98824,193.9647,193.08203,192.71554,192.09392,191.57431,193.691,191.96042,190.01689,187.17063,185.85148,183.27401,180.0642,175.15612,169.65793,164.40272,158.09614,151.55516,144.79804,136.35707,129.28623,121.30752,113.58701,103.43662,95.20495,85.696448,77.583149,66.652429,57.083792,48.04618,38.281786,27.888409,17.849103,8.4548601,-0.89467608,-10.60347,-18.965195,-27.858344,-36.488815,-45.598608,-53.254058,-61.59366,-69.523203,-77.668179,-85.018478,-91.768293,-99.06442,-105.15693,-110.2225,-115.73321,-120.60299,-125.57611,-129.23063,-132.76072,-135.77,-138.69194,-139.99634,-142.77936,-143.98092,-144.00836,-144.28099,-143.98206,-144.63576,-143.06663,-141.9543,-139.97425,-138.01346,-135.4518,-132.3332,-129.11174,-125.47972,-121.41006,-117.57264,-113.07752,-108.74065,-104.98369,-100.09868,-96.31216,-91.953195,-88.258256,-83.900431,-80.643377,-76.677184,-73.610719,-69.740489,-67.178599,-64.691646,-63.045204,-60.527702,-58.435983,-57.992838,-56.504763,-54.942666,-52.882049,-52.536989,-52.10773,-51.132558,-50.026725,-49.960638,-49.577032,-49.047993,-48.51547,-48.392302,-48.293379,-48.938064,-48.509628,-49.08509,-49.108826,-49.174858,-49.822475,-50.173429,-50.184212,-49.76772,-49.725981,-49.714542,-49.049418,-48.446855,-50.609981,-51.652263,-51.283012,-50.012654,-51.154126,-52.027101,-52.993221,-53.374574,-54.205044,-55.794639,-56.637995,-57.745958,-59.051815,-59.515483,-60.09315,-60.898818,-61.927173,-62.679787,-62.71543,-63.904896,-64.517791,-64.799277,-65.285035,-66.622383,-66.888379,-65.87376,-65.811273,-65.581512,-64.950873,-64.172495,-63.588302,-63.54581,-63.282842,-62.378217,-61.699642,-60.33338,-59.377444,-58.448732,-57.010014,-55.549534,-53.468077,-51.882451,-51.236466,-48.953277,-46.763798,-44.648477,-43.210247,-41.283865,-40.044185,-38.282153,-36.726821,-34.127584,-32.093872,-31.002084,-28.693927,-26.582203,-24.748328,-23.252,-20.75858,-18.197879,-16.841468,-15.268401,-13.10899,-11.280783,-9.0398309,-7.3225285,-4.2320347,-2.4357151,-0.84998701,1.1085061,3.9744106,6.4933737,8.7049697,11.404591,13.767263,16.640072,19.346942,21.535934,24.199538,26.559689,30.154565,33.634906,36.895605,39.400287,43.232972,46.685526,49.82181,51.971843,54.642767,58.359868,61.372649,63.616305,66.148557,67.745749,70.559552,73.116144,74.745004,76.008912,78.457058,78.804756,80.357671,81.292951,81.480391,82.358466,82.543804,82.435363,82.479576,81.769965,81.534453,80.43514,80.024498,79.681862,79.049708,78.434807,77.710676,76.698651,75.687722,74.63884,73.38759,71.149194,70.385779,69.171307,67.377254,65.553302,64.108627,62.389311,60.766352,58.927424,58.08068,54.792212,53.621201,52.79171,50.173797,48.043542,46.335707,44.842336,42.291089,40.664149,38.611337,36.70235,34.703996,32.313147,31.136068,28.677308,27.245612,25.291601,23.418197,21.688654,19.579902,17.535155,15.741324,13.693973,11.755931,10.091405,7.8438686,5.8045033,4.8455902,2.8278903,0.90695514,-0.49740796,-2.1112951,-4.1461955,-5.5271744,-7.7112541,-9.2203974,-10.995602,-12.559924,-14.445575,-15.436204,-17.346667,-20.143285,-21.55926,-22.896982,-24.80863,-27.468871,-30.091203,-31.891301,-34.903114,-37.616267,-40.707499,-42.797832,-46.383737,-49.660461,-52.387668,-56.56182,-58.580388,-61.243464,-64.578293,-67.164932,-69.537281,-71.112407,-73.524425,-75.036047,-75.862206,-75.035522,-75.551744,-75.482218,-75.873998,-75.242382,-74.045369,-74.260506,-73.252143,-73.281029,-73.454552,-73.088922,-73.246663,-73.368175,-72.564982,-70.594027,-70.072026,-68.554333,-67.23903,-65.188313,-62.661074,-60.98078,-58.556084,-55.875989,-54.145128,-51.433277,-49.008163,-45.978606,-43.025691,-40.11341,-36.213326,-32.266183,-28.764759,-25.427237,-21.54991,-18.161081,-15.731893,-12.303965,-9.3195311,-7.0934129,-3.4626981,0.24526185,2.1331091,5.1058995,8.3119216,10.636,12.448216,15.266729,17.443279,18.052035,19.753091,20.669395,20.879297,21.499811,22.497177,22.612624,23.126788,22.841511,23.203438,23.989992,23.061747,23.853085,23.032985,22.753239,21.579215,20.518853,19.165247,17.343042,16.059625,15.029858,13.650767,12.293724,11.075981,9.7102021,8.3375668,7.5012387,6.0892938,4.4810708,4.4283342,4.1276694,2.9658128,2.3059084,2.4335148,2.2535116,2.0778128,3.3656924,3.4390266,3.465221,4.1038776,4.9195669,4.6880032,4.2049134,4.9174544,5.6371863,5.4938673,5.6916309,6.021398,7.2983886,7.6533047,8.5526908,9.2474843,9.2865434,11.155098,11.885223,12.699064,13.917098,16.329577,18.288287,20.681554,23.195412,26.01448,28.587483,29.822751,31.635721,33.431933,34.610915,36.111665,36.409129,37.18984,36.644182,36.677534,37.415266,39.110962,39.589405,40.162277,41.467881,42.130706,42.033757,42.8319,44.676061,45.008898,44.624106,45.059717,44.911389,45.087613,45.421017,45.728802,46.029392,46.681936,47.091253,47.711989,47.493749,47.448295,47.177952,47.281731,46.437697,46.070121,45.956738,45.542805,45.443905,45.541362,44.716876,43.9106,44.003033,43.401568,42.453933,41.971652,40.114203,39.570884,37.961683,36.972806,35.941323,34.425396,34.45912,33.923535,32.098588,31.581251,31.443975,31.185873,30.167842,28.990295,29.206139,27.805119,26.764845,25.385739,24.913284,24.312743,23.809778,23.732046,23.248055,22.369768,21.446285,21.616992,20.525902,20.076068,18.910612,18.30261,17.525917,17.389186,16.436253,15.238003,14.551702,15.122125,14.479595,14.074247,14.039747,13.590617,12.268985,11.269636,10.382116,9.8591622,9.2113928,8.2340855,7.4252832,7.3428667,6.7898569,6.9514297,6.7218002,6.2056746,5.7486443,5.4643381,5.4882986,5.2201368,4.2876719,3.8199535,3.5140507,3.8078533,2.7153148,2.7376453,2.101409,2.3699098,2.0377493,2.3536575,1.9980223,1.8444452,2.4578648,3.6417193,3.5560421,4.2826745,4.7291976,5.4882711,6.8282011,7.0542466,7.1572134,8.4008535,9.7972329,10.213289,10.296857,11.611449,12.278907,12.007823,11.798029,12.144217,12.485524,12.639777,12.492755,12.856823,12.167293,11.982564,11.15129,10.410373,9.4711419,9.055699,7.9843631,6.628107,5.2296919,4.567257,2.8803243,0.53011094,-0.63475054,-2.3407228,-4.0050923,-6.0955559,-8.2438133,-10.632831,-13.097977,-15.638443,-18.301225,-19.992512,-23.021353,-25.797807,-28.544339,-31.185385,-34.869247,-38.121284,-41.813866,-43.547674,-47.088238,-50.457904,-52.717337,-55.980287,-58.985596,-61.743584,-64.398079,-67.235075,-69.027571,-71.091837,-73.322193,-75.527953,-78.252155,-79.737755,-82.338236,-83.691476,-85.598952,-86.720713,-88.400953,-88.514304,-89.222651,-90.153515,-90.478024,-91.318693,-91.970641,-92.502301,-94.270183,-95.474682,-95.959356,-97.568579,-99.393035,-100.58382,-102.03354,-102.63936,-104.8566,-105.92261,-106.50183,-107.72463,-108.93045,-109.47393,-110.35156,-110.68792,-111.61232,-111.37413,-112.10437,-112.66452,-112.11983,-112.1883,-111.74794,-111.69651,-111.17543,-110.16927,-109.13259,-107.98001,-107.05739,-104.45613,-103.67497,-100.60629,-97.523247,-95.471155,-92.34676,-89.015619,-86.39932,-83.025176,-78.916698,-75.418098,-70.658075,-66.252029,-62.532966,-57.952557,-52.948886,-48.470547,-43.816888,-39.616192,-34.809502,-29.472193,-24.396064,-20.327794,-15.542121,-10.398651,-6.1137414,-1.0573454,3.193587,7.6791234,12.15318,16.573907,20.393231,24.042442,27.964251,31.525193,34.319063,38.098325,41.46448,43.896581,45.858201,49.190753,51.834344,53.090253,54.567692,56.438675,58.01166,58.322987,58.887551,59.714834,60.17246,60.04841,59.765403,60.512174,59.83323,59.793065,59.140299,58.693413,57.516438,55.96688,54.90946,54.609958,53.029355,52.060937,51.613163,51.198603,50.984566,50.542157,49.694698,50.294362,49.465978,50.701595,51.522046,52.133916,53.35228,55.146195,57.826675,58.803637,59.853139,61.613161,62.410821,63.505404,62.289992,62.660227,63.125144,60.718315,60.306891,60.628709,59.670399,59.104373,58.35293,58.636565,59.667592,59.594982,61.692115,61.382313,63.664782,63.514422,65.681087,66.443599,66.675591,68.209315,70.238482,70.376934,71.004673,69.489802,66.794785,69.288135,72.985829,70.717289,69.821729,68.475643,66.848015,66.514831,61.88865,59.849599,58.202148,56.020724,52.44986,51.116614,49.000194,45.03397,43.846971,41.517179,39.202856,38.254683,36.321768,34.407789,32.085517,29.042539,26.716361,23.699077,20.712206,17.885647,15.079141,13.360783,12.232848,11.844603,10.570058,11.468637,13.02666,14.1964,15.736779,17.043033,18.543821,20.562907,22.825424,25.120335,27.690431,30.761894,33.827323,38.173658,41.29217,45.16154,50.267316,55.092519,60.428826,65.541111,70.350326,74.690625,78.305673,82.949822,87.270968,91.408809,94.657917,98.396675,101.87235,106.35967,110.56646,115.44734,119.91109,124.46478,129.39424,132.53802,136.09096,139.26759,141.57604,143.99683,146.75418,150.47567,154.05487,154.27976,144.23064,146.30122,169.63661,171.20172,176.93349,180.95435,183.71007,187.1155,187.10449,187.24388,186.00425,185.46955,183.78309,181.628,180.9208,178.02477,174.93729,172.63478,170.21751,166.45953,162.57421,158.08974,155.20878,150.0845,145.23693,138.19021,133.54921,126.24752,120.94366,114.66855,107.46024,99.031807,90.989729,83.644085,77.556747,72.642787,64.080623,53.965348,46.246531,37.899133,31.428243,24.128389,15.948426,10.968931,4.5763402,-2.3597583,-8.4623472,-13.117647,-19.87222,-25.170716,-27.53824,-32.598036,-39.473917,-42.546147,-48.967432,-55.644971,-63.316835,-68.734022,-75.046235,-81.447783,-88.225717,-92.971073,-97.851187,-101.38685,-105.87708,-109.30694,-113.65601,-115.70351,-118.09845,-121.6458,-124.59635,-126.56864,-128.81842,-129.71671,-130.62004,-130.66334,-130.28727,-128.85168,-127.57091,-126.60018,-124.75403,-122.57258,-120.68241,-119.84636,-117.7763,-116.56183,-116.65072,-115.84525,-114.85679,-114.05853,-114.7481,-114.20789,-115.19731,-116.27091,-118.58235,-120.55729,-120.83882,-122.12134,-125.27331,-128.79654,-132.5514,-136.86493,-139.96822,-144.28592,-149.09294,-153.75366,-155.90195,-158.59869,-162.85704,-166.01519,-165.73217,-150.5661,-141.56405,-157.32318,-150.8458,-151.09744,-150.7906,-148.34878,-147.30583,-144.51226,-141.34845,-136.87722,-131.30718,-125.93882,-121.66619,-116.63174,-109.96434,-104.13219,-99.295479,-94.306852,-88.465593,-82.339092,-75.926968,-71.815993,-68.514245,-62.364639,-57.917785,-53.344753,-49.964459,-46.815504,-44.108888,-41.433612,-39.307644,-37.328777,-35.522311,-35.37084,-32.258276,-31.775833,-30.75587,-30.687208,-29.626701,-30.185157,-30.745954,-30.771445,-31.267461,-33.175025,-34.739556,-36.396293,-38.86025,-38.755194,-41.244849,-44.99105,-48.728098,-50.092025,-55.61408,-60.55323,-65.042949,-69.58714,-75.290826,-81.094905,-88.08886,-93.867995,-101.29965,-108.32622,-115.1671,-121.99772,-128.72988,-135.21159,-140.26427,-147.93974,-153.74879,-160.05641,-165.63521,-169.75136,-173.89935,-178.12659,-182.26225,-184.94473,-188.12245,-191.2162,-192.94781,-194.65925,-196.2464,-196.50078,-196.16327,-196.53344,-197.32078,-197.59247,-197.02409,-196.8473,-196.80941,-195.27496,-196.01047,-195.25729,-193.96184,-190.94269,-188.0538,-187.25085,-185.7012,-183.07011,-180.2043,-177.56107,-176.0811,-173.69813,-171.61251,-169.432,-165.42232,-165.39628,-165.53477,-164.94989,-166.73512,-167.77812,-169.45583,-169.97863,-169.63552,-173.05214,-173.8293,-175.83785,-176.61409,-177.3812,-178.68279,-180.12512,-181.7217,-183.54809,-185.56929,-186.29803,-188.49736,-189.38017,-192.08389,-191.9587,-192.6854,-194.29896,-195.16541,-197.23251,-197.70598,-198.14315,-200.44807,-200.56082,-201.23042,-201.02738,-201.07387,-201.051,-200.37524,-199.2592,-197.43126,-196.49882,-194.87828,-192.50541,-189.19244,-188.0258,-183.92159,-180.21916,-177.16054,-172.24074,-167.83629,-162.20141,-156.88137,-150.46955,-147.3212,-136.8887,-131.21004,-121.61525,-116.82193,-109.4983,-103.42354,-98.60541,-93.025291,-84.350394,-75.410113,-64.711476,-58.007187,-42.613735,-26.392461,-13.659395,2.4170447,15.995264,31.966695,48.886952,65.107856,75.151378,87.397633,98.480322,107.1103,115.33089,120.8746,107.70531,120.56146,133.92171,147.50609,164.79597,178.73101,189.86517,197.54554,209.22775,218.41084,226.98388,232.98052,236.00804,238.69606,240.16589,242.66843,244.2237,244.45536,250.34084,254.73187,257.64354,262.66771,268.25585,273.45095,279.18941,277.81795,273.45645,274.71148,277.11945,280.23831,284.76164,291.24187,300.68871,314.73129,331.6286,349.62296,369.40855,392.81604,420.19599,448.29508,476.74926,504.9994,535.52736,570.87395,602.0609,631.55749,659.74585,686.7881,713.64664,739.79004,760.95245,778.6973,796.54781,810.99095,825.7896,833.59459,836.23162,839.12806,838.56907,835.562,827.80527,818.7459,809.01176,796.98735,782.63799,765.89749,746.53226,725.45038,704.93959,685.11646,661.5018,637.53424,615.59271,595.32722,577.48456,561.2291,544.50128,530.03071,521.40889,514.34917,509.82774,505.51932,505.31697,509.68564,519.91468,524.78325,531.03524,535.16067,544.88054,553.60291,563.1479,573.63376,587.0647,599.08346,612.48739,624.88737,640.79231,650.25924,658.38128,669.01705,673.62718,675.55054,674.83623,669.35815,662.65373,658.36932,647.64133,635.30453,625.34601,616.60714,606.34146,618.81373,611.18994,601.99809,590.11027,567.88161,542.88008,513.78067,484.78858,447.34115,404.11559,354.2052,301.76618,248.93979,195.92991,141.59648,82.380782,20.87088,-42.163155,-111.39835,-184.9375,-264.08982,-348.51622,-436.80965,-526.42078,-617.68643,-700.94764,-775.90147,-848.41914,-913.56468,-972.1203,-1024.862,-1068.2461,-1104.4007,-1137.367,-1165.4703,-1187.9975,-1205.7149,-1220.9166,-1233.1159,-1241.8185,-1246.4809,-1248.1642,-1248.0816,-1250.1934,-1246.6257,-1239.327,-1228.7556,-1214.9766,-1199.4454,-1181.2622,-1157.5237,-1131.6394,-1102.9331,-1069.9444,-1038.2861,-1003.2491,-961.58286,-914.50915,-868.14873,-827.14774,-785.21075,-747.3528,-713.56534,-678.45469,-642.56144,-606.20466,-570.28698,-532.65298,-494.38041,-454.27278,-411.06951,-366.15849,-319.66363,-272.27182,-222.72669,-172.5827,-119.99627,-64.344889,-6.7468931,51.409805,108.03307,161.6225,213.08122,260.4225,304.00959,342.93216,377.50343,407.18225,433.47539,454.56987,471.88839,484.12118,491.59059,494.85926,495.23066,488.96746,479.16927,464.51084,445.50078,422.9841,396.53152,368.39457,336.73839,303.03554,267.29556,228.12605,188.61071,146.57004,102.77707,54.10601,4.7028701,-47.964869,-105.80385,-166.45823,-229.67735,-295.10513,-363.8684,-432.98129,-503.85133,-574.02551,-643.46849,-711.89381,-780.84036,-848.37646,-916.00483,-983.71843,-1052.2883,-1119.8593,-1186.0937,-1250.3849,-1310.6006,-1363.9427,-1411.5453,-1448.9611,-1476.5117,-1494.8162,-1504.7235,-1506.4989,-1500.2647,-1486.3611,-1465.148,-1437.3344,-1406.1099,-1372.7056,-1332.3545,-1288.913,-1242.4258,-1194.3459,-1141.7863,-1086.0947,-1028.2042,-969.57308,-908.12727,-843.7065,-776.02596,-706.40231,-636.25739,-565.27529,-492.03055,-417.11966,-341.87383,-267.38834,-192.26463,-117.67513,-45.560804,27.530389,98.384794,162.95259,216.08078,266.17821,316.87375,362.88788,407.1852,452.26696,494.51533,534.99255,572.79594,608.41758,643.10078,676.86201,707.91357,736.98519,763.96361,789.61703,814.71834,838.08125,860.33019,880.82244,897.93384,911.59844,921.79414,929.00167,934.47873,936.92456,937.37613,935.0351,930.97812,925.34174,918.2474,909.62828,900.45514,889.75703,877.99328,865.75861,852.74454,838.48199,824.71934,809.58988,793.73407,777.48397,761.25534,745.15614,729.25775,713.45014,698.42129,683.74893,668.68369,653.54329,638.2066,623.02671,607.72324,592.82213,577.84837,563.83984,550.2122,536.9857,524.28902,511.87206,499.53888,488.13,475.56775,463.65568,451.10731,438.7527,425.99598,413.54926,400.09067,387.21809,374.07873,361.58329,349.89183,337.96633,327.14144,316.25347,305.74869,294.78613,283.45735,272.55201,260.66651,249.36351,238.07059,226.05629,214.78542,202.59241,191.52765,180.38093,169.68021,158.5399,148.60655,138.8344,129.3362,119.71604,110.77468,101.45164,92.533033,84.402219,75.369039,66.814086,58.679793,50.126457,42.046567,34.088209,26.608469,18.61525,11.651544,4.3642511,-2.6304353,-9.5282733,-16.73408,-22.624438,-29.061722,-35.979855,-42.846139,-49.436987,-56.350633,-63.327628,-71.213417,-79.032026,-87.182315,-94.977036,-103.79346,-113.30474,-122.60712,-132.47363,-142.47918,-152.59532,-163.70373,-174.55056,-185.17049,-195.964,-206.42519,-217.32283,-227.71192,-238.21838,-247.03915,-256.27672,-264.34548,-272.19756,-279.28048,-285.41845,-290.90577,-295.44802,-299.26861,-302.0218,-305.02011,-305.98868,-306.36857,-306.59459,-305.04815,-302.61948,-298.76772,-294.62218,-289.17101,-283.19514,-276.31617,-268.33275,-259.6318,-250.7001,-240.7502,-229.34098,-217.67332,-205.2113,-191.92385,-178.62693,-164.32175,-149.73887,-134.92709,-120.02586,-105.50846,-90.41099,-75.481532,-60.586019,-46.345932,-32.762376,-18.812633,-5.6730031,6.694287,18.409994,28.587692,38.77089,48.260454,56.235982,63.058335,69.767112,75.002786,79.152394,82.650597,84.798423,84.654246,85.325659,84.693472,82.276045,77.68139,72.168409,66.935117,61.465577,54.932271,46.718951,37.920705,28.741834,21.028064,10.305306,-0.063552205,-11.316602,-20.43151,-28.904571,-38.781164,-49.24071,-58.690621,-67.192353,-74.485678,-81.726169,-89.568381,-96.193325,-100.63269,-105.13627,-107.94866,-111.35828,-113.63963,-113.77185,-113.20627,-111.81145,-111.43197,-110.34062,-107.14669,-102.76866,-98.750235,-94.814026,-91.23776,-85.145844,-79.520071,-72.673322,-67.614834,-61.916776,-55.527478,-48.307039,-42.742259,-37.564538,-33.338076,-27.956209,-21.751493,-15.750537,-11.83559,-7.8863007,-2.6692666,2.8454798,7.3607207,9.8485047,13.657459,17.558878,22.230588,26.495526,28.008859,30.069958,32.724668,37.358167,39.616647,41.110613,41.521513,43.701174,46.304129,47.252516,47.619186,47.266616,48.107583,49.963497,50.433928,50.460317,50.27907,51.66409,53.083104,54.888115,55.026853,54.023044,54.562139,56.64031,58.893802,59.125628,58.995312,60.602113,62.592184,65.628801,65.298997,66.897903,68.354435,70.351213,73.196282,73.286238,74.727805,75.160592,78.500029,80.597831,82.39043,84.116883,85.115353,86.940629,88.00329,88.934343,87.946176,87.722566,86.359095,84.817894,81.047206,79.268014,77.605555,76.231816,74.190838,70.189903,67.06283,64.516796,61.479355,57.334168,54.442604,50.322097,47.217242,44.244853,39.459495,34.691626,30.511821,25.055285,20.498643,16.393497,10.847759,6.3444578,1.1026464,-3.6705123,-6.9254247,-11.937549,-16.051388,-19.796139,-22.311656,-25.485942,-29.48436,-32.268127,-33.431282,-36.01935,-37.860082,-39.324928,-40.802903,-42.306892,-42.650214,-42.772371,-43.984706,-43.626643,-45.50686,-45.307586,-46.473234,-47.327451,-48.768551,-48.814183,-49.848814,-49.389185,-50.536187,-50.504923,-50.912782,-52.013852,-50.966423,-51.788924,-49.901194,-47.484713,-48.068087,-44.67022,-44.258923,-40.083895,-39.187806,-36.240348,-35.449062,-32.842151,-31.354031,-29.691638,-25.305231,-23.612424,-22.462901,-20.140207,-18.911497,-18.769762,-17.868983,-16.736257,-15.908152,-13.998479,-16.083222,-12.326969,-15.09713,-12.401705,-11.776894,-9.9458285,-9.6580022,-9.2214494,-8.5234918,-7.9101442,-7.2888812,-5.5379324,-6.9053518,-5.3251433,-6.295139,-6.3371726,-5.8380485,-3.4933044,-6.597098,-5.58937,-5.7110983,-7.0206785,-6.7342622,-9.153084,-8.8007426,-10.247829,-9.8245994,-10.144114,-13.247173,-13.981006,-15.344843,-16.445356,-18.669126,-19.797953,-19.014416,-21.439975,-19.664815,-20.369072,-19.156301,-19.459204,-19.202604,-17.644444,-17.744398,-17.514082,-17.755785,-16.832975,-17.481001,-15.380518,-15.935525,-16.68941,-15.664173,-15.290448,-15.52759,-15.809272,-17.292527,-16.220473,-17.586796,-17.774057,-18.829345,-18.556748,-19.3728,-19.578012,-19.334341,-18.510755,-18.547625,-19.76872,-17.502686,-17.42918,-15.85616,-16.435316,-15.895946,-16.234065,-16.381542,-14.539626,-13.009917,-10.710418,-8.2460239,-7.0750822,-4.1092244,-0.80227758,2.7748009,6.7305287,9.7150469,12.709154,15.896186,18.282806,23.435088,25.236188,29.692015,31.923503,32.687817,35.703999,36.352207,37.645036,37.329849,38.353729,38.193953,38.248279,36.875788,35.454762,35.677608,31.619278,28.736061,26.211252,21.863993,17.729372,14.264349,8.3406837,2.7467539,-3.509682,-11.246696,-14.748372,-24.788434,-28.571513,-37.688725,-44.205389,-51.020065,-57.412523,-64.599834,-71.326135,-77.776268,-83.488991,-91.214588,-96.009087,-102.33617,-107.74541,-112.15155,-117.21123,-125.39986,-126.71738,-132.41786,-134.24902,-136.34964,-139.2332,-137.79704,-139.34132,-138.85197,-138.33418,-137.05109,-133.70207,-132.02524,-128.51373,-124.75044,-119.0662,-111.83699,-106.77622,-96.407867,-90.161271,-80.942233,-71.995492,-62.391083,-53.26881,-43.055669,-32.501507,-21.714762,-10.213765,0.9055343,13.777156,23.140543,35.409903,45.983447,57.310548,67.645873,77.62368,87.114311,97.153395,104.77399,114.40953,123.21672,131.4124,138.5151,145.298,151.37896,156.26132,159.47912,162.88882,165.94249,167.26437,168.06962,167.13121,166.9473,167.6803,168.17369,169.62956,169.15403,168.42558,168.17335,166.32709,166.73381,164.54036,163.2923,161.25515,159.81217,157.96115,155.66994,153.21327,152.20938,150.42742,147.7781,145.64446,142.96557,140.22972,139.56677,137.17652,135.53441,133.07991,131.16418,129.24517,127.77205,126.57209,124.94069,123.22244,121.04935,118.74478,116.16566,112.77237,108.58828,104.27005,100.76482,97.269473,91.945568,87.146133,82.179935,77.52319,71.995626,65.692463,60.123752,54.124985,47.729714,41.221895,34.448318,27.512112,20.423981,14.43885,6.2439033,-0.26746566,-7.6998936,-14.792826,-21.690304,-28.934646,-35.589377,-43.134118,-49.967262,-56.901639,-63.14608,-69.810058,-75.932635,-81.103631,-86.843176,-92.452025,-97.746803,-102.86658,-107.16215,-111.04986,-114.81218,-118.22826,-120.61952,-123.85743,-125.63274,-127.79151,-129.6083,-131.3352,-131.89144,-131.81573,-132.33328,-132.36823,-131.22909,-129.43057,-128.77052,-126.19907,-124.83669,-122.54497,-119.95266,-117.84198,-115.18392,-111.42829,-108.24823,-104.38914,-100.27249,-97.192226,-93.290919,-89.510022,-85.383058,-81.844012,-78.297603,-75.22981,-71.08733,-68.072025,-65.232454,-61.6708,-59.698314,-56.735526,-54.948157,-51.966569,-50.094271,-48.137926,-46.771698,-44.418929,-42.844519,-40.796808,-38.578397,-37.193685,-35.263466,-33.583536,-32.068371,-29.926909,-27.969455,-26.865774,-26.410343,-25.050568,-24.811644,-23.579449,-22.491836,-22.170577,-21.878645,-21.390055,-21.145312,-19.947538,-19.201154,-18.082908,-17.671882,-17.074817,-16.162321,-15.176474,-13.59274,-13.153737,-12.453217,-11.480654,-10.603757,-9.8156857,-9.8150201,-8.9857422,-8.2897413,-7.513296,-7.2503009,-6.4417642,-5.2585709,-4.6457594,-3.603051,-2.903598,-2.0799045,-1.6089487,-0.19408037,0.57426611,1.8667864,2.6935196,3.6714578,4.8708088,6.3999021,7.5355029,8.4740751,9.1122965,9.6422244,10.493013,10.707573,12.132898,12.422459,13.369119,13.832997,14.835189,15.551204,15.952098,16.979719,18.055105,19.376274,20.39978,22.061713,23.223006,24.022481,25.256742,27.437389,28.660868,30.626423,32.421575,33.555026,35.049121,36.990183,38.642134,39.954067,41.482594,42.651297,42.771925,44.398899,44.519874,46.177286,47.425496,47.547434,48.580483,49.483425,50.441388,50.430034,51.917487,51.537086,52.976709,53.726836,54.185459,54.141745,53.650458,54.292063,54.299034,53.913556,53.810125,52.818218,52.545669,51.323245,50.900291,49.283169,48.228426,47.414222,46.221103,44.815241,42.950555,41.637286,40.15114,38.799176,36.89169,35.176827,32.964813,30.846411,28.587623,27.264632,24.342268,22.033579,19.248652,17.238252,14.803465,12.611681,10.612434,8.6500792,6.1002559,4.2751442,0.96924662,-0.47774019,-2.8087442,-4.8035149,-6.9880608,-8.924959,-11.173653,-13.498474,-14.877884,-17.121369,-19.155676,-20.917849,-22.651929,-24.124962,-25.000627,-27.043789,-27.757388,-29.394194,-30.460793,-30.700027,-31.965768,-32.384642,-32.962192,-33.185881,-33.145241,-33.408299,-33.704352,-33.418416,-33.459432,-33.534317,-33.956175,-34.395009,-34.332218,-34.728549,-34.620956,-34.524239,-34.841786,-34.082032,-33.893692,-33.834052,-33.122423,-33.290867,-32.405284,-32.686203,-32.263223,-32.195267,-31.958933,-32.606722,-32.16094,-31.538383,-31.544448,-32.097858,-32.764276,-31.877907,-32.414314,-32.473117,-33.150749,-34.967663,-35.833151,-37.250518,-39.955687,-40.288065,-43.783455,-46.197875,-48.857416,-51.28328,-53.02961,-56.276076,-58.013052,-59.006221,-59.452666,-59.90335,-61.178334,-61.443557,-62.352809,-62.845737,-63.239297,-63.648242,-63.766715,-63.299527,-63.410936,-64.239828,-63.788459,-62.553986,-60.871116,-59.679081,-58.579659,-55.769126,-54.45987,-51.558703,-49.942593,-46.607048,-43.552954,-39.868084,-36.528589,-32.247258,-29.106026,-25.937063,-22.338865,-17.983733,-14.496923,-9.7628074,-6.2091549,-1.0659859,3.0828194,8.3789259,12.824037,17.501951,21.519263,26.829316,30.84127,35.506247,38.939688,43.802162,48.136828,51.816738,55.006718,58.152237,61.667367,64.583171,67.721429,70.180264,71.97206,74.172373,76.04906,77.316246,78.082642,78.811501,79.49961,79.592824,79.249671,79.317595,77.872298,77.632233,75.770547,74.10929,72.469556,69.879787,67.554637,64.376604,61.766984,58.674548,55.388838,52.259917,49.175463,46.5719,42.774716,39.510805,35.703432,32.646883,29.298812,25.497794,22.370175,19.117904,16.789655,14.096498,12.310609,9.3533416,7.9156958,6.8560223,5.0902586,3.0076516,1.7008123,0.8502999,-1.1284174,-2.4017411,-3.7946258,-6.2079988,-6.7110622,-8.7599365,-10.240546,-11.17773,-13.951795,-13.598836,-14.534437,-13.547816,-14.057116,-14.11369,-12.470082,-11.294794,-10.285438,-8.8817488,-8.7655381,-6.7982958,-6.2956353,-4.847829,-3.9657579,-2.3307698,-1.4812042,0.45267517,1.2864225,3.2060551,5.016302,6.8953565,8.8754329,10.194202,10.979064,13.22864,15.058806,16.24884,18.372016,19.944023,20.963172,22.363798,23.033118,24.047993,24.35008,24.806977,26.198013,27.240181,28.104054,29.121832,28.964226,29.791175,29.899487,31.135397,30.985245,31.435298,31.41958,31.618936,31.679805,31.702596,31.591798,31.252291,31.572978,31.53274,31.876765,31.12975,31.081962,30.395042,29.960174,29.169842,28.367796,28.599974,28.413632,27.471346,27.038307,27.047707,26.693764,27.15547,28.575945,29.234254,29.572821,30.899742,30.518798,32.53003,33.060281,34.736013,36.468697,37.485915,39.198858,39.815752,42.110099,42.418466,43.555731,45.040056,46.628603,48.394891,49.595194,50.523804,52.658603,53.784034,55.353706,56.129969,57.066855,57.620021,58.652703,58.717577,58.66741,57.455683,56.199254,55.644689,54.279588,52.408089,51.144152,48.244493,45.33054,43.060253,39.640708,35.61757,32.410052,29.017813,25.419409,20.914491,15.731585,12.658456,7.5902928,4.2003183,-1.4985961,-6.2093059,-10.61739,-15.573511,-20.303518,-26.008954,-31.066633,-35.237948,-40.03258,-44.850073,-49.746335,-53.776886,-58.497491,-62.618569,-67.559337,-71.570252,-74.920864,-78.934377,-82.051721,-85.169304,-88.09589,-91.42134,-93.441133,-95.148487,-96.703146,-98.050811,-99.545684,-100.78552,-101.51599,-101.29637,-101.50981,-101.43683,-100.9288,-100.11783,-99.147799,-97.768182,-96.396543,-95.173748,-93.077041,-90.77871,-88.218475,-86.920414,-83.912154,-81.742614,-78.826133,-76.623234,-73.49669,-72.530458,-69.97689,-69.426548,-68.177375,-68.491652,-68.388336,-67.891195,-67.768224,-68.393759,-70.514377,-73.209759,-73.258947,-75.066536,-75.043453,-77.20177,-77.637284,-79.518861,-80.659349,-81.76809,-84.10994,-84.830337,-84.850561,-84.246284,-85.52259,-85.941601,-86.822334,-87.740058,-86.467372,-87.96254,-86.963465,-87.023371,-84.515647,-83.341529,-82.495218,-81.074094,-77.313576,-74.682047,-70.528487,-66.822588,-62.035428,-57.569021,-51.831381,-47.22579,-42.015665,-37.712991,-31.45597,-25.266976,-19.448918,-13.059459,-8.3273964,-3.5789362,2.8482299,9.0942307,12.813785,18.940723,24.53827,29.560313,34.897761,39.297329,43.896466,48.249014,51.859852,56.746908,59.331158,62.784058,66.087403,68.310263,71.366978,73.035852,74.611225,77.026733,77.19833,78.667761,78.480018,78.652174,77.808328,77.20285,77.379522,75.426978,74.711499,71.26848,70.162094,66.765117,65.773501,62.2717,59.87004,57.416699,53.550307,50.260143,46.349917,42.961279,39.747594,36.976317,34.085383,31.66553,28.960012,25.841841,23.366303,20.83526,18.127609,16.380154,14.99315,14.338311,13.192971,11.281338,10.725021,9.8258583,9.9743992,9.5766974,10.34548,8.9292967,9.2851903,8.6708296,7.9663652,7.8476765,7.3779488,7.9575342,7.5852956,7.8285128,7.8985832,7.5199867,8.7039096,8.9774433,10.346171,11.205872,11.739087,12.780945,13.975322,15.094988,15.347718,17.672241,18.737413,19.404044,20.413923,20.846366,20.40987,19.76047,21.177064,19.953028,20.359375,19.611437,20.707513,20.738014,20.728806,21.501385,23.1713,23.295846,24.559928,26.04831,26.806221,27.169949,28.070236,28.783124,30.427353,31.332581,32.554364,33.643508,34.692455,36.144553,36.629566,37.98729,39.255924,39.783313,41.25763,43.290304,44.077883,44.198407,45.273648,45.935419,46.937395,47.528258,47.787846,48.957556,48.891849,49.203657,49.665181,49.491933,49.929488,50.377174,51.261669,51.810485,51.09352,52.218837,50.786814,51.835385,51.414428,51.231043,50.864801,49.865949,50.387429,50.231995,50.537548,49.866465,50.506167,49.731125,50.311113,48.298445,47.809662,46.933163,46.704123,45.680901,44.409251,43.927677,43.865963,43.314886,43.277744,42.235009,42.181442,42.622049,42.870284,43.275453,42.903238,43.681174,43.273133,43.503866,43.959707,43.854364,44.862101,44.274994,45.645588,44.470158,45.007189,45.16232,44.601627,46.110872,45.568527,45.746586,45.084368,45.509895,45.282697,43.971355,43.905281,43.109057,42.311273,42.440039,39.254644,39.08538,36.636776,35.395631,33.457977,31.769388,29.789916,28.891927,26.460891,23.804561,20.719572,18.084559,15.660306,11.783347,9.9360101,6.048622,2.6137627,-0.85275575,-5.3957677,-8.6939109,-12.430232,-16.366725,-20.055247,-23.943865,-28.720582,-32.9827,-36.566098,-40.648749,-44.333337,-48.10021,-50.91382,-54.149052,-57.818624,-61.013932,-64.084195,-67.551467,-70.74268,-72.843701,-75.71923,-79.037828,-81.936953,-84.758156,-87.518855,-89.345931,-91.389843,-93.066285,-95.106917,-95.687224,-98.274955,-99.745698,-99.928425,-100.44539,-100.33702,-100.88936,-100.23593,-101.07676,-100.73281,-101.12535,-100.82607,-99.810839,-98.443883,-97.699392,-95.591253,-94.354745,-92.324743,-89.884108,-90.130928,-87.829743,-88.637987,-86.562192,-86.732144,-88.089868,-88.253817,-89.864076,-91.520935,-93.276885,-95.732058,-97.90394,-99.099866,-100.90418,-102.16617,-103.86508,-105.16137,-106.3434,-106.8428,-108.34865,-108.42953,-108.62832,-109.03187,-108.60732,-107.45924,-106.83772,-106.12388,-105.66755,-102.96763,-102.20565,-99.039963,-96.601881,-94.327658,-91.003312,-88.666384,-85.405088,-82.963217,-79.298164,-76.050484,-72.75504,-68.757863,-65.807023,-62.625828,-58.966884,-56.505137,-51.244534,-48.247626,-43.980428,-39.779013,-35.168338,-29.947246,-25.464889,-21.5102,-15.595997,-10.947679,-5.0129009,-0.80799424,3.6795069,8.2655352,11.742049,15.335387,18.705214,22.880129,26.403197,30.611087,32.699438,35.405598,36.743458,39.066504,42.42645,44.411843,46.225829,48.081301,50.015311,51.566874,52.088287,52.840618,53.335052,53.938591,54.272956,54.267286,54.262779,52.181157,51.589535,50.799577,49.91483,48.597425,47.931734,46.534469,45.319635,43.361776,41.515151,38.438067,37.915893,37.00787,35.643822,34.33084,32.394979,31.877945,30.712618,30.869984,30.676055,31.186806,31.476176,32.891212,33.971175,34.825513,35.423165,36.843051,38.853412,39.662899,40.97771,41.140358,42.465149,41.516159,40.607282,40.978512,39.220392,38.729158,37.754778,36.171143,35.683014,34.992586,34.147108,33.147217,34.388373,33.336945,33.342133,33.130868,32.925239,33.885496,33.75769,33.262113,34.107034,34.245073,33.534482,33.709844,33.624065,34.386718,35.382203,36.956727,35.542792,35.326144,35.477389,35.644544,35.481572,35.502503,35.893653,36.345584,36.566548,36.985673,36.482965,36.10266,37.203902,37.311943,39.599967,38.877576,39.772889,40.476905,41.341476,42.743578,43.978754,45.091467,46.586658,47.849631,49.235196,50.054167,50.475675,51.127176,51.244699,52.859325,53.434539,55.16782,53.77523,54.550332,54.965313,53.255609,54.633728,54.464154,56.238577,55.234259,56.354851,55.756728,56.257125,56.22633,56.903736,56.640024,56.15007,55.729395,55.867056,54.892731,54.320622,53.94402,54.059039,54.492194,54.088354,54.072783,53.347694,51.918009,51.476876,50.422336,49.704909,49.285226,49.152629,48.967309,48.158378,46.958952,46.017369,45.51338,44.85858,43.599714,43.463491,41.098056,40.211241,38.493043,37.331157,35.206632,33.533789,31.781236,30.756264,28.526364,26.568987,24.244415,22.270782,20.894339,18.728246,18.178978,15.814506,14.579399,11.470735,10.103886,7.2599973,5.2671101,2.6186842,-0.15246977,-2.653241,-7.0660978,-11.333933,-15.924475,-20.203456,-24.809026,-29.797502,-34.421864,-39.244081,-44.072935,-49.828529,-54.328573,-60.414017,-64.117355,-70.389213,-74.199317,-79.335478,-81.663902,-84.824486,-87.888319,-89.751196,-90.670245,-91.124002,-91.248627,-90.743599,-89.85398,-89.191131,-87.495601,-86.572256,-84.830145,-82.151829,-79.736747,-76.25033,-72.763951,-69.095526,-65.541396,-60.24774,-56.28951,-50.784128,-45.822171,-40.033803,-35.205484,-30.300473,-24.794991,-19.338678,-13.138694,-7.4597975,-1.941941,3.1050804,9.7322843,14.622243,17.947966,25.400943,27.866662,34.617856,36.766191,41.521448,43.66769,47.481693,49.36786,51.978048,53.172025,55.466334,55.796702,56.45779,55.95017,56.807618,56.5212,55.84652,53.751623,51.89814,49.191857,47.09225,43.439719,40.832106,36.651172,34.231611,30.930974,26.94501,21.774764,15.926263,11.156056,7.1726095,1.6882335,-3.2763464,-9.4577537,-13.682333,-19.820211,-24.82661,-31.176256,-36.150576,-39.730584,-45.034075,-48.006602,-51.960962,-54.624099,-58.757198,-60.721076,-62.467322,-64.142758,-65.920924,-67.217274,-70.34554,-72.722504,-75.526249,-77.737443,-79.63295,-81.298284,-83.471801,-85.655508,-87.23144,-89.18044,-90.77123,-91.614112,-93.220067,-94.55362,-94.854383,-95.456307,-96.491373,-98.062854,-99.555013,-101.09116,-101.51762,-101.79982,-101.65452,-99.648651,-98.751191,-96.541101,-94.719834,-92.260549,-88.972766,-85.77537,-81.632417,-79.368018,-75.183802,-72.798367,-67.755671,-63.934564,-59.678396,-53.233322,-48.98645,-44.14739,-41.255688,-38.287011,-34.915295,-31.200093,-25.437971,-22.376009,-18.245567,-14.994917,-11.44968,-7.7681597,-3.2514131,1.7643341,6.400476,12.034255,17.176698,20.775064,24.673491,28.327621,31.261733,35.181117,39.014958,42.568125,46.025934,46.950084,50.161455,51.139657,54.435666,54.461229,56.78218,57.606873,59.12615,58.457747,59.427436,58.664368,58.302324,58.473756,57.082427,56.829777,55.823812,53.994122,53.181152,50.417418,49.156152,47.986013,46.807463,45.538366,43.535266,40.931047,39.543847,38.832712,38.343936,36.871506,36.644364,35.122557,35.249535,34.310276,33.185171,33.271999,32.694286,34.238326,33.254341,35.325117,35.133807,35.376974,34.4549,35.606678,34.994384,34.800553,32.86823,31.853573,30.494494,29.714894,28.847137,28.126913,26.676536,25.719397,24.255673,22.935135,21.657229,19.045284,18.199761,16.316391,14.932871,12.723407,11.013937,8.7177498,6.0480587,3.8152774,1.6433524,-0.083971688,-0.96848893,-1.7695835,-3.1023858,-4.782596,-5.6963553,-6.7444513,-7.2343987,-7.9847135,-8.4930773,-9.0235959,-8.8870015,-9.3606627,-8.4470358,-8.2126517,-6.6161189,-6.9321641,-6.4248909,-6.1962551,-7.7657865,-7.9901404,-8.9378562,-7.4937832,-6.7510912,-6.405603,-6.3911266,-6.5890722,-5.8055326,-4.8518334,-3.6750775,-2.2729308,-0.36766496,1.3976308,3.2996409,4.9287262,5.4299039,6.9789732,8.5360861,11.306973,12.927712,14.60968,16.413779,18.121089,18.864614,20.59478,21.646318,23.161628,24.806584,25.230862,27.02217,27.283275,27.84536,28.216442,28.058626,28.02754,28.239625,28.690244,27.413743,27.434548,25.412789,24.710112,23.475138,23.387568,22.365193,20.628277,19.26105,17.565331,16.49892,14.737562,13.891259,12.536135,11.251193,9.7255151,8.2578169,6.4171346,4.7486235,3.3635596,3.0287106,2.0694587,0.46217086,0.36761311,-0.84628773,-0.58373942,-1.0870545,-2.1271418,-2.1422562,-1.5070941,-1.5423864,-0.55631877,-0.001118185,0.57332859,1.6120022,2.4804689,4.2542614,5.6340426,5.9505927,7.9397816,8.4973774,11.323226,10.956758,14.197377,14.91466,17.67159,19.619252,21.264299,22.301677,23.373943,25.252786,28.612051,29.050237,31.8667,31.408481,33.303244,33.394726,34.14084,34.392459,34.264457,34.596071,34.379983,34.61253,33.231136,32.022953,30.33262,29.086539,28.291339,26.179822,24.003016,22.070746,20.196358,17.788511,15.20314,12.365815,10.247324,6.4754966,4.0069962,0.37912653,-2.6160918,-5.9068987,-8.9029531,-11.976314,-15.118443,-18.318955,-21.671772,-23.616274,-26.746267,-28.869695,-31.04011,-34.104978,-35.394699,-38.256722,-39.610929,-41.423242,-42.640079,-44.389796,-44.845801,-47.118605,-47.358681,-48.4927,-48.175532,-49.085144,-48.409371,-48.646022,-48.409322,-48.173945,-47.162616,-46.916666,-46.492534,-44.375538,-43.821223,-42.185986,-41.316407,-39.728037,-39.990183,-38.346138,-38.409948,-35.876052,-35.664099,-32.769898,-32.972925,-31.831073,-31.381508,-30.800419,-30.109846,-29.052581,-29.120969,-28.330758,-29.491061,-30.445682,-32.682057,-33.300351,-34.520916,-35.207228,-37.31448,-39.389042,-42.275625,-44.171012,-46.436824,-50.165188,-50.795173,-53.306736,-54.958517,-56.56594,-59.141653,-59.526398,-61.04681,-61.407313,-61.787943,-61.516861,-60.616295,-60.013717,-57.954429,-58.073026,-55.925877,-54.216442,-52.806769,-51.532538,-48.508371,-45.53241,-43.155204,-40.517943,-37.638239,-34.964641,-31.081349,-28.703729,-25.730191,-22.823482,-19.295087,-15.527033,-11.620728,-7.5994709,-4.0297287,0.64726602,3.9822468,9.4879625,13.013619,17.30552,21.27377,25.644251,29.125304,32.785025,36.089709,39.773872,43.27724,46.833984,50.882627,53.776429,57.779889,60.834022,64.374546,66.488515,69.296598,70.989129,73.500054,75.738593,76.344907,78.1883,77.543686,78.132531,77.941984,77.497834,77.942589,76.240222,74.767294,72.903789,72.096701,70.173318,69.017159,66.928436,65.184179,62.195234,60.703596,57.004361,54.061414,50.755197,48.411047,45.774497,43.279202,39.287494,35.009773,32.805406,28.228143,26.621501,21.782227,21.573271,17.67689,17.792942,14.994376,14.584456,11.703351,11.344869,10.633483,9.9344466,9.5654352,7.9709411,6.8688262,5.743857,4.6212896,3.227515,2.7131636,2.1263362,0.93926195,-0.27417458,-2.7185783,-4.4147436,-5.4711022,-6.2150113,-6.4853279,-7.8689807,-7.1999116,-8.6234443,-8.7380223,-9.4707939,-10.053349,-9.3126975,-9.0344798,-7.8583279,-7.7325094,-7.8468378,-7.7815897,-7.6561746,-7.7996735,-7.1766461,-7.2311796,-6.6549407,-6.6575703,-6.1425461,-6.0795981,-6.7205439,-6.4057481,-5.9791012,-6.1083972,-4.9506242,-5.6232301,-6.3697021,-5.8538211,-5.9409449,-5.6673474,-5.4125329,-5.168792,-4.9822588,-4.4166812,-4.383985,-5.9025085,-6.0507139,-7.6105421,-7.3958769,-7.8832224,-8.5479821,-9.8704166,-11.091653,-11.481229,-12.092657,-12.981113,-13.883669,-14.589439,-15.174923,-15.293866,-16.815052,-18.152969,-20.274853,-20.944222,-22.330837,-22.990134,-24.613427,-26.450001,-27.334452,-29.412922,-30.841197,-33.596187,-34.881654,-36.412047,-37.472597,-39.297209,-38.792165,-40.365793,-40.719213,-39.687486,-39.676624,-38.726251,-38.098269,-36.573562,-36.906318,-36.599797,-36.360962,-35.107538,-34.236038,-33.141069,-33.649766,-31.820445,-32.007536,-31.738038,-30.981551,-31.098659,-30.546418,-30.85248,-29.950921,-30.933839,-31.285388,-33.383121,-33.796849,-35.357282,-35.741495,-36.890492,-38.992612,-39.419617,-40.863926,-42.452268,-44.840815,-46.867599,-47.528932,-49.393556,-50.093356,-52.73497,-53.364209,-53.994936,-55.733878,-55.570604,-56.792987,-57.551455,-57.266956,-58.773339,-58.844136,-60.120149,-60.047629,-60.097989,-58.947044,-59.983371,-58.378824,-58.97542,-56.180014,-55.112069,-53.541105,-51.776527,-50.621795,-49.128254,-46.768087,-45.258921,-41.274085,-37.247008,-32.193154,-26.862539,-20.473777,-13.253464,-7.3446221,1.9046857,7.9901092,17.541505,27.024261,37.129434,44.826427,52.701672,60.452745,68.978277,77.267175,85.407741,93.413885,101.36378,108.06333,113.49212,118.97052,124.27932,129.41937,134.29068,138.66246,143.1884,146.69692,149.40612,150.79108,151.96556,153.17453,153.91848,154.71977,155.54683,154.5453,152.50033,150.8202,147.79955,145.22546,142.91586,140.11258,137.92071,135.44133,131.87457,128.76002,125.30693,122.27367,120.45805,115.85378,113.05818,109.27731,104.55384,100.7905,96.846236,93.825984,90.944982,87.560317,84.970522,80.717293,78.976712,76.258041,73.834427,70.102533,68.483127,65.192407,63.808412,61.490327,59.025919,57.233055,55.15894,54.183614,52.969024,51.600678,50.466051,48.703495,48.629386,47.337011,45.966875,46.203044,45.587044,46.93062,45.562738,45.92539,45.158517,46.815914,46.207858,46.270948,46.955469,45.801309,45.013052,44.167191,41.633422,41.087898,39.425328,38.078136,35.614106,33.120653,29.339793,27.177971,22.133027,19.241859,12.416814,7.5739085,2.1040409,-3.595172,-8.3058422,-13.279135,-17.880255,-20.734466,-25.184815,-28.743529,-32.404803,-34.946394,-37.338852,-40.463575,-41.659368,-46.165705,-47.70382,-50.628681,-53.53952,-58.437271,-61.113798,-62.867105,-64.895359,-67.349907,-70.62099,-73.705077,-76.194807,-79.168142,-81.923676,-84.249637,-86.437874,-88.540201,-90.171521,-92.91009,-94.294472,-97.394362,-98.9939,-101.73285,-103.13945,-104.68219,-105.69627,-106.59798,-107.21377,-108.54656,-109.96352,-109.82927,-110.70547,-110.2171,-110.46784,-110.27555,-111.14638,-110.8518,-111.83703,-111.85843,-112.12006,-113.10075,-112.69733,-112.91551,-112.80516,-112.8977,-113.59046,-112.52453,-113.14423,-111.40543,-111.50551,-110.54429,-109.41251,-108.69514,-106.52264,-106.5665,-105.7928,-104.41862,-103.51378,-101.80808,-101.75547,-99.88842,-100.07411,-98.239677,-97.735651,-96.385846,-95.675718,-94.877406,-92.757966,-91.34677,-89.316278,-87.76911,-85.345396,-83.022914,-80.779972,-78.369358,-76.387174,-73.283641,-70.517354,-67.651006,-65.408981,-62.179219,-60.400722,-57.299248,-54.876445,-51.701158,-48.705281,-45.484122,-42.093122,-39.798014,-36.638461,-33.66633,-30.443032,-28.075553,-24.077946,-21.507766,-18.052762,-14.525947,-11.577251,-7.6659498,-3.2270128,-0.57167567,3.9090843,6.8509274,9.8393194,12.888759,16.070639,18.83931,21.811921,23.974249,26.512975,28.217565,29.526289,31.586547,33.422174,34.680749,37.259955,38.799685,40.034125,42.197321,42.918483,44.855965,45.604044,47.396263,47.933723,49.168516,50.12324,51.085304,52.469725,53.416271,54.816009,55.3334,56.933847,58.066635,60.394263,62.3858,64.247538,65.797521,68.395443,70.391347,71.436688,73.77517,74.975371,76.991057,79.466832,80.62029,81.839546,82.68717,83.489968,83.25988,84.815876,84.803819,85.124037,86.024064,85.031546,86.204179,84.956301,85.166624,83.773151,83.409835,82.928672,82.448171,81.213007,80.161726,78.568106,77.506169,76.39679,73.480736,71.755357,69.235916,67.327842,65.39813,62.550179,60.602953,57.918878,55.435052,53.191483,50.802279,48.239246,46.277518,43.278468,42.326112,39.527561,37.214836,34.242233,32.215138,29.580238,28.103526,24.96754,23.726722,21.036776,18.538793,15.703842,13.408732,10.300534,8.908458,6.8057071,4.7466373,2.242287,-0.11394862,-2.3674109,-4.1228326,-5.335626,-6.9671176,-7.44292,-8.4248417,-9.5793623,-10.487248,-11.517521,-11.540033,-12.440066,-13.221933,-13.369663,-14.375163,-14.55976,-15.725265,-15.731555,-15.859369,-17.1651,-16.500555,-16.599604,-17.473911,-18.201258,-19.650488,-20.35722,-22.562838,-23.819158,-26.699208,-28.335584,-30.787532,-33.678307,-36.744169,-40.694491,-43.46767,-47.417181,-51.114115,-53.553247,-56.86742,-59.662995,-61.881508,-65.283127,-67.072494,-69.269074,-70.805467,-72.642501,-73.660632,-75.31098,-75.618612,-77.56755,-78.549158,-80.005585,-79.173243,-79.482873,-79.099827,-78.769759,-79.423193,-78.020743,-77.861815,-76.600187,-76.039132,-73.048542,-73.008241,-70.114766,-68.292585,-66.209869,-63.350798,-61.237478,-57.267185,-54.644411,-50.310543,-46.240287,-43.333116,-39.876242,-35.502821,-31.837897,-26.619168,-22.911776,-18.50323,-14.179187,-10.556918,-5.4763856,-1.2066849,4.0874108,8.5219659,13.375432,18.28031,22.42554,26.624068,30.677826,34.797948,38.699723,43.177348,46.502124,49.305535,52.402077,55.879289,58.873695,61.831983,64.006034,66.719259,67.021645,68.806478,70.070178,70.825606,70.676979,71.836432,71.411363,71.312689,69.994528,69.647667,68.096936,67.7477,64.934512,64.125377,61.929636,60.364603,58.218848,55.970088,54.166941,51.756755,49.869484,48.342349,46.559327,44.861965,42.862562,40.619739,39.347992,37.635346,35.280584,34.579104,32.586957,31.549608,29.089813,26.800305,24.71275,23.392681,22.654533,21.283803,22.024345,20.585723,20.303373,19.899499,19.422528,19.301792,19.03556,19.149658,20.048359,20.45162,18.94719,19.563093,18.314805,20.223169,20.294888,20.627903,20.093799,20.273805,19.167602,18.199383,17.048034,16.597538,15.285917,14.77881,13.677657,12.041449,11.010193,8.9930875,8.0652028,7.6846255,6.7727014,5.7000145,4.5231895,3.2337574,1.8845249,-0.16872679,-2.4152012,-4.2874706,-5.2098967,-7.0956511,-9.0936144,-10.701855,-13.404815,-15.677846,-17.875706,-18.117323,-20.220462,-20.758838,-22.376309,-23.915076,-24.469257,-25.291419,-25.835104,-25.235791,-25.855412,-26.172581,-27.091288,-27.366595,-28.882742,-28.026873,-28.746569,-27.715336,-27.942507,-27.030955,-26.360355,-26.554996,-24.410311,-23.891615,-21.696896,-19.630938,-16.31105,-15.368701,-13.008562,-11.58495,-7.4762492,-6.1389827,-2.9210678,-0.93357079,1.548698,3.3258339,5.1868068,6.5412188,7.616923,8.354159,7.8116162,10.101408,9.4147151,9.3781106,9.174297,7.7543289,7.1552042,6.5293832,5.0945848,4.6704077,3.2483716,3.3395909,1.5852439,1.054201,1.1615304,1.1592309,2.1346012,3.1870766,4.6196908,5.8139589,7.0202944,9.869542,12.68327,16.070819,18.163757,21.577166,25.35636,27.583779,31.354572,34.771501,37.826957,40.366343,44.255048,46.827131,49.844215,51.944051,54.213646,57.214767,58.933733,60.913532,61.355862,62.103593,62.716192,63.413421,62.735663,61.742848,61.435071,59.41028,57.222405,56.858148,55.95203,53.725191,54.194998,50.105647,51.787974,51.985464,51.474579,49.277759,47.931309,46.918122,42.74656,40.808627,35.494414,33.323138,29.200664,24.955248,19.971865,15.431825,11.251696,6.9555323,1.7438613,-2.6553398,-8.6490447,-14.735631,-20.891002,-25.250477,-30.824435,-34.606747,-40.055345,-44.918039,-49.109213,-54.634782,-58.539395,-61.302213,-66.305603,-70.439166,-75.685807,-81.773539,-87.270271,-92.808936,-98.13876,-103.635,-106.64444,-112.23139,-116.70993,-121.12411,-124.26817,-125.72507,-124.89187,-124.8531,-121.47404,-122.82586,-119.48313,-121.61153,-116.2385,-116.5454,-113.55791,-112.46319,-110.90377,-112.52693,-113.06663,-113.63081,-114.47008,-115.84907,-116.58198,-116.1303,-116.1919,-113.94023,-114.51051,-110.9273,-110.91168,-107.85635,-106.07161,-100.99735,-97.815076,-93.149944,-88.916687,-86.10225,-82.772826,-79.475554,-75.876041,-71.90086,-67.149344,-63.764422,-59.184167,-55.224385,-49.214118,-45.091424,-39.506853,-35.865159,-31.707338,-28.387469,-23.284616,-20.550461,-16.073855,-14.710412,-12.157593,-11.905902,-8.7917898,-7.5437407,-4.8681427,-2.9736996,-0.30049154,1.1061983,1.2409804,0.85852823,1.192562,1.0995553,1.0155593,3.2051217,2.5441966,4.3761177,6.0922972,6.7707043,10.326324,9.7839505,10.355041,10.496647,11.545828,12.202802,10.320749,11.235472,10.253821,12.372366,13.128761,13.415506,14.234297,15.823045,17.175584,16.697608,16.662567,19.803031,23.071273,26.434912,29.898489,34.209007,36.596299,43.956699,46.338595,52.696378,57.028676,61.165197,65.511718,69.609525,69.703287,71.848788,72.041964,73.063396,74.522123,74.090807,74.630261,73.279779,74.129913,72.650499,74.101211,75.739564,77.854733,81.289532,82.805535,83.785461,84.870205,85.190275,86.979604,87.065916,90.065206,87.271184,87.287514,85.27493,82.340517,78.629495,77.873177,74.95832,74.012354,71.19652,70.409156,69.226539,67.101991,66.437722,64.847491,64.614615,62.001362,62.65758,61.878393,62.742795,59.102848,60.044555,55.801539,55.471662,53.582411,54.244325,52.079407,52.524059,51.7178,51.673033,50.038184,50.027449,49.005493,49.029713,48.204495,48.404678,47.919087,47.736231,47.355798,47.170234,46.262416,44.577847,44.142966,44.914088,46.421682,46.517482,47.103765,47.168253,46.703717,46.978123,46.317335,46.259745,46.427884,45.865049,46.621798,46.946267,46.932841,47.000363,46.078418,45.029169,44.24443,43.407643,42.982068,41.894785,41.272169,39.575163,37.986791,36.571396,35.310555,34.111207,33.444074,31.315729,29.673414,28.297174,26.111743,25.085781,24.301267,24.549366,23.333333,21.512136,20.254413,18.629608,17.948513,17.858943,16.623334,16.738805,15.204001,16.046,14.700551,15.788754,14.711323,15.960082,15.562008,16.810622,15.353109,16.479112,17.698532,15.909408,18.759686,16.754493,19.00323,18.375989,17.220091,18.452779,17.039639,17.340379,17.983186,18.218606,17.336183,16.515378,15.682494,13.841264,12.290843,9.7138021,7.385604,5.2860431,2.9854767,-0.73672959,-3.5729659,-7.2019883,-9.9638717,-13.31376,-16.626677,-20.01915,-22.782352,-25.854748,-29.578723,-32.633477,-36.492261,-38.981476,-43.507518,-44.905935,-50.622165,-52.014961,-57.503483,-59.968739,-65.565141,-67.685775,-71.819312,-75.155987,-79.747891,-82.425881,-87.011866,-88.910998,-92.769194,-93.938628,-98.348172,-99.821173,-103.37598,-104.22621,-107.87274,-108.96478,-110.61634,-112.45871,-112.8581,-114.02445,-114.55787,-114.59397,-115.50285,-113.7326,-113.87601,-113.01385,-112.43753,-111.11588,-108.93692,-107.90735,-105.66763,-104.77284,-103.11953,-101.50975,-97.76442,-96.196533,-91.956309,-90.063686,-86.122207,-84.458893,-80.154633,-78.322855,-74.876984,-71.761105,-69.845153,-69.202691,-68.399277,-68.820335,-68.803562,-68.654961,-68.847996,-70.110296,-71.542824,-74.409032,-75.380605,-78.800739,-78.962928,-80.431908,-81.106273,-82.380216,-82.180431,-82.03114,-82.080853,-81.153192,-79.336667,-76.925509,-74.564324,-71.510382,-68.964013,-63.624303,-59.605505,-55.561801,-49.974474,-47.054079,-38.449773,-36.211666,-29.389686,-23.895486,-17.794263,-10.972623,-3.4919462,1.928377,7.4060111,12.737137,18.89641,23.543708,29.49566,34.292489,39.91219,44.899526,49.6476,54.234887,58.6114,62.525712,66.835295,71.296151,74.600523,78.223251,80.670805,83.864562,85.788166,88.76107,90.793233,93.110193,95.204723,96.541126,97.323366,97.935677,97.92184,97.831988,97.569411,97.003554,95.842467,92.733242,91.54395,88.848598,87.691429,84.930423,83.247569,79.282899,76.145271,73.564328,69.358829,66.169024,61.683976,58.81445,54.814406,50.561257,47.308613,42.71313,38.636903,35.379392,31.305631,28.843641,24.00332,21.300286,18.115059,15.577273,12.809071,11.175698,10.073544,9.681808,9.5339068,10.712705,12.618696,14.11169,17.352031,18.865078,21.516558,23.702312,27.107572,28.961956,32.140239,33.611514,34.566065,35.503503,37.134197,37.355867,38.992495,38.828559,39.662531,39.016072,38.740066,38.201686,37.995345,36.665587,37.179923,35.858409,35.34932,34.720189,33.415322,31.694884,30.617023,28.671016,28.313658,26.313633,26.041058,24.922449,23.426799,23.027128,21.479176,20.311779,18.358701,17.857259,16.663905,14.255492,14.266489,11.57202,10.643291,8.173036,6.9547397,3.9513908,3.1003327,0.14907585,-1.5307974,-4.2349651,-5.0314116,-8.0866107,-9.6826008,-12.228397,-13.667867,-16.196552,-17.218017,-19.706606,-21.662761,-23.525837,-26.112211,-27.47119,-29.737576,-31.537983,-33.374736,-34.464682,-36.017588,-37.492458,-39.228796,-40.751588,-42.575557,-44.004708,-44.962324,-47.836057,-48.28512,-50.556228,-51.858407,-54.367382,-54.846315,-57.217845,-57.871563,-60.356685,-61.314604,-63.023262,-62.926745,-64.054982,-63.616403,-64.671465,-63.928101,-65.608449,-65.862078,-67.066902,-66.203245,-67.759536,-68.651874,-69.981014,-71.310984,-74.52688,-76.772944,-77.500457,-79.965196,-81.078386,-82.845518,-84.156025,-86.867838,-87.549972,-89.207967,-88.628214,-89.111784,-89.891665,-89.005116,-89.212934,-90.230611,-90.315264,-90.743108,-91.014168,-90.255878,-91.210979,-90.640576,-91.570259,-90.588764,-89.971407,-89.606657,-88.282459,-86.860514,-83.733665,-83.102882,-80.225423,-76.261066,-73.271229,-69.448932,-66.186112,-61.736878,-58.553393,-54.627767,-50.500565,-44.9067,-40.887165,-34.568845,-28.9965,-21.471338,-14.845102,-7.7416391,0.76490467,7.8743278,16.274409,25.231338,32.784846,42.208464,51.08093,59.053217,69.037525,77.804209,86.705409,94.548114,103.77696,110.7358,118.59256,124.574,132.43936,138.5037,143.0686,149.5205,152.75254,158.14546,160.02179,164.73656,165.26127,167.92786,167.77021,169.02698,168.78259,167.48526,166.08525,164.60553,162.50076,159.045,155.62409,151.96313,146.90753,141.7939,136.34369,131.29557,123.73385,118.28781,109.97788,104.51007,97.72049,91.206879,84.722405,78.398549,72.94268,67.657786,62.28374,57.112032,51.615939,48.480297,43.138306,40.345008,34.533932,31.430109,27.994144,25.311965,21.0296,17.966151,16.21967,13.829908,11.127813,10.245404,9.0131218,8.2487329,8.6258087,9.4156165,10.920998,12.50991,16.375109,19.248284,22.140798,24.589405,27.756657,32.917928,35.5525,39.848957,43.162181,47.591706,51.666305,57.306747,61.232861,67.273547,71.365981,76.979235,81.967119,86.269077,91.286472,94.671423,98.416152,101.57462,106.04011,109.08552,109.60512,110.98751,110.98903,112.33562,111.86704,112.48985,111.43702,111.51032,110.04312,110.06317,109.7691,109.34738,108.24822,108.27169,107.49437,106.27285,105.23758,104.47914,103.74541,102.0702,101.30607,98.736554,99.492609,95.173923,92.910661,88.760282,86.943818,83.616109,81.404475,76.850285,73.185934,67.526952,62.346614,57.37107,51.05564,45.129298,38.322833,32.749708,25.402961,19.690155,11.24079,4.4555091,-3.9574673,-10.758088,-17.875796,-25.124336,-32.380121,-40.376226,-47.857827,-54.956671,-61.756125,-67.78956,-74.395439,-79.768392,-87.383954,-92.27985,-98.907419,-103.57546,-109.04171,-114.6592,-119.36882,-123.81846,-128.2338,-132.6154,-137.26562,-141.33952,-145.05264,-148.39785,-151.5263,-153.86973,-157.29535,-159.37742,-161.98922,-164.40668,-165.61119,-167.26446,-167.59472,-169.53635,-169.91506,-171.36361,-171.59732,-172.9981,-173.43497,-174.39669,-174.19935,-174.19359,-174.22744,-175.81776,-176.22776,-175.94013,-175.1833,-174.12785,-174.12455,-172.39397,-171.07441,-168.36269,-166.07894,-163.75394,-162.54596,-159.57283,-158.00626,-156.25446,-155.52433,-153.68042,-153.58578,-151.96135,-151.8438,-150.07367,-150.70031,-149.37285,-149.3522,-149.20197,-148.9278,-147.64648,-147.38955,-146.0061,-145.35691,-145.06142,-144.27523,-142.95368,-141.20457,-140.10267,-138.14876,-135.85576,-133.30741,-131.34712,-129.09914,-126.43896,-123.74386,-120.20176,-115.97772,-111.92225,-109.16797,-105.22256,-101.21237,-95.788016,-91.39844,-85.527547,-82.251817,-76.244432,-74.084109,-68.402254,-65.493488,-60.02498,-55.631813,-50.895172,-46.034942,-40.668768,-37.152027,-33.361292,-29.207712,-25.381305,-20.941858,-17.423039,-11.520039,-10.224113,-3.413598,-3.4668876,4.1510376,5.880737,13.400677,15.986688,18.13819,24.636545,22.850415,29.12992,29.771708,32.067905,32.988071,34.224354,36.665206,34.61384,34.405234,32.360227,33.194785,30.815459,30.364534,28.698268,28.869256,25.422812,24.945018,23.35878,20.776016,19.039376,19.361081,17.697043,16.703831,12.948271,11.844119,8.468735,9.1483244,6.1309384,6.3195035,5.8163521,6.5810931,6.0874886,6.1197594,5.8309398,6.6638061,9.5396946,12.45143,14.678355,17.635606,20.393185,24.334702,27.355135,30.648229,33.710292,38.526398,43.299501,48.378363,51.961257,57.863465,63.442505,68.348707,75.813889,80.303391,88.023444,93.31448,100.90349,106.28782,112.88664,118.50703,124.94754,131.10455,137.83415,144.14573,148.96136,155.13685,160.60375,166.69629,172.22257,175.94465,181.38872,183.65237,187.98459,191.23456,193.37551,195.14916,197.8441,198.39292,199.0471,199.29855,199.41986,198.66292,198.5578,196.2029,195.64873,191.70388,190.36262,186.28629,184.40775,180.22365,178.16607,173.49172,169.48035,165.67468,160.13307,155.43393,150.62953,147.41869,142.37587,138.66133,134.43226,132.42904,126.93957,127.76421,121.86237,124.12647,118.05503,120.35437,114.82414,114.20435,113.95209,108.87344,112.74556,108.67748,108.17563,106.33636,105.32011,104.08795,100.792,102.56632,100.98696,102.66229,100.54988,102.2195,101.15573,101.33878,99.533565,101.26852,99.426209,97.694017,96.917719,94.64618,91.134665,87.872249,84.298398,82.101167,77.928427,76.17528,70.71281,68.411797,63.44997,58.446815,53.485374,49.414119,44.195683,39.347796,34.736114,28.275769,21.457774,15.327742,7.9195797,2.2762064,-5.5704222,-11.390906,-18.453451,-25.603118,-33.541555,-40.080753,-47.874759,-53.082008,-60.362009,-66.729593,-73.881144,-81.055266,-87.153554,-94.080308,-99.768964,-105.87175,-110.1793,-114.90006,-119.03919,-123.14187,-127.44463,-130.39051,-134.20149,-136.30244,-139.11273,-140.09674,-142.35972,-143.23765,-143.9982,-145.06493,-142.84924,-143.41858,-141.76975,-140.99975,-138.42125,-137.69107,-134.95778,-130.88321,-130.02606,-126.03899,-124.10426,-120.50949,-117.6967,-114.69077,-112.31549,-109.36082,-106.86434,-104.52292,-102.1982,-100.95315,-98.685485,-96.047139,-95.193514,-91.780581,-91.002173,-88.737844,-88.05762,-86.10722,-86.075325,-84.912374,-85.132306,-84.334034,-85.265751,-85.545774,-87.879364,-88.149952,-89.203886,-89.860851,-91.297191,-92.993189,-93.696175,-95.715809,-96.733918,-97.654212,-98.401245,-98.801972,-98.687325,-98.429813,-98.695287,-99.15872,-98.975479,-98.688035,-98.596856,-98.6317,-99.188925,-99.786974,-100.26569,-100.55938,-101.18092,-102.27264,-101.33911,-101.01597,-99.772659,-99.466318,-97.752499,-96.898649,-95.710023,-92.92123,-91.987342,-89.874814,-88.25835,-86.382617,-83.936916,-82.99478,-80.423359,-78.5129,-75.853545,-73.239596,-71.028202,-68.538681,-65.556452,-62.835996,-60.123249,-56.430699,-53.598969,-49.555409,-47.043193,-42.713917,-40.656672,-38.418507,-35.548221,-31.964046,-28.793931,-25.654787,-22.760851,-19.856551,-16.049837,-13.807782,-10.202233,-7.9150684,-3.153204,0.47598199,3.6849193,7.4058087,9.9953649,13.501166,15.709329,19.470913,22.633894,26.12766,28.459935,31.307635,33.998199,35.965108,39.250954,42.289313,45.381198,49.467941,52.84773,56.83696,60.471137,63.592294,67.304997,70.825644,74.969774,79.139522,82.030969,86.079767,90.037405,93.275603,96.197023,99.42661,102.23268,105.77727,108.024,109.8233,112.26376,114.36866,115.91933,117.68834,118.63081,120.0365,120.64125,121.63775,121.82548,122.19881,121.4789,120.4127,119.95305,118.4684,117.84054,115.60607,114.80179,112.3081,110.35558,107.3822,104.92237,101.80235,99.71462,96.400956,94.134544,90.22607,86.528336,82.747255,78.747103,75.191895,71.604065,68.384308,64.641892,61.353325,57.467305,53.093839,49.616066,45.969757,42.165137,37.992118,34.9787,31.595988,27.0711,22.733873,19.185486,15.104077,12.314149,8.0474363,6.2419786,2.2717956,-0.67781153,-4.1648835,-6.8342506,-9.6423303,-11.21125,-14.91256,-15.435146,-18.763453,-20.583128,-23.273684,-26.213609,-27.769604,-29.496137,-30.276229,-31.43061,-33.346491,-35.234691,-36.399544,-37.381709,-38.228053,-38.092909,-39.4649,-38.249206,-39.882456,-39.062129,-43.047994,-43.479654,-45.384814,-47.480875,-48.973216,-51.018475,-52.445492,-54.157611,-57.207403,-58.716569,-60.647286,-61.920156,-62.256848,-63.463868,-62.916931,-64.612282,-62.998284,-64.178338,-64.128134,-64.014213,-63.67812,-62.03455,-61.727385,-60.42776,-60.683249,-59.322735,-58.287133,-55.852568,-54.665864,-52.531909,-50.790783,-48.980599,-46.77113,-44.887173,-42.516182,-38.965033,-36.701315,-33.627626,-31.073472,-27.592943,-25.68249,-23.720721,-21.267933,-18.454781,-16.512097,-14.756279,-12.737204,-11.07142,-8.4766076,-6.4528487,-4.5414679,-2.2598004,-0.42514875,2.3719594,4.1241644,6.2479873,8.3447507,10.291483,12.396004,13.838411,15.756639,16.874191,18.970326,19.703477,21.404491,22.186885,23.257229,23.771313,24.924695,24.338124,24.387824,24.489138,24.420072,24.769081,25.577293,25.834135,25.442608,25.28012,25.163835,25.86922,24.386757,24.447971,23.975356,24.183861,23.05135,22.104592,21.028124,20.682292,20.348209,20.011674,20.281704,19.966448,19.688845,20.17549,19.476166,19.744937,19.617738,20.683088,19.813637,21.304257,20.444031,21.20497,21.072847,21.479115,21.444384,22.102166,21.361585,22.755586,21.720855,22.572916,20.955725,21.162615,20.057232,20.666229,20.617169,20.696053,20.143563,20.440833,20.067506,21.129272,20.94872,21.502018,21.275231,21.443259,22.3072,21.111054,21.321353,20.032763,20.506851,20.070922,19.8522,19.638109,18.475808,19.290168,18.940733,19.893735,19.014162,20.361202,19.320372,20.018831,20.229584,20.249906,20.943728,20.772282,21.217414,21.250569,21.338423,21.304696,21.788896,21.85781,20.632436,20.279778,20.168466,20.447009,20.064525,19.884358,19.905359,19.542721,20.066766,19.099051,19.815243,18.636592,18.985544,19.079554,18.733098,17.871831,16.811839,16.212567,16.176989,15.028447,15.660297,13.795367,14.068196,13.277435,13.270418,12.318198,11.490498,10.5179,10.18355,8.5930304,9.14221,8.2681244,8.6380012,8.077005,8.2124488,7.4692851,7.0556444,7.3063353,6.0027432,5.3565695,3.604778,4.2785856,3.3456078,4.1495684,3.729869,5.6549568,5.0119572,5.9197902,5.0649337,5.6513179,5.3685616,4.327827,4.6634278,4.2470627,4.54549,3.7726964,5.1752598,5.65307,6.8859414,8.620133,8.7156902,10.359441,11.5154,12.873772,14.071187,15.860035,16.553693,18.35195,19.560682,21.153551,21.991506,23.179023,25.00111,25.879219,27.889572,29.002827,31.203634,32.188945,33.938417,35.287272,36.764231,38.447741,40.044898,42.349204,43.681985,45.552488,46.536646,48.239777,49.116793,51.005306,52.171336,53.180442,54.428753,56.35845,56.904251,58.224708,59.002543,60.541641,61.298667,62.66439,63.496006,64.067295,65.208141,65.713265,67.210263,68.946733,70.091507,70.390087,71.56868,71.696058,72.926586,73.412683,74.650996,74.265889,75.411869,74.599283,75.282487,73.950343,74.615292,74.467605,75.396455,74.792007,74.913763,74.586952,75.007609,74.46952,75.517367,75.411433,75.922735,75.704393,76.277375,76.133632,75.360213,75.399923,74.139268,74.32559,73.428563,72.649674,72.549157,71.213822,71.530421,70.009607,70.00811,69.255001,69.515891,68.956838,68.498943,67.801841,66.000741,65.75741,65.413218,65.78621,64.668607,63.995612,62.494199,60.834221,57.410719,55.612966,52.661071,51.133915,48.538226,46.686418,45.638087,43.930095,42.351082,40.216021,39.872058,38.327905,37.369034,36.193442,34.449963,33.064402,30.867212,27.754569,25.979589,23.615214,21.779031,19.58385,18.049927,14.71592,12.67635,9.821759,7.774256,5.2351325,4.1780779,1.8949444,0.36492461,-2.1879791,-4.0179385,-5.9350365,-7.6228202,-8.9491139,-10.883785,-12.269284,-14.428617,-15.685478,-18.423681,-20.155395,-23.313113,-25.054161,-27.171941,-28.486345,-29.843852,-31.522096,-34.007567,-35.423841,-37.860504,-39.05409,-41.031819,-41.294412,-42.659967,-43.868911,-44.896718,-46.682443,-47.623935,-48.704599,-50.658734,-51.051981,-52.681745,-53.283977,-55.098213,-57.315107,-58.459644,-60.922051,-61.236601,-63.180738,-63.422162,-65.603278,-65.750985,-67.366702,-68.366558,-69.231206,-70.889063,-70.89132,-72.177695,-72.857272,-74.024331,-75.69961,-76.50879,-78.023619,-78.318197,-79.922486,-81.473474,-82.209331,-83.516264,-84.776031,-86.353966,-87.28851,-87.742142,-89.03639,-89.165153,-90.473348,-90.873542,-91.945426,-92.517965,-93.9884,-94.809201,-96.489537,-98.897114,-99.778483,-102.17797,-103.43099,-105.48852,-107.02263,-108.36792,-110.38415,-111.0385,-112.88046,-113.79909,-114.98212,-116.35751,-117.54096,-118.19594,-119.54578,-120.85169,-122.29655,-122.68046,-123.13783,-124.64479,-125.54813,-127.21145,-127.89026,-129.44863,-130.40936,-130.85984,-131.62849,-131.95011,-132.78313,-132.27571,-133.84654,-133.00374,-133.53581,-133.10742,-132.54888,-132.98431,-132.14153,-132.73416,-131.66532,-132.53003,-131.50027,-132.15973,-130.78058,-130.2489,-129.74871,-129.3185,-128.53808,-128.89628,-127.48751,-127.27798,-125.78883,-124.94795,-124.5862,-124.43426,-123.78543,-123.75786,-122.99458,-121.97666,-120.41399,-119.7353,-118.93837,-118.90517,-118.37701,-117.96121,-117.2421,-116.56067,-113.96314,-113.75059,-111.74153,-111.53201,-110.00625,-110.15917,-107.58081,-106.29917,-104.96773,-103.29221,-102.24585,-100.68416,-100.18621,-98.323709,-97.977858,-95.874933,-94.878325,-93.075227,-91.926568,-89.972261,-88.555878,-86.966016,-85.328036,-82.149446,-80.592975,-78.028921,-76.523543,-74.058676,-72.078308,-69.961304,-68.203911,-65.898091,-63.200917,-61.246248,-59.196486,-56.767412,-54.832085,-53.165887,-51.071043,-48.94527,-46.418825,-45.390886,-42.665041,-41.836188,-38.035173,-37.647593,-33.522524,-32.619655,-29.640202,-28.058637,-25.57869,-23.350362,-22.034251,-19.651739,-18.48902,-16.456702,-14.705953,-12.815523,-10.850267,-9.6267723,-7.1515664,-5.4282274,-2.5250162,-1.5604537,1.1373697,3.1160655,5.4399538,7.6677175,10.417619,12.36572,14.436918,15.838211,19.207832,20.439541,22.610456,24.494137,26.436015,28.894243,31.265209,32.266725,35.439434,36.9458,39.937156,40.45232,44.202692,46.431937,48.975566,52.155837,53.643253,57.126879,57.725563,60.722147,62.082809,63.371355,64.494982,65.768348,66.953761,69.390494,70.572068,71.688322,73.687024,75.592197,76.93739,78.82709,79.6373,82.53748,83.448788,85.180832,86.506343,87.912345,89.500528,88.804808,90.173297,89.94622,90.33332,89.918407,90.388337,89.245892,89.707801,89.560855,89.351055,89.509457,88.473056,89.18536,87.949152,88.779461,88.514508,89.204777,88.609868,89.336582,88.158365,88.598294,87.585546,88.111327,85.148187,86.28807,85.040457,85.148896,84.142656,83.158051,82.779002,83.640609,83.484283,83.486396,83.736605,84.277834,83.6527,84.727064,84.08363,85.387363,84.218322,84.787733,84.750711,83.998455,83.319588,82.453408,82.89736,81.131032,82.277231,80.313706,80.473427,77.295506,77.173531,76.107152,75.360883,74.798092,73.45598,73.181777,72.085311,70.836585,69.929183,68.675515,68.453861,66.212154,67.063487,64.392021,63.573795,61.527422,59.901943,58.59691,57.467438,56.116267,55.364164,52.345782,52.794992,50.460619,49.786029,48.629476,47.519188,45.795472,44.786583,43.15648,41.241858,39.278011,39.654907,38.022948,36.175312,36.363738,33.532492,32.086408,29.807872,28.681574,27.273035,25.762455,25.75662,25.191159,24.239048,24.285518,23.286279,23.347347,24.03486,24.21829,24.414813,24.735769,24.590355,25.044025,24.285343,23.842156,23.799646,24.059903,23.54947,23.352458,22.345874,22.003635,20.512252,20.445506,19.842809,19.141191,19.444555,18.222357,17.554071,15.704002,14.677242,13.67022,12.510608,11.037536,10.513871,9.2474326,6.787426,4.6195546,1.3114787,-0.53071468,-2.8749155,-4.7534142,-7.2109712,-7.8715925,-10.911221,-12.738214,-15.87344,-16.901245,-18.817681,-19.2595,-22.260437,-22.835944,-25.168782,-26.249816,-28.904153,-29.75764,-33.486804,-33.739875,-36.398573,-36.599856,-39.74424,-40.966766,-43.397546,-43.465709,-45.476877,-46.93335,-47.575321,-50.087946,-50.004509,-51.97852,-51.198127,-52.601059,-53.469413,-54.287668,-54.263195,-54.728012,-55.937145,-56.726946,-57.030337,-57.916765,-58.459398,-59.34791,-58.820104,-60.012308,-59.687642,-59.709917,-59.886109,-59.013093,-58.665899,-59.118771,-58.556382,-58.480331,-57.432108,-58.610854,-58.276974,-58.510177,-58.904895,-59.446997,-58.509282,-58.607327,-58.914374,-58.606824,-57.713743,-57.839845,-57.835133,-58.326941,-58.255223,-58.880837,-57.496045,-58.446998,-58.483251,-59.111124,-59.026425,-59.506811,-60.79292,-61.577841,-62.993521,-65.343592,-66.257228,-68.043576,-69.170006,-71.305176,-73.098165,-74.214877,-76.378402,-78.315828,-79.413678,-81.598285,-82.371883,-84.983123,-85.33303,-87.09703,-89.611273,-90.613404,-91.391329,-91.089824,-91.37923,-91.122429,-90.041988,-89.150398,-86.22702,-85.071,-81.817236,-78.886571,-73.648781,-70.673766,-66.629401,-61.927155,-57.816745,-51.412554,-46.488302,-39.687859,-33.949019,-26.892147,-20.877528,-14.186829,-7.6805421,0.63229988,7.1309165,16.55006,23.818616,32.423795,40.31992,48.768275,56.362328,64.98931,72.216548,80.760141,89.689251,96.68579,104.37719,110.41997,118.13254,124.60904,131.16151,137.78754,144.32645,150.04699,155.85855,160.18006,164.12556,168.06304,170.64331,174.22243,176.93705,178.28695,179.42944,179.37101,179.14792,179.1305,179.36491,178.77961,178.1537,176.6878,174.58669,172.46897,168.4437,167.36533,163.73593,160.44043,157.57612,153.04026,148.15986,143.61015,138.55826,133.85553,128.93761,124.55572,120.84178,116.14205,112.35294,109.14048,106.39705,104.39006,102.28199,102.0905,101.77009,101.68166,101.7845,101.59381,101.90402,102.84274,103.70621,104.32976,104.04706,104.61072,104.63496,103.97141,104.00829,103.56331,102.77854,101.01374,100.15386,98.43175,96.083192,94.554046,92.123793,89.612354,86.190051,82.659404,79.607847,75.102923,70.954618,67.715018,63.964388,59.436508,53.561012,49.554301,43.7143,38.693412,33.578923,27.997195,22.825065,17.272645,10.700521,4.3988245,-1.7923066,-7.6943618,-14.876794,-18.990623,-26.181569,-30.761906,-38.75911,-44.112362,-51.283324,-56.112321,-61.975524,-65.962333,-72.030726,-75.933282,-81.639051,-85.58088,-90.451248,-93.557408,-97.388742,-99.799214,-103.12326,-104.94602,-107.78627,-110.52383,-111.991,-112.67267,-112.81906,-113.23428,-113.27019,-113.22648,-113.14163,-112.12026,-112.31625,-111.05768,-109.88905,-108.10719,-106.5163,-104.04269,-102.64786,-99.74778,-97.844599,-94.326281,-91.186698,-87.178272,-83.881084,-80.194376,-77.020969,-74.394052,-71.296577,-68.413432,-64.881992,-61.83026,-59.985748,-58.262284,-57.481803,-55.891764,-55.773075,-53.848547,-55.239317,-53.935675,-54.969512,-53.598953,-53.770491,-53.551769,-52.125328,-51.513995,-49.506537,-48.221024,-46.738021,-44.920374,-44.015657,-41.850003,-41.584788,-39.334827,-39.453575,-37.849479,-36.819375,-36.759908,-35.655042,-35.357193,-34.355564,-34.601572,-32.981616,-33.568477,-32.396942,-32.180548,-30.767914,-30.452964,-28.977905,-29.041891,-27.610815,-27.592322,-26.834297,-25.464629,-24.453572,-23.826145,-23.832501,-24.055773,-24.143694,-23.293187,-23.949432,-22.303243,-22.673343,-21.585676,-21.34075,-20.717941,-21.015433,-20.882397,-20.765255,-19.983474,-19.008684,-18.861103,-19.255418,-18.226041,-19.194183,-17.546552,-18.442789,-16.897291,-17.144557,-16.8311,-16.906072,-17.191895,-17.237692,-17.417115,-16.910323,-15.958159,-16.39473,-15.000007,-16.593794,-15.457275,-15.695515,-14.39066,-14.906007,-13.676287,-13.577827,-12.750226,-12.521955,-12.322601,-11.689962,-11.360352,-10.486672,-9.8407733,-9.6764518,-8.9363549,-7.8238419,-8.0454196,-6.4725018,-6.9212174,-6.1630227,-5.9931577,-6.4237353,-5.7146731,-6.1138863,-6.3969781,-6.0202018,-6.7873492,-6.8162694,-8.0475192,-8.1211384,-9.3032358,-10.062036,-12.423104,-13.104085,-15.805012,-16.688235,-18.810985,-21.65226,-24.055493,-28.650101,-29.89391,-33.56545,-34.449261,-37.310681,-38.937998,-41.161901,-43.434776,-43.906562,-45.581056,-46.444952,-47.183831,-47.631581,-47.879037,-48.881319,-49.454954,-50.496551,-50.56699,-50.125541,-49.567503,-49.154845,-48.612095,-48.732696,-47.649007,-46.693853,-46.645334,-44.678407,-43.834093,-41.725941,-40.234299,-38.11903,-37.859812,-34.346455,-33.949456,-30.018131,-28.978816,-25.889273,-24.498646,-21.806198,-19.597077,-16.193856,-14.238414,-11.488025,-8.5196824,-5.8111766,-2.5505432,0.14832362,3.7047841,6.3392002,9.706319,11.549692,15.987001,17.589487,21.657138,23.773,27.686877,29.462943,34.592217,30.341251,36.798155,32.664846,36.248588,35.082211,36.796678,36.944994,37.887464,38.12035,40.287758,39.774079,42.326264,42.16738,43.854163,45.092194,44.656665,46.189703,44.468145,46.951417,45.162566,48.490458,46.32587,48.432119,45.959646,46.751651,45.676043,48.152324,46.955873,48.692957,47.075085,48.713815,48.528033,48.497278,49.774094,51.010566,52.574696,54.117616,54.731167,56.157054,56.764358,58.710968,58.97001,61.407153,62.299119,63.773154,64.194867,65.934058,66.697528,68.711629,69.507844,71.53844,73.064481,75.144929,77.356834,79.410931,81.687176,83.810346,85.774804,88.741397,91.639123,94.339479,97.05403,99.398437,102.13801,104.17291,107.05114,108.88175,110.97794,113.07131,114.03644,117.78967,118.53518,121.29346,121.83318,123.53977,125.30806,125.78716,126.74699,126.18607,126.15294,126.04414,125.91001,125.06585,123.82286,122.10069,121.30579,119.49568,117.78967,115.5637,113.87861,111.13175,109.3456,106.06895,103.30989,100.76811,97.707272,96.183938,93.667797,91.701077,89.113795,86.560709,84.262546,81.520216,81.215852,77.101409,77.12559,72.557766,71.051457,65.782684,63.451277,56.26126,59.610686,51.640061,54.232311,47.995999,48.040907,44.550911,43.446583,40.787089,39.999964,36.824071,35.843714,33.168176,30.592825,28.669395,24.637233,24.550179,20.225129,20.717165,15.779043,16.027814,10.390561,10.035706,4.8146895,3.6189553,-0.24661048,-2.0741828,-7.119146,-9.5170968,-15.126016,-18.126722,-22.435853,-26.757704,-28.845315,-34.563044,-38.359079,-44.132911,-48.299465,-52.744218,-56.778234,-60.716329,-65.252415,-68.512988,-73.348331,-78.149769,-82.430419,-86.355799,-89.482224,-92.8641,-96.807401,-100.35575,-104.04269,-107.70998,-111.43209,-114.35532,-118.35535,-120.837,-123.82891,-125.79555,-129.76515,-131.90453,-134.45756,-135.64301,-137.40824,-138.19733,-140.02639,-140.94278,-142.51839,-142.34931,-143.10282,-141.78444,-142.42638,-140.42227,-141.4497,-140.43764,-140.73375,-139.98516,-138.45661,-137.88129,-136.34398,-135.65997,-134.30907,-133.91476,-133.2487,-132.68331,-130.91124,-130.66926,-128.76049,-128.51986,-127.0813,-126.81489,-126.14006,-124.13281,-123.17152,-121.38218,-119.20543,-116.86684,-115.08055,-113.03898,-111.54031,-109.7354,-107.49825,-105.21939,-100.92863,-98.930252,-94.581657,-92.847802,-88.346921,-86.697088,-82.443715,-81.192057,-77.292861,-75.493725,-72.417531,-71.473079,-69.016197,-68.234829,-65.919886,-63.107639,-60.628881,-58.095305,-56.402068,-52.812299,-50.78083,-46.872919,-44.947432,-40.732699,-38.534544,-34.725543,-32.632592,-29.315779,-27.353292,-23.764928,-22.177471,-18.885212,-17.889109,-15.026852,-13.60561,-11.068764,-9.8801044,-7.3195485,-4.9039137,-2.5737806,0.28911485,1.830543,4.3836253,6.2347219,9.7277201,12.775545,15.963556,18.005077,20.560838,23.410797,25.964156,27.946268,30.611935,33.029726,36.123678,38.539642,41.002803,42.634981,45.025069,46.266273,48.856978,50.544301,51.541599,53.026652,54.047267,55.978079,56.280325,57.84227,58.863605,60.646529,62.022789,62.834677,64.106365,64.879414,65.825897,67.114021,67.547689,68.282214,68.140018,68.84292,67.794068,69.204277,68.448144,68.875048,67.975589,67.311796,67.66262,66.249716,66.144081,65.213047,64.688732,64.632824,63.263187,63.131024,61.447516,61.004459,60.606349,60.048569,58.639117,58.709429,56.409725,56.440847,54.635103,53.169858,51.378128,51.043141,49.843379,49.318389,49.131245,48.565912,49.616207,48.735525,48.6088,46.643787,46.637597,43.996566,44.033052,41.753962,41.308949,39.302643,38.165203,35.715354,35.041874,33.394303,33.62472,32.044253,31.371892,30.222652,29.670375,29.692913,28.746362,28.518489,27.830439,27.325765,27.001242,27.535154,26.230301,26.017603,24.605861,23.953993,21.505067,20.932343,18.083247,18.146907,14.705502,15.4442,12.610536,13.419861,11.489334,10.864994,10.883277,10.659724,9.6579644,9.0465924,8.2733658,8.6020379,7.8205813,6.8459801,5.9031902,4.5731143,3.4851068,2.5953073,2.5375436,1.2471705,0.60754935,0.3392825,-0.57094276,-1.5831718,-2.1241712,-3.6572421,-2.8741774,-4.5543742,-4.1961646,-5.6076133,-5.9994658,-6.7322421,-7.7370158,-7.2019021,-8.6136211,-8.1379811,-9.3201741,-9.543048,-10.86901,-10.566216,-12.941388,-12.458882,-12.371713,-12.372957,-14.674264,-13.436732,-15.518219,-14.64944,-16.503115,-16.7196,-17.455302,-17.243185,-17.931182,-20.523409,-20.820811,-23.010601,-23.55697,-24.080304,-25.796009,-25.909852,-28.125792,-28.85775,-30.252092,-31.31285,-32.803903,-33.428692,-33.849245,-34.4156,-34.428482,-35.178521,-35.601879,-35.380898,-35.728091,-34.532497,-34.480712,-34.548593,-33.776133,-33.130359,-32.944235,-31.331152,-29.924978,-29.019657,-26.971913,-26.248912,-24.067402,-23.092303,-21.904638,-19.625349,-17.995069,-15.978185,-15.523597,-13.134357,-11.702315,-8.1183645,-6.595078,-3.8030496,-2.0141936,1.3014048,3.0467871,6.230417,8.5832834,11.664982,12.691001,16.851936,17.250147,19.506087,20.899658,23.361814,25.145784,27.682874,28.089591,30.757699,30.791305,33.436525,32.769934,35.253433,36.248081,37.204626,37.962526,38.48965,38.53302,38.208976,37.266948,37.335089,36.051376,35.798258,35.221912,34.799331,33.211991,31.895345,30.717611,28.192319,26.704947,25.18652,23.874384,21.481319,19.479245,17.453215,15.957129,12.848849,11.156033,8.5159275,6.8916907,5.5058722,2.0545882,1.8667241,-2.2286078,-2.4962614,-5.5448759,-5.2366453,-8.30177,-8.235696,-9.4873307,-11.159558,-13.083776,-12.644986,-14.838867,-14.148627,-15.401084,-16.124908,-16.931692,-18.275153,-19.317949,-19.736836,-20.437021,-20.697118,-21.089393,-20.300651,-21.766262,-22.148375,-24.163063,-24.698408,-24.414723,-23.395909,-22.60065,-21.684018,-20.703208,-19.465906,-18.644975,-19.633647,-18.484842,-19.811557,-16.567584,-16.953283,-15.745105,-18.736608,-15.14241,-13.879198,-12.122575,-9.1416406,-9.0694201,-7.3826377,-8.1299837,-7.7802753,-8.2006736,-10.998882,-11.956744,-14.319735,-13.781494,-14.59469,-14.583117,-12.648199,-12.353448,-9.99574,-11.749389,-10.885193,-11.31827,-10.553497,-10.390504,-9.5343578,-10.087005,-9.1990294,-8.8714345,-9.3469377,-8.4246389,-10.161041,-7.5643123,-9.2538434,-5.7830537,-5.8906663,-2.1449132,-2.9528423,-0.26170408,-1.7340458,1.3370883,2.484176,3.9557348,4.1137715,5.6352228,5.7719344,6.1460103,5.256599,4.5658509,5.8070638,3.4274889,2.4567824,1.7832079,-1.5275541,-0.60534792,-3.8832511,-1.4231702,-5.1481325,-2.6249729,-3.664821,-3.0905865,-3.5862525,-3.3208608,-2.8644252,-2.8203222,-2.9393454,-2.8463841,-3.5802191,-4.1873094,-3.7276201,-4.6008973,-4.6498642,-6.3051334,-6.7380536,-9.9537119,-10.193993,-13.577047,-16.331063,-17.599636,-20.649704,-20.404845,-21.439606,-22.04587,-23.657522,-25.893964,-26.428061,-29.444485,-30.57021,-35.461612,-35.009076,-42.826064,-39.790012,-48.115458,-47.399752,-56.935868,-55.608754,-64.020193,-64.097007,-70.371473,-68.838248,-75.746393,-75.543816,-80.284969,-81.829246,-87.587185,-87.637659,-89.76283,-91.128382,-90.181686,-93.188717,-91.330947,-93.013773,-87.572152,-90.270919,-86.338208,-85.711743,-83.814153,-81.634731,-80.917463,-77.809251,-75.184257,-71.999283,-66.311301,-62.231672,-53.578864,-48.723104,-39.125417,-33.933605,-26.695158,-21.834465,-15.091353,-8.0958409,-1.3185304,5.552217,12.450854,20.104862,27.767836,35.91037,42.807801,50.45207,59.828471,67.112913,78.587978,85.523128,95.735336,102.75886,111.09632,114.65803,121.86459,126.91535,134.69515,140.14389,145.97084,149.80825,153.74617,156.9573,159.02469,162.45568,161.8679,165.99019,165.07039,170.08669,171.17841,174.06102,176.5327,175.93517,180.60621,176.91067,180.30753,177.20501,177.78091,176.02206,173.73125,172.37347,169.03512,166.99869,163.00752,159.25462,156.84273,153.26665,150.45616,147.13367,143.53024,136.16504,132.48863,130.65405,127.78661,126.41735,124.13816,121.59472,119.45556,115.91307,112.67218,108.07153,103.09873,99.711421,94.915662,91.541108,86.398795,83.654303,75.838848,75.177402,65.104866,62.670387,53.067591,50.884323,40.474735,38.99143,29.761468,27.690444,17.935902,15.61308,7.6058793,2.8090587,-4.2979202,-7.4212661,-15.426016,-19.739498,-26.377387,-32.718449,-37.714635,-44.336967,-47.516856,-52.790878,-55.968032,-61.059402,-64.130783,-68.383643,-72.288051,-75.234767,-78.469388,-80.861142,-82.708805,-86.152097,-86.335883,-88.464329,-88.26935,-91.568311,-91.4765,-93.70563,-94.054025,-95.073337,-95.164455,-95.346934,-95.503603,-95.083446,-95.022332,-94.363023,-93.030429,-92.798763,-90.831217,-89.72684,-88.897647,-88.751886,-89.373756,-89.09245,-89.135723,-88.456358,-88.277441,-87.675158,-89.090865,-88.02414,-89.843827,-90.516846,-91.537253,-89.931306,-89.816613,-88.755399,-90.085535,-87.334942,-87.731392,-83.589817,-84.973017,-81.320388,-84.33333,-82.082697,-82.427553,-82.115204,-82.214752,-83.749212,-83.414213,-83.70327,-84.630097,-84.127935,-86.309881,-85.42034,-86.968358,-84.807551,-83.800586,-82.505258,-80.6861,-79.568823,-79.420662,-77.895239,-73.37432,-71.680183,-69.675596,-69.714815,-68.990689,-70.065178,-69.010618,-68.342681,-67.386566,-66.591965,-65.265153,-63.581085,-62.961559,-62.415566,-60.856396,-61.406924,-60.763636,-60.291658,-59.487788,-58.849539,-58.156566,-56.996686,-56.857969,-55.158127,-54.917182,-52.654304,-53.212134,-52.780223,-51.917934,-51.567533,-50.912517,-50.100553,-50.565283,-48.771652,-48.673115,-47.865289,-46.366899,-45.81576,-43.052072,-42.307389,-41.336076,-38.934776,-38.060826,-36.804643,-34.940456,-33.134588,-31.484029,-29.367885,-27.460772,-26.427787,-23.303666,-23.109453,-21.457923,-21.8254,-18.260219,-18.666962,-16.280292,-14.819031,-14.369701,-12.725088,-12.493222,-10.979253,-11.584316,-10.081969,-9.6031235,-11.078954,-10.476375,-13.518261,-13.45142,-15.923516,-16.919143,-19.142593,-19.455739,-22.490558,