ConstAcc,0.5,0.2542,145.7714,146.465,147.1345,147.7831,148.414,149.0298,149.6331,150.2259,150.8104,151.3883,151.961,152.5299,153.096,153.6602,154.2233,154.7856,155.3475,155.9092,156.4705,157.0315,157.5916,158.1505,158.7075,159.2621,159.8132,160.36,160.9015,161.4365,161.9639,162.4824,162.9905,163.4871,163.9705,164.4393,164.8921,165.3272,165.7432,166.1385,166.5114,166.8605,167.1843,167.4812,167.7498,167.9887,168.1964,168.3717,168.5134,168.6202,168.691,168.7249,168.721,168.6785,168.5967,168.4751,168.3132,168.1108,168.3328,165.9363,163.8605,163.5994,162.7996,162.6748,162.8904,162.8061,162.245,161.2169,160.727,160.2158,159.9524,159.7358,159.3142,158.6393,158.2002,158.0949,157.9883,157.9158,157.3469,156.7088,156.1277,155.5561,155.2213,154.9398,154.5918,154.3002,153.9423,153.715,153.6032,153.4378,153.4045,153.4196,153.5918,153.8235,154.0434,154.3301,154.6457,155.1332,155.6113,156.1174,156.709,157.4954,158.3419,159.0596,159.6766,160.3589,160.9566,161.4092,161.8108,161.8848,161.9737,161.8596,161.9557,162.323,162.7688,163.2795,163.8206,164.6527,165.4673,165.9552,166.2493,166.5934,166.8338,166.9559,166.7657,166.3954,165.9571,165.4363,164.6842,163.5515,162.4584,161.3491,160.2747,158.8164,157.2629,155.5315,153.912,152.5701,151.1877,149.8192,148.8032,148.1772,147.6553,147.2292,146.722,146.0179,145.2103,144.4696,143.3962,142.3235,141.2172,139.8839,138.5688,137.0096,135.4102,133.6196,131.758,130.092,128.516,126.895,125.3353,123.8236,122.5928,121.1446,119.713,117.9086,115.9273,114.2327,112.4403,110.7161,108.8559,107.1531,105.4903,103.8152,102.192,100.5367,98.94261,97.51771,96.08128,94.41407,92.95707,91.62053,90.44826,89.1361,87.68347,86.27979,84.83489,83.64365,82.45291,81.34328,80.18101,79.09271,78.31615,77.52153,76.79591,76.01889,75.36057,74.79286,74.41017,73.77817,72.96514,72.11093,71.649,71.24148,70.68637,70.26652,69.76245,69.46631,69.03362,68.48779,68.03309,67.67507,67.47297,67.2292,66.84989,66.32952,65.70051,65.0807,64.22599,63.39322,62.59639,61.96117,61.77797,61.53015,61.11504,60.84345,60.41792,60.1634,59.74043,58.84552,58.11332,57.56001,56.7386,56.07586,55.36528,54.55022,54.00351,53.60005,53.01528,52.54541,52.13797,51.44621,50.79857,49.94172,49.1412,48.33135,47.70963,47.36313,46.99412,46.85165,46.54221,46.32605,46.10914,45.67689,45.1062,44.36439,43.83634,43.57543,43.24993,43.02939,42.26933,41.14524,40.35605,39.79978,39.14805,38.18652,37.34154,36.84737,36.44751,35.97753,35.27597,34.3121,33.66522,32.84021,32.22248,31.36377,30.62104,30.47479,30.07459,29.61655,28.58058,27.49892,26.56712,25.74972,24.97825,24.11745,23.24795,22.54401,21.79854,21.09751,20.6479,19.94488,19.27245,18.52388,17.74523,16.77399,15.98559,15.36479,14.66293,13.74773,12.6675,11.25028,9.817923,8.436792,7.540059,6.668099,6.441474,6.624729,6.994965,7.227076,7.199133,7.160206,7.050898,6.995746,6.859924,6.514704,6.088509,5.680199,5.390779,4.976244,4.734523,4.248273,3.734021,3.230545,2.588934,1.763173,0.7283416,-0.300048,-1.339278,-2.058288,-3.263108,-4.32308,-5.552562,-6.365802,-7.046502,-8.009223,-9.44216,-10.6834,-11.57912,-12.55785,-13.65951,-15.20507,-16.63026,-17.99883,-19.20369,-20.53793,-21.97964,-23.57732,-25.21068,-26.5864,-28.306,-30.19879,-31.69804,-32.97038,-33.97714,-34.99706,-35.91447,-36.58226,-37.12355,-37.86565,-38.90868,-40.20642,-41.36989,-42.27094,-42.88115,-43.45968,-44.10104,-45.06382,-46.0071,-46.62811,-47.4297,-48.02493,-48.48026,-48.86622,-49.12302,-49.33045,-49.3796,-49.43458,-49.23916,-49.20737,-49.34117,-49.62529,-49.52952,-48.99607,-48.19078,-47.50891,-47.07154,-46.50638,-45.8902,-45.18206,-44.60702,-44.16346,-43.27755,-42.27776,-41.037,-39.9638,-39.1791,-38.24646,-37.40315,-36.46332,-35.61724,-35.36583,-35.09459,-34.74812,-34.41341,-34.25679,-34.17714,-34.59254,-34.88368,-35.29874,-35.73379,-36.27382,-36.16426,-35.32173,-33.93775,-32.85248,-32.00181,-31.60952,-31.32008,-30.84709,-30.43431,-30.27716,-30.26013,-29.6869,-29.20779,-28.80928,-28.35172,-28.23528,-27.67167,-27.36439,-27.09826,-26.84923,-26.67613,-26.17279,-25.5756,-25.15984,-25.13584,-25.03518,-24.85952,-24.24277,-23.94132,-23.83957,-23.69436,-23.07937,-22.77977,-23.1062,-23.39569,-23.54251,-23.23781,-23.40927,-23.78691,-24.14636,-24.33351,-24.59475,-24.26625,-24.36839,-24.78144,-20.75814,-16.77062,-14.75189,-14.98775,-16.43536,-18.38704,-20.22727,-21.90714,-23.63578,-25.82642,-28.33193,-30.51392,-32.98284,-35.3312,-38.17947,-40.41577,-42.56077,-44.33817,-46.37858,-48.92391,-51.16058,-52.37599,-52.90408,-53.26056,-53.83856,-54.61795,-55.14523,-54.87768,-53.91662,-52.57956,-51.0836,-48.69993,-45.82428,-42.66004,-39.78234,-37.00236,-33.96278,-30.38711,-26.90583,-24.10493,-20.38484,-15.39871,-9.277917,-2.747007,3.036379,9.501167,16.29835,23.18656,29.50246,35.25891,41.39932,47.97922,55.33584,62.83345,70.16449,76.9346,83.51148,86.03139,89.13399,94.28406,101.4416,109.4077,117.3784,125.0745,132.2638,139.2221,145.7713,152.7684,159.5786,165.972,171.899,177.5456,183.1487,188.5397,192.911,196.5392,200.4833,203.9554,207.0981,209.5718,210.6228,211.4664,211.389,211.0807,210.2731,208.577,206.5919,203.9728,200.6879,196.5379,192.1322,187.4594,182.4956,177.0278,171.1411,164.8806,158.0514,151.275,144.672,138.1238,131.9982,125.7491,119.3473,113.7992,108.2015,102.7618,97.95108,93.59098,90.44153,88.28451,86.48236,79.89853,71.99307,65.27521,59.60549,54.07647,48.97441,44.19705,39.7901,35.08986,30.35738,25.88326,21.46367,17.64766,13.8397,10.47157,6.890355,3.917251,0.8031305,-1.600986,-3.909667,-6.493576,-9.065838,-10.82167,-11.91598,-12.73052,-13.58269,-13.4124,-11.91863,-11.17739,-11.28459,-10.46283,-4.907064,0.2958603,3.230242,4.401994,3.053585,1.628813,1.799045,3.057401,5.87439,8.053914,8.627304,9.025415,9.198088,9.958693,10.27402,9.977742,10.42594,10.30567,10.57576,10.12642,9.035804,5.612272,0.5993733,-4.2876,-8.364857,-12.15365,-11.80778,-11.17746,-9.848284,-6.57693,1.95845,13.04441,22.51599,26.77949,27.37088,27.29735,26.75003,26.01349,25.47197,25.55276,23.07771,19.28619,17.03844,17.94995,21.28981,24.91595,28.94167,33.76036,38.22213,42.99503,47.55015,53.40425,59.71969,67.30068,75.076,81.84069,87.82477,94.96944,103.3068,111.3601,117.8864,124.3745,131.6686,139.5355,147.7055,155.8439,162.813,169.0621,176.0141,181.504,186.6523,190.6655,193.3741,195.8428,197.8678,198.9581,199.9894,197.6224,194.5484,191.6491,191.2053,191.7195,188.4345,184.6277,179.9665,173.9613,166.5077,158.7052,152.1989,146.6099,141.9148,137.7465,132.0284,123.7343,113.9438,103.813,92.68821,82.02902,70.32444,57.65103,44.10808,31.13988,19.28567,5.902973,-9.066397,-22.46103,-32.57042,-38.60039,-44.23314,-52.70431,-64.66486,-83.14583,-101.4641,-115.7762,-128.6362,-139.3882,-147.3176,-153.5224,-157.6629,-160.8881,-164.2111,-164.8852,-165.0598,-166.0676,-168.0129,-169.92,-170.7236,-172.1493,-171.6335,-171.8125,-170.6599,-168.8862,-165.8295,-162.5142,-157.6009,-152.0494,-146.1135,-137.9926,-126.6722,-114.9641,-104.283,-99.45959,-98.14091,-100.4502,-100.2594,-100.327,-101.9442,-104.7468,-105.6189,-108.9985,-115.1002,-115.7868,-109.6761,-103.1366,-99.81769,-96.14554,-92.73788,-89.9547,-87.84458,-83.58401,-80.08646,-74.0395,-67.30921,-61.28346,-55.80844,-51.45423,-46.90348,-42.27588,-37.49055,-35.43555,-32.87618,-29.49229,-25.39384,-22.6268,-21.26869,-20.47599,-22.17659,-23.97879,-27.16763,-32.41417,-40.63017,-48.72515,-56.57702,-63.98366,-75.52336,-85.43303,-98.9373,-116.6663,-131.3047,-141.9832,-148.9729,-156.718,-167.392,-174.157,-178.7679,-182.8231,-187.6578,-190.275,-191.4112,-192.5101,-194.1692,-198.8182,-204.3355,-211.7015,-218.1374,-225.6621,-233.8094,-242.2233,-251.1247,-261.3547,-274.0437,-286.2806,-297.4133,-310.376,-323.961,-336.5849,-349.6236,-366.36,-389.2167,-414.9018,-440.0915,-461.8795,-478.4105,-492.6545,-509.1626,-526.6148,-541.8499,-555.6504,-568.7453,-583.8645,-600.4194,-615.2614,-630.4451,-646.4234,-662.4133,-677.287,-689.5521,-700.4167,-710.6288,-721.7792,-732.9853,-745.2424,-758.2106,-770.0805,-778.8304,-788.1854,-797.8081,-806.722,-814.0023,-821.1183,-829.4327,-836.961,-846.7381,-855.1001,-864.5845,-876.4739,-886.3368,-891.5458,-889.3411,-886.7366,-881.3657,-872.4532,-862.9818,-855.7775,-846.0909,-833.5154,-820.5057,-805.5405,-787.2865,-767.8774,-748.9055,-729.0976,-707.9542,-687.0359,-664.3714,-642.2923,-620.2506,-597.3571,-573.1049,-549.8386,-525.5039,-504.0391,-483.4422,-464.0653,-445.6703,-429.2858,-415.2571,-402.3471,-390.9399,-380.2112,-373.386,-366.8283,-362.027,-359.2102,-359.8781,-359.5867,-363.532,-364.9827,-362.1451,-357.1531,-354.704,-355.6884,-357.3151,-356.7368,-356.8672,-361.9044,-366.7332,-369.8123,-372.6381,-375.6452,-379.3913,-384.3283,-388.1552,-392.655,-395.9901,-399.723,-402.6505,-405.6752,-408.4568,-411.9794,-415.6192,-417.8241,-419.741,-422.5347,-424.4027,-425.3855,-426.9118,-428.5922,-427.0561,-425.5939,-423.6721,-420.5177,-415.9735,-411.9449,-407.9977,-403.9138,-398.613,-392.9441,-385.8371,-378.6939,-370.981,-363.9327,-357.4891,-350.0929,-341.0632,-330.1313,-319.1515,-310.2237,-301.454,-292.163,-284.1479,-276.9665,-269.975,-262.5475,-254.5375,-247.7146,-243.2876,-241.1295,-239.5445,-238.2905,-238.0399,-237.8692,-239.5233,-238.428,-241.2067,-242.8587,-242.5983,-240.0115,-235.2204,-233.4939,-233.5187,-235.2657,-236.0151,-236.5584,-235.1654,-234.7238,-235.0148,-236.3999,-236.2023,-236.2634,-236.2261,-236.7068,-234.5919,-232.2963,-229.2626,-226.3845,-224.0073,-222.1733,-220.6375,-218.6258,-217.2252,-217.2732,-216.7826,-215.2214,-212.4794,-209.4201,-206.5558,-205.0037,-202.8832,-200.0208,-197.5841,-192.7565,-187.8178,-183.954,-180.8588,-177.4486,-174.1093,-171.1244,-169.457,-166.521,-164.0822,-160.8701,-157.6085,-155.2538,-152.8017,-150.745,-147.3147,-146.007,-145.1401,-140.6609,-138.4127,-135.4828,-132.6112,-129.0646,-127.526,-125.686,-125.344,-124.0934,-122.7457,-121.2914,-118.7804,-116.5557,-115.5517,-113.2749,-110.4463,-108.5893,-109.1163,-107.8573,-104.9882,-104.3305,-103.7406,-104.0115,-102.1329,-101.2259,-99.10813,-97.08673,-95.60251,-95.14932,-94.50004,-92.00493,-90.2116,-89.06918,-87.29276,-83.5532,-79.67256,-76.74838,-74.27352,-70.66845,-66.53424,-61.86644,-57.39982,-53.60736,-49.91118,-45.67976,-40.12003,-36.71192,-34.18803,-31.61616,-28.93754,-24.39573,-21.36223,-20.55276,-20.95787,-22.44394,-23.94169,-25.03182,-26.58996,-28.89213,-31.4234,-35.37907,-39.39553,-44.70699,-49.83983,-55.53716,-53.69711,-57.04301,-64.20269,-71.98894,-79.11278,-86.18751,-94.49513,-102.6823,-117.3749,-127.608,-134.2723,-143.1171,-151.3145,-159.6067,-163.0318,-164.5324,-169.6522,-173.4286,-179.2169,-181.3516,-183.9203,-184.6902,-182.0887,-181.5418,-181.5419,-177.9156,-171.7166,-165.9378,-158.2483,-155.4854,-150.2866,-149.7547,-144.6123,-135.3478,-125.9909,-116.2007,-107.9903,-101.1356,-92.77877,-82.81962,-73.18325,-62.34178,-52.55706,-42.77431,-32.65429,-21.79623,-14.19595,-2.296044,5.883888,12.51594,19.05597,26.28362,34.11552,40.49325,42.96471,45.01563,45.91298,47.43459,54.06716,80.81883,89.195,85.846,80.53493,80.4062,79.10782,74.08819,62.12324,45.35175,19.36204,-6.128902,-28.07724,-51.22035,-70.40248,-91.72896,-116.6327,-140.4973,-161.1312,-181.3195,-200.8866,-218.6287,-235.1677,-248.3863,-260.0825,-269.0435,-277.9734,-282.7271,-287.5011,-290.5994,-291.0751,-287.2774,-282.511,-276.808,-276.172,-266.7636,-252.3549,-236.1159,-217.2994,-198.0927,-172.4951,-145.8748,-118.5371,-90.56148,-61.91699,-32.00395,-1.219921,30.6621,64.01087,96.18341,128.3219,161.2277,194.1513,218.1463,243.2241,262.3877,285.7648,312.2069,336.4105,357.3101,376.9928,403.8104,426.4348,446.069,465.9231,484.6181,503.2985,516.6683,525.7422,535.8007,542.8268,550.7419,554.0271,559.1796,560.5396,556.3977,553.2961,551.2578,547.1415,537.5513,527.1769,509.6536,495.9493,480.28,470.1776,463.665,448.6383,429.3646,408.727,387.9988,369.9633,347.7259,324.2348,300.9297,275.4526,251.1016,226.6278,202.1885,179.8695,159.1521,136.0102,117.12,99.69932,85.0529,72.26197,61.2389,53.85005,53.22186,57.03504,67.99618,81.2103,89.70174,74.72575,71.04563,75.99347,82.15946,83.50182,80.46122,73.81655,68.88003,67.66844,74.76622,80.64441,86.20853,92.06259,93.86198,96.64793,103.9675,111.9823,116.5482,121.3782,126.6274,133.2596,139.7711,144.602,148.7175,152.1788,156.8207,160.1287,164.0557,166.9285,170.8158,172.5736,174.4781,175.7526,187.7895,195.4714,201.5537,209.228,217.4023,228.0103,232.9617,237.7105,243.2267,249.0139,254.9635,259.044,263.2962,268.0973,270.6868,272.0007,271.7812,273.0316,273.8017,273.3821,272.8432,279.0253,282.4311,282.7156,282.3399,283.087,282.9561,282.1493,282.2434,281.446,281.131,279.3565,277.1406,274.8087,272.0125,269.7208,266.8236,263.8643,259.2505,250.9923,250.8928,251.5846,251.0666,251.188,251.8345,256.8003,261.6455,270.3037,279.4018,289.3611,300.7519,304.4095,308.5268,314.918,322.6022,331.2415,336.1559,340.7353,344.0732,347.3698,351.4528,354.1722,355.8392,357.929,358.9155,359.2739,359.7205,358.6866,358.109,355.5659,353.6731,350.9603,348.0065,343.3513,338.1101,331.4972,326.6118,322.591,317.7998,312.7648,308.9691,304.8295,299.7487,294.5873,290.0421,287.3364,282.7253,278.7311,275.0895,271.4552,269.656,266.1613,261.2994,255.8279,251.884,248.1735,244.2834,240.4097,235.8414,231.0776,226.5132,223.8006,220.0584,216.656,210.6577,206.1657,201.7923,195.9054,190.0291,183.3292,177.9484,175.3031,172.1978,170.1822,171.8056,172.4976,173.2477,174.6717,177.6149,181.4555,186.6661,189.5085,194.1185,199.1136,203.0535,205.7609,210.3446,216.9705,222.5982,227.277,232.3526,236.634,242.0116,246.3367,249.9744,254.085,256.0199,257.8245,257.4748,257.1699,255.3398,253.6871,250.9348,246.2031,240.6105,233.3726,224.6825,212.6556,199.2429,190.5966,185.7752,174.5291,163.7962,153.3329,143.9916,135.1786,124.5649,114.4315,102.6374,91.34128,80.38615,69.6516,58.48679,48.80768,38.48358,28.25161,16.75062,6.987298,-4.548889,-14.13269,-23.57372,-33.12844,-43.04374,-52.61367,-63.42808,-72.32593,-80.69316,-89.42752,-96.63486,-103.1665,-106.2183,-107.6773,-111.3636,-112.5271,-113.5703,-112.8997,-109.1937,-107.2416,-103.1021,-97.90236,-91.94729,-86.31997,-79.17043,-72.82241,-63.47124,-52.40855,-42.20747,-31.13522,-18.41212,-7.438418,4.968113,18.04933,30.58366,42.99728,54.36732,68.01284,80.04967,92.32577,103.7818,113.6811,123.8394,134.8039,143.02,148.6059,153.3193,161.8344,166.9021,169.9167,170.7524,173.0404,178.1963,184.564,188.6154,192.4876,196.2925,198.191,201.7596,205.8471,208.3061,210.9915,213.5767,214.2609,216.4053,216.9139,217.2471,215.6022,215.8779,214.5516,213.5064,212.3295,209.8397,209.7504,208.1544,205.2127,203.1815,200.9149,196.5718,192.3543,187.5054,183.5269,179.2917,174.5148,166.228,158.9284,151.5977,144.8368,137.5539,126.2052,118.2775,110.8211,101.6988,93.09896,86.25146,77.75947,71.25854,64.03574,58.14829,52.03295,44.58464,38.55373,32.61019,28.91657,23.44313,18.40584,13.0982,8.098357,3.99171,-0.9051585,-6.749988,-10.77578,-15.66351,-20.32511,-24.2535,-29.41143,-35.05463,-38.61188,-41.78649,-45.76552,-46.83463,-49.08545,-49.44259,-50.82491,-51.45358,-50.32262,-50.80525,-49.89727,-46.64551,-45.2336,-42.86733,-40.06159,-37.719,-33.74683,-30.46303,-25.8961,-18.53099,-14.21624,-9.849502,-3.87303,2.128099,5.337756,12.26678,17.78804,22.56699,27.23978,30.95439,38.14817,42.31511,46.74453,50.50307,54.2301,58.68186,61.55234,63.44676,65.52592,67.45918,69.28378,67.46575,66.13832,66.19266,67.80264,68.73298,68.21383,68.77166,67.99584,67.86526,68.095,68.60505,69.67788,68.86755,69.09543,68.94768,69.44781,70.05449,70.42557,70.27694,69.81824,72.56739,73.74329,74.83644,76.30741,76.30938,79.26261,79.55582,80.9738,81.33766,81.45937,80.71329,79.61354,79.48525,77.54626,75.30164,72.31614,68.76674,66.41336,62.88389,58.61834,52.63717,46.69763,43.80208,41.15329,37.07374,34.7452,32.85126,29.95067,27.92704,24.84181,22.5875,18.90038,15.81172,13.65365,11.50762,9.82219,6.174137,5.458643,3.623053,2.157319,1.95151,0.8362711,0.4254844,-0.4548345,-1.462815,-2.662409,-3.601318,-6.467313,-7.884737,-9.987421,-10.84425,-12.65664,-13.82335,-15.18875,-16.02155,-17.08524,-16.99267,-18.69209,-19.8739,-20.31567,-20.49315,-22.00138,-22.01272,-22.76174,-24.59334,-25.36845,-26.82294,-26.80333,-27.54268,-29.72551,-30.37935,-31.04519,-31.6989,-33.15307,-34.36923,-35.64505,-36.35665,-38.84859,-41.31822,-41.83559,-44.79928,-47.31242,-49.61752,-52.45742,-54.97206,-57.53852,-59.89583,-63.39999,-66.61343,-68.91183,-72.75135,-76.55423,-79.47402,-83.05359,-86.4021,-90.42976,-93.12566,-96.828,-100.3932,-103.0405,-106.3784,-108.1055,-110.3757,-112.5237,-114.0036,-114.5954,-115.9378,-115.8031,-114.9928,-115.0718,-114.6256,-114.9791,-115.3847,-114.0629,-113.5482,-112.6226,-112.246,-111.3949,-110.9616,-109.7896,-109.0867,-107.9118,-107.0697,-106.4311,-106.2011,-105.5053,-105.1563,-105.0768,-105.5759,-104.8276,-103.9139,-103.7588,-101.9995,-99.86653,-100.0855,-98.52743,-99.32504,-97.63737,-97.09944,-96.93279,-96.17939,-95.96207,-93.59989,-91.8613,-90.07537,-90.04043,-86.50285,-85.22578,-85.71799,-85.08877,-84.88506,-85.03415,-84.63596,-84.02063,-83.55889,-83.64596,-83.79987,-84.52651,-81.87001,-82.37323,-84.20644,-82.83163,-82.95986,-83.50966,-84.61867,-85.57783,-85.8012,-87.14827,-87.31642,-88.0752,-88.38876,-88.51922,-87.46588,-88.1881,-87.04123,-86.55792,-85.54802,-85.49029,-83.77626,-83.23182,-83.58252,-81.27024,-80.16961,-79.27961,-78.63791,-76.65228,-76.34941,-73.62217,-71.91479,-70.47613,-69.78771,-66.30437,-65.45914,-64.54815,-61.91439,-58.90702,-57.34854,-54.54593,-51.33792,-49.17945,-47.18654,-44.50818,-41.54408,-38.94037,-37.0034,-34.72832,-32.46403,-29.85648,-27.34582,-24.79637,-23.05144,-20.2424,-18.14238,-15.95341,-13.79465,-10.93375,-8.466815,-5.153432,-2.653639,-0.9638398,2.460432,5.767116,7.453476,10.83353,13.68723,16.20137,18.43859,20.58555,23.00717,25.15387,26.16777,27.60018,29.1443,30.12805,29.93686,31.26774,31.93543,32.0699,32.07475,33.00276,32.67947,32.85392,34.01813,34.35354,33.40978,32.63348,32.03739,32.47269,31.60893,31.56873,32.06814,32.36818,32.9942,32.32595,31.88752,31.46809,31.402,29.62829,29.08372,29.26238,29.08597,29.34112,30.32804,31.0159,31.91065,31.24645,31.08887,32.92291,34.3676,32.46698,31.84298,33.38953,31.38005,30.24208,29.5169,28.61646,27.76463,26.84479,26.31862,25.03638,24.79671,23.10779,22.4228,20.83192,19.78199,18.07108,16.26688,14.66298,13.95363,11.82875,9.601894,9.806738,7.741207,7.157688,6.416685,5.090534,3.999635,3.248329,0.8944276,0.2407058,-0.764177,-1.72651,-4.868447,-5.179604,-4.381355,-3.920994,-5.522193,-5.475714,-5.981052,-5.163957,-5.629622,-6.20776,-6.600028,-5.083113,-6.216923,-6.742211,-7.770788,-8.984254,-9.448675,-11.03875,-13.22453,-13.93921,-15.70265,-16.52158,-17.01248,-18.71415,-20.47896,-21.16976,-21.78162,-22.46806,-23.4498,-24.17022,-25.31042,-25.38847,-25.43844,-26.05468,-27.41991,-26.91672,-26.81419,-26.99521,-27.81784,-26.61289,-26.31812,-25.25617,-23.43239,-22.22675,-20.20504,-19.06051,-16.59853,-13.39911,-10.73209,-7.854681,-4.840417,-1.655138,1.272188,5.325821,9.767862,14.39747,20.35934,25.97228,32.27678,39.09849,45.50144,53.30517,60.87943,68.29881,75.87209,83.49957,90.4257,97.75431,103.9182,109.8447,115.5405,120.7485,125.8499,129.5354,133.1551,137.8352,139.5777,142.0873,143.3869,143.8127,144.9228,145.6908,145.0204,144.5337,143.1056,141.4181,139.8073,137.2928,134.8711,130.9756,127.8382,124.4119,120.8002,117.3352,112.852,109.0532,105.8965,102.0322,98.15465,95.61089,91.96,89.17264,85.44205,82.03796,79.59227,76.55991,75.24978,73.37399,70.60075,69.67173,68.80324,69.19614,69.36735,69.96073,70.47583,71.85231,73.28423,76.36597,76.98391,79.4456,82.01336,84.59375,85.37738,87.75561,89.62637,91.41636,93.83892,95.48545,97.59866,100.453,101.8522,103.8708,105.2956,105.135,106.6935,107.2527,107.0567,107.149,106.8247,105.609,103.8038,101.8603,99.59233,96.08087,91.81219,87.85006,82.63245,77.07598,71.32754,65.46083,57.95099,50.97517,43.24275,35.00656,27.7906,18.70296,9.9427,0.8850967,-9.248394,-18.92983,-28.41199,-37.54693,-45.88558,-53.74095,-61.10577,-67.68055,-74.4296,-79.63883,-84.41755,-89.5437,-93.87034,-97.46056,-100.6952,-103.4207,-106.2483,-109.3931,-110.7342,-112.0265,-113.8916,-114.553,-114.8576,-114.7738,-114.299,-113.4174,-111.9991,-110.0158,-108.7123,-106.3292,-103.7225,-100.9051,-97.42541,-93.48464,-90.74946,-86.90578,-83.37057,-79.63149,-76.16834,-72.46559,-68.87194,-66.12037,-62.77466,-58.92692,-55.86761,-52.85124,-49.90791,-46.64548,-43.46363,-40.88474,-37.93753,-35.26569,-33.19735,-30.69433,-29.00253,-26.64787,-25.31962,-23.94729,-22.03913,-20.59381,-19.35121,-17.51019,-16.96522,-15.71365,-14.75581,-14.08308,-13.2111,-12.93647,-12.80054,-12.232,-12.33693,-12.01139,-12.72633,-12.55076,-12.84945,-12.81896,-13.38984,-13.85136,-13.91025,-14.01281,-14.31802,-14.5423,-15.52201,-15.79889,-16.45847,-16.79847,-17.1164,-17.65808,-17.9343,-17.80983,-18.40908,-18.88669,-18.87322,-19.23329,-18.84725,-18.72979,-18.50589,-18.23478,-17.55885,-16.76166,-15.88345,-15.04979,-13.67064,-12.99209,-11.41587,-10.08319,-9.019591,-8.248784,-7.823878,-6.283473,-5.225341,-4.291495,-2.836632,-2.160917,-0.6527145,0.6980379,1.89153,2.564408,3.144747,4.547168,5.384474,6.037251,7.208758,7.759656,8.336616,9.207074,9.37626,9.72281,10.16058,10.58593,10.45584,11.03638,11.08683,11.14206,11.70199,11.91284,11.64435,12.06823,11.80581,11.88948,12.31269,12.16166,12.60875,12.89814,12.80056,13.29635,13.69815,13.62698,13.76494,14.16577,14.31323,14.5816,14.97386,15.12655,14.44205,15.7852,16.55279,16.68279,16.86073,17.23881,17.91017,18.70257,19.04458,19.57027,19.73182,20.07698,20.59277,21.17333,21.76907,22.42737,23.29337,23.88073,24.52991,25.3737,26.08083,26.32756,27.42718,27.77678,28.22133,28.77497,30.31132,31.4542,33.06427,34.86661,36.41674,38.37413,40.22233,42.33011,44.87096,46.60978,49.65737,52.30284,54.68823,57.27546,59.1651,61.8008,64.53772,66.98677,68.3671,70.47838,72.30185,74.04471,75.26029,76.62347,77.34986,78.14538,78.53192,78.29712,78.34931,78.04197,76.81364,76.28364,74.61793,72.29247,71.41078,68.82387,66.93216,64.08872,61.15945,58.54947,54.54418,50.69846,46.78895,42.13198,38.20969,33.38951,28.41703,23.72619,18.6386,13.50929,8.769885,3.823827,-1.521813,-6.44328,-12.09612,-16.93085,-22.2486,-26.93424,-32.1228,-36.86408,-41.61772,-46.03309,-50.73321,-55.23502,-59.65717,-63.78321,-67.18186,-70.77045,-74.76554,-77.88349,-80.85084,-83.44268,-85.5944,-88.00666,-90.02912,-91.5278,-92.60966,-93.99554,-94.83636,-95.57877,-95.37842,-95.82917,-95.51497,-94.91832,-93.9496,-92.87922,-91.15668,-90.51022,-89.05237,-86.93642,-84.96379,-82.65672,-81.34564,-78.91423,-77.47353,-75.22425,-72.97903,-71.46025,-69.30752,-67.84284,-67.39409,-66.07555,-65.67282,-66.09642,-65.99426,-65.96397,-65.99983,-66.66627,-66.22838,-67.04032,-66.37482,-66.65975,-66.07529,-65.81487,-65.5714,-65.39386,-64.55084,-63.96383,-63.17163,-62.26725,-60.57071,-59.79111,-58.2442,-56.77103,-55.42628,-53.12996,-51.18486,-49.21377,-46.53061,-44.3998,-41.80094,-38.91608,-36.02062,-32.71231,-30.63168,-27.21914,-24.41056,-21.32858,-18.23424,-15.09661,-12.21533,-8.767495,-5.887148,-2.828111,0.2575177,2.495018,5.667376,7.9403,11.11497,12.7342,14.77212,17.32417,19.13402,20.98377,22.702,23.8217,25.36043,26.99769,27.87467,28.66802,29.53698,30.05155,30.43879,30.81594,30.27283,30.75439,30.33466,30.00466,29.26781,28.758,28.2544,27.68274,26.70936,26.22291,25.12898,24.20231,22.98228,22.1649,21.71574,20.65133,19.41689,19.14626,18.74109,17.57477,16.67373,16.11174,15.42116,14.83866,14.56061,14.08626,14.23217,13.95731,14.76581,14.98794,15.62804,15.70209,17.27896,17.59651,19.06624,20.06307,21.4374,22.09422,22.95809,24.37462,25.13183,26.01708,26.84134,27.34394,27.57679,27.10668,26.50872,26.60509,25.89974,25.33741,25.02057,24.33189,23.07549,22.66084,21.61689,20.17788,19.63555,19.09491,18.37451,17.37993,15.9261,14.22695,13.05566,12.04852,10.48709,9.006964,7.78796,5.931112,5.256163,3.778658,2.43761,1.511568,0.07347176,-0.7756757,-1.765048,-3.360712,-4.052357,-4.84143,-6.252685,-6.589554,-7.790326,-8.320645,-9.094066,-8.976172,-9.449347,-9.949709,-10.6433,-10.62424,-10.71711,-10.70158,-10.54802,-10.52287,-9.911659,-9.521069,-8.978965,-9.175972,-8.276301,-7.463375,-6.766996,-5.840894,-5.317987,-4.512427,-3.205655,-2.538492,-1.596953,-0.9418125,-0.193031,0.9018553,1.762029,2.759448,2.835716,4.269941,4.790646,5.482165,6.450968,6.93853,7.65192,7.954979,8.52281,9.326774,9.532593,10.14987,10.96401,11.78346,12.46435,12.83557,12.98336,14.14128,14.72175,15.36568,16.05856,16.59314,17.52945,18.30369,18.98427,19.59125,20.22548,21.00734,21.72056,22.8079,23.56656,23.7678,25.24642,25.98796,26.58596,27.46465,27.49015,27.96541,29.37771,29.75478,30.55114,30.78738,31.29048,31.69673,32.14737,32.61737,32.88659,33.03478,33.62892,33.57054,34.08465,34.12464,34.06995,35.03324,34.8074,35.82156,35.95806,36.06279,36.85474,37.03335,36.93452,37.28129,37.98678,37.96111,38.15399,38.90188,39.43072,39.20493,40.24744,40.86671,41.13104,41.45213,41.74148,41.89634,42.13659,42.18586,41.98911,41.98165,42.30074,43.25657,43.23959,43.42907,43.84725,44.41347,44.5127,44.79601,45.49459,46.16224,46.59398,47.25025,47.66153,47.81055,47.92509,48.20816,48.76647,48.85791,49.22131,49.46211,49.07196,49.00147,48.66258,48.64843,48.08736,47.49379,47.10451,45.96029,44.48028,43.27847,42.34525,40.55462,38.543,36.9254,34.6593,32.03299,30.14659,27.0586,25.26689,21.80615,19.10543,16.1717,13.01785,9.849977,6.439044,2.591228,-0.6781744,-4.27023,-8.041998,-11.33342,-14.84031,-18.40992,-21.99154,-25.68693,-29.35454,-33.25645,-36.52496,-40.27141,-44.27852,-47.59125,-50.72564,-53.45977,-56.98529,-60.10869,-63.04705,-66.274,-69.02349,-71.72913,-75.22012,-76.87801,-79.88018,-81.94622,-83.77721,-85.87819,-87.62645,-89.41572,-89.75014,-90.54435,-91.03606,-92.47363,-92.82351,-93.4945,-92.43369,-92.83357,-93.25138,-93.36931,-93.41653,-92.8355,-93.08146,-93.27509,-92.80158,-93.22069,-92.92166,-92.39018,-92.69356,-92.70387,-91.80014,-91.58375,-91.17082,-91.02431,-90.27794,-89.76823,-89.79147,-88.79162,-88.23631,-88.0214,-86.97574,-86.05525,-84.99023,-83.35462,-81.86695,-80.18606,-78.58291,-76.68174,-74.73678,-72.90982,-70.3723,-67.64284,-65.28867,-62.47495,-59.53923,-56.33217,-53.19742,-50.01208,-46.48677,-42.98948,-39.41911,-35.40473,-31.78199,-28.05292,-24.30652,-20.52821,-16.3813,-12.61813,-9.279614,-5.2279,-1.816936,2.158878,5.911218,9.843238,13.69942,16.32537,19.5468,22.29679,25.26382,27.20366,29.66272,31.4667,33.8962,34.21212,35.81999,37.03527,37.71245,38.06882,38.51395,38.61367,38.77715,38.89983,38.61023,38.12311,37.29857,36.56868,35.84359,34.70731,33.6171,32.62903,31.57076,30.53792,29.30487,28.22804,26.87041,25.54857,24.00705,22.40122,20.78986,19.1542,17.74216,15.84782,14.14651,13.26185,11.11934,10.37917,9.168274,8.038565,7.007692,6.466916,6.460521,5.983762,5.635389,4.591515,5.008069,5.249046,5.872192,4.70559,4.903738,5.306304,5.5027,6.030554,6.15013,6.298899,6.341754,6.704102,6.843038,7.48586,7.695939,8.324615,8.969178,9.239754,10.28053,10.84684,11.2196,12.39306,13.32631,14.68377,15.12677,15.68069,16.55017,17.50579,18.48678,19.0634,18.98948,19.4866,19.69608,20.50966,20.15683,20.74341,21.16184,21.13929,20.65118,21.50954,21.28549,20.91313,20.89896,20.79208,20.95551,20.88587,21.68007,21.75228,22.05192,22.51782,22.33412,22.45152,23.3462,23.10177,23.50258,24.35861,24.2309,24.90204,24.76241,24.82453,24.3618,24.07881,24.0192,23.91373,23.52847,23.15484,22.69755,22.45433,22.7359,21.62668,21.3846,20.9503,20.46722,19.58308,19.31234,18.52418,17.6617,17.29617,16.63555,16.07226,15.67404,15.71941,15.77036,16.14886,16.04881,16.30318,16.37639,16.82703,17.13045,17.47296,18.00724,18.53862,19.07638,20.12722,20.67217,21.49911,22.13176,22.48544,23.46179,24.18696,24.0058,24.83044,25.90362,26.20071,27.12242,27.61277,28.34793,29.4067,30.10141,30.49329,31.001,32.08281,32.02731,32.79404,33.59848,33.50556,34.1895,34.33803,34.76527,34.81445,34.49274,34.56649,34.92056,34.8793,34.7874,34.84491,34.5882,34.65433,34.88793,34.72069,34.07011,34.61491,34.18055,34.61078,34.33729,33.07996,32.90202,31.89269,31.78861,31.44225,31.21096,31.76939,32.49273,33.38019,33.6003,34.46884,34.98354,35.81827,37.05498,38.45263,38.87991,39.76358,41.07111,42.52672,43.60138,44.46272,45.75928,45.81573,46.62876,46.96262,46.99093,47.15654,47.26403,46.76217,46.70204,45.87967,44.99283,44.3665,43.09487,42.25437,40.59842,39.16721,37.60439,35.73909,33.82054,31.47321,28.69585,26.14717,23.45892,19.93984,16.99953,13.46588,9.576996,6.364003,2.817914,-1.36605,-5.376837,-9.521693,-13.24203,-17.87467,-21.83063,-26.3594,-30.71878,-35.22682,-40.03483,-44.23541,-48.89137,-52.9265,-56.91567,-61.16389,-65.0703,-68.63584,-72.52201,-76.13049,-79.72623,-83.04034,-86.4941,-89.57517,-92.3967,-94.55254,-96.70996,-98.9054,-99.73563,-101.5594,-101.9993,-102.8999,-102.6686,-102.9995,-102.0086,-101.7925,-100.8001,-99.50143,-99.46026,-97.47146,-96.09786,-95.13203,-93.72206,-92.75953,-91.76003,-90.8952,-90.21893,-90.12804,-89.2036,-89.13144,-88.37766,-87.88194,-88.13627,-88.17375,-87.75779,-87.59292,-87.38439,-87.64896,-87.78317,-87.51555,-88.12758,-88.91566,-88.29578,-88.20454,-86.98601,-85.62955,-84.11924,-82.6364,-80.8749,-79.33913,-76.82458,-74.84856,-72.47815,-69.93792,-67.11337,-64.34733,-61.04679,-57.57508,-53.75212,-50.15441,-46.59762,-42.31734,-38.22543,-34.54551,-29.94885,-25.02211,-20.87508,-15.90867,-11.19074,-6.547344,-1.842012,2.560203,7.982531,12.45982,17.32087,22.11962,26.74452,31.56587,35.93625,40.61186,44.26872,48.51773,52.14435,55.90591,59.43183,62.74754,66.31409,69.27459,71.83086,74.36053,75.71575,77.46607,79.22867,79.74144,80.78352,80.45493,80.88649,79.72659,78.81067,77.64365,76.43529,74.75385,72.6825,70.12546,67.62975,65.06485,61.75461,58.69519,54.6306,51.26927,47.5596,43.06828,39.25347,35.27658,31.24917,27.82489,23.68215,19.9547,16.8889,13.53314,11.0519,8.289841,5.760598,2.963836,1.458382,-1.67341,-2.956288,-4.77992,-6.313709,-7.459392,-8.5759,-9.850783,-11.13053,-11.99599,-13.23977,-13.33637,-14.18306,-15.05479,-14.85315,-15.27493,-15.26862,-14.94556,-14.78275,-14.39778,-13.52591,-13.15167,-12.28959,-12.3783,-10.80546,-10.3215,-9.708425,-8.673643,-8.029456,-6.484218,-5.772793,-4.336453,-3.713495,-2.908125,-2.03248,-1.240961,-0.1832652,0.3878458,1.410228,2.232369,3.067668,4.114674,5.028668,6.04008,6.520018,6.289476,7.267268,7.828582,8.322736,8.935854,9.377999,9.896582,10.83402,11.52589,11.8896,12.24054,12.73373,13.57083,13.96145,14.0262,14.21214,14.48604,15.02431,15.35099,15.10113,15.22263,14.8487,15.24303,15.41404,15.5927,15.68094,16.08529,16.76207,16.51978,16.63053,16.69191,17.47535,17.89058,18.12378,18.42117,19.07221,19.04257,20.09308,20.374,21.37632,21.7983,22.47628,23.36938,24.42122,25.20809,26.27005,27.1573,27.61953,28.70396,28.89626,29.74418,30.0685,30.57189,31.15567,31.18098,31.20546,31.60181,31.45818,31.58205,31.58818,31.85759,31.60314,31.75986,31.31555,31.09893,31.02225,30.64011,31.0945,30.76785,30.78808,30.37681,30.6192,30.95624,30.55075,30.72142,30.07656,29.38098,28.61667,28.47658,28.44395,27.98196,27.51925,27.61085,27.23596,26.76081,26.39693,26.30322,25.95212,25.90872,25.94809,25.32213,25.2601,24.7261,24.38244,24.22553,23.52146,23.56821,23.19177,23.94616,23.95382,24.01279,24.90666,25.32294,26.13829,26.68714,27.85435,28.20705,29.12762,30.25313,30.41596,30.89531,32.02341,32.59913,33.42418,34.11893,34.46345,35.15474,35.80002,35.67024,36.13466,35.61163,35.09923,34.44333,33.23808,32.75559,31.32044,29.83271,28.13058,25.98338,23.79942,21.29064,18.67627,15.87659,13.77976,10.3803,7.868843,4.593597,1.548999,-2.049673,-4.728079,-8.519918,-11.07176,-14.87839,-17.83416,-20.80085,-24.26412,-27.78166,-30.24869,-33.64548,-36.69112,-40.08503,-42.95996,-45.67908,-48.48738,-51.66757,-54.32687,-57.13571,-59.72854,-61.92823,-64.12285,-66.43931,-68.77327,-70.58846,-72.03424,-73.65387,-74.64027,-75.74297,-76.75615,-77.01229,-76.79029,-77.2393,-77.20853,-76.45087,-76.37438,-75.53347,-74.46895,-73.2056,-72.2305,-70.39288,-68.59059,-67.27374,-64.97422,-63.26741,-62.17758,-59.64196,-58.55125,-55.94647,-54.15713,-50.99937,-48.74813,-46.67132,-44.67332,-42.00948,-39.94223,-38.55721,-36.74529,-35.64236,-34.64487,-33.98082,-33.66954,-33.85744,-34.45361,-34.76845,-35.1706,-35.44637,-36.29534,-37.33379,-37.90118,-38.35009,-39.02818,-39.94737,-39.69169,-41.10529,-40.79274,-41.30124,-41.49845,-42.47445,-41.9787,-42.14366,-42.4932,-42.07926,-41.76318,-41.10164,-40.96611,-39.86157,-39.48872,-38.47931,-37.41896,-36.23232,-34.31379,-33.20731,-31.45633,-29.1495,-26.83676,-24.01769,-22.16652,-19.20565,-16.7692,-13.6582,-10.81468,-7.848919,-4.815414,-1.413619,1.912526,5.500527,8.7502,11.56404,14.96787,18.38846,21.85635,24.97238,28.23074,30.448,33.54357,36.24018,38.72137,41.11185,43.4934,44.83884,47.19009,48.56308,50.20294,51.40615,52.28466,52.77872,53.49418,53.40665,53.17702,53.15861,52.87244,51.69788,51.27738,49.99999,48.87997,46.98555,45.94703,43.86347,41.68129,40.29636,38.03518,35.77067,33.93911,31.75763,29.23915,27.46423,25.12908,23.15448,20.86465,18.85019,17.12841,15.158,13.85304,11.90064,10.99737,10.7324,9.564216,10.05922,9.165496,10.5375,10.51902,11.26546,11.72996,12.60948,13.30814,13.88244,15.27648,15.65655,17.00223,17.69236,18.47337,19.38217,20.26867,21.61475,21.90038,23.42255,23.82892,25.03572,26.08399,27.02248,28.51693,29.17419,30.1492,30.68073,31.84751,32.29883,32.61461,32.57977,33.00667,33.32553,33.44957,33.6437,33.21137,32.57774,32.03576,31.66759,30.55963,30.16928,29.20252,29.05526,28.34976,27.18737,26.79978,25.79209,24.62728,23.52086,21.94932,21.0405,18.98495,18.30766,17.18878,15.85036,14.55086,13.09913,11.26425,9.960336,8.227742,6.538092,4.081613,1.842909,0.4619911,-1.666491,-3.554085,-5.438808,-6.982188,-8.489226,-10.13018,-11.51266,-12.95503,-14.66973,-14.98966,-16.22277,-17.27659,-18.91192,-19.79089,-21.22309,-21.92394,-23.53876,-24.93066,-25.59376,-27.20572,-28.4546,-29.80027,-31.13739,-32.43626,-33.8269,-34.77135,-36.11105,-37.13253,-38.1113,-39.13297,-39.13229,-40.29319,-41.16733,-41.55807,-41.86377,-42.06125,-41.6081,-42.13499,-42.38822,-41.92613,-41.94261,-41.36185,-40.92613,-40.62277,-39.74497,-39.27533,-38.16235,-38.04373,-36.69457,-36.28052,-35.52506,-35.30588,-34.42091,-34.34712,-34.00605,-33.3018,-33.24287,-32.64627,-32.81664,-32.79104,-32.16437,-32.28625,-31.15546,-31.34523,-31.1264,-30.6226,-30.59727,-30.80821,-30.76672,-31.28973,-31.53355,-31.7949,-31.83441,-32.07328,-32.42258,-32.89546,-33.09136,-32.78639,-33.13535,-33.3491,-33.7252,-34.09426,-34.4524,-34.7591,-35.37045,-35.3036,-35.46531,-35.97655,-35.91643,-36.71741,-36.64622,-37.20231,-37.68013,-37.77283,-37.99082,-38.00435,-37.25094,-37.54526,-36.91353,-36.32711,-36.39627,-34.99093,-34.96615,-34.45745,-32.72657,-32.05722,-30.96796,-29.86342,-27.36162,-25.05659,-23.11751,-20.17987,-17.57344,-15.01984,-11.9896,-8.593969,-5.257998,-1.658309,1.543611,5.681949,8.568662,12.4251,15.87061,19.46156,22.91681,26.84989,29.41268,33.51268,36.5765,39.71541,43.02429,46.1861,49.33629,51.49194,54.01818,56.8528,59.22446,61.04619,62.42776,64.58231,66.25425,67.39427,69.15851,70.63951,71.6792,73.28132,73.84528,74.35891,75.18985,75.30547,76.05548,76.18033,76.13836,75.49473,75.84044,74.73557,74.3239,72.98264,72.73519,70.88462,69.351,68.5079,67.10663,65.58337,64.57011,63.41985,62.29508,61.7844,60.83661,60.08599,59.95936,59.86142,60.09809,59.2941,58.96278,59.27529,58.84694,58.51794,59.14751,58.3494,58.93215,58.68557,59.07406,58.44342,57.8233,57.4518,57.17333,56.8864,55.84226,55.32626,54.12991,53.37772,52.0983,50.72369,49.45381,47.53209,46.05903,44.00442,41.88774,39.50591,37.40339,34.63388,32.35024,29.57974,26.76947,23.99466,20.85782,17.68405,14.59584,11.82311,8.166021,5.323823,1.426485,-1.734075,-4.892934,-8.719576,-11.12987,-14.31413,-17.86755,-20.70739,-24.0479,-27.25203,-30.30432,-33.78945,-36.39779,-38.79884,-41.51298,-43.27643,-45.71945,-47.90673,-49.3165,-50.08329,-52.06937,-52.60211,-53.5415,-54.44231,-54.94864,-54.6512,-55.43273,-55.27437,-55.30592,-54.58978,-54.40846,-53.73158,-53.1208,-51.78294,-51.32889,-49.49494,-48.28571,-45.94896,-44.54115,-42.06042,-40.25136,-38.31196,-36.76346,-34.28872,-32.17389,-29.68809,-27.50154,-25.57832,-23.49576,-21.37001,-19.20557,-18.04846,-15.70047,-14.92561,-13.1732,-11.33957,-9.872358,-8.650263,-7.26242,-5.588813,-5.26944,-3.472457,-3.133495,-2.357734,-1.388265,-0.3942438,0.01069508,0.1853334,1.19959,1.521069,2.059035,2.077101,1.996826,2.00308,1.669451,1.119889,1.284351,-1.054903,-0.8867511,-2.390504,-3.251278,-4.635177,-5.731404,-6.87226,-7.578898,-8.24475,-9.574048,-10.23379,-11.57867,-12.62434,-13.82384,-14.44737,-15.67382,-17.04447,-17.72871,-18.62736,-19.45223,-19.74178,-20.46473,-20.58891,-20.58278,-20.53915,-20.47892,-20.30228,-20.2063,-19.21184,-19.5341,-18.26887,-19.09683,-17.56531,-17.36006,-16.39397,-15.41587,-14.62879,-14.22351,-13.15944,-12.92618,-11.39582,-11.43788,-10.14515,-8.880441,-7.731404,-6.946362,-5.258918,-4.641859,-2.650508,-1.941661,-1.044007,0.6346385,1.177776,2.547406,3.760018,4.238483,4.859375,5.946864,6.503801,6.975145,7.437791,7.786191,8.685199,8.812271,9.675183,9.465118,9.740486,9.971167,10.83481,10.34255,10.50356,9.631358,9.442693,9.246596,8.703522,8.713546,8.590374,8.438561,8.187785,8.275306,7.99482,7.612014,8.04254,7.442335,8.186876,8.557946,8.196218,9.155423,10.31121,10.54751,11.96787,11.98467,12.65048,13.13191,14.60231,14.70554,15.34643,16.74404,17.39336,18.45914,19.2676,19.868,20.63059,21.23835,22.24495,22.79389,22.68027,23.26265,23.93577,24.33921,24.30869,25.35248,25.16789,25.96493,26.86517,26.76112,27.20081,27.87096,27.62513,28.19745,28.49571,28.23636,28.33503,28.7052,29.32335,29.10934,29.15216,29.17585,29.30124,29.44527,29.42657,29.4725,29.42138,28.70172,29.13228,28.6906,28.08089,27.44894,26.95648,26.40262,25.49814,24.29898,23.87771,22.64175,21.91304,20.93603,18.92794,17.50932,16.65622,14.33896,13.09034,11.04444,9.304524,7.129221,4.850212,2.654066,0.5664287,-2.410012,-3.883754,-7.135262,-8.754574,-11.55754,-13.90421,-15.73093,-18.34055,-20.616,-22.95553,-25.45476,-27.4472,-29.86417,-31.53598,-33.51253,-35.3796,-37.91554,-38.7814,-41.55569,-42.85738,-44.76712,-46.47748,-48.03986,-49.50539,-51.16751,-52.58389,-53.29775,-54.99281,-55.18715,-56.74061,-57.27271,-58.00648,-57.78507,-58.48864,-58.82894,-59.29434,-59.83262,-59.11428,-60.06229,-59.90261,-59.12628,-59.17695,-58.71769,-57.87786,-58.10024,-56.96249,-55.89528,-54.57841,-53.58951,-52.74101,-50.84571,-49.8707,-48.33284,-47.59191,-46.17601,-44.83844,-43.98343,-42.06739,-41.45078,-39.95693,-38.45725,-37.09323,-35.35194,-33.86415,-31.88171,-30.48954,-28.55045,-26.6863,-24.85551,-22.92066,-20.83795,-18.62089,-15.63881,-13.18308,-10.96954,-7.859469,-4.778585,-1.75131,0.946295,3.929579,6.127921,9.562321,12.89074,15.84339,19.63115,22.66161,26.14465,29.80116,32.73328,36.39402,39.65676,42.80437,46.21541,49.20337,52.54312,54.994,58.91777,60.91295,63.72139,65.05854,67.35286,68.92873,70.45674,72.12757,73.27004,73.88619,74.04301,75.04013,75.27568,74.93186,75.74262,75.15783,75.04125,74.93953,73.62589,72.88148,71.451,69.60269,68.11429,66.04544,63.7536,61.97786,59.04359,57.20778,54.2096,51.3399,48.29023,45.75862,41.888,39.95048,36.17079,33.52445,30.69806,27.61277,24.85547,22.14634,19.45953,17.05531,14.59371,12.01234,10.20579,7.52013,5.671562,2.708293,0.7627534,-1.600033,-3.820104,-5.032849,-7.359602,-8.811171,-9.883407,-11.87461,-12.43834,-13.68251,-14.38111,-14.66118,-15.58041,-16.06689,-16.78688,-16.95942,-16.98404,-17.60275,-17.84758,-18.13853,-17.75904,-18.27563,-18.2203,-17.85974,-18.402,-17.78542,-18.04894,-17.82716,-18.09483,-18.33313,-17.90548,-18.73722,-18.65393,-18.79474,-18.88833,-19.28312,-19.47689,-20.08776,-20.26208,-20.74779,-21.00298,-21.11893,-21.9067,-22.16385,-22.56963,-23.28533,-23.64863,-23.89683,-24.17562,-24.42119,-24.51659,-25.48133,-25.74731,-26.10155,-26.23027,-26.06062,-26.64944,-26.60769,-26.66719,-27.42912,-27.25032,-27.72315,-27.52719,-28.39706,-28.49449,-28.98668,-29.14836,-29.58026,-28.80669,-29.26774,-29.14322,-29.38195,-29.73307,-29.60835,-29.94748,-30.40551,-29.64575,-31.36228,-31.01145,-32.49878,-32.41071,-33.69169,-34.08374,-35.2503,-35.95465,-36.40698,-37.23107,-38.09505,-39.0668,-39.64499,-40.76429,-41.60919,-42.82604,-43.79956,-44.25083,-45.27772,-46.50878,-46.74295,-47.50014,-48.429,-49.02464,-49.46837,-50.22463,-50.78601,-52.04465,-51.86932,-52.82948,-53.74837,-54.24766,-54.70409,-54.52434,-55.3326,-55.45499,-55.05405,-55.51452,-54.78614,-54.5391,-54.63898,-54.91354,-54.67022,-55.29975,-55.35958,-56.09399,-56.51624,-57.34936,-57.3591,-57.98823,-58.82814,-59.49841,-59.71778,-59.88779,-60.24067,-60.62077,-60.70201,-60.77625,-60.09623,-59.68056,-59.43071,-59.02382,-57.55121,-55.97696,-54.90937,-52.70096,-51.21611,-48.98745,-46.90265,-44.44621,-41.5037,-38.65234,-35.62593,-32.40928,-28.96611,-26.01292,-22.07151,-19.01107,-15.33184,-11.63176,-8.284032,-4.391193,-0.6979426,2.958316,6.784386,10.82522,14.42463,18.60711,22.39009,26.01988,30.0611,33.37655,36.46849,41.1327,43.76316,47.82099,51.16465,54.12294,57.87831,60.76073,64.26192,66.70804,69.37763,71.91954,74.29099,76.04209,78.08594,80.51248,82.23685,84.56184,85.29995,86.98408,87.91846,89.18986,89.56374,90.51008,90.62454,91.50495,92.1557,91.73988,92.34833,92.06558,91.89607,91.05104,90.59958,89.75524,89.68098,90.31914,89.72535,90.63102,91.00945,91.03243,91.98914,92.64593,94.48027,95.56695,97.22818,99.21427,101.5601,103.5741,105.9122,108.4983,111.2856,114.3244,116.4459,119.7128,122.3281,124.6967,127.0987,128.439,129.4737,130.0123,131.0384,130.115,130.6101,129.3585,127.8331,126.1585,124.6095,122.2083,119.441,116.5551,113.5951,109.7849,106.1812,101.9761,97.53923,93.00223,88.61034,83.21771,78.18278,72.71759,67.5294,61.68228,56.23506,50.91199,44.84657,39.59151,33.37935,28.51706,22.59196,16.88204,11.59579,6.199759,1.036415,-4.278266,-8.748959,-14.26175,-18.44547,-23.2108,-27.44449,-31.59515,-35.18342,-39.01557,-42.19355,-45.07609,-47.41214,-50.14079,-52.4922,-54.05018,-55.71842,-56.89223,-58.13038,-58.00352,-58.67633,-58.30823,-58.56434,-58.2399,-57.8173,-56.32587,-55.81197,-54.67669,-52.56701,-52.15271,-49.70165,-47.91407,-45.86421,-44.12168,-42.17641,-40.64502,-38.74299,-37.28529,-35.92096,-34.2578,-32.73006,-31.83373,-30.39704,-29.33831,-28.68463,-28.32961,-27.61311,-28.1291,-28.05339,-28.74535,-28.18616,-28.36958,-28.04367,-28.39335,-28.70075,-28.90359,-28.49025,-29.45859,-29.38297,-30.13659,-29.38158,-30.1845,-30.66693,-31.19412,-31.71011,-31.90766,-31.9219,-32.85152,-33.25427,-33.63465,-34.33423,-34.21349,-35.05259,-36.01269,-36.66771,-37.32699,-38.28604,-38.8759,-39.75322,-40.70418,-40.88348,-41.88985,-42.40735,-43.03037,-43.48708,-44.099,-44.43191,-45.20698,-45.89225,-46.21431,-46.5062,-46.95238,-47.00096,-47.34216,-47.15742,-48.1099,-47.45689,-47.96623,-48.06032,-47.94399,-47.91725,-47.57775,-47.94878,-47.27293,-47.66717,-46.17546,-46.41604,-44.98242,-44.94247,-43.94562,-43.31235,-42.37697,-41.25902,-40.68031,-39.32728,-38.87021,-37.49642,-36.56602,-35.38955,-34.60817,-33.23338,-32.02023,-30.28406,-29.82758,-27.84425,-26.72749,-25.33985,-23.69699,-22.91269,-21.36786,-20.5823,-19.60623,-18.14297,-17.4629,-16.12017,-14.97041,-15.03125,-14.18059,-14.20534,-14.04325,-13.4882,-13.3808,-13.62438,-13.59061,-13.50228,-14.26643,-13.98974,-14.76348,-14.66998,-15.18055,-15.75099,-15.91968,-15.67899,-16.30919,-16.33601,-16.93948,-16.7569,-16.79065,-16.83117,-17.28865,-16.83663,-17.20016,-17.0224,-17.20374,-17.04493,-17.68202,-17.56072,-18.08817,-18.63635,-18.23917,-18.31028,-19.02872,-18.43858,-18.4686,-18.27181,-18.32409,-17.56345,-18.82322,-17.3194,-18.20766,-17.09494,-17.38903,-17.46104,-16.84,-15.54244,-14.71984,-14.22932,-13.90928,-13.33525,-13.68508,-12.99369,-13.66195,-13.32986,-14.19034,-14.25297,-15.40654,-15.27615,-15.85085,-16.16613,-16.12796,-16.93741,-16.87742,-17.05723,-17.65445,-17.81758,-17.90238,-17.8864,-18.07441,-18.03288,-17.93214,-17.90863,-17.43308,-17.01222,-16.3227,-16.08345,-14.64806,-14.49482,-12.7927,-12.11464,-11.03044,-9.878923,-8.859044,-7.143143,-6.54495,-4.613544,-4.217137,-1.899135,-0.9395663,1.099319,2.563229,4.174961,5.90576,8.143964,9.272312,11.6448,13.06688,14.83096,16.84813,18.75862,20.85943,22.49789,24.96049,27.35115,29.19084,31.56131,33.16783,35.12504,36.58438,38.75123,40.84243,42.36786,44.46985,45.95212,47.78405,49.42738,51.18892,52.66744,54.06484,55.70313,56.7725,58.35822,59.92793,60.34949,62.40289,63.02358,64.15199,65.55913,66.59767,67.04354,68.48689,69.38092,70.07801,71.03759,71.8791,72.91391,73.51198,74.30966,75.42531,75.86483,77.51066,77.84062,78.89276,79.85171,80.37466,81.14918,82.19933,83.21931,83.35681,85.10749,85.38512,86.36707,86.99134,87.90804,89.16479,89.76126,89.393,88.76122,88.34937,87.52758,86.40987,85.1592,83.40038,82.00179,79.36904,77.67624,74.87357,72.79105,69.82223,66.61246,64.22154,60.66955,57.87189,53.72378,50.87456,47.00365,43.71295,39.12165,35.46856,31.90999,27.77163,23.79603,19.88494,15.89163,11.88603,8.384891,4.919052,1.31025,-2.014165,-5.51366,-8.827223,-11.63807,-15.03223,-16.9921,-19.90988,-21.73288,-24.15761,-25.86798,-28.28248,-29.52066,-31.64805,-33.02353,-34.39908,-35.89212,-36.70009,-38.09483,-38.32837,-39.17215,-38.74644,-38.70446,-38.7157,-38.58365,-37.46588,-37.66993,-36.47096,-36.25344,-35.13361,-34.3012,-33.61674,-31.77618,-31.77104,-30.13554,-29.35929,-28.26161,-27.14361,-26.16889,-25.13788,-24.88474,-23.86845,-23.26596,-22.69743,-22.65135,-22.06681,-22.58931,-21.31163,-22.44102,-21.31351,-21.59072,-21.8798,-21.50327,-21.29836,-21.87094,-22.06274,-22.7217,-22.94491,-23.10277,-24.18136,-24.44746,-25.23838,-25.67599,-26.70274,-26.96212,-27.71767,-28.57973,-28.53258,-29.41548,-29.43506,-30.2242,-30.41705,-30.56368,-30.91908,-31.63922,-31.05173,-32.2986,-31.99294,-32.0393,-32.17745,-32.32973,-32.26997,-32.45951,-31.9722,-32.21113,-31.32058,-31.77184,-31.12974,-30.68289,-30.89018,-30.38853,-29.82503,-29.47955,-29.03811,-28.85531,-28.86962,-28.14195,-27.82791,-27.77827,-26.93577,-27.45325,-26.66502,-26.46922,-26.44763,-26.48383,-25.96465,-26.10565,-25.33706,-24.7896,-24.54958,-24.32125,-24.14727,-23.67986,-23.35615,-23.18137,-22.80584,-22.18872,-22.4098,-22.10253,-22.26708,-22.41101,-22.37051,-22.24623,-22.67063,-22.29729,-22.94464,-22.862,-22.54351,-23.20618,-22.17739,-22.98647,-22.90887,-22.96767,-23.22418,-23.36858,-23.21565,-24.14162,-23.29595,-24.31111,-23.36498,-24.02508,-24.30331,-24.1208,-25.49475,-23.99254,-25.22922,-24.79461,-25.11934,-25.03932,-25.04096,-25.4168,-25.3274,-25.57388,-25.16018,-25.34579,-25.23015,-25.42061,-25.23912,-25.27409,-25.14277,-24.95336,-25.02626,-24.41248,-25.0485,-24.73172,-25.36133,-25.7313,-25.89421,-26.31817,-27.14205,-27.06256,-28.21533,-27.71829,-28.70195,-27.79744,-29.06338,-29.33217,-29.62326,-30.50802,-29.84063,-31.0096,-31.2137,-31.79485,-32.3326,-32.88506,-33.17762,-33.97405,-33.93555,-34.41036,-34.61489,-34.78736,-34.96161,-34.58254,-34.54247,-33.81745,-33.67114,-33.26396,-32.22177,-31.7935,-30.46237,-29.49526,-27.92215,-26.6252,-24.921,-22.64411,-21.04162,-18.50626,-16.66086,-13.8393,-11.46557,-9.465919,-6.173205,-3.897686,-0.9743746,2.232012,5.072543,8.245097,11.06189,14.35042,17.09676,20.54663,23.28002,26.36829,28.93158,32.40357,35.07381,38.07221,40.56372,42.6118,45.7533,47.99209,50.7789,52.77214,55.5108,57.12736,60.00661,61.56973,63.77991,64.97458,67.66308,68.29929,70.46797,71.81785,72.97598,74.23085,75.32839,75.86231,76.83722,76.74351,77.41399,77.24911,77.11514,76.88993,76.37476,76.48136,75.7842,75.14489,74.12975,73.48407,72.87857,72.13775,71.10507,69.65982,68.4677,66.91242,66.46646,65.09414,64.59036,63.15793,62.81239,62.49038,61.62449,61.1441,59.9703,59.92423,59.33591,59.28278,58.74801,58.84146,58.70634,58.35085,58.8422,59.13348,58.8578,59.19225,58.69792,59.12138,58.95556,58.73324,59.08246,57.09997,57.36827,56.65621,55.567,54.4103,53.3555,52.41944,50.72916,49.06796,48.05534,45.44082,44.42684,42.01817,39.66561,37.51487,34.79438,32.32747,29.76489,26.70717,23.49627,20.94783,17.83009,14.78809,11.49142,8.579365,5.429206,2.212084,-0.4975162,-3.978442,-6.82938,-9.622874,-11.9659,-15.37455,-17.03958,-19.78749,-22.90076,-24.60495,-28.13383,-29.23748,-31.99646,-33.50592,-35.60657,-37.78829,-39.77882,-40.81608,-43.05847,-44.01836,-46.1996,-47.32385,-48.18615,-49.32381,-50.12827,-50.9827,-51.83927,-52.53193,-52.39427,-52.97738,-52.99153,-52.74555,-52.26355,-52.16735,-51.19588,-50.56146,-50.06173,-49.10559,-48.00645,-47.30735,-46.37693,-45.6795,-44.12735,-42.98857,-42.1226,-40.96754,-39.93341,-38.59344,-37.34724,-36.55978,-35.55967,-34.78642,-33.8694,-33.23218,-33.02518,-32.76097,-32.21505,-31.58034,-30.57082,-30.63715,-29.64307,-30.35069,-28.98835,-29.3181,-28.60958,-28.84425,-28.9093,-28.57896,-28.87724,-29.32793,-29.40203,-29.96188,-29.84565,-30.21088,-29.39269,-29.87465,-29.93058,-29.66712,-29.35041,-28.52693,-27.87103,-27.7203,-26.84629,-26.99205,-25.29592,-24.62462,-24.39974,-23.2821,-22.90764,-20.88056,-20.80824,-19.07216,-18.56473,-17.3502,-16.19057,-16.19571,-14.97099,-14.50979,-13.67372,-13.32805,-12.30636,-12.82199,-11.60031,-10.57003,-9.8592,-9.430243,-7.875432,-7.742594,-6.499687,-6.223829,-4.658844,-3.947746,-2.974069,-1.702351,-0.7174086,0.5011068,1.514277,3.05632,3.550364,5.850263,6.473946,9.526062,10.18503,12.02801,12.71188,13.53547,15.1433,15.45402,16.42019,17.1727,17.45705,18.75398,18.339,20.22526,19.54545,21.04803,20.11742,21.82162,21.62661,22.12659,22.21573,22.26804,22.54217,22.66135,23.1965,23.49768,23.63118,23.9245,24.60548,24.18871,25.7085,25.51203,26.75973,27.02833,27.86033,28.69554,29.2868,30.36898,31.14723,32.08811,32.87788,33.75806,35.30105,36.65795,38.32456,40.55345,42.75229,45.46946,48.56685,50.92784,54.0643,56.27752,59.46181,61.56479,64.44927,65.87434,66.95023,69.7391,70.0511,72.35128,73.57425,75.36721,77.24112,78.39557,80.17127,81.66224,84.22435,85.5529,86.79773,87.88514,87.95691,87.78374,87.36573,86.50904,85.39561,83.86943,81.76928,79.9054,77.02097,75.08922,71.27018,68.4597,63.9682,60.49832,55.69122,51.7695,46.87046,41.67832,36.61922,30.86462,26.32947,20.51282,15.6865,9.85098,4.684407,-1.666078,-6.166446,-13.27272,-17.93221,-24.19802,-28.64039,-34.5529,-39.27209,-43.90272,-48.29165,-52.33917,-56.26146,-59.57361,-63.88463,-66.07734,-69.56824,-71.71293,-75.5396,-78.13404,-80.262,-82.61746,-83.94178,-86.14011,-86.78389,-88.17691,-88.66063,-89.14566,-89.68213,-89.26151,-90.02601,-89.00197,-89.23466,-87.86476,-87.91612,-86.83093,-85.58337,-84.59641,-82.57194,-81.48797,-79.61998,-77.93871,-75.94988,-74.51177,-73.16259,-71.94829,-70.36802,-69.84078,-69.00632,-68.73214,-68.08393,-68.23281,-68.50971,-68.66904,-69.44121,-70.09856,-70.74625,-71.41498,-71.91483,-72.03617,-72.76907,-73.02357,-73.52522,-74.05249,-74.52337,-75.34308,-76.11587,-77.2387,-77.09395,-78.59673,-78.56889,-80.06645,-79.97226,-79.26856,-79.9211,-78.05283,-77.38437,-74.98556,-73.34869,-70.6478,-68.03626,-64.61701,-61.04203,-59.47535,-55.53355,-52.74017,-48.76429,-45.6193,-41.25855,-37.42047,-33.27218,-29.22339,-24.53688,-20.27077,-15.58894,-11.4377,-6.233919,-1.735229,2.401903,7.33816,11.81545,16.18845,20.25149,24.28497,28.13918,31.8849,36.14322,39.18579,42.14425,45.30105,47.88988,49.92879,52.69151,53.80346,55.59221,56.70407,58.09564,58.41344,59.56864,58.99447,59.33673,58.81434,58.11786,57.39292,55.94946,54.7406,53.0617,50.97498,49.04497,46.78039,44.52045,41.48074,39.72076,36.16223,33.3926,30.18951,26.96384,23.63978,20.56365,17.18215,13.99545,10.87976,7.767295,5.914424,2.600973,1.251524,-1.207435,-1.990377,-3.580248,-4.567764,-5.862425,-5.797376,-7.129256,-7.336906,-8.127797,-7.544367,-8.139449,-6.690924,-7.31989,-5.378246,-5.537515,-4.058198,-3.412772,-1.993911,-0.912627,0.4394984,1.595576,3.076553,4.469117,6.149582,6.545945,8.777848,9.684007,11.53193,12.41425,13.49657,14.4013,16.31867,17.54098,18.38885,19.35746,19.82411,21.06815,21.49449,22.57654,23.24784,23.81305,24.72449,25.00884,25.72598,25.72984,25.99506,26.13984,26.01946,26.81108,26.54489,26.47541,26.81497,27.03735,26.32349,26.53127,25.901,26.37159,25.89778,25.7205,24.91908,24.80709,24.54476,24.1489,24.32865,23.92557,23.83192,24.04566,23.83862,24.33361,23.95595,24.9503,24.77765,25.20178,26.17244,25.99497,26.69293,27.1537,27.06812,27.56913,27.36618,27.75804,27.20983,27.67316,27.01156,27.37018,27.27789,27.12037,27.35846,26.72364,27.27143,26.16085,26.32522,26.16866,25.90765,25.08568,25.1224,23.9729,23.09697,22.5757,21.3656,20.59561,19.71844,18.95382,18.04484,17.16092,17.22977,15.99218,16.46754,14.65665,15.13103,13.68122,14.08289,12.92956,12.50298,12.26433,11.96988,11.34303,12.00089,11.55571,12.1794,12.4293,12.93698,12.91068,13.71349,13.10481,14.18696,13.56267,14.21087,14.55124,14.79445,14.64722,15.2429,15.63325,16.15173,16.3147,17.01253,17.40353,18.22883,18.06159,19.07777,19.28104,20.29193,20.33138,21.23017,21.33485,22.53894,22.78789,23.62163,24.3257,24.64809,24.85973,25.54694,25.4168,25.92649,25.61159,25.54576,25.3512,25.23633,24.90028,24.07888,23.30984,22.81035,21.11562,20.42084,19.0051,17.03579,15.22191,13.15337,11.14061,9.40694,7.060884,5.214828,2.525912,0.5113097,-2.04189,-4.127562,-6.834819,-8.902827,-11.06985,-13.58521,-15.55529,-18.09527,-19.81877,-21.76572,-24.07113,-26.2779,-28.71452,-30.7843,-32.85596,-34.90188,-37.10034,-39.24651,-40.61271,-42.75549,-43.94907,-45.9,-48.24342,-49.35576,-51.25489,-52.81348,-54.64602,-55.40834,-57.48021,-58.1276,-60.22829,-60.1063,-62.40938,-61.93839,-63.46391,-63.34975,-64.33168,-64.32233,-65.23981,-64.54836,-65.26125,-64.23708,-64.88111,-64.108,-64.36204,-63.24944,-62.47059,-61.84496,-60.871,-59.9569,-57.5647,-57.14568,-55.02599,-54.33101,-52.95114,-51.88544,-51.40341,-51.12327,-50.02331,-50.43999,-49.92063,-49.57857,-49.84813,-49.55948,-49.39792,-49.69125,-49.60981,-49.5187,-49.14144,-49.27512,-48.88775,-48.35354,-47.85765,-47.71013,-46.84281,-45.86741,-44.48745,-43.16208,-42.24505,-39.81774,-38.20038,-36.0456,-33.72821,-31.02188,-28.31016,-25.35355,-22.52439,-18.8708,-16.14623,-12.33402,-8.834055,-5.905581,-1.999604,1.884633,5.8012,9.38858,13.23794,16.59929,21.14566,24.67495,28.91264,32.05641,36.12137,39.89955,43.61058,47.22291,50.24557,53.57569,55.407,58.88013,60.98671,63.97176,66.32662,69.15899,71.54002,74.05802,75.82624,78.63533,79.71401,82.30886,83.23726,84.82757,85.73795,87.03478,87.59745,88.58465,88.58053,89.29388,88.41453,88.53551,87.23457,85.98298,84.80939,83.3651,81.43965,79.98177,77.40041,75.79468,72.42501,71.55263,67.97113,66.04802,62.07628,59.64747,55.18427,53.25339,48.48723,45.74073,41.43926,38.70939,35.12412,32.669,28.28694,26.29599,23.31405,21.33638,18.68195,15.81975,14.24709,11.67083,10.4161,6.897124,5.433113,2.18395,0.660537,-2.101081,-3.572533,-6.069941,-7.986796,-10.72285,-12.65373,-14.53979,-16.93878,-18.89051,-20.72542,-22.54402,-24.18131,-26.12692,-27.6844,-29.86297,-31.14496,-32.94452,-34.55047,-36.26541,-36.8208,-38.74887,-39.42184,-42.14675,-41.96899,-43.06366,-42.8083,-43.78597,-43.14148,-43.5056,-42.82098,-42.35028,-41.60034,-39.96868,-39.56649,-37.79352,-37.14038,-35.67261,-33.7107,-32.54848,-30.75411,-29.88065,-27.63374,-27.13371,-24.68746,-24.43623,-21.63485,-21.92026,-19.21921,-18.91822,-17.23889,-16.3806,-15.51859,-15.34377,-14.76303,-12.92752,-13.17367,-11.65671,-11.20111,-10.41289,-9.23211,-9.360926,-8.286075,-8.420489,-8.198078,-7.673762,-7.923434,-7.517449,-7.783151,-7.77412,-7.836649,-7.533029,-7.904256,-8.138343,-9.333729,-9.550982,-10.57759,-11.24981,-11.80884,-13.28474,-13.59056,-14.67899,-15.46091,-16.33977,-17.14552,-18.41962,-19.89484,-20.93641,-21.87321,-23.91171,-24.49965,-26.24952,-27.31319,-28.78142,-29.57828,-31.21287,-31.64567,-32.94033,-33.73903,-33.75815,-35.35221,-35.68793,-36.56815,-36.75642,-37.03767,-37.87585,-37.82567,-38.38902,-37.7633,-38.58473,-37.50627,-38.01264,-36.88288,-37.32406,-35.96194,-36.51659,-34.5614,-34.19824,-32.9892,-32.21924,-30.85181,-29.84163,-28.42153,-27.79121,-26.98055,-25.91007,-24.76996,-23.78305,-22.5764,-21.90062,-20.69986,-20.66061,-19.19605,-18.80811,-17.44579,-17.05431,-16.19272,-16.14389,-14.41268,-14.40143,-13.7136,-13.18477,-12.94049,-12.16064,-12.34813,-12.59331,-12.56448,-12.79978,-13.0005,-12.9791,-13.60096,-13.32692,-13.66298,-13.22148,-12.15614,-12.39461,-10.79916,-10.85995,-8.851422,-8.831207,-7.016455,-6.053305,-4.979184,-3.061304,-1.890429,-0.2910329,0.9730407,3.067248,5.298784,7.081373,9.460804,10.65143,13.59937,14.57464,17.31543,19.09691,21.17161,23.06328,25.28702,27.14697,29.44023,31.08141,33.17289,34.62073,36.16662,37.93678,39.0528,40.6,41.12226,42.85806,43.53706,44.69523,45.54886,46.21677,47.58464,46.92083,48.64705,47.97356,48.31451,47.8148,47.95778,46.80003,47.06597,45.88875,44.49883,43.55986,42.82698,41.89521,41.12188,40.38904,39.37162,38.40683,38.22213,36.01087,35.98658,33.80789,34.16332,32.31271,32.39171,30.78348,30.91049,29.58584,30.07262,29.15839,29.2755,27.84901,28.37573,27.53102,28.53489,28.25353,29.22194,28.86697,30.27842,30.23386,31.75862,32.72341,33.90579,35.50083,36.83434,37.95075,39.47987,40.94394,42.06282,43.38072,44.04013,45.63505,45.89279,47.00384,47.16449,46.92158,46.75281,47.13132,46.08787,46.52719,44.98936,44.33057,43.32711,42.01715,41.14296,40.06268,38.35208,37.85481,35.67579,35.02007,32.9357,31.19144,29.53651,27.31362,25.82985,23.29491,21.50716,19.00284,16.35842,14.769,11.60535,9.848522,7.280578,5.250118,3.305118,0.8129446,-0.7423954,-3.496921,-5.212039,-7.168818,-8.792933,-10.52952,-12.4064,-13.55071,-15.07188,-15.41731,-17.36701,-17.58318,-18.92891,-19.7234,-20.78892,-20.86392,-22.29577,-21.97316,-23.27451,-22.13219,-23.32448,-22.7569,-22.97524,-22.77227,-23.28131,-23.25333,-23.06789,-24.04107,-23.38541,-24.35413,-23.66587,-24.76199,-24.75923,-25.27288,-25.77277,-24.98752,-25.38096,-25.16062,-24.89593,-25.36532,-24.85246,-25.42053,-24.66336,-26.09309,-24.2889,-25.45051,-23.83867,-24.97918,-23.85635,-24.64803,-23.99815,-24.40843,-24.5393,-24.73274,-24.7355,-25.16536,-24.7422,-24.58019,-24.91011,-24.61761,-24.74101,-24.77537,-23.88205,-24.76197,-23.81897,-24.1765,-23.80851,-23.09785,-24.00679,-22.62186,-23.12688,-22.25694,-22.71736,-21.91759,-22.36243,-21.08415,-21.44805,-20.65365,-20.5567,-20.08126,-19.69673,-19.01139,-18.70049,-17.90313,-18.07586,-16.94772,-16.63997,-16.38821,-15.69854,-15.13361,-14.96451,-13.50391,-14.3307,-12.81836,-12.98422,-11.9569,-11.89567,-11.25853,-11.18735,-11.04966,-10.13817,-9.994665,-9.497437,-8.262758,-8.473025,-7.242766,-6.899728,-6.376386,-6.066923,-5.389562,-4.709245,-4.489692,-3.852016,-3.267332,-2.829219,-2.212445,-1.68584,-1.508446,-1.12172,-0.5143518,-0.6406525,0.5007066,0.1151189,1.054615,1.033164,2.211532,1.64033,2.916627,2.7001,3.318071,3.838804,3.725997,4.518607,4.028715,5.103806,5.699575,5.67762,6.036532,6.384979,6.662236,7.607927,6.949195,7.715817,7.531309,7.861908,8.090853,8.771014,8.733626,9.185869,8.97866,10.10724,9.491259,10.64721,10.44094,11.24535,10.93709,11.70907,11.51542,12.24095,12.0862,12.85119,13.37136,13.7984,14.67099,14.88993,15.77537,16.34641,16.85836,17.79388,18.43404,19.6059,20.15851,21.37909,21.68278,23.49727,23.9147,25.1219,26.02359,26.86457,28.55253,29.21208,30.35081,31.08036,32.2493,32.80633,34.97076,35.31813,37.0475,37.26165,39.29543,40.23072,42.01293,43.36418,44.47672,46.08482,47.37826,48.84324,48.97479,51.19029,50.7106,52.5789,52.45987,53.17,53.21042,54.25172,53.52315,54.22024,53.26484,53.32461,53.25519,53.33178,52.28128,52.01418,51.46017,50.02564,49.53648,48.3262,47.29681,45.71879,44.68019,42.5458,41.34546,38.56746,37.5845,34.58589,33.33648,30.49884,28.95513,26.17104,24.60384,21.93677,19.94105,17.30778,15.17954,12.6851,10.73818,8.448989,5.935708,3.380814,1.018869,-1.158072,-4.075038,-5.654148,-8.303513,-9.832576,-12.65046,-14.24613,-17.12998,-18.72974,-21.10355,-22.9281,-24.76186,-27.1488,-28.37129,-30.91254,-31.55257,-33.98615,-35.17164,-37.49065,-38.47932,-40.24303,-41.58047,-42.82655,-44.39142,-46.48277,-47.38917,-48.45292,-50.01804,-51.1831,-52.48966,-53.3888,-54.31114,-55.6464,-56.01447,-57.56706,-57.6994,-58.53181,-58.37978,-58.53852,-58.52836,-58.91511,-59.49403,-60.11203,-61.1702,-61.96009,-64.31541,-64.99456,-67.47992,-68.1921,-71.36339,-72.21604,-75.65994,-76.16673,-79.44121,-80.58989,-82.46358,-83.85934,-85.50855,-86.82392,-87.60528,-88.98129,-89.40378,-90.05907,-90.53708,-90.97163,-91.12779,-90.54041,-90.88724,-89.36625,-89.59437,-87.93109,-86.95173,-85.21944,-84.42981,-81.4336,-80.81703,-77.58574,-75.72859,-73.06141,-70.02775,-67.26823,-64.25751,-60.31796,-56.85752,-53.26765,-49.44944,-45.1904,-41.63243,-37.73807,-33.38694,-29.86093,-25.18421,-21.29802,-16.80238,-13.10519,-8.396943,-4.577503,0.2301988,3.379927,8.438005,11.13999,16.09166,19.03733,22.88101,26.17909,28.74235,31.52721,33.92439,36.42222,37.93113,40.53793,40.95774,43.88794,43.73664,45.34453,45.04675,46.48956,45.45411,47.18781,45.17455,46.3754,44.41822,44.37184,42.75568,41.81845,40.52046,38.70175,37.27316,35.3986,33.37865,31.27874,29.14953,27.23669,24.61091,22.41693,20.22746,17.98711,16.15693,14.32922,12.58655,11.25956,9.821252,9.274567,8.501831,8.051539,8.065851,8.331399,8.289268,9.087349,8.392733,8.316479,8.69187,8.814395,9.285563,9.378283,9.19517,10.659,10.68071,11.85888,11.89005,13.30658,12.98642,14.59473,15.13112,15.79548,16.70634,17.06313,18.39891,19.04,20.27219,20.89232,22.14509,22.42699,23.80769,23.80311,24.70728,25.46559,25.62451,26.80067,26.2806,26.65438,26.93157,27.02713,27.12644,27.27566,27.21446,27.1759,27.58611,26.89027,27.27317,26.46684,26.87811,26.72932,26.52551,25.88576,25.8868,25.24659,25.27455,25.00161,25.21099,24.25796,24.98038,24.7845,24.17983,25.06709,24.27624,25.30341,24.69135,25.40743,25.45587,24.95107,25.93926,25.27918,25.67299,25.68546,25.23893,25.59982,25.78563,25.13143,25.24738,24.91364,23.87948,24.59834,22.74271,23.38905,21.63234,22.51452,20.51698,21.44782,19.27659,20.09715,18.27127,18.90364,17.85972,17.81041,16.92802,16.36216,15.75255,15.10214,14.2147,13.54983,13.26506,11.91555,11.51118,10.7313,9.9109,9.298525,9.316766,8.580554,8.184626,7.880097,6.677064,7.526438,5.78445,6.383237,4.701175,4.799052,4.304398,4.81553,3.575105,4.161472,3.454407,4.075453,3.427063,4.303403,3.342896,4.331703,4.261262,4.344098,5.084645,4.95452,6.179402,6.38358,8.034666,7.736241,10.45626,10.22407,12.36966,13.38581,14.78944,16.29181,17.5581,19.20341,20.77934,22.12291,24.20659,25.32797,26.68964,28.39438,29.14481,31.23236,31.82694,33.83024,34.80145,37.01746,38.58257,40.09652,41.84459,44.30175,45.52034,48.1062,49.46406,51.42936,53.01574,54.31686,56.00723,56.82594,58.31709,58.91617,60.39296,60.41459,61.5255,61.19935,61.82704,61.81618,61.2576,61.00827,59.93902,59.77434,57.83708,56.53841,54.82062,52.91598,50.59059,48.71593,45.24589,42.42137,39.01847,35.296,31.91285,27.64088,23.44857,19.18957,14.90048,10.56319,6.009978,1.467463,-3.421615,-7.346044,-12.60924,-16.47697,-22.05403,-25.91685,-31.08005,-35.75253,-40.49604,-44.90881,-49.37816,-53.6678,-57.36735,-61.82531,-64.75527,-69.51398,-70.85099,-75.22234,-76.68873,-79.69674,-80.66113,-83.76493,-84.84951,-86.37713,-87.37376,-87.97944,-89.89561,-89.99866,-91.69447,-91.61484,-92.12401,-93.09531,-93.27675,-94.51117,-94.45171,-95.60506,-95.29319,-95.94429,-96.12246,-96.65592,-96.35837,-97.24968,-96.82102,-97.21817,-96.69709,-97.28296,-96.80973,-96.48895,-96.7314,-96.18522,-96.59409,-94.51076,-94.86544,-93.45864,-93.31668,-92.07881,-91.41047,-89.85073,-89.45279,-88.58077,-88.0725,-86.54386,-85.46082,-84.1827,-82.90353,-80.53428,-78.48455,-75.53263,-73.44336,-70.64291,-67.4577,-64.13283,-62.66625,-57.68333,-56.12043,-51.51534,-48.47308,-44.71854,-40.71494,-37.33842,-33.56636,-29.32374,-25.06558,-21.243,-17.48679,-13.60304,-9.115231,-5.458856,-1.450506,2.398864,6.212285,10.27404,13.59929,17.82254,20.70565,24.50677,27.17883,30.66491,32.99299,35.78291,38.06797,40.09709,42.26627,43.85253,44.91493,46.39862,47.37726,47.98457,48.70804,48.02663,48.67408,47.95142,47.62327,47.11549,45.63918,45.24212,43.60735,43.2975,40.90089,41.14698,38.44612,38.31751,36.9563,36.15036,35.04804,34.29182,34.03456,32.8931,33.11416,32.34412,32.71303,31.81608,32.98771,32.65332,32.97895,32.34366,32.66896,32.73118,32.79127,32.93158,32.61056,32.05298,32.53803,32.07197,32.94456,31.80347,32.68331,32.19145,32.10754,31.35256,31.64159,30.58759,30.31008,29.54828,29.17572,28.00301,27.388,27.10021,25.73308,26.10061,23.86986,25.14371,22.81316,22.79912,21.8715,20.94238,20.53943,19.03226,18.40324,17.06486,15.48456,15.56896,13.97733,13.05702,12.16423,11.11528,10.69404,9.773602,8.670166,8.40932,7.025978,6.634252,6.005403,6.86333,4.942035,5.457061,4.118725,4.103402,3.517679,2.629504,2.719223,2.024981,2.027924,1.487526,1.185505,0.7351227,1.366035,0.9505334,1.715646,2.319048,2.288828,3.265826,3.910156,4.662495,5.877131,6.349741,7.834516,8.581061,10.10916,10.45549,11.83138,12.73568,13.85658,15.19597,15.57536,16.51858,17.50375,17.753,19.16422,18.85642,20.37516,19.80793,21.43909,21.01436,21.55918,21.16123,21.58013,21.53799,20.90145,22.25286,20.42531,21.56387,19.9782,20.00132,18.87785,18.54155,17.34122,16.6733,15.89522,14.58551,13.59393,12.08562,11.01364,9.723141,8.250283,6.818371,5.361973,3.495658,1.907648,0.6117795,-1.25496,-2.8659,-4.317245,-5.88388,-7.444534,-9.511031,-11.04922,-12.31548,-14.9943,-15.41343,-18.1569,-19.16849,-21.55315,-22.79312,-24.60709,-26.16819,-27.89684,-28.95553,-30.5954,-31.56128,-33.41929,-33.90404,-36.33481,-36.38007,-38.29082,-38.6731,-39.88949,-41.69884,-40.9952,-42.93479,-42.70474,-43.54107,-44.19483,-44.51502,-44.66381,-44.05627,-44.55383,-44.13312,-44.36642,-43.20405,-43.88692,-42.29348,-42.55232,-42.00372,-41.89063,-41.86738,-41.81559,-41.21669,-40.99993,-40.70117,-39.04793,-39.51971,-38.29563,-38.37743,-37.11748,-36.97711,-35.86107,-35.74354,-35.11912,-34.49052,-34.58751,-33.64048,-33.61504,-32.97542,-32.52634,-32.86547,-31.95038,-32.22256,-31.40513,-31.25865,-30.41658,-30.42517,-29.66036,-28.72677,-28.46772,-27.39198,-26.98162,-26.74556,-25.43275,-25.17029,-23.95085,-23.4639,-22.23983,-22.00989,-20.11265,-19.31223,-17.50353,-16.66471,-14.19318,-13.04058,-10.93374,-9.516539,-7.791446,-5.588446,-3.845871,-1.437386,0.3011203,2.119235,4.805207,6.489304,9.314083,10.66912,13.4266,15.88958,17.74397,20.27974,22.61133,24.44527,27.44282,29.94104,31.95435,34.69953,36.48784,39.4421,40.93486,43.68443,44.93778,48.12682,48.62842,52.27543,52.36937,55.32407,55.56863,58.32397,58.85677,61.04806,61.52658,63.38603,63.64158,65.16832,64.80057,66.08404,65.47956,66.29133,65.9873,66.80227,65.88449,66.32415,66.69148,65.55507,66.46222,65.56461,66.30076,66.17232,66.80993,67.26294,66.60762,67.36449,67.33693,68.2919,67.89776,68.50372,68.43119,68.50194,68.39184,68.44635,68.57184,68.48602,68.70007,68.45995,69.19396,67.56719,67.50108,66.29009,65.82689,63.90854,62.89609,60.93367,59.76603,58.05874,55.68056,53.62245,51.35241,48.91114,46.00443,44.1814,40.40763,38.88549,34.63555,33.51681,28.55582,27.32018,22.45401,20.75167,16.11946,13.57602,9.395999,6.59242,3.248245,0.2854572,-3.572523,-6.117455,-10.06566,-12.29671,-15.452,-17.8363,-21.07945,-23.10058,-25.84519,-27.73172,-30.36709,-31.96479,-34.41148,-35.78529,-37.48262,-38.5203,-40.46419,-41.16074,-42.38591,-42.90971,-43.96672,-44.26244,-44.43454,-44.49835,-44.49128,-43.62954,-43.87365,-42.78449,-41.96967,-41.02123,-39.78905,-38.47938,-38.00365,-35.81299,-35.37118,-32.51291,-31.99404,-29.35925,-29.20877,-26.10638,-25.58757,-23.26596,-22.60605,-20.87009,-19.82055,-18.86754,-17.62414,-16.8984,-16.35048,-15.78712,-15.56539,-14.70051,-15.37646,-14.91518,-14.83619,-14.97071,-15.03029,-15.68044,-15.20709,-15.41132,-14.6595,-15.42161,-14.42801,-15.18965,-14.71213,-14.9136,-15.02875,-14.71875,-14.84391,-14.91576,-14.39062,-15.02113,-14.30106,-15.2983,-15.02526,-15.16684,-15.10627,-16.0132,-15.05588,-15.90314,-15.30068,-16.32245,-16.20422,-17.17277,-16.95926,-17.4015,-17.64475,-17.69698,-17.95827,-18.17831,-18.32735,-18.05408,-18.21914,-18.1822,-18.01949,-17.28894,-17.87407,-16.6507,-17.81033,-15.39807,-16.94313,-14.68622,-16.00401,-13.74932,-15.4655,-12.75825,-13.54329,-11.90599,-11.84634,-10.77846,-10.08937,-9.235286,-9.01218,-8.158448,-7.97526,-6.828079,-6.758879,-6.108226,-5.889862,-5.240774,-4.863681,-3.802039,-4.238878,-3.113692,-3.012067,-2.305172,-1.940936,-1.387319,-1.237354,0.1298405,-0.3003774,1.230188,0.6690113,1.655351,1.333026,2.151569,1.531549,2.763648,1.46333,2.663393,2.071014,1.924476,1.614077,1.14456,1.064442,0.9407429,0.3944437,-0.2457642,-0.7583224,-1.261001,-1.45377,-2.631755,-3.035214,-3.939655,-4.345342,-6.005917,-5.412543,-7.527521,-7.639252,-9.326633,-9.436052,-10.9357,-11.23079,-12.88797,-13.06666,-14.12283,-14.37937,-15.56672,-15.6218,-17.75151,-17.41303,-19.32413,-18.83831,-21.38971,-20.27491,-22.49387,-21.59594,-22.94519,-22.73348,-23.41403,-23.29508,-24.31752,-23.50488,-24.92525,-24.12026,-24.21584,-23.95781,-25.07461,-24.3116,-26.25645,-25.48972,-26.91874,-27.52683,-28.35798,-28.86328,-29.4714,-29.92916,-30.0748,-31.21635,-31.22906,-31.41899,-31.69246,-31.87119,-31.89439,-32.2637,-31.89062,-31.48994,-31.20175,-30.84344,-29.93163,-29.11336,-28.68612,-27.31704,-27.1703,-25.86439,-23.88057,-23.15902,-20.85884,-20.21516,-17.89394,-16.56711,-15.83378,-13.53083,-12.74364,-10.55065,-8.694443,-6.878797,-4.853563,-2.982735,-1.033759,1.302497,3.441568,5.32452,7.689355,9.127481,12.09512,13.32467,16.25093,17.56443,20.59197,22.14911,24.75647,26.26331,28.77309,30.19547,32.82174,34.32993,36.47894,37.6589,39.74412,41.11958,42.61804,44.32779,44.94492,47.13735,47.23145,48.77042,49.72459,50.32609,51.22495,51.49789,51.24181,51.51615,50.84962,50.56436,49.56664,50.01861,48.80336,49.31665,48.16743,48.85531,48.00351,48.63589,47.4223,48.35625,47.30723,47.87004,46.6782,46.93624,45.74524,46.77801,45.46629,46.42107,45.09268,46.01636,44.90801,46.0342,44.9361,45.45098,44.51487,45.25496,44.80406,45.57951,43.93446,44.87285,43.51653,43.84784,42.30036,42.88934,40.70527,40.9694,39.51829,39.17179,38.28359,36.665,36.10508,34.52607,33.88767,31.59547,30.8295,29.03449,27.68875,26.12089,24.45896,22.6127,21.18415,19.69259,17.78474,16.25474,14.35767,12.79662,10.56894,8.935183,7.166117,5.334765,4.451543,2.536498,1.583448,-0.6744463,-1.686287,-3.607832,-4.593567,-5.416095,-7.074179,-7.732269,-8.966624,-10.02869,-10.72063,-11.99325,-12.92914,-13.44792,-13.97913,-14.81817,-15.15194,-16.05454,-15.47176,-16.98004,-15.28329,-16.77232,-15.75082,-16.42063,-15.83212,-15.86513,-15.10995,-15.341,-14.60747,-14.42798,-13.82485,-13.57845,-13.04612,-12.74004,-12.66114,-11.44736,-11.9127,-10.92445,-11.60139,-10.89031,-10.69607,-11.31584,-11.22641,-12.52421,-12.75238,-13.66719,-13.79844,-14.7689,-14.59196,-15.19408,-14.66583,-14.98873,-14.87875,-14.56385,-14.69329,-14.31281,-14.37456,-13.80384,-14.45539,-13.13014,-14.34025,-12.68163,-13.93751,-12.62032,-13.62468,-12.36793,-13.31791,-12.31362,-12.78601,-12.78656,-12.74977,-12.33094,-12.65402,-11.91107,-12.60354,-12.04343,-12.48177,-11.60534,-11.69133,-10.99784,-11.11559,-10.24203,-10.78375,-9.589577,-9.56442,-9.41805,-8.951733,-9.083956,-8.670788,-8.945971,-8.475518,-9.239342,-8.438132,-9.081867,-8.929006,-9.546577,-9.562479,-10.22329,-10.54505,-10.96326,-11.23702,-12.31231,-12.19669,-13.30565,-13.54914,-14.2089,-13.8454,-15.09516,-14.31846,-15.9251,-15.40184,-16.3131,-16.13024,-16.54596,-16.52477,-17.13855,-17.16755,-17.34734,-18.06448,-17.84839,-18.05179,-18.1736,-18.40572,-17.84499,-18.69543,-17.63265,-18.5921,-17.85131,-18.93891,-17.93347,-18.43021,-18.54121,-18.93712,-18.5224,-19.3285,-19.07396,-19.46224,-19.89687,-20.21914,-20.52966,-20.55652,-21.04452,-21.32539,-21.62518,-21.91863,-21.32674,-22.73738,-22.07771,-23.77863,-23.01589,-23.98422,-24.31882,-24.96332,-25.03442,-25.9022,-25.66047,-26.2261,-26.47961,-26.73491,-27.45693,-26.80835,-27.72793,-27.30438,-28.59895,-28.29079,-28.82826,-28.21163,-29.43685,-29.39635,-29.63089,-29.89389,-29.45309,-30.14344,-30.33515,-30.15755,-30.54381,-30.45755,-30.73269,-31.71196,-31.75809,-31.62218,-32.00406,-31.83693,-32.31384,-32.09022,-32.47456,-31.2579,-31.45414,-30.29903,-30.62785,-29.48223,-28.76284,-27.61723,-27.17406,-26.26378,-25.79295,-24.64218,-24.43928,-23.34712,-23.06036,-22.38322,-21.124,-21.19284,-19.83062,-19.59146,-18.03614,-17.64408,-16.00636,-15.40894,-14.06957,-12.77317,-11.9542,-9.902894,-9.371983,-7.309137,-6.513837,-4.518248,-3.09987,-1.46146,-0.2191184,2.264395,3.338123,5.404335,7.122809,9.012267,10.54945,13.02358,14.2618,16.73929,18.77978,20.8962,23.09304,25.3444,27.11748,29.42186,31.29049,32.50611,34.30896,36.41354,37.73325,39.63604,40.75928,42.52997,43.79978,45.40228,46.41869,48.43107,49.47647,50.85965,52.15428,53.54985,54.31833,55.71823,56.71592,57.13846,58.66934,58.6884,59.7241,59.15903,60.31401,60.13578,60.6562,61.37638,60.85296,59.87279,58.92523,57.93839,57.80985,57.79439,57.41941,57.82036,57.81486,58.46393,58.15078,59.78811,59.36198,60.96301,60.69573,62.29069,62.56666,63.79332,64.15878,64.85894,64.44166,65.99263,64.70636,66.22351,64.89478,65.76097,65.00103,65.39381,64.24089,64.47362,62.83415,63.15138,61.10408,62.24686,59.41349,59.79147,56.79768,57.18964,54.10841,53.34486,49.70333,49.7744,45.37528,44.70988,40.95311,39.17647,34.94711,32.86791,29.64974,26.13963,24.22027,19.53147,17.41009,12.81251,11.17924,5.860295,4.166472,-0.7379312,-3.074875,-6.770874,-10.01824,-13.76996,-16.59451,-19.13466,-22.14919,-24.38529,-27.61137,-29.75074,-32.48229,-33.72458,-35.1495,-37.58009,-38.42889,-40.27387,-41.05263,-42.38262,-43.39238,-44.59719,-45.28694,-46.4761,-46.72438,-47.87276,-48.1971,-48.25186,-47.69375,-47.07918,-47.02566,-45.73737,-45.68394,-43.56684,-42.5064,-41.01365,-39.72263,-37.79028,-36.3604,-34.08769,-32.67314,-30.72293,-28.98701,-27.11968,-25.3025,-24.10567,-22.16618,-21.08383,-19.86056,-18.94426,-17.79402,-17.46519,-17.08227,-17.15107,-17.20858,-18.03161,-17.41497,-16.58465,-15.65842,-14.91176,-14.46859,-13.88054,-13.17367,-12.61467,-12.46077,-11.32837,-11.33511,-10.26674,-9.631093,-9.451305,-8.491661,-9.209909,-8.184406,-8.404753,-7.420351,-7.376206,-7.138266,-6.939486,-6.552181,-5.996337,-6.117073,-5.41288,-5.374348,-4.851055,-4.032384,-3.848374,-3.560338,-2.293479,-2.872309,-1.137214,-2.602802,-0.851232,-1.891849,0.02469643,-0.6440532,1.307846,-0.7176442,1.610445,-0.01734162,1.747373,0.01605662,1.32887,0.1038385,0.5869495,-0.1970083,-1.266786,-0.9149693,-2.392203,-2.173593,-3.936361,-3.621689,-6.140679,-6.203582,-7.424029,-8.596465,-9.744824,-10.16938,-11.7328,-12.40098,-13.64929,-15.39822,-16.04397,-17.44873,-18.48988,-20.26335,-22.68827,-23.46344,-26.31792,-27.09813,-29.9541,-30.74163,-33.73963,-34.77441,-37.0745,-38.19983,-40.45153,-41.42519,-43.51985,-44.46065,-46.47331,-46.78647,-49.31894,-49.43839,-51.01204,-51.72491,-53.22954,-53.42975,-55.64962,-55.24839,-56.69409,-57.06814,-58.18264,-58.21164,-59.67026,-58.74878,-60.31532,-59.38075,-60.07774,-59.31103,-59.47378,-58.24492,-58.24992,-56.8423,-56.20223,-54.53927,-55.08899,-52.33867,-53.11978,-50.91165,-50.89467,-48.95843,-50.03293,-48.10384,-48.65541,-47.96735,-47.20704,-47.92871,-47.40389,-48.28835,-48.30729,-49.01272,-49.95353,-49.90149,-50.95469,-51.14437,-51.79809,-52.05555,-52.76351,-52.4137,-52.77514,-52.81314,-51.89043,-52.84596,-51.70338,-51.72446,-51.00276,-50.21508,-49.17242,-48.40786,-46.73943,-45.80354,-43.59405,-41.97442,-39.9361,-37.57241,-34.75097,-32.30319,-29.50304,-26.18953,-23.09245,-19.985,-16.24521,-13.14502,-9.309568,-5.995565,-1.572402,2.091491,6.239333,10.32069,14.80686,18.86155,23.14138,27.65173,31.82312,36.53904,40.52352,45.95105,49.30242,54.26455,58.04602,62.48124,65.99255,70.1858,73.39291,77.22614,80.60585,84.45332,87.07947,90.40954,92.5531,95.76496,97.207,99.80667,101.2783,102.2705,103.7468,103.9386,104.9345,104.6585,105.4108,105.56,104.5817,105.1326,104.2491,103.5313,103.49,102.271,101.8601,101.7748,102.2541,101.593,101.8114,101.8967,101.7518,103.0526,103.1887,104.162,104.6616,105.9048,106.6426,107.9365,108.2117,108.8897,109.3597,109.287,109.1819,109.829,108.2917,108.8422,107.1787,106.9626,105.1381,104.2452,102.5076,100.418,99.37006,95.29454,94.07426,90.37561,88.62269,84.56173,82.28259,78.24142,75.50324,72.00116,68.872,64.81721,61.15649,57.4408,53.39211,50.05566,45.87979,41.18354,38.17878,33.31253,30.60202,26.1565,22.76946,18.77604,16.11636,11.4268,9.025557,5.343641,2.302458,-0.5008671,-3.305731,-6.313697,-8.888164,-11.0414,-14.061,-15.34576,-17.60483,-19.30102,-20.9924,-21.85008,-22.72915,-23.59974,-24.15771,-25.08537,-25.15858,-25.49815,-25.92168,-25.38846,-25.48215,-23.91213,-24.31318,-21.68207,-21.732,-19.57034,-18.76975,-16.81707,-15.29027,-13.27621,-12.2836,-10.08999,-8.830612,-6.967772,-6.209871,-5.423522,-4.440215,-3.955987,-3.544888,-3.711695,-4.529507,-5.324847,-5.739289,-6.772384,-8.080135,-9.577435,-10.76373,-12.2456,-14.42171,-15.29377,-17.96877,-19.20814,-20.33863,-21.78497,-22.98796,-23.94401,-24.6661,-26.25999,-26.19357,-27.62965,-28.0596,-28.85189,-29.26066,-30.65214,-30.44644,-31.85588,-32.09174,-33.2259,-33.8111,-35.10436,-35.42986,-37.17586,-37.72473,-38.45692,-39.59084,-40.34931,-40.86661,-41.5603,-41.8183,-42.8504,-42.54417,-44.23086,-43.24965,-44.95368,-43.73792,-44.92945,-44.3055,-44.69941,-44.3426,-44.65049,-44.24729,-44.35661,-44.04223,-43.62166,-44.0701,-42.60601,-43.7101,-41.98116,-43.01856,-41.36247,-42.24181,-41.06186,-40.7025,-40.55364,-40.18558,-40.0719,-39.65802,-39.91382,-38.38089,-39.14538,-38.44526,-38.79456,-37.93989,-37.68559,-37.36791,-37.10026,-36.96712,-36.6279,-36.1434,-36.64933,-35.64854,-36.48674,-35.92969,-36.5304,-36.58566,-36.97085,-37.02023,-37.76256,-37.49113,-38.25501,-38.40036,-39.09848,-38.99274,-39.51075,-39.82713,-40.84485,-41.3333,-41.89437,-42.49228,-43.59067,-44.43817,-45.55527,-45.96949,-47.83975,-48.07476,-50.47005,-50.76461,-53.3844,-53.6784,-56.34321,-57.44972,-58.97548,-60.58031,-62.09832,-64.02842,-65.7022,-67.3006,-68.68241,-70.53027,-71.331,-73.50884,-74.10803,-75.78549,-76.21965,-77.96983,-77.78788,-79.69525,-79.52666,-80.7877,-81.33117,-82.00474,-82.28412,-82.16244,-82.40237,-82.15988,-82.70902,-82.37771,-81.48447,-81.1059,-80.56615,-80.40909,-80.09382,-79.31758,-78.61428,-78.3738,-77.89204,-77.27527,-76.31452,-75.55361,-75.08406,-74.22151,-74.20802,-72.65163,-72.33947,-70.68077,-70.22584,-68.7617,-68.14706,-66.50589,-65.35012,-63.82904,-62.38539,-59.79528,-58.24516,-55.3394,-53.41438,-50.9553,-48.04985,-44.92265,-42.10082,-39.00853,-35.8084,-32.71778,-29.63641,-25.31927,-22.20026,-17.78559,-13.83923,-9.355646,-5.309816,-0.6201266,3.744979,9.067965,13.30003,18.25367,22.36871,27.90938,32.30014,38.06755,41.96501,48.08157,51.40246,57.95869,61.30992,67.73115,71.25196,76.30148,80.37638,85.25408,89.10568,94.00528,97.76555,102.462,105.2526,110.0815,112.3059,116.9984,118.8884,123.0829,124.6503,128.3357,129.3736,132.5031,132.9943,136.2711,135.812,138.1564,137.5478,139.3878,139.0533,139.7929,139.6321,138.3319,137.7029,135.8403,134.58,132.5717,131.3502,130.0818,128.1748,127.307,125.8064,124.9993,123.8621,123.1532,122.3163,121.837,121.5114,121.3839,121.5207,122.0257,122.2186,122.4205,122.4574,123.1606,123.4274,123.9058,124.3796,124.0611,123.2825,123.3977,121.9551,121.6053,119.88,119.0011,117.5048,115.8561,114.3689,111.3415,109.9438,106.6529,104.3907,101.2062,98.11403,94.94268,90.75502,87.5967,82.548,79.62247,74.76306,70.85995,66.52041,62.70582,57.25697,53.95746,48.31101,44.82337,39.31118,35.32966,30.10523,25.78893,20.79305,15.84754,11.80884,6.902676,2.424305,-1.944953,-6.289269,-10.26206,-14.37813,-17.76477,-22.25709,-24.93514,-29.86934,-31.60994,-35.90243,-36.49765,-41.14338,-41.36031,-44.82749,-44.74859,-47.6154,-47.51909,-49.82218,-48.61432,-50.76222,-49.86239,-50.51104,-49.98867,-49.16285,-48.34545,-47.2852,-46.75336,-45.50349,-43.36748,-42.63655,-39.87552,-39.37915,-36.9551,-35.7597,-33.63903,-32.45573,-30.6288,-29.20805,-27.80003,-26.35318,-25.3012,-24.54873,-23.23454,-23.44609,-22.71044,-23.39209,-24.41232,-24.78958,-25.43116,-25.71419,-25.94752,-26.35972,-26.76462,-27.23763,-27.03702,-27.72189,-28.05862,-28.13918,-27.73007,-27.87984,-27.61135,-27.57152,-27.50125,-27.43832,-27.07678,-27.48557,-27.75765,-27.00601,-27.41639,-27.41917,-27.95245,-27.79639,-28.36199,-28.94361,-28.77986,-30.12608,-29.58139,-30.66467,-30.34124,-30.76022,-30.71604,-30.90353,-30.8367,-30.65246,-31.18402,-30.49837,-30.88468,-31.19733,-29.46769,-31.13294,-29.40297,-31.08242,-29.02215,-30.88379,-29.46233,-30.21722,-30.05781,-30.8328,-30.02366,-30.99109,-30.86799,-30.89569,-31.32851,-30.6719,-31.55056,-30.7959,-32.33538,-31.00183,-32.89968,-31.42199,-32.74829,-32.4152,-33.4025,-32.52233,-33.63946,-33.03669,-34.05013,-33.85168,-33.84173,-33.82407,-33.51279,-34.25379,-33.76163,-34.29924,-34.4866,-34.33291,-34.53179,-34.23199,-34.18749,-34.26114,-33.95558,-33.84666,-34.00983,-33.12212,-33.54495,-33.13745,-33.78056,-32.9784,-33.88163,-33.47531,-33.57182,-34.13702,-34.56585,-33.99432,-34.62268,-34.26747,-34.50591,-34.13669,-34.55677,-33.79947,-34.39367,-34.0854,-34.37465,-34.61852,-34.2494,-34.88917,-34.81571,-35.45428,-35.34278,-35.64457,-35.08967,-35.95367,-35.5796,-35.90674,-35.86448,-35.86726,-36.38806,-35.62244,-36.22644,-36.14452,-36.70417,-36.60019,-37.94812,-37.33249,-38.60725,-38.61793,-40.0498,-40.04416,-41.28323,-40.95947,-41.93796,-41.86381,-42.67773,-42.96211,-43.48014,-43.95449,-44.83514,-45.3864,-46.01453,-46.60628,-47.10298,-48.24402,-48.42868,-49.95238,-49.99929,-50.90154,-51.23147,-52.38577,-51.91581,-54.48087,-54.56282,-54.98043,-56.31414,-56.53279,-57.11314,-56.76584,-57.77526,-57.08891,-57.82363,-57.05337,-56.42206,-55.4521,-55.11345,-53.1477,-52.79182,-50.43629,-49.47721,-47.14426,-45.92851,-42.40304,-41.12953,-37.31646,-35.41239,-31.22169,-29.64787,-24.78534,-23.2689,-17.84337,-17.05615,-10.44769,-9.142212,-3.867337,-1.118689,4.015898,6.905535,12.69228,15.47318,20.68104,23.67398,28.82016,32.60939,37.00364,40.27646,44.74779,47.66955,52.11388,54.70729,58.5281,60.31709,64.24025,66.56238,69.19449,71.69547,74.13125,76.09561,78.10748,80.38407,81.32563,83.10965,84.15176,85.29253,86.40174,86.87572,87.46768,87.86331,88.11938,88.55891,87.96357,87.97135,87.38692,87.13007,85.64943,85.21071,83.65749,82.59565,81.04501,79.6283,78.84407,76.62053,76.29587,74.2299,74.16574,72.69123,72.91258,71.76614,72.58715,72.40713,73.95281,74.25161,75.47544,76.41616,78.20111,79.00601,79.96483,80.9731,82.15098,82.81286,84.25244,84.87344,85.79888,86.5734,87.04456,87.51647,87.01092,87.51109,87.22713,87.53954,85.84314,85.83512,83.84025,83.27295,82.68766,79.91298,79.23417,76.41313,75.23213,71.47522,69.86225,66.16239,64.32344,60.78463,58.04787,54.81371,51.35116,47.94146,44.57701,41.45507,37.15606,34.76684,30.43213,27.04097,23.79583,19.49194,16.45402,12.42981,8.941252,5.175481,1.788351,-1.76943,-4.360034,-7.857098,-10.61406,-13.15571,-16.43839,-18.37731,-21.48095,-22.5947,-25.52488,-26.7368,-29.47646,-29.56451,-32.38992,-32.44448,-34.53542,-34.85588,-35.5351,-36.08259,-36.6674,-37.06397,-36.64376,-36.29698,-36.42187,-34.81869,-35.36912,-33.1032,-32.96607,-30.61931,-30.32728,-28.22575,-27.22733,-25.61881,-23.94119,-22.80214,-21.29937,-20.10293,-18.42621,-17.00547,-16.61304,-15.14333,-14.7847,-13.03623,-13.12361,-12.05361,-12.6173,-12.23517,-12.2494,-11.70371,-11.88388,-11.77075,-11.9556,-12.1593,-11.83446,-12.10661,-12.14045,-12.62972,-12.43505,-12.59461,-12.53378,-13.33329,-12.99833,-12.9384,-13.38423,-13.4068,-13.89317,-13.74786,-14.09536,-14.02259,-14.3683,-14.28138,-14.89517,-14.95682,-14.74767,-15.43306,-14.95241,-15.55933,-15.20011,-15.58953,-15.7842,-15.4379,-16.28048,-15.77705,-16.25864,-16.22266,-16.93481,-16.93197,-17.18162,-17.41699,-17.76602,-17.64433,-18.40274,-18.17419,-18.47055,-18.76081,-19.15942,-19.20423,-19.62962,-19.46044,-20.03451,-19.15032,-20.55435,-19.36774,-19.8798,-19.36315,-19.289,-18.90417,-19.46981,-18.3265,-18.38211,-17.30688,-17.93915,-16.21221,-17.27405,-15.66584,-16.478,-15.15257,-16.22882,-14.54157,-15.87277,-14.45893,-15.85174,-14.05157,-15.96121,-14.33959,-15.82468,-14.7862,-15.75612,-15.14275,-16.11847,-16.18477,-16.58932,-17.04256,-17.59926,-17.74215,-18.88733,-18.94409,-19.93739,-20.55282,-21.44993,-22.17918,-22.75343,-24.22829,-24.25035,-25.49385,-25.87575,-26.68947,-27.04389,-27.77432,-28.43271,-28.68795,-29.64193,-29.77507,-31.1851,-31.55087,-32.40043,-33.37923,-33.7166,-34.82536,-35.24937,-36.35185,-37.19853,-37.72434,-38.89916,-39.45424,-40.6108,-41.82309,-41.92776,-43.09302,-43.44168,-44.55799,-44.63139,-45.85956,-45.73031,-46.11681,-46.88167,-46.76814,-48.02696,-47.09211,-47.80793,-46.57718,-47.49486,-46.20071,-46.57937,-45.74384,-45.64981,-44.98738,-44.16161,-43.46993,-42.74496,-42.34729,-41.50961,-40.92806,-39.56542,-38.93843,-37.71136,-37.51586,-36.07471,-36.14415,-35.14346,-34.7848,-34.79969,-35.4225,-34.51493,-36.25,-35.33616,-37.69075,-36.96342,-38.56289,-38.21798,-39.65073,-39.83937,-41.10533,-39.86755,-41.52863,-40.11194,-41.12397,-40.86759,-40.55504,-39.97011,-39.63764,-38.7589,-38.43646,-37.47984,-36.56036,-35.82124,-34.66262,-33.47695,-32.3606,-30.6474,-29.51238,-27.53663,-25.94927,-24.10663,-21.96019,-19.87614,-17.53371,-15.11536,-13.01678,-9.547705,-8.342325,-3.772021,-2.458293,2.091328,4.109155,8.793165,11.06837,15.81402,17.88808,23.15206,25.17517,30.36749,32.13932,37.86372,39.885,44.96344,47.32694,51.89053,54.26447,58.06704,60.75597,63.90824,66.28652,68.82717,71.09192,73.19452,74.8443,77.07948,78.30183,80.34304,81.34833,83.23254,83.59982,84.95851,85.51862,86.42133,86.20085,86.55276,85.37905,85.87814,84.54606,85.00855,83.12574,84.17754,82.29518,83.16366,82.20346,82.26798,83.0061,82.53797,83.41205,82.86553,84.23993,83.70523,85.22735,84.89353,86.50155,86.31051,87.64363,87.95863,89.33334,90.07401,90.54091,91.98206,92.07975,93.0162,92.68253,93.66855,93.00855,93.13876,92.65647,91.60103,90.41566,89.74193,87.0051,86.12207,83.6035,82.26105,79.43078,77.47273,74.84497,72.50113,69.83115,67.76273,64.18902,62.51294,58.76592,56.20972,52.67964,49.94785,46.6031,42.87883,39.50952,35.68213,31.9567,28.22556,24.68248,20.55272,16.46573,12.014,8.602713,4.0835,0.1763893,-4.62049,-8.177187,-12.44932,-16.52206,-20.98854,-24.90384,-28.4976,-32.90883,-35.03335,-39.81785,-42.06571,-46.09885,-48.09508,-51.64581,-53.64418,-56.232,-58.13401,-60.55682,-61.21829,-63.2673,-63.53515,-65.81119,-65.65863,-67.25194,-66.75136,-68.63699,-67.6445,-68.54252,-67.93302,-68.42513,-67.61514,-67.69377,-66.04749,-66.05561,-64.13434,-63.80999,-61.74831,-60.96098,-58.91778,-58.38641,-56.35188,-56.05794,-54.55572,-54.11008,-53.43066,-52.15587,-50.87365,-49.74423,-48.47994,-47.07332,-45.39995,-43.95949,-41.83039,-40.57479,-38.64715,-37.0388,-35.8831,-33.58017,-32.76312,-30.44495,-29.90278,-27.49128,-26.82407,-24.47202,-23.70616,-21.79393,-21.5887,-19.26538,-18.99228,-17.01953,-16.18758,-14.82669,-14.56289,-12.80213,-12.63937,-11.0823,-11.26908,-9.729534,-10.22776,-8.93516,-9.52992,-8.743678,-8.661312,-7.971559,-8.310997,-7.547442,-7.681733,-7.213694,-6.751399,-6.585866,-5.895653,-5.217849,-5.065887,-4.665151,-4.117675,-4.337663,-3.191331,-3.501219,-2.630902,-1.995614,-1.644657,-1.005022,-0.5929351,-0.08073915,0.488454,0.7633185,0.9701355,2.424268,2.168301,3.69876,3.189315,4.272356,3.751612,4.877255,4.626919,5.451287,5.147701,6.016438,5.367132,6.094939,5.222854,5.638224,5.230694,5.539495,5.097464,5.072975,4.739087,4.515996,4.851025,3.946012,4.417127,3.528099,3.918424,3.25705,3.541517,2.380816,3.148248,1.7909,2.401421,1.147153,2.21573,0.3048918,1.891365,-0.2179495,1.601156,0.2630699,1.316304,1.063955,2.085389,1.652037,2.614032,2.665945,3.398271,3.553136,4.499909,4.667741,5.820955,5.995172,6.828177,7.854397,8.039247,8.882,9.2278,9.399691,10.29336,10.52568,10.87828,11.53082,11.60591,12.76616,12.81535,13.19976,13.34111,13.90258,13.92957,14.35105,14.28078,15.5445,14.94036,16.01278,15.13135,16.46816,15.208,17.0868,15.89018,17.43291,16.26496,17.82404,16.27254,17.98915,16.43721,18.18442,17.11642,18.30969,17.51277,18.65868,18.01178,18.57067,18.40588,18.48635,19.17535,18.39315,19.40822,18.89798,20.37868,19.87819,21.50086,21.22364,23.01967,23.07803,24.79839,24.69691,26.28652,26.95004,28.01117,28.76547,29.83345,30.5806,31.61065,32.12878,32.67949,33.16818,34.03655,34.20987,34.28946,34.39313,34.0648,33.84728,33.12894,33.23055,31.79528,32.06886,30.66554,30.14909,29.20058,28.26071,26.92203,25.3887,24.63686,22.45301,21.9905,19.10878,17.96257,15.52075,13.65131,11.64726,8.673325,6.467587,3.952895,1.505091,-1.144291,-3.960443,-6.392366,-9.388838,-11.52096,-13.49511,-16.64876,-18.42347,-21.52794,-22.7283,-25.90291,-27.22259,-30.54637,-31.5378,-34.46308,-35.74705,-37.95724,-39.61324,-41.57707,-43.10823,-45.26429,-46.31576,-48.32232,-49.20418,-50.00904,-51.32594,-51.92331,-53.29273,-52.97238,-53.49353,-53.75296,-53.4393,-53.70291,-53.00286,-52.29858,-52.09956,-51.56246,-51.10522,-50.726,-50.33272,-50.05701,-49.65897,-49.77225,-49.34398,-49.14432,-48.82632,-49.18807,-49.35148,-49.42985,-49.31247,-49.25305,-49.71985,-49.61688,-50.49545,-50.50634,-50.57065,-50.87839,-51.09915,-50.79041,-50.89251,-50.23793,-49.87686,-49.12226,-48.97288,-47.33985,-46.6521,-45.66902,-44.22218,-42.98026,-41.72462,-39.72623,-38.71463,-36.44552,-35.87573,-32.98955,-31.78701,-29.11426,-28.24328,-24.96871,-24.54552,-20.94035,-19.85335,-16.42939,-15.28099,-11.91407,-10.31393,-7.283113,-5.060544,-2.512288,0.6655032,3.242128,6.316084,8.387175,11.47706,13.98186,16.65908,19.03071,21.55613,24.06176,25.84105,28.70766,30.51041,32.30654,34.4512,36.1726,38.29363,39.19985,41.71613,42.14753,44.30337,44.52742,46.55668,46.58848,48.12126,48.34865,48.38313,50.03781,48.74273,49.43423,49.52719,47.65471,49.88141,47.09128,48.81873,45.72133,47.37725,44.8215,45.7651,42.66091,44.72194,41.63271,43.25127,40.54082,42.83858,39.64921,42.06175,39.92103,41.5006,40.33991,41.85047,40.91715,42.62985,41.16278,43.03515,42.26992,42.46722,42.52658,42.5801,42.44183,41.23284,41.45714,41.10205,41.14415,39.9618,41.23556,39.7164,40.31389,39.55052,39.52871,38.98034,38.58066,38.03165,37.90358,36.38668,37.01521,35.67101,36.08154,34.37418,34.48097,32.77687,33.00932,31.62589,30.22912,29.96812,28.01523,27.62659,25.20975,24.54549,22.00019,20.68075,19.55889,17.25372,15.68852,13.09668,12.19126,9.421862,8.294753,6.003015,3.793494,1.859907,0.5320429,-1.40058,-3.553345,-6.052859,-7.779345,-9.899497,-12.08921,-13.5749,-16.15666,-17.22513,-19.78115,-21.02113,-23.50117,-24.88784,-26.98486,-29.05179,-29.78032,-32.54573,-31.89652,-36.96409,-34.319,-39.01434,-38.11649,-41.16992,-39.55333,-44.04152,-41.82593,-44.90885,-43.93859,-46.72739,-45.5923,-47.57103,-47.38054,-48.57451,-48.73678,-49.75804,-48.70577,-51.40482,-50.04216,-51.54218,-51.25676,-50.66597,-52.53456,-50.56889,-52.84838,-50.14184,-52.2769,-49.81535,-51.16478,-48.20838,-50.47623,-47.30673,-48.49269,-45.80018,-48.67196,-44.19709,-47.32914,-44.18844,-46.09346,-43.27989,-45.48203,-42.70088,-44.96591,-42.39431,-44.77134,-43.34328,-44.11688,-43.8738,-44.69613,-44.69153,-44.70717,-44.33518,-45.75116,-45.18239,-45.78884,-46.37915,-46.75408,-47.16721,-48.4573,-47.17447,-49.99246,-48.96733,-49.40914,-51.32293,-50.18518,-52.82096,-52.3342,-53.36774,-54.61593,-55.60834,-57.234,-58.34057,-60.09067,-61.54184,-63.61849,-64.02719,-67.06646,-67.01609,-69.43899,-69.83727,-71.18701,-72.31068,-73.96531,-73.81843,-76.29158,-76.11368,-77.17259,-75.75875,-78.34366,-76.31789,-78.857,-77.6675,-80.06207,-78.66956,-80.3751,-80.10654,-80.93178,-81.03269,-81.25814,-81.55634,-81.60317,-82.24574,-81.13997,-81.80586,-80.11216,-80.80289,-78.31315,-79.49471,-76.46707,-79.17862,-73.69291,-77.26083,-71.63513,-73.44582,-68.58907,-70.78381,-64.59365,-65.92473,-61.39943,-61.50913,-56.72192,-56.72554,-52.02235,-50.39286,-47.34879,-45.27046,-41.61366,-39.81836,-36.26854,-33.76102,-30.01837,-27.86441,-23.59655,-20.83823,-17.34563,-13.56739,-10.84669,-5.757995,-3.221175,1.42081,3.788699,8.60066,11.68157,15.60658,19.03425,23.43615,26.08358,31.02209,33.99264,37.51793,40.99729,44.68225,47.71995,51.10595,53.89274,57.33286,59.86766,62.58752,65.5527,66.95279,69.12743,70.85919,72.729,74.83904,76.2029,77.42673,79.3482,80.33768,81.69319,83.45296,81.40177,83.88515,83.61702,82.96416,85.28396,82.82537,85.3015,84.20847,83.89382,84.00988,83.55113,82.50324,82.36886,81.2759,81.59215,80.64661,79.92973,80.31841,79.27589,79.78363,78.54221,78.64906,77.33983,78.50836,76.34973,77.49553,76.82169,77.10319,74.86941,75.64684,73.25675,73.48982,71.55623,71.41722,69.58383,69.001,67.80169,66.45583,66.67133,64.43747,64.90147,63.07973,64.03396,61.71259,62.96958,60.69665,61.58608,60.17513,60.51937,59.67408,60.10013,59.46921,60.00837,59.18496,60.38837,59.19052,60.47302,59.85302,60.2923,60.88798,60.50743,60.99273,61.08916,60.9881,60.38839,60.95776,60.38503,59.74732,60.76309,58.83061,60.0136,57.9089,59.62036,57.17427,58.74234,56.5598,57.48592,56.33486,56.57293,55.09292,55.73341,54.9653,55.27153,54.58536,54.81493,53.49597,54.38698,52.68155,53.38663,51.71673,52.46693,50.79953,51.0098,49.68318,50.01017,47.5315,48.19467,46.19578,46.15753,43.75815,43.79276,41.72844,41.7311,39.29983,39.03028,36.4012,36.03641,32.81148,32.69707,29.35566,28.32949,26.81282,25.82866,24.3873,23.44843,21.68923,21.47232,19.67235,18.94937,17.81035,16.71693,15.45945,15.76542,13.9367,15.01588,13.27103,13.88925,12.81563,12.96481,12.02709,12.59465,11.42787,11.83096,11.65159,11.45693,11.30927,12.19253,11.60434,12.56872,11.88973,12.68084,12.23046,12.79062,12.26232,13.13154,13.03482,13.34314,13.25571,14.19463,13.38233,14.63518,14.04146,14.5169,14.44391,15.37978,14.46183,15.40903,14.70644,15.65692,15.2441,15.71985,15.50265,15.58933,15.88292,15.79872,15.67684,15.82545,15.97438,15.62097,15.83393,14.89026,15.45065,14.63284,14.75324,13.87468,14.41201,12.7725,13.30744,12.5295,12.31392,12.0521,11.17201,11.18329,10.45875,10.60429,9.507936,10.06353,8.641489,9.722929,8.447932,9.580163,6.451286,9.042866,6.339503,8.142745,6.39525,8.130774,6.621625,8.174924,6.875696,9.781131,7.536527,10.27814,8.943285,10.89512,10.03296,11.1804,10.9655,11.66824,11.16819,12.05792,11.39488,12.25484,11.24823,11.4127,10.578,10.55295,9.291896,9.724963,7.942363,8.365685,5.896127,6.354782,3.710404,4.067018,1.411306,1.220168,-1.342201,-2.003132,-4.286806,-4.953324,-7.575218,-9.216215,-11.28956,-12.63785,-15.1624,-16.61852,-19.055,-20.87896,-23.21029,-24.52605,-27.32503,-28.95348,-30.76906,-33.05179,-34.59367,-36.51116,-38.33138,-40.13756,-41.62993,-43.47561,-44.71682,-46.51823,-47.36222,-48.67059,-48.98242,-51.87858,-51.00983,-54.03265,-52.76205,-55.38728,-54.08153,-56.64331,-54.8568,-56.75148,-55.69562,-56.63324,-55.50684,-55.85291,-55.21586,-54.7586,-54.23721,-53.17567,-53.00683,-51.67312,-50.33967,-50.05599,-48.15853,-48.19478,-45.67542,-45.42704,-43.20447,-43.16549,-41.14162,-40.85978,-38.49868,-38.33914,-36.04612,-36.10085,-33.56235,-33.80143,-30.92551,-31.1359,-28.18175,-28.861,-26.12068,-26.1347,-23.74113,-23.92389,-22.22731,-22.29366,-20.45096,-18.90014,-18.42561,-16.04695,-15.51014,-12.8555,-12.29361,-10.38277,-8.543058,-7.247427,-6.730803,-4.601813,-4.245976,-2.436426,-2.553225,-1.439689,-0.4676988,-0.5166447,0.5135209,0.760733,0.6160443,0.8738949,0.1268257,-0.06463164,-0.5010102,-0.6157482,-2.165792,-2.3449,-3.992995,-4.544018,-7.142752,-7.265553,-10.25708,-10.53121,-13.39229,-14.15638,-16.51829,-18.24518,-20.32933,-22.09979,-25.01732,-26.83399,-28.98665,-31.09796,-32.76963,-35.47461,-37.10364,-39.81959,-41.02472,-43.30866,-44.25706,-47.06255,-47.34247,-49.77126,-49.81226,-51.36984,-52.17845,-53.5895,-54.32933,-54.851,-55.44182,-56.38592,-56.54284,-57.51911,-57.17834,-58.59138,-56.92357,-58.87472,-56.39802,-58.30619,-54.9044,-56.67213,-53.6481,-55.09759,-51.96604,-52.4781,-49.79427,-50.15986,-47.39113,-46.9464,-44.71728,-43.35371,-42.3531,-39.25823,-38.23343,-35.59364,-33.35685,-31.67033,-28.88299,-27.32653,-24.28011,-22.86633,-19.69123,-18.0038,-15.94411,-14.19183,-12.08949,-10.46179,-7.111538,-5.855723,-1.89082,-0.3704408,3.96277,5.400111,10.29966,12.00593,16.76121,18.06657,22.76304,24.9029,29.46291,31.53276,35.79741,38.11483,41.64776,44.45427,47.44835,49.5502,52.57574,54.01286,57.29759,58.127,61.191,61.55439,63.63566,64.74632,66.10622,66.93142,67.88695,68.18988,68.53671,68.74328,68.67424,68.15989,68.16174,67.35615,66.36353,65.44621,64.21179,62.50867,61.22895,59.59183,57.35305,55.34639,53.15248,51.01205,48.41577,45.74182,43.00381,40.13867,37.67034,34.79865,32.54774,29.3004,26.66176,24.12132,21.02713,19.24466,15.54797,14.21696,11.42786,9.519779,7.070043,5.560786,2.730846,1.639737,-0.9283713,-2.155862,-4.09594,-4.917816,-7.348937,-7.307614,-9.142201,-9.007929,-11.10312,-10.9959,-12.61982,-13.00084,-13.77713,-13.88395,-14.99118,-15.1165,-16.05784,-16.33624,-17.26633,-17.20072,-18.44277,-18.36417,-19.71467,-18.3489,-19.9756,-17.8178,-19.66604,-16.73203,-18.76033,-16.69063,-18.94906,-18.3091,-19.84267,-20.63276,-21.9691,-23.54092,-25.1933,-27.40806,-30.13323,-30.74925,-33.26889,-34.2369,-36.04101,-37.09156,-38.38109,-39.25403,-40.40818,-41.78139,-42.34842,-43.68067,-44.02485,-45.4322,-45.06532,-45.44673,-45.48962,-45.27202,-45.53807,-44.60168,-44.4089,-42.93352,-42.41497,-40.57606,-39.52243,-37.66306,-35.77821,-33.88486,-31.3104,-29.25759,-27.19947,-23.98738,-21.70274,-18.51074,-15.8238,-12.52508,-9.617119,-5.965007,-3.26653,-0.5868809,2.506191,5.744384,8.810995,11.53917,14.32066,17.43293,19.70628,22.77591,25.13779,27.90491,29.82668,32.70003,34.2528,37.81557,37.53506,41.48394,40.90512,44.32752,43.39312,45.8491,44.84273,46.69721,45.47333,46.75375,44.54942,46.40962,43.5295,44.53106,41.84628,42.07244,39.23776,39.47714,36.04142,35.57444,32.13249,31.27757,27.74405,25.83608,22.46307,19.99696,16.18144,14.14129,10.21193,7.98055,4.668226,2.031522,-1.609612,-3.111097,-6.577141,-8.374156,-11.26653,-12.14493,-14.73826,-15.22406,-16.56177,-16.2803,-18.28228,-17.12221,-19.1457,-17.64489,-20.00724,-18.66812,-19.93466,-19.12823,-19.4848,-19.08969,-18.42119,-18.14696,-16.84758,-16.7357,-15.63242,-14.85384,-13.8529,-13.28347,-12.17106,-11.64891,-11.12771,-10.32995,-9.308623,-9.251219,-8.259016,-8.138988,-7.626005,-6.868213,-6.184996,-6.755006,-5.439441,-6.242563,-5.25317,-5.27628,-5.017901,-5.325383,-4.188694,-5.180202,-3.814174,-5.68505,-3.959793,-5.671752,-4.2838,-6.349694,-5.171009,-6.156373,-5.548124,-6.464032,-6.34034,-7.2822,-7.514269,-9.234866,-8.964584,-10.54557,-9.55801,-10.99144,-10.44701,-11.68963,-10.76715,-11.85005,-11.2019,-11.39648,-10.79624,-10.62932,-10.17023,-9.753027,-8.570876,-8.013375,-7.881821,-6.08029,-6.613656,-3.910327,-4.963151,-2.117101,-3.152614,0.1482962,-0.5275401,1.811038,2.070684,4.291679,4.278965,6.631998,6.719149,9.139862,9.211205,10.93274,11.12663,12.95247,12.79607,14.66577,14.01415,15.98567,15.9383,17.53416,17.37809,18.49257,18.2735,19.46058,19.53445,19.95614,20.30484,20.72634,21.21685,21.35816,22.32563,21.77457,22.68201,21.91544,22.64211,21.89566,21.81696,21.04422,21.56847,21.46766,20.95689,21.52138,20.82882,21.06184,21.07866,20.89717,21.20722,20.66837,21.30846,20.51406,21.16545,20.72091,21.37056,20.59417,21.57427,21.22998,21.48998,21.83055,21.48844,21.98024,21.90679,22.50209,22.25862,22.98903,21.98429,21.88417,22.01896,20.87969,22.21006,21.05117,22.51,22.5282,24.16391,23.60607,26.50926,25.36752,28.96863,27.61992,31.26419,29.96795,34.17535,32.17488,35.90439,34.41354,36.91329,35.73958,37.3149,36.73857,38.82515,37.42168,38.81455,37.86623,38.57304,37.58356,37.94387,36.72966,37.04132,35.38923,35.11308,33.80746,32.42363,30.97946,30.01854,28.13272,26.81079,24.91398,23.65663,21.51924,19.74019,17.56348,15.32194,13.2385,10.28974,8.334881,5.581739,3.082793,0.1888504,-2.169601,-4.994037,-7.09867,-10.43109,-13.23149,-15.39502,-19.42284,-20.5606,-23.87773,-25.79695,-28.94867,-30.72521,-33.55513,-35.75773,-37.82298,-40.09316,-41.98326,-43.35003,-45.40901,-45.99903,-48.23891,-48.39796,-50.43871,-50.46673,-52.89907,-52.71648,-54.52124,-53.95519,-55.51374,-55.26502,-56.04686,-55.64016,-55.94998,-55.61916,-55.39997,-55.01444,-55.02432,-53.6356,-54.10262,-52.35798,-52.26384,-49.77148,-50.86274,-47.72464,-48.02053,-46.25738,-46.22081,-44.13765,-44.44279,-43.43969,-43.78312,-43.35647,-43.20322,-43.66323,-44.03311,-45.02379,-46.23267,-47.95541,-47.88025,-49.45075,-49.70145,-50.79553,-51.36938,-51.96705,-51.90669,-52.74591,-52.20369,-52.31364,-52.30706,-51.85551,-51.91237,-51.07105,-51.01972,-49.70861,-50.09518,-47.80048,-48.40198,-45.89609,-45.99781,-42.71301,-42.48595,-39.21381,-38.67732,-35.52903,-34.20391,-31.38934,-29.76093,-27.16337,-24.87644,-22.54579,-19.91157,-17.6857,-14.50978,-13.03241,-8.617826,-7.056806,-2.887446,-1.22437,2.99805,4.544431,8.47581,10.54481,13.32943,16.16423,18.69473,21.58016,23.7935,26.68177,28.50573,31.32574,33.33474,35.7127,37.31799,39.32375,40.90904,43.12803,43.78239,46.68728,46.80098,48.62047,49.2975,50.76986,50.96799,52.4954,52.88126,53.58028,53.69988,54.56164,53.74764,54.55746,53.33618,53.57269,52.80788,52.22933,51.38228,51.00227,50.10462,49.40484,48.53679,47.19596,46.76468,44.68782,44.63508,42.81437,42.43184,40.74871,40.08085,39.50329,38.47133,37.97797,37.24928,36.57738,35.07548,36.09371,34.35422,34.70469,33.52576,34.45949,32.41229,33.71191,31.21586,33.08936,30.21492,31.58661,28.48985,30.41552,27.07087,28.40051,26.39758,26.5093,25.13003,24.77749,23.42034,23.62921,22.70595,22.39465,21.19724,21.21847,19.40925,20.30552,18.05362,18.42625,16.57599,17.08264,15.97046,15.68849,14.53779,14.46966,13.50204,14.01146,12.22685,12.79376,10.81096,11.39894,9.983935,10.19778,8.646626,8.911039,7.814473,7.635745,6.816224,5.923745,5.063967,4.432758,4.128399,2.613549,2.81782,0.6740823,0.6890743,-0.6970279,-0.7210364,-2.707082,-3.479539,-4.20761,-5.233278,-6.196816,-7.180211,-7.766302,-9.700375,-9.151314,-11.22353,-10.89909,-12.84646,-12.83189,-13.95025,-14.33153,-15.4901,-16.08477,-16.35657,-17.33204,-17.34372,-18.30228,-18.99155,-19.44587,-20.0058,-20.81663,-21.44485,-21.62293,-22.99975,-22.83209,-23.94769,-24.19972,-24.7578,-25.5242,-25.6048,-26.29783,-26.48984,-27.06168,-27.72011,-28.60424,-28.66939,-30.78153,-30.27953,-31.65579,-31.81207,-32.69515,-33.17637,-33.6899,-34.73821,-35.7493,-35.44816,-36.98502,-36.78833,-38.25653,-37.1578,-38.94925,-38.64917,-39.39068,-40.52802,-41.10108,-42.51047,-42.50371,-45.26812,-44.8922,-46.76809,-46.18578,-49.23549,-48.37883,-50.89843,-50.11205,-53.04758,-51.97165,-54.61986,-53.43415,-56.101,-55.39313,-57.47212,-56.67177,-59.30515,-57.31922,-60.97653,-58.90627,-61.75752,-59.97136,-62.63093,-61.80404,-63.48701,-62.77032,-63.86448,-62.7525,-64.22893,-62.58279,-63.71104,-61.99823,-62.43412,-61.05319,-60.20272,-59.98174,-59.27233,-59.54716,-58.58394,-59.75281,-59.5349,-60.37268,-60.75823,-61.65161,-62.4559,-62.98401,-63.72891,-63.71594,-64.83521,-65.2249,-64.90691,-65.34331,-65.39058,-65.0154,-64.82724,-64.66683,-63.94978,-62.88125,-62.30519,-60.1139,-59.96528,-57.51708,-56.52918,-53.95534,-52.8072,-49.32511,-48.36447,-44.8864,-43.26214,-39.09683,-37.69613,-32.65428,-31.48173,-26.16988,-24.64155,-19.11227,-18.3845,-11.4729,-10.38029,-3.459226,-1.772526,3.58407,6.686529,11.86617,15.46385,19.33775,23.17013,26.94257,31.3269,35.10699,39.77289,43.11869,47.7961,50.98701,55.61006,58.78752,63.48867,66.2318,71.75452,74.72667,79.3338,82.35012,87.37626,88.75889,93.41173,96.03059,97.98094,101.5651,103.0521,106.3106,107.1759,109.9719,110.7419,112.7005,113.0007,115.9052,114.7826,117.9527,115.6397,120.2149,116.2861,120.5959,116.821,119.7278,117.2223,119.5298,116.7721,119.1524,115.7917,118.2031,115.545,117.7155,114.8703,117.0859,115.3072,116.8835,116.0754,117.1442,116.1839,118.4132,116.6124,119.1377,117.1763,119.0739,117.7185,117.4655,116.5835,115.2392,114.2855,111.5301,111.1946,108.4977,106.6258,104.2645,102.0561,99.84832,96.39677,94.37284,90.90451,87.77328,84.75484,80.04374,76.99135,72.30388,68.51275,64.14077,60.75356,55.61988,52.10147,47.20729,42.98872,39.07897,33.73373,30.17992,24.67069,21.73589,15.84471,13.52636,7.853583,5.520449,0.01201569,-2.23408,-7.548593,-9.066301,-14.18739,-14.92479,-20.096,-19.8832,-24.74065,-24.81778,-28.71704,-29.46529,-31.53735,-32.03839,-34.52293,-35.09699,-36.33549,-36.8926,-37.6716,-38.37727,-38.75722,-39.05001,-38.52716,-38.7636,-37.86532,-37.40533,-36.12225,-36.23582,-33.76159,-33.91591,-32.34076,-31.79454,-30.21143,-29.83565,-27.99248,-27.27907,-26.62362,-24.54538,-24.7912,-22.35413,-22.73478,-21.06097,-20.87975,-19.66574,-19.90288,-17.88297,-19.80618,-17.10881,-19.67343,-16.1882,-19.81823,-16.27388,-19.91568,-17.29479,-19.31476,-17.25842,-20.18004,-18.10212,-20.72836,-19.05662,-20.96579,-20.20514,-22.38921,-21.2256,-23.55566,-22.78954,-25.00986,-24.89337,-26.24165,-26.42642,-28.16764,-27.75051,-29.75099,-28.92575,-30.72473,-30.07618,-31.0668,-30.55598,-31.14155,-31.20065,-31.1033,-31.8175,-31.63332,-31.39839,-31.9349,-31.50862,-31.48871,-31.40968,-31.81294,-32.20505,-32.34089,-32.57839,-32.86472,-33.71996,-33.0979,-34.10474,-33.51192,-35.04272,-34.82714,-35.65945,-35.7917,-36.79215,-36.94867,-37.83973,-37.98144,-38.35185,-38.95044,-39.51781,-40.05059,-40.94742,-40.77138,-41.66628,-41.60133,-42.2054,-41.92386,-42.41177,-42.34335,-42.62644,-42.14447,-43.08483,-41.50417,-43.23374,-40.82823,-42.62289,-41.35951,-42.27675,-41.22384,-42.05766,-41.39226,-41.78959,-40.93254,-41.53377,-40.6399,-41.32399,-41.14164,-40.57962,-41.69327,-40.59023,-41.89975,-41.14134,-42.00736,-42.02997,-42.14955,-42.11275,-43.28473,-42.39676,-43.09987,-42.88907,-43.63553,-42.85134,-44.15704,-42.98628,-44.78874,-43.68914,-45.00275,-43.89146,-45.42163,-44.06554,-45.30323,-44.47918,-45.15577,-44.6372,-45.04167,-44.87908,-44.89041,-45.26629,-45.05441,-45.61925,-44.93765,-46.13903,-45.49335,-46.76203,-46.53153,-47.46802,-48.20858,-48.08537,-48.88612,-48.16418,-48.64082,-48.14493,-48.12988,-47.80309,-48.01839,-47.82339,-48.70849,-48.52227,-49.94103,-50.30755,-52.35945,-53.22193,-54.34244,-55.49652,-56.24144,-57.80583,-58.6695,-60.02869,-60.23977,-62.10575,-62.45689,-63.54075,-63.54634,-64.37225,-64.42209,-64.52494,-64.03317,-64.11797,-63.4748,-63.4207,-62.50154,-61.71737,-60.23247,-59.54401,-56.98077,-56.80546,-53.36726,-52.84358,-48.9403,-47.68467,-43.75499,-42.38321,-37.66531,-35.8082,-30.5982,-27.97273,-23.18547,-19.11966,-14.14836,-9.952455,-3.934201,0.1468493,6.722673,11.64841,18.16519,23.5707,29.56553,35.69757,41.55713,48.03405,53.40768,59.80886,65.13142,71.02906,76.00339,81.15523,86.1573,91.41364,95.28376,100.8343,103.5308,108.9552,111.0589,115.7991,117.7996,121.6867,123.1459,127.2169,127.7699,130.9515,131.4536,134.1508,133.4769,135.8965,133.5676,136.5689,133.7004,134.8912,132.295,131.8273,129.6474,127.8483,127.1224,124.6762,124.5402,123.0902,122.6774,121.0622,121.7649,119.2098,120.6433,117.573,119.2123,117.0673,118.4558,117.3356,117.9586,119.0192,118.4555,119.9449,119.164,119.8186,118.6165,118.4128,116.9917,115.7446,113.9084,111.9508,109.646,107.8965,105.1903,102.6512,100.2915,96.60059,95.14506,91.13123,88.82181,84.83027,82.52786,77.38346,75.62782,70.45573,67.30498,62.62466,59.81512,54.3836,50.84243,45.00648,41.56913,36.09202,32.4127,26.78714,22.90136,16.84899,13.71254,7.711784,4.003848,-1.717459,-5.467645,-10.67966,-15.01131,-19.57118,-23.88921,-28.08796,-31.70357,-35.55035,-39.06409,-41.89029,-45.50282,-47.95408,-50.37751,-53.29663,-54.85051,-57.67757,-58.75535,-60.64364,-61.58331,-63.0941,-63.74657,-65.03404,-65.55332,-66.23017,-66.01232,-66.63888,-65.90491,-65.67168,-64.31977,-63.82477,-62.48818,-60.92282,-59.76122,-57.69142,-56.95293,-53.85187,-53.39977,-49.81569,-48.79645,-46.64947,-45.13362,-42.61445,-42.24777,-39.74176,-40.3381,-38.11476,-38.88054,-36.54184,-38.50256,-36.92993,-38.28809,-37.23461,-37.56363,-36.91468,-36.43342,-36.15685,-34.97949,-34.96125,-34.68301,-34.53807,-33.63186,-34.45027,-32.98001,-33.53363,-32.49659,-32.5158,-32.05555,-31.24956,-31.34576,-30.21213,-30.99829,-29.39109,-30.41459,-28.78357,-29.99571,-28.67924,-30.00246,-28.51031,-29.62839,-28.29355,-29.18617,-28.21162,-28.43613,-28.30363,-28.60871,-28.242,-28.27433,-28.33542,-28.39185,-28.3507,-28.93852,-28.57584,-28.33141,-28.59248,-28.69131,-28.13236,-28.71827,-28.22149,-28.21962,-28.41236,-27.53376,-28.03151,-26.70356,-27.32765,-26.021,-26.35463,-25.09923,-24.7025,-24.25558,-23.20376,-22.73831,-21.52405,-20.68842,-18.84158,-18.66301,-16.48193,-15.98846,-13.72595,-13.24476,-11.26653,-10.44089,-9.809408,-8.604457,-7.941903,-6.742267,-6.576231,-5.053919,-5.415925,-3.47946,-4.591486,-2.335337,-3.769356,-1.350502,-2.431162,-0.1595668,-1.925707,0.4336974,-0.7318732,1.470049,0.3116248,2.168856,1.351495,2.554225,2.32155,3.44176,3.614905,4.45961,4.507708,5.263473,5.43387,6.170273,6.275977,7.063772,7.565481,7.994113,8.686599,8.467913,9.612179,9.260604,10.25776,9.956629,10.45573,10.0482,10.95042,10.97834,11.59846,12.05211,11.64452,12.94569,12.73216,13.75518,13.78765,14.87066,15.20755,16.11863,16.37548,17.54763,18.36335,18.9539,20.13562,20.62028,21.58725,22.45295,22.93447,23.41972,24.25131,25.13354,26.50642,26.9483,28.30289,28.65689,29.83716,30.71285,31.16583,32.47737,32.99336,34.33001,34.86983,36.39312,37.0552,37.7154,38.66518,39.00259,40.2727,39.69157,40.98135,39.85671,41.05384,39.10245,40.27996,38.20919,38.65922,36.71013,35.96611,35.6082,43.19123,32.22923,41.71849,29.61689,36.64597,24.94777,28.98405,18.384,20.02038,9.71216,9.638069,-0.600506,-1.423007,-11.28741,-13.72964,-22.89958,-26.1654,-34.18126,-38.3681,-45.43384,-49.95286,-56.70186,-60.17416,-66.19463,-69.54881,-74.67959,-78.00889,-82.32368,-84.61884,-88.06072,-90.01513,-92.41541,-93.45361,-95.00143,-95.13097,-96.06772,-95.37035,-95.18632,-93.33887,-92.36013,-90.63465,-88.38479,-86.63589,-82.34031,-80.12178,-76.22834,-72.75876,-68.08159,-64.80864,-59.04802,-56.04792,-49.57898,-45.82873,-39.19591,-35.03576,-28.06776,-24.0516,-16.97535,-11.7563,-5.230755,-0.1594916,6.080066,10.25219,17.62233,20.47793,27.85547,29.71396,37.86942,39.43049,45.46518,47.4784,52.02307,53.48168,56.78956,57.31576,60.96172,60.85101,63.46366,61.54646,63.49596,61.29707,61.78868,58.41474,58.21043,54.3614,53.34359,48.74856,47.20576,42.79563,40.33061,35.75149,33.08827,28.51476,25.9582,21.90213,18.45936,15.33855,12.10963,9.838687,6.133112,4.573406,1.577076,0.3978943,-1.887496,-0.6915195,-3.33042,-0.3806895,-1.844302,2.989306,3.765514,7.94448,-1.185053,9.930586,-0.5381973,10.17597,1.34478,10.2158,3.929531,11.35107,6.979685,12.34707,9.239545,14.80306,11.67991,16.91157,14.90997,19.08566,17.31987,21.28358,20.78476,24.1244,23.41521,26.7107,26.12315,28.90746,28.95818,30.51157,30.77991,32.26979,32.73861,33.79947,33.88651,34.8935,34.26606,35.10348,34.44328,35.16941,33.82081,34.73391,32.7167,33.08338,31.73296,31.05634,29.50396,28.30224,27.00112,25.06232,23.73669,21.6732,20.10878,18.06538,16.68258,13.89195,12.73319,9.707745,8.901447,5.340072,4.509501,1.085248,-0.2804621,-2.976315,-5.191206,-7.458291,-9.261236,-11.13775,-12.8059,-14.76716,-14.85763,-18.40003,-18.54275,-20.39336,-21.50566,-22.36815,-23.47427,-23.55061,-23.37141,-25.40534,-25.50161,-27.24097,-26.81006,-28.68382,-27.82777,-29.98788,-29.44032,-30.90589,-30.16375,-31.80018,-31.20588,-32.65562,-31.68006,-32.8904,-31.27556,-32.3501,-31.70596,-31.40008,-31.42154,-30.80791,-31.01961,-30.62889,-30.89576,-30.1646,-31.35273,-29.58775,-30.86708,-28.11087,-30.97281,-26.8781,-30.03051,-25.94688,-28.72889,-25.09374,-27.35241,-24.88561,-25.50193,-23.60259,-24.0663,-22.43518,-22.58817,-21.48884,-21.05164,-20.31488,-19.39215,-18.41498,-18.43414,-16.63681,-16.5081,-15.15502,-15.15251,-13.43519,-13.75239,-11.76938,-12.99548,-10.51312,-11.7962,-9.691659,-9.899479,-8.980957,-8.770287,-7.384434,-7.06642,-6.293893,-5.714247,-4.92841,-4.898891,-3.66685,-3.412306,-2.216472,-2.380915,-0.5125092,-1.496591,0.8140466,0.1888644,1.662133,1.437398,2.593566,3.111918,3.780618,5.175877,5.003968,6.860226,6.840971,8.647957,8.382065,10.16966,10.09645,12.75711,11.58282,14.31453,13.72396,16.191,15.84299,17.72145,18.3293,19.27684,20.48421,20.89533,22.30288,22.71059,23.22076,23.73332,24.87392,24.98384,25.9627,26.76354,27.84306,28.68826,29.58939,30.21122,31.07402,31.44785,32.80998,33.23322,33.68872,34.56982,35.56017,36.49825,37.14592,38.13643,38.73019,40.55859,40.62273,42.61182,41.89865,43.87378,43.51018,44.78163,44.28299,44.88685,44.54208,44.8108,44.60437,44.69328,45.44132,43.8799,44.97762,42.90332,44.7521,41.79102,42.82342,40.42714,41.09399,38.63931,38.11561,36.08434,34.97777,33.01218,31.42154,29.2442,27.58524,25.36651,23.35675,20.96125,19.23314,15.90678,14.7076,11.14001,9.880144,6.286011,4.819819,1.424012,-0.06162335,-3.541498,-4.140634,-8.288039,-8.553836,-12.19866,-12.90047,-15.77225,-16.88119,-19.92238,-20.88762,-23.1919,-24.19027,-27.02937,-27.91441,-29.9431,-30.71466,-32.89609,-33.27511,-36.39906,-35.9342,-38.90385,-38.56988,-41.23826,-41.39086,-41.8839,-43.57522,-43.67398,-45.01811,-44.65269,-45.8129,-44.93931,-46.15871,-45.14469,-46.16189,-44.70764,-44.91474,-43.05417,-42.53165,-40.81987,-40.82189,-39.24656,-39.18931,-38.96871,-38.99332,-39.03077,-39.49439,-39.81793,-40.80442,-40.70644,-41.92639,-41.85103,-43.57934,-43.78921,-45.59303,-46.17561,-47.75706,-48.72655,-49.46097,-50.2697,-50.81901,-51.76754,-51.92203,-52.0644,-51.96544,-51.98933,-51.42968,-51.57739,-50.49138,-50.04205,-48.64566,-47.89941,-46.02685,-45.67966,-43.19335,-43.01294,-40.38315,-39.35398,-36.71747,-35.78461,-32.39743,-31.09425,-27.68741,-26.22032,-22.78678,-21.22459,-17.62495,-15.43511,-12.35745,-9.550189,-6.374814,-3.745207,-0.6126853,2.153086,4.7322,7.858916,10.40305,13.10187,15.41969,18.4575,19.76648,23.73189,24.7009,27.81625,29.1316,31.77004,33.09369,35.63204,36.45453,38.99355,38.98994,41.58347,41.68017,42.99511,43.31309,44.53946,44.2366,45.19379,44.07225,45.3592,43.55625,45.04737,43.05697,43.35561,41.54233,41.51971,39.10864,39.3266,36.14604,35.66375,33.38095,31.69844,29.92876,28.05029,25.87805,24.7255,21.78793,21.20012,19.02333,17.93698,16.01994,15.37113,13.74011,13.26534,12.51336,12.53188,12.85823,12.33325,12.8897,11.91785,11.51361,11.36664,11.32713,10.34844,10.25186,10.38415,9.421753,9.878993,9.021984,9.219992,7.943994,8.793434,6.767262,8.064972,5.921712,7.132094,5.858501,6.548583,4.874862,6.121342,4.056126,5.416098,3.710205,4.929467,3.068635,3.691459,2.774879,2.780053,2.71339,2.492823,2.302749,1.742079,2.142598,1.590735,1.763134,0.3591579,1.543093,0.2778604,0.8786312,-0.1163412,0.8214811,-0.5710446,0.2188799,-0.7376612,-0.1135734,-1.673921,-0.02909809,-1.687935,-0.4220008,-1.631361,-0.5151882,-1.847113,-1.278674,-1.717748,-1.528021,-1.755968,-1.364186,-1.363342,-1.410097,-0.9702137,-1.718612,-0.4192006,-1.602711,0.01168448,-1.361341,0.4322239,-1.201222,0.9887822,-1.014036,1.316868,-1.160875,1.326987,-0.3719967,1.269132,0.03703013,1.316372,-0.07122652,1.394762,0.2374215,1.182291,-0.06890712,0.7331929,-0.3555019,0.4099405,-0.9152365,-0.2088584,-1.497917,-0.5958311,-2.267955,-1.209459,-3.20935,-2.301397,-3.943009,-2.866285,-5.031722,-4.084235,-6.305453,-5.605705,-7.269443,-6.821758,-9.150079,-8.131559,-10.37999,-9.383067,-11.48059,-10.89898,-12.4309,-12.44592,-13.48427,-13.43121,-15.14751,-14.96848,-15.94562,-16.75067,-17.21422,-17.59976,-18.98351,-19.00607,-20.05915,-20.07476,-21.35239,-21.27712,-22.77076,-22.31669,-23.85927,-23.23846,-25.07584,-24.35691,-25.75801,-24.36179,-26.97227,-24.81291,-26.85817,-25.1037,-26.39289,-25.75607,-26.78248,-26.93078,-27.44878,-28.59272,-29.35685,-30.62281,-30.59065,-32.78172,-33.54198,-35.0295,-35.88847,-37.06908,-37.57422,-38.5894,-39.09374,-40.20398,-39.71125,-40.60601,-40.01909,-40.9665,-39.96646,-40.84593,-38.83031,-40.00497,-37.75891,-38.21206,-36.10795,-34.84766,-33.47944,-31.76337,-30.28168,-28.20226,-27.55747,-23.75436,-23.7353,-19.76389,-19.50374,-15.17853,-14.19603,-10.56694,-9.854788,-5.497637,-4.779887,-0.4535615,0.07981988,4.576315,5.056921,9.467735,10.15139,13.82952,15.26453,18.05912,19.77728,22.33924,23.80982,25.63982,28.3842,29.27993,32.16634,33.42561,35.14831,36.84471,38.45751,39.39312,41.00684,41.75194,42.83389,44.49461,44.09748,46.43542,45.64516,47.49592,47.27871,48.91015,48.42191,49.77103,49.47235,50.44708,49.88067,51.31472,49.25592,50.56248,49.61575,47.87877,47.14355,46.65065,46.20542,45.02535,45.47103,43.5567,43.98186,43.1602,44.10485,43.35747,43.67045,44.15892,43.99498,45.64704,45.38035,47.59685,47.88986,50.84598,50.81476,54.41788,54.94656,58.56139,58.56763,61.39111,61.4899,63.54981,62.78117,64.58138,63.58019,64.56913,63.54872,63.57633,62.76239,61.0234,61.0469,58.87018,58.02887,55.98377,54.53415,52.12525,51.35269,47.95442,47.02683,42.81125,41.67209,36.61182,34.65124,29.71424,27.72711,22.60189,19.91207,14.81215,11.26943,7.288676,2.766202,-0.2830788,-6.051745,-8.295551,-14.37783,-15.86089,-22.31411,-23.64112,-29.56457,-30.24656,-35.75243,-37.97428,-41.97565,-43.91514,-47.68299,-49.24724,-52.47136,-53.98972,-56.68067,-57.68667,-60.27947,-60.47081,-62.72436,-63.82038,-64.64542,-65.15342,-66.26194,-66.00073,-66.70368,-65.85564,-66.4216,-65.32359,-65.98774,-64.57014,-64.50904,-63.49967,-62.74773,-62.24623,-60.15403,-60.5811,-58.23684,-57.92789,-56.23578,-55.93033,-53.94658,-53.38504,-51.26347,-51.89865,-49.19697,-50.80709,-48.05803,-49.08602,-48.31331,-48.33581,-48.30121,-48.67184,-46.94524,-47.23526,-46.91371,-46.79161,-46.70864,-46.27639,-46.38013,-45.13444,-46.02018,-44.67564,-45.59583,-43.57695,-44.42322,-41.95261,-43.02029,-39.95152,-41.31543,-37.90616,-39.34084,-35.03617,-36.06643,-32.88377,-33.23179,-30.19378,-29.73405,-27.11778,-26.84206,-23.87501,-23.71575,-20.1617,-19.31152,-16.99032,-15.17213,-13.51642,-10.11967,-9.170426,-5.462931,-4.286761,-0.2722685,1.822644,5.634134,7.119786,10.33458,11.83558,15.08284,16.86666,19.79189,21.36475,25.12398,26.42262,29.50124,30.47883,33.50116,34.93031,36.99159,39.21623,39.23042,42.96377,42.36897,46.23747,45.30384,49.05528,47.65998,51.21922,50.22466,52.58284,52.35827,54.03433,53.36145,55.67531,55.15131,56.73496,56.35611,57.25545,57.92888,58.23875,59.14273,59.04412,60.40498,60.4403,61.27383,61.52025,62.05481,62.60211,62.44321,63.82607,63.24035,64.0336,63.87015,63.78431,64.49552,64.54236,65.10241,63.84729,65.86536,64.58135,66.14345,65.1285,66.04345,65.30513,66.40984,64.58529,66.54536,64.25488,67.07212,64.24328,67.01899,64.17465,66.51757,64.77414,65.1892,64.05911,64.16849,63.52822,63.44265,63.14427,61.61817,61.72501,59.8845,59.7821,58.04392,58.75103,56.86002,57.40933,56.1195,57.14104,55.18653,56.54763,54.61701,55.8794,54.6194,55.61026,54.29166,55.71324,53.6185,55.59103,53.55031,54.69307,52.82,53.97657,52.01929,52.06463,50.55628,50.1139,49.05838,47.77493,46.96643,45.07356,44.11926,41.82332,40.67389,38.52961,35.94462,34.44677,31.25234,29.64659,25.92439,23.89715,20.36028,17.28733,13.18615,10.30871,6.51121,2.842211,-1.34784,-4.754669,-9.284405,-12.39662,-18.2114,-21.08978,-26.14729,-28.62736,-34.83712,-37.21391,-42.75965,-46.17511,-51.00094,-54.10614,-58.92015,-61.01815,-66.65141,-68.51599,-73.55749,-75.75316,-80.13695,-82.72184,-86.39251,-89.60567,-92.96719,-95.23221,-98.76609,-100.8509,-104.3331,-105.6267,-109.1363,-109.9646,-112.7246,-113.7018,-115.6713,-116.638,-117.1182,-117.0543,-117.9463,-116.983,-116.7286,-115.7618,-114.6403,-113.9181,-113.0526,-111.4993,-110.7129,-108.9374,-108.1136,-107.1889,-105.9383,-105.8587,-103.7429,-104.6028,-102.2787,-103.5846,-101.2205,-101.7653,-99.22386,-100.6564,-98.34025,-100.1317,-99.26507,-100.2982,-99.9886,-101.2146,-100.106,-100.5218,-100.5501,-99.8338,-99.69158,-99.29866,-97.87418,-97.40563,-95.76814,-94.60118,-92.8799,-91.41698,-90.00752,-87.49109,-87.43483,-83.43984,-83.59148,-79.62801,-79.26454,-76.38389,-75.27104,-72.58701,-70.98731,-67.99656,-65.60149,-62.1552,-58.73882,-54.77488,-51.35958,-46.39922,-41.41355,-36.35786,-30.86668,-24.83809,-18.89604,-11.47664,-4.771587,3.22834,10.25974,18.31936,26.06577,35.00296,42.40246,50.66598,58.55317,66.61766,74.55361,81.5663,89.34112,96.19998,103.0829,109.1616,115.1604,119.9059,126.0489,128.9372,134.478,136.057,140.0688,140.7655,143.167,143.0773,144.0086,142.1756,141.3198,139.1639,136.0509,133.7398,128.6989,124.8728,118.6842,114.1556,107.2949,102.187,93.67455,88.68773,79.60779,74.42897,65.07223,59.64806,51.72013,45.98945,37.73871,33.03616,24.43307,19.53986,11.73634,6.369651,-0.8325135,-6.659686,-12.81548,-19.10795,-24.53899,-30.31314,-35.13159,-40.15249,-43.2748,-48.13501,-50.14101,-54.01414,-54.87575,-57.92676,-58.05233,-60.87583,-59.98071,-62.03884,-60.91459,-60.7525,-59.36163,-57.79159,-55.29158,-51.87513,-49.07592,-44.27205,-41.114,-36.63943,-31.40706,-28.12859,-22.24646,-18.64446,-13.93402,-9.141217,-5.300793,-0.9438537,2.369467,6.102111,9.96952,11.89957,15.01035,15.21901,18.93395,17.86509,20.96791,20.06076,21.75809,21.09491,22.00619,20.86655,21.10154,20.13559,20.55325,18.77251,19.74753,18.18011,19.19325,17.48114,17.90082,16.8761,16.61412,15.74533,15.86649,14.94798,15.06116,13.65424,14.4522,12.39146,13.64939,11.37782,12.90618,11.15553,13.00384,11.88679,13.39393,12.68434,15.08245,13.13902,16.35926,14.90813,18.29031,17.18083,20.03209,19.11156,22.07672,20.76454,23.70793,22.55074,24.79266,24.64004,25.54381,25.47458,26.54077,26.02932,27.29614,26.44551,26.49008,26.61964,26.84264,26.77624,27.39958,27.36288,28.60914,27.12382,29.90117,27.97329,30.40876,28.347,31.04406,29.14611,31.5056,29.90051,31.36501,29.3803,32.0985,29.44974,31.65352,28.95761,30.91534,29.01697,30.7817,29.16032,30.62471,29.04992,30.89758,29.54324,31.35946,30.11755,32.2563,31.56868,33.39143,32.64504,34.3054,33.99531,34.77294,34.66777,35.0418,34.37953,35.06832,34.29291,34.7363,33.81157,33.88645,32.4529,32.91498,31.18254,31.63222,29.68282,30.34,27.12904,28.2897,24.56201,25.18457,21.86048,22.13455,19.12255,18.79388,16.60764,15.51959,13.48932,12.10406,10.10444,9.091767,6.240695,5.815548,2.783488,1.576955,-1.15824,-2.782117,-5.053041,-7.221291,-9.650193,-11.72109,