ConstAcc,0.5,0.2542,-55.00568,-52.96135,-51.64322,-50.96355,-50.83953,-51.19324,-51.9515,-53.04575,-54.41195,-55.99045,-57.72592,-59.56715,-61.46704,-63.38239,-65.27385,-67.10579,-68.84616,-70.46641,-71.94135,-73.24905,-74.37072,-75.2906,-75.99585,-76.4764,-76.72489,-76.73651,-76.50893,-76.04214,-75.33835,-74.4019,-73.2391,-71.85818,-70.26909,-68.48348,-66.5145,-64.37674,-62.08611,-59.6597,-57.11567,-54.47318,-51.7522,-48.97347,-46.15833,-43.32865,-40.50667,-37.71492,-34.9761,-32.31294,-29.74813,-27.30416,-25.00324,-22.86716,-20.9172,-19.174,-17.65744,-16.38653,-18.29833,-19.43672,-23.4714,-24.10714,-27.128,-27.73892,-30.12832,-32.82838,-35.66472,-38.28563,-41.00916,-43.98496,-46.85644,-49.99347,-53.08382,-55.88767,-58.92167,-61.79538,-64.98442,-68.22791,-71.48723,-74.52861,-77.46581,-80.4537,-84.99106,-89.96121,-94.94851,-99.7071,-103.7204,-105.3859,-105.6575,-105.3038,-104.5724,-104.2517,-104.7158,-104.5142,-103.536,-101.9791,-100.9893,-100.6477,-101.2012,-102.187,-103.6762,-105.0936,-106.6854,-108.3667,-109.9376,-111.1806,-112.3997,-113.6984,-115.0942,-116.6406,-118.2451,-119.9966,-121.9834,-124.2554,-126.5251,-128.7706,-131.2434,-133.5912,-136.2898,-139.15,-142.0035,-145.0078,-148.0979,-151.3708,-154.946,-158.2659,-161.6209,-164.6138,-167.4806,-170.0282,-172.3558,-174.4888,-176.7933,-179.3452,-182.5599,-186.2749,-190.8005,-196.1876,-202.0295,-208.0212,-213.7836,-219.2336,-224.1202,-228.2691,-231.6887,-234.1282,-235.1293,-235.0792,-234.4034,-233.3279,-231.8965,-230.3083,-228.3248,-226.0605,-223.5482,-220.6983,-217.8305,-214.9863,-212.2761,-209.5824,-206.4665,-202.8783,-199.1304,-195.0501,-191.2271,-186.659,-182.3112,-177.4701,-172.7626,-167.6039,-162.2224,-156.6891,-151.2529,-145.7405,-139.8253,-133.5086,-126.8363,-119.936,-112.5776,-105.0928,-99.16252,-93.97382,-88.5676,-82.26984,-74.89508,-64.14158,-51.85812,-39.3761,-27.10909,-15.85561,-6.128467,2.289159,9.637366,17.97594,26.9025,36.81465,47.75485,59.09233,68.81905,77.12415,84.39209,90.37252,95.12218,98.99498,102.0769,104.0646,105.4302,106.1271,106.1758,106.178,105.6214,104.7335,103.4556,102.0461,100.2814,98.05538,95.12463,91.61905,87.52444,83.21881,78.37663,73.83139,69.09496,64.07006,58.88049,53.54109,48.03017,42.52647,37.20581,31.88378,26.46414,21.20391,16.26305,11.64984,7.618037,4.317533,1.752182,-0.09979757,-1.514146,-2.663295,-3.089345,-3.264912,-3.433725,-3.693076,-4.129697,-4.600946,-5.138859,-5.688763,-5.418432,-5.108504,-4.469136,-3.395375,-1.375561,1.653745,5.466028,10.02636,15.33657,20.80774,26.01624,31.44652,37.09249,42.65012,48.3436,53.89765,58.99374,63.92414,68.58672,73.51916,78.14703,82.6563,87.38311,91.79024,96.33396,100.406,103.6823,106.3355,107.8677,108.4361,107.9262,106.7199,104.5119,101.9627,99.35893,96.56078,93.58379,89.35108,80.84055,71.11634,61.67116,53.83223,48.07816,50.15091,56.29038,63.68492,71.47384,79.06261,83.433,85.54571,86.53619,86.67863,86.57206,86.22869,85.61587,84.28662,82.9101,81.87483,80.34972,78.74485,77.1194,75.6144,73.80637,71.73148,69.65872,67.11929,64.33871,61.30306,58.45343,55.52335,52.89468,50.31437,47.70086,44.74933,42.29634,39.72202,36.84792,33.81543,30.80448,28.20837,25.92868,23.77217,21.91865,20.66814,18.87838,16.85887,15.31584,13.49825,12.31753,11.58285,11.3352,9.966043,9.003228,8.122078,7.267512,6.469467,5.519423,4.87547,4.4946,3.970695,3.646986,3.736513,4.101942,4.068567,4.057941,3.986119,3.668952,3.456332,3.673235,3.93769,4.450575,4.643014,4.966748,5.690194,3.456935,1.436674,0.457674,0.9336632,3.270386,10.06523,17.865,24.91346,30.65186,34.7128,38.46415,42.22892,45.80896,49.72458,52.696,55.88757,59.05045,62.26569,64.9471,68.47509,71.68585,73.93459,74.64938,74.5197,73.4716,71.49347,69.46921,66.01449,61.88475,57.73453,53.10707,47.48424,41.42416,34.53013,27.26425,24.84985,25.88401,29.30922,33.15847,37.85575,38.9036,37.73727,35.84436,33.86429,32.29462,31.09684,30.09122,29.60432,29.60121,29.69833,30.71813,31.99078,33.55171,36.01667,38.09264,40.50141,43.05331,44.83077,46.41981,48.25696,50.21138,52.62467,55.49955,58.10566,60.50888,63.11294,65.84799,68.69628,71.18886,72.71779,75.14901,77.09466,78.40514,79.96061,81.54047,83.97421,86.08536,87.51656,88.82245,90.42744,91.64274,93.02127,94.93111,96.23115,97.80147,98.97726,99.47607,99.07826,98.61809,97.75469,96.50891,95.49809,94.03217,92.0829,89.58536,87.20359,85.04961,82.92124,79.39637,75.54737,72.18289,68.16804,63.81229,59.97494,56.50171,53.98526,51.04889,47.30834,42.55775,37.24127,31.41959,29.99106,30.89476,33.21369,36.47902,40.23761,40.58231,38.87294,37.12686,36.3399,34.03396,31.03616,29.38101,29.40023,30.25873,33.87035,38.64958,43.31577,47.44043,52.36721,56.35426,62.96409,71.54397,79.04055,84.24616,88.58396,92.69587,95.69417,99.21714,102.9605,106.4316,109.989,112.9375,115.5101,117.126,118.6274,119.5533,120.1783,120.1933,120.4789,120.5792,120.3657,120.648,120.3872,120.1809,120.3794,120.887,122.2849,124.0198,125.6668,127.8406,129.6421,131.5468,133.9862,135.6095,137.2686,138.9934,140.0742,142.1507,144.3152,146.7805,149.2357,151.364,153.1447,154.7707,156.5513,158.3302,159.8712,161.1896,162.4487,164.5024,165.9381,167.2712,168.7953,170.3501,167.5909,164.7075,163.2239,164.7958,172.187,179.6888,185.38,188.9345,190.5488,191.3816,191.7212,191.264,192.0787,192.7063,192.9418,192.5821,192.4844,191.6203,189.8175,188.3752,186.9229,185.2944,183.7964,181.2115,178.9118,176.106,173.0802,170.8781,169.1393,167.0683,164.3006,155.1866,146.4949,139.2446,133.8576,129.7923,130.3258,130.8899,128.5044,123.7398,117.5573,111.0992,103.9723,97.35134,90.03768,81.60075,76.17187,73.75979,72.16565,70.58314,69.31385,67.56272,65.87481,64.98013,65.71984,67.39363,70.35004,71.45748,69.1838,66.63323,65.54509,64.7863,64.59028,64.76711,65.49356,65.85761,66.0091,65.67393,65.05884,63.84361,63.13,63.33496,63.8328,64.54743,65.84644,67.76706,69.81551,73.31938,76.8897,80.8737,84.91762,88.01105,92.29716,96.3674,100.8929,105.0555,108.7892,112.484,115.8257,118.4992,121.2504,124.3316,127.0057,129.3483,131.6125,132.672,132.7324,133.8276,135.5804,136.6643,137.2826,137.7711,138.1894,138.1093,136.7828,135.027,132.4519,129.3868,121.1689,113.6771,107.5163,109.8084,115.4441,123.3653,131.0928,132.1114,130.2895,128.8321,128.7218,134.3848,138.8283,140.6858,141.8848,141.5362,140.9191,140.9124,137.4732,132.8784,129.874,129.3421,129.084,129.3179,129.3994,128.9481,128.852,128.5289,129.5991,134.8634,137.7506,136.4016,132.4398,126.6526,126.1795,127.1327,128.2814,128.0156,126.8845,120.6386,112.5207,104.4554,92.21874,81.17766,72.37908,65.8403,58.81941,51.54791,43.89335,37.06384,30.40324,24.0922,17.63875,11.71128,6.439682,1.17138,-4.960601,-10.90435,-17.38213,-23.66522,-29.61628,-35.28242,-41.26438,-47.97564,-54.30734,-60.4318,-66.72115,-73.5663,-79.90658,-85.97973,-92.22442,-97.92638,-102.8837,-107.3746,-111.4719,-114.6653,-112.7536,-110.3125,-110.2825,-110.9537,-112.2393,-114.3148,-115.8615,-117.6217,-118.3432,-119.5722,-120.8432,-122.5145,-128.9229,-133.7025,-135.9199,-135.6786,-134.4952,-133.202,-127.1297,-122.0613,-118.9,-118.029,-116.2232,-112.9709,-110.0663,-108.5357,-107.0395,-106.1679,-105.6131,-105.9961,-112.34,-117.4663,-120.5843,-122.1881,-123.4986,-113.5361,-103.8739,-97.05619,-92.85928,-89.57865,-87.65107,-85.70139,-82.59532,-78.6658,-74.75805,-70.40551,-72.32529,-75.0799,-76.03025,-75.8138,-75.49075,-75.22756,-75.95612,-72.68511,-66.46645,-59.49987,-53.1308,-45.71574,-37.73035,-28.50173,-18.29899,-7.919076,2.617407,13.27185,18.35921,22.54075,27.41833,32.2746,38.16061,43.86933,48.51952,51.73658,54.55169,56.48605,58.01903,58.09748,57.43424,61.30123,66.55021,70.617,73.89112,76.74241,79.45176,83.12467,86.87472,90.39912,93.11338,95.63066,97.86886,99.86068,101.6663,103.3539,104.1917,105.7846,107.8452,109.7148,111.4342,112.4357,114.5049,116.9802,119.6419,122.4538,125.4715,122.7246,122.1001,125.1107,130.5162,136.4592,148.4674,159.3899,167.5627,170.0676,170.0042,171.1534,173.4288,175.4645,177.2804,177.6648,177.0704,175.7761,173.4746,171.0798,167.5811,170.1306,172.9575,176.1262,178.078,179.6764,181.6092,177.9789,173.0275,169.7608,167.5011,164.4833,161.1258,157.5105,153.2839,147.9042,142.1748,136.0887,129.7013,129.7857,131.3054,131.9405,132.0742,132.3924,127.1573,121.6202,117.8435,114.8521,112.6586,110.9041,108.2214,105.5803,102.5984,100.6345,98.27019,96.08698,94.2332,92.28759,90.6063,89.05747,86.94197,79.75202,74.94551,73.43123,73.0404,73.5592,79.69857,83.90964,85.53988,85.59061,85.94035,87.26382,89.16178,90.77799,91.59484,91.97099,92.96949,93.79429,94.44915,94.47654,94.2817,93.67374,93.53253,92.71927,92.46985,91.38838,90.36868,88.82381,87.33067,85.35242,82.6778,80.11056,77.1322,73.41165,69.28326,65.24165,60.80954,55.85402,49.96784,44.02248,38.87114,33.56348,27.52537,20.89738,13.76687,6.058256,-1.635271,-10.30071,-19.29887,-28.83717,-39.24392,-49.93645,-53.27985,-55.21682,-58.3196,-61.93313,-65.09774,-73.80981,-82.16144,-87.99123,-93.51776,-98.76564,-103.2761,-108.2579,-112.8143,-117.7582,-122.7083,-126.97,-130.9383,-134.4552,-138.3225,-141.7545,-145.0219,-146.9869,-149.6366,-152.5127,-155.0567,-157.8845,-165.0213,-168.8879,-170.6416,-167.8634,-163.4319,-161.9467,-161.7543,-161.5502,-160.8898,-159.9366,-158.6988,-157.009,-156.2625,-156.8316,-157.257,-156.7995,-157.0278,-157.203,-158.1291,-159.6425,-160.8944,-162.915,-164.3109,-166.6173,-169.8822,-172.8345,-176.8628,-181.4563,-187.1855,-193.0771,-200.0378,-205.8602,-211.6022,-217.1307,-216.4357,-213.7532,-211.225,-208.8329,-205.9528,-208.681,-211.459,-210.3592,-210.1801,-209.6317,-209.0069,-209.5656,-210.4551,-211.9056,-212.9909,-214.2837,-216.0216,-217.651,-219.2519,-221.4744,-223.1764,-224.9247,-226.714,-228.495,-231.044,-233.2689,-234.8568,-236.0922,-237.7767,-238.6877,-240.3202,-241.467,-241.7665,-241.4096,-242.1661,-242.9061,-242.2663,-240.2943,-238.5153,-237.9158,-237.1551,-235.7868,-234.0451,-232.0574,-229.8484,-228.1105,-225.7287,-222.6429,-219.6741,-216.056,-212.8023,-208.7734,-204.6847,-200.557,-196.5734,-192.4472,-187.929,-183.5016,-179.0307,-173.9801,-168.7768,-164.1011,-159.0178,-154.4714,-150.3927,-145.7909,-141.1573,-137.0236,-132.8608,-128.9894,-125.2855,-121.8404,-118.9465,-116.1155,-113.9751,-111.9592,-109.4166,-100.7804,-91.78004,-83.56753,-80.50327,-79.93761,-76.79835,-72.66195,-69.29227,-66.21231,-63.24239,-61.11308,-59.66963,-58.61997,-57.45686,-56.16268,-55.57217,-54.8767,-56.32798,-57.3001,-58.44292,-59.79935,-60.94171,-64.09611,-67.93863,-70.82645,-74.66688,-78.28305,-81.9832,-85.33563,-88.28165,-89.12536,-90.47701,-92.09795,-93.75494,-94.34501,-94.28322,-94.90675,-95.04969,-95.24974,-96.58771,-95.94544,-97.82485,-98.21544,-98.98225,-99.99084,-100.9301,-100.31,-101.0127,-101.9284,-103.3953,-103.7666,-104.1304,-103.1508,-103.146,-103.7484,-103.9632,-103.3905,-103.3638,-102.7119,-102.6441,-101.2656,-100.015,-99.21138,-99.21689,-98.31419,-97.33217,-97.51227,-98.05622,-98.33337,-97.59464,-97.83843,-98.79963,-99.99938,-101.0316,-102.4518,-104.868,-105.7762,-107.9863,-111.342,-112.3425,-113.1612,-114.8723,-116.1215,-118.397,-119.6665,-121.2687,-123.3125,-125.4958,-128.3805,-130.2806,-133.3061,-135.2586,-136.8214,-139.7575,-141.8467,-143.8322,-145.3006,-147.4811,-148.9314,-150.1942,-151.4748,-152.7872,-154.6327,-155.7057,-156.1385,-156.7421,-157.2511,-157.3409,-157.4269,-157.6355,-157.2279,-156.1412,-155.5427,-154.8386,-153.0784,-151.4381,-149.7652,-148.4331,-146.2443,-144.3294,-142.3163,-139.2989,-136.228,-133.3627,-129.9764,-126.6195,-123.0198,-119.0484,-114.7251,-110.9395,-106.7428,-102.4,-99.1758,-95.05339,-89.67775,-85.38846,-80.51744,-76.28034,-72.32309,-68.08245,-63.93794,-59.3776,-55.70154,-52.23347,-47.96162,-43.97165,-41.46118,-37.69713,-35.00666,-32.36729,-28.64884,-26.5067,-24.1924,-21.47792,-19.75411,-17.53826,-15.04097,-14.74537,-13.11359,-11.64017,-9.407086,-7.156149,-4.977024,-5.024905,-3.576875,-2.096317,0.09663127,2.830075,3.820415,5.63663,8.116336,9.399897,10.71181,12.32094,12.63201,13.49822,14.6275,15.70029,16.20813,16.55197,16.95498,16.86619,17.82954,17.79339,17.75758,18.08136,19.51806,20.23719,21.27858,23.52074,23.98547,25.20112,26.83641,26.79062,27.67586,28.60968,29.45897,29.88807,30.70215,31.67823,31.86084,33.30317,34.36914,34.94825,36.40125,36.50559,37.38492,37.51945,38.15329,39.48624,38.81524,38.79397,39.85809,40.70073,40.74859,39.91315,40.41206,40.84078,40.69081,40.59714,40.56265,40.28205,40.5859,40.52341,39.81154,38.76078,38.97306,38.6851,39.12232,38.19941,37.67995,38.58408,38.69022,38.9195,38.61414,39.10839,39.37722,40.05269,39.41337,40.104,40.61559,40.66295,41.43712,42.849,43.95108,43.21647,43.40417,43.6887,44.49599,44.54298,44.56816,44.7205,44.06809,44.60027,45.372,45.02033,45.25828,46.46952,46.82223,47.04133,47.44345,47.72145,48.85246,50.16412,49.41181,49.90775,50.36225,51.06895,52.16962,52.52847,52.32197,53.0557,52.88848,53.2516,54.2048,54.29765,54.31098,54.6663,53.76151,54.24487,54.0527,53.84705,53.69255,53.61432,52.92232,53.03656,52.60939,51.91646,51.72756,51.09504,51.20919,49.8334,49.73611,48.96145,48.39888,46.85585,45.95993,45.69223,44.46271,43.73181,42.96913,43.18193,41.94085,41.44156,41.59791,41.26804,40.84787,40.18467,40.3116,40.06454,40.29529,39.87014,40.34985,40.43636,40.37878,40.894,40.9744,41.65663,42.32369,43.63938,42.95798,44.32275,45.3403,45.83614,46.0915,46.79556,48.13329,48.31879,49.24386,49.09683,41.79195,40.54356,43.17422,43.67909,48.99325,53.43187,54.95627,56.53685,58.50903,60.67829,62.36345,65.03278,66.28268,68.19337,68.69869,69.67103,70.28102,71.39329,72.43471,73.68638,74.07367,73.42033,72.78469,71.70713,69.56803,66.54815,63.99307,61.40646,57.83332,53.54561,49.46982,45.37842,41.29177,37.95417,34.13178,29.38228,24.40698,21.29683,17.27349,13.01805,8.060102,3.286339,-0.4545592,-4.719252,-9.066212,-10.49635,-13.46082,-14.52903,-14.80559,-15.51687,-15.63276,-14.63397,-13.79036,-11.58224,-9.673043,-8.685655,-6.689196,-3.64518,-0.4331064,2.476133,5.606303,8.9231,12.10018,16.54466,20.74187,24.02683,25.91341,30.40924,34.05527,37.698,41.04791,43.99066,47.72729,52.21042,55.43912,57.18423,61.30116,63.80814,67.14961,69.55498,71.41708,73.29056,74.85982,77.22868,78.09322,78.47008,78.99173,79.16812,79.25156,78.86272,78.35692,76.82212,75.78149,73.30116,72.68945,70.30287,65.86508,63.86602,59.8999,56.01937,51.33647,45.65026,40.00095,34.70885,28.09536,20.81496,13.73754,5.857521,-2.35897,-11.22675,-18.67168,-17.71961,-19.98679,-23.24634,-25.33319,-31.819,-36.86657,-39.28245,-41.89864,-43.78436,-46.73496,-48.63948,-50.85932,-52.05703,-52.33304,-52.56093,-52.15792,-51.25943,-49.66629,-49.28429,-48.87953,-48.84035,-48.20017,-46.67895,-46.14643,-45.18348,-44.70739,-43.44398,-42.37817,-40.44438,-38.20485,-37.38012,-36.66198,-36.23873,-36.19145,-36.51973,-38.40152,-38.71251,-40.37809,-42.5699,-45.52533,-46.6043,-48.40107,-49.95074,-49.88808,-49.84223,-51.58283,-51.08543,-50.58566,-51.59645,-53.17182,-53.36936,-53.11468,-52.60526,-59.91996,-61.72813,-59.92849,-59.29658,-57.32943,-48.14674,-43.79841,-42.38913,-41.0983,-36.85998,-34.5911,-33.75502,-31.62479,-28.45673,-27.47672,-25.8409,-24.96575,-24.11589,-22.98776,-21.59437,-22.3589,-22.43795,-21.47467,-21.96682,-21.37477,-22.01626,-22.9146,-23.07464,-23.62988,-23.65253,-25.09858,-26.89335,-27.99774,-27.34663,-27.48138,-27.26164,-26.63577,-26.67566,-25.90167,-25.69637,-23.56784,-24.03821,-25.60593,-25.18127,-23.98687,-22.74024,-22.22394,-21.95411,-20.4408,-19.07706,-18.74351,-18.74197,-19.01028,-18.89685,-19.75054,-19.46216,-18.93807,-19.23899,-18.64846,-17.89687,-17.99073,-17.6857,-17.26401,-18.11833,-18.8326,-18.94747,-19.96286,-21.049,-21.67558,-22.12863,-22.76872,-24.66465,-25.26543,-26.39053,-27.23972,-28.31308,-29.33369,-30.56211,-31.0384,-31.40092,-31.70794,-32.08459,-32.12019,-32.11923,-31.22523,-31.05111,-30.81085,-32.25152,-32.78279,-33.51672,-33.27439,-33.7312,-35.44191,-36.31055,-36.91974,-37.32277,-38.40699,-39.30326,-40.94815,-41.97765,-42.31684,-44.08695,-45.91344,-47.98189,-49.07631,-52.23596,-54.15906,-55.146,-57.24048,-59.78333,-62.33595,-54.88627,-50.60911,-48.15567,-42.63481,-36.42351,-38.45392,-37.587,-34.6435,-30.72749,-28.59329,-26.44976,-22.90839,-21.7078,-19.19925,-16.14258,-13.99079,-11.60989,-9.765675,-7.439868,-5.843407,-3.952575,-2.20762,-0.9228727,0.8693663,1.325611,0.4356015,1.70034,1.930959,2.394355,1.630796,2.390391,3.808069,4.838553,5.084897,4.698069,6.325077,6.68227,6.361799,4.954156,4.406854,4.637093,4.066917,5.834301,7.242639,7.704879,8.431711,9.207522,8.891163,9.21432,8.388448,8.955391,8.640664,8.937294,8.556577,9.176925,10.68187,12.18811,12.02108,11.46779,11.78621,10.72469,11.47893,11.20348,10.06848,10.79545,10.37604,10.26771,9.491511,8.238796,7.81261,7.881331,8.063216,6.425132,6.162722,5.583713,5.313936,4.491814,3.699763,3.709726,3.524873,3.642013,2.67787,2.004164,2.139652,1.583286,2.098452,1.625127,1.73888,0.950491,1.42982,1.781357,0.9704541,1.322099,3.094707,3.68628,2.35662,4.322235,5.691403,6.890202,8.392419,9.004483,11.12078,11.85142,13.23451,14.48887,15.52657,17.11217,18.01724,19.69507,20.27781,21.94654,24.35881,24.47154,26.8956,28.62343,30.14805,31.66676,33.65987,35.10056,37.58864,38.3892,32.57607,33.11732,36.19118,37.68886,46.73156,50.70017,52.48851,55.27312,58.89091,61.21015,64.25567,65.96081,67.43106,67.6894,69.59102,72.08428,71.18587,72.07281,72.28764,72.78694,72.77853,72.92618,71.84831,69.67638,68.95404,67.1921,64.08799,63.15525,62.77088,63.90068,64.0556,63.98861,62.84398,63.35568,63.46645,62.84302,59.95703,59.64033,59.11444,58.02499,57.87016,56.41087,55.76046,55.58666,55.65868,53.86186,51.76903,49.6165,46.5748,47.11555,46.64205,45.349,43.38172,43.58508,42.13504,40.76908,39.16662,37.4383,36.49302,34.20754,32.33979,30.59452,29.94797,28.8382,27.89381,26.32303,25.80471,25.89778,24.49014,23.04184,21.93089,22.11658,19.77272,20.00345,19.93553,19.65086,19.31519,18.40242,19.61379,19.54733,19.51605,21.14332,20.95445,21.37445,21.61443,24.08814,25.0912,25.02386,25.87145,26.66332,29.02281,28.50737,29.56417,30.6211,31.16779,32.79728,33.03284,34.01388,33.77801,35.71916,35.97229,34.96876,35.97953,34.88605,35.32646,35.00101,33.87994,32.20393,31.09267,28.67591,28.7997,37.15724,40.95971,43.52344,48.75761,46.35467,47.02513,49.42234,51.78208,52.67399,55.23615,55.90613,56.85554,58.32096,60.10992,60.86167,61.70623,63.03277,63.02265,63.87916,64.47877,64.91667,63.45068,62.69631,57.91032,55.83702,56.47936,58.75363,65.25626,69.30136,70.19369,70.77939,71.67065,72.91372,73.37437,73.18629,73.71192,75.3468,75.46044,75.20768,77.0324,76.11609,76.00655,74.71117,73.38922,72.49465,70.42282,68.7891,67.38879,67.89384,65.0534,63.54071,60.62115,57.92486,55.08496,52.81921,49.60354,45.51132,42.83886,39.67799,37.69243,35.53126,33.00618,29.70764,27.01116,24.3441,21.76655,18.81525,16.31453,13.1036,11.46377,9.072334,6.259403,5.834113,3.164925,1.506036,0.8114326,-1.060665,-2.043397,-3.190988,-3.257239,-4.530979,-5.710728,-6.130419,-6.957465,-7.60222,-7.496875,-7.630444,-7.001296,-6.775141,-5.612415,-5.297876,-3.012427,-2.261259,-0.4202354,1.258313,3.697207,5.471559,6.662172,8.764182,11.10333,13.67686,15.50699,16.75302,19.8948,21.87658,24.17944,26.03356,27.30475,30.4381,31.85221,33.70806,35.35503,35.62841,37.54563,38.79565,39.65742,40.57477,40.88254,41.35532,41.47079,40.41271,40.21864,39.63004,38.1028,36.63012,34.78728,31.8904,29.05732,25.97602,22.53412,18.75434,13.21755,8.919287,4.017078,5.822147,7.558607,7.150043,7.574511,2.035605,-1.402168,-3.084097,-5.236945,-7.450628,-9.844403,-10.97069,-12.68704,-15.35224,-17.29052,-19.68104,-21.3211,-23.41084,-25.95152,-27.87871,-29.51854,-32.07795,-34.86427,-35.43899,-38.39918,-40.04842,-40.54662,-42.86197,-44.18375,-46.25061,-46.40799,-46.41254,-48.87144,-49.36287,-49.51735,-50.40157,-50.15251,-49.62458,-49.32735,-49.81207,-48.78413,-48.54233,-47.63852,-46.34283,-45.24009,-44.95733,-42.52588,-41.23465,-39.57886,-38.13334,-36.62424,-34.6923,-31.84101,-30.19015,-28.79929,-26.59592,-24.98287,-23.38135,-21.63695,-20.48247,-19.34101,-17.87964,-14.67885,-13.82388,-12.73316,-10.74167,-9.074061,-7.057721,-5.033008,-3.887227,-1.742492,0.1429976,2.488728,3.002276,5.003872,6.486176,7.783641,9.093568,10.01043,10.92103,12.88863,14.47468,15.36317,16.8984,18.24747,19.95748,19.61825,22.16174,22.50005,22.57002,24.44943,23.86551,16.34064,14.70286,16.0538,15.6721,15.4785,25.43594,26.14666,26.23882,27.71377,29.9018,30.88318,32.52501,32.88408,32.67144,33.81624,35.0584,34.37317,34.43546,33.25616,34.46201,33.72111,33.75337,33.00901,32.20822,32.13862,31.45521,30.39932,29.0206,27.58077,26.32974,23.86818,23.10744,20.40686,17.14764,16.26181,13.44088,11.30294,8.129213,4.656254,2.296991,0.8536095,-3.030642,-5.704343,-9.155141,-11.79136,-14.76147,-18.35749,-20.32681,-23.95099,-27.24431,-30.35188,-33.0854,-35.41224,-38.24909,-41.36535,-43.7235,-46.78916,-49.32955,-52.07955,-55.51706,-56.65434,-58.64098,-60.92535,-63.5345,-64.7764,-66.92936,-67.13218,-68.34674,-69.78066,-69.97021,-70.63451,-70.45834,-72.17191,-72.15703,-72.37224,-72.19153,-72.30583,-71.71791,-72.05006,-71.65967,-70.25668,-69.62559,-68.43779,-67.49134,-65.56664,-64.4264,-62.0895,-60.70837,-56.72405,-54.32991,-54.12852,-53.63706,-50.56881,-50.01937,-48.94668,-46.65232,-47.54999,-45.60432,-45.09792,-44.6163,-44.89327,-44.61524,-46.07709,-48.70532,-50.67028,-52.49111,-55.94386,-58.91083,-62.00994,-65.97837,-68.93285,-63.59086,-59.92568,-58.4308,-52.58154,-46.21225,-51.46359,-48.24749,-43.61204,-42.29061,-39.51434,-37.66191,-36.38014,-36.0047,-34.68755,-30.63333,-30.96803,-27.48218,-27.02939,-21.26966,-20.01953,-17.1077,-15.32879,-14.41849,-13.11465,-10.72008,-9.366264,-8.199197,-5.283299,-4.53387,-2.113469,-0.1637303,-0.469056,-0.05021236,0.6440737,-2.035145,0.6756663,-0.02503208,0.2758239,0.6396433,0.6880082,1.765306,2.201208,1.183604,2.917672,1.572779,1.630622,1.753233,0.09216977,-1.218954,-1.274227,-2.880761,-3.85452,-5.599057,-8.604889,-9.472725,-11.04399,-12.56507,-15.61038,-16.80473,-18.30663,-20.58497,-22.12591,-24.06613,-25.51904,-26.87808,-28.05158,-29.72333,-31.0274,-32.17606,-33.20492,-32.99864,-34.90306,-34.86375,-35.4231,-35.01755,-34.92142,-34.0369,-33.86589,-31.58448,-30.37162,-27.92845,-27.13254,-23.26613,-19.67582,-17.14453,-13.97635,-8.682009,-5.058048,-3.705305,-1.219696,3.147137,6.857964,9.803406,11.78432,15.24001,17.14654,21.28521,22.58131,24.16164,25.58677,27.36924,27.00956,28.69294,29.29826,30.84586,32.36476,33.12961,34.55638,36.41264,36.07579,37.52245,39.98687,41.83816,42.87213,42.7764,43.40885,45.00708,44.57658,42.90369,43.20032,42.08331,42.00862,40.59286,31.94348,34.77942,33.60262,34.97408,39.00715,44.74144,42.18851,43.18966,44.03692,44.74022,44.8724,47.2457,46.26347,46.17023,46.92792,45.4043,43.97192,41.82654,40.31919,37.2179,36.04875,33.9745,35.28868,31.54073,30.18382,29.22104,28.88365,27.84591,24.00682,23.35703,22.25255,19.04443,18.31413,15.2328,14.85148,11.13311,10.39657,7.704222,5.763766,5.476756,2.008566,1.560154,0.6255676,-2.027572,-2.572676,-3.725503,-5.238481,-5.593895,-7.501194,-8.436487,-8.614243,-9.632053,-9.875638,-10.45389,-11.48713,-11.54939,-12.1997,-12.90927,-13.42445,-13.2293,-13.93928,-13.22272,-13.66011,-13.14793,-12.89475,-11.53358,-13.09164,-11.22961,-11.0903,-9.242007,-9.653016,-8.644517,-7.728456,-5.019991,-5.250109,-5.41259,-2.355227,-2.274891,0.1840636,1.88195,2.913984,5.054742,6.281303,7.950454,9.974044,11.1551,13.4667,14.57557,16.1219,19.62613,19.7302,22.54729,22.42258,23.96297,25.75091,27.22219,26.55087,28.398,28.48431,28.49637,27.76886,28.12877,27.83163,26.55608,25.73987,23.82796,23.59266,20.74944,19.35881,16.72046,13.85304,24.27098,24.7687,27.55403,32.41897,30.32636,30.02082,30.25992,31.25627,30.67753,30.80651,32.43942,33.534,35.93002,37.24098,39.06281,40.47234,41.11434,41.04953,41.73391,45.02866,45.3194,44.75733,46.61209,48.41673,49.93613,51.5065,51.04503,51.23483,52.61023,53.09057,52.27442,51.04833,47.53807,40.59874,39.29175,40.1927,47.31215,45.84123,45.78792,45.6644,46.82293,45.64341,44.57517,44.991,42.56064,41.42351,39.22552,36.8362,35.6675,32.84281,29.02842,26.68826,22.31343,19.76607,16.06878,11.61096,8.370427,3.947361,0.605447,-3.586277,-7.814392,-11.08943,-16.0697,-18.43057,-23.36612,-27.71548,-30.15108,-34.94549,-38.26855,-41.36156,-44.20831,-48.69157,-51.17814,-53.8931,-57.20719,-58.42281,-62.43991,-63.53695,-65.70884,-68.47177,-69.21722,-71.64619,-72.30541,-73.21401,-74.23172,-75.12586,-75.37823,-74.86204,-74.55121,-75.33607,-74.31199,-74.52709,-72.6488,-73.13098,-71.28961,-71.66863,-70.02487,-69.19897,-68.00423,-66.15312,-64.12867,-63.87509,-61.82017,-60.08445,-58.0608,-54.12467,-53.08437,-49.61323,-48.8817,-46.79715,-44.70141,-45.00953,-43.78081,-43.0097,-43.52892,-43.36571,-44.62434,-43.81,-43.79207,-41.52121,-41.94859,-39.9756,-40.51254,-40.84126,-41.31382,-41.05091,-42.44102,-42.30773,-40.73115,-38.80446,-40.25639,-40.00002,-37.92883,-38.73217,-38.52321,-39.45367,-40.96295,-40.9846,-41.74075,-40.66283,-42.71493,-43.64145,-42.74901,-39.58819,-29.33619,-24.54148,-19.33128,-21.5482,-16.93886,-12.45133,-9.775979,-8.857569,-4.761647,-1.675099,-0.09319068,3.216666,4.862168,6.498153,10.80083,13.04528,16.65934,19.87012,23.01042,26.20866,28.62149,31.22576,33.99248,35.02572,38.6578,39.98476,41.55167,43.08614,43.26454,46.30386,45.07122,47.45677,47.30783,46.13557,47.87249,45.77521,46.29775,45.77678,45.39169,45.15875,43.15156,41.66711,40.80193,38.10822,37.19421,34.60967,33.91816,30.71089,29.37407,26.8338,25.08416,22.32865,20.40915,17.64224,14.98442,12.60743,10.06198,6.531082,5.253405,2.798455,0.7177798,-1.313805,-3.190999,-4.342637,-6.134687,-6.046316,-8.223358,-8.020461,-7.772788,-8.290988,-5.507208,-6.550606,-6.100577,-5.314511,-5.687716,-4.107077,-3.492616,-2.916619,-2.119691,-1.177485,-0.1861334,0.08202916,1.57005,2.09521,4.472111,4.826253,5.960527,7.90783,9.059233,9.392854,11.9808,12.76404,13.56043,15.28657,15.64518,18.08628,17.46598,18.86645,19.44381,20.55436,20.95239,20.97651,23.13758,24.83153,25.05083,28.69874,27.78052,29.59526,30.8895,31.44781,31.74533,32.20178,32.61487,32.55234,30.47988,31.54654,30.62032,28.8746,29.58544,27.67678,25.83304,27.20211,26.623,26.56929,27.77279,26.99121,27.33983,27.3205,26.79148,25.23829,25.39544,23.38945,24.20456,21.4987,21.54228,20.34338,17.63749,18.08507,17.1686,15.42303,14.48888,14.11454,11.32136,10.13246,9.505672,7.456488,8.484846,5.711065,4.184527,3.735703,1.382159,0.2715502,-1.037502,-3.098049,-2.598751,-5.810421,-6.738185,-7.998558,-8.905419,-11.23501,-12.7609,-14.35465,-15.65173,-16.38741,-18.82018,-19.01201,-21.07018,-21.45454,-21.22169,-23.11347,-24.95281,-24.1155,-26.03075,-25.81769,-26.8223,-26.81059,-29.13946,-28.86266,-30.20262,-30.51375,-30.40781,-32.4939,-32.48789,-32.48978,-33.5357,-33.99885,-34.97355,-34.94667,-35.97437,-36.28477,-35.57845,-36.34769,-37.67873,-36.06481,-36.39437,-36.8184,-36.26049,-36.95595,-36.5437,-38.1583,-38.57967,-38.31548,-39.08245,-39.8572,-40.70421,-39.95952,-42.39933,-41.37216,-42.86227,-43.52885,-44.27917,-44.84912,-43.41768,-44.63352,-45.71887,-45.42681,-45.89903,-46.98422,-46.78339,-47.56637,-49.42841,-49.08292,-49.79467,-51.60433,-51.24818,-49.63612,-51.62378,-50.87875,-50.60324,-51.25587,-50.59228,-48.81696,-49.18287,-49.39179,-47.49144,-46.14187,-45.5917,-43.37433,-42.56661,-41.27184,-37.60942,-36.78718,-34.15563,-31.72873,-28.39412,-26.12922,-23.27075,-18.42922,-16.83443,-12.65366,-9.241636,-6.672245,-3.371302,1.390145,4.062553,7.93686,12.14775,14.64648,19.18277,23.4605,26.80808,29.71751,34.15872,37.37694,41.86315,42.82794,47.961,50.10912,53.7306,55.65973,60.2326,62.74912,66.26187,68.99002,71.39761,74.79252,76.61146,80.15281,82.50677,84.15945,84.64157,74.1396,78.7428,78.30985,77.76213,79.71711,91.5728,89.94942,94.43294,96.98352,100.9611,102.8576,105.1716,107.7067,107.0895,107.831,110.5564,111.6227,111.4359,113.8618,113.632,114.6844,114.3214,117.0557,114.8381,114.8129,112.249,110.6656,107.3366,103.9723,101.4779,99.80771,94.90268,93.37137,90.39291,86.67048,82.7679,80.0867,74.88058,69.77355,63.80264,57.67248,54.64723,46.49519,41.60584,38.40441,31.51336,26.70011,22.1526,15.78998,11.29942,5.58144,-0.6008363,-6.419118,-10.31789,-16.27513,-22.70588,-27.64205,-32.84511,-38.29473,-43.85777,-49.19325,-53.80717,-59.00824,-63.4308,-68.57502,-72.30351,-76.75562,-81.11348,-84.50818,-87.13271,-91.25532,-92.9224,-95.15471,-97.3013,-98.73609,-99.16591,-101.3474,-101.6892,-100.5588,-101.3908,-100.4494,-99.45686,-96.42503,-95.28771,-92.2482,-88.99763,-86.75417,-82.714,-78.4727,-75.0472,-71.16358,-66.38031,-62.40876,-57.4403,-54.68462,-48.71996,-45.14287,-39.8526,-35.61333,-31.92287,-28.15353,-24.82234,-21.52274,-20.59125,-19.42938,-16.58014,-16.66095,-17.78175,-19.62096,-21.31821,-23.25487,-10.03099,-11.72782,-5.837788,0.8605073,6.066825,-0.7367357,5.489089,7.452501,8.832081,9.289973,10.41379,11.78783,12.61771,14.16353,17.61668,16.01693,18.48575,20.97011,20.59635,22.96548,21.83286,23.371,21.71799,22.03699,20.16204,19.96991,20.37433,19.36429,19.13737,19.8673,19.71396,18.55894,17.89414,15.63849,15.18523,12.157,10.69624,7.146292,6.669284,5.906042,5.219135,3.912424,4.441638,4.468757,0.9124365,3.399591,2.122082,1.522386,2.214788,1.032224,1.610792,2.489896,3.007373,3.449833,4.818484,5.024193,6.535398,6.074839,6.782645,7.36978,9.8571,8.382738,9.600188,11.05841,11.15701,11.31177,11.62022,12.98472,13.08229,12.88643,14.27677,13.28371,14.75657,13.75586,13.26399,14.57507,13.91132,14.46719,14.12593,14.0063,15.62598,15.55727,15.7975,14.59021,15.98387,14.80156,14.89363,15.82004,14.9435,14.49383,14.1512,14.37586,12.85688,12.80347,13.8903,12.00782,12.81387,11.89082,10.75076,11.71317,9.954269,9.666823,7.596297,9.207926,-1.769777,-0.3206763,-2.278816,-3.329059,-2.558503,5.987904,2.137599,4.222639,6.650414,7.440878,7.776944,7.620458,9.424577,8.596944,8.143935,7.324463,6.056827,4.235161,2.601092,2.279385,1.461,-0.8741456,0.3045354,-1.50813,-1.807002,-2.413025,-2.538039,-3.32468,-3.797963,-4.7582,-5.143317,-6.260239,-7.188685,-9.425363,-9.43422,-10.57253,-12.72712,-14.41136,-16.98176,-19.14616,-20.98601,-23.52026,-26.74357,-29.7275,-31.57926,-34.26265,-36.88037,-38.77342,-42.52687,-44.67301,-46.89142,-47.98239,-50.65412,-53.29221,-54.08494,-55.87736,-58.0804,-59.69652,-61.16131,-61.8603,-63.70762,-65.74661,-66.54967,-66.64619,-67.17961,-67.12044,-66.92942,-68.80422,-66.20981,-67.54019,-66.3525,-64.63804,-63.66151,-62.35306,-62.17494,-60.54565,-58.2029,-58.74901,-57.24963,-55.34199,-54.1754,-51.11606,-52.75911,-49.78746,-47.11181,-45.21538,-42.92922,-42.94676,-39.45946,-39.5699,-36.47297,-36.9132,-34.26228,-33.37193,-32.89634,-30.59994,-30.33647,-28.44941,-28.02894,-25.42933,-25.69947,-25.18546,-23.62615,-23.93492,-23.64874,-23.02644,-23.99212,-25.53952,-25.98878,-27.00754,-30.26045,-18.39498,-19.03969,-14.83202,-8.160042,-3.811113,-9.273007,-1.761757,-1.469845,0.2565214,0.7418955,3.087475,3.906831,3.754246,6.288932,6.036552,8.000042,9.752732,11.11383,14.01184,15.50614,18.80499,21.51606,23.59852,27.96106,29.45231,33.97935,35.20824,37.89896,41.20448,43.86514,46.41303,48.89553,51.75179,53.46348,55.21355,57.57402,58.94287,60.54422,62.32801,63.71975,65.83858,64.66798,68.77631,68.22908,70.43374,70.65384,71.1252,71.52378,72.01622,72.60833,72.07012,71.78842,71.18868,71.6527,70.46441,69.63353,67.89791,66.08109,64.95975,63.2282,62.70104,62.35475,61.72852,60.76464,60.83395,59.64486,59.29662,60.52859,59.11204,60.83974,60.10891,60.56319,58.75163,58.53858,52.86566,49.59278,48.97471,48.66067,48.84921,59.02315,56.0607,58.19197,61.60309,62.98825,63.98243,63.33308,62.31489,63.87814,61.9004,61.41793,60.12045,59.79186,58.14663,57.18445,57.01942,55.2057,53.64445,53.15174,51.63597,48.59833,47.42207,44.80729,42.23643,38.90916,35.08197,30.94888,29.11035,25.72011,23.20751,19.8549,18.42581,15.43285,12.19608,9.875325,5.08701,2.549373,-0.5297044,-4.088508,-7.623239,-11.1578,-14.3285,-18.52727,-21.73774,-27.04827,-30.66169,-32.61718,-36.5828,-39.42207,-40.67163,-42.39065,-42.25796,-43.88867,-45.38002,-43.76864,-45.69589,-43.96261,-45.77657,-45.29964,-43.25657,-44.37143,-42.79951,-42.75885,-40.56838,-40.71199,-38.8195,-36.59839,-35.40337,-34.43825,-33.98461,-32.30707,-30.40958,-28.60846,-25.16078,-25.04861,-20.5925,-17.9909,-15.2198,-11.27918,-8.225018,-4.266714,-2.758564,1.051132,2.939179,6.443473,7.625783,9.344211,9.394461,12.84989,13.84357,15.09966,16.80425,16.90486,17.7799,18.32121,16.89927,16.0423,15.29291,14.56904,11.79595,9.524115,6.761135,4.425081,-0.8793031,-4.49153,-8.318728,-6.822416,-4.685335,-4.750972,-2.482631,0.3243146,-9.853105,-5.340008,-9.07644,-10.48102,-11.9046,-14.19591,-15.16605,-15.42353,-18.60777,-17.29405,-19.31567,-18.95979,-19.40315,-20.58364,-19.5299,-21.29135,-21.51353,-21.02062,-23.11269,-23.25699,-24.00534,-24.16357,-25.87226,-26.16252,-26.26009,-25.72657,-23.36636,-24.01002,-22.65233,-22.58324,-21.71168,-21.88391,-21.42511,-22.16113,-22.004,-21.7573,-22.14212,-21.99954,-23.95513,-24.42199,-23.87475,-25.66015,-26.78809,-26.73082,-25.93555,-25.99983,-25.48269,-24.87457,-23.91586,-22.39024,-22.05721,-22.24296,-21.30134,-20.9541,-20.52593,-21.71272,-20.77532,-21.77594,-20.39881,-22.57452,-22.27695,-24.16645,-23.19561,-25.64481,-25.67791,-27.63683,-29.32006,-31.78409,-32.27685,-33.58867,-34.0949,-35.36728,-35.93563,-36.3752,-36.11974,-36.76698,-37.42408,-36.59046,-38.60525,-38.71679,-40.06651,-39.4009,-40.8401,-41.35257,-42.12551,-42.31381,-42.80255,-42.83811,-44.56942,-43.86065,-45.95667,-46.47121,-46.85152,-47.83933,-49.93081,-48.69875,-59.91088,-54.30891,-56.09092,-45.93324,-49.12373,-46.77193,-45.65519,-44.95248,-43.07192,-45.14702,-42.76998,-44.15805,-45.19317,-45.0904,-46.89636,-47.73879,-48.66793,-50.1374,-51.78907,-52.27247,-53.29869,-55.75971,-56.02753,-56.39567,-58.98192,-59.43086,-59.21718,-60.20584,-60.60231,-61.69272,-61.14007,-60.78597,-61.05029,-60.328,-60.70808,-59.53042,-59.13788,-58.10167,-56.66758,-55.71834,-53.27327,-52.19868,-50.9391,-48.01938,-47.15301,-43.74122,-41.50478,-39.76115,-35.69646,-34.02019,-30.29386,-26.63447,-24.34829,-20.29212,-15.96902,-14.7939,-8.7681,-5.991325,-2.136057,1.974674,5.745823,9.580708,13.9317,18.06658,21.10064,25.52162,28.94715,33.41404,37.55758,39.37571,45.60654,46.67665,52.09128,53.88194,58.42957,61.44254,66.55261,68.31226,72.60399,75.04028,78.80527,80.49522,85.53816,86.48076,89.39193,91.42493,94.21161,95.78654,97.53009,99.5749,101.0463,101.8242,102.2452,101.1424,101.5334,100.2492,100.2025,101.8103,101.7224,102.1504,101.6734,102.7599,103.3727,103.0615,102.0189,104.3453,103.5828,104.0411,105.1346,105.3265,103.9763,119.5393,118.8673,125.3866,119.1773,123.5415,126.3232,124.3453,115.8353,117.7483,115.2185,112.5083,112.7314,120.202,118.2899,119.3177,121.9084,121.4439,123.2165,123.1375,122.6336,120.3763,118.2933,114.4119,112.8507,109.4228,106.9525,102.2724,99.42628,95.05789,90.52124,86.24609,79.99496,75.32586,67.44977,61.30715,56.0803,48.5038,42.1503,35.68473,28.08506,21.12905,14.5944,7.172156,1.101358,-4.243963,-13.28821,-17.52918,-23.16942,-30.46782,-34.82913,-39.94597,-44.49917,-50.05685,-52.2584,-56.9485,-60.11633,-62.84515,-64.68461,-67.44602,-68.42178,-70.27395,-69.79228,-70.44282,-70.2351,-69.00944,-69.01696,-65.63932,-65.70852,-63.31124,-60.73671,-57.61108,-54.4993,-50.95856,-46.6276,-42.74098,-39.52398,-34.32608,-29.25502,-25.19992,-21.32315,-16.24271,-11.32052,-7.733157,-3.960719,1.25738,4.394695,8.197246,12.45682,15.41179,17.50566,19.79353,22.75384,23.97469,27.98017,29.2488,30.82258,34.96456,34.87456,38.1819,38.53851,41.01965,34.33213,36.2528,37.40073,37.73296,38.27624,50.45331,47.36111,50.46497,53.20419,53.95259,54.78839,53.78805,53.04952,49.35722,47.27485,39.87302,37.21968,40.77005,35.11061,36.60707,37.27195,38.02809,29.37245,28.67999,24.83075,21.28416,15.82498,10.47595,6.647889,-0.9314881,-5.560982,-9.728127,-13.26856,-19.14952,-23.89407,-28.33296,-32.86798,-38.98735,-43.72694,-49.34766,-53.41401,-58.34641,-65.0121,-67.28054,-71.937,-77.21208,-80.93197,-83.7558,-88.41235,-91.23552,-96.37427,-97.5384,-100.4961,-104.2776,-106.8808,-108.0552,-110.8103,-112.8273,-114.2541,-114.7826,-116.5559,-116.8004,-116.003,-117.9346,-117.3988,-115.4969,-116.3279,-114.7005,-114.103,-111.8106,-109.7428,-108.6835,-105.6258,-104.266,-101.8167,-98.10445,-97.38864,-92.92574,-90.18179,-87.4013,-83.87761,-81.10944,-77.82952,-75.03911,-72.02092,-68.53816,-65.92429,-63.6986,-61.47919,-58.87479,-57.34273,-53.62914,-53.89174,-50.23905,-50.57946,-49.16104,-47.66062,-47.97631,-48.67256,-50.01806,-50.75564,-54.08383,-56.58224,-61.49984,-63.36144,-67.08923,-69.81834,-75.15236,-79.02209,-83.28624,-87.68225,-83.45557,-82.94854,-83.39205,-79.92715,-75.95873,-83.09868,-79.07924,-77.37353,-79.53736,-75.83675,-77.06198,-77.25434,-76.22722,-76.3655,-74.65582,-75.04203,-74.99078,-72.55799,-72.49743,-72.83731,-71.82164,-70.63209,-68.90731,-68.03398,-65.45962,-63.91205,-61.41408,-58.93645,-58.24782,-54.9729,-53.5135,-50.82023,-49.59552,-49.41981,-46.67461,-44.7261,-41.27862,-38.25561,-35.15239,-30.50878,-27.77643,-23.8352,-19.01743,-16.9606,-13.3213,-7.323177,-4.572102,-1.63346,2.902563,4.334903,9.326652,11.35533,12.87155,16.08798,17.74078,18.8618,21.6583,20.62693,24.45132,22.50255,25.50581,24.91034,26.51023,25.34057,28.86908,26.37368,29.63993,27.64879,29.34257,29.45607,30.07413,31.15225,30.26303,32.26579,31.8373,32.2636,32.6277,33.10172,35.64854,33.68862,36.33779,37.2569,39.23027,39.17696,42.373,42.98709,44.40413,45.92028,48.3452,49.90688,51.63917,53.45642,55.68285,58.4672,59.46242,63.38409,63.67359,67.13361,68.53767,71.52068,71.78913,77.05718,77.36866,82.80872,83.88886,87.60274,89.31724,92.77049,94.89888,96.99957,100.1439,103.7373,104.9378,107.9583,108.8503,111.6273,110.564,116.3698,114.7009,119.0414,120.5175,122.4462,126.1572,127.2542,130.0825,130.673,133.6863,135.1008,135.9639,136.591,140.5982,140.743,142.6101,143.8425,143.6923,144.4319,144.9804,144.0178,132.6506,137.5141,132.469,130.7559,129.4214,138.1298,133.7682,138.1198,137.523,138.3682,137.8116,138.2756,137.0244,136.4989,134.1111,133.248,131.17,130.366,124.7257,124.1348,120.211,114.9281,111.0949,106.7756,100.933,96.72206,89.14487,81.40945,77.56952,69.32943,64.40363,57.41543,51.53881,46.64305,38.99699,33.1725,29.78423,22.69199,19.10988,11.94824,8.000169,2.939516,-4.906859,-10.10619,-15.87364,-20.59542,-26.50063,-30.73993,-34.26833,-37.14226,-40.64578,-45.83265,-45.72579,-51.20911,-52.12451,-55.93984,-56.80759,-61.33688,-61.73256,-64.65279,-64.8543,-67.59248,-68.0766,-67.71983,-70.82898,-67.77406,-70.95743,-68.94605,-70.07626,-69.87107,-69.51975,-68.7931,-68.72271,-66.44651,-67.8812,-65.23515,-66.33926,-64.46964,-63.81623,-64.40743,-62.21024,-62.96922,-61.25622,-62.45842,-62.83908,-62.94983,-63.23885,-61.9174,-63.39027,-60.42569,-62.04225,-59.55401,-60.11259,-59.09918,-58.31766,-56.61026,-56.96845,-55.25664,-54.78587,-54.01658,-53.45292,-53.56633,-52.8673,-52.94428,-52.41438,-53.17427,-52.83485,-53.98212,-54.71374,-55.99347,-58.30231,-45.67731,-48.75711,-43.84423,-37.39769,-32.95269,-38.50104,-29.73759,-31.43362,-26.70159,-25.52355,-22.2924,-21.56096,-18.54329,-18.81661,-15.01816,-14.66129,-14.31961,-12.42178,-11.47978,-10.94969,-11.35075,-11.37343,-12.01048,-12.44487,-14.5864,-14.34907,-15.65583,-14.52973,-16.1969,-16.49219,-16.20816,-18.19533,-16.21099,-19.26074,-16.33551,-18.12309,-18.1635,-20.94763,-20.63413,-22.28803,-23.43388,-25.02464,-25.12213,-24.41323,-24.36705,-25.66946,-23.23433,-25.47117,-24.02687,-25.5287,-23.96127,-25.0227,-24.72376,-24.16758,-34.9754,-27.97505,-31.48876,-31.3409,-17.57867,-23.3918,-17.67295,-15.71801,-12.7025,-11.90691,-7.674273,-8.194292,-5.132854,-4.641337,-3.802188,-1.243533,-1.030734,-1.003918,1.10633,0.3786136,1.408107,1.889354,2.381726,1.890445,1.869498,2.935122,1.666362,2.248067,1.209081,1.146015,1.601618,-0.03834512,-0.4873941,-1.840825,-1.437426,-2.556464,-1.830078,-4.247252,-2.935414,-5.0213,-3.624803,-5.217096,-4.218884,-5.651159,-5.385983,-5.678393,-6.288651,-6.773428,-6.324255,-7.740072,-7.135248,-8.068341,-9.493281,-8.759129,-7.981189,-19.62009,-13.28461,-15.21337,-6.583009,-4.71904,-2.4574,1.189414,6.208508,7.756648,11.57647,14.11411,14.30769,17.40866,18.52842,20.9101,24.16072,24.88267,26.47124,30.49448,30.92787,34.30783,34.2745,36.39349,37.3866,39.17183,38.43779,40.38577,39.10264,41.85105,39.72489,41.04521,41.54696,41.67379,42.01056,41.77256,41.73157,40.31769,42.91038,39.9878,41.24004,39.49417,38.63352,38.07196,36.33839,35.53018,32.28362,30.7424,29.81707,25.52213,23.93193,20.86875,18.4958,14.15153,11.89097,7.081471,3.822019,12.28374,8.552798,12.8345,16.8914,4.769423,14.77816,9.949404,10.76505,10.15988,10.60385,10.46075,11.65683,11.24706,12.4121,12.7834,14.07463,14.05369,16.84896,16.25152,18.89979,19.39497,21.66542,22.16688,24.39047,26.37156,27.67574,18.49667,26.54007,24.22747,26.56565,28.27998,29.79557,33.40173,36.15525,38.26545,41.95726,44.55392,48.40975,51.29399,54.8766,57.36368,58.83654,61.87144,62.54975,64.30655,64.09568,64.05975,64.94841,62.35766,62.38884,60.60044,57.30236,57.52139,53.96574,52.16408,61.35536,57.67211,63.02385,53.03722,53.40453,49.97971,47.17861,39.85505,36.49104,30.8204,23.98315,21.32201,13.32244,10.61875,2.385473,-1.747979,-8.888789,-14.69412,-22.02248,-28.15324,-37.01618,-42.23033,-50.6441,-58.21684,-66.54541,-71.93779,-78.73538,-84.86921,-92.34898,-96.50899,-102.918,-108.4096,-113.5206,-117.9864,-123.6687,-126.6117,-129.9753,-135.9134,-137.393,-141.3336,-143.3148,-145.9441,-147.9664,-149.7391,-151.0655,-150.8409,-151.9907,-152.1031,-151.2568,-150.3817,-149.1969,-147.8021,-144.7161,-144.2578,-140.4714,-138.8652,-133.3344,-132.0793,-127.7642,-124.5845,-119.8046,-117.1671,-111.9033,-108.0845,-104.0673,-98.67506,-94.40661,-90.14809,-85.37736,-82.47656,-76.84298,-75.31516,-71.56599,-70.3621,-68.03821,-66.08328,-53.86997,-59.38019,-54.10632,-57.98443,-58.34528,-62.48753,-52.47131,-60.03337,-56.99637,-56.8766,-59.41176,-56.84237,-59.33629,-59.92491,-60.06975,-61.77657,-62.24034,-63.79965,-64.92909,-65.70875,-67.76451,-65.8007,-68.52801,-67.45415,-69.50363,-66.98149,-68.28505,-68.37552,-66.85786,-67.14192,-65.8512,-63.70105,-62.57758,-62.11875,-60.52595,-59.01505,-55.84902,-56.38001,-52.77194,-51.25895,-48.34192,-46.53125,-41.6684,-40.08294,-36.58958,-32.08549,-29.28126,-24.34298,-21.20829,-15.15718,-12.30081,-6.446574,-2.251714,2.499179,7.867927,12.70265,17.32193,22.95421,28.44214,34.23457,39.22067,44.32316,50.64012,54.5644,60.97299,65.60732,71.29797,76.71671,80.58624,87.42198,90.61943,96.04181,101.6134,104.827,109.6087,113.2205,117.2012,121.4398,124.5453,127.8346,131.1303,133.5512,137.9311,138.5613,143.0664,143.1109,143.9211,137.6918,143.6492,141.2737,143.7056,143.3769,144.2366,146.3287,147.1341,148.5778,150.1475,151.913,153.5752,156.2573,156.5636,158.9827,159.8814,161.0065,162.4547,162.9392,165.7377,167.3119,171.5254,173.7972,178.8387,169.1266,174.6114,170.5228,170.8676,167.6729,168.103,165.0363,163.6733,161.4581,156.9067,155.4379,150.7139,147.4125,142.7584,138.1037,133.8475,128.6321,124.2046,118.7512,113.7087,108.6492,101.4028,96.56784,90.20731,84.22371,76.81106,71.2755,64.20565,58.13119,51.16365,44.18427,38.87542,30.47717,25.7752,17.84292,12.62845,4.826737,-0.3596621,-7.29013,-12.22471,-20.31149,-23.12351,-31.28843,-35.46388,-40.28538,-45.31733,-49.09585,-52.91413,-57.70477,-61.12665,-63.88974,-68.25011,-70.86009,-71.35077,-76.01706,-74.96213,-77.27196,-77.80192,-79.00826,-79.44473,-78.84587,-79.5038,-78.91365,-76.82718,-77.2247,-74.55289,-73.39841,-72.2288,-68.61096,-68.16761,-64.77289,-62.43352,-61.57533,-58.06659,-57.77574,-54.97278,-53.72522,-53.05677,-51.5676,-50.37237,-49.63552,-49.43681,-48.6569,-49.14209,-50.86054,-51.86055,-51.17802,-44.81554,-48.62943,-44.15978,-44.46881,-41.63043,-39.42666,-39.2413,-35.43466,-34.45408,-33.02804,-31.22683,-29.98929,-28.87063,-27.61949,-26.06186,-25.39596,-23.80867,-22.24483,-22.88594,-20.29445,-18.81243,-19.07696,-17.45826,-16.9405,-17.47599,-15.69899,-15.93803,-15.93504,-14.39967,-16.2042,-14.60029,-16.15313,-16.81168,-16.02106,-16.88422,-17.23873,-17.77164,-18.53605,-18.59548,-19.80349,-20.63918,-21.09593,-23.11468,-23.50702,-24.4768,-24.95561,-26.18759,-27.23349,-28.03922,-29.29323,-28.7698,-30.46675,-31.18349,-31.42046,-32.63784,-32.98471,-33.85818,-34.288,-34.76209,-36.22219,-35.50473,-36.33542,-35.48919,-36.58226,-33.46675,-35.99368,-34.39449,-35.09394,-35.91389,-35.84651,-37.12752,-38.07863,-37.61909,-39.38007,-39.90425,-39.16877,-40.43671,-41.04019,-41.14063,-41.73975,-42.40773,-41.95716,-42.60025,-43.97415,-44.49121,-44.48505,-44.50093,-45.29483,-43.95609,-43.74831,-43.22634,-41.23264,-41.37569,-39.26879,-36.80346,-36.1603,-33.57357,-33.17638,-29.85322,-28.7653,-26.17343,-22.09,-21.04448,-17.66553,-16.09432,-11.26514,-10.58233,-7.105565,-4.824361,-2.23844,0.1182219,2.648988,5.38612,7.376425,9.254063,11.98254,13.60822,16.37971,16.11064,19.30599,20.79198,22.17384,23.99006,25.06133,27.56542,27.85278,29.55478,30.6031,31.33478,32.944,33.49246,33.10306,34.86044,33.66919,32.89642,34.88169,33.3381,34.57613,35.08477,35.06849,35.94233,36.72125,37.73462,38.75969,39.93217,40.29095,42.21377,40.54534,41.94397,41.81492,41.41836,42.21272,40.91329,40.67954,40.78434,39.55792,39.43749,38.72843,38.45274,37.62572,37.7151,36.01666,35.96666,35.39641,33.65142,34.43974,32.13641,33.98564,31.57861,32.79936,32.62102,33.35312,33.28546,32.634,32.91804,30.69765,30.98561,29.10651,29.14867,27.37177,26.41387,24.99836,24.82327,22.48196,21.93353,19.54552,18.09114,17.25361,14.04287,13.27219,9.876648,8.307026,5.129438,1.937407,0.6683963,-2.244259,-2.895317,-5.173335,-5.224572,-8.056586,-8.642543,-8.922857,-10.32833,-10.17912,-10.96616,-12.08016,-12.62708,-13.64661,-13.27576,-13.72594,-13.26883,-13.80707,-14.42655,-13.82908,-13.81762,-13.14721,-12.53262,-12.1101,-11.93863,-10.59233,-11.23428,-9.197786,-9.26534,-8.677819,-8.004081,-6.297635,-6.890709,-5.737416,-5.695989,-4.369675,-5.493736,-4.287066,-4.266162,-4.400746,-4.731949,-5.135447,-5.720604,-5.935372,-7.646834,-8.891088,-10.19616,-11.97951,-12.86594,-15.68793,-15.29146,-17.61616,-17.58721,-18.77252,-18.91837,-21.52609,-20.45416,-21.61681,-22.50644,-22.07462,-23.85612,-24.67802,-24.18712,-26.78888,-26.05675,-26.8897,-28.77472,-28.70763,-30.09581,-32.36588,-30.25583,-32.43907,-32.68281,-32.30607,-33.61012,-33.92228,-33.56678,-35.03259,-35.40621,-35.94385,-38.30407,-36.63195,-39.0461,-37.33064,-41.02777,-38.63746,-42.26849,-40.132,-42.72526,-42.68184,-43.57928,-44.36092,-45.2827,-45.9872,-46.7039,-48.2313,-47.99918,-49.86556,-48.61611,-51.20915,-50.54263,-51.95916,-51.69586,-52.72221,-53.14959,-53.36325,-53.75427,-52.57855,-52.44548,-51.20242,-52.07728,-50.97007,-51.53448,-50.98925,-51.80082,-53.67939,-52.46402,-54.42933,-54.76093,-56.79327,-55.93167,-59.13464,-59.15413,-60.29255,-60.3936,-61.49326,-62.07806,-63.95795,-61.86192,-64.12064,-62.60052,-63.28857,-61.50689,-60.28693,-60.31438,-58.16905,-57.66061,-55.22674,-54.10763,-52.21061,-50.12133,-49.20515,-46.80316,-44.01248,-41.64168,-39.58502,-36.85475,-34.09322,-29.98768,-27.41227,-24.02683,-20.23926,-17.86532,-13.4204,-9.958088,-6.037871,-1.935221,3.162358,6.219375,10.74296,14.8713,18.4433,24.55617,28.00648,32.28852,36.89519,41.24605,46.30662,50.0615,55.52833,57.1821,63.21604,65.72762,70.67805,73.5674,77.14174,80.06847,82.68581,86.67972,88.97118,93.74629,94.37556,97.42606,99.70165,101.8807,104.0207,104.376,105.5775,106.835,108.1359,107.657,108.6704,105.5399,106.1446,104.6053,104.4786,103.1262,103.5207,101.6387,102.7112,100.6911,100.4043,98.72067,98.47858,98.24271,95.91345,96.12666,94.47061,95.23168,92.3941,93.53627,90.56979,91.28091,89.0911,89.31665,88.40233,87.35341,88.31795,86.42445,87.21253,84.79435,84.84567,83.43724,82.69886,81.31243,80.4573,79.34509,77.57256,75.71231,73.37502,73.00418,67.86888,68.42897,64.91034,62.97702,60.5268,57.63106,56.00555,53.24896,50.96378,49.35309,46.39061,44.70635,42.28651,38.20059,38.28573,34.1129,32.82887,29.29494,28.81203,24.71867,23.80725,21.26863,20.25407,18.57954,16.24898,16.59682,14.14502,13.56199,12.8283,11.33626,10.99391,9.833068,10.05056,10.60596,9.218555,10.31127,9.774921,9.896718,10.52807,11.67263,12.22612,13.05968,14.20808,15.16694,17.5832,17.33045,20.49553,20.61632,23.41459,24.05656,27.36974,28.53866,31.58069,33.0192,35.06804,38.01739,38.97256,42.50498,43.31959,46.14674,47.33811,48.58117,50.17247,51.12288,52.23185,51.13316,52.5694,51.20397,52.1021,49.75704,47.96482,47.1026,46.03873,44.7288,43.49527,43.73577,41.91128,41.43471,41.93411,39.31181,39.35918,37.91179,37.34227,36.71307,35.45537,34.97488,32.98252,31.31914,30.40299,27.99265,26.54056,23.70158,21.81673,20.0225,17.42212,16.48702,13.79871,10.81656,10.11607,7.19791,5.343972,3.315085,-0.002818064,-1.131117,-4.573184,-7.96416,-9.350225,-15.24493,-16.31529,-20.24146,-24.51942,-27.96865,-32.48493,-36.55835,-40.43046,-44.94334,-49.57831,-55.38771,-58.79247,-64.54294,-69.38931,-73.74008,-79.71279,-84.17417,-88.62,-95.41201,-98.9419,-105.5018,-108.8791,-115.5398,-119.5592,-124.5382,-129.2892,-134.1845,-140.1429,-143.1655,-152.1914,-153.5328,-160.0849,-165.8643,-169.446,-176.0016,-180.1178,-184.8699,-191.0157,-194.5653,-199.2613,-204.5127,-208.1369,-212.2127,-204.9474,-215.8837,-212.371,-218.38,-217.9786,-222.7607,-223.9335,-226.0891,-228.4246,-230.094,-231.4606,-233.43,-233.3888,-234.1374,-234.1473,-232.8835,-233.017,-231.2858,-229.7749,-227.1882,-225.0198,-221.3361,-218.6649,-214.3077,-209.4941,-206.1993,-199.6442,-195.2756,-189.4688,-184.636,-178.6993,-172.6271,-166.683,-158.614,-150.7869,-142.4392,-135.5343,-125.8597,-117.6312,-109.2894,-99.06024,-90.46135,-81.60378,-70.53082,-62.67467,-52.76307,-44.03637,-33.51853,-23.71438,-15.94069,-4.65004,1.066445,11.87098,16.4992,27.57615,33.71631,41.19137,50.30136,58.50215,66.09728,71.78228,78.65993,83.098,88.35552,93.76385,98.07726,103.172,105.1476,110.9017,112.3854,115.7435,117.5735,118.2699,121.5346,120.1544,121.7992,120.6091,121.3837,119.7753,119.7712,117.8476,117.4547,114.3704,115.0017,111.735,110.7201,108.5449,105.7838,105.5451,102.2983,100.5765,98.19403,95.93885,93.14722,91.11002,89.64125,86.29929,86.28339,81.4136,81.75345,80.46897,77.712,78.37802,76.22561,76.12243,77.36365,78.19059,79.18684,82.11325,85.08829,89.84544,80.52174,89.89612,85.45465,89.36033,87.31559,90.72344,89.99446,91.57386,91.74709,93.0461,92.97988,95.56036,94.74013,97.57148,96.81806,99.01626,98.59432,100.4313,101.7172,102.2866,104.3729,103.615,104.8198,104.0417,104.01,106.0949,104.283,106.1997,105.8862,107.478,107.0536,108.3551,108.5623,108.7711,109.0083,109.1174,109.6097,107.9818,109.5173,107.5897,107.163,106.5738,105.3711,102.5875,104.2154,101.1008,100.8859,97.72273,95.1537,94.30051,90.61347,89.21991,85.83077,86.02425,82.04164,81.01128,77.72908,75.37928,70.67449,67.51076,64.35188,60.19223,57.17692,55.47126,50.74688,48.67686,44.16448,41.67718,36.78916,34.39458,29.51381,25.87265,22.55016,17.2355,15.11312,9.940329,7.508746,2.296753,0.4876846,-3.331656,-6.153599,-10.45436,-12.17207,-17.38652,-18.81767,-22.40229,-24.88815,-27.50661,-31.7461,-32.58945,-36.87349,-37.7952,-41.48951,-42.76966,-45.1507,-47.43445,-49.0864,-51.75417,-52.53051,-55.01168,-57.21716,-57.88868,-59.36839,-60.41093,-61.36958,-62.43969,-63.74208,-64.08033,-64.24787,-63.21744,-62.8212,-62.70626,-62.07614,-60.37944,-60.36102,-57.42344,-57.45927,-56.66922,-56.78053,-56.6062,-54.28312,-54.6187,-52.71103,-51.95662,-51.10875,-48.7144,-48.20683,-46.24418,-46.11208,-44.56449,-43.79298,-44.50686,-43.53993,-43.761,-41.96551,-40.11624,-42.62176,-37.78604,-41.11462,-36.18898,-39.34441,-36.91214,-36.4098,-37.62896,-35.3591,-36.35279,-36.13657,-35.86418,-35.24958,-35.87451,-35.52589,-34.57694,-35.95254,-33.59526,-34.31923,-33.03884,-34.29679,-31.78717,-33.03417,-30.72085,-31.29087,-31.15249,-29.36672,-31.00397,-28.07948,-29.6329,-27.50814,-27.96997,-27.77845,-25.6102,-26.16218,-25.39888,-25.23495,-24.19479,-24.38939,-23.17728,-22.94009,-22.06023,-20.87937,-20.10988,-18.90695,-18.82263,-17.76555,-15.41144,-15.95999,-13.20228,-11.95108,-11.49264,-9.869228,-9.584518,-7.36767,-8.138481,-4.628458,-5.526346,-2.701597,-2.776953,-2.102399,-0.3026731,0.3508699,1.11863,2.236648,3.30272,4.494014,4.27399,6.022584,5.326645,7.175755,5.622543,7.384346,6.470628,7.772862,7.799034,8.421816,7.31715,7.308201,8.926761,8.028349,9.46918,9.624078,10.43703,9.872069,9.803942,10.95772,10.52519,9.86224,10.70032,8.376807,9.148584,7.481846,8.912652,8.83971,-2.561285,5.988724,-0.7738261,3.200687,1.098627,15.40574,6.960186,16.317,13.89249,18.17444,17.66511,19.96394,18.87367,21.12345,20.3477,20.28207,21.31203,18.95057,20.91746,16.98969,19.16121,16.14875,14.2267,14.90635,11.38424,10.9466,9.518292,6.567062,5.365439,2.844426,2.257248,-1.407637,-2.577529,-5.113755,-5.845802,-9.296428,-7.963115,-11.62463,-12.88377,-13.336,-16.14729,-15.54265,-20.63961,-19.05828,-22.52851,-22.43158,-25.53245,-26.01467,-27.75071,-30.44839,-30.83955,-33.57172,-33.1594,-35.9193,-36.92626,-37.23542,-39.55933,-38.85767,-40.51192,-40.34684,-41.25119,-40.13608,-39.91939,-40.33508,-38.45908,-38.36481,-37.85658,-36.15229,-35.26775,-32.78378,-32.43765,-28.38472,-29.11036,-24.72298,-24.34698,-21.24351,-17.3494,-16.61073,-12.82846,-10.3959,-7.227764,-4.797255,-3.474421,0.2441479,2.376639,6.221515,7.266269,11.52104,13.45763,16.54111,18.65993,22.09564,23.26803,25.80026,28.62498,28.85943,32.35135,32.19706,34.30729,34.82947,36.1034,36.78373,36.21573,36.96226,36.18544,35.82402,34.99298,32.2242,31.15107,27.65422,25.41178,36.86565,30.12147,37.91532,38.72674,45.6283,34.77664,43.48972,37.50826,40.12045,36.74855,39.22869,37.13187,37.79875,37.41282,37.32848,37.65097,37.85861,36.88013,37.57265,38.03754,37.09044,37.37437,37.244,35.74177,35.71442,34.12165,34.74086,34.89613,33.3502,35.08746,34.38558,33.29895,35.16749,32.67885,34.35376,34.20737,32.74249,31.88898,32.25498,28.97595,27.37365,25.02239,23.20704,22.50656,19.31318,16.88659,15.78759,13.52587,12.1948,9.49229,7.305506,6.063951,1.345233,-0.1385111,-3.451803,-5.297881,-7.882272,-10.88072,-14.46835,-15.45508,-18.94966,-21.65293,-23.01929,-26.27411,-28.3379,-30.75996,-32.75551,-34.43768,-36.70874,-37.98418,-40.48871,-41.1402,-43.11353,-44.23045,-46.3655,-44.49231,-47.71323,-46.89566,-47.92601,-47.74576,-48.56185,-47.62505,-46.93785,-46.66196,-45.86691,-44.88068,-43.14354,-42.33177,-40.73818,-38.71847,-36.55823,-35.04377,-33.79813,-30.58458,-29.09453,-26.19313,-24.53508,-20.7346,-20.82962,-14.88163,-14.77808,-10.86492,-8.373695,-6.376603,-3.354016,-1.212708,1.215561,2.871229,5.981662,6.303926,11.00951,9.413228,12.9857,12.54148,14.09314,14.33676,14.73705,15.12834,14.58499,17.50243,16.85606,18.8174,17.0172,19.79074,18.98094,19.41602,19.86679,18.81753,20.68305,19.16808,19.75976,19.26367,18.92003,18.5788,19.25129,19.89831,21.26655,19.38984,19.92988,20.29055,19.09429,17.61241,19.07817,16.22298,17.14026,15.78083,15.00836,12.63363,12.41129,9.306781,9.794829,8.876939,7.639438,9.144123,7.143555,7.701549,9.32634,7.300801,8.700234,6.674306,8.333229,7.038411,6.711527,5.932713,5.942354,-2.832395,0.114633,-3.807957,-2.550731,-3.190406,8.76361,1.113265,10.09067,6.415606,11.12195,9.88928,12.66621,12.279,11.96727,12.81373,11.92906,12.48804,10.9087,11.01311,8.915497,9.896001,6.868473,5.998342,5.141215,2.72379,1.603135,0.2120105,-2.876266,-2.654946,-5.921477,-6.880766,-9.418304,-10.46332,-12.33039,-15.0723,-16.08944,-19.31057,-20.38342,-21.54056,-24.60173,-25.23079,-26.82182,-29.18361,-31.19557,-30.12843,-35.14334,-33.6304,-35.98171,-37.84564,-38.59573,-40.15185,-40.97843,-41.42048,-42.472,-43.26166,-42.70042,-44.50294,-43.84908,-44.83402,-45.17004,-44.17815,-45.02296,-44.70805,-43.91117,-43.29505,-42.79972,-40.75281,-41.28481,-38.97455,-39.14611,-38.04813,-35.36296,-34.265,-32.12047,-31.93649,-28.81368,-29.43518,-26.04615,-25.70619,-23.75077,-22.44329,-22.07694,-20.64768,-18.54572,-18.81764,-16.58015,-16.15496,-14.57211,-14.50921,-12.68532,-12.3476,-10.98038,-11.11678,-9.193136,-10.42545,-7.848543,-8.778201,-7.554142,-5.984078,-7.494376,-5.563002,-7.350807,-6.069249,-7.125319,-6.969558,-8.665683,-8.323196,-10.87132,-11.4087,-13.89788,-15.28918,-6.786495,-8.748817,-1.214767,0.3268754,8.978603,-0.6431062,10.9553,7.638754,12.1198,11.50283,16.30711,15.53665,19.57431,19.43378,22.12207,23.37834,25.33349,26.12784,27.24296,29.1328,30.56088,31.40336,33.18085,33.62965,34.98998,36.65171,37.10964,39.35683,38.24829,40.54997,41.42208,42.58451,43.09706,43.51674,45.2609,44.70206,46.62056,46.27147,46.09975,47.31469,46.36223,46.73666,46.79816,47.26309,46.20301,45.65291,32.5817,39.86375,32.23994,35.04641,31.73728,46.42916,35.77273,46.16748,42.48519,48.8105,46.79084,51.4003,49.52564,52.93863,51.20127,54.02464,54.00642,54.45599,55.57138,55.91982,56.64222,55.4401,56.75667,55.64465,55.21341,52.44144,50.72922,49.25512,46.47416,44.85776,43.38659,40.76409,38.79143,36.44907,33.67557,32.78975,28.75784,25.76283,22.95988,18.56881,15.97293,11.606,8.722036,2.749217,0.6017156,-5.051837,-8.621554,-13.26068,-16.86813,-21.72194,-24.84879,-29.21358,-34.75516,-36.74953,-42.06245,-43.30652,-49.12958,-50.32132,-55.55245,-55.84378,-60.78257,-62.09656,-65.42919,-67.50005,-70.05097,-69.60192,-71.44491,-71.97473,-71.68109,-71.80762,-70.70789,-69.07267,-69.41076,-66.76528,-64.74449,-63.79403,-61.15532,-59.91172,-56.05939,-54.52281,-51.50402,-48.60514,-46.27756,-42.41184,-39.45383,-36.22716,-31.78808,-29.63113,-25.66688,-21.88775,-19.54115,-15.37337,-12.42256,-8.99093,-5.039179,-3.134026,0.910492,2.302703,5.111559,5.875227,8.682557,8.631776,10.13929,10.05988,10.04769,9.866974,7.597962,6.258098,2.373632,-0.9661133,-4.821665,7.052051,-2.334794,6.479307,5.368715,12.35604,-0.6461714,10.65055,2.640706,7.757534,2.733625,4.31719,1.738675,2.317495,0.896072,1.617174,0.1572324,-0.4999728,-0.9954763,-1.210504,-3.037657,-3.274791,-5.198302,-5.772344,-8.307098,-7.986029,-8.802237,-8.488933,-10.1519,-7.942887,-8.806058,-6.84555,-7.547032,-5.686796,-5.815906,-4.189679,-4.960865,-15.50169,-5.673745,-12.70528,-7.370939,-8.507959,5.534592,-2.414223,9.014358,6.673031,12.7388,13.04378,16.84796,17.05861,20.66701,20.40587,22.93006,23.76469,24.2003,25.41605,25.53934,26.54446,25.02562,26.8114,24.71892,24.14121,24.65722,22.64681,24.10046,23.28214,22.62728,23.525,22.45092,23.13705,22.11929,21.74202,20.65077,21.03512,18.89409,19.2716,17.75683,18.13764,16.58297,15.64777,15.66446,14.08617,13.90331,13.40875,11.95356,12.17676,10.74676,9.4856,9.829464,8.362783,8.180258,8.452229,7.390361,8.096974,7.522757,7.926713,7.707312,8.279202,8.74189,9.115759,10.43689,11.05581,13.18615,12.4471,16.73924,15.2618,18.8361,19.42425,21.73853,23.29382,24.96433,27.82569,28.2813,31.68468,32.85824,35.8871,38.02309,40.03046,41.40674,43.91941,45.18673,47.84071,51.22683,52.24623,55.9064,57.68929,60.6532,62.41981,64.6289,67.31932,68.4478,70.99942,72.12489,75.00769,74.42359,77.49879,76.69156,78.50286,78.01625,78.44831,77.5007,76.18196,75.03737,72.6121,69.72845,66.7806,62.77773,58.66644,69.22993,58.59746,66.57866,64.13971,67.48014,55.39264,62.38516,42.82209,52.31144,39.67003,45.8291,44.23364,41.28862,40.47035,38.23588,36.01297,33.3294,30.7454,26.4572,24.5873,18.52163,17.11659,10.28483,7.611862,3.357549,-2.633799,-5.247937,-11.80192,-15.10033,-20.33797,-25.29414,-29.82846,-35.07359,-38.62801,-44.22677,-47.60809,-54.1272,-56.45249,-61.80163,-64.76248,-70.09139,-72.8139,-77.20955,-80.55297,-83.49951,-87.31235,-90.54356,-92.14373,-96.67095,-97.24891,-99.84592,-100.9834,-101.8761,-102.8848,-103.2545,-103.7635,-106.9803,-108.4627,-106.8042,-109.0982,-110.0127,-109.5393,-110.5757,-110.6201,-111.3973,-110.5381,-111.1302,-110.7849,-112.2383,-110.9502,-112.8743,-112.8944,-115.5668,-112.6752,-115.7851,-112.9113,-114.631,-112.4357,-114.0119,-110.6582,-113.032,-110.6893,-108.347,-108.9634,-105.589,-106.2008,-103.9346,-102.9475,-100.7603,-99.76921,-96.17554,-94.34879,-93.07651,-89.03152,-87.40337,-84.14581,-82.90664,-78.33202,-78.05844,-72.00024,-73.17867,-67.66437,-68.54823,-63.02558,-62.33266,-59.77973,-57.02338,-55.00946,-53.39772,-51.42788,-53.51825,-48.7836,-51.27784,-47.88417,-46.7603,-45.6746,-45.24376,-42.02277,-29.73534,-31.40646,-18.13114,-19.4114,-17.90584,-11.85801,-9.942833,-6.135548,-4.025535,-0.9033791,0.6749532,5.066792,5.216373,10.32054,8.28558,14.74732,11.77328,16.95373,16.48422,19.3285,20.37118,21.05289,23.68656,23.12174,25.853,26.39227,26.67119,28.3569,27.79183,30.06947,30.09399,30.83118,32.31606,32.681,32.9,35.57273,35.07648,36.65708,38.67264,39.25374,41.05096,43.05819,45.89885,45.90169,48.89726,49.80799,50.50643,51.06324,51.22023,53.75145,55.7817,54.85044,56.96569,58.29609,57.9094,58.82411,59.63443,60.87106,59.01635,61.59776,58.59288,61.23574,58.31795,59.91733,59.3097,61.68532,59.1387,62.27849,60.06459,62.02983,60.09866,61.94385,57.81973,61.45556,59.61745,58.43292,59.22757,56.91094,59.03149,57.55691,57.93822,56.03999,58.31016,54.19305,56.29383,54.7083,54.12951,53.69903,53.29596,52.98834,50.45633,51.87193,47.42918,50.63741,44.21081,48.48467,41.87607,44.06859,41.70237,39.7273,38.21602,36.48737,34.48396,37.89878,33.11032,36.99642,34.69664,35.84365,34.24147,36.44882,33.01911,36.27398,34.47701,34.3047,34.34006,34.34598,35.14454,34.04031,34.32032,34.14026,22.44389,31.82811,23.23872,27.81627,30.13201,34.10414,30.77245,38.69418,34.54873,40.10908,37.31896,39.38932,39.547,39.14047,39.12112,38.76565,36.77351,37.53582,34.96729,35.95214,32.6932,33.13327,31.08952,29.47339,27.75318,26.68933,23.46482,22.83985,20.89365,18.03987,16.71742,13.93245,12.69121,9.491823,9.106882,5.398017,3.236249,1.403408,0.2592512,-2.621231,-2.665619,-5.302523,-6.94381,-7.043966,-8.884655,-9.995146,-11.65261,-11.06584,-13.41535,-12.51053,-14.89926,-16.06514,-15.02314,-17.29689,-16.77768,-18.55803,-19.18601,-18.96714,-19.39481,-18.75592,-19.05368,-17.35985,-17.32635,-15.58648,-15.09306,-12.6713,-13.72674,-9.943773,-9.444117,-7.792571,-7.262997,-5.010979,-2.520059,-3.262979,1.674861,-1.01168,4.497843,3.169179,7.374245,6.018856,9.572186,9.41485,10.56399,11.7808,10.97121,13.54379,10.86949,14.00517,12.05718,13.01558,12.72878,12.11527,11.17059,12.17162,9.393328,9.566512,7.460999,7.835131,3.369769,4.625014,-0.4044837,-1.567806,-5.260059,-7.689689,-11.88423,-14.09202,-19.11423,-22.07658,-27.48377,-31.32688,-36.8493,-27.62964,-36.75417,-29.22969,-32.49236,-34.43562,-36.82868,-36.28773,-39.81942,-39.0658,-41.99849,-42.24515,-44.86872,-44.3169,-47.50923,-45.59551,-49.90076,-47.59359,-50.37563,-49.48131,-51.07774,-50.07816,-50.67176,-49.27462,-48.56332,-48.38038,-47.96254,-47.97948,-47.6131,-48.27034,-47.05523,-48.54662,-47.95454,-47.62133,-48.24394,-48.76281,-47.75751,-48.07648,-47.62984,-47.73755,-47.19304,-47.8214,-47.2663,-46.88621,-47.55723,-46.7674,-46.90324,-45.24579,-46.38663,-45.26791,-44.81076,-45.16684,-43.2643,-45.13287,-42.66721,-43.18476,-40.76958,-39.42511,-37.79939,-36.24276,-33.93538,-31.61289,-30.73352,-27.96816,-25.06122,-23.46462,-22.76298,-17.88764,-18.8996,-13.61094,-13.57292,-9.300033,-7.34842,-5.79427,-2.449586,-0.6307852,1.999456,3.898384,6.515376,8.208714,11.10724,10.63506,14.4621,15.36842,16.65828,18.84481,18.6384,21.99114,21.35971,25.43745,23.99819,27.52523,26.47217,29.64026,28.84211,30.93609,31.5709,31.7873,32.44542,32.86946,31.96202,32.41779,31.98176,32.78394,21.28377,31.21076,22.34075,36.17903,29.06183,36.63224,32.91804,38.16131,35.71499,37.41577,35.91165,38.20784,35.41981,36.30247,34.61474,33.47726,32.45951,30.18364,29.19294,27.59642,25.43926,24.17987,22.27684,20.64703,19.45587,17.37386,18.2804,14.84365,16.79174,13.30036,13.30399,9.541502,9.381698,6.344726,5.749764,2.551433,2.768335,-1.309693,-1.328431,-4.073215,-5.051388,-7.901356,-7.532214,-10.85775,-12.06625,-12.81959,-15.17199,-15.63976,-17.50303,-18.62511,-19.0052,-20.4655,-20.52659,-21.34706,-21.65209,-21.87825,-21.25766,-22.4761,-20.88293,-21.87237,-18.35595,-20.41226,-16.68235,-18.49025,-15.32283,-15.74792,-12.36098,-12.29563,-10.61144,-8.372828,-6.565664,-6.13376,-3.056573,-1.25272,0.3564218,4.115086,4.24807,7.914389,9.327509,10.70711,13.33012,15.52133,15.72214,20.3636,18.91459,22.35976,22.20546,24.22903,24.43304,26.42976,26.18012,27.38945,27.44289,28.41233,28.23209,29.84589,27.02762,30.46152,26.51001,28.46177,26.00385,26.7156,23.40249,22.96223,20.02439,18.13583,15.00234,14.79844,10.55057,9.66479,5.997577,17.86161,11.49989,19.79207,11.11843,15.55039,13.296,14.45415,12.02261,13.09191,12.09992,12.36914,10.50525,10.66742,10.30795,9.373105,8.476482,9.2113,7.367117,7.895489,6.277789,7.417589,5.70429,5.865007,4.64029,4.477723,-6.807084,0.04993315,-6.761127,5.702948,-4.387381,3.837545,-1.037406,3.729622,-0.1734388,2.719039,0.1236623,1.472444,-0.9019108,-0.6684557,-1.793442,-2.799699,-3.846766,-5.137129,-6.99866,-7.213913,-9.640442,-10.67902,-11.71605,-15.03795,-14.86731,-18.63272,-17.72508,-21.03762,-22.471,-23.03137,-25.54882,-26.64007,-28.25338,-29.48162,-30.56044,-33.95235,-31.40437,-36.68707,-35.89633,-38.40909,-38.50994,-40.84456,-41.90493,-43.37822,-44.05851,-46.04093,-45.48474,-48.65123,-47.69825,-49.17507,-50.25623,-49.11183,-51.46445,-50.07639,-51.89007,-48.80959,-51.39694,-48.31074,-51.7006,-49.22005,-49.86883,-49.46275,-44.83716,-48.4235,-43.75227,-47.32071,-43.48868,-45.77984,-42.98887,-43.95134,-42.92497,-42.12805,-42.02521,-40.72131,-41.49187,-39.89941,-40.39414,-39.07155,-39.42688,-37.26152,-37.40978,-35.13196,-36.32725,-33.46237,-33.28336,-31.61978,-29.68298,-29.18328,-26.39768,-26.79282,-22.22091,-23.19318,-19.20815,-18.81064,-16.00338,-14.36777,-12.47003,-9.542275,-8.351849,-7.149729,-4.222715,-1.453511,-2.056556,2.410494,1.361632,3.950036,3.887035,6.51264,5.318487,7.939037,6.758542,22.23123,18.58674,31.5374,20.8147,35.96666,29.70323,39.42067,36.51191,43.36316,41.99762,48.34747,47.38013,52.24481,53.00037,56.60097,57.91058,60.49647,62.74839,62.96357,64.37962,64.37541,66.78079,66.65751,68.77156,69.3854,71.81266,72.26456,73.34228,75.33657,76.40209,77.52317,80.23305,80.25703,82.18453,82.17311,84.81496,80.55196,83.89485,81.54899,80.99388,79.54055,79.21188,78.25628,76.88466,75.89746,76.57457,74.3474,75.67302,72.51996,72.13623,70.37988,69.64785,68.4529,68.05248,67.77075,65.98311,66.80917,65.17996,65.02263,65.6871,64.27997,63.35273,55.97927,60.20067,52.74877,54.74129,50.69593,50.42529,48.56241,46.3987,44.86951,42.83581,39.38877,36.17598,33.10091,31.69528,27.6575,27.89781,23.10149,23.7718,18.77907,19.76416,15.82585,14.34145,12.04913,9.423996,6.225342,3.34038,-10.00023,-2.967319,-12.952,-9.53584,-2.261742,-10.35894,-3.231921,-7.962821,-3.812042,-7.622693,-4.228421,-7.561254,-6.453044,-8.924472,-8.113943,-10.22266,-10.98159,-10.60661,-12.77705,-12.98425,-14.43611,-15.26894,-15.45111,-17.06797,-18.14764,-19.58955,-19.20437,-22.13466,-21.79997,-23.9073,-24.74364,-25.95209,-26.94613,-29.10525,-28.8321,-31.49488,-31.35838,-35.07225,-35.50927,-37.43907,-40.51013,-40.28921,-41.92108,-41.77693,-42.808,-43.59093,-42.68494,-43.78755,-42.67851,-42.97262,-42.28338,-41.05679,-41.91218,-39.50894,-41.15509,-38.93897,-40.11503,-39.20726,-40.2224,-37.86707,-39.17349,-37.31962,-36.38645,-35.0815,-34.12776,-33.36877,-30.84941,-30.44958,-30.40191,-28.70687,-28.40603,-26.66078,-26.37067,-23.36855,-22.79829,-20.18869,-19.17071,-16.3843,-16.34932,-14.00734,-15.35212,-12.25823,-14.38845,-13.60512,-11.48056,-11.01261,-9.665629,-9.919179,-6.866662,-8.471889,-5.868401,-8.46486,-6.546355,-9.434981,-8.25733,-10.61966,-8.830077,-10.39416,-10.11366,-11.76076,-12.7384,-13.14462,-16.47756,-16.48597,-20.99778,-22.08639,-26.44247,-28.73957,-32.76178,-35.28961,-38.19091,-26.23852,-34.83364,-24.15959,-26.17666,-32.26209,-25.14467,-31.14845,-27.24316,-30.49425,-27.5515,-31.44764,-28.58776,-30.97119,-29.42623,-30.67481,-30.35163,-31.38357,-30.59273,-32.19475,-31.25738,-31.4958,-31.84345,-32.88753,-31.68622,-33.16545,-31.78182,-34.21604,-32.89515,-33.48678,-33.40933,-33.75632,-33.88916,-33.84556,-33.07877,-34.86754,-33.19247,-35.63273,-32.75437,-35.83652,-33.68067,-35.30477,-34.29932,-35.30683,-34.32714,-34.95139,-35.28667,-34.48326,-34.13707,-34.078,-31.90601,-32.12778,-32.35894,-30.70913,-32.4671,-31.85246,-32.84208,-32.05686,-34.09342,-33.96047,-34.74076,-36.09223,-37.02109,-38.22046,-38.67934,-40.81346,-40.52605,-41.90425,-43.15771,-42.37241,-43.32783,-44.50503,-43.35981,-44.22574,-43.13712,-44.18145,-42.6619,-42.94312,-42.62839,-40.56128,-41.37471,-39.0562,-38.56677,-37.39834,-35.03234,-35.28715,-31.77639,-31.37613,-27.99444,-27.60254,-23.6549,-23.75781,-19.45093,-18.65015,-15.0415,-13.41539,-9.392773,-9.047544,-3.386545,-2.980402,2.667612,3.746312,7.315552,10.84833,14.17576,17.24021,20.00116,24.17345,25.94535,30.48715,32.85527,37.40927,37.98929,43.81532,44.30655,48.85932,50.22081,54.1613,56.03381,58.8055,61.43529,62.16389,64.97539,66.84349,68.46607,69.70704,71.64983,72.77621,74.11498,74.6871,76.5593,76.71714,76.82326,77.75006,77.26049,78.43837,76.77015,78.11993,76.64425,77.34394,76.33865,75.66307,74.83135,74.37287,73.4644,72.15073,61.04597,64.53024,57.42858,57.62865,56.00918,56.76705,67.98182,60.6337,70.49877,68.63151,74.41624,77.1618,79.23079,82.58427,84.32239,84.65621,87.27654,87.21613,87.7477,88.29984,89.278,88.47598,86.89124,88.46084,85.83195,84.87632,84.13625,82.11416,80.15748,78.26609,76.34768,74.86091,70.68099,71.39688,65.75028,64.71969,61.54887,58.11412,55.96232,51.00404,49.89209,44.77362,42.32422,38.72517,33.74692,31.14367,27.45893,22.99298,20.81563,15.46192,14.21856,8.978148,7.534887,2.171423,0.6926611,-4.125937,-5.72694,-10.25037,-13.30238,-15.91641,-18.26643,-20.93044,-22.24203,-24.44439,-27.00066,-26.28343,-28.46859,-26.65974,-28.91979,-27.47057,-28.51642,-26.82427,-27.43679,-25.85279,-25.64473,-23.57023,-23.94897,-20.9885,-22.04544,-19.3414,-17.80313,-16.59123,-14.98968,-13.36684,-11.86571,-10.24185,-8.537104,-5.84984,-5.479623,-2.829321,-2.0183,0.1034144,0.2676046,2.778414,3.211832,4.628098,4.731405,5.661917,5.092533,5.938811,4.438721,5.294425,1.909479,2.170088,-1.838821,-4.102911,-7.480162,-11.95005,-16.44221,-23.68118,-28.89463,-23.19209,-30.75504,-25.96488,-26.98611,-23.57834,-21.29662,-31.09545,-22.09683,-29.45536,-25.30903,-28.61686,-27.8577,-28.71943,-29.91341,-29.16301,-29.8117,-30.67779,-29.97823,-30.8621,-30.08203,-31.1187,-30.42391,-31.05857,-30.85,-30.5986,-30.42314,-30.89218,-30.17747,-30.27891,-29.42517,-29.07228,-28.85748,-28.07734,-28.82301,-27.32095,-27.33863,-26.87407,-26.08325,-27.1636,-24.71383,-26.58477,-24.71194,-25.76439,-24.68194,-24.86232,-23.84127,-25.12992,-23.21443,-25.95742,-23.46714,-26.31555,-24.5559,-27.7035,-26.3391,-29.36391,-29.1452,-30.29014,-31.07563,-31.10328,-31.60648,-31.888,-32.64088,-32.16031,-32.63128,-31.0958,-33.30106,-30.89296,-32.71063,-31.4946,-33.07559,-31.0939,-32.7545,-31.34585,-32.65849,-31.52484,-43.67272,-34.11287,-43.70868,-27.25429,-38.5573,-27.29192,-33.08298,-26.48913,-29.10891,-25.41575,-26.988,-24.32862,-25.44472,-24.6508,-24.53207,-24.30282,-24.08927,-23.74922,-24.29233,-24.12309,-24.03615,-24.09662,-24.15513,-24.11588,-24.28752,-24.79119,-24.66013,-24.64821,-26.38004,-25.53977,-26.33569,-26.8307,-26.82209,-28.08114,-26.62853,-28.28396,-26.74502,-28.33711,-26.29151,-28.29432,-25.34676,-27.57582,-25.42332,-26.33629,-25.83932,-25.42737,-24.85271,-24.30514,-24.50376,-22.31258,-23.52653,-21.27623,-21.98056,-19.86025,-19.05233,-18.23627,-18.07104,-17.08372,-16.95643,-16.67236,-18.01696,-14.79225,-17.96939,-15.13525,-17.10537,-15.56568,-17.55192,-16.53868,-15.84558,-16.94446,-16.11191,-16.13794,-16.57293,-15.74676,-16.30628,-14.8137,-16.13605,-12.98286,-15.0945,-12.57926,-12.48206,-11.81618,-9.597182,-9.694325,-6.647791,-7.714341,-3.57477,-4.31341,-1.209279,-1.01643,2.466854,1.604463,6.099648,5.457157,9.62102,8.920679,12.55387,13.10525,15.43706,15.34959,18.01471,18.85009,19.87972,20.278,21.87301,21.99027,21.91784,22.54529,21.3098,22.63348,20.86618,34.44784,29.51415,42.3125,30.40457,44.83776,35.69862,46.20187,39.69883,46.62318,43.71959,47.65928,46.91071,48.06341,48.45778,49.49663,50.23231,50.37583,51.40897,51.83636,52.1861,52.37956,52.54965,52.80143,52.77003,53.21548,52.83936,52.84997,52.11615,52.98174,51.20037,52.2407,49.96478,50.56579,48.90879,48.73026,46.46849,45.54372,44.07151,43.50451,43.82705,41.20466,42.73677,41.93211,41.36345,42.95259,41.67692,44.02799,31.17446,43.41424,32.7307,42.7573,48.15852,45.53657,53.43569,49.74134,56.09142,53.57404,57.06392,55.64132,56.28824,58.14447,54.72082,58.23406,54.11734,56.85507,53.29616,55.32114,52.41289,51.65947,50.77681,48.84504,48.31127,46.8702,44.9061,43.9725,40.68435,40.32177,35.62826,36.62045,30.63706,30.77869,26.03949,23.64398,19.87634,16.73735,13.68732,9.261737,6.210625,2.137492,-1.301815,-5.607798,-7.971523,-12.57553,-15.37346,-19.79027,-22.71162,-25.90305,-29.71318,-32.29816,-36.13133,-38.96124,-41.67957,-45.43444,-46.69164,-50.94648,-52.19349,-54.60761,-57.04279,-58.20413,-61.35747,-61.80973,-63.11499,-65.11553,-64.19349,-67.05455,-65.72835,-67.27675,-66.37585,-65.6039,-64.99067,-64.97925,-62.87858,-63.07577,-59.9112,-59.54431,-57.27489,-55.36633,-53.27981,-50.64956,-46.96708,-44.99936,-41.32686,-39.69234,-36.18153,-35.094,-32.07323,-31.09442,-28.4755,-27.6085,-26.18475,-24.62963,-25.08374,-23.25552,-23.8735,-23.38796,-24.01925,-23.48723,-23.11048,-22.86268,-22.64875,-24.1649,-22.86306,-23.89739,-25.10334,-24.84334,-27.38912,-26.74441,-31.87178,-16.53962,-27.59312,-11.12903,-16.29097,-17.70631,-10.24752,-14.57355,-7.935975,-11.99519,-5.143246,-7.953521,-3.143081,-3.567331,-0.5862803,-0.4145068,2.967586,4.313854,7.388156,10.02749,13.51227,16.04954,20.52885,22.022,27.4543,27.59776,33.62844,33.18613,39.35746,38.94849,43.77457,43.83484,46.75709,48.7096,49.38387,51.07772,52.97729,52.32136,54.05341,52.98623,54.13805,52.78472,53.36488,52.30534,52.13757,51.69271,49.60423,49.60401,46.7378,47.64291,42.83026,43.27029,38.62882,37.75134,34.73327,31.36379,29.96144,24.95419,23.08096,18.98665,15.48273,12.58893,8.95133,-6.393123,0.2216359,-13.1804,-8.681053,-16.65571,-4.898783,-18.58291,-7.947616,-17.22796,-12.17428,-17.97204,-15.36557,-19.81284,-18.18275,-21.86337,-21.21479,-23.01705,-24.00327,-23.71886,-25.5819,-27.52468,-28.21902,-30.76279,-31.05324,-33.58333,-34.50873,-35.50553,-37.54524,-38.82988,-40.73047,-41.70355,-43.28401,-43.57974,-45.34313,-46.08365,-47.79929,-48.94529,-49.80955,-52.11883,-52.0173,-55.19789,-54.98904,-58.60375,-57.89357,-61.52132,-61.35738,-65.69613,-65.76864,-67.92426,-68.10377,-68.87782,-70.40321,-70.78054,-71.11805,-71.96572,-72.23486,-73.21365,-72.59872,-74.34643,-73.65532,-74.64851,-73.93341,-73.32441,-71.25344,-70.3759,-68.30778,-65.5532,-65.82445,-60.677,-60.35659,-56.24298,-54.47629,-50.26022,-47.70868,-43.79111,-39.87585,-37.52602,-31.666,-29.16843,-23.95175,-20.69115,-16.20816,-11.96577,-7.851468,-4.804142,1.956459,2.605525,9.68767,12.09657,18.0182,20.69934,25.91056,28.73674,33.64688,36.93044,39.80348,44.36017,45.79152,49.073,50.99139,53.05446,54.81625,56.5859,56.26621,58.06189,56.86924,57.25527,56.16279,55.09893,53.44918,50.64788,64.58922,54.81064,68.79772,64.9449,73.31787,63.17258,75.01461,66.50594,71.17201,67.51825,68.85779,67.78441,68.7327,68.39298,68.54084,70.08467,69.3888,72.11414,70.39051,73.90145,72.71823,74.82274,74.42838,76.40771,75.72564,79.65847,74.74008,79.73029,76.47949,79.96418,77.65175,81.83192,77.74262,83.07317,79.0571,83.68947,80.65811,83.50093,80.46519,82.68087,79.71725,78.98514,78.20505,74.64798,75.53317,72.31693,72.75302,68.67021,70.08864,65.94074,66.50261,61.87891,61.63515,55.64712,53.33349,51.16404,45.15277,45.89738,38.75113,38.74594,33.68523,32.82383,26.66407,27.70042,18.43843,20.8423,9.484303,13.75407,1.914565,6.492364,-3.955378,-1.390554,-9.828494,-8.042212,-16.08277,-14.96816,-22.7779,-21.28714,-28.88119,-28.61006,-34.6603,-36.37538,-39.7208,-43.22812,-44.37878,-50.15326,-49.01147,-55.01991,-53.50821,-59.06511,-56.45081,-62.2088,-58.64329,-63.22643,-61.9602,-62.80132,-64.04745,-63.11411,-64.09113,-62.21403,-63.47856,-60.40947,-63.09543,-58.9171,-59.22117,-57.82559,-55.41724,-55.33981,-52.16087,-53.06468,-48.52453,-49.66393,-46.08923,-46.81995,-43.7688,-44.40359,-41.74005,-42.60467,-40.75478,-38.71704,-36.8696,-35.18625,-32.25012,-32.32993,-39.67356,-28.89138,-35.74582,-27.70934,-17.99699,-21.44887,-12.29125,-12.91701,-7.355188,-4.993017,-3.205978,0.2770829,-2.144569,4.935196,2.259263,7.851875,6.978606,11.97643,9.67047,14.8406,11.95279,16.04884,12.903,15.86167,12.06102,14.81319,10.16338,11.71758,10.21194,9.071345,11.28825,7.371215,8.42447,5.96273,5.826643,3.958023,0.6200126,-0.004904535,-2.663244,-5.897034,-4.985837,-7.444812,-9.621751,-7.909297,-13.87849,-11.34364,-15.45624,-15.7751,-18.35041,-17.77229,-22.77913,-19.32048,-25.29975,-19.64043,-25.83155,-19.74319,-25.00522,-20.31244,-23.20679,-21.32193,-21.82821,-20.69823,-20.86672,-18.94582,-21.41223,-17.71643,-19.90988,-17.09027,-17.30513,-16.86034,-14.7605,-16.0149,-12.56519,-14.59833,-8.82427,-12.84362,-6.388494,-10.19799,-3.633036,-8.06347,-2.668932,-4.054758,-1.626236,-1.187562,-0.7072529,0.7165889,1.364843,2.585893,2.789785,4.76524,5.421672,4.962861,6.502899,5.719995,6.592818,5.810206,7.34714,5.164223,6.489095,4.603029,5.025413,2.06508,3.768208,-1.356936,-0.467621,-4.956795,-5.815064,-10.103,-11.94797,-16.17673,-17.86298,-8.76262,-16.92326,-6.236345,-9.659198,-16.54861,-9.30957,-17.08011,-13.5519,-17.34148,-18.05084,-18.90776,-21.12546,-18.46413,-22.69465,-19.60353,-24.37417,-21.31976,-25.86088,-24.6172,-27.03947,-26.84564,-29.18981,-30.46207,-31.16453,-32.96544,-33.58181,-33.82916,-34.38422,-36.59778,-34.65332,-37.77907,-35.60633,-37.04562,-36.94398,-34.19162,-37.03163,-33.36448,-34.49824,-33.90034,-32.14944,-32.5144,-29.85932,-30.39311,-29.7259,-27.22232,-27.63128,-23.67072,-24.78153,-20.25625,-20.84837,-16.67485,-16.48863,-12.30277,-11.48052,-7.408375,-5.862438,-3.085832,-0.3723931,0.4248129,5.915087,4.73036,10.36731,8.951109,15.29147,13.89388,18.26888,18.60982,22.39942,23.34303,25.03736,28.52618,28.55403,32.14808,33.23925,33.52303,36.17428,36.53802,38.74032,38.86671,40.8776,40.78304,42.27888,41.95537,43.88504,42.48487,45.31292,43.30571,46.2683,44.00652,45.70697,45.27287,45.2201,46.53175,44.21297,44.27455,30.78404,40.78867,29.9429,37.99372,42.91181,40.22041,47.69305,45.06368,51.66768,50.45763,55.0166,55.62856,57.48379,59.89581,58.71127,61.93757,61.64542,64.282,62.29369,65.41715,64.30558,65.59365,65.57766,66.73932,65.52043,67.7178,66.25712,67.76404,64.61534,66.50723,62.08487,64.67798,58.91047,60.5396,56.04478,56.13422,50.67291,50.56935,46.741,42.4482,42.61324,37.05063,36.52192,32.05249,32.4528,27.89653,28.05468,25.85287,22.92464,23.30279,18.66219,17.87091,16.16726,12.19236,11.19514,8.385012,6.348828,2.734725,0.9226666,-2.179824,-6.047918,-6.892901,-12.62604,-10.54128,-17.55124,-14.7921,-20.96201,-18.24597,-21.33304,-21.10978,-22.01595,-22.82147,-22.93482,-23.35715,-22.61709,-25.79187,-22.02609,-25.84223,-21.95993,-25.57322,-22.23301,-24.21324,-21.36222,-23.56587,-21.41617,-20.86218,-21.96916,-19.05175,-20.74543,-18.98461,-18.20205,-17.66596,-16.47308,-17.15439,-15.71021,-17.09125,-14.7814,-17.89559,-15.12855,-18.34406,-15.81779,-19.47412,-18.4195,-22.20609,-22.05807,-25.54655,-28.37389,-31.38941,-36.33009,-38.19001,-43.50065,-29.97858,-40.183,-25.30509,-31.50992,-32.42794,-28.24286,-31.02452,-27.93568,-29.2913,-28.01991,-28.26215,-27.17615,-27.13031,-26.92695,-24.6075,-25.6994,-23.76658,-24.57116,-22.33814,-22.93568,-21.86226,-21.92489,-20.65704,-20.99648,-20.4754,-21.20802,-20.00231,-20.20831,-19.57789,-20.50945,-19.94657,-20.56164,-20.16625,-21.53523,-20.8306,-23.1749,-22.45702,-24.22838,-22.56412,-22.69503,-23.38094,-20.66397,-22.17519,-19.57312,-20.63576,-17.53697,-19.4373,-18.21542,-16.86652,-18.14257,-16.94165,-17.00829,-17.73356,-16.97739,-17.95123,-18.69516,-20.37287,-19.81033,-22.57394,-22.03744,-23.12751,-22.55631,-22.28198,-22.89639,-21.83507,-22.64367,-21.0291,-20.4776,-21.42505,-19.95019,-20.94229,-19.21466,-19.844,-20.61295,-19.82464,-19.2911,-20.67428,-19.23692,-20.56511,-19.87448,-20.63824,-21.10367,-22.1907,-20.81173,-23.25264,-21.53885,-23.79595,-22.16664,-25.03643,-22.515,-26.40213,-23.32633,-26.96061,-23.96524,-28.79144,-23.80209,-29.67612,-24.82231,-29.47186,-26.34024,-29.57663,-25.95617,-27.77423,-27.04818,-28.18307,-28.60833,-28.93313,-30.47309,-30.54362,-32.77333,-32.13919,-33.98497,-32.98013,-37.14775,-35.63928,-40.36341,-38.17228,-42.85311,-42.48442,-45.0071,-46.77322,-47.14776,-49.98805,-49.41655,-52.08764,-53.02246,-53.17122,-54.57387,-54.20306,-54.94282,-54.5269,-55.31473,-52.96185,-55.28534,-51.02804,-52.23138,-48.56348,-48.12239,-45.14587,-44.295,-41.12602,-38.5432,-36.62266,-32.59156,-29.77899,-26.18919,-23.01886,-18.26699,-14.48335,-10.32828,-6.171882,-0.5242892,2.222663,9.629008,11.69312,19.114,21.01275,29.01042,32.21145,38.144,42.33639,47.60122,51.18702,57.27308,59.47026,65.63418,68.20158,74.20953,76.0926,82.36883,83.97669,89.7041,91.61403,95.16938,98.19027,99.02977,101.992,104.0389,104.826,105.6133,93.97243,106.3944,95.55715,106.0299,99.95349,118.7818,106.8059,121.952,116.2579,124.7523,121.5925,126.8777,125.0953,128.588,125.9929,129.0371,124.5463,128.1604,121.8969,123.7054,118.4243,119.8135,114.9367,114.5499,110.0893,110.8968,103.4929,106.0703,102.3176,102.4012,97.75029,99.59985,92.64113,92.00168,87.76948,83.2749,80.94428,74.52556,70.64398,65.31497,60.33893,55.18174,50.39865,44.81198,40.15272,35.23315,31.00099,24.48529,20.81902,15.05826,8.913411,4.086825,-1.373118,-8.130557,-12.18511,-18.7046,-23.02798,-29.74607,-33.52454,-40.34834,-44.28154,-50.58413,-53.6884,-60.37078,-61.69543,-69.7808,-70.58729,-76.19649,-79.44179,-82.44877,-85.19322,-88.03317,-90.05766,-90.5746,-93.46006,-92.74745,-95.47411,-94.36508,-94.34969,-93.8305,-93.31473,-91.2963,-90.78486,-88.22151,-86.22979,-83.5365,-81.26547,-77.94221,-74.83874,-71.70804,-68.64922,-65.16994,-62.21724,-57.77567,-55.71829,-49.90546,-49.21992,-43.22453,-42.77168,-37.84767,-37.55833,-33.81575,-34.37527,-31.4829,-33.21085,-32.57074,-31.95683,-33.78052,-34.89685,-36.91616,-36.96777,-23.63491,-31.67136,-17.07,-20.66304,-6.859034,-21.15239,-3.165862,-13.70439,-2.691676,-8.423514,-1.11472,-5.498503,-0.3013016,-2.495736,0.09771632,-1.380223,0.1768487,-2.301584,-0.04985841,0.7250382,-0.4434102,0.8029171,0.3618182,0.8569339,1.398141,2.118179,3.623498,4.499455,2.701109,5.077602,4.14386,3.1395,3.763074,2.379575,1.636262,1.641044,-0.967959,-0.1338117,-0.3824162,0.08620578,-0.07670902,1.021986,0.679125,1.817278,1.200134,2.603353,1.336709,2.022655,1.114814,1.774388,0.5395138,2.794319,0.1946831,3.55607,0.8071565,3.135392,0.7751635,3.604827,1.372365,3.61508,2.343642,3.265733,2.694456,4.403047,2.708148,5.389163,2.973273,5.519448,5.284463,5.694084,6.636069,6.747946,7.224229,6.729486,8.419525,7.923924,8.83786,9.427248,8.502174,10.30765,9.810683,10.46786,10.28168,11.91547,10.65955,12.38494,11.11639,12.92191,12.03513,13.36903,13.95758,13.48089,15.5633,14.96477,7.041274,12.41482,7.455025,11.20458,21.46618,14.21723,24.41871,20.61303,27.81648,24.43485,31.58844,27.47849,32.97483,29.74701,34.28502,31.19543,35.01997,32.53884,35.31964,33.4662,34.83908,33.88586,33.46603,33.4685,32.08932,32.07092,29.81566,29.18253,28.37562,27.12504,25.10694,25.03368,22.82364,23.83504,22.11228,23.05238,20.36265,23.01808,19.23519,21.7469,20.17745,21.80361,20.17616,22.97583,19.4409,24.13222,19.83028,24.46324,21.54959,23.8659,23.34023,23.15556,24.21347,22.90417,24.29726,22.7045,23.33325,21.56928,22.51859,20.51685,20.34258,20.17737,17.6907,18.25117,16.04232,15.93217,13.33136,13.90882,10.53104,10.46401,8.367415,6.509334,5.458597,3.627466,2.057452,-0.9853647,-0.7770183,-4.836456,-4.48228,-7.341824,-9.117145,-9.913384,-13.72487,-12.45017,-17.35546,-16.90704,-19.6714,-21.52412,-23.13614,-24.60702,-26.37463,-28.00562,-30.2261,-32.45124,-33.09833,-35.96869,-36.2917,-39.3693,-40.27272,-42.52938,-43.86573,-45.90197,-47.40569,-49.68302,-51.32809,-53.64211,-55.61189,-58.32898,-59.2584,-63.82734,-64.17192,-55.79306,-59.6551,-50.71682,-49.16597,-54.62299,-44.80612,-48.27052,-43.44056,-43.56822,-41.8444,-40.7534,-39.94715,-39.32477,-38.69888,-38.4778,-36.99194,-39.27613,-36.50699,-39.80563,-37.51952,-39.30538,-40.14968,-39.46775,-42.67571,-41.67446,-44.59065,-43.47951,-45.47354,-45.87591,-46.26937,-44.85303,-46.22681,-44.88266,-45.87314,-44.79109,-43.91801,-43.31672,-43.30531,-39.38512,-41.33089,-36.24807,-37.39063,-34.52048,-33.33153,-30.01241,-29.21459,-25.28397,-24.68703,-20.48078,-18.13475,-17.61857,-11.36651,-12.62293,-6.731859,-6.834893,-0.5360011,-0.2310818,4.996552,6.273577,10.23207,13.1455,15.86715,19.08374,22.05214,23.51812,27.95027,28.99997,32.57164,34.06388,36.95163,38.66981,42.15882,42.46827,46.31248,45.54862,50.56746,49.4026,53.46191,53.18739,54.77729,55.85483,56.98606,57.01781,58.73143,57.62761,59.40874,57.67326,58.5248,57.40168,57.08044,56.53346,55.74436,54.49397,54.34541,51.31252,52.29617,49.1758,48.58627,46.29547,45.91831,43.32191,42.44059,40.59255,38.19414,38.51313,35.21352,36.04659,20.40343,32.32422,18.82811,26.81164,31.71686,27.29791,34.94625,30.65595,36.52129,33.04329,36.86173,33.09728,34.74468,32.91655,31.64027,31.03497,29.52873,28.656,26.749,26.30251,25.9653,23.03237,24.36301,21.00028,22.09566,19.51605,18.4835,16.8039,16.33679,13.97929,14.44581,10.38825,11.76438,7.568828,7.672926,3.119817,2.328661,-0.4524266,-1.914005,-4.433177,-5.396221,-6.899035,-11.35594,-8.859414,-14.79074,-13.28761,-16.44855,-18.7543,-19.37756,-22.92859,-22.77297,-25.60172,-26.60051,-29.11788,-29.19811,-32.65321,-32.01018,-34.95006,-34.05694,-38.68422,-36.55171,-40.31021,-40.1182,-41.59602,-42.19339,-43.08495,-44.30864,-45.10084,-44.97695,-47.05513,-45.13738,-47.71196,-45.55982,-47.58612,-44.81009,-46.14145,-45.16111,-43.96455,-43.8884,-41.7879,-42.40034,-40.00284,-40.73921,-38.56327,-37.85328,-37.18,-35.30783,-35.89682,-32.62807,-33.56247,-31.58991,-29.78728,-31.01604,-27.47072,-28.54114,-26.24593,-27.26234,-24.21282,-25.04816,-22.88856,-23.67594,-22.50026,-22.24883,-23.81473,-21.40155,-24.83096,-23.66416,-25.95559,-26.82453,-31.11264,-29.45564,-20.49861,-26.64504,-14.68424,-17.92836,-20.76254,-16.1997,-19.06005,-15.9701,-19.7981,-15.72969,-22.15947,-16.05034,-22.74803,-18.34186,-22.29855,-18.80526,-23.06652,-19.27183,-22.67979,-19.37469,-22.22013,-19.48561,-21.22593,-18.55158,-20.68449,-17.44714,-20.99991,-18.41854,-21.84783,-19.53852,-24.38499,-22.31645,-26.47829,-25.76961,-29.77306,-27.96253,-30.63865,-31.27518,-29.97154,-32.86377,-32.21805,-35.03455,-32.3122,-37.08041,-34.08058,-38.12249,-36.18649,-37.98836,-37.56605,-36.96733,-37.39259,-36.81593,-36.79865,-36.14537,-34.21036,-35.03625,-32.63672,-32.20041,-31.54942,-28.59067,-28.5236,-24.86293,-24.66634,-20.82514,-20.83399,-16.49537,-15.36519,-12.94183,-9.403209,-7.357278,-4.404368,-1.494109,1.421239,4.60674,6.952922,10.68888,14.37595,16.14917,20.20423,22.12957,26.99101,28.10946,31.90498,35.01588,37.0903,39.87719,43.62817,45.02087,48.24508,49.66784,53.99439,53.25969,58.80815,57.53001,61.34463,62.09108,65.72901,65.00249,67.33134,68.48379,67.95125,70.68762,69.97139,72.81551,70.86601,71.68015,71.90102,72.17704,71.71324,74.80869,70.5216,75.74189,71.41746,71.99291,60.19748,68.16761,59.27979,64.11697,59.67158,75.99886,64.65333,79.56002,71.55668,82.98576,77.9362,86.24743,82.72399,89.52232,86.98244,92.62096,90.23545,96.2827,92.71011,97.10356,94.27685,95.99367,92.89437,93.76092,91.4306,91.00047,87.21861,87.56901,81.95391,82.83017,77.10681,77.04827,70.91939,69.39124,64.84833,60.13666,56.42247,52.00344,47.36589,42.32574,38.52926,33.2296,28.14183,23.65127,17.86945,13.47803,7.210635,3.052732,-4.149159,-6.155386,-12.76869,-16.76055,-20.45537,-25.54915,-28.34521,-32.59187,-33.79871,-39.27788,-40.32918,-43.78591,-46.45476,-47.98372,-51.46103,-53.39503,-54.92293,-58.32593,-58.72938,-61.36705,-62.00561,-64.75867,-64.62631,-66.25664,-67.12878,-67.34237,-68.06843,-68.51902,-67.30163,-68.46719,-67.2183,-66.39007,-67.01539,-63.88817,-63.67772,-62.43,-60.12508,-59.73248,-56.29221,-56.46662,-52.73903,-52.26452,-49.0626,-47.39457,-44.29381,-44.137,-41.08138,-39.64472,-38.1398,-35.95418,-35.60878,-34.40617,-34.38575,-34.46921,-31.9751,-34.82364,-34.12588,-35.89361,-37.56929,-39.40383,-43.69956,-45.87733,-48.66105,-36.23452,-46.98703,-32.08928,-36.61266,-24.53721,-38.33579,-22.8115,-31.83006,-22.52084,-28.5096,-20.90016,-24.44684,-19.36613,-21.17283,-16.82012,-17.05863,-13.0047,-16.12715,-10.27038,-13.40153,-9.01973,-9.584254,-7.881505,-6.869478,-5.789343,-5.110688,-2.61665,-3.654754,0.7925213,-2.580307,2.6386,-1.186705,3.613502,0.7154345,4.389991,1.900422,5.03942,2.56775,5.456225,2.518022,4.090629,1.732661,3.662052,0.2479277,1.57783,-0.4603232,0.5511556,-0.1347289,0.9807506,-0.8620366,1.27914,0.5186367,1.011383,2.613012,2.041713,4.759594,2.85002,6.383467,4.689705,6.860689,7.157352,8.15527,9.688932,9.446859,12.03059,11.29359,14.41264,13.59269,15.007,15.16195,17.50388,16.0837,20.37244,17.18342,21.0157,20.19596,21.68903,22.41766,23.79456,23.18712,27.35129,25.14636,28.76023,28.33221,29.72625,31.19801,31.32232,34.4764,32.31157,37.08497,34.13525,38.80064,36.03328,39.77888,37.30813,41.32659,38.61204,41.83443,40.49637,42.49433,41.72433,43.37865,42.02597,43.8123,43.68149,43.39338,44.67423,44.28865,45.19488,44.33099,46.01283,44.26429,46.46694,44.86233,46.02791,43.75676,38.87885,38.03375,35.96825,34.88396,35.21211,46.95088,37.52597,50.56275,43.41299,52.0687,47.7854,52.38499,50.50301,53.38633,51.90586,54.20781,53.30397,54.5301,53.09431,53.9025,53.16299,51.43505,52.24978,49.91544,49.68295,47.8273,47.38309,44.77596,43.86392,41.0583,41.01403,38.07134,36.40511,32.39251,31.77699,27.52167,26.49869,22.45849,19.95573,16.61659,14.27218,11.01964,7.047782,5.365343,0.7314804,-1.507576,-5.970857,-7.413771,-13.16037,-13.54066,-20.84699,-19.49185,-24.58829,-26.43509,-30.60292,-30.48566,-36.04796,-36.28952,-40.30595,-41.92396,-44.77753,-46.54149,-49.84916,-51.27859,-53.30623,-55.20015,-56.3051,-59.4121,-58.25522,-62.23206,-60.56794,-63.07947,-61.75231,-64.27221,-62.30782,-64.50425,-61.8409,-63.89979,-62.23586,-62.40431,-61.97414,-61.26079,-61.46588,-58.86051,-60.43737,-56.18089,-58.61909,-54.08335,-53.9201,-52.08035,-50.26275,-49.40961,-45.62095,-46.14631,-42.4671,-43.09941,-39.20118,-39.06236,-36.2345,-39.14156,-34.78689,-37.30131,-35.84056,-37.71442,-38.54156,-44.11778,-42.62806,-48.57636,-49.43364,-55.75351,-57.43203,-53.29194,-55.28307,-51.34778,-50.19556,-45.42547,-57.70911,-43.81075,-57.45157,-47.42333,-55.54699,-50.15801,-55.01554,-50.62876,-54.80253,-51.77724,-53.36664,-53.82609,-53.97052,-51.72092,-53.3651,-52.30821,-50.02241,-52.26164,-48.634,-48.45214,-47.10924,-45.04256,-43.61449,-42.93515,-39.61485,-40.51596,-37.85891,-37.3657,-35.16848,-34.22725,-32.14596,-31.19085,-30.3832,-27.68244,-25.78731,-24.75878,-22.61909,-21.33035,-20.84422,-17.07245,-17.14123,-13.04766,-12.72538,-9.074633,-9.697203,-3.680372,-4.88939,-1.31456,-0.5186869,3.113176,1.925437,7.26676,5.877537,9.43516,10.76966,11.34668,12.70203,14.19779,16.84422,15.97323,18.67449,18.91446,20.80632,20.58797,22.38099,22.22479,23.75298,22.56523,25.36902,23.35664,24.94156,24.23372,24.01605,24.2646,23.22592,23.19145,23.94352,22.75331,23.30704,22.70643,22.12916,24.13005,22.44845,22.02602,24.67462,22.10996,26.113,22.88289,26.82391,23.04111,27.82803,23.31616,27.53697,21.54522,28.74758,21.72795,25.85555,21.90761,23.1508,21.66716,24.91945,20.76049,25.09066,21.13438,24.02336,22.29169,23.16715,22.44291,22.12055,21.49448,21.60859,21.47844,20.57897,20.52251,21.43119,20.32928,20.88698,20.04054,21.25256,19.45647,21.90841,18.11383,24.04094,19.47521,22.55955,20.7926,23.27701,21.87681,24.85607,22.56744,24.88491,24.59899,24.93798,24.96454,25.16674,25.31573,25.586,25.82001,24.57722,27.3044,24.72895,27.69634,25.83671,27.81182,26.74965,27.04344,27.82522,27.13054,28.27698,28.60453,28.0496,29.48852,27.9403,29.39501,27.16642,29.77512,27.63249,28.96713,26.6664,28.3951,26.7585,27.38405,26.56506,25.30153,27.48172,22.38257,27.65378,23.45829,26.56748,22.16497,26.46623,22.25715,25.56417,22.52662,23.8948,22.62516,23.56007,22.49317,24.40097,21.32629,24.93605,22.20484,23.51595,23.29724,23.31479,22.86661,24.00201,23.65477,24.56431,23.91871,24.83455,25.47063,25.36243,26.49287,27.06274,26.10391,27.94528,26.55824,28.12965,26.33653,28.65264,25.7484,28.47189,12.11726,26.27952,10.99539,23.05884,13.67282,34.59864,19.00945,36.63296,27.03684,39.78846,32.58419,41.21825,36.43076,43.11712,37.74303,44.88548,39.39575,44.76737,40.25125,44.72087,40.48167,43.84274,40.11644,41.04707,39.10744,38.98198,35.99263,35.09318,32.41801,31.17157,28.06318,25.34562,24.06356,19.93168,18.86422,13.53204,13.58365,7.925826,7.059465,1.29257,0.4215407,-6.094558,-5.616576,-12.5001,-13.06777,-18.4702,-18.75426,-25.21585,-25.46314,-30.30401,-32.06327,-34.68118,-38.43268,-39.89409,-43.5051,-44.76659,-48.28509,-48.86766,-52.10838,-53.26074,-55.61882,-56.09079,-58.62285,-59.43492,-60.66487,-61.51838,-61.75977,-62.96745,-63.16909,-62.70092,-63.42025,-61.52803,-63.50164,-60.75958,-62.94995,-59.22661,-61.6805,-56.86283,-60.80942,-55.07599,-58.03678,-52.60766,-55.36529,-48.72987,-51.90214,-45.18474,-47.8785,-41.40264,-42.90612,-37.16388,-36.74553,-32.4682,-31.98831,-28.61483,-28.02282,-27.06639,-26.29259,-25.63492,-26.11443,-26.85747,-27.35456,-30.93722,-30.79047,-35.30741,-36.33438,-40.50389,-43.18405,-48.38543,-52.49293,-56.9973,-61.48331,-51.30714,-60.94369,-50.96476,-54.82651,-46.29416,-60.93514,-45.436,-58.55147,-47.45424,-56.21558,-49.21366,-53.75731,-48.11457,-51.07394,-46.37934,-47.27838,-44.5237,-43.54646,-41.01951,-39.61506,-37.56438,-35.59807,-33.52126,-31.06962,-28.59894,-27.18066,-24.27417,-22.04961,-20.04953,-16.21491,-16.16041,-10.66345,-12.00633,-5.673711,-6.464363,0.3916968,-2.484935,5.749822,3.960681,11.41879,10.60541,15.6415,18.39603,19.39959,23.87285,24.82051,28.22474,28.97725,31.42504,32.00158,33.61089,32.75169,34.28863,33.09531,35.01355,33.39756,33.69808,34.18994,33.41586,33.51321,34.1096,31.05225,33.39635,30.24257,30.90758,28.78845,28.10452,26.11606,25.12651,22.7873,20.74139,18.9283,16.26326,15.03776,12.64981,9.676919,9.993234,4.436,7.210358,1.335333,4.358856,-1.447326,2.08901,-3.831984,0.7894691,-4.108866,-0.4422537,-3.602023,-2.541201,-3.115248,-3.712957,-4.585908,-4.562257,-6.382251,-5.909248,-7.229625,-7.231542,-8.195434,-9.724568,-7.443029,-10.21409,-6.95839,-10.15735,-6.475223,-8.256086,-6.169562,-6.86551,-5.451849,-5.006915,-3.524785,-3.374616,-1.277233,-3.306348,1.651374,-1.241719,4.79642,1.074514,6.773899,3.711536,8.59783,6.987957,10.97316,9.81728,12.80491,12.25235,15.67546,13.31675,17.34504,15.17471,18.52214,16.65962,19.12672,18.89246,19.39659,19.75694,19.68115,20.7783,20.00389,19.96093,20.25075,19.77524,20.06751,20.55316,20.16004,20.78088,21.88662,21.13824,23.40079,21.64778,23.78237,22.98923,24.05159,24.44242,22.87945,25.06304,24.03703,23.17534,24.46519,21.78597,23.5071,20.92186,22.17508,20.91852,21.0848,22.50428,21.06479,23.42647,22.50549,23.58013,24.03548,25.23696,24.14262,26.4693,25.82754,27.37623,27.98157,29.50175,29.50839,31.29949,31.69067,33.61005,33.80644,36.19512,36.84616,38.09195,39.70939,40.97668,41.13156,43.32431,42.7918,39.80636,36.24449,40.27676,36.11826,52.40918,38.33644,55.60317,43.23668,57.02552,48.15021,57.25843,51.35862,57.47092,51.31583,55.95315,49.59558,54.40379,48.37213,51.00597,48.95443,47.33562,47.91468,45.54803,45.41952,43.76297,42.36173,42.68517,39.09502,41.08074,37.29707,38.41891,34.68546,35.76997,33.68298,32.00551,32.13222,29.64948,28.73077,25.75664,25.80672,23.0317,21.53643,19.87969,17.02313,15.71617,14.04281,11.38313,9.099263,7.720458,5.606191,4.034597,1.939051,0.4122208,-2.563862,-3.653833,-6.80643,-7.949257,-10.73865,-12.78006,-14.25123,-17.43071,-18.58303,-21.51519,-23.39912,-25.31194,-27.187,-28.86816,-32.3312,-32.19883,-35.92337,-34.914,-38.73137,-39.1239,-40.47299,-43.79612,-43.16326,-46.53837,-44.97334,-49.82314,-47.22222,-51.22828,-49.58445,-52.60829,-53.02659,-52.24273,-54.80053,-53.60152,-55.58596,-54.87944,-56.50996,-55.25967,-57.37628,-54.51267,-57.02352,-54.8851,-56.14,-55.21035,-55.35714,-55.40828,-55.41141,-55.25158,-56.40854,-55.21167,-55.8506,-58.79696,-54.76592,-58.84061,-55.20249,-60.06886,-58.19357,-62.76446,-55.16703,-53.11638,-51.17672,-44.95108,-57.87571,-42.0772,-56.87474,-43.9908,-56.62144,-46.59027,-55.96998,-50.54203,-57.41125,-53.98323,-58.14502,-54.78418,-58.97763,-55.77117,-58.08969,-56.93011,-56.64065,-57.3221,-56.228,-56.57441,-54.45312,-54.91648,-53.02141,-51.89448,-51.73164,-48.29898,-48.82598,-44.51857,-45.94145,-41.07587,-40.63132,-37.72519,-37.3478,-32.6922,-32.23325,-28.11868,-26.80009,-22.97803,-21.9185,-17.66366,-16.18448,-12.63238,-11.0549,-5.688498,-5.275334,-1.126601,0.4899743,4.023422,6.397482,9.149971,11.89525,15.04983,17.00036,19.99824,22.05221,23.85287,27.10459,28.70141,31.08374,33.30005,35.14797,37.01192,38.55802,41.6882,40.98467,45.66912,43.02303,47.41208,46.49394,47.40519,48.98166,48.90629,50.15323,49.45452,50.58276,49.33897,50.48665,48.87417,49.79231,48.51673,48.83955,46.85318,47.58411,45.10687,47.24822,43.01011,45.67733,41.21297,43.78792,39.39052,40.94835,35.9703,29.18234,32.19161,25.72752,29.40806,37.36357,30.48636,41.52203,33.47776,46.15903,35.94184,47.88366,37.20921,47.53499,39.0219,46.04179,39.87928,43.77025,39.46659,41.23213,38.04203,38.51821,36.20454,35.75712,33.21066,32.91542,30.21279,30.07312,26.9944,26.72829,23.33317,23.41799,20.25668,19.63662,16.29112,16.39469,11.87816,12.5168,8.077343,8.733815,4.368108,5.559151,1.081598,1.972423,-1.978612,-1.267273,-4.3179,-4.472666,-6.199816,-6.489301,-9.684437,-7.876931,-11.76201,-9.886103,-14.00588,-11.20852,-16.67382,-12.92802,-18.00967,-14.54395,-19.58942,-15.99169,-20.42476,-17.58808,-21.44569,-18.35807,-21.71092,-19.16525,-21.26166,-20.17225,-20.49791,-20.35506,-18.94142,-20.05967,-17.98903,-18.96722,-17.18878,-17.94747,-16.30887,-16.22763,-15.74718,-13.03051,-14.06755,-11.33119,-11.44304,-9.629795,-7.708086,-7.506152,-5.291783,-4.984136,-2.866498,-2.424362,-1.270314,0.3454804,0.02456835,2.224117,1.0929,3.50511,1.968559,3.577077,1.920343,3.363386,1.18171,1.551743,-1.931953,-0.4430415,-5.854057,-4.288583,-11.20888,-9.870057,-16.97844,-14.60033,-9.617518,-12.66818,-5.080552,-6.346129,-12.98628,-4.579349,-13.17159,-6.030378,-13.31776,-6.64303,-14.05196,-7.734802,-14.10453,-10.60923,-13.11314,-12.85001,-13.41816,-15.09933,-14.62331,-15.02202,-16.24108,-16.64122,-17.63883,-17.23901,-18.68098,-19.21318,-20.10328,-21.04437,-21.64723,-22.1142,-22.72033,-24.10599,-24.71258,-25.43746,-27.26088,-26.1712,-28.73069,-27.22066,-30.46207,-28.56572,-31.26576,-29.65594,-32.43573,-30.02538,-33.40925,-30.44671,-33.52608,-31.82958,-33.48618,-31.1307,-32.5971,-32.02642,-32.23049,-31.22511,-33.60132,-31.27811,-33.90109,-32.27829,-34.68582,-32.87425,-35.76386,-33.18386,-37.24036,-33.99707,-37.66134,-35.26723,-37.56021,-37.15579,-37.10439,-38.72312,-37.76086,-39.4545,-38.79945,-39.89522,-39.61598,-39.499,-38.43313,-37.7195,-36.26122,-35.00706,-35.18468,-33.76327,-33.32434,-33.01131,-31.83247,-31.6596,-30.74609,-30.46289,-29.30946,-29.17751,-27.70445,-27.00408,-26.0762,-24.35739,-24.0839,-22.02687,-21.80786,-20.68575,-18.27396,-19.65299,-15.62619,-17.12234,-13.62994,-13.43846,-11.6446,-9.917717,-8.867795,-6.623804,-5.243852,-2.542238,-0.8837995,1.950189,3.285192,6.015931,9.180227,10.8605,14.98839,16.899,20.27126,23.40828,26.04152,29.26129,32.95436,34.63556,39.94292,40.32264,45.43199,46.39812,52.24975,52.00978,58.1375,58.3323,64.75204,64.91703,68.9372,71.49053,74.4756,75.81367,66.45037,78.85895,68.68476,79.08555,72.93101,81.3998,91.27944,88.58464,99.66847,98.23021,107.9888,107.3263,114.827,116.4397,122.1389,122.6016,129.5429,128.3453,134.8341,132.3576,139.9466,133.6258,141.7234,133.1283,136.8557,129.9967,133.4487,125.4821,127.4914,120.5417,121.1126,113.1324,112.4134,105.8805,102.6393,95.73242,91.90034,82.865,80.16988,72.70777,66.04992,62.11848,55.05058,50.50544,44.10504,38.64091,32.77148,28.4842,21.47614,18.07779,9.376864,5.69836,-2.459301,-6.509616,-13.43935,-18.92578,-23.69557,-28.99963,-34.27931,-37.95821,-43.81336,-46.5104,-51.69409,-52.48333,-58.88913,-59.49759,-64.27305,-66.22712,-67.67337,-71.10286,-72.50447,-74.4998,-75.51776,-77.18715,-78.51743,-77.89634,-79.93857,-79.24117,-79.68421,-78.56738,-77.49491,-78.07024,-75.22611,-75.56462,-72.35952,-71.51211,-69.44064,-67.53109,-65.80925,-62.22654,-61.04593,-57.54585,-57.36127,-53.02324,-53.42217,-50.75494,-50.8795,-48.68928,-49.17797,-47.23038,-49.10047,-48.17977,-49.26879,-50.66867,-51.65896,-55.55861,-57.59087,-62.20602,-66.98573,-71.76023,-76.61929,-68.57707,-79.57173,-69.94774,-75.52981,-66.65463,-66.7479,-74.76575,-63.43601,-71.02752,-61.63941,-68.06664,-58.86488,-63.1125,-56.30619,-58.19525,-51.23933,-54.37021,-46.69029,-50.56244,-41.28987,-47.16309,-36.70729,-43.81636,-32.83931,-34.81646,-26.70768,-30.33308,-20.17683,-22.68933,-16.42196,-16.68006,-10.5868,-9.946857,-6.168588,-4.737206,-0.4636553,-0.2972576,7.071902,6.484503,11.7638,14.16377,15.1537,19.1911,19.76322,22.40147,24.64243,25.90807,27.71468,30.57022,29.86387,35.06338,31.90298,36.32459,34.54352,37.44296,35.72025,39.24249,36.22785,39.84616,37.52311,40.30145,37.62853,40.23049,37.48345,39.62997,37.44786,37.71316,38.54342,35.4535,36.9606,35.83656,33.66364,35.28496,31.30667,35.13045,29.59976,32.06273,30.23096,29.42414,30.18044,27.27722,29.84623,26.94463,29.64177,26.67966,29.28048,26.96734,29.71718,29.00836,29.89695,28.28375,30.0349,29.68576,29.63028,30.93245,30.69879,31.46758,31.01331,32.09712,31.77511,32.8503,32.41962,33.25201,32.70275,33.29562,33.26081,33.1585,33.89423,33.61961,33.81044,32.53627,34.57156,31.73716,34.2869,31.76225,34.68744,31.04574,35.50764,31.01828,35.52183,30.49743,34.80807,30.17523,34.35724,31.30075,33.37557,31.17171,32.67993,31.52666,33.6342,30.62063,33.11127,30.80889,33.52801,29.9812,33.19119,29.66104,32.57172,29.54058,31.58547,30.41955,31.07763,30.26254,30.64657,29.59984,30.17614,28.33267,30.50798,26.93601,30.47036,26.21852,30.03073,26.81688,29.83293,28.24325,30.81499,29.6527,31.09822,30.80332,29.79349,17.01236,27.31515,13.97311,25.35771,14.87068,37.52082,19.35253,41.02987,26.94742,44.6008,32.83463,45.46072,39.03936,46.89044,41.58247,47.71757,43.64249,47.54745,43.02852,45.68964,41.99398,41.9209,40.30255,37.2396,38.02645,31.96809,32.68478,28.77286,24.97646,24.41803,18.78631,17.51707,11.54161,10.01161,4.101756,3.00917,-3.983568,-3.895889,-12.83451,-11.51196,-20.51183,-18.3426,-28.2162,-27.02565,-34.24607,-34.92627,-41.61294,-42.83296,-47.48703,-50.73337,-53.54723,-56.69754,-60.65531,-62.10533,-65.88409,-67.08643,-70.73487,-71.83533,-75.93767,-75.37883,-79.89207,-79.44181,-82.87719,-81.99021,-84.38057,-84.61867,-86.1766,-86.22177,-87.56004,-85.82899,-89.44979,-85.31739,-87.91846,-84.03303,-83.85593,-81.19398,-80.60878,-79.56784,-77.4389,-77.96573,-76.35533,-76.442,-75.27574,-75.77601,-74.70635,-74.26135,-75.57546,-73.66969,-75.39994,-73.82964,-75.11386,-74.69867,-75.22047,-75.73437,-75.64581,-75.89008,-75.70086,-75.78945,-76.21512,-75.45052,-76.58739,-76.42577,-76.90043,-77.42292,-78.89902,-78.54226,-82.99257,-83.51036,-86.92071,-89.70647,-91.24501,-77.0258,-86.65462,-69.45294,-74.85802,-57.01145,-73.75029,-48.41146,-65.18567,-42.9765,-56.06602,-36.89791,-45.05499,-31.84554,-35.48278,-24.94423,-25.09797,-18.14368,-15.76036,-10.86323,-6.799218,-2.465581,1.385532,5.353699,9.365086,12.30905,16.88057,19.2029,21.58498,26.26313,26.76974,30.55975,31.93018,35.08813,36.82038,38.97455,40.72904,41.60549,43.64205,45.10478,45.62362,47.01106,46.74181,47.79895,47.84488,48.16275,47.43597,47.0465,47.0768,44.43766,46.92909,42.11665,44.31644,40.89535,41.39677,38.19408,38.39755,35.6963,34.43473,33.64172,31.09946,30.91727,28.04412,27.52254,25.93036,24.9903,24.05795,22.83194,23.65664,22.14538,23.25417,24.20654,23.59949,24.97457,25.71787,24.75349,25.69876,24.17954,25.62797,23.26536,24.77585,23.6997,23.92631,22.85194,24.40679,21.98066,23.69042,22.48087,23.33138,21.99736,22.89992,22.04481,22.60545,20.95327,22.66617,20.43838,22.4038,19.11047,21.06799,18.6785,21.06867,17.47492,20.36429,17.08735,18.85884,17.43307,17.30283,17.01883,17.97736,15.11904,18.25037,15.5846,16.69938,15.80187,16.15399,16.76629,15.08737,16.83766,14.88522,16.81033,14.88524,16.8432,14.63382,16.19701,14.59267,17.1087,15.46338,15.74562,17.06475,15.11444,17.32143,15.53517,16.69879,15.9525,15.59108,15.71934,15.02987,15.03514,13.95645,15.3899,13.62589,14.66173,14.77404,13.99681,14.88554,13.95607,14.57254,14.98933,13.74615,15.42247,14.06986,15.32198,14.19239,14.79555,13.43347,11.46471,2.919042,10.40251,2.375156,16.25221,11.01271,18.05174,16.39575,22.27567,20.82037,25.22237,24.59909,27.29863,26.8763,28.8682,28.3018,29.1316,28.87408,29.25298,28.38197,27.49092,27.23836,26.91286,25.13794,25.37351,23.12403,22.48411,21.47773,19.86996,19.65148,16.45729,17.95007,12.11812,15.6671,8.844129,12.98778,7.101758,7.964333,4.285644,4.816988,-0.6318694,3.32995,-2.921903,0.7794058,-4.66444,-1.221924,-5.505001,-4.060008,-6.174604,-4.671757,-7.245415,-5.456666,-6.866773,-5.0457,-6.013327,-4.682473,-5.821485,-3.185539,-3.829363,-3.294753,-1.717539,-1.937043,-0.07869562,-0.3815858,0.708817,2.091284,2.388775,2.912156,5.432516,3.084266,6.581618,4.308729,9.275823,5.383236,9.643372,7.371379,10.36227,8.258892,10.34171,9.348421,10.76505,9.868936,10.20987,11.18913,8.163226,9.978569,8.696373,8.616492,6.882367,7.806486,4.493974,5.855402,2.393955,2.979906,-0.5754176,0.2051317,-4.22824,-3.991413,-8.561027,-8.52246,-13.60311,-14.15837,-18.32462,-21.68959,-23.20411,-29.21648,-31.09631,-36.54302,-40.10517,-44.62401,-47.98135,-49.57664,-42.19333,-48.02735,-38.53621,-49.76911,-42.90792,-48.71597,-43.66395,-49.37829,-45.12556,-49.14745,-44.92524,-47.31787,-43.73146,-44.98549,-43.53001,-42.84191,-43.10523,-40.92837,-42.44529,-39.10682,-39.78157,-39.20377,-38.07971,-38.36206,-36.85427,-36.69404,-37.14736,-35.19658,-37.40065,-34.48057,-37.5547,-32.61,-39.35515,-31.48938,-40.26444,-32.54054,-38.89834,-32.51049,-37.61354,-31.44895,-34.68859,-31.08718,-31.98835,-30.57589,-29.80638,-28.97113,-27.59267,-26.44399,-25.47187,-23.58034,-22.12286,-20.55932,-19.90584,-16.28414,-17.40207,-12.96279,-13.90041,-9.284316,-9.557097,-6.051352,-5.010357,-1.829201,-0.5562234,2.958161,3.074168,7.124051,9.763118,10.48398,14.28203,16.09227,19.91731,20.00985,25.44034,25.02634,28.82869,29.55115,34.20391,34.19281,38.77398,38.23375,42.64222,41.93969,45.1248,46.16605,48.30511,49.37378,52.38686,53.61602,55.19234,58.13623,57.81817,62.05051,61.56643,65.12402,63.01985,67.27811,65.33092,67.93253,65.2614,68.7588,64.95572,67.45932,64.08821,65.10427,62.05354,61.75675,58.94693,58.03378,54.30005,53.0416,49.39518,48.46267,43.82841,42.89829,38.13713,37.78491,32.31762,32.84049,27.25648,27.42507,23.38845,20.59951,19.40149,13.77264,12.66958,9.286523,6.299468,3.514285,0.4311705,-0.8617839,-5.442028,-6.722868,-9.893187,-11.48037,-15.54061,-16.41237,-19.67795,-20.17123,-23.44698,-23.68424,-26.60968,-26.45345,-29.35552,-27.88645,-32.11055,-29.1326,-33.08203,-30.00274,-34.57166,-29.80827,-33.30142,-31.45239,-31.60964,-31.73271,-30.27925,-30.35002,-28.9905,-28.32213,-27.67864,-26.21946,-25.71514,-23.46581,-23.47553,-20.92684,-33.69363,-19.84048,-31.39171,-19.68117,-16.41783,-16.42963,-10.09876,-9.847082,-5.904195,-3.846543,-3.414727,0.2477219,0.5232537,-0.1310425,3.412611,1.428759,3.638258,1.60246,2.911877,0.8297953,1.114171,-0.7362507,-1.454851,-4.40472,-3.608924,-9.305936,-7.014241,-13.93106,-9.900718,-17.29755,-14.55486,-18.45238,-17.40773,-20.92078,-20.59844,-23.4778,-24.5217,-24.447,-27.68433,-27.06479,-30.1422,-29.79621,-32.61037,-32.22591,-35.03789,-33.57682,-38.20491,-35.68495,-39.4824,-37.67786,-41.8187,-39.83692,-42.68851,-41.84742,-42.74636,-43.35921,-43.40144,-43.6401,-43.65318,-43.59459,-43.6975,-43.20954,-43.94678,-43.16833,-43.76206,-43.52872,-42.82033,-43.32334,-40.6762,-43.73546,-38.81398,-41.06856,-37.77492,-37.91857,-35.72368,-35.63434,-34.51715,-34.03771,-33.62835,-32.00083,-32.34871,-31.37269,-30.952,-29.27346,-30.02537,-28.28723,-29.20871,-26.7224,-29.55825,-26.47956,-29.73498,-27.98463,-29.48504,-28.03162,-30.16112,-27.29845,-31.31704,-27.33225,-31.26173,-28.28457,-30.69756,-28.86412,-31.38534,-28.752,-31.60533,-28.86594,-32.68485,-29.48744,-33.65468,-32.36312,-35.02209,-19.54357,-28.42886,-11.25009,-15.90723,-14.4434,-8.350551,-9.739817,-3.646942,-5.552807,1.087379,-0.8195149,5.655774,3.592694,11.89931,7.561429,15.99922,13.24405,19.90872,18.95691,22.87548,23.92483,26.78846,29.13923,30.78501,32.38213,34.49751,35.90863,38.58644,38.40287,42.89595,42.0814,45.22867,44.6125,46.97686,48.19432,47.52268,52.06864,48.98182,54.02531,50.87467,54.69883,52.20736,55.41902,53.23586,54.22007,51.61852,54.30292,51.16641,53.74506,51.24075,53.90588,51.89263,54.62855,52.97959,55.3233,52.11598,56.77647,53.70987,58.04419,55.21594,59.34817,57.857,61.09854,61.37749,63.61959,65.00011,66.38547,67.93803,69.74086,72.01274,73.60111,75.01802,77.70144,77.29253,80.63329,79.49942,82.03417,81.20477,84.14371,82.00178,85.27965,83.3411,85.7627,83.25477,85.05313,82.40576,82.58483,79.80153,80.47202,75.95551,77.47775,73.66717,73.4589,68.94971,70.1321,64.84457,65.36996,60.66927,60.70426,56.11232,55.28454,51.96502,51.34577,46.28365,46.22004,41.37299,40.84287,35.48694,34.68636,30.62309,29.06659,24.26797,24.80041,18.75009,20.5881,14.68307,16.50478,12.83856,13.07758,12.1727,10.37326,10.20669,9.083423,8.710482,6.986666,7.286076,5.370974,6.092346,3.181148,3.821132,-11.9296,1.441737,-14.26838,-2.992426,-13.66868,8.304217,-9.471711,10.48298,-2.246393,12.7449,2.149035,14.48087,6.167455,14.85122,7.962549,14.21128,9.609377,11.55875,8.68633,8.558656,5.492202,4.24634,0.688505,-1.342767,-5.387588,-6.467193,-10.16173,-12.46648,-15.97581,-18.37483,-22.60853,-24.55608,-29.0897,-31.54139,-35.19834,-39.39941,-38.85506,-46.75172,-44.60918,-51.94007,-49.33508,-57.11516,-55.44235,-61.4347,-61.09423,-66.24522,-65.95073,-70.32669,-70.83174,-73.44511,-74.13458,-76.90817,-77.24244,-79.95255,-80.03158,-81.81029,-82.89493,-84.19627,-83.05458,-85.248,-83.38074,-85.7901,-83.44216,-84.12912,-83.57726,-82.00587,-82.09159,-80.31145,-79.61122,-78.10531,-76.28646,-75.3866,-73.35421,-72.09187,-67.89376,-69.47425,-63.04158,-65.32313,-59.24003,-60.56799,-55.62902,-55.24318,-52.34614,-51.96671,-48.3149,-48.09431,-45.33234,-45.0971,-41.83914,-41.54294,-38.86287,-38.38487,-34.33112,-36.62187,-30.10496,-33.46895,-27.76943,-30.87993,-26.35657,-29.50825,-26.58429,-30.30044,-27.11164,-32.61243,-30.37502,-35.81642,-35.5995,-40.79528,-43.59038,-46.93814,-51.74092,-37.31163,-51.85504,-34.78429,-44.24408,-27.73083,-49.72311,-26.18116,-45.96705,-28.22136,-42.66529,-29.1954,-40.18598,-31.01852,-38.23035,-31.63859,-37.59422,-32.56838,-37.11276,-32.7364,-37.1049,-33.03675,-35.42043,-32.04765,-33.91618,-30.605,-32.7357,-31.06045,-32.26129,-31.95257,-32.18941,-33.1043,-33.18718,-35.52024,-33.7943,-38.43,-35.63217,-40.80037,-36.39596,-42.64767,-38.12415,-44.57022,-39.3677,-45.28658,-42.06535,-43.65478,-43.79479,-43.386,-43.97697,-42.13361,-43.94562,-39.90249,-41.97924,-39.32092,-38.7018,-36.70984,-36.3386,-33.222,-31.34405,-29.39492,-26.55966,-24.617,-21.2283,-18.93999,-15.46642,-12.63781,-10.26766,-6.259636,-2.957701,-0.08290364,5.074956,7.701815,12.47903,16.82211,20.19028,24.0334,30.79654,31.75835,39.78179,40.89385,47.89394,50.78923,56.64319,59.84091,65.3568,69.18649,73.57538,76.98427,81.54367,84.95378,88.40099,92.85674,94.90749,98.65111,101.3582,103.3888,106.3599,107.0949,110.9295,109.0985,113.7952,112.0446,114.8747,113.6611,114.9338,113.9618,114.5482,113.0066,112.9407,111.5516,109.5784,109.3659,105.7117,105.482,101.1855,100.0021,94.04267,95.46741,88.33508,89.96111,84.33178,85.13078,80.61736,80.65506,77.15013,64.77476,73.68689,60.63418,70.39204,71.05297,69.66334,75.31913,72.92455,77.03408,74.1398,78.44843,73.39208,77.17634,73.13364,73.59808,71.95862,69.56475,68.87083,65.55874,64.58563,60.177,60.08875,55.70273,54.17313,48.85015,49.17704,42.2088,43.19064,36.36667,36.08109,32.30011,28.77009,28.59548,23.40862,23.01282,18.43009,18.6616,12.12402,13.03504,7.307303,6.637728,1.551958,-0.1594583,-3.762792,-7.680108,-9.503215,-14.54329,-16.05357,-20.91176,-22.06906,-28.04307,-27.90923,-33.89497,-33.66772,-39.71079,-38.71149,-44.56954,-44.67145,-48.0209,-50.43783,-50.84675,-53.936,-53.90254,-56.59954,-57.22746,-59.54455,-58.00346,-61.33725,-58.53322,-62.04775,-58.43584,-61.77033,-57.85997,-59.5198,-56.07965,-57.41577,-53.37908,-54.3244,-50.26169,-51.84358,-46.06868,-48.29989,-42.27551,-43.32941,-38.38833,-37.38513,-34.04866,-33.08216,-28.39808,-28.74297,-23.7311,-24.5152,-19.76024,-20.65711,-17.98754,-18.25851,-16.24328,-18.09295,-15.50885,-18.92206,-16.24809,-18.78707,-15.77407,-18.73502,-16.8725,-18.54022,-18.64031,-20.71427,-21.15531,-24.31127,-24.58997,-13.18306,-20.65093,-7.542232,-12.5153,-12.79962,-8.862045,-11.62409,-8.059601,-10.96098,-7.050977,-11.28237,-6.975454,-11.51313,-8.080954,-10.65981,-10.80841,-11.44172,-11.72644,-13.46698,-12.61723,-14.99084,-15.12369,-16.47181,-16.4916,-16.85871,-18.31444,-16.34153,-19.1035,-15.82901,-19.04211,-16.10281,-17.98198,-16.48723,-17.65962,-16.49828,-17.67193,-16.89491,-16.62714,-17.72452,-16.43422,-17.81048,-16.55727,-16.08883,-17.49852,-14.79045,-18.52549,-13.9116,-17.32986,-14.1345,-16.38157,-13.99556,-14.96313,-13.79549,-13.93461,-13.0148,-13.15963,-12.2242,-11.23055,-11.87888,-9.784505,-11.65,-7.785479,-11.2754,-7.526712,-9.08717,-6.757722,-7.923567,-4.861384,-6.147204,-3.389603,-4.109906,-2.200742,-1.280549,-0.4826303,0.4195689,1.595568,1.72126,3.064748,3.81938,5.680132,5.490208,5.252532,-3.17761,6.496357,-3.087634,6.530714,12.31094,9.586645,17.4917,15.67058,21.52336,21.4904,23.69321,25.26764,25.42821,28.81515,26.94487,31.6375,27.48685,33.37198,28.41992,33.80997,29.33099,32.85943,29.59822,30.88527,28.12387,30.25717,27.55976,28.90645,27.45953,27.47584,26.20166,26.47622,25.8608,25.59517,25.05309,24.95619,23.60665,24.45497,21.9703,24.22591,21.01774,23.56868,20.24277,21.76467,20.3273,20.95256,18.98786,20.18387,18.70555,19.17476,19.28949,18.15424,19.30494,17.41948,19.27805,17.06244,18.66261,15.73423,18.50153,14.99905,16.78543,14.18995,15.35995,13.05928,14.13808,12.31452,12.03222,10.71635,11.53941,9.425336,10.05401,7.379237,8.429309,5.915056,7.112019,4.874987,5.49769,3.339949,3.526871,2.078713,1.014779,1.363076,-1.842094,-0.8467597,-2.919792,-3.787182,-5.550865,-5.18934,-8.166634,-6.880109,-10.80908,-9.45317,-12.31826,-12.09312,-13.98559,-14.18981,-16.44961,-18.02394,-18.27456,-21.47241,-20.87244,-24.72882,-25.43356,-27.9625,-30.35444,-32.21439,-34.96837,-38.37429,-41.12936,-44.40726,-42.90299,-35.49187,-39.32964,-29.99412,-31.57912,-37.50157,-28.15082,-36.62042,-29.75836,-35.66316,-32.65155,-34.75167,-35.12404,-34.12908,-36.94288,-35.8345,-38.27701,-37.02003,-41.04102,-37.89309,-43.40772,-38.91523,-44.97029,-39.79878,-45.67232,-40.07601,-45.3674,-40.11299,-43.56892,-40.468,-41.28539,-39.58746,-38.03403,-39.0659,-36.65234,-36.67385,-35.9636,-33.86202,-34.20895,-30.34031,-31.15362,-27.02102,-26.83692,-22.69781,-21.2793,-17.28945,-14.51325,-11.29005,-7.537055,-4.743114,-0.8059449,2.279555,6.030225,8.485119,11.30024,15.17987,16.26213,19.97558,21.3088,23.94922,25.20368,27.03645,27.72918,29.74033,30.47274,32.69917,33.17516,35.39066,36.94285,37.24875,39.32861,39.88001,41.23777,42.22708,41.91734,43.64758,41.313,43.81614,41.4415,42.45716,39.52462,40.84656,37.00488,38.35782,34.23559,33.93236,30.36227,30.78375,23.59899,25.30096,6.657019,19.33212,0.7501555,12.54796,8.432826,9.278808,8.678324,9.453573,8.82304,8.770981,8.614615,8.378584,7.472154,7.784649,5.959534,6.669109,5.014089,5.369276,4.37226,5.313122,3.677987,2.715208,2.133522,0.2078074,0.4361209,-2.059138,-2.794131,-3.79971,-5.302787,-7.426054,-9.304862,-9.123891,-12.93258,-10.74075,-15.54115,-13.95933,-17.03808,-17.0126,-18.72664,-18.52759,-20.87999,-20.52467,-24.09094,-22.68732,-26.39662,-23.96765,-27.6545,-24.66821,-28.27887,-26.24125,-28.55322,-28.46016,-28.37323,-30.59269,-28.77826,-31.38652,-28.8219,-30.04106,-27.90225,-27.26473,-25.64704,-24.48763,-21.61917,-21.45438,-16.93743,-18.18815,-13.28571,-15.23734,-9.213346,-11.40032,-5.406618,-7.889904,-2.122801,-4.787274,0.1650227,-0.8603746,2.105362,2.445985,5.358986,4.198874,7.646789,6.152283,11.42718,9.609314,14.51736,13.65288,16.76236,17.48431,18.86445,20.14711,20.21806,22.86227,20.41587,23.97762,21.46582,24.32916,22.29462,24.10595,22.06975,22.62741,20.7682,21.26033,18.03751,18.43718,13.85222,14.36504,9.016908,9.568024,3.369351,4.472968,-0.7466293,13.6239,1.984991,19.78968,10.88101,14.69804,16.00809,16.66843,19.03536,19.89584,21.53353,22.94262,23.6572,26.06007,26.05057,28.63612,28.65125,31.45049,30.31533,34.70161,32.5595,37.12262,36.26857,39.39363,38.70566,40.2454,39.8637,40.78129,39.80894,39.70192,42.10347,41.10552,43.04382,43.06136,44.54065,43.92548,44.66094,32.74256,44.79354,32.16037,42.59008,45.43663,44.45985,49.54839,50.32313,53.24291,53.56297,55.98867,55.0361,57.55771,55.51114,57.2513,55.31056,55.88068,53.80563,54.76797,51.94883,51.94201,49.35072,48.66948,45.29757,44.0693,39.99012,38.6417,34.96281,31.0537,28.6743,24.78745,21.80836,18.89075,15.15266,11.58455,8.446799,4.605644,1.837845,-1.926901,-5.36586,-7.455294,-12.99008,-14.07565,-19.2399,-21.41268,-25.38043,-28.81461,-32.18155,-36.0363,-39.85806,-42.44314,-47.6967,-49.45186,-53.89033,-55.78772,-59.95068,-61.37072,-63.68703,-67.31617,-67.32548,-72.0111,-70.82054,-75.49107,-73.77257,-78.04776,-75.75284,-79.74002,-76.90511,-79.86286,-78.77491,-78.91744,-78.8606,-77.97699,-77.34276,-77.49135,-75.23255,-74.81644,-72.33887,-70.85508,-68.56562,-65.9265,-61.75689,-61.16949,-54.82521,-56.27767,-50.68306,-50.30011,-48.36398,-46.66326,-44.87877,-44.03132,-43.08239,-39.91225,-41.89589,-38.23516,-41.34228,-38.55162,-41.88658,-40.43175,-43.68543,-42.85902,-44.10391,-45.11146,-44.58231,-47.42336,-46.93403,-50.98257,-50.3248,-55.74443,-54.32696,-59.1824,-42.67655,-54.09255,-35.35321,-42.30819,-39.18269,-35.93425,-34.24817,-32.71528,-30.52653,-29.98474,-26.05522,-23.37346,-20.5096,-16.96082,-14.2781,-9.243003,-6.890542,-0.8849454,0.8933382,7.51231,8.859176,15.61881,16.24156,23.25893,23.21126,29.18153,31.35419,35.27714,38.07239,40.68414,44.06023,45.9345,48.54063,49.85407,50.96577,53.11239,53.10088,55.73258,55.29336,58.72359,56.33952,60.89653,58.02446,61.89759,60.14994,62.2328,60.48061,61.80434,60.47761,60.83416,57.73743,58.98252,56.89564,55.59111,53.56896,50.1715,50.91008,44.94234,47.07519,39.14382,41.91571,34.40165,36.30372,29.86392,30.61707,24.04432,25.32734,19.27976,19.5846,15.947,14.41656,13.45592,9.882812,10.22547,8.331622,7.601908,7.32028,6.736061,7.577437,6.214062,7.581255,5.03995,8.285776,2.37467,8.669798,1.241676,8.662617,2.971368,9.32712,4.402526,9.503829,7.37043,8.28381,9.056387,9.448854,10.15237,9.938111,5.617481,5.196296,5.203429,4.107696,17.0017,5.760889,19.44461,8.747272,20.79039,12.35661,20.42351,14.30166,20.08936,14.33542,18.35703,12.79031,15.05911,11.02744,10.57926,7.882452,6.210771,3.868544,3.119917,1.555723,0.7611294,-1.332479,-2.004864,-3.782244,-4.307509,-5.763893,-7.026152,-8.184772,-10.17248,-11.85912,-13.7357,-15.84565,-17.84451,-20.62688,-21.55137,-23.88401,-26.39289,-28.69601,-30.80898,-33.47747,-35.74976,-38.06399,-39.92624,-42.51352,-42.39479,-45.24012,-43.81854,-46.41036,-44.87046,-47.10101,-45.06143,-46.08218,-41.55303,-45.55051,-40.68901,-43.03658,-39.9991,-40.58707,-39.78342,-38.77811,-37.73137,-36.94549,-36.49979,-35.87278,-33.41844,-33.06111,-31.44688,-29.39103,-29.48721,-24.90526,-26.03149,-20.93284,-21.07285,-17.48532,-16.34247,-13.20155,-11.0327,-9.714716,-5.500809,-5.510324,-0.8678618,-1.052734,2.777699,4.887643,5.224169,7.794912,8.194451,11.65455,10.42573,16.15923,14.30498,20.60856,18.47891,26.05336,22.80304,31.33674,26.4944,34.80141,31.26759,37.02128,35.1186,38.3376,38.28028,40.13889,38.53875,40.12692,38.40037,46.90109,47.05593,53.92046,56.74954,49.50547,61.19517,51.54631,62.19934,53.16884,61.585,54.73284,60.52795,53.40727,58.28069,52.0879,55.85236,50.34774,52.38434,47.59776,49.16896,44.32153,46.26702,40.51658,42.80518,36.75487,38.6237,32.25576,32.51056,28.13797,25.88971,23.75792,19.66933,17.57616,12.63621,11.22952,6.311678,4.564837,1.569593,-2.494311,-3.665277,-9.237809,-9.334789,-15.14898,-15.04786,-21.0906,-19.47946,-25.48833,-23.64167,-29.55968,-26.38903,-32.82423,-29.70741,-34.68223,-30.53616,-34.53084,-29.21946,-36.73654,-29.54394,-37.79409,-33.23054,-38.20869,-35.61119,-39.55947,-38.3449,-41.41228,-40.78902,-43.40182,-42.89495,-45.03628,-45.77279,-45.49924,-48.09229,-45.98508,-49.17508,-47.19109,-49.60741,-48.43652,-50.01259,-48.13981,-50.52362,-49.02673,-49.14147,-50.22152,-49.0303,-51.1484,-51.35981,-50.78389,-53.80128,-51.10306,-53.21551,-50.68552,-52.18914,-49.3088,-49.97923,-46.6678,-48.03378,-43.00183,-45.80008,-39.03854,-41.3099,-35.26401,-35.7772,-31.92175,-30.57724,-26.70268,-24.69564,-19.84984,-18.92466,-14.04562,-12.67498,-6.762312,-5.841124,0.2097502,0.789408,7.642944,7.245666,14.55865,14.96508,20.75894,21.67023,26.45192,27.85267,31.38806,33.92734,36.79176,39.58702,41.89714,44.35587,46.05676,48.5725,50.3122,51.9953,53.1306,54.80499,55.17468,57.16175,55.69188,57.86396,57.2128,57.2436,57.11312,55.61375,56.18016,52.97918,42.40994,50.07598,38.55121,46.0524,47.78062,44.05733,46.89296,44.85642,45.86793,43.9646,44.08739,42.51183,42.18417,40.37614,39.28636,38.3243,36.7459,36.25667,35.3972,34.98867,32.84622,32.35551,27.95457,27.88646,23.53337,23.34587,20.35101,17.50912,15.97904,12.12165,9.702344,6.514321,4.221087,1.651871,-0.6958728,-3.494177,-3.335832,-7.454429,