ConstAcc,0.5,0.2542,-35.82896,-35.12296,-34.28129,-33.31784,-32.24584,-31.07792,-29.82608,-28.50175,-27.11576,-25.67836,-24.19927,-22.68762,-21.15206,-19.60065,-18.041,-16.48018,-14.92479,-13.38095,-11.85432,-10.35011,-8.873082,-7.42758,-6.01753,-4.646456,-3.31749,-2.033389,-0.7965391,0.3910254,1.527613,2.611863,3.642732,4.619484,5.541674,6.409143,7.221999,7.980609,8.685585,9.337772,9.938239,10.48826,10.98931,11.44305,11.85132,12.21609,12.53953,12.8239,13.07162,13.28519,13.46724,13.62047,13.74767,13.85168,13.93541,14.00179,14.05379,14.0944,13.59438,14.26859,15.18183,13.55621,13.24792,12.74902,11.86712,11.67325,11.81661,12.87797,13.79013,14.71413,15.69053,16.61366,17.84563,18.93345,19.50805,20.3483,21.21479,21.99841,22.4623,22.93503,23.17757,23.28359,23.2014,23.21471,23.11406,23.15731,23.45254,23.41318,23.66698,24.05607,24.39891,24.71594,25.30094,26.03879,26.87827,27.66244,28.04238,28.52214,28.68531,29.02789,29.15047,29.16298,28.9307,28.35935,27.78653,26.90269,25.69824,24.41414,22.84338,21.12427,19.25615,17.15498,15.00913,12.85729,10.74443,8.591968,6.614139,4.84797,3.410135,1.960511,0.3223238,-1.852486,-4.398581,-6.955319,-9.936449,-13.33631,-17.14494,-21.1508,-25.23223,-29.46565,-33.51928,-37.4612,-41.26757,-45.04149,-48.51861,-51.89979,-55.12822,-58.03577,-60.61196,-62.83703,-64.90165,-67.04067,-68.86297,-70.34618,-71.6518,-72.92557,-73.93428,-74.54912,-74.57174,-74.22234,-73.32628,-72.19226,-70.61328,-68.66594,-66.85882,-65.00484,-63.10933,-61.21842,-59.39616,-57.39866,-55.13639,-52.75912,-50.21821,-47.7089,-44.74742,-41.83387,-38.74838,-35.38395,-31.61288,-27.78291,-23.77826,-19.88277,-15.56784,-11.08661,-6.847012,-3.041581,0.6199713,4.234066,7.500813,10.81789,13.99256,17.0545,19.83562,22.34875,24.68848,27.19626,29.45196,31.51361,33.53622,35.25643,36.93038,38.28372,39.49346,40.50054,41.59835,42.45795,43.64243,44.49224,45.54873,46.65083,47.30781,47.72663,47.81874,47.53792,47.0539,46.08416,44.58648,43.05702,41.42976,39.98644,38.21574,35.92623,33.21992,30.52833,27.96005,25.27022,22.27634,19.46495,16.88622,14.67076,12.87583,11.0965,9.730543,8.381404,7.524992,6.813598,6.522406,6.378353,6.36051,6.059748,5.05089,3.747682,2.367613,0.4800239,-1.603515,-3.813385,-6.142092,-8.485266,-10.25461,-11.69875,-12.84295,-14.08784,-15.30362,-16.38651,-17.37095,-18.17573,-19.21258,-20.34319,-21.40859,-22.15047,-22.71216,-23.22849,-23.09363,-22.67968,-22.28406,-22.10638,-21.76923,-21.6551,-21.34941,-21.24248,-20.95855,-20.84725,-20.54247,-20.64276,-21.25191,-21.88307,-22.23227,-22.49152,-22.42551,-21.35354,-19.82214,-18.23383,-16.42959,-14.66964,-12.72486,-10.70987,-8.385616,-6.271257,-4.216813,-1.647379,0.5950189,2.514559,4.440622,5.505563,6.445062,7.485643,8.341306,8.954926,9.400181,9.848312,10.17435,10.48897,10.91258,11.4502,12.27813,13.25466,13.94321,14.72067,15.1776,15.57019,16.10844,16.14026,15.96678,16.40846,17.26111,18.52028,20.00568,20.85988,21.66815,22.49294,23.05605,23.42131,23.5295,23.67081,23.64742,23.78727,23.90571,23.83141,23.84846,23.82835,23.74067,23.29526,23.16956,22.932,22.66054,22.23335,21.66366,21.11911,20.71027,20.34657,20.38445,20.16589,20.21394,20.43371,20.86748,21.18298,21.48575,21.87297,22.09135,21.65536,21.1271,20.87935,20.39842,19.88905,19.79383,20.22493,21.25012,22.93901,25.43456,27.81217,29.74793,30.58395,30.53353,29.95319,28.825,27.61544,26.45019,25.70484,25.57333,25.6372,25.40815,24.89374,23.98615,22.99929,22.05235,20.87983,19.4051,17.91106,16.17522,14.70577,13.01271,10.78722,8.529537,6.013763,3.969455,2.786463,2.072727,1.344601,0.7244898,0.3581163,-0.2024051,-1.340587,-1.766788,-2.202639,-1.937316,-0.8410119,0.6304933,1.595949,1.889835,2.193724,2.19612,2.667731,3.852407,4.407879,6.1186,8.33394,10.92498,13.79313,16.97952,20.33252,23.38655,26.49868,29.42135,31.90395,34.16682,36.58498,39.17931,41.63012,43.42693,45.41789,47.78542,50.8687,54.41374,58.01072,60.88082,63.46173,65.28016,66.49133,67.13791,67.54096,67.43115,66.95232,66.22401,64.97506,63.73752,62.98668,61.97475,60.6547,59.37306,58.34707,57.35121,55.84079,53.86973,51.67616,49.39608,46.78044,44.09947,41.19213,38.19384,35.38091,32.78769,30.08394,27.28359,24.27865,20.98461,18.15497,15.2539,12.42342,9.367156,6.495889,4.643034,2.884802,1.067516,-1.067643,-2.219082,-2.05118,-1.493667,-0.9594332,-0.8790976,-1.288739,-2.220366,-3.436518,-4.32951,-5.208406,-5.558494,-5.194482,-4.17743,-3.252941,-2.734335,-2.600321,-2.063956,-1.158564,-0.204754,0.6883999,1.535699,2.084955,2.222871,2.739075,2.350607,2.630191,2.47098,2.609242,3.18326,3.484026,3.629033,3.595308,3.092021,1.989797,0.5214216,-1.352219,-3.395058,-4.949152,-5.734341,-7.553542,-10.09935,-12.94313,-15.88715,-19.72427,-23.71333,-26.77861,-29.50459,-31.15547,-33.1305,-35.6365,-37.77387,-39.70505,-41.67582,-43.69201,-46.01327,-48.64867,-51.21502,-53.59496,-56.23012,-58.48177,-60.51247,-61.83519,-62.39433,-62.98805,-64.18972,-64.16273,-63.65852,-63.06698,-63.40148,-64.71443,-66.13558,-67.44141,-68.17072,-69.54572,-71.02455,-72.61373,-74.09756,-75.58931,-76.725,-78.47112,-79.30387,-79.51671,-79.04351,-78.0175,-77.50421,-76.80908,-76.21647,-75.98582,-75.71166,-75.0558,-74.51788,-74.38183,-73.68918,-73.02214,-71.93072,-71.17665,-70.82845,-70.24532,-69.72236,-69.44372,-69.27902,-69.40488,-69.58633,-68.95878,-68.33142,-68.28192,-68.2332,-68.16955,-68.0316,-67.32566,-65.8844,-64.11892,-62.55204,-61.22592,-60.2346,-59.3818,-59.01462,-58.33498,-57.50381,-57.09159,-56.06428,-54.99727,-53.89127,-52.99907,-52.786,-52.26052,-51.89537,-51.39898,-51.17581,-51.04912,-51.08684,-51.20087,-50.46548,-49.80823,-49.55231,-48.95442,-48.45964,-47.84531,-47.24353,-47.37137,-47.8673,-48.14368,-48.06925,-48.45106,-49.00744,-49.51552,-49.56784,-49.33393,-49.5404,-49.75619,-49.81973,-49.23833,-49.1529,-49.6842,-50.667,-51.80212,-52.92013,-53.07684,-53.97137,-54.77317,-55.89475,-56.50168,-57.58574,-58.16418,-59.31013,-60.78742,-61.77863,-62.81419,-63.32975,-63.18226,-62.68067,-62.03891,-61.06475,-60.36808,-60.0027,-58.65968,-58.00241,-57.32623,-56.54028,-55.98017,-55.32507,-54.15859,-52.95745,-52.22215,-51.62587,-51.16962,-50.67855,-49.67082,-47.88939,-46.46942,-43.95335,-41.49223,-38.74535,-36.75696,-35.34535,-33.67041,-31.94072,-30.11511,-28.44753,-26.91751,-25.48501,-24.11359,-22.04269,-20.35594,-18.75072,-18.63408,-17.95293,-16.73158,-15.42245,-14.82183,-13.82921,-12.73416,-10.79285,-9.534316,-8.724943,-8.435423,-6.958422,-5.027825,-3.481226,-1.936582,-1.566964,-0.8004912,-0.3582133,0.2049128,0.5898954,0.9930253,1.562277,2.07596,2.874177,3.310218,4.292649,4.533747,4.823516,4.287406,3.353757,2.588788,1.93658,2.494987,3.00087,3.698557,3.589624,3.660909,3.819482,3.228017,3.016479,3.050082,2.809128,2.858124,3.351788,3.695762,3.543282,4.40904,5.443847,6.110785,7.012605,8.195229,8.577287,9.668628,11.2742,12.81821,13.37606,12.95326,12.56598,12.52035,11.97662,12.19128,12.45791,12.7531,12.40851,11.98634,11.92193,11.78135,12.28933,13.13627,12.99808,13.4897,13.59787,13.73289,14.59481,14.85442,14.77687,14.1352,13.99202,14.15898,13.77361,12.60431,10.74484,9.697911,9.289288,8.758616,7.750998,6.812175,5.788571,4.669116,3.468622,2.506417,1.219843,1.13698,1.125956,0.84692,0.6052653,0.1444466,-0.6030555,-0.9347806,-1.415971,-1.675704,-2.259309,-2.729819,-3.268654,-3.146909,-2.193621,-2.484995,-2.390462,-2.312357,-1.708235,-1.561584,-0.8522794,-0.7741139,0.2692273,1.049979,2.118589,2.12703,2.77076,2.355326,3.454372,4.548114,5.712815,6.806283,7.45672,8.081138,8.675435,9.209555,10.24691,11.27618,12.65573,13.24603,14.05872,14.96509,16.74287,18.36555,19.67493,19.927,20.84037,21.33077,22.40643,23.1551,24.06643,25.00482,26.11733,26.89807,26.91134,26.5454,26.81938,26.82695,27.44108,27.67108,27.85074,28.98928,29.91363,29.97175,29.63697,30.48594,31.09427,30.97571,31.10253,30.18207,29.04957,29.01026,28.07914,27.80356,28.09168,27.89167,28.6012,29.01215,29.10674,29.22956,28.33478,27.70033,27.96167,28.8275,30.41711,31.79595,32.90639,33.53656,34.26288,34.92483,34.02544,33.39993,33.53103,33.91354,34.10293,34.20741,34.13355,34.50832,35.2428,35.29166,36.0483,37.30295,38.43906,39.32476,39.62756,39.95451,40.57027,41.1396,42.01897,42.35858,42.55833,43.66386,43.88834,44.2674,45.35662,45.27001,45.4572,45.50232,46.04399,46.83825,47.64622,48.65759,48.81989,49.39703,49.79137,48.67188,49.15266,48.87852,48.81679,48.3603,47.59083,46.77071,46.53664,45.80567,44.80521,43.75088,42.98414,41.36566,41.69868,40.78786,40.09007,39.33096,38.36243,37.82899,36.75982,34.69485,33.33355,31.98384,32.08295,32.08026,32.76209,33.62461,34.86749,35.71066,36.78557,37.03615,38.76065,39.99069,41.56417,43.23511,44.52154,46.16649,48.80421,50.31792,51.78451,53.26867,55.50402,57.11101,59.56848,61.94116,64.53037,65.65916,66.5995,66.99471,68.27187,69.36163,70.30567,70.32518,70.30041,70.08435,70.95215,71.79438,72.02081,73.87843,73.83022,72.32969,71.52113,70.84833,70.95963,70.85185,70.47838,70.80136,71.03109,71.41875,71.28183,71.13013,70.89553,70.94291,70.45642,70.02943,68.72089,67.09837,66.19402,65.50156,63.92164,62.86559,61.76711,61.41573,61.19294,60.82031,60.56985,59.815,58.67558,57.57112,56.97395,56.15237,55.8963,54.83564,54.18612,53.18497,52.55515,52.36987,52.46768,53.04182,53.74639,53.88024,55.01235,55.51122,57.43055,58.51746,59.99499,60.13004,59.84753,61.22413,62.25631,63.74424,64.5438,64.20209,64.61684,64.64933,63.99414,63.72318,63.25566,62.88314,62.64561,60.75003,58.14692,56.35303,54.65472,52.66867,50.94796,47.68012,44.4856,41.70461,38.47257,35.57888,33.19527,31.02486,29.7118,27.59649,24.99657,23.30233,21.23124,19.17368,17.33451,15.63003,15.59409,14.65061,13.47554,13.00158,11.35242,11.51583,12.12653,12.11831,12.76415,13.02198,12.83373,12.84303,13.81921,14.41598,14.67421,13.62042,13.99307,15.03782,16.90276,17.70918,18.21587,17.72113,17.10525,17.47034,16.9017,14.58966,13.19762,13.01466,13.10007,13.56171,14.63611,15.02736,16.19999,15.46096,15.73536,15.81993,15.00904,14.90333,14.99745,16.86305,17.29485,17.60509,17.44889,17.15398,15.06912,12.72478,11.79712,12.28325,12.48526,12.75932,11.89869,10.87839,10.36868,9.68804,7.723585,6.060182,3.605071,2.294314,1.012166,-0.6088741,-2.670295,-4.904377,-7.481832,-9.345508,-10.91305,-11.99913,-13.78818,-15.9757,-16.45498,-17.25527,-19.06621,-21.11215,-22.16791,-22.53213,-22.63757,-23.32114,-23.96407,-24.07931,-24.65186,-24.68553,-25.85505,-27.465,-27.4323,-27.46942,-27.28395,-27.52985,-28.48957,-29.18538,-29.40645,-29.91018,-29.56495,-29.60603,-29.91292,-29.46877,-28.81425,-29.50362,-29.02,-28.39372,-27.8155,-27.65563,-27.80484,-27.87034,-27.30317,-27.12422,-26.3249,-25.73758,-25.73225,-26.16754,-25.36829,-24.50171,-23.61453,-23.70466,-23.46914,-22.26808,-21.71677,-20.20693,-19.83676,-20.20136,-19.91577,-19.67274,-19.42936,-18.56145,-17.42599,-17.32389,-16.56339,-16.34457,-15.48433,-14.74403,-14.26956,-14.0673,-14.36696,-15.2027,-16.28545,-16.453,-16.71854,-16.39959,-15.22206,-15.60023,-15.32129,-15.74899,-16.08646,-17.11459,-16.96365,-17.76822,-17.80456,-18.27551,-18.67754,-18.80545,-18.77312,-18.27707,-19.95859,-20.97946,-22.00257,-22.492,-22.4346,-21.74038,-20.29929,-18.90046,-18.6776,-18.39994,-18.68672,-18.26203,-17.82454,-17.1162,-16.39006,-15.55888,-15.82624,-15.51514,-14.73433,-14.76163,-13.73405,-13.60121,-14.65163,-14.113,-13.57076,-13.09466,-13.45026,-13.30806,-12.94679,-13.84241,-13.94908,-15.36974,-15.36578,-15.01697,-16.15145,-16.79296,-17.87455,-19.49333,-20.15786,-20.4111,-21.64438,-23.9915,-24.52892,-25.85746,-27.22761,-28.97759,-31.15794,-33.03829,-34.07927,-35.43623,-37.66475,-40.07844,-42.12541,-43.43878,-43.69468,-46.47705,-48.57844,-50.30603,-52.22407,-53.76063,-56.01494,-57.33419,-58.76942,-60.48902,-61.61833,-63.07321,-64.45448,-67.00035,-67.19787,-68.25148,-67.83154,-69.00105,-69.7892,-70.58295,-70.85063,-71.18815,-71.72932,-73.0943,-72.97097,-73.03713,-72.54736,-72.42187,-72.57463,-73.02739,-72.20787,-71.46726,-70.75267,-70.38392,-69.2255,-68.15796,-67.9062,-67.64923,-66.79304,-64.55043,-63.30141,-62.11283,-61.76251,-60.97211,-58.8907,-55.50068,-54.12986,-53.14736,-52.64902,-52.48462,-51.71253,-51.09167,-51.39203,-51.80113,-52.57895,-52.6653,-52.99172,-52.69046,-53.19029,-53.21452,-53.04862,-53.75533,-54.55535,-54.77269,-55.17249,-55.49426,-54.38578,-54.22129,-54.49629,-54.22585,-54.05647,-53.10985,-53.13343,-52.94762,-51.66188,-50.54996,-49.15014,-49.64395,-48.38694,-47.05095,-44.61508,-42.99087,-42.22349,-41.18766,-39.85855,-38.05373,-36.00331,-34.80151,-31.44567,-29.54615,-27.43459,-24.87363,-23.00259,-20.8965,-18.34565,-15.82695,-12.95589,-10.82469,-7.779067,-5.102493,-2.04584,0.2165488,2.71357,5.62096,8.863559,11.79414,14.86156,17.39589,18.52091,21.8976,24.99046,26.81852,28.93325,30.51676,31.99939,34.75554,36.52604,39.47213,40.5289,41.68346,43.93108,45.60115,46.53587,46.63441,48.42093,49.64772,51.40585,51.50894,51.23788,51.36626,52.50811,52.64358,51.85715,50.86929,51.67616,52.27457,51.97704,50.44255,49.32872,48.23648,48.70236,48.54837,47.45929,46.21719,45.91853,45.91649,45.73027,45.5295,45.2808,44.42021,43.76178,43.94977,44.55071,45.17706,45.20623,45.01196,43.98003,43.32788,42.02621,41.23432,40.65149,40.26579,40.28327,38.93179,36.92993,36.8748,36.21169,35.07284,33.9433,33.29569,32.20139,31.27493,30.85787,30.3072,28.7727,28.42839,28.7299,27.08597,26.23574,25.11431,24.67744,24.23089,23.00188,22.46427,21.66951,20.45574,19.03693,18.55056,18.27828,16.38231,16.17793,15.14987,14.56545,13.51974,12.02923,10.62222,10.21148,9.727265,8.030817,6.465695,4.336628,3.18794,3.267652,2.596993,0.8951148,0.2444671,0.5592949,0.302649,0.8596571,-0.4873035,-0.9895379,-2.040124,-1.536434,-2.728463,-3.000192,-3.407543,-4.346417,-4.273858,-4.707944,-4.035355,-5.442046,-7.811845,-9.910805,-11.45745,-12.60036,-14.55354,-16.46951,-18.33274,-21.45474,-23.90368,-26.89156,-28.11296,-30.51454,-33.04067,-35.12727,-36.71168,-38.88172,-40.74757,-42.51521,-45.56739,-46.32517,-47.57312,-48.77732,-49.75499,-51.5615,-52.78395,-54.99998,-55.88901,-56.10804,-56.32728,-56.15755,-57.43017,-57.86462,-57.79953,-57.9812,-57.30979,-57.28113,-56.2715,-55.93319,-56.18857,-55.17985,-53.69339,-52.18757,-51.68687,-51.44727,-50.29726,-48.45693,-46.76447,-45.9076,-44.39696,-42.90988,-40.57534,-37.45088,-35.48107,-34.17135,-32.2062,-30.186,-28.49998,-26.48787,-24.71165,-23.70017,-22.0642,-20.0612,-18.19934,-17.45181,-16.05603,-14.55802,-12.56034,-10.81433,-10.17198,-9.452534,-8.081961,-5.791316,-4.92709,-4.806106,-3.82094,-2.524553,-1.479117,-0.7943564,-0.5899899,0.2703749,0.4282176,0.1577406,0.9126024,1.125834,1.467761,2.275757,1.998668,1.344883,1.192549,2.013664,3.936346,5.097403,5.2078,5.772736,6.720682,7.80944,9.150841,10.17637,9.922165,11.45011,12.85035,15.52799,17.10642,18.99663,20.54261,22.87833,26.63023,27.85023,28.64147,29.28225,30.14328,32.70184,34.17775,34.92481,35.74183,37.59518,38.6401,38.89231,39.4053,40.31095,43.08501,43.82762,44.16777,44.35319,44.84975,44.92184,46.07847,46.78739,46.46935,47.89511,47.91034,48.00349,47.93889,46.82819,47.14099,47.10495,47.49046,47.52233,46.10773,43.41287,43.58461,44.06975,43.95612,43.28291,43.1558,43.37602,44.3438,43.15742,42.21804,42.13946,42.23056,42.69592,42.66138,42.38515,41.96606,42.81566,42.90718,42.7877,43.12256,43.19649,44.2637,44.71797,42.6059,40.78063,40.55612,41.16203,41.1838,40.31449,38.48952,35.8029,35.14298,35.32949,34.09343,31.1924,30.43038,30.9026,30.36292,28.17394,25.78993,24.51175,23.36963,23.24456,21.45265,19.20803,18.57715,17.91793,17.09812,14.27489,12.82169,11.79564,10.68308,9.417626,8.372576,5.385562,2.97445,0.4399801,-2.187453,-3.991019,-5.679678,-7.073258,-8.806009,-10.26243,-11.76636,-14.08052,-15.98136,-17.21429,-17.51266,-18.62147,-20.34624,-22.09457,-23.11861,-23.74938,-26.16348,-29.36463,-30.41387,-29.31946,-28.47545,-30.03871,-31.49434,-31.85754,-31.97417,-30.42011,-30.53666,-30.41917,-31.13125,-30.94916,-30.26332,-30.61372,-30.53775,-30.72956,-30.11358,-30.15187,-30.34682,-30.88678,-31.72333,-31.97854,-31.08463,-30.90037,-32.44602,-32.93236,-32.34849,-30.99446,-32.59029,-33.54173,-33.30182,-34.54551,-34.73339,-34.77143,-35.6084,-36.02339,-34.72595,-34.85508,-34.26313,-35.09571,-35.10843,-35.2176,-34.77888,-34.89667,-34.78591,-35.17994,-33.94157,-32.44455,-31.92401,-31.99785,-31.58499,-30.55686,-30.11269,-28.928,-28.69896,-28.21906,-27.54282,-27.41131,-25.67764,-24.39755,-23.65917,-22.01465,-21.32508,-21.27667,-20.68614,-19.48325,-17.63554,-15.85177,-14.88841,-14.20274,-12.54752,-11.18587,-10.20504,-9.288341,-7.540333,-5.818873,-4.555562,-1.81257,0.05503073,1.64636,3.253863,4.36057,5.623808,6.951869,8.745703,9.694027,9.817272,10.49001,11.85388,13.16103,12.39714,13.00861,13.77005,16.02426,17.19928,18.00286,19.31494,19.53957,21.07621,20.83223,21.66318,22.19421,22.81109,23.36348,22.59768,21.42539,20.81934,20.99888,20.99874,20.94298,22.15156,22.90751,23.16665,23.03906,23.61715,24.55241,24.31143,25.66506,25.5648,25.66692,25.23188,25.05906,26.2867,25.75055,25.71308,26.05712,26.70471,26.18866,26.35456,25.23794,25.60272,26.68313,27.35874,27.22457,27.53664,28.56717,27.90367,28.18275,27.22742,27.79856,26.95077,26.25283,28.53038,29.40861,29.59181,30.07829,30.1603,31.3505,31.72394,31.04669,32.32015,33.194,33.86582,34.93276,36.08524,36.24852,36.83731,36.99123,37.66156,37.84764,38.01643,37.95717,38.41941,38.40491,39.19753,38.71697,39.21528,39.06463,39.15409,38.75709,38.33156,37.80946,37.1955,36.35382,35.27594,34.31619,31.9765,31.41514,30.32469,28.40924,26.45148,24.94223,23.21546,20.91393,18.85789,17.01885,14.82313,12.97521,10.91138,8.091774,5.52542,1.988121,-0.6395324,-3.198213,-5.351039,-6.919172,-9.522623,-11.49911,-14.32478,-17.27105,-19.88709,-22.61626,-25.61279,-26.17756,-28.75796,-31.94045,-34.50495,-37.61511,-38.55353,-40.46662,-42.09389,-44.33353,-46.25817,-47.75704,-50.13495,-51.02549,-52.32194,-53.43764,-56.05373,-56.63154,-57.9042,-59.02519,-58.8445,-59.30254,-60.44866,-61.23978,-61.7835,-61.92425,-62.7435,-63.42337,-62.3075,-62.61176,-61.81022,-61.38317,-60.0349,-58.92342,-58.4063,-58.74172,-57.13605,-56.26687,-56.11995,-55.93692,-57.14674,-56.1503,-55.8991,-57.32698,-58.36835,-57.73845,-57.83163,-58.90175,-58.45195,-57.73397,-56.73655,-56.70491,-55.93976,-55.68946,-56.23265,-54.10141,-53.96692,-53.41922,-51.87728,-50.38017,-49.16406,-46.4447,-45.65278,-45.14064,-44.76494,-42.41097,-39.81888,-38.1934,-36.92926,-35.19394,-34.13928,-32.77763,-30.00445,-27.95463,-25.64495,-23.90812,-21.29436,-17.58075,-15.96947,-13.18734,-9.720734,-6.029848,-2.705557,1.134343,3.126393,7.405983,11.73623,14.7226,17.30477,19.50708,23.11068,26.23524,27.73595,29.67145,30.8831,33.74772,35.7766,38.8046,40.38681,41.95559,46.24246,48.40935,51.93716,52.47008,53.19968,54.52521,55.17942,56.76897,56.95019,56.42843,57.43016,57.30586,54.93992,54.64248,55.03379,54.23778,54.38163,54.2648,53.35644,52.07806,50.66202,49.76239,48.53444,48.02488,45.56863,43.00919,41.36478,40.94343,37.80098,35.29128,34.11175,31.92997,30.41968,28.09911,25.90384,23.88221,23.1154,21.95514,22.30406,19.37172,18.58326,17.58062,17.27942,16.05459,14.54258,12.71228,12.24393,11.76043,10.38811,9.947949,7.630136,8.879543,7.244111,6.047298,5.860703,5.568119,4.474419,3.999207,4.364547,3.136062,2.644254,2.822014,2.763289,2.743835,2.375513,3.157934,2.429397,3.805351,5.053748,5.034765,4.326553,3.863312,3.671124,3.555073,3.601167,3.299817,3.1164,2.777105,2.017374,1.475372,0.5269557,0.00139094,1.241883,0.99726,-0.6374315,-0.6529685,-1.021967,-0.5680249,-0.9579865,-1.39999,-0.7439384,-0.8316867,-1.480853,-1.966341,-2.653813,-1.936995,-1.780332,-4.140229,-4.332778,-5.562599,-5.017772,-7.237713,-8.483248,-7.82926,-7.472523,-6.721297,-8.740273,-7.670447,-8.142668,-8.703784,-9.21454,-10.81109,-10.45415,-11.66526,-12.599,-13.62841,-15.06121,-16.0735,-16.69578,-17.40939,-19.48345,-20.64588,-20.87591,-19.85897,-20.90683,-22.18919,-22.5937,-22.25847,-23.10232,-24.76005,-25.37114,-25.8524,-26.71544,-26.6103,-27.94783,-30.01391,-30.47331,-31.29773,-32.58454,-32.50934,-32.62045,-34.10104,-34.13063,-35.79156,-36.14028,-36.78834,-38.49919,-38.77486,-38.17726,-39.97763,-40.34136,-41.37591,-41.29278,-41.83551,-42.76336,-43.8137,-44.50043,-45.56895,-45.87185,-46.80709,-40.45666,-38.36374,-41.19117,-42.34317,-43.43566,-44.87595,-46.95592,-49.65687,-52.10334,-55.41596,-58.57959,-66.69746,-74.13006,-77.27207,-79.41395,-81.36132,-82.8471,-83.44052,-83.32799,-83.86698,-82.75666,-80.52495,-78.27491,-75.58893,-72.6641,-70.35102,-65.68731,-61.97631,-57.80582,-53.96998,-49.9942,-46.27167,-40.49836,-36.19783,-31.95741,-26.4391,-22.23971,-17.28451,-12.1721,-7.109456,-1.214213,10.30603,16.37877,21.26518,25.79342,29.82695,33.02758,35.88477,39.9657,41.58193,43.47087,43.97038,45.85238,46.77349,47.62367,47.23366,46.07202,47.68958,46.58164,46.15779,46.65991,45.46148,37.11062,36.22245,35.75614,35.5945,34.94948,35.06807,36.57457,37.03407,37.99974,40.22592,41.99681,44.38973,45.56125,46.47746,48.76113,51.97273,55.11129,59.16028,61.53241,64.04127,67.44612,72.10588,75.27292,76.98145,81.00149,83.94959,87.20509,91.56141,92.63843,95.26895,98.45979,100.9675,104.5644,106.29,108.6291,112.671,115.0267,117.2451,119.6042,121.0327,123.3144,126.4846,128.2846,130.1229,132.7514,135.4398,139.3162,142.6279,146.192,139.3455,135.8674,134.707,132.4146,126.725,119.4546,112.7195,105.9958,96.14573,86.122,74.98294,69.10008,65.0605,58.17697,49.51969,42.51459,35.10312,27.86861,19.96573,13.77581,6.679771,-1.096665,-7.563147,-14.43942,-20.03576,-26.45125,-32.68289,-37.39836,-42.17412,-46.11218,-50.78765,-52.19104,-54.72185,-56.05246,-56.15973,-56.24986,-55.17144,-51.37635,-48.46185,-44.55716,-38.84447,-41.97559,-38.86667,-36.45867,-33.0845,-30.43418,-27.49577,-24.43964,-21.85757,-19.29919,-16.72493,-14.34441,-10.7335,-9.444902,-7.92754,-6.785442,-5.941475,-5.796304,-6.544879,-7.285594,-10.66712,-14.19109,-7.702926,-7.304435,-7.737364,-8.462769,-8.424275,-7.48811,-8.136584,-7.905458,-8.652323,-9.221214,-10.36983,-11.02022,-10.06616,-9.904997,-10.28356,-11.01701,-9.9719,-11.47374,-11.59676,-11.60178,-11.73335,-12.85832,-14.05187,-13.71622,-14.97939,-14.62484,-14.20525,-15.13733,-14.6191,-15.74737,-15.71176,-15.8004,-16.93806,-16.6948,-16.33091,-17.12156,-17.41458,-17.95877,-18.4159,-19.05973,-19.59144,-19.89609,-20.08606,-19.89719,-20.8019,-20.60025,-20.33156,-21.02138,-22.69815,-22.41455,-21.85276,-22.50667,-23.23315,-23.28986,-23.34627,-24.10318,-24.06359,-24.20617,-24.7801,-25.03395,-25.70991,-25.35197,-25.30677,-25.80079,-26.16641,-25.73416,-25.4046,-26.13311,-26.84902,-26.98254,-27.48897,-27.24049,-27.54077,-28.74968,-29.05258,-29.27277,-28.76567,-29.94747,-29.37956,-29.9288,-31.26856,-31.28667,-30.88405,-31.78142,-32.9903,-32.59104,-33.32079,-32.47205,-33.39082,-34.47665,-33.68541,-34.9632,-35.28831,-35.24867,-36.25753,-37.0354,-36.79136,-36.78829,-37.19687,-36.87047,-37.02537,-38.75093,-37.34156,-37.48202,-38.8795,-38.40696,-38.871,-37.26243,-38.9089,-39.5487,-39.20168,-38.92754,-38.57716,-38.62121,-38.78474,-38.87221,-38.80779,-37.7711,-37.82802,-38.26405,-37.35902,-37.3713,-36.51827,-37.56105,-36.95544,-36.73185,-35.30596,-36.33682,-36.43465,-36.65055,-36.66657,-35.71907,-35.59776,-34.91631,-35.6644,-35.03262,-35.45305,-35.50573,-35.55143,-36.12634,-35.07553,-34.09346,-33.99287,-33.91176,-33.70543,-34.76108,-26.13164,-25.87552,-27.02066,-28.46946,-28.22782,-28.81417,-30.39288,-32.01084,-34.74806,-37.7261,-39.95511,-41.544,-45.46447,-47.79875,-51.29034,-53.89056,-55.70891,-58.36311,-61.16225,-62.91881,-68.33498,-74.63506,-74.80662,-75.02516,-75.58679,-74.1242,-73.14705,-70.99713,-68.09896,-65.20679,-61.50021,-57.04471,-51.77073,-41.74945,-32.80598,-26.77103,-21.50459,-14.6737,-8.6863,-3.046913,2.813579,7.935291,13.99062,17.56647,22.68998,27.00508,31.42874,35.66523,40.2053,36.08895,39.60259,44.57112,47.33603,51.86549,55.61534,59.57388,65.14189,70.35899,75.19421,80.62862,85.63939,91.26657,96.53531,101.3966,105.7346,111.4086,115.4335,127.6693,130.5889,133.7199,137.0443,139.0159,139.3885,140.2148,140.3055,139.1466,138.1433,135.9895,132.6187,128.2919,120.3145,110.1293,106.1697,101.0423,96.23539,90.14221,86.76261,80.84896,77.61598,73.70315,69.62131,66.13028,63.50431,60.74826,59.27975,55.76823,53.42559,52.6422,50.94578,49.60907,48.45706,48.46132,49.9349,51.09037,52.36247,53.80652,55.42001,59.56047,62.50217,66.75318,71.77356,67.29312,68.8922,69.93272,79.76257,79.79323,78.69912,78.25629,77.93532,75.64818,74.01596,70.06944,65.79462,52.0403,45.98207,41.12348,34.73311,26.47729,19.38589,11.69989,2.669107,0.3061268,-0.3547521,-4.029985,-7.446031,-9.9528,-10.48104,-8.718635,-9.191128,-7.502123,-4.155308,-0.1490308,4.126487,10.33401,9.963142,8.388794,11.06073,12.91717,13.53259,14.00941,14.00309,14.09518,12.3875,9.529945,6.58841,3.825563,1.208692,-1.62518,-5.699729,-12.03915,-6.298523,-7.58301,-9.861539,-10.65327,-11.15317,-10.6704,-10.92791,-10.6643,-9.301216,-8.848004,-10.11898,-7.297688,-5.517119,-1.678747,1.011002,4.402628,7.718787,14.99765,9.92338,10.2187,11.19314,10.31871,9.91606,8.346223,5.561033,1.778978,-2.313693,-7.475931,-14.23465,-21.31895,-29.23369,-32.84461,-32.27584,-38.22768,-43.61282,-48.04262,-51.94351,-55.72535,-58.67523,-63.03829,-67.83312,-71.47143,-73.93812,-77.6713,-81.9752,-86.57762,-87.55913,-90.03899,-93.18603,-95.90734,-97.04305,-97.93515,-98.0762,-99.91545,-99.56412,-99.00759,-97.60899,-95.1273,-93.70403,-90.75238,-87.3864,-83.2542,-77.58442,-73.43743,-66.80309,-70.57258,-68.96043,-66.21061,-64.36905,-64.6586,-65.32485,-67.45661,-68.39902,-64.17026,-56.34561,-57.12615,-57.24954,-57.67265,-56.83608,-57.75805,-60.23483,-60.92148,-62.63916,-63.7164,-65.52474,-66.9222,-67.32011,-68.47369,-70.69337,-70.82195,-72.01395,-73.3089,-73.61096,-73.66128,-75.03984,-75.82124,-75.72607,-75.70848,-75.54344,-76.01893,-75.27671,-75.43451,-73.55933,-70.99951,-68.57532,-64.86804,-61.9554,-63.56871,-62.27328,-57.19685,-53.46656,-49.63255,-42.92715,-37.15882,-26.69337,-15.04042,-8.051638,0.7409021,9.029494,16.40316,23.93309,33.51142,42.42631,51.36175,57.02535,64.52649,72.75943,80.13764,86.21157,92.96885,98.26607,104.6009,110.5592,116.2869,119.7725,114.8214,118.7153,125.0272,128.6785,132.9892,135.8123,140.9165,145.8494,150.0496,155.2111,158.8726,163.7296,167.45,171.416,174.6267,176.6816,179.5154,182.7422,183.1469,184.3975,185.5593,184.9316,183.3604,182.6567,180.516,177.8325,175.0017,170.5593,167.1216,164.0093,157.2573,151.7981,146.6142,140.3018,133.3314,127.755,120.6787,114.0247,107.1682,101.4365,94.91765,87.97759,81.9517,77.72377,72.58547,67.06731,63.61109,60.12185,57.84417,45.73806,39.27972,33.69976,27.02111,21.13998,14.86407,6.911105,0.8817186,-4.672725,-10.55176,-17.00591,-23.99306,-29.82438,-35.94346,-41.1252,-47.06053,-54.09758,-58.32941,-63.89167,-69.50209,-74.96756,-80.13151,-86.68269,-91.16281,-97.02343,-101.7469,-106.5085,-112.7128,-116.6254,-122.8035,-127.7955,-132.5392,-139.6401,-143.9563,-142.5087,-141.3263,-143.3657,-140.5662,-137.9929,-135.2052,-129.4242,-128.5426,-130.107,-127.9272,-125.1121,-123.2011,-122.3756,-118.7097,-114.9444,-114.4148,-112.0212,-107.0941,-101.6174,-101.9394,-101.8419,-102.6069,-106.0938,-108.6362,-113.8479,-120.392,-128.0834,-135.9583,-133.646,-137.4951,-143.4452,-147.3081,-151.3054,-153.9642,-159.0848,-161.3009,-163.8945,-167.026,-169.1089,-170.8594,-172.3791,-174.0152,-173.0899,-173.24,-173.5158,-172.7119,-171.5819,-171.2663,-169.3904,-176.4384,-172.3612,-168.308,-163.8733,-158.4057,-152.8431,-144.8133,-136.5836,-127.5337,-115.0398,-99.4808,-90.0935,-80.323,-69.54653,-58.68378,-50.72183,-41.07392,-33.5013,-24.64695,-17.26623,-10.23654,-2.769237,3.800229,9.573311,14.15169,19.61512,25.99637,31.1419,36.23585,39.50244,44.11281,49.08609,53.13888,56.16722,60.01069,63.21705,66.38075,68.22488,71.64501,73.23941,75.02935,77.00449,76.81921,78.85537,80.0624,79.8715,79.72848,80.05687,79.04788,69.16828,68.98915,68.6894,67.33355,65.0769,63.54044,63.70464,62.70348,72.45262,70.88983,69.12995,70.35835,70.37475,69.23455,68.62766,67.85457,66.30572,65.7543,65.25501,64.1987,63.68281,63.57909,64.78298,64.67228,66.52461,70.26117,71.04623,72.67353,77.44533,80.71479,81.82954,78.81418,80.16818,82.35699,82.23449,82.52474,82.20316,82.77796,83.71662,83.51287,83.12261,82.56556,81.54412,82.14316,81.3487,80.00915,78.23883,78.2491,67.90209,65.6392,64.09183,61.76218,57.46809,55.43493,53.62809,50.42398,46.62143,44.00151,41.60392,46.60171,42.23495,37.67623,46.6868,48.00536,49.18512,51.37107,53.54855,55.94495,60.73459,65.08432,68.37513,69.23198,66.27552,66.89066,67.85723,67.86537,65.25608,64.98339,64.4627,63.74718,61.80735,59.42742,58.39233,51.36233,46.69916,44.71622,44.43429,40.90671,40.58267,39.79451,38.25558,38.69716,38.30187,38.36759,37.92325,38.38089,37.7209,37.69929,36.76854,36.58848,35.26954,34.20719,32.81904,29.86436,29.56835,25.01468,22.08471,17.61165,13.13952,7.283914,2.408085,5.627062,4.096626,1.543465,-0.1058894,1.883016,2.1832,2.003193,4.850575,-2.95644,-4.28105,-5.532242,-8.650959,-11.43647,-13.24617,-15.87173,-19.01969,-22.66616,-25.51019,-28.62393,-32.5557,-35.75382,-40.11441,-44.55442,-46.38284,-50.78472,-55.45862,-49.34961,-55.21412,-58.71569,-63.46603,-68.45171,-73.37697,-78.95552,-85.83825,-92.87866,-100.0767,-107.4392,-116.4973,-124.1505,-133.1869,-142.3821,-151.0485,-159.3793,-168.5878,-178.1697,-187.1898,-196.1324,-206.5279,-204.5147,-209.4742,-213.6898,-215.452,-215.0231,-214.0312,-210.6844,-207.5967,-202.0408,-195.4735,-186.8588,-188.478,-180.3206,-174.0951,-166.9182,-158.7119,-151.1658,-143.5498,-142.4798,-132.4068,-122.1417,-113.0075,-103.0281,-91.82053,-82.04625,-69.04808,-48.32492,-38.23624,-27.59524,-14.95117,-4.897218,4.244715,12.31943,20.06513,25.00708,36.92133,46.29854,54.47045,60.58582,69.77799,76.31374,82.42115,88.66101,94.24117,100.0837,104.7723,109.0762,114.089,117.3783,121.0353,124.0957,127.7117,129.3689,131.477,132.9156,134.4654,135.6663,136.6729,136.6028,135.0998,125.0293,126.285,124.5857,124.1977,122.2361,121.2059,121.6354,120.2739,120.9913,121.8233,122.3934,122.5918,122.83,123.7268,126.0481,126.9353,128.2911,129.0905,131.1588,134.0445,135.3818,137.6169,142.463,144.2375,149.3151,154.6506,158.433,163.6401,169.7184,163.6176,167.3855,169.1534,169.9293,169.9468,170.5284,170.1982,169.0291,168.6767,167.5235,166.0756,165.1745,162.522,160.7057,158.2954,154.9556,152.8149,148.3937,144.9677,139.4152,133.1191,128.6783,122.1576,116.8206,108.8072,100.5145,93.45386,85.85862,76.60758,66.8841,56.42593,46.35163,35.53907,26.08473,13.75253,4.596027,-7.670332,-19.02051,-31.14021,-41.48857,-43.28604,-50.31734,-57.51352,-61.95644,-65.89389,-68.63929,-70.13692,-71.75676,-82.79866,-84.8935,-87.91202,-90.55583,-92.51378,-93.28666,-94.86264,-95.47026,-94.75517,-94.5295,-93.18731,-93.45972,-92.30535,-90.89833,-88.71804,-86.95956,-84.80008,-84.58436,-84.05604,-80.38927,-77.86551,-77.24284,-74.06444,-72.06736,-68.53135,-67.1634,-65.2075,-63.05063,-63.66499,-61.56081,-63.83292,-65.11303,-67.63792,-70.97126,-62.18574,-62.07855,-62.4474,-63.11125,-62.29135,-62.76418,-61.88754,-61.01399,-61.65572,-60.46403,-59.442,-57.28069,-57.33965,-55.84943,-55.84262,-55.26979,-54.92661,-53.62573,-53.62542,-54.98441,-53.36471,-53.3167,-54.27173,-53.91643,-56.01612,-56.03549,-56.74686,-57.39335,-59.20819,-58.3759,-59.35629,-59.97322,-58.67513,-60.82598,-59.61513,-59.51977,-58.61077,-58.14489,-58.10393,-56.47886,-55.36334,-54.53614,-54.1678,-52.81386,-51.92143,-50.27729,-50.14318,-49.12926,-48.51653,-46.65551,-46.88187,-45.64525,-46.01916,-44.74958,-44.17677,-43.15602,-42.50914,-42.89823,-42.06351,-40.23164,-37.33605,-36.86252,-35.15224,-33.27271,-33.22714,-30.20558,-29.10992,-26.83286,-27.2716,-26.15974,-24.75926,-24.23433,-23.45037,-22.84637,-23.20554,-21.97024,-19.62523,-18.76963,-17.97803,-14.77087,-14.00107,-12.10335,-11.00247,-9.537209,-8.93322,-8.223694,-6.75276,-6.427493,-6.173573,-5.835113,-4.443524,-5.231506,-4.642752,-6.452611,-4.559111,-2.427778,-2.026997,-0.3579878,1.063779,1.347184,2.743788,3.951193,5.219561,5.706529,5.90457,7.417775,6.957626,9.353817,7.54719,5.95175,7.843554,7.350937,6.642289,5.818388,5.82369,5.744997,6.914924,8.017424,7.743514,8.932459,9.607241,12.06499,11.21138,12.37695,13.5287,14.58681,16.40635,16.79393,16.67109,16.48344,18.81085,18.13581,19.65649,18.70293,19.61289,20.46978,20.45695,20.1426,20.64857,21.6901,21.57662,22.86399,23.16951,22.31477,24.66956,23.13435,25.2222,26.12626,25.69849,26.2757,25.95419,26.32644,27.84239,27.72683,27.21993,28.15512,26.67097,27.95555,27.29262,26.75579,25.72484,27.22103,27.09459,26.41606,26.37477,26.24675,25.60196,25.88213,25.50439,24.00188,24.85651,22.95066,23.20219,22.09284,21.64841,20.79739,21.52215,21.42401,19.40985,21.1866,20.81223,21.11234,21.29219,22.57174,21.46042,22.57946,23.59147,23.65362,24.50863,24.66319,24.9349,26.0913,25.5521,27.15729,26.43896,26.77084,27.91219,28.1388,29.10017,29.9375,31.36792,30.07956,31.05569,29.79205,31.144,29.61367,29.64705,28.29435,26.57494,25.05786,23.57586,22.83271,20.80625,18.1563,16.73354,13.3462,11.65652,9.028254,5.412744,3.75951,2.466819,-1.076055,-2.47934,-5.499113,-8.639783,-10.1053,-13.13264,-14.7712,-18.36173,-19.99815,-22.58972,-23.38548,-25.26041,-27.10208,-27.87047,-30.36795,-30.97744,-30.77731,-32.25269,-32.18096,-31.73023,-31.98245,-30.11169,-29.80105,-29.41687,-30.07703,-27.21602,-27.25379,-26.49915,-25.50772,-25.78931,-25.57516,-24.47524,-22.86303,-22.41949,-21.03082,-17.8069,-15.7691,-14.87571,-12.67826,-9.860556,-8.641892,-4.46746,-4.452469,-1.33259,-0.0873767,1.940223,4.538365,5.530305,7.350995,8.53245,10.32407,10.35903,11.38828,11.85618,11.25943,10.91561,9.319095,10.09787,7.77603,10.28513,8.516823,9.498368,9.114913,8.743516,8.445778,8.661698,8.504317,7.421421,7.818378,6.065445,5.423099,4.69115,4.887209,1.632436,1.818447,0.2445342,-0.5930168,-1.426485,-2.80066,-3.76309,-4.227718,-5.800207,-5.12541,-6.482773,-6.919164,-6.211346,-6.215109,-5.615935,-6.114662,-7.028066,-7.528275,-6.199471,-6.581084,-6.866592,-7.81063,-6.309997,-6.610809,-6.008114,-5.749769,-6.209184,-4.528932,-4.853673,-4.859275,-3.204406,-4.297582,-2.877023,-2.412945,-1.833314,-2.342961,-1.686729,-3.001304,-1.390866,-1.79776,-2.40202,-2.351713,-3.174568,-3.402361,-3.971674,-2.33446,-3.776988,-3.30537,-3.161994,-2.472347,-2.049816,-2.758019,-0.06112873,0.9612343,0.8681908,1.570123,3.124716,3.186294,5.331369,4.613054,4.684849,4.281205,5.471202,3.579051,3.952679,2.714159,1.125161,2.033366,1.984276,2.469409,2.365117,2.637439,3.050217,4.282002,3.288798,3.34298,3.940351,3.005278,4.730394,3.257407,4.27804,1.837483,3.467988,3.151827,2.069736,1.714722,0.4377395,-0.6902209,-1.053017,-1.585638,-2.529352,-3.290947,-5.067133,-3.407676,-2.041114,-3.172495,-0.3614663,-1.853904,-0.4631195,-0.3594982,0.5024847,-0.7185972,0.1220245,0.1896509,-0.1380062,0.9589578,0.8439881,0.4646155,0.4265736,0.9465382,0.1828339,1.067526,-0.2046722,0.6712485,0.08326336,0.1014053,-1.053577,-0.769943,-1.794476,-1.114138,-1.849627,-3.003174,-3.188293,-3.811724,-3.6169,-4.50872,-6.056137,-6.326658,-6.350088,-8.083841,-8.146683,-9.262886,-8.758019,-10.72376,-10.51131,-11.93981,-12.24109,-12.17739,-13.97457,-13.11523,-12.95536,-13.48715,-14.615,-14.73766,-15.83658,-15.64115,-17.62805,-18.26916,-17.45061,-20.01237,-20.60289,-21.60863,-22.09602,-23.79807,-23.75202,-24.24608,-25.50703,-26.16102,-26.89825,-25.81248,-26.89914,-27.88522,-25.41276,-27.16624,-26.0454,-25.9269,-23.72068,-25.18792,-23.24672,-22.9319,-22.70701,-21.38681,-20.2472,-19.46554,-18.55782,-18.93807,-15.07626,-15.59264,-13.98014,-12.28722,-9.832463,-9.91625,-6.442234,-5.577405,-4.692154,-2.459296,-0.6840146,-0.1370126,3.106218,3.54409,5.899854,7.530895,8.470689,10.19756,11.22375,13.54451,14.87281,15.69044,17.12429,18.51715,20.80179,20.64882,22.21257,23.84774,24.46726,26.47012,26.68675,26.93436,28.37255,28.44976,28.76541,29.08706,30.65631,30.04299,30.80656,31.71878,31.42552,29.81217,29.39303,30.63102,29.1106,29.97686,28.55118,28.35972,29.95428,29.41447,28.98746,30.1262,29.50953,29.31502,30.11224,30.05745,29.40145,29.66333,29.83862,30.56719,29.15571,30.14504,28.85629,29.91726,29.58438,29.65893,30.30404,29.79362,30.60815,30.0089,32.18487,31.01481,31.24651,33.07871,32.76845,32.09009,29.63542,29.42706,28.91366,28.54497,26.3149,26.99872,25.04076,23.67326,24.53773,23.45899,22.62194,21.87463,22.12318,20.93463,20.57439,19.30578,18.33521,18.40919,16.27111,15.27333,13.85744,9.936276,8.670586,7.712673,3.776751,1.84291,0.5161319,-1.120296,-2.721652,-3.528552,-5.286693,-6.712207,-7.182663,-8.518885,-8.707986,-11.68492,-11.18101,-13.25194,-13.85317,-17.93894,-18.46183,-20.9884,-21.77441,-22.46366,-24.00231,-23.74046,-23.83759,-24.71147,-23.42174,-23.9791,-24.5132,-23.58611,-24.13464,-23.44925,-24.698,-24.12006,-24.18693,-24.26967,-23.38192,-23.81557,-23.7506,-24.31001,-24.21163,-23.18628,-24.45103,-24.32834,-24.0416,-24.88481,-24.78459,-25.3442,-26.10722,-26.35973,-27.47465,-27.01195,-27.88687,-30.22449,-28.61411,-28.86241,-29.63894,-27.26122,-29.21339,-28.01617,-27.06673,-27.86083,-25.73698,-25.35127,-25.52388,-23.8916,-23.47975,-22.27684,-20.86492,-19.61661,-18.68398,-16.1231,-16.05147,-14.40763,-14.01535,-11.11707,-11.38006,-7.67963,-7.36303,-6.523728,-4.915421,-3.315443,-1.544486,-2.172355,-0.9577577,-0.2398975,-1.097664,-0.2211648,-0.4993654,0.9504456,1.259246,2.29073,3.11625,3.999135,4.249241,5.430696,6.733166,7.969106,8.983297,9.406732,10.63425,10.50111,11.34365,11.17919,8.847021,9.751816,9.067645,7.592693,6.442226,5.403873,4.730055,5.541292,3.565543,5.02869,5.118554,4.642939,4.960036,5.292394,5.324262,4.307496,4.679904,3.667003,4.284563,3.273033,1.776755,0.3954678,0.2447976,-0.6223796,0.2012713,0.4249386,-0.0211429,2.139189,2.089403,3.819911,3.25983,4.017051,4.860477,5.631585,6.203566,5.639126,6.459027,7.463324,8.936494,9.168264,9.699725,10.3377,12.41863,11.36544,13.07477,13.74302,13.58801,15.32151,14.85284,16.10147,15.59813,15.35785,17.03943,16.15457,17.25121,17.58807,17.25359,18.27886,19.14529,18.86196,19.6123,18.72181,19.60209,20.71316,19.38674,19.79614,19.88943,20.40313,20.23531,20.0637,19.30414,20.07092,18.38623,20.62876,19.58768,18.04466,18.57633,18.48711,17.44239,16.69436,16.1848,15.57663,13.8324,16.16397,13.3534,12.1432,11.31823,11.03851,10.09958,8.190854,7.593815,6.3459,5.310275,5.55784,3.712961,2.847769,1.243628,0.7265229,-0.7515633,-0.8671827,-3.142064,-3.020763,-4.556056,-3.968117,-6.339407,-7.618549,-7.955559,-10.4007,-11.39604,-11.30318,-13.72159,-13.25749,-15.28319,-15.64032,-16.33208,-17.60896,-18.94105,-18.53817,-20.12412,-19.21113,-20.77201,-22.22309,-22.66919,-22.37984,-23.22823,-23.18434,-24.19237,-23.99933,-23.32573,-24.58249,-24.13038,-24.71494,-24.25323,-24.21876,-23.81681,-24.2634,-24.25128,-23.6529,-24.02036,-22.44567,-23.22367,-23.62861,-21.83142,-21.40461,-21.93499,-20.14464,-19.93595,-18.1489,-17.82823,-17.70953,-16.78195,-18.41554,-16.30708,-17.19957,-15.45081,-17.41225,-16.66167,-17.1007,-16.78995,-16.50878,-17.31636,-16.96502,-16.74155,-17.40357,-15.84254,-16.81609,-17.53306,-16.72485,-17.38722,-17.03896,-17.56852,-15.77229,-16.55327,-14.42891,-13.6176,-13.45824,-11.6653,-9.953972,-8.896696,-5.590589,-4.90738,-2.904857,-1.599565,1.304721,2.181069,3.178313,5.747519,5.426349,6.260329,8.296753,7.673079,5.985134,7.698891,8.487845,6.924346,8.251534,9.025986,10.61015,10.15396,11.70902,13.13862,12.23705,13.33922,13.66333,13.56819,13.45758,12.33728,12.11821,10.69023,11.03676,9.549202,10.97095,8.674445,10.25872,8.529962,9.459494,10.72979,9.358083,11.41218,11.70442,9.927775,11.85501,10.18006,10.34373,8.798766,6.913974,5.390427,5.365865,4.729625,3.658494,3.453966,2.507639,2.532255,2.059779,1.566058,1.101143,-0.329525,-0.810548,-1.093017,-2.793156,-3.875633,-5.162514,-5.779959,-6.313491,-6.562476,-7.38175,-8.738686,-8.555731,-9.313559,-8.812813,-10.44022,-9.238002,-9.671541,-9.353025,-8.263315,-8.313735,-8.755347,-7.876722,-8.915754,-7.451638,-9.106055,-7.786643,-6.783143,-6.785684,-6.204757,-6.425933,-5.707203,-6.488792,-4.937238,-4.803784,-5.244661,-5.081555,-5.910829,-5.255102,-6.156794,-6.56789,-6.010838,-6.55634,-6.421377,-4.121158,-4.31034,-3.222683,-3.390987,-1.382925,0.1601198,1.253483,2.926538,4.766185,5.880198,8.971873,8.770752,10.87426,12.18187,13.08944,14.56068,15.29376,16.33959,16.22211,17.73245,18.22357,17.71591,17.83345,20.43439,20.42432,22.21392,23.14433,24.53926,24.6211,24.66046,26.50733,25.3412,24.00956,24.96816,23.42266,23.96757,23.06773,21.84334,21.25511,19.89325,20.75284,21.2891,20.77455,19.87314,20.98647,19.71023,22.35358,21.24541,19.75089,20.86705,18.48295,18.29848,18.17795,14.99361,14.73825,13.36507,12.38043,13.78132,12.83528,12.28148,12.81224,14.17927,11.78648,12.56907,11.25991,11.39925,12.05196,10.45153,9.708417,10.16813,8.673105,7.636186,7.246869,7.942175,7.657997,7.778673,8.490528,7.672028,8.14289,8.441252,10.48319,10.16724,12.09474,12.13358,13.39548,15.21319,14.81968,17.63376,16.80341,17.84356,20.53344,19.9085,22.61671,21.71305,23.96306,23.66616,24.4895,25.21084,24.69752,26.96582,25.88657,26.47753,27.7967,25.70552,26.98109,26.34213,26.63743,26.15231,24.29205,24.66304,23.92954,22.18918,20.61044,20.85095,17.49183,18.39359,15.28593,15.52142,12.44853,10.63776,10.00318,8.127486,6.018199,4.121544,1.580808,0.7462328,-2.574731,-3.791892,-6.444759,-8.318923,-11.9627,-12.24777,-15.99157,-17.05032,-19.19601,-22.02179,-22.80467,-24.96294,-28.96631,-29.13217,-31.0505,-33.92086,-34.86717,-36.77949,-37.78721,-39.15151,-40.83727,-42.31219,-43.36568,-45.34628,-44.99668,-45.28403,-47.74832,-47.02824,-48.77995,-48.35035,-47.2282,-49.90097,-48.85578,-49.34976,-49.0599,-47.10189,-46.9839,-45.69497,-45.55055,-44.17045,-43.74014,-42.8348,-43.68082,-41.72563,-42.08658,-41.67858,-42.50053,-41.89804,-43.20546,-42.63173,-42.90596,-45.6526,-45.35824,-46.05433,-47.93062,-47.51902,-47.52816,-46.47506,-49.56313,-47.79477,-48.70873,-48.76607,-48.18444,-47.30169,-46.57544,-46.26803,-44.9804,-44.36384,-45.16673,-42.83138,-43.20593,-41.63199,-40.37171,-38.34421,-36.00923,-34.33215,-31.77642,-30.1262,-26.12428,-24.10174,-21.0785,-17.16066,-14.86141,-9.83278,-7.839938,-3.355963,-0.3808393,0.6124978,4.915232,5.34398,8.170545,9.535565,11.27383,13.71505,15.70943,17.61885,21.96663,23.13346,25.1707,29.28068,29.07646,32.90122,33.20684,34.60717,37.12188,37.11707,37.9133,38.59989,38.58309,39.67125,38.3466,38.31419,36.48444,36.41095,35.44779,35.69836,33.61535,34.21536,34.22461,33.43308,35.48735,31.9793,32.41295,32.59372,30.07874,29.39085,28.87752,26.40318,24.76183,20.57806,20.418,17.23904,15.67665,13.00667,12.43137,11.47351,10.44521,10.43956,8.379847,8.634044,8.160921,7.289183,7.427817,5.594186,8.223293,7.365849,7.349666,6.670405,5.87554,5.860605,6.468617,5.985287,6.16413,5.651808,4.29363,5.164336,5.414419,4.699475,4.621763,5.608363,4.421398,4.761377,5.505727,4.511966,4.410149,4.684658,4.416809,3.876915,3.258468,4.030611,2.630654,4.240075,3.198133,1.798291,1.681936,1.389275,-0.1478324,0.6116259,-1.231707,-0.2978524,-1.246883,0.5062486,0.3250617,-0.2729333,0.9623768,1.399805,2.129564,3.901101,3.882054,4.982736,6.527179,8.28745,7.875778,10.45859,10.48815,9.775819,11.78356,10.72008,12.09961,11.17466,13.06632,13.51614,16.49963,15.87983,17.432,19.37361,22.38476,20.77371,24.18316,23.40866,24.44065,26.32392,26.28312,25.38151,27.62012,26.48654,26.23248,27.01425,25.95119,24.69804,25.16964,23.68288,24.78458,23.95729,24.43868,23.84838,24.78438,26.53709,25.47209,25.28422,24.97451,24.49711,24.83383,22.27276,20.48548,19.66536,17.41453,16.49026,14.19354,13.46797,14.36654,13.5544,13.30645,13.58484,13.42625,14.93439,14.87887,14.42611,14.82138,13.24296,15.08455,15.13365,14.488,16.00172,17.09735,15.67197,16.09576,15.64629,15.86424,15.3261,15.20617,13.09815,14.32142,11.82663,11.62531,10.31667,10.71484,7.766396,6.440743,5.957837,3.220503,2.811513,-0.153984,0.1683385,-2.247272,-4.699707,-3.999446,-6.876224,-8.219259,-10.21912,-11.29798,-12.86122,-14.21797,-15.9241,-17.07043,-18.00636,-20.13761,-19.72512,-23.23516,-23.06416,-25.27414,-25.93064,-27.3275,-28.88271,-29.05777,-29.875,-30.82934,-30.99207,-32.36581,-32.18332,-33.44869,-33.37932,-33.77759,-32.95268,-34.54899,-33.76438,-33.84336,-33.0785,-33.1136,-33.43904,-32.79744,-31.21096,-30.90738,-31.26716,-30.2048,-28.45418,-27.48817,-28.63726,-25.43518,-25.54896,-24.80555,-23.68133,-22.80612,-21.45935,-19.73994,-18.09464,-17.12331,-15.37027,-15.64792,-13.2489,-13.23898,-13.70567,-11.37388,-12.9812,-12.00422,-13.00378,-12.84453,-13.14209,-14.20114,-15.28379,-17.20663,-16.98086,-19.42509,-20.3462,-22.61307,-23.63972,-24.13812,-24.81686,-27.40014,-28.36458,-29.1983,-29.71946,-31.79792,-30.45455,-32.61594,-30.81449,-33.37542,-31.81826,-32.16038,-31.77588,-30.0007,-29.92202,-29.69756,-27.22746,-27.58794,-26.05795,-25.27055,-24.01864,-22.0737,-20.82794,-20.38276,-17.27665,-14.95571,-15.21895,-12.90373,-10.98886,-8.854647,-6.914674,-4.776833,-1.677484,-1.024542,2.271251,4.260847,7.53089,8.26491,10.74962,13.91986,14.91462,17.6077,19.56168,22.04798,24.15153,26.37926,27.21505,26.87385,29.43391,30.43119,33.33395,34.03815,37.3795,36.54069,40.26815,41.45288,41.92818,44.33822,44.13637,43.84973,45.7214,46.0228,45.00789,46.45111,44.71722,45.57042,44.61971,43.40388,43.3274,41.46606,42.64291,39.18129,39.5661,37.61518,36.48073,35.13762,33.75251,31.51328,32.15301,28.718,27.84861,28.43429,25.08793,24.11352,23.9387,22.57867,22.52093,19.75447,18.80883,16.90982,16.26567,16.53375,15.14602,13.0929,15.01143,13.17678,12.96746,12.04721,12.162,11.33596,10.98434,10.08014,9.01448,8.283084,8.540709,7.157171,5.961795,3.651328,2.781037,0.6187566,0.7767437,-1.082901,-1.062453,-2.556215,-1.842178,-3.664256,-1.780873,-3.396673,-2.575327,-3.652629,-2.648312,-2.943414,-3.60914,-4.57825,-6.47377,-8.569379,-6.843009,-9.160881,-8.975154,-10.1641,-9.003262,-9.011897,-9.229518,-9.849724,-8.829239,-10.29033,-11.0758,-9.624223,-12.02412,-12.20756,-12.76342,-13.52517,-14.38279,-16.23336,-17.05274,-18.85816,-19.20825,-20.68926,-23.23065,-23.23944,-25.63309,-26.54588,-29.16092,-29.30082,-33.16831,-33.51523,-36.16772,-37.16934,-35.1557,-38.32176,-36.94614,-37.83009,-37.68462,-39.00522,-37.12748,-39.69188,-37.57434,-38.11044,-39.05796,-38.2096,-37.16078,-37.10226,-37.69757,-36.06253,-38.75329,-36.85551,-35.76143,-36.27392,-35.31239,-35.61198,-35.0452,-34.94903,-34.5152,-34.86527,-35.06696,-32.73933,-33.75121,-33.05126,-31.73988,-34.08471,-31.98986,-31.70303,-30.3393,-31.10139,-29.07129,-29.77461,-29.2009,-29.03142,-27.7129,-26.9963,-27.97484,-26.45372,-26.2548,-26.27362,-26.74831,-26.53428,-25.73972,-27.63797,-27.31104,-29.65484,-29.74788,-30.88043,-32.09727,-33.88489,-33.25345,-35.99765,-36.79465,-37.07461,-38.45008,-37.73673,-36.58431,-38.99493,-36.67873,-37.58113,-36.37649,-36.07345,-34.67513,-34.45316,-34.10974,-33.44708,-33.87488,-31.7252,-33.65166,-31.75944,-32.52321,-30.09234,-26.68543,-25.33899,-22.37677,-20.84084,-16.86788,-16.1693,-12.39898,-11.10656,-7.798436,-5.763371,-2.733842,0.1627729,0.9470037,4.876527,6.465269,8.938467,12.22741,13.45484,15.83661,18.84372,22.94446,22.15443,27.42225,29.21937,30.61585,33.74982,35.14856,39.08617,38.34263,42.46618,42.81433,47.1636,47.84026,48.67631,51.9721,53.34858,55.55059,56.45389,57.78503,57.83991,60.74943,60.78924,61.36162,60.65689,59.859,58.3475,58.95417,59.07098,57.19499,59.89203,61.22035,60.07682,62.48994,61.82539,64.4566,64.5363,66.66503,67.39251,69.10146,71.10622,71.5683,73.70172,75.00283,76.1854,79.66412,80.32077,83.07469,82.37889,84.7545,84.37727,85.50528,85.98278,86.41009,85.38177,86.15626,86.18802,86.09972,84.10105,84.56522,82.85864,81.80944,80.65083,78.08523,75.39814,73.63461,71.75236,70.10738,69.01063,66.35447,65.38405,63.03892,63.54281,61.25241,60.36783,59.71104,58.35213,58.69245,55.65505,55.61981,54.25022,53.00853,51.71454,49.2905,46.93918,46.06358,42.99225,42.56445,38.84322,36.76145,33.81277,33.32832,30.40587,28.94497,23.75259,22.6895,18.98238,17.14594,13.96559,11.30518,7.773172,5.985153,1.959155,0.9061823,-3.508366,-6.449726,-10.1387,-12.79996,-16.38594,-18.42673,-19.0833,-21.60637,-22.24241,-21.39065,-23.68408,-24.15988,-23.02419,-24.37712,-23.25774,-25.23746,-24.08638,-25.73765,-24.95676,-27.06156,-28.87353,-30.99687,-32.19889,-31.96976,-35.83228,-36.10462,-37.03727,-38.27933,-40.42899,-42.75565,-44.64417,-46.94801,-47.3886,-47.23882,-51.04636,-51.5902,-52.15154,-52.95683,-52.88165,-52.02251,-53.59782,-51.02219,-52.62137,-51.08273,-52.35352,-51.8166,-53.81732,-54.04725,-54.90539,-53.57374,-55.05385,-52.24028,-53.94257,-51.31235,-52.56114,-51.01702,-50.46904,-50.67546,-50.51171,-49.24539,-50.63952,-49.84279,-51.16213,-50.98865,-51.89596,-52.88187,-55.07446,-55.67684,-56.67727,-59.72672,-59.50722,-60.91889,-61.49666,-61.94063,-61.83416,-61.79878,-61.84957,-62.12682,-59.88894,-59.81612,-58.27439,-57.39139,-57.2122,-55.05605,-53.71899,-52.84835,-51.36338,-49.66967,-48.13598,-47.5563,-44.47823,-42.61027,-41.93364,-38.35019,-38.16134,-34.01816,-34.37719,-30.21908,-29.98792,-27.17865,-27.63591,-24.10793,-22.65232,-21.20955,-19.47327,-18.07123,-17.57334,-15.7655,-15.82124,-13.92398,-15.64411,-13.25764,-13.99752,-11.19733,-9.009863,-7.855311,-5.235705,-3.760107,-0.8097254,-1.019266,1.945649,3.099472,4.117757,4.500937,6.830666,5.472685,7.004338,5.766861,7.395891,5.893086,6.467051,7.294094,9.00908,9.005035,8.131132,11.92839,10.57512,10.24473,10.74719,9.906354,10.71164,7.691414,9.287183,8.484849,6.855498,8.804168,7.70093,8.806347,8.056432,7.114275,6.94016,6.327458,2.522349,2.944165,0.06274311,-1.380296,-2.984116,-4.008362,-4.000733,-3.686892,-5.735502,-2.752168,-7.418683,-5.295863,-7.147292,-6.437236,-6.604072,-8.139369,-7.241378,-7.060668,-6.812218,-6.432884,-7.179617,-6.831372,-5.79085,-6.2006,-4.987613,-5.718854,-3.108972,-3.926662,-2.221186,-1.810637,-1.130871,1.597616,2.464034,3.212458,4.223923,6.154424,6.722843,9.174422,10.62068,11.88687,12.89153,14.83775,16.76456,16.93741,19.88266,19.40315,22.75851,22.13255,25.87461,24.98467,26.54762,27.7895,29.63807,30.45896,29.76968,32.66288,32.44661,32.91594,33.33136,35.86979,35.61505,35.49768,37.0089,36.4584,37.42641,37.88597,37.57494,38.87076,39.30305,38.76789,38.85251,39.53213,38.23656,40.20595,39.12903,38.72607,38.59627,37.27823,37.66212,36.25657,35.66143,35.84076,35.94679,35.17528,36.10083,34.48125,35.26291,35.36602,35.59807,35.74808,35.58664,34.47062,37.55886,37.95723,36.30302,37.94356,38.51313,39.06139,40.49465,39.09041,41.77657,40.63985,39.81329,41.40929,39.68822,38.95647,39.19543,38.04856,38.69172,36.45502,35.46543,36.0698,34.1814,34.0441,33.06922,30.57182,31.81332,29.39242,28.90368,27.98367,26.26346,25.44492,22.97603,22.9918,20.13089,18.18589,17.59548,16.18069,15.48103,14.38223,11.69251,12.68532,9.865829,8.82332,6.649512,3.617089,3.530173,1.07697,0.7080636,-1.706444,-1.935279,-2.746052,-3.866767,-3.998319,-6.279015,-6.123634,-7.873665,-8.280737,-11.87739,-13.96945,-15.38356,-18.59152,-16.45559,-19.31456,-20.1134,-20.04889,-20.62867,-22.64033,-21.46732,-23.85369,-23.70409,-25.10343,-27.51663,-29.28171,-29.43635,-31.23703,-31.15975,-34.09534,-30.26031,-32.43051,-32.69609,-33.61316,-32.23357,-33.79284,-32.74822,-34.16079,-33.88057,-35.2912,-35.15908,-36.87722,-35.91913,-38.61011,-37.51252,-39.30603,-40.90212,-41.47638,-43.78364,-46.28331,-44.21721,-46.37151,-46.59776,-48.10751,-47.13605,-48.96224,-47.75109,-49.3647,-48.71245,-48.28999,-49.06653,-48.75752,-50.08601,-50.01047,-47.22636,-48.09491,-46.01003,-46.09192,-42.5642,-43.17081,-40.35058,-40.15032,-36.46252,-38.18692,-34.01297,-34.67447,-32.56665,-30.94694,-29.55235,-28.85528,-26.38473,-25.85478,-22.60415,-22.34599,-20.56258,-19.01097,-18.08977,-16.67149,-13.61056,-14.52012,-11.41467,-11.61365,-9.999802,-9.888735,-8.517276,-6.624745,-6.999292,-3.531886,-3.038534,-1.825857,0.8842557,1.046093,2.52367,3.480088,3.035044,5.846573,3.934975,6.493668,7.981931,8.859377,10.15527,11.52584,13.59839,12.99375,14.90013,14.81145,14.88357,17.37636,14.05392,15.62827,15.28624,16.36331,18.66033,17.53936,21.52938,18.27455,20.11859,21.64065,20.67868,21.63795,23.4124,21.45827,21.99077,22.92601,22.34938,26.0983,28.35159,27.71054,32.92915,32.24636,36.4211,35.8927,40.32986,38.6728,43.46231,41.61009,45.93828,45.65366,47.40239,46.49533,50.30933,49.50749,51.16379,50.8085,50.96211,49.61238,51.7809,49.45345,49.15099,48.35863,49.04858,45.29768,44.99636,43.28891,41.89872,38.82538,37.75795,34.48817,32.34021,28.78183,26.53342,22.7643,21.9028,19.25173,17.80263,15.07312,13.60104,10.10675,9.831652,5.274574,3.3689,0.8963956,-0.6538605,-5.204376,-4.700538,-10.1726,-9.80164,-13.00246,-14.89826,-16.71075,-18.94096,-21.28575,-20.79978,-25.24974,-25.5381,-26.44872,-30.10417,-27.66339,-31.30771,-32.79925,-32.10729,-34.30589,-33.33371,-35.21349,-34.25435,-35.98535,-35.2386,-35.292,-35.2677,-35.10354,-33.91925,-34.93789,-32.18572,-34.12203,-31.61255,-32.46178,-31.41159,-28.58469,-27.3117,-24.58797,-25.03936,-21.33715,-21.4949,-19.77877,-19.08352,-19.36701,-17.98146,-18.99007,-19.3179,-19.04184,-21.237,-21.00881,-23.39045,-24.20487,-26.48805,-27.07059,-27.19124,-28.60792,-29.46627,-30.80845,-31.15351,-32.78069,-31.89068,-30.78046,-33.36653,-31.85062,-32.13271,-32.14455,-31.14782,-30.891,-31.67287,-28.87031,-28.07506,-28.68437,-24.49731,-24.93122,-21.64481,-21.06688,-18.7955,-17.07398,-14.04614,-12.98791,-10.62981,-8.495635,-6.274938,-4.935918,-1.223384,0.3933531,2.906698,5.709889,8.080786,10.22662,13.76334,15.27211,17.91115,20.37211,22.7831,24.7757,28.28395,29.1278,32.03636,33.76289,36.44607,38.01371,39.53754,41.87088,42.32545,45.01282,46.36791,47.20348,47.54483,50.32193,50.2863,50.94208,51.47149,51.56895,52.22319,53.10062,51.21709,51.12625,50.83102,49.44739,51.04382,47.13523,48.28208,45.11181,44.17662,44.84171,40.1463,40.33656,39.68515,36.11093,35.33307,32.00167,31.21601,27.49787,25.95643,23.13041,21.87225,18.59092,16.90054,15.04198,13.69592,11.04651,11.4566,9.640406,9.521178,10.25892,8.679091,8.093416,5.723377,6.643039,4.416615,4.067981,1.964806,0.9088268,0.7201472,-2.342658,-1.627587,-4.246813,-6.104689,-6.149863,-8.293703,-8.145595,-10.43542,-11.73248,-12.21584,-13.80868,-14.27216,-15.9608,-15.50569,-17.27851,-19.38774,-17.06448,-21.55991,-19.50119,-21.43532,-20.9117,-22.21014,-21.33608,-23.56833,-20.78584,-23.11856,-21.65499,-20.97142,-21.76308,-21.99407,-22.06247,-21.87841,-20.6836,-22.55552,-21.42745,-22.55674,-20.53277,-22.38903,-21.81598,-20.70083,-22.92581,-20.76796,-20.9889,-22.24598,-21.13467,-21.43035,-21.81524,-22.52004,-21.14703,-23.55634,-22.70518,-21.76789,-25.36087,-22.86475,-25.32039,-25.16555,-24.48486,-26.99114,-25.99788,-28.43545,-26.92623,-30.93476,-29.08917,-32.70962,-31.54044,-34.276,-33.61378,-35.47195,-35.54316,-37.13586,-38.16015,-38.52823,-39.22145,-40.21241,-41.11411,-41.17058,-43.73719,-43.25211,-44.36663,-45.24368,-46.56458,-48.636,-48.70503,-50.6085,-51.59529,-51.98891,-52.60875,-51.1282,-52.55807,-53.95294,-52.02453,-54.12153,-47.65057,-41.65735,-49.17515,-47.11525,-47.03348,-37.56161,-47.61898,-45.29259,-45.6763,-50.67213,-52.38045,-56.24983,-61.46516,-65.02635,-71.167,-75.06205,-82.6037,-87.38311,-94.79388,-98.67252,-109.7911,-113.0463,-118.3375,-122.3812,-127.8459,-130.4042,-134.3395,-135.6846,-140.863,-140.4042,-143.2039,-143.3956,-145.2421,-144.0596,-142.9567,-144.712,-139.7691,-140.2844,-136.4752,-132.8476,-128.9616,-124.2556,-119.0651,-113.995,-105.7381,-100.7326,-91.95112,-86.01638,-77.08332,-66.2596,-58.17197,-48.84741,-37.53456,-27.75497,-19.07571,-15.27982,0.4264178,7.955045,21.20517,33.78551,45.72178,58.55112,72.96663,85.35821,99.37942,113.5996,128.1254,139.7606,155.478,167.3748,180.0822,193.4925,203.0117,216.3444,225.4637,234.5869,244.9839,251.6031,259.4281,264.9444,272.0632,274.2528,281.0265,282.0599,286.0734,285.3076,285.8927,283.9027,281.6011,278.7857,272.5516,267.4514,260.696,251.5693,243.8223,235.0986,225.0542,212.1553,204.1433,191.9166,183.0656,172.199,163.7377,151.5361,144.7312,135.3795,126.0478,119.2976,113.0385,105.9846,104.4372,93.55538,79.78112,81.87537,74.94597,69.94079,54.11868,55.67764,45.87407,38.03127,32.70498,26.4633,18.96005,14.02805,7.224558,3.095524,-5.020299,-7.291122,-14.19845,-17.01616,-21.78324,-20.5841,-24.41487,-25.99234,-27.12584,-27.96058,-29.12169,-30.92745,-32.01931,-30.13284,-32.53137,-29.7594,-29.9617,-29.00132,-27.38528,-24.29598,-22.04603,-19.91584,-15.92481,-12.8273,-9.581048,-5.27394,-2.920858,0.6635265,3.74499,4.178765,7.96355,6.57839,9.085775,7.956818,4.710717,3.653822,1.38078,-3.345824,-7.828496,-8.441889,-5.095505,-11.12872,-10.12522,-13.59806,-13.80683,-15.65839,-18.52153,-20.76067,-21.87795,-24.3759,-27.15579,-28.68359,-31.25654,-35.63143,-35.34381,-41.84387,-42.13872,-44.6101,-48.49532,-49.83787,-52.27937,-55.48246,-57.68749,-59.03171,-61.69796,-62.31664,-63.76292,-65.58845,-67.6973,-68.69529,-71.64329,-72.28578,-74.68732,-75.27896,-78.47449,-76.31668,-79.70342,-80.22041,-79.34633,-81.15738,-80.30272,-81.3544,-79.93112,-80.47367,-79.83785,-79.13542,-78.83297,-78.26899,-75.59055,-76.01337,-72.67436,-73.34953,-71.39945,-68.93971,-67.17748,-64.97684,-64.41908,-58.68532,-60.98406,-53.5868,-53.67881,-49.34164,-47.75663,-44.51608,-41.84381,-38.5512,-36.95105,-32.47431,-30.78121,-28.347,-25.06256,-23.20124,-20.53836,-18.4829,-17.58123,-14.73408,-14.46525,-13.23253,-11.53855,-12.78422,-11.35011,-10.85497,-11.24155,-8.617649,-10.19837,-5.776257,-8.196343,-5.62087,-5.247341,-3.070665,-2.891829,-0.3863479,-1.074936,1.145125,1.270858,2.741184,1.627265,2.849057,1.354897,1.337011,2.185364,0.3887622,0.02735452,-0.5655487,-1.30564,0.6352587,0.4856141,-0.7176789,1.106794,0.7275702,1.121767,0.922466,2.219665,0.2551072,1.486602,2.262448,0.2888703,3.105369,1.899197,1.840517,2.317174,2.745188,2.126663,2.183435,2.059872,1.709626,3.244035,2.714321,1.353868,2.456556,2.263991,1.566079,2.734435,1.580327,1.887342,2.577984,2.520373,2.296086,1.920646,1.873498,2.245985,2.693088,2.072166,3.620293,1.795536,6.347933,1.111443,4.838013,4.25265,2.341981,4.76183,2.926125,4.939617,4.226758,3.170738,5.330762,3.737464,5.514696,3.941797,5.044679,4.531521,2.896636,5.250704,3.88325,5.220603,4.849538,4.646358,5.94823,3.515602,7.109392,1.890459,5.041515,3.750784,3.930014,1.618377,3.956641,2.570141,2.869835,1.567613,1.285018,2.061594,0.4321371,1.530127,-0.2828752,-0.4542953,-0.2297387,-0.7635889,-1.833164,-1.71547,-2.83852,-1.044577,-2.652755,-2.28869,-1.288794,-3.163295,-1.039895,-2.923421,-1.850823,-1.290126,-1.823852,-0.8980578,-0.9320681,-1.301743,0.3782794,-1.266862,1.607015,-0.06723975,1.94949,1.088154,3.420603,2.96667,4.895694,3.74382,6.667249,5.805138,6.836206,8.698923,8.79352,9.467288,10.74555,11.628,12.1376,13.47053,13.24233,15.73244,17.24273,16.25217,18.88498,18.25223,19.7151,20.9559,21.74973,22.70587,22.04453,23.08274,23.90379,23.17226,25.23215,22.73416,25.20912,23.72818,24.33725,24.09861,22.475,22.21747,21.16219,22.22086,21.1888,20.90322,20.20029,21.78859,19.75245,21.66904,20.56399,20.16114,21.20351,18.76432,20.84481,19.32533,18.13762,20.60043,18.10674,19.93502,17.68432,17.10237,17.88568,15.57854,16.39762,14.52322,15.3367,12.34039,13.54762,12.24003,10.96841,10.65721,7.248694,8.050824,5.526078,3.860234,1.722333,0.4175674,-1.016574,-2.190856,-5.561321,-7.242933,-8.358362,-10.63993,-13.91205,-14.63756,-18.59059,-19.14797,-12.12329,-19.26129,-19.03885,-22.10475,-23.87119,-27.15103,-32.01453,-34.56089,-39.50922,-42.95677,-48.43282,-50.85345,-57.33819,-61.62406,-65.50556,-69.01272,-74.07173,-76.44885,-81.3562,-94.79202,-92.47398,-98.83258,-100.1418,-104.2046,-104.8481,-105.7565,-104.2448,-104.853,-101.5026,-101.4103,-96.16323,-82.40212,-83.93896,-74.04577,-72.81715,-63.60948,-60.01682,-54.40395,-49.73027,-45.87649,-41.34442,-36.54385,-33.51195,-31.26661,-28.94588,-27.64407,-22.3129,-22.61754,-18.00305,-17.53161,-14.37029,-10.76446,-8.856851,-4.082924,-2.844457,0.7994876,2.291688,4.673079,7.295103,7.495704,9.626861,10.28722,11.09656,12.22075,13.42597,15.77853,13.79894,17.47963,16.85465,17.25133,18.48082,17.90083,18.77129,18.20575,19.64062,18.2468,19.24052,18.48258,19.14283,18.52189,17.34793,17.60739,16.27954,16.79186,14.9041,15.3295,14.0506,15.48803,12.90434,13.61523,12.59016,12.44273,13.05238,12.40178,12.70821,13.63655,13.30354,14.57032,16.37633,16.91041,18.0269,22.25046,23.28378,28.15209,30.30952,36.71793,39.39396,47.21436,52.18804,59.6939,66.54558,62.48083,72.49634,72.78458,76.53841,67.6114,76.17102,74.59414,76.36697,77.37271,78.63307,79.56135,79.4383,81.13372,80.15795,79.95808,77.84014,76.53466,73.24251,79.20517,83.50293,80.10733,82.52679,82.50439,82.8469,82.94618,84.79882,82.92432,87.23946,86.23627,89.05747,90.64868,81.18613,84.2436,77.84731,77.51937,73.25094,68.35525,63.40575,60.01138,53.28916,47.34918,42.27232,35.81566,31.12779,25.56597,21.42543,15.17357,13.74042,6.061688,5.799688,0.01151552,-1.6634,-6.147587,-10.40105,-13.39336,-17.08595,-18.97487,-21.9494,-37.6071,-30.80025,-39.66862,-39.32878,-41.45157,-43.11745,-44.11288,-43.24154,-40.78941,-41.41152,-38.4329,-35.08135,-23.11831,-23.27364,-16.75315,-13.60532,-9.671926,-6.017349,-2.686223,0.80334,2.474893,5.804282,7.121018,10.65185,11.66492,12.97207,15.27374,15.28679,18.81138,17.75552,20.00993,18.94299,19.89569,21.22774,19.00192,19.75787,18.79485,18.08566,17.11809,17.36255,13.3531,15.20699,12.27337,11.58759,8.688391,6.36446,4.546875,0.0528496,-3.445149,-5.415977,-12.78617,-14.92386,-21.30807,-26.92529,-33.93129,-40.66703,-48.01286,-43.50107,-53.28744,-52.82153,-56.06684,-58.74062,-59.10805,-59.9865,-59.37751,-59.2755,-57.32442,-54.46681,-50.59049,-57.56752,-45.22892,-55.96731,-46.87424,-46.28162,-42.04097,-38.12278,-34.37346,-27.38237,-24.71871,-16.70442,-13.47498,-6.141574,-0.8120927,5.836919,9.341055,18.40724,21.42955,28.93188,31.40465,39.70582,41.99141,46.95613,49.93468,56.09176,56.72207,59.10939,61.24511,61.34174,62.39628,62.51013,58.5448,59.89071,65.98512,58.17123,55.70333,51.15674,43.08173,35.26452,25.20411,13.84555,-0.1704244,1.858619,-18.4797,-22.38942,-35.34599,-43.51464,-54.0546,-60.19981,-71.06925,-75.41466,-84.18864,-88.17215,-93.98803,-108.7934,-110.4493,-121.8333,-124.3396,-134.3347,-139.6135,-142.5894,-149.5127,-152.7719,-156.973,-158.634,-161.4145,-164.0261,-164.7743,-164.0104,-164.2168,-162.8373,-161.9633,-158.3731,-158.5579,-149.986,-150.4261,-142.3066,-138.4039,-132.3892,-125.4904,-128.2077,-117.438,-111.3468,-103.6573,-93.43893,-72.99164,-68.09489,-51.23216,-42.46297,-27.99719,-14.00158,-5.480886,9.270134,18.4399,28.42451,41.47325,49.50213,58.98876,66.7035,74.65352,81.29299,86.37374,91.9025,97.10711,99.36095,103.284,104.1863,106.3198,105.0292,104.212,101.1686,110.7066,104.9076,105.2736,104.8863,103.416,102.4556,98.84194,97.2102,93.78208,90.59644,87.21763,82.8394,76.72314,75.43064,68.51411,65.61645,58.93894,55.82611,49.83733,46.43491,41.28985,37.94636,33.90024,31.14691,25.03242,16.19462,19.96603,13.22453,18.07448,16.83363,21.51035,25.88947,30.15686,24.12396,32.50054,32.99197,35.4961,39.5213,40.60999,45.8983,47.62165,50.86204,54.76771,56.46131,61.78965,63.17512,67.38175,69.36662,71.04106,76.93257,74.57117,80.22519,78.72652,82.78634,81.46694,83.01857,83.63696,80.80093,82.42376,81.1552,79.10876,77.17233,74.65848,71.09909,67.99588,63.26384,59.73558,55.32559,47.2013,56.54934,40.27237,40.80728,29.88863,25.45689,13.01484,5.710736,-5.729482,-17.50208,-28.23286,-41.14794,-40.18118,-52.6774,-55.45284,-62.69203,-64.13082,-83.01118,-80.46805,-94.42869,-97.81254,-106.3369,-113.2112,-118.4735,-124.2937,-131.5692,-133.4208,-141.2002,-143.4647,-148.0131,-151.3512,-153.3747,-153.9606,-154.1142,-154.812,-152.6645,-151.3438,-147.3654,-143.7495,-141.2672,-135.3273,-131.3403,-125.3626,-119.0795,-114.4728,-105.4214,-98.75215,-91.2697,-82.58878,-75.16904,-66.405,-57.787,-48.73763,-39.69228,-32.41768,-21.62402,-14.99753,-6.430288,1.616782,8.294697,14.72255,20.80346,27.75963,31.16122,35.9494,25.2644,37.36714,33.76435,47.29407,44.1998,53.54575,55.23532,61.19999,66.32762,69.07786,76.05489,78.37707,82.59161,85.32955,89.78702,90.90949,94.31582,96.8118,98.80501,99.98396,101.3451,103.2986,102.0425,104.0386,101.386,100.7725,100.5721,96.49531,95.17494,91.169,100.7075,87.36599,91.35252,83.25354,80.07774,75.20729,67.77795,63.0809,56.39204,48.31403,43.23766,36.07746,29.78859,24.75039,19.79807,13.78194,13.50396,-7.622041,-4.073698,-17.42915,-22.93743,-30.45792,-36.59516,-44.30837,-50.14399,-57.00125,-62.25711,-67.64723,-72.73776,-77.96138,-83.65282,-85.44956,-90.82731,-91.852,-96.6511,-96.70168,-98.78625,-98.93245,-99.65362,-99.32727,-100.4076,-109.2685,-100.8544,-104.8075,-100.5107,-97.99241,-94.03216,-88.2835,-83.25426,-76.0181,-68.94419,-61.49094,-51.98825,-44.82022,-34.30529,-25.34894,-16.59477,-5.930264,2.183432,14.83229,20.99133,33.66743,41.18646,53.15345,60.25308,69.98408,79.53769,85.3488,95.61515,99.86807,106.9438,111.0428,114.9679,117.7975,119.5348,119.5054,119.5991,116.1978,114.6786,107.0767,102.1301,109.0278,94.23567,97.44747,87.56646,84.73243,78.16347,71.65731,66.54588,57.3642,52.07612,41.32133,34.26333,25.82438,21.05701,9.66552,4.999536,-2.320969,-8.858403,-15.28471,-20.02659,-26.57354,-29.13549,-35.54109,-37.28303,-41.66649,-41.89628,-45.51528,-43.86335,-43.89394,-41.67442,-54.28427,-46.30602,-54.45628,-51.65739,-55.6659,-56.21069,-56.7015,-56.69837,-59.51955,-57.15621,-58.2387,-56.42712,-56.86892,-55.64783,-53.98422,-53.28168,-52.72812,-48.14929,-48.27945,-46.00324,-43.62537,-42.65881,-40.19901,-36.03511,-34.33985,-29.67971,-27.87097,-23.67622,-21.26176,-16.57232,-14.13665,-11.0314,-7.859851,-6.296521,-4.676021,-4.060159,-3.651606,-4.636773,-5.531804,-7.569156,-11.89397,-0.9974916,-7.818341,-3.243811,-3.865236,-4.958471,-2.129987,-3.146433,-0.1504308,-2.136637,-0.7370283,-0.404577,-0.5673853,-0.0632689,0.4058333,-0.8532848,0.7628502,0.5717226,3.323343,-0.7817994,5.884816,1.953903,6.387531,4.983822,7.142057,7.618706,8.409998,9.913021,10.16481,9.660647,12.28702,10.04686,11.92939,11.28635,12.00591,11.98533,10.73892,12.66695,10.39416,10.936,10.11527,8.963396,9.596685,6.695338,7.161544,6.157512,3.885858,3.18936,2.038934,-1.324922,-0.9414341,-2.443427,-3.829461,-2.314099,-5.343362,-3.258578,-4.947997,-3.620644,-4.477715,-3.058388,-2.482515,-3.378758,-2.104802,0.2787523,-1.04179,-0.05686906,1.46125,2.028229,2.490015,4.301284,3.713213,4.963101,5.322065,7.288379,6.722969,8.626401,9.773768,9.813903,10.99229,12.56537,13.46776,11.96364,13.86973,14.14244,15.34953,13.67493,14.35045,15.11928,13.88625,13.7898,15.04779,13.05975,16.27844,16.52379,16.72526,17.22856,17.29793,19.02888,19.20766,19.85695,18.71514,21.33563,20.47546,20.57516,22.0793,21.55574,21.10585,22.15529,22.47386,21.89063,22.88325,21.33163,23.72971,20.90215,23.78187,20.30004,24.30285,20.76201,23.40069,20.66544,21.40016,20.88625,19.2635,19.68942,19.62161,18.26409,17.68442,17.70459,17.59446,15.53083,18.09627,13.56662,16.05901,13.29471,14.20429,13.26533,13.37248,11.54642,13.01111,10.0988,12.5017,9.052499,11.05437,9.898882,9.469177,7.615911,7.794444,7.990709,6.713423,7.257928,7.749889,5.533212,8.037068,6.285949,7.151533,9.190904,6.761497,8.816022,7.696575,9.315518,9.33086,8.763077,8.972076,11.08624,9.142642,11.13105,9.320207,11.20426,10.4105,10.91492,9.493211,10.37369,9.740703,9.249647,9.275859,8.605141,9.483511,6.361787,9.041802,6.858347,6.144775,6.323274,5.336273,5.505873,3.602851,5.460575,1.782885,2.41214,0.9209405,0.4164704,-2.047241,-1.75306,-2.637048,-4.088429,-3.925514,-6.940662,-6.159408,-8.718654,-8.619855,-11.06951,-9.729242,-14.55032,-12.65188,-14.79519,-16.21253,-16.83877,-18.53704,-20.00203,-21.1334,-22.21902,-22.93145,-23.61167,-25.67141,-26.15421,-25.76281,-28.49533,-28.02048,-28.74548,-29.23033,-29.8303,-29.39845,-32.33939,-28.77257,-33.09456,-30.09325,-32.47911,-31.5379,-32.1944,-31.29639,-31.77691,-31.44239,-31.89152,-30.61899,-30.9525,-30.23544,-29.64639,-29.47396,-26.67898,-27.60192,-26.70918,-26.17265,-25.7468,-24.83111,-25.98292,-22.98958,-24.94912,-23.68725,-24.68751,-23.71407,-24.30067,-23.8273,-25.65685,-25.46194,-25.74641,-27.59143,-24.84398,-27.34755,-24.64806,-26.84383,-23.72374,-25.79577,-24.08367,-23.09998,-24.22601,-22.80118,-22.94976,-23.51269,-21.72643,-23.58942,-18.55875,-21.47823,-17.89612,-17.75756,-15.18411,-15.96104,-10.66623,-12.17822,-8.023645,-8.404684,-5.518764,-3.970557,-1.780206,-1.233949,0.9088821,3.377773,2.732801,5.299789,3.75453,5.8298,5.437895,6.203875,7.64623,7.29467,9.423721,10.16219,12.0765,10.75464,14.01105,12.83962,15.27091,15.41249,17.03934,16.39359,17.17061,18.31319,16.8235,18.22738,16.28574,17.50863,16.36368,17.21163,15.3603,16.72193,16.0377,13.75243,16.04803,12.21662,14.13542,11.6335,12.3938,11.68844,10.18817,10.20673,8.839453,9.834439,7.729339,8.104235,7.522084,6.641674,6.845915,5.291883,6.55189,4.884675,4.675506,6.052872,5.551338,4.823175,6.666227,5.861223,7.232753,7.24914,8.088896,10.03325,9.091972,11.84862,12.38507,14.21494,15.08251,14.81833,16.92432,18.76375,18.90083,19.62662,20.58815,22.27852,21.81091,23.03127,23.5995,24.22399,25.19252,24.47472,25.96073,25.13853,25.75351,26.30512,26.14688,25.32792,25.81355,24.15308,24.6631,21.67723,23.51574,18.14697,19.94159,15.85235,17.10326,15.30006,14.55655,11.85474,14.13341,10.60965,11.82852,10.64735,9.429862,9.525929,9.832922,7.194778,8.304184,5.270655,5.882024,4.783556,2.576607,2.831042,-2.019488,0.8777614,-6.431497,-2.518175,-9.447952,-6.678437,-8.131523,-8.906674,-9.080023,-8.960399,-10.30513,-9.789757,-10.08006,-10.33696,-11.24292,-10.21202,-12.54181,-10.10803,-13.55218,-10.66485,-14.27842,-11.77054,-15.56164,-12.1314,-15.69202,-13.31325,-14.88024,-12.57818,-13.57514,-11.43281,-14.16385,-11.73941,-11.74964,-12.23775,-11.92902,-13.23279,-11.32241,-12.42581,-12.62373,-12.36052,-13.96674,-11.49557,-13.66679,-12.93331,-13.47961,-14.67472,-13.11806,-15.74946,-13.62636,-16.05675,-15.44344,-16.16281,-17.26059,-17.60661,-17.51863,-18.93393,-19.77649,-20.6368,-20.52731,-21.28155,-23.0081,-23.34472,-24.49869,-25.18324,-26.32818,-28.73499,-28.87911,-30.46872,-33.08291,-33.42655,-35.14681,-35.40232,-36.24306,-37.74635,-38.34874,-40.58693,-43.46957,-43.42677,-46.48565,-47.99789,-49.71999,-51.49259,-53.70539,-55.1396,-58.32946,-58.72057,-61.19923,-63.02678,-62.77843,-67.54158,-63.75942,-68.88032,-65.71911,-68.51307,-67.27907,-68.26566,-66.82336,-67.21219,-66.08733,-66.06187,-65.23942,-63.35058,-62.85759,-59.80772,-58.6463,-56.61564,-54.81489,-51.19524,-49.10681,-46.34557,-44.80623,-38.77484,-39.88614,-31.237,-32.91667,-25.09367,-23.30441,-19.36193,-14.63017,-11.50637,-7.58757,-3.052269,0.1646963,4.558631,8.483259,12.03763,14.08917,21.19789,21.21786,28.75968,26.82327,35.09166,36.39862,40.6456,43.68103,47.5765,49.54792,54.80759,56.94695,60.05227,62.1026,65.3413,67.21382,70.33969,70.59244,74.75871,74.89583,77.71997,79.39335,78.1996,78.86283,79.19815,78.86836,79.87553,80.80826,80.27702,83.03403,81.19199,86.05971,83.47946,86.15457,86.74917,87.09377,90.53313,89.8904,90.74798,92.51526,93.35898,94.99339,94.80628,95.89093,96.07373,96.96784,98.31597,97.73384,99.28817,98.55074,100.2282,99.81602,101.0769,101.2807,101.3415,99.45346,99.87778,97.16555,97.42893,92.98372,95.09189,89.69944,90.35763,85.29547,83.02954,79.83882,76.0972,74.01131,69.97491,67.72771,63.27649,61.71745,58.63967,57.20394,52.13815,50.8998,46.85773,44.84458,39.70143,37.56869,31.59648,31.40972,24.75176,24.2425,17.88224,16.45681,13.02184,8.757476,5.904466,1.313807,0.6708708,-4.742633,-6.911971,-10.70521,-12.41365,-16.89887,-17.35698,-21.78419,-22.65208,-26.13081,-28.00274,-28.37129,-32.06367,-32.21284,-35.18949,-34.86588,-36.66163,-36.46664,-39.4085,-38.63342,-38.39,-40.43847,-38.42634,-40.59954,-36.98819,-39.56215,-37.37479,-35.84068,-36.33559,-34.01884,-34.38513,-31.19894,-32.33915,-28.36842,-31.51731,-27.63269,-28.29723,-27.78848,-26.26316,-28.51733,-26.94894,-29.17764,-29.40357,-30.12627,-28.69729,-29.84087,-27.86653,-28.51275,-28.04745,-26.49009,-28.46997,-25.29535,-27.88269,-26.2304,-26.31536,-27.34706,-26.06882,-26.88942,-26.63524,-26.50232,-27.48784,-26.57522,-27.09535,-26.03205,-28.39086,-25.74405,-26.90752,-26.928,-25.88429,-27.79256,-25.99821,-26.93909,-26.7955,-26.93331,-28.35289,-27.78227,-28.30398,-29.38253,-28.38667,-31.75241,-30.18837,-32.0915,-32.79203,-32.99232,-35.09849,-34.11543,-35.07306,-34.21928,-34.77866,-34.45809,-35.73901,-33.05914,-33.84633,-33.51831,-33.55828,-32.9499,-33.1885,-33.08296,-33.06602,-32.64909,-33.48215,-31.24241,-32.47645,-31.42228,-32.06346,-30.98685,-30.7124,-31.23675,-29.83728,-30.74545,-29.55834,-30.03975,-29.43971,-29.53386,-28.61507,-30.30731,-29.01293,-29.13408,-29.33919,-29.62424,-29.36572,-29.33504,-31.31106,-28.92748,-31.69888,-30.055,-32.13226,-30.78676,-33.00113,-31.77182,-33.42167,-34.01196,-33.37985,-34.80566,-34.22569,-36.30744,-35.15636,-36.2477,-36.49832,-37.53901,-37.6837,-37.68035,-38.74875,-38.69529,-39.81519,-38.94116,-39.6579,-39.60741,-38.87091,-40.65814,-38.12044,-39.97903,-38.32109,-39.14231,-37.82338,-39.01818,-36.00021,-37.113,-36.60106,-34.81868,-36.59263,-34.32263,-35.46537,-34.50434,-33.88101,-33.03416,-31.53737,-27.86767,-30.42006,-28.18924,-28.23961,-28.45757,-26.58059,-28.83053,-28.05712,-27.10016,-29.9745,-27.20758,-29.28366,-28.83102,-29.70689,-29.86093,-31.41181,-29.80472,-33.71578,-30.11436,-34.87747,-31.28382,-34.29192,-33.04666,-33.45042,-32.55942,-33.72099,-30.98269,-33.24222,-30.4782,-30.73188,-29.76748,-27.11349,-28.1654,-24.80141,-23.88032,-22.10002,-19.78152,-18.7176,-16.9273,-14.37854,-13.16131,-8.198605,-8.776051,-3.648521,-2.707473,1.751146,3.153145,7.011726,9.080847,12.85019,15.98669,19.63496,23.13122,26.44006,30.25668,33.79312,37.36023,40.41748,43.58667,48.00549,50.31,54.94423,57.54035,60.34744,64.36453,66.28763,71.57638,72.86485,75.95117,78.26142,80.52871,84.10976,84.54054,87.15389,88.27217,91.22779,90.84137,90.547,90.49628,91.0957,91.70046,91.28865,93.2857,92.81736,94.48792,95.00623,96.2042,97.01559,97.08562,96.91579,98.91049,97.89113,99.43411,99.30368,97.78842,99.57464,99.3614,96.9677,98.3931,97.06024,95.93881,95.47683,95.55186,92.3778,93.48684,91.33518,92.30398,89.99175,91.70905,87.09834,88.29498,82.27409,84.60661,78.19766,78.23081,75.22299,71.22141,71.10897,65.98461,64.4798,62.06578,57.31191,55.46739,50.14009,48.76511,43.31989,42.1964,36.37546,35.56244,30.21153,28.17494,24.51956,21.25173,18.1117,14.17806,12.46945,9.510418,6.127602,2.810601,-0.8650284,-3.33206,-5.007591,-9.034455,-9.57371,-12.86556,-13.88557,-14.21488,-17.3222,-16.26406,-17.78415,-19.04735,-16.6154,-20.27769,-18.34732,-20.63198,-19.89643,-20.17087,-21.38297,-20.55256,-20.7084,-20.83098,-20.77584,-19.5552,-21.89841,-19.54707,-20.60794,-20.29292,-21.01051,-20.78763,-21.18543,-20.00755,-19.79731,-19.42571,-19.15147,-17.05908,-17.91886,-16.21256,-16.14398,-17.0686,-15.29491,-19.20556,-16.63494,-20.50763,-20.5415,-22.95418,-25.14685,-27.60913,-31.01768,-31.43941,-34.31477,-33.09641,-35.1124,-32.63332,-35.60962,-33.03122,-34.69125,-32.76526,-33.29655,-32.54916,-33.07658,-31.03849,-32.36201,-30.2664,-31.28618,-30.59626,-30.4039,-29.82586,-31.1294,-29.01257,-30.20327,-30.77864,-28.13742,-30.37565,-29.62637,-29.97714,-29.66819,-29.56571,-29.66395,-29.7103,-30.5933,-29.63617,-29.34829,-29.1122,-30.71628,-29.03629,-30.54802,-29.11476,-29.61013,-30.18199,-29.9502,-31.4376,-30.11694,-31.24642,-32.1315,-29.87857,-33.67317,-29.39791,-32.45522,-31.2886,-31.77931,-33.77891,-31.68627,-34.8466,-32.75736,-36.65926,-32.91716,-37.816,-35.82589,-38.59963,-37.56243,-37.8852,-37.25566,-37.25256,-36.24198,-36.91798,-35.38095,-34.54448,-34.57447,-32.59734,-32.36005,-33.16906,-29.46907,-31.8445,-29.26271,-29.87457,-28.74338,-27.77125,-27.98621,-25.96552,-26.65987,-26.54765,-25.52491,-24.64097,-25.88016,-23.21153,-26.32603,-24.58209,-24.34343,-22.88092,-22.92999,-20.97117,-21.25874,-18.71723,-19.46795,-17.45386,-19.13864,-17.98537,-17.20037,-18.44433,-19.72989,-19.19525,-18.4994,-20.07489,-19.31601,-21.98442,-21.44964,-23.52187,-22.8927,-23.61027,-23.42437,-22.08646,-23.66806,-20.75347,-23.07829,-20.9995,-22.05195,-20.89502,-21.41895,-20.99452,-21.44258,-20.80875,-20.01383,-18.32295,-17.79014,-17.85749,-17.5726,-16.26852,-16.41722,-15.33328,-16.36837,-16.36458,-15.02943,-16.81141,-16.15779,-15.49711,-16.27343,-15.58964,-14.96019,-15.22875,-13.65902,-14.80362,-12.919,-13.48581,-13.04857,-11.64494,-12.24986,-10.84274,-10.78432,-9.25734,-9.451819,-8.733618,-7.911227,-7.138863,-5.781258,-4.653495,-5.282004,-1.954535,-2.8426,-1.852897,0.1979662,-0.3490116,2.052529,2.209314,4.83147,4.649081,7.890003,6.375882,10.76684,10.3965,12.60806,12.65158,14.95092,16.69007,17.04408,18.79911,19.57074,20.96252,23.65673,23.17031,25.9551,25.14691,28.9857,27.75984,30.87719,30.44986,32.60659,32.18579,34.26987,34.96821,36.11228,35.77346,37.06234,39.57486,38.68902,40.32183,39.72375,41.87715,43.04768,43.56375,42.75535,45.86456,44.35375,45.63449,44.97846,44.46254,44.01057,44.75453,44.10358,45.84844,45.30768,46.94309,45.8541,47.14786,48.40824,47.37527,49.4467,47.67402,50.72328,48.82868,51.35872,48.99378,51.7283,51.39042,52.11088,51.90222,53.04548,52.51211,53.62056,53.89618,53.78619,54.38562,54.41666,54.38855,53.69161,53.85021,53.30557,52.79707,53.53199,51.74912,52.10272,51.64535,51.88382,51.38313,51.8684,51.66133,50.99675,50.37239,49.0559,49.05922,46.66191,44.92108,44.7478,40.79098,40.17947,37.01888,33.9174,32.62648,29.72599,29.21134,25.68013,25.85325,21.92941,22.78157,19.34768,17.86452,17.97538,14.39096,14.29918,12.27293,10.61356,9.437048,6.254417,6.531797,2.098564,1.640113,-1.329857,-2.829173,-5.699755,-4.823395,-9.547021,-8.259242,-11.9738,-9.764333,-14.0311,-11.9844,-13.77618,-13.85292,-13.05521,-15.76786,-13.47959,-15.17708,-15.89239,-14.05417,-15.27232,-14.86932,-14.97496,-15.08747,-14.38478,-14.90065,-13.17645,-15.4113,-13.43812,-11.64685,-14.06006,-11.11576,-12.08613,-11.59106,-10.50753,-10.855,-11.37466,-9.900269,-13.14578,-11.61393,-12.78299,-13.59147,-12.61451,-13.39996,-13.19142,-11.33468,-13.97064,-13.57428,-12.79951,-13.88425,-13.64241,-14.72453,-15.7472,-15.49359,-16.83649,-16.3703,-18.63171,-18.25101,-20.55443,-20.15448,-22.37584,-22.72143,-24.56839,-25.26824,-27.54167,-28.31967,-29.90187,-30.92968,-32.18011,-32.04202,-32.65952,-33.24962,-34.34374,-33.84428,-33.63049,-34.6486,-34.03118,-33.88343,-33.42001,-33.67556,-33.89021,-34.43686,-34.08387,-36.6367,-34.9359,-35.57962,-36.44326,-37.2029,-37.84475,-39.11405,-38.01936,-39.28211,-38.28812,-37.76234,-38.50448,-35.78317,-36.25366,-35.39766,-34.50457,-33.81231,-33.03503,-31.6059,-31.00467,-31.8156,-29.33504,-31.01539,-29.15836,-30.49793,-29.67826,-31.27569,-30.3792,-30.02066,-31.0875,-30.20024,-30.39682,-28.90014,-29.77994,-28.53284,-28.50517,-27.05527,-27.57308,-26.77202,-25.53941,-26.37331,-25.05074,-26.24379,-23.97826,-24.7799,-24.55501,-23.43869,-24.74752,-22.98522,-23.61088,-23.17773,-23.44199,-22.41651,-22.9092,-21.82048,-22.73193,-19.90772,-22.62247,-19.07194,-21.66223,-19.10237,-19.59712,-18.6956,-18.70644,-18.66034,-18.42202,-17.70945,-18.30134,-17.41083,-16.92176,-16.91115,-17.01756,-19.58481,-15.79228,-17.76267,-15.76833,-15.96569,-14.58191,-12.75416,-12.35859,-12.9512,-12.22075,-12.50887,-12.33714,-12.39295,-14.00804,-11.75616,-15.08467,-12.2996,-14.92926,-12.52333,-17.10434,-13.11977,-17.01046,-14.7009,-16.91452,-15.85326,-17.45383,-17.74361,-17.36839,-17.06417,-19.04898,-17.95955,-18.60399,-16.98348,-18.69589,-17.82923,-17.97665,-17.48212,-15.09787,-17.59277,-12.98767,-14.9236,-12.8499,-12.56623,-10.39966,-10.00796,-8.352101,-7.44284,-5.855025,-4.197602,-3.809399,-0.2977439,1.240472,1.518169,6.13998,4.5312,9.246447,10.14562,12.71312,15.06331,16.0638,18.68351,21.3459,21.66173,26.91844,24.9916,31.09294,30.34051,34.13065,36.05497,37.55859,41.01867,42.03841,43.75676,47.21547,47.23395,50.1115,51.23007,54.58601,54.6134,56.69146,57.98296,60.11252,62.55003,61.56242,64.98494,65.3058,67.08894,67.0036,65.21493,66.25727,64.40441,66.10806,66.75569,66.40827,67.44488,68.32992,69.54491,69.16845,71.72665,70.02999,72.56,71.95123,72.99788,73.57619,73.46416,73.9774,74.57621,75.26674,75.47226,74.16396,75.74387,78.823,75.43017,80.12193,77.38005,78.32331,77.1689,76.66712,72.90947,73.53466,70.10866,69.47002,65.87832,64.66568,61.36174,59.06401,56.002,52.41423,49.8492,44.16092,43.32863,37.39203,35.99735,30.67628,27.55935,22.77866,19.27829,15.64573,11.71843,6.338977,5.073406,-2.173897,-2.469647,-9.668432,-10.83028,-15.75794,-18.65409,-20.21444,-26.35695,-26.69208,-31.66516,-33.23081,-35.44935,-37.85372,-40.67706,-41.38755,-42.27099,-43.72405,-45.37514,-45.7683,-48.57819,-48.16904,-51.96442,-49.6755,-54.16709,-50.38224,-52.65917,-50.46794,-50.85183,-49.40525,-48.18441,-46.79254,-44.38923,-43.35601,-41.94072,-39.54302,-38.06526,-36.76887,-33.69824,-34.25267,-30.43919,-30.07403,-26.74031,-27.15015,-24.44097,-23.15465,-22.21455,-19.88783,-21.59767,-18.92609,-22.33067,-17.49005,-22.33313,-19.87376,-21.02077,-22.79899,-22.91558,-23.86541,-24.95015,-23.70418,-23.77052,-23.84849,-23.00034,-24.19928,-24.2077,-24.67682,-27.47832,-28.80288,-27.93451,-30.65551,-29.70183,-30.99537,-30.48386,-30.42378,-31.04191,-30.32641,-30.08417,-30.40139,-29.55224,-30.69242,-29.70504,-30.14591,-30.26144,-28.10027,-30.92561,-28.30153,-28.90069,-27.21168,-28.82271,-26.86675,-27.1729,-26.56532,-25.25153,-25.60911,-24.0527,-24.85886,-23.29529,-22.81904,-21.67465,-21.54972,-19.90497,-19.87704,-18.72196,-18.24557,-16.87281,-16.84226,-15.25146,-13.57795,-14.79366,-11.29881,-12.46995,-11.46448,-8.528597,-9.521312,-6.052185,-6.050589,-5.001267,-3.5571,-2.473076,-0.1417296,0.8827478,1.802653,5.315196,5.660422,7.734591,8.862384,11.34638,9.729365,14.16817,12.45677,14.19431,14.8523,16.36021,18.29558,20.11834,21.85668,23.15075,25.14479,25.95237,28.99335,28.51293,31.22357,31.12908,32.84728,34.1096,34.53828,35.6056,35.13525,38.08399,36.17497,38.53881,36.9098,37.63843,36.81055,37.90261,36.80897,35.19686,37.18396,31.73669,35.37251,31.9225,34.08077,31.6186,34.39825,32.15006,31.79691,32.05594,32.91878,31.4145,33.25328,30.65035,31.8932,31.13532,30.10352,31.44996,28.0281,31.02434,29.02918,33.08361,30.04541,33.53789,32.08276,33.42378,34.03265,32.88203,35.34592,33.7081,34.16888,35.3775,33.17467,34.90644,32.56709,35.03681,33.79859,33.50456,33.68075,32.45366,32.3448,29.81115,32.53388,27.95501,30.09756,25.72343,27.30398,24.33692,23.7445,21.71394,20.25812,18.01568,17.6968,13.53898,12.20278,10.49322,8.321076,6.832007,3.831212,1.476356,-0.5028605,-4.187184,-4.573013,-9.383468,-10.74946,-13.28041,-16.04098,-19.04238,-20.44958,-26.59834,-24.8805,-30.56454,-29.79851,-35.23004,-35.26831,-38.14543,-39.99237,-42.6658,-43.98843,-45.41063,-48.08573,-48.5008,-51.57648,-52.14337,-53.60791,-55.00379,-55.61599,-55.92087,-58.08272,-56.72968,-59.97999,-57.30878,-59.75247,-57.61195,-57.27761,-55.55116,-55.14204,-54.1249,-53.4977,-53.8722,-52.9127,-51.77451,-53.60663,-51.44832,-53.87769,-51.62682,-53.15309,-51.35172,-52.23459,-52.68987,-51.15509,-53.87434,-50.29805,-54.71927,-52.22589,-53.34246,-53.48202,-53.08639,-53.65728,-51.15872,-51.71821,-50.50196,-48.3359,-49.33224,-44.11655,-46.7848,-41.75382,-41.65157,-39.15135,-37.99365,-35.22263,-33.71076,-31.41044,-28.12502,-28.12972,-23.30255,-23.52806,-18.6797,-17.00131,-14.8459,-10.88629,-9.856313,-4.670048,-5.096061,0.03940596,1.6627,2.746795,7.882287,7.342447,11.80573,12.39331,16.09172,18.07731,18.75387,22.4286,22.16846,25.21759,24.85916,28.62669,28.00185,31.16427,31.44818,34.14618,34.75615,36.60402,38.50334,38.80673,40.79721,40.70021,41.86631,42.53094,41.24954,43.28998,41.08283,42.22204,41.45616,40.94872,40.43986,39.74658,37.22899,39.35823,34.35973,38.44269,32.61622,35.39622,31.29971,31.08978,29.71093,28.17922,25.91469,25.11892,22.93302,23.3119,20.17452,19.34875,17.88409,17.72367,16.24123,16.4213,16.26904,14.80168,17.46561,15.40867,19.09354,16.84576,17.90573,16.79351,18.43417,17.28769,17.06985,17.96594,16.38579,16.83087,17.31767,14.48792,17.90822,15.1362,17.22034,15.66376,16.39934,16.23335,13.97948,15.97357,13.35651,16.63948,12.8316,14.74238,13.37463,13.78855,12.61518,10.9373,12.82793,11.20385,11.32092,10.53901,9.94312,9.599515,9.535376,9.140517,7.627403,9.386314,6.004659,8.200439,6.083497,5.89007,4.89438,5.220688,4.87881,4.70643,3.774597,4.287391,1.649181,3.419557,-0.2649026,2.607974,-1.535752,-0.24049,-1.541312,-1.514052,-2.159633,-4.638522,-3.664875,-6.089417,-6.672711,-7.421098,-9.75087,-9.51279,-10.63433,-9.921781,-11.62658,-11.90876,-11.84966,-12.73706,-12.40282,-15.17138,-13.36329,-14.68754,-17.68573,-14.2691,-18.60327,-16.50672,-19.65459,-17.76992,-20.62168,-17.85095,-21.04022,-19.55024,-21.85189,-20.6006,-22.27302,-21.30992,-22.84859,-21.17919,-23.15941,-21.60979,-24.46039,-23.13528,-23.81092,-24.31345,-24.90753,-24.56861,-25.9559,-24.85437,-27.29155,-25.97949,-26.02731,-27.87763,-26.5984,-27.26445,-27.78422,-28.37929,-28.67223,-28.99072,-28.95954,-28.63959,-30.92338,-29.35836,-29.74891,-30.96357,-29.90065,-31.76317,-30.86902,-32.43061,-31.30033,-31.66655,-30.7345,-31.10516,-28.71276,-30.20899,-29.19742,-30.4564,-29.93205,-31.02296,-30.67096,-31.35345,-32.16982,-31.1914,-32.89753,-32.39587,-34.91091,-33.7447,-37.49398,-35.76199,-39.42948,-37.95208,-41.21787,-39.42746,-43.77578,-41.1961,-44.43126,-42.29117,-46.05943,-43.2777,-46.16488,-43.63051,-46.23535,-42.30558,-46.07333,-40.91924,-43.95007,-39.94085,-40.44491,-38.72966,-36.38477,-34.92799,-32.78283,-32.5204,-27.22151,-27.59551,-23.36046,-23.50204,-16.65994,-17.31902,-11.78588,-9.643742,-6.383069,-3.144659,0.1255798,3.539031,7.47682,9.969009,13.81374,16.74256,20.57645,23.73146,27.173,30.90258,31.52529,40.32656,37.19645,47.06196,43.5664,51.70494,50.39225,57.14657,56.58067,61.45648,61.72796,66.21691,66.05628,69.98635,70.37392,72.90751,73.79758,73.78068,73.43089,73.89961,75.38735,75.93261,76.48493,79.31569,78.46215,81.87126,81.57516,84.12454,84.31446,85.37002,86.29077,88.49831,86.84525,91.12503,88.24068,90.69702,91.01171,90.30341,90.82295,91.52697,90.95394,90.93837,91.27042,90.22945,91.64528,89.78767,91.86113,90.52784,89.86211,89.54673,88.09175,85.55557,85.89112,82.59352,82.49227,77.69868,80.54209,74.25556,75.18932,70.71443,68.13285,65.03218,61.86531,57.91111,53.46201,52.02854,46.76084,44.2336,39.74165,36.03968,30.74456,29.91574,22.43401,22.60789,14.06752,15.29656,7.424985,7.301389,1.146582,-0.3217667,-5.045099,-6.646702,-12.13838,-12.39939,-17.66065,-20.23964,-21.50718,-24.8131,-27.46004,-29.3092,-30.55443,-33.91433,-35.5119,-36.48056,-36.94639,-39.5103,-37.84261,-39.49426,-38.24252,-39.2764,-37.28616,-38.93719,-35.83397,-37.58451,-36.63221,-36.47815,-36.67115,-35.35209,-35.37676,-32.66693,-33.59041,-30.59666,-29.81153,-26.90834,-26.38227,-23.09965,-21.83708,-17.62481,-17.27789,-16.43947,-14.4664,-15.0352,-13.61411,-15.51786,-17.29106,-20.52633,-21.14879,-25.64837,-23.37053,-27.82519,-23.75142,-29.02612,-25.13782,-28.86471,-27.34978,-30.44292,-30.32085,-32.25793,-31.53664,-35.6757,-35.01592,-37.29776,-39.83096,-38.11586,-43.55412,-42.16339,-44.66744,-46.3455,-47.01228,-48.34138,-51.19647,-50.26038,-54.25557,-51.98291,-55.40217,-55.12731,-57.35926,-56.43198,-58.8418,-58.09617,-59.89143,-59.23913,-59.52437,-59.6912,-58.93487,-59.76092,-57.26847,-60.11823,-56.31343,-57.86077,-56.92924,-55.71774,-54.94745,-54.3861,-51.5188,-52.18502,-48.77742,-49.66119,-46.0059,-45.98483,-42.13876,-42.40334,-38.04338,-37.10958,-35.01725,-32.71046,-30.40986,-28.52633,-25.83187,-24.15429,-21.43794,-20.15234,-17.89903,-14.39636,-13.44811,-10.46304,-8.731404,-6.640122,-4.882288,-2.09789,-1.613555,0.3022145,1.723003,7.115395,5.308754,9.535818,11.07587,10.62881,13.61775,14.27202,14.21039,14.67008,15.01045,14.27996,14.9788,14.12093,15.32889,15.53499,16.36365,17.06594,16.93359,18.53708,20.34678,20.9781,23.63166,22.09891,25.81405,24.41301,26.06543,23.75604,27.42648,22.88943,25.81773,21.68714,23.28042,23.07951,24.74995,23.74245,26.6262,24.37896,28.26349,25.83395,29.62045,27.63835,30.35019,28.28792,31.90162,30.59953,32.55338,32.29866,33.40918,33.63476,35.44894,35.02718,35.98585,36.33728,36.23353,36.06617,37.5551,37.42342,36.50462,37.63832,36.42806,38.45306,35.46584,36.29369,34.77525,34.40594,32.73559,33.47249,31.13441,30.80606,30.70495,27.20514,29.7121,24.66812,26.67612,21.62361,24.43284,20.04505,20.0331,19.07884,16.15616,16.8137,13.20913,13.1412,10.18288,10.17849,6.64462,6.806568,3.23501,2.715275,0.9678351,-1.248543,-2.205908,-4.878563,-4.945283,-8.890251,-8.522266,-11.42063,-12.36283,-13.57997,-16.24308,-16.13291,-17.97959,-19.01833,-20.56835,-21.37758,-21.32703,-24.13343,-23.28522,-26.04584,-24.0196,-28.16075,-25.47934,-28.48508,-25.92552,-31.23782,-24.77294,-29.74096,-25.90861,-26.78672,-26.74848,-26.05305,-25.71503,-26.39312,-25.60858,-26.44335,-26.05459,-25.15848,-27.36728,-24.93073,-26.31109,-25.28316,-26.75928,-26.13527,-25.95803,-27.51307,-25.95387,-27.47651,-26.43195,-28.28372,-27.47144,-29.21965,-26.3988,-29.36183,-26.31899,-30.21185,-26.22561,-29.0284,-26.53399,-27.48529,-27.30161,-25.27663,-26.28388,-23.975,-25.71235,-23.44766,-23.4876,-22.05525,-20.89835,-18.65198,-18.63196,-15.77214,-12.82663,-10.85809,-9.197998,-6.365952,-1.983776,-3.22495,2.638254,0.9172473,6.023765,5.687065,8.393081,9.494839,12.39954,12.20842,15.68533,16.36754,18.65383,18.5275,21.65172,20.29186,25.56622,22.06795,26.88476,23.86231,28.82301,26.72836,28.31186,27.87118,29.40286,27.96642,30.31049,29.30044,29.54536,30.41632,28.72502,31.4647,29.52134,31.06813,29.66662,29.75967,29.72532,29.48414,29.32501,28.16622,28.79259,27.4744,28.09529,25.75329,25.46474,25.55591,23.65697,23.47763,22.17812,20.6076,21.36056,17.50693,20.46175,15.70602,17.39588,13.69806,16.39759,12.62898,14.25086,12.23432,14.73524,11.85165,14.37364,11.53125,10.73381,11.54992,9.551163,10.13732,9.411523,8.200817,9.833492,7.787911,7.352494,9.487523,5.871152,8.862819,5.867029,7.905291,7.424003,6.868441,7.959852,6.918127,8.083695,7.280089,7.758138,6.621246,9.435293,6.012424,8.212323,5.601627,7.925012,4.636984,6.217097,3.995414,4.494918,3.800229,0.5462208,3.043654,-1.974279,2.34234,-3.25677,0.7940796,-0.7519587,-1.127793,-1.432507,-0.04933723,-1.630424,-0.5799703,-1.381706,-1.655841,-1.870815,-2.278059,-1.753568,-4.570957,-1.759721,-6.178912,-2.081975,-6.344285,-3.488152,-7.105583,-6.230931,-6.928427,-7.163509,-9.620681,-8.762764,-10.85878,-10.58979,-13.28186,-12.27743,-14.71273,-15.05462,-16.73437,-17.9364,-18.17863,-19.10735,-21.48143,-20.30412,-23.88206,-22.16024,-24.99038,-25.391,-25.62548,-27.54648,-27.17211,-28.81261,-29.01022,-29.2762,-30.01882,-29.75447,-31.67937,-30.6667,-33.16435,-31.62892,-34.73354,-32.20515,-35.32008,-34.49144,-34.2368,-35.53811,-35.91461,-35.78571,-37.37967,-36.23191,-38.36497,-37.70705,-39.21196,-39.30074,-39.0909,-39.40083,-40.29108,-41.23343,-41.05049,-41.38085,-42.37445,-43.5223,-43.01261,-44.09052,-44.36804,-43.87931,-47.56467,-43.29702,-48.9835,-44.82915,-48.21697,-48.12829,-47.09523,-50.29259,-46.6094,-48.17087,-46.90439,-46.52681,-46.86303,-46.10961,-47.65804,-47.83611,-48.24023,-48.94364,-49.81998,-51.60294,-50.89574,-53.47163,-54.52301,-54.61518,-55.88707,-55.28743,-58.33482,-58.08746,-57.03237,-60.85378,-57.44885,-61.3896,-59.0238,-59.72201,-60.16542,-57.86397,-59.2392,-58.91991,-56.432,-56.33315,-56.60864,-53.31587,-51.59634,-51.56158,-46.70943,-46.53609,-42.33237,-40.10349,-37.93537,-33.36485,-31.49425,-27.59434,-23.86535,-19.898,-16.9913,-11.14357,-8.7272,-2.917348,-0.6836248,7.482651,9.068398,14.97114,20.13508,23.68497,30.13489,33.60379,38.00689,43.75475,47.48318,53.77207,56.64138,61.58942,66.02225,69.6481,74.90943,78.20641,81.89423,86.75623,88.6467,93.84919,94.17254,99.42134,99.66757,104.4523,105.3511,108.7762,108.4934,112.6408,112.2087,114.3129,113.4001,112.6655,112.1094,110.452,111.9851,110.3474,110.3008,110.4419,110.7425,110.2624,110.127,109.745,110.4381,108.9496,109.3312,109.2834,108.5165,108.8692,106.3254,108.7124,105.2124,108.5942,102.9087,107.1585,103.1235,105.5028,104.1372,104.2595,104.3637,104.726,103.1566,102.8638,99.66712,99.96319,96.49609,95.76313,93.88573,90.20276,89.31291,84.71427,85.74013,79.4114,77.52697,76.70029,70.38638,71.75633,62.62077,64.69251,57.51473,54.87567,51.70182,47.78563,42.93097,41.27646,35.46053,33.24777,25.83257,23.57669,18.56497,13.09346,11.33713,6.118137,4.269394,-2.089384,-0.2309556,-8.084908,-6.430909,-12.32104,-11.84369,-16.30231,-16.84526,-20.53055,-21.98497,-23.23488,-27.8969,-26.18318,-32.81575,-30.03549,-36.30013,-32.42995,-39.12506,-37.51718,-39.79757,-41.12447,-40.82084,-44.31398,-43.03681,-43.99905,-45.40385,-44.59085,-45.11857,-46.06687,-45.51196,-46.04377,-44.13726,-44.4672,-43.92699,-43.62621,-44.1681,-42.53522,-42.97581,-41.94017,-42.45078,-41.07279,-41.54685,-42.67835,-41.47482,-44.50785,-43.6019,-46.98003,-47.83683,-49.25071,-48.99826,-49.61047,-48.42836,-49.37612,-48.5659,-48.30172,-48.79709,-47.85625,-48.59405,-47.64437,-47.51404,-47.21127,-46.40463,-45.82694,-46.34741,-44.30058,-46.20182,-41.92732,-45.00352,-40.85115,-43.94859,-38.89044,-42.13423,-36.72267,-39.2351,-35.41452,-36.73606,-32.00877,-34.97888,-30.20355,-32.67481,-28.78719,-30.23087,-26.07418,-27.65164,-25.02209,-25.30536,-22.97127,-23.31575,-22.41026,-21.62002,-20.08903,-21.65334,-18.10494,-21.75712,-17.61841,-21.97598,-18.74909,-21.33558,-19.3182,-23.40524,-21.35656,-23.46377,-24.3695,-25.22834,-26.34174,-27.71566,-28.16843,-26.29224,-30.5579,-26.11014,-30.75603,-26.06599,-30.89319,-26.47175,-28.87314,-28.66672,-29.18403,-29.4761,-29.03877,-30.47696,-29.10039,-32.09854,-27.81877,-33.10906,-28.23658,-34.03914,-29.08019,-32.9755,-30.12188,-32.96052,-31.11112,-32.64912,-33.16993,-29.9453,-33.57863,-30.28282,-33.55084,-29.06695,-32.71346,-29.30132,-30.67308,-29.0207,-31.03628,-27.82715,-31.38568,-26.86323,-29.9748,-26.72387,-28.95677,-25.94256,-26.7033,-26.37433,-25.62175,-23.91115,-25.19121,-22.6817,-24.0563,-21.41023,-22.56047,-20.18691,-21.83483,-20.1146,-19.37657,-20.61061,-18.92378,-20.83583,-18.42726,-19.69616,-16.12896,-17.57967,-14.97632,-17.36204,-13.68,-18.03764,-14.24718,-17.74746,-15.14302,-20.08055,-16.92243,-20.9942,-19.14385,-22.57693,-20.8044,-24.58793,-23.11793,-27.34412,-24.95797,-29.50699,-26.31084,-30.86698,-27.43002,-32.167,-27.44538,-34.39133,-27.00722,-33.70019,-29.20473,-32.02978,-29.62084,-31.72998,-29.35596,-29.80518,-28.11614,-27.85197,-25.78761,-26.31069,-22.82989,-23.61135,-17.62273,-20.75335,-12.78079,-16.42555,-9.280031,-10.29493,-5.516146,-4.43815,-0.4049891,1.474777,4.999019,7.500231,10.42431,13.7062,16.29491,21.05592,23.93793,26.99087,30.27048,34.40434,38.83615,39.30173,45.88588,45.4874,51.47895,51.41275,57.64492,57.08142,63.63005,62.80609,67.56151,68.70533,72.25919,72.71357,75.74176,78.76622,77.5679,82.6435,80.53259,85.68647,83.19295,86.11526,85.53192,85.87452,86.16158,85.92478,80.72113,84.79433,78.19218,82.94119,78.43834,81.85835,79.51946,79.87932,80.26812,80.58246,79.52132,80.25708,79.71487,80.20284,78.67339,82.23521,78.56396,80.33842,81.65084,79.37763,83.53175,81.01299,84.60511,83.50513,84.66391,82.87975,82.25671,81.03021,80.31844,78.26492,80.19418,75.53764,77.78136,72.36629,75.69445,71.66419,71.32289,68.5984,67.56771,63.62158,63.77801,59.18286,57.7846,53.35861,52.61813,46.95462,45.79708,39.00898,38.1535,31.46873,31.23658,22.16764,20.73128,14.07147,12.10046,5.080712,4.047432,-4.318722,-3.901588,-12.94007,-13.18039,-20.55226,-22.29898,-30.0084,-28.74627,-39.11675,-36.25323,-48.11019,-42.89648,-53.76224,-50.93378,-58.41647,-58.17484,-64.19365,-62.13019,-68.44721,-65.93528,-70.83427,-68.90836,-72.70715,-70.73585,-75.17231,-71.18656,-76.51644,-70.92166,-76.3898,-69.76215,-74.06873,-69.50857,-70.29334,-66.10791,-67.31994,-62.4755,-62.75822,-57.77675,-57.6874,-54.25656,-52.24794,-50.81533,-47.92405,-45.69591,-42.74865,-42.40198,-40.05911,-37.80849,-38.14587,-35.51928,-36.17227,-36.54911,-35.34312,-35.89516,-30.76189,-34.108,-26.73961,-31.41738,-23.95955,-28.32482,-22.18307,-24.86143,-20.05697,-22.09554,-18.44551,-19.37836,-16.20778,-17.66842,-13.17334,-17.24478,-13.10836,-14.14293,-14.95228,-12.41738,-14.65332,-12.61566,-14.48911,-15.00381,-14.62439,-15.10993,-13.67423,-14.88128,-13.28424,-12.52724,-14.3322,-9.609033,-13.84691,-9.171799,-12.2117,-9.681839,-10.86856,-10.40274,-10.23753,-8.905316,-10.54471,-9.367271,-9.183657,-8.230362,-8.939469,-7.4349,-7.925628,-8.157836,-6.530546,-8.340395,-5.414002,-8.282885,-4.330067,-7.437428,-4.117082,-4.267129,-4.773764,-1.297845,-5.727094,0.5671388,-4.129728,0.8806884,-2.432139,2.462429,-1.728539,2.892195,0.1231452,5.000298,1.855598,5.613861,4.439725,6.75207,6.238086,8.565901,8.322567,9.793744,10.75559,11.46765,11.62092,14.8718,12.7402,16.95687,13.44787,20.00036,14.36272,21.78819,17.79981,21.23207,21.75639,22.96216,23.61007,24.51995,26.06013,26.13578,26.90953,27.48174,29.10495,27.40222,31.18409,28.89476,31.44041,30.09402,31.32854,29.71802,29.55301,30.34914,29.89678,31.38289,30.79479,32.28937,33.65507,33.26013,36.69109,33.10101,39.89276,34.69504,42.27959,36.97142,43.4934,39.92723,43.70741,43.18286,43.21556,44.62979,43.60477,44.7123,45.37484,43.96878,45.21073,45.75794,43.76907,46.00609,42.28147,43.89787,41.39196,43.24651,40.15086,40.63236,37.72982,37.77995,34.72645,36.351,30.47685,31.57457,27.78284,27.58656,23.69223,23.28539,20.91997,17.34268,16.60492,13.71934,12.55307,8.832288,7.25577,5.050073,1.313681,-0.3336187,-3.117906,-5.219234,-9.396884,-9.511871,-14.25288,-14.75027,-16.98911,-21.52564,-21.25682,-25.343,-26.93903,-28.67598,-31.79601,-31.92568,-37.15071,-35.17158,-40.81917,-40.17616,-41.88671,-43.55118,-45.13592,-46.46379,-45.82516,-49.35656,-47.36374,-50.64352,-47.76446,-51.40272,-47.78083,-50.70167,-49.1251,-50.24526,-51.83023,-48.41489,-51.70738,-47.51717,-49.62253,-43.8233,-47.62057,-43.71066,-44.78003,-43.84034,-44.10125,-44.46067,-43.33475,-45.95259,-44.85815,-46.61432,-45.7978,-50.12199,-47.57357,-54.1096,-49.96265,-57.59102,-54.73582,-58.84305,-58.49442,-59.23472,-58.96879,-59.37559,-61.81755,-59.00625,-60.20501,-59.88274,-59.73813,-58.78021,-58.92299,-59.20593,-55.09215,-57.73254,-53.65793,-54.26985,-52.25845,-49.588,-50.49772,-44.43077,-47.26744,-39.67378,-41.40049,-36.53836,-34.44784,-31.68562,-29.46942,-24.18178,-23.82116,-17.07722,-19.22494,-9.326501,-12.7762,-3.681065,-6.002154,1.697696,1.554812,7.107096,8.280711,12.49589,15.14883,18.69163,20.86391,25.54067,24.03567,30.0777,30.81285,33.4427,36.22229,36.60995,42.14652,41.68423,45.86783,46.21294,52.18454,49.15114,56.48539,56.35327,57.7626,60.2246,60.39633,61.77552,63.05379,61.62257,63.66304,61.30556,62.21555,60.79637,59.28473,59.09035,55.63533,55.70636,52.90813,51.97616,48.12275,47.91721,43.44396,40.26628,39.2017,36.60527,34.68294,32.76929,32.15189,29.14149,28.69925,26.45076,26.21418,27.2855,23.95183,27.00271,22.75256,25.84471,19.98057,22.92685,17.97237,18.80422,15.62293,16.03174,13.58729,12.78786,10.55166,9.938833,8.666487,6.434516,6.733898,3.675752,4.802265,2.076374,3.262607,0.4057055,0.4444288,-0.9565059,-0.635494,-1.322023,-3.35487,-2.218719,-2.856354,-4.740682,-3.30166,-4.722183,-5.529354,-4.405512,-3.783187,-6.271891,-1.656074,-6.067971,-2.032143,-4.773734,-2.196332,-2.454608,-2.474379,-1.435729,-0.9816358,-0.5334071,0.164523,-0.6041734,1.741976,0.376377,2.721503,1.654551,1.32604,4.592157,0.0108952,5.033648,0.25913,3.733331,-0.5515641,3.115177,-1.287845,1.395018,-2.73372,-1.280906,-4.960565,-3.650654,-8.263283,-4.740564,-10.71824,-7.423665,-10.76889,-8.675267,-10.11162,-11.92435,-9.597588,-12.51884,-8.267119,-14.16259,-6.952888,-14.76231,-9.085532,-12.56513,-11.02685,-12.73617,-13.03749,-13.13448,-13.94802,-13.98278,-15.25902,-15.7792,-15.86967,-17.10424,-17.5722,-19.99284,-19.11067,-21.84502,-22.48482,-23.2219,-25.55821,-25.75901,-25.89295,-24.71261,-26.86784,-24.16438,-27.28166,-24.40965,-25.85906,-25.72765,-25.51123,-25.33899,-26.39978,-24.07194,-27.14046,-23.53693,-28.10465,-24.09267,-27.65813,-24.99291,-27.92793,-25.60082,-28.46048,-25.85128,-28.48526,-27.13807,-28.76168,-28.37837,-28.60007,-28.63896,-30.08581,-29.82478,-29.71222,-28.96004,-27.9827,-29.40751,-28.07612,-29.62546,-28.99505,-31.50994,-30.92287,-33.9499,-32.12486,-35.45058,-35.3342,-36.9636,-38.29824,-39.80434,-39.69373,-44.30808,-41.6369,-47.05003,-43.27668,-47.73674,-46.76054,-48.7899,-47.91912,-51.2612,-47.93178,-51.43507,-48.25274,-51.1777,-47.54384,-50.05355,-46.97768,-48.2545,-46.52638,-44.58843,-44.78163,-42.3974,-41.38038,-38.52804,-38.60297,-33.10912,-34.24734,-28.40802,-29.05023,-23.35096,-22.74849,-17.47631,-17.61968,-10.04818,-11.0612,-2.993316,-4.823596,1.493078,4.097654,7.068296,12.99237,14.53361,18.73646,22.61602,26.0843,31.00824,32.51502,38.34163,40.641,44.093,48.78132,51.28013,53.83486,57.71152,61.28618,60.85858,66.07632,62.02752,68.40209,66.9637,71.77998,71.46331,75.02897,76.92465,79.4937,82.64108,84.38856,86.94422,88.53425,91.36268,92.56261,94.48019,96.54999,96.96622,97.96766,99.95127,98.13165,101.9024,97.77427,102.0638,97.56728,101.5641,95.61155,99.0798,93.0356,96.577,89.69084,92.25288,86.78502,87.46573,85.16813,82.17215,81.57536,77.84102,80.02927,72.93925,73.8547,68.25141,65.99843,62.9132,58.83684,55.19383,52.4904,48.55365,44.57125,40.65781,36.85816,33.3881,28.23143,26.24689,20.99232,18.54684,14.34292,9.226299,6.586341,1.327068,-2.229907,-5.538731,-9.878849,-10.55666,-15.10912,-15.49788,-19.67025,-20.12151,-22.31184,-23.61772,-26.40936,-26.62528,-29.65095,-29.74998,-32.89237,-31.99985,-33.94831,-34.47898,-35.52808,-35.22038,-36.31284,-35.66655,-37.26504,-35.57697,-35.94576,-35.10611,-35.12441,-33.19678,-33.87411,-32.42429,-33.01285,-29.82631,-30.55137,-27.96138,-26.32125,-27.22786,-23.44272,-22.63404,-23.00041,-18.90774,-20.94455,-16.56566,-18.99277,-17.27575,-15.86946,-17.74573,-15.75638,-17.1136,-16.73702,-18.52098,-18.39727,-21.19924,-17.12745,-20.47771,-20.25074,-19.88904,-20.51928,-21.17725,-21.15782,-21.64445,-21.13709,-22.42548,-22.17351,-23.57952,-21.46985,-24.31961,-21.05174,-25.13197,-21.39381,-23.32096,-21.89032,-22.45931,-22.4892,-21.32031,-22.45472,-20.68088,-23.75246,-20.45061,-22.05754,-19.88585,-21.06173,-18.22361,-21.01555,-17.21716,-18.0841,-18.04547,-15.97053,-17.54536,-13.45619,-16.15988,-11.40069,-12.17986,-11.57013,-9.55635,-9.216542,-7.263657,-7.763558,-4.985758,-6.747388,-2.088703,-4.59479,0.3653352,-2.796625,2.003944,-0.4859862,2.271045,2.415902,2.137186,4.885368,3.586319,7.646064,7.264268,9.726027,10.86346,11.37493,14.96601,12.82976,16.22321,15.1689,15.03292,17.61353,15.87402,16.14102,16.89077,14.92298,17.61624,15.02909,15.87877,14.4759,14.32367,13.88389,12.94984,11.26549,11.29264,9.871516,8.520261,7.813777,5.786368,4.708903,2.208096,2.736946,0.6502967,-1.766934,-2.370225,-5.111809,-6.314495,-6.488293,-9.893916,-10.88751,-11.03186,-14.84131,-12.26368,-17.63772,-13.70701,-19.03645,-14.12273,-18.61695,-14.77365,-19.508,-15.83247,-20.42589,-16.75737,-19.76407,-18.83523,-20.74147,-17.43857,-20.32112,-18.17867,-19.97628,-19.10834,-19.33176,-18.92483,-19.83697,-18.32693,-19.29081,-18.22362,-18.04857,-19.39377,-16.76567,-20.35667,-17.76096,-19.5539,-18.3596,-19.68067,-19.75249,-18.80221,-19.6631,-18.88353,-20.96293,-20.47047,-20.1132,-21.59849,-21.34553,-22.91736,-22.75772,-25.26279,-22.48557,-23.85341,-22.20029,-24.92841,-23.87659,-25.74603,-26.25121,-28.47527,-28.36164,-31.1472,-31.46642,-32.52387,-37.00331,-33.30552,-39.92627,-35.8326,-43.43507,-38.44356,-46.85858,-41.94582,-48.15726,-46.77575,-48.51876,-51.25835,-47.99304,-53.37277,-50.6361,-54.10947,-51.51555,-54.89419,-52.69427,-54.5942,-52.50177,-54.59703,-49.58099,-54.53704,-47.11316,-50.68384,-46.96389,-45.16628,-43.76242,-41.98461,-37.5878,-37.1566,-32.48723,-30.55404,-26.00306,-24.29142,-19.36768,-18.28654,-12.35106,-10.4514,-6.015643,-2.413519,0.8704894,5.543872,7.059852,13.2247,12.99245,20.15495,20.75566,26.46581,26.88322,32.64477,33.53271,39.21275,39.66987,45.74031,45.42149,51.78347,50.37695,56.80001,55.70505,60.87848,59.55991,65.76223,64.69596,67.46113,68.5641,71.02487,71.56816,70.30715,70.66595,68.69217,70.36334,68.48512,71.69816,69.07184,71.91206,72.00964,72.88508,73.03371,75.46817,73.2578,77.79206,76.07039,78.60567,77.93691,79.23869,79.73905,78.55815,80.16858,77.0496,81.02855,79.16973,80.63371,80.43477,80.64238,82.79666,83.23127,85.56159,84.75203,85.94009,83.25966,84.64807,82.18539,81.45952,77.7991,77.26597,74.33401,72.35361,72.39604,65.73556,70.291,61.39426,64.29413,57.71935,58.14072,50.64528,53.02266,45.10121,46.47261,38.68486,35.863,33.6036,26.2,25.81444,17.01195,17.54968,7.231578,8.361999,-0.9332711,-0.900853,-10.11679,-9.365391,-16.38091,-18.37444,-24.91191,-26.74544,-30.8761,-34.36261,-36.6498,-39.4989,-43.82461,-45.73162,-46.63707,-51.71313,-51.27538,-55.17736,-56.24961,-55.21896,-58.05427,-57.73876,-59.10332,-58.92277,-58.29585,-59.87586,-58.52471,-59.15139,-56.26661,-57.69905,-53.44373,-55.7169,-50.98601,-51.69041,-48.17245,-46.54166,-45.62639,-43.23144,-42.32333,-38.46424,-37.07221,-36.17158,-34.40828,-31.4334,-30.29383,-29.17168,-28.71985,-27.84457,-27.91323,-27.60659,-29.09218,-26.95152,-28.53233,-24.33215,-25.12054,-21.80738,-24.21316,-19.43531,-21.24759,-18.1613,-18.94112,-17.06471,-17.79957,-15.45572,-15.51916,-14.82074,-15.34763,-14.32163,-15.11119,-12.48199,-14.21146,-13.68725,-11.00845,-12.62541,-10.17814,-10.84532,-8.870668,-10.33028,-7.579836,-10.56681,-6.721178,-10.65853,-9.132746,-10.46613,-11.37899,-10.65596,-12.24143,-10.67241,-11.99932,-9.438728,-10.65054,-9.97138,-9.699836,-10.22854,-9.902199,-8.895821,-10.62997,-8.48328,-9.193873,-8.894831,-8.56992,-10.12647,-8.602035,-8.640866,-9.395272,-8.133658,-9.762591,-8.47371,-9.448143,-7.924252,-8.451198,-7.894891,-8.053024,-6.977204,-7.500126,-7.163931,-5.689889,-7.211712,-6.248378,-5.668801,-4.546253,-5.540996,-3.827876,-5.279075,-1.598132,-5.730365,0.3761139,-5.395462,1.039171,-2.345115,0.3790681,-2.696876,1.202065,-1.533066,2.468071,0.3096921,4.408535,3.716796,3.676843,6.299569,7.125068,5.772174,9.432873,6.954273,10.11703,9.228974,10.235,10.78736,10.63874,12.69066,10.93172,13.24522,12.14639,14.12709,12.0135,16.0874,12.38478,16.06578,12.90086,16.70895,14.87634,15.62222,15.93685,15.75074,16.84011,16.19315,17.33626,16.46332,18.35686,16.30293,18.70975,17.47168,19.55742,18.8132,20.90721,19.68665,22.28481,20.96986,20.45119,22.04135,19.26883,22.86132,20.28948,22.7035,23.45764,23.91317,25.22233,26.20529,27.72428,26.73316,30.86578,28.33815,31.50025,32.0788,32.38555,35.96216,32.73254,37.61851,34.05992,39.3007,35.02924,39.96728,35.45307,40.36334,37.47151,39.78341,39.09355,38.87303,38.71115,38.1762,37.44749,36.68152,36.22448,34.66458,33.96544,32.95819,32.37102,28.50642,31.0819,25.30747,27.62201,22.43642,23.26873,19.33403,18.80195,16.55753,13.75278,12.42021,8.32942,8.210427,3.352928,2.292489,-2.072429,-4.474843,-6.331246,-11.01626,-11.20221,-16.77396,-17.46471,-22.45315,-22.42643,-27.72116,-25.65427,-32.14782,-29.22123,-34.19883,-33.09116,-38.62821,-36.83487,-39.55461,-40.98837,-42.66058,-42.30135,-45.09329,-44.40202,-46.16087,-46.78082,-47.96779,-46.30679,-46.95394,-46.76762,-45.46359,-47.99696,-46.11469,-48.51692,-45.83286,-50.05899,-46.72409,-51.90965,-48.10292,-52.64985,-50.01991,-53.88207,-52.01055,-53.98963,-53.6,-54.55114,-55.20558,-55.14351,-57.20506,-53.96173,-58.50211,-54.5766,-58.67736,-54.73253,-58.95004,-55.16952,-60.42551,-55.8821,-57.88224,-55.8626,-54.64856,-55.47738,-51.33543,-52.65301,-49.50496,-49.41072,-47.38687,-47.1177,-44.37267,-41.96037,-41.98594,-38.11752,-37.09967,-34.19518,-31.99614,-30.39087,-26.34954,-26.63186,-21.80709,-19.43769,-18.5674,-13.75132,-13.60401,-9.534864,-7.245192,-4.403829,-2.669782,0.3541462,2.018732,5.921429,5.862976,9.954716,8.921864,13.39317,13.29559,17.17368,16.44085,21.61649,20.93627,25.16066,26.24303,28.11528,30.63387,31.57893,34.06776,34.2309,37.26244,34.03648,38.63001,36.22449,38.86972,36.80462,38.11516,37.02752,35.48733,36.29882,32.01453,33.98524,29.3673,30.90158,26.67099,26.69527,23.28876,22.95007,19.86974,19.17049,15.97184,15.85797,13.14784,11.79357,11.22826,9.357568,8.164177,6.972193,7.705937,4.782745,8.360375,4.537631,6.634616,3.994524,4.387772,2.373997,2.693962,0.8333831,1.480711,-0.4299306,0.5173351,-4.256956,-0.3458308,-4.054007,-1.929917,-4.58565,-2.849407,-6.661867,-2.801743,-5.516488,-3.376129,-5.596571,-3.621801,-3.093619,-4.040724,-0.8673549,-3.406187,0.2854124,-1.664446,2.035134,-1.049635,3.262475,1.174191,3.18367,4.334805,3.616472,6.663231,4.703528,7.992074,6.923472,9.186983,9.953413,10.31881,11.3633,11.43308,14.1058,12.80997,16.81077,13.18586,19.27566,14.61881,19.74106,16.40647,21.49869,16.22713,23.24803,17.09057,22.02514,19.5464,20.89647,20.36646,18.93066,18.81692,17.33009,16.48231,16.85487,13.73333,16.94638,13.34992,17.25227,13.88745,16.12373,14.45746,16.17943,15.58408,15.70058,16.99009,16.16284,16.74403,18.22686,16.35013,18.86762,16.29699,20.05862,17.35612,19.22803,18.07695,18.17423,18.12022,19.00374,18.53967,19.19713,17.89012,19.43698,18.20828,18.81213,19.00779,18.16526,19.9055,18.56508,20.01462,18.9853,20.59022,17.34401,22.09185,18.03321,21.88681,18.62745,21.52985,19.02943,21.39773,18.33706,21.9019,17.27267,19.66932,18.81256,18.00473,18.3384,17.85824,19.03254,17.10003,17.74707,19.2979,17.05206,18.61753,18.68892,16.98785,20.13996,17.67062,21.63965,18.52014,20.75881,19.44238,20.38665,19.39248,19.944,18.9619,18.55856,18.28322,17.95727,16.77901,16.51541,16.12924,13.77323,16.6618,12.10385,13.84112,10.61892,11.92731,9.242903,9.628702,7.620978,5.573145,5.621945,3.522263,3.612084,0.4481602,0.3015525,-3.30485,-1.218759,-7.04998,-3.709723,-10.05883,-7.185518,-12.12282,-10.04344,-15.2799,-14.26007,-17.29496,-17.95791,-19.92244,-22.25235,-23.70742,-24.07632,-25.77703,-26.95988,-28.76729,-28.84017,-30.67574,-30.53312,-33.68937,-33.10005,-35.25858,-33.66945,-37.0987,-34.89185,-37.43934,-36.98511,-37.56609,-38.61934,-36.87398,-38.30512,-38.89888,-36.26769,-39.34839,-35.82571,-38.3437,-36.62842,-36.80804,-35.99286,-35.56701,-35.40701,-34.93436,-33.50526,-32.17409,-31.64246,-29.78894,-30.35482,-27.8329,-29.15139,-25.07471,-27.88938,-25.3001,-27.0063,-24.36309,-24.42959,-25.37408,-24.6595,-24.74786,-24.90129,-26.1161,-24.01947,-27.04871,-26.09801,-26.69774,-25.24522,-26.74494,-25.87471,-27.15548,-23.70291,-26.82308,-23.14526,-26.22201,-23.37564,-24.22933,-21.14104,-23.86223,-19.50235,-23.12388,-17.40163,-22.72735,-16.91633,-20.81116,-16.65057,-17.63493,-15.94471,-15.43851,-14.56529,-13.99128,-11.72425,-12.17188,-10.75952,-7.89588,-10.12741,-4.86919,-8.370989,-2.8022,-4.826952,-1.820372,-2.645331,1.595002,-1.121973,4.127227,2.387484,5.881137,6.893081,7.113667,10.15702,9.893041,13.13739,12.55264,15.47094,14.42895,16.48774,17.34737,16.5444,19.54787,17.89432,20.97183,19.00921,23.82952,20.6529,24.2641,25.07516,25.1995,27.18812,27.9807,28.98835,29.41024,31.33882,31.13082,33.69914,32.10362,34.20123,32.01886,35.00045,30.15836,34.34951,29.22224,31.48407,29.77357,27.79518,27.47665,25.00033,23.30354,22.42747,19.78857,18.51349,16.64827,14.52287,14.62563,11.25354,10.69343,9.368901,6.203756,7.112974,2.258109,3.215134,-1.125647,-0.6730669,-3.039232,-6.024114,-6.636426,-8.887474,-10.68737,-8.386479,-16.24824,-9.962795,-17.33804,-14.23715,-17.59943,-15.9503,-19.47895,-17.55635,-20.0292,-16.43775,-20.49109,-17.41252,-18.02165,-17.99449,-15.91786,-17.97272,-14.51474,-15.21075,-13.74252,-12.66366,-11.92553,-10.59189,-10.13918,-8.906245,-6.058701,-6.988847,-3.870809,-3.380899,-1.624349,0.1875279,1.270769,2.943824,3.556957,6.86893,5.388086,9.261094,9.594308,8.434004,13.28959,10.00221,15.16169,12.3309,15.53184,14.78565,15.3955,16.64317,16.36092,17.39074,16.37929,17.51545,15.20895,17.23928,13.199,14.87517,11.36177,12.28242,9.271186,7.987531,7.21584,5.367652,6.247246,1.312684,4.327699,-0.4229896,2.97561,-1.754967,1.183248,-1.049353,-1.596174,-1.198793,-0.3638593,-2.13353,-0.9800519,-0.6511921,-1.811513,-0.2422419,-2.043631,-0.8274156,-2.062933,-0.1234046,-1.665575,1.472905,-1.617415,1.992074,-0.02778648,2.885555,0.9405148,2.969947,2.227153,4.353084,3.088932,4.29239,5.220532,4.237436,6.027867,5.754085,6.634034,6.562206,6.658675,8.94899,6.598921,10.25534,7.458735,10.19308,9.333614,10.05413,10.81889,9.639726,11.2643,9.33068,9.669576,10.96961,9.388777,10.88525,10.91839,10.94732,12.18967,12.56612,12.73109,14.51278,12.45656,16.06817,14.3407,15.14559,18.6452,15.27802,20.61736,17.83519,20.09016,20.61746,21.81556,21.82813,22.4468,23.46718,24.19823,23.31089,25.83453,25.21995,24.39938,27.58806,23.19904,28.26768,22.43943,27.75059,21.2567,26.70302,21.54108,23.59776,21.02361,20.45882,20.56222,18.44049,17.34554,16.20894,15.73194,14.97367,11.85704,13.9803,5.821177,11.46489,3.264416,8.612054,0.9161253,3.778186,-1.050488,0.5003408,-4.07606,-3.784687,-6.630335,-6.952115,-10.08865,-10.53588,-12.39448,-14.70497,-15.41074,-16.94271,-19.41675,-20.45099,-21.80787,-23.48111,-24.35261,-26.39927,-27.32586,-28.50042,-29.42314,-29.41566,-31.60702,-31.35803,-32.55248,-32.32972,-32.46429,-33.4846,-33.22652,-33.46658,-33.19768,-32.83593,-33.66865,-32.22563,-31.86986,-30.64356,-31.1472,-29.02452,-29.59142,-29.50303,-28.23571,-27.64552,-28.65536,-26.68474,-27.58384,-25.64997,-27.1786,-25.09208,-27.30276,-24.60014,-27.77358,-26.53847,-28.59413,-27.91058,-30.00689,-30.32065,-29.24599,-31.62862,-31.10527,-32.29808,-32.51022,-31.37659,-31.84931,-31.56955,-31.4906,-30.42871,-30.1076,-26.29926,-28.13837,-24.53817,-21.84747,-22.0415,-17.88292,-17.7227,-14.90222,-13.7774,-9.456154,-11.06808,-7.999242,-7.683455,-3.403109,-7.032922,-2.610594,-3.071504,-2.358528,-1.570902,-2.861961,0.3761357,-1.062117,0.5363105,-0.2246664,2.383978,2.391251,5.186542,3.002619,7.678004,6.30009,9.536325,8.236038,9.728358,9.763006,6.457682,11.66758,8.359451,9.698984,11.80978,11.76842,13.2329,12.28611,13.80178,13.93052,12.60006,13.79446,11.58215,11.70385,10.86304,11.27805,8.132578,9.042782,5.325014,6.458325,3.288579,3.313254,0.4562737,0.3231202,-2.642841,-3.611681,-3.453616,-7.384732,-6.988658,-10.06888,-9.638016,-13.85974,-12.4324,-15.50955,-15.09554,-17.37512,-17.60731,-16.67299,-19.20807,-17.56373,-18.79591,-17.50243,-16.21302,-16.3873,-15.68939,-15.74461,-14.45172,-13.59367,-14.62293,-12.41204,-12.75734,-11.18542,-9.295462,-11.5352,-6.244501,-9.803923,-4.158838,-8.083107,-2.641532,-7.560992,-1.891105,-7.178854,0.6436939,-7.532339,-0.2472801,-5.682118,-1.591483,-2.507347,-1.128746,0.08078325,0.7913664,2.154806,3.821893,5.210225,6.494739,9.877129,10.63749,12.4483,13.75938,17.26355,14.79905,21.68771,18.05391,23.55115,21.29473,25.27764,22.45967,25.66522,26.71434,25.37644,25.40315,27.01799,26.41277,26.48303,25.40678,26.28874,26.02384,27.87832,24.59954,29.4813,24.80751,30.31476,25.74833,27.68029,27.4787,25.41435,26.79418,24.49047,25.84191,23.07839,25.91694,26.26624,26.99608,26.39136,28.4743,28.08241,29.02872,29.84106,29.39776,29.18412,29.66153,29.82219,30.78831,30.78353,31.0677,31.72001,29.37792,34.08847,28.80745,35.34393,29.10053,34.39312,31.22953,34.33481,32.10165,32.98091,33.14835,32.57649,32.40737,32.41358,32.30944,30.74336,33.44521,29.59582,32.8963,28.29209,33.58511,28.81546,31.06585,29.29142,30.83509,28.01244,32.24549,26.96159,30.5145,26.76791,29.87063,26.91013,28.41849,26.61023,28.10878,26.77954,26.17312,23.36722,27.12009,20.56603,26.69001,22.15376,25.55852,22.41176,25.72327,23.53749,28.59563,23.028,30.2354,25.67464,30.98091,28.90421,29.93791,32.37704,30.12346,34.81307,31.80526,34.03001,33.6541,34.29287,33.18671,35.31519,32.84911,35.39693,32.53418,35.01842,31.69077,33.95145,31.06275,30.98027,31.27309,26.94927,30.277,23.19374,27.8361,19.71555,23.87861,17.64993,17.58577,13.49968,12.70361,10.35095,5.347387,5.172539,-1.144066,0.6394263,-6.891905,-4.849953,-13.17343,-12.38351,-17.564,-18.77058,-22.45756,-26.34851,-26.1555,-33.03868,-31.10033,-39.16262,-36.15487,-44.54402,-41.44916,-50.20277,-46.29096,-55.1121,-50.79884,-59.55144,-55.12269,-63.0045,-59.87533,-65.12567,-64.20819,-66.55513,-68.48019,-67.25714,-72.2692,-68.48891,-73.14112,-71.97697,-73.11007,-72.70852,-70.94599,-70.40973,-72.49195,-69.13658,-72.48003,-68.69644,-71.47617,-70.20294,-70.64331,-71.13141,-70.02598,-71.84885,-69.68348,-73.24948,-68.98329,-73.34441,-68.394,-75.07055,-67.85438,-75.28352,-67.58923,-75.22245,-69.99147,-74.8137,-71.8191,-76.13579,-73.9311,-74.62333,-73.45376,-74.93169,-71.08446,-73.78857,-71.30484,-71.24489,-69.69149,-69.94396,-67.14449,-66.41954,-62.75849,-62.48032,-58.11639,-57.35596,-52.38468,-49.63284,-48.1761,-41.77497,-42.79275,-35.90724,-35.07821,-30.46765,-28.4787,-24.39971,-22.54919,-17.60138,-16.73283,-11.44103,-10.12882,-5.416961,-4.414769,-0.8767665,2.253859,3.73646,9.310927,8.253705,14.3815,13.31072,18.24495,19.27173,22.07553,22.3193,26.85742,25.55178,29.81935,29.87824,31.97232,32.86281,33.81242,35.30877,35.71486,35.51342,38.27398,36.95752,39.90332,37.07692,40.5907,36.76044,40.53759,37.10873,40.27416,34.90554,39.92637,34.55895,39.38336,32.48222,38.68198,30.61226,37.59648,30.67344,35.90691,29.25555,33.12862,29.39002,32.13535,28.91184,30.37871,29.98467,29.52391,31.89212,31.11984,32.64893,32.27416,31.85718,31.32935,33.16237,30.95485,32.89409,29.94329,32.73003,29.56619,32.32244,28.96847,31.21641,29.66316,30.15906,30.88389,28.60945,29.9688,28.87529,30.67494,26.91833,31.25612,24.53339,30.78864,24.73299,27.99991,23.57874,25.90166,22.54351,23.12814,21.09331,20.47733,19.64024,18.56089,18.14875,17.28983,16.6616,17.06536,18.04604,16.42617,17.1615,16.60501,17.04141,16.95159,17.46316,16.25631,17.55017,14.48741,17.69835,13.88305,16.58258,13.47806,14.76811,14.8429,14.61792,12.15932,15.21295,11.25573,14.68509,11.41519,12.89508,11.12772,11.65347,10.65155,10.09289,10.87457,8.399714,10.88716,8.919632,9.752683,7.12656,11.02238,5.664118,11.19103,4.445958,9.082801,4.812915,8.01335,4.707393,5.249479,3.696275,4.772118,1.964377,4.102195,0.5818281,2.108255,-0.4244894,0.8413907,-1.756485,-0.2026369,-2.975983,-1.261519,-5.96352,-2.305597,-7.661045,-4.51912,-8.961529,-6.874346,-9.787556,-9.330347,-12.63015,-11.1988,-13.21617,-14.52033,-14.90264,-17.20521,-18.23196,-19.69996,-20.51325,-22.63003,-23.35279,-25.92247,-26.42793,-27.293,-30.55862,-28.70966,-34.99728,-31.2567,-37.67853,-33.95674,-38.85686,-35.78732,-40.69205,-37.5455,-43.42783,-41.16366,-45.61659,-45.40384,-48.82166,-48.14171,-52.69465,-51.59368,-56.50369,-54.68758,-59.64959,-57.03615,-64.34901,-59.05897,-65.62029,-62.32671,-66.00445,-67.00778,-65.66928,-69.41057,-66.90281,-69.61888,-67.85083,-69.96972,-67.37658,-70.95922,-65.65344,-70.09125,-63.84309,-68.41057,-62.25408,-66.45398,-59.19538,-63.25367,-56.37165,-57.98516,-52.21442,-53.35441,-48.62594,-46.71932,-43.33461,-41.86428,-36.88394,-37.20124,-31.78689,-30.72192,-26.63143,-23.31604,-20.48703,-17.04031,-14.70222,-8.533999,-9.197977,-0.8523484,-2.223554,5.324828,6.582565,11.85549,12.58136,18.43518,18.90236,26.32099,25.14727,31.57284,30.86073,38.43714,36.49067,43.07996,43.03158,47.08284,49.13397,51.81158,53.06611,56.77145,56.88372,60.90338,60.35935,62.68081,63.43549,66.88813,65.54485,70.00474,68.3048,69.79297,69.452,68.50439,69.49803,67.88782,70.71926,68.28419,73.53743,67.9271,76.49814,70.46775,77.53526,74.38666,79.07527,77.87956,81.36363,80.90488,84.4955,84.95064,86.21114,88.49168,88.66518,92.98284,89.8501,95.54682,89.14116,96.44451,89.56573,96.07502,89.01548,94.0722,87.77029,91.86398,84.27907,88.69035,80.98919,83.2859,78.98919,78.5005,74.22129,74.86059,69.24116,71.00171,64.66905,64.93303,61.81241,59.20954,57.60309,54.34523,52.69022,48.26588,48.01986,41.07812,43.72002,32.32328,38.01192,24.58773,30.98647,18.38903,23.41886,11.07849,14.33059,5.071368,5.778858,-2.471406,-2.876323,-9.54195,-11.07704,-16.69704,-18.92517,-23.49776,-25.55731,-29.38745,-31.13999,-35.30945,-36.91416,-40.96328,-41.19292,-44.30938,-46.09342,-46.30678,-50.50427,-48.09404,-53.05664,-51.03688,-53.18533,-53.77761,-52.43334,-55.45713,-52.25707,-54.60356,-51.57911,-51.41487,-49.97181,-46.96554,-47.5558,-43.039,-42.80595,-39.7395,-38.44753,-34.92374,-36.51737,-30.47349,-32.75645,-28.94007,-29.30642,-27.74083,-27.72603,-26.39352,-28.85397,-27.35356,-28.2323,-28.29496,-25.84151,-27.17682,-23.32977,-25.97489,-22.45348,-24.52809,-19.0216,-24.4953,-16.81948,-22.15029,-16.66596,-19.86181,-17.55298,-18.79795,-18.73409,-18.80339,-18.20418,-19.86872,-17.19798,-19.63843,-15.40939,-16.73312,-17.2407,-13.25782,-18.0498,-12.38338,-17.9725,-12.77845,-19.75236,-14.65193,-19.92084,-14.69835,-21.61386,-16.09704,-20.97382,-18.52535,-20.83163,-20.28384,-21.0367,-21.09967,-21.51807,-20.26582,-21.61033,-20.71564,-20.79401,-20.7748,-20.38648,-20.64904,-21.36828,-20.85113,-21.4032,-21.24403,-20.2652,-22.41442,-19.59017,-22.46459,-18.2351,-22.30976,-18.98867,-20.03931,-17.28621,-20.39542,-16.12753,-18.5484,-16.13478,-16.22823,-13.96954,-16.28781,-11.25425,-14.69674,-10.50946,-12.58947,-7.843516,-12.5376,-5.575413,-11.23756,-5.534375,-9.86019,-5.578828,-9.30087,-7.097215,-6.978948,-8.903494,-5.621823,-7.323503,-6.49669,-3.578926,-5.311395,-1.96851,-2.729345,-0.00122621,-0.1023672,0.522274,4.373331,2.408685,5.971195,5.699797,8.366293,7.312079,12.37165,7.414814,15.4497,8.9431,17.71448,11.11826,18.45768,13.72373,19.3769,17.03488,18.17054,21.86656,17.34743,24.19739,17.70462,24.57814,19.35895,23.90375,18.44442,23.30089,16.3879,20.25213,16.53069,15.42533,15.49911,12.87727,16.67141,10.43673,17.08051,11.13444,16.25496,13.83539,14.84484,14.12873,15.72041,12.49485,16.00348,11.07562,16.99067,10.67964,17.0656,11.8434,18.15909,12.05187,18.97786,13.7884,19.28568,15.1463,19.29314,16.88972,18.71459,18.67335,20.55044,18.52585,21.7488,18.39604,22.42927,18.36213,22.69427,18.38894,22.81409,17.62957,24.64827,16.21861,24.18021,16.18843,23.14742,16.19703,21.7529,14.99733,20.48293,15.79829,17.18796,16.22582,15.11489,14.02174,14.26219,13.66122,11.17976,13.32497,8.358913,10.96137,8.497395,8.118822,6.480153,5.374621,3.143977,3.170361,